5.003444e+002,2.768805e+001
5.013087e+002,2.765973e+001
5.022729e+002,2.583282e+001
5.032371e+002,2.324194e+001
5.042014e+002,2.273557e+001
5.051656e+002,2.403656e+001
5.061298e+002,2.565952e+001
5.070941e+002,2.616992e+001
5.080583e+002,2.507639e+001
5.090225e+002,2.511597e+001
5.099868e+002,2.753439e+001
5.109510e+002,2.943283e+001
5.119152e+002,2.879330e+001
5.128795e+002,2.534839e+001
5.138437e+002,2.306445e+001
5.148079e+002,2.483072e+001
5.157722e+002,2.671802e+001
5.167364e+002,2.717422e+001
5.177006e+002,2.589035e+001
5.186649e+002,2.353058e+001
5.196291e+002,1.989676e+001
5.205933e+002,1.675912e+001
5.215576e+002,1.625940e+001
5.225218e+002,1.826086e+001
5.234860e+002,2.137112e+001
5.244503e+002,2.337338e+001
5.254145e+002,2.424594e+001
5.263787e+002,2.369659e+001
5.273430e+002,2.067282e+001
5.283072e+002,1.693945e+001
5.292714e+002,1.486926e+001
5.302357e+002,1.488025e+001
5.311999e+002,1.532178e+001
5.321641e+002,1.654977e+001
5.331284e+002,1.801962e+001
5.340926e+002,1.929764e+001
5.350568e+002,2.013904e+001
5.360211e+002,2.043848e+001
5.369853e+002,2.031982e+001
5.379495e+002,1.996426e+001
5.389138e+002,1.954166e+001
5.398780e+002,1.901337e+001
5.408422e+002,1.800797e+001
5.418065e+002,1.470483e+001
5.427707e+002,9.644745e+000
5.437349e+002,7.449280e+000
5.446992e+002,1.005521e+001
5.456634e+002,1.585715e+001
5.466276e+002,1.927658e+001
5.475919e+002,1.859378e+001
5.485561e+002,1.730219e+001
5.495203e+002,1.461530e+001
5.504846e+002,1.155838e+001
5.514488e+002,9.756195e+000
5.524130e+002,1.043216e+001
5.533773e+002,1.127539e+001
5.543415e+002,1.095920e+001
5.553057e+002,1.019196e+001
5.562700e+002,9.656525e+000
5.572342e+002,9.745941e+000
5.581984e+002,1.014603e+001
5.591627e+002,1.058749e+001
5.601269e+002,1.098828e+001
5.610911e+002,1.054883e+001
5.620554e+002,8.696716e+000
5.630196e+002,5.670135e+000
5.639838e+002,4.349335e+000
5.649481e+002,6.174164e+000
5.659123e+002,7.609344e+000
5.668765e+002,8.589600e+000
5.678408e+002,9.060181e+000
5.688050e+002,8.377777e+000
5.697692e+002,4.351715e+000
5.707335e+002,1.446198e+000
5.716977e+002,1.787567e+000
5.726619e+002,3.857727e+000
5.736262e+002,5.670746e+000
5.745904e+002,5.937286e+000
5.755546e+002,5.399353e+000
5.765189e+002,5.254059e+000
5.774831e+002,5.083527e+000
5.784473e+002,4.220764e+000
5.794116e+002,2.302094e+000
5.803758e+002,-4.031982e-001
5.813400e+002,-1.886353e+000
5.823043e+002,-2.341736e+000
5.832685e+002,-2.349182e+000
5.842327e+002,-1.889160e+000
5.851970e+002,-8.570862e-001
5.861612e+002,6.806946e-001
5.871254e+002,3.471710e+000
5.880897e+002,5.680176e+000
5.890539e+002,6.852051e+000
5.900181e+002,7.119293e+000
5.909824e+002,6.642944e+000
5.919466e+002,5.174896e+000
5.929108e+002,4.001923e+000
5.938751e+002,4.771240e+000
5.948393e+002,6.532227e+000
5.958035e+002,7.839905e+000
5.967678e+002,7.673004e+000
5.977320e+002,6.342743e+000
5.986962e+002,5.579712e+000
5.996605e+002,5.099548e+000
6.006247e+002,4.882385e+000
6.015889e+002,5.372528e+000
6.025532e+002,6.463348e+000
6.035174e+002,6.285583e+000
6.044816e+002,2.767883e+000
6.054459e+002,2.419128e-001
6.064101e+002,-4.041748e-001
6.073743e+002,3.041382e-001
6.083386e+002,1.493835e+000
6.093028e+002,3.199890e+000
6.102670e+002,4.396179e+000
6.112313e+002,3.851532e+000
6.121955e+002,2.554688e+000
6.131597e+002,1.895447e+000
6.141240e+002,2.798798e+000
6.150882e+002,4.695282e+000
6.160524e+002,5.373352e+000
6.170167e+002,5.139465e+000
6.179809e+002,4.174561e+000
6.189451e+002,2.011963e+000
6.199094e+002,-1.090759e+000
6.208736e+002,-2.456543e+000
6.218378e+002,5.380859e-001
6.228021e+002,2.741302e+000
6.237663e+002,3.265747e+000
6.247305e+002,2.911743e+000
6.256948e+002,3.049744e+000
6.266590e+002,4.421356e+000
6.276232e+002,5.303314e+000
6.285875e+002,4.876770e+000
6.295517e+002,3.732361e+000
6.305159e+002,2.155975e+000
6.314802e+002,3.273315e-001
6.324444e+002,-1.455231e+000
6.334086e+002,-1.608887e+000
6.343729e+002,-5.968628e-001
6.353371e+002,-2.019653e-001
6.363013e+002,-1.244202e+000
6.372656e+002,-3.226715e+000
6.382298e+002,-4.214325e+000
6.391940e+002,-3.526031e+000
6.401583e+002,-2.680450e+000
6.411225e+002,-8.981323e-001
6.420867e+002,1.007080e+000
6.430510e+002,1.865936e+000
6.440152e+002,9.979858e-001
6.449794e+002,-3.694153e-001
6.459437e+002,-1.981323e+000
6.469079e+002,-3.434692e+000
6.478721e+002,-4.114197e+000
6.488364e+002,-3.904449e+000
6.498006e+002,-3.542572e+000
6.507648e+002,-4.935303e+000
6.517291e+002,-7.242218e+000
6.526933e+002,-8.175598e+000
6.536575e+002,-7.283295e+000
6.546218e+002,-5.153351e+000
6.555860e+002,-2.766052e+000
6.565502e+002,8.264771e-001
6.575145e+002,2.180206e+000
6.584787e+002,-2.251282e-001
6.594429e+002,-3.305969e+000
6.604072e+002,-4.637360e+000
6.613714e+002,-3.762512e+000
6.623356e+002,-2.504028e+000
6.632999e+002,-1.157440e+000
6.642641e+002,-3.718567e-001
6.652283e+002,-6.162109e-001
6.661926e+002,-1.678619e+000
6.671568e+002,-2.973053e+000
6.681210e+002,-4.183533e+000
6.690853e+002,-4.892914e+000
6.700495e+002,-3.676239e+000
6.710137e+002,-6.693726e-001
6.719780e+002,2.094360e+000
6.729422e+002,2.299652e+000
6.739064e+002,-8.530273e-001
6.748707e+002,-2.181793e+000
6.758349e+002,3.009033e-002
6.767991e+002,1.491058e+000
6.777634e+002,-5.756531e-001
6.787276e+002,-5.348846e+000
6.796918e+002,-7.492554e+000
6.806561e+002,-1.881989e+000
6.816203e+002,2.928711e+000
6.825845e+002,3.312256e+000
6.835488e+002,6.913452e-001
6.845130e+002,-2.418732e+000
6.854772e+002,-4.224670e+000
6.864415e+002,-4.863464e+000
6.874057e+002,-5.063080e+000
6.883699e+002,-5.017975e+000
6.893342e+002,-4.575867e+000
6.902984e+002,-3.558746e+000
6.912626e+002,-2.037201e+000
6.922269e+002,-8.627930e-001
6.931911e+002,3.730469e-001
6.941553e+002,1.183594e+000
6.951196e+002,8.005066e-001
6.960838e+002,-1.065674e-001
6.970480e+002,-1.881104e-001
6.980123e+002,1.428741e+000
6.989765e+002,2.571991e+000
6.999407e+002,2.086823e+000
7.009050e+002,1.016724e+000
7.018692e+002,1.846619e-001
7.028334e+002,-1.640015e-001
7.037977e+002,-5.246277e-001
7.047619e+002,-1.761688e+000
7.057261e+002,-3.321625e+000
7.066904e+002,-4.441833e+000
7.076546e+002,-5.003143e+000
7.086188e+002,-4.934753e+000
7.095831e+002,-4.009796e+000
7.105473e+002,-1.652008e+000
7.115115e+002,-7.203979e-001
7.124758e+002,-1.930573e+000
7.134400e+002,-3.633331e+000
7.144042e+002,-5.160736e+000
7.153685e+002,-6.346069e+000
7.163327e+002,-6.482056e+000
7.172969e+002,-3.574799e+000
7.182612e+002,-1.015717e+000
7.192254e+002,-4.077454e-001
7.201896e+002,-1.368439e+000
7.211539e+002,-2.965027e+000
7.221181e+002,-4.553406e+000
7.230823e+002,-5.666229e+000
7.240466e+002,-4.799805e+000
7.250108e+002,-2.308502e+000
7.259750e+002,-9.066772e-002
7.269393e+002,5.947876e-001
7.279035e+002,-2.800293e-001
7.288677e+002,-1.375336e+000
7.298320e+002,-3.602814e+000
7.307962e+002,-4.056885e+000
7.317604e+002,-9.866638e-001
7.327247e+002,3.403290e+000
7.336889e+002,5.957611e+000
7.346531e+002,5.422882e+000
7.356174e+002,3.316986e+000
7.365816e+002,-3.488159e-001
7.375458e+002,-3.702850e+000
7.385101e+002,-5.157684e+000
7.394743e+002,-4.447052e+000
7.404385e+002,-2.693115e+000
7.414028e+002,-1.573639e+000
7.423670e+002,-1.244110e+000
7.433312e+002,-4.944763e-001
7.442955e+002,1.108093e+000
7.452597e+002,2.709259e+000
7.462239e+002,3.071259e+000
7.471882e+002,1.645172e+000
7.481524e+002,9.729309e-001
7.491166e+002,6.631165e-001
7.500809e+002,8.538208e-001
7.510451e+002,2.158173e+000
7.520093e+002,4.122772e+000
7.529736e+002,5.309601e+000
7.539378e+002,5.137604e+000
7.549020e+002,4.235382e+000
7.558663e+002,2.489258e+000
7.568306e+002,5.310364e-001
7.577948e+002,-7.911072e-001
7.587590e+002,-1.051392e+000
7.597233e+002,-7.976685e-001
7.606875e+002,-1.526917e+000
7.616517e+002,-2.937408e+000
7.626160e+002,-3.074097e+000
7.635802e+002,-8.581848e-001
7.645444e+002,2.388336e+000
7.655087e+002,3.643463e+000
7.664729e+002,1.256989e+000
7.674371e+002,3.802185e-001
7.684014e+002,2.877991e+000
7.693656e+002,5.284180e+000
7.703298e+002,5.132355e+000
7.712941e+002,2.322632e+000
7.722583e+002,-7.161255e-001
7.732225e+002,-2.574402e+000
7.741868e+002,-3.584503e+000
7.751510e+002,-3.839813e+000
7.761152e+002,-3.475494e+000
7.770795e+002,-2.618805e+000
7.780437e+002,-1.391235e+000
7.790079e+002,6.072998e-003
7.799722e+002,-4.287720e-002
7.809364e+002,-1.666840e+000
7.819006e+002,-2.990936e+000
7.828649e+002,-2.980835e+000
7.838291e+002,-1.942352e+000
7.847933e+002,-1.216827e+000
7.857576e+002,-1.367767e+000
7.867218e+002,-1.492950e+000
7.876860e+002,-1.247345e+000
7.886503e+002,-7.150574e-001
7.896145e+002,-4.043579e-002
7.905787e+002,7.518005e-001
7.915430e+002,1.920074e+000
7.925072e+002,4.472900e+000
7.934714e+002,6.710663e+000
7.944357e+002,6.525970e+000
7.953999e+002,4.217041e+000
7.963641e+002,1.563446e+000
7.973284e+002,4.711304e-001
7.982926e+002,1.032928e+000
7.992568e+002,1.821869e+000
8.002211e+002,2.849945e+000
8.011853e+002,3.253937e+000
8.021495e+002,2.683472e+000
8.031138e+002,1.702606e+000
8.040780e+002,1.587158e+000
8.050422e+002,2.961578e+000
8.060065e+002,4.011749e+000
8.069707e+002,3.517273e+000
8.079349e+002,2.615387e+000
8.088992e+002,2.625610e+000
8.098634e+002,4.023254e+000
8.108276e+002,5.935608e+000
8.117919e+002,7.044434e+000
8.127561e+002,7.296021e+000
8.137203e+002,7.348328e+000
8.146846e+002,7.448029e+000
8.156488e+002,7.045624e+000
8.166130e+002,5.147339e+000
8.175773e+002,1.148315e+000
8.185415e+002,-9.929504e-001
8.195057e+002,-6.468811e-001
8.204700e+002,2.111816e-002
8.214342e+002,6.588745e-002
8.223984e+002,-9.405518e-002
8.233627e+002,9.191589e-001
8.243269e+002,4.437622e+000
8.252911e+002,7.595581e+000
8.262554e+002,8.859009e+000
8.272196e+002,8.943085e+000
8.281838e+002,8.317413e+000
8.291481e+002,7.289825e+000
8.301123e+002,6.111786e+000
8.310765e+002,5.208160e+000
8.320408e+002,4.562714e+000
8.330050e+002,4.247009e+000
8.339692e+002,4.441895e+000
8.349335e+002,4.588898e+000
8.358977e+002,4.012390e+000
8.368619e+002,2.622864e+000
8.378262e+002,1.962921e+000
8.387904e+002,2.377502e+000
8.397546e+002,2.882721e+000
8.407189e+002,3.195770e+000
8.416831e+002,3.488190e+000
8.426473e+002,4.247864e+000
8.436116e+002,5.879669e+000
8.445758e+002,7.328094e+000
8.455400e+002,6.668762e+000
8.465043e+002,5.214630e+000
8.474685e+002,4.953064e+000
8.484327e+002,6.413269e+000
8.493970e+002,8.337799e+000
8.503612e+002,8.315216e+000
8.513254e+002,5.745880e+000
8.522897e+002,5.136688e+000
8.532539e+002,7.696259e+000
8.542181e+002,1.014801e+001
8.551824e+002,1.051392e+001
8.561466e+002,9.245575e+000
8.571108e+002,8.626709e+000
8.580751e+002,8.664032e+000
8.590393e+002,9.192841e+000
8.600035e+002,1.087878e+001
8.609678e+002,1.294217e+001
8.619320e+002,1.455630e+001
8.628962e+002,1.534418e+001
8.638605e+002,1.550537e+001
8.648247e+002,1.507693e+001
8.657889e+002,1.429584e+001
8.667532e+002,1.377344e+001
8.677174e+002,1.358994e+001
8.686816e+002,1.352689e+001
8.696459e+002,1.335751e+001
8.706101e+002,1.313019e+001
8.715743e+002,1.319720e+001
8.725386e+002,1.317865e+001
8.735028e+002,1.391296e+001
8.744670e+002,1.647131e+001
8.754313e+002,1.947607e+001
8.763955e+002,2.020215e+001
8.773597e+002,1.712799e+001
8.783240e+002,1.431946e+001
8.792882e+002,1.544537e+001
8.802524e+002,1.751517e+001
8.812167e+002,1.759079e+001
8.821809e+002,1.542404e+001
8.831451e+002,1.323257e+001
8.841094e+002,1.401620e+001
8.850736e+002,1.775351e+001
8.860378e+002,1.980087e+001
8.870021e+002,1.963229e+001
8.879663e+002,1.948950e+001
8.889305e+002,2.116583e+001
8.898948e+002,2.396954e+001
8.908590e+002,2.441458e+001
8.918232e+002,2.035425e+001
8.927875e+002,1.738113e+001
8.937517e+002,1.671185e+001
8.947159e+002,1.742249e+001
8.956802e+002,1.906671e+001
8.966444e+002,2.118875e+001
8.976086e+002,2.289996e+001
8.985729e+002,2.332819e+001
8.995371e+002,2.309750e+001
9.005013e+002,2.288339e+001
9.014656e+002,2.288858e+001
9.024298e+002,2.365063e+001
9.033940e+002,2.559930e+001
9.043583e+002,2.829651e+001
9.053225e+002,2.937738e+001
9.062867e+002,2.706781e+001
9.072510e+002,2.505261e+001
9.082152e+002,2.351443e+001
9.091794e+002,2.264557e+001
9.101437e+002,2.259619e+001
9.111079e+002,2.337521e+001
9.120721e+002,2.475006e+001
9.130364e+002,2.716708e+001
9.140006e+002,2.934393e+001
9.149648e+002,3.107602e+001
9.159291e+002,3.215594e+001
9.168933e+002,3.184286e+001
9.178575e+002,2.958716e+001
9.188218e+002,2.624927e+001
9.197860e+002,2.536859e+001
9.207502e+002,2.690613e+001
9.217145e+002,2.803842e+001
9.226787e+002,2.873553e+001
9.236429e+002,2.879816e+001
9.246072e+002,2.741006e+001
9.255714e+002,2.396481e+001
9.265356e+002,2.153610e+001
9.274999e+002,2.150604e+001
9.284641e+002,2.145026e+001
9.294283e+002,2.039706e+001
9.303926e+002,1.889014e+001
9.313568e+002,1.800214e+001
9.323210e+002,1.829025e+001
9.332853e+002,1.908322e+001
9.342495e+002,1.977448e+001
9.352137e+002,2.009601e+001
9.361780e+002,1.935092e+001
9.371422e+002,1.755878e+001
9.381064e+002,1.584586e+001
9.390707e+002,1.564221e+001
9.400349e+002,1.708490e+001
9.409991e+002,1.779871e+001
9.419634e+002,1.736954e+001
9.429276e+002,1.676688e+001
9.438918e+002,1.577399e+001
9.448561e+002,1.498444e+001
9.458203e+002,1.572046e+001
9.467845e+002,1.880560e+001
9.477488e+002,2.140469e+001
9.487130e+002,2.043921e+001
9.496772e+002,1.869678e+001
9.506415e+002,1.808072e+001
9.516057e+002,1.888266e+001
9.525699e+002,2.076566e+001
9.535342e+002,2.343121e+001
9.544984e+002,2.654343e+001
9.554626e+002,2.755463e+001
9.564269e+002,2.647720e+001
9.573911e+002,2.533380e+001
9.583553e+002,2.439325e+001
9.593196e+002,2.368057e+001
9.602838e+002,2.331323e+001
9.612480e+002,2.330594e+001
9.622123e+002,2.332901e+001
9.631765e+002,2.366437e+001
9.641407e+002,2.376776e+001
9.651050e+002,2.301373e+001
9.660692e+002,2.173456e+001
9.670334e+002,2.076971e+001
9.679977e+002,2.074423e+001
9.689619e+002,2.140753e+001
9.699261e+002,2.212247e+001
9.708904e+002,2.267056e+001
9.718546e+002,2.260104e+001
9.728188e+002,2.159433e+001
9.737831e+002,2.051019e+001
9.747473e+002,2.066144e+001
9.757115e+002,2.239255e+001
9.766758e+002,2.384506e+001
9.776400e+002,2.527469e+001
9.786042e+002,2.640625e+001
9.795685e+002,2.709375e+001
9.805327e+002,2.721579e+001
9.814969e+002,2.674161e+001
9.824612e+002,2.577448e+001
9.834254e+002,2.451019e+001
9.843896e+002,2.240994e+001
9.853539e+002,2.023077e+001
9.863181e+002,1.909833e+001
9.872823e+002,1.876660e+001
9.882466e+002,1.807910e+001
9.892108e+002,1.617923e+001
9.901750e+002,1.368213e+001
9.911393e+002,1.340421e+001
9.921035e+002,1.660040e+001
9.930677e+002,1.909927e+001
9.940320e+002,2.127338e+001
9.949962e+002,2.266220e+001
9.959604e+002,2.211301e+001
9.969247e+002,1.976691e+001
9.978889e+002,1.878091e+001
9.988531e+002,2.133423e+001
9.998174e+002,2.430026e+001
1.000782e+003,2.593661e+001
1.001746e+003,2.692667e+001
1.002710e+003,2.854904e+001
1.003674e+003,3.119470e+001
1.004639e+003,3.371967e+001
1.005603e+003,3.401935e+001
1.006567e+003,3.176038e+001
1.007531e+003,3.013760e+001
1.008495e+003,2.884308e+001
1.009460e+003,2.872803e+001
1.010424e+003,3.153415e+001
1.011388e+003,3.620563e+001
1.012352e+003,3.792133e+001
1.013317e+003,3.415598e+001
1.014281e+003,3.114630e+001
1.015245e+003,3.184286e+001
1.016209e+003,3.282391e+001
1.017174e+003,3.116873e+001
1.018138e+003,2.721204e+001
1.019102e+003,2.391577e+001
1.020066e+003,2.395239e+001
1.021031e+003,2.570004e+001
1.021995e+003,2.356943e+001
1.022959e+003,1.824524e+001
1.023923e+003,1.363882e+001
1.024887e+003,1.087814e+001
1.025852e+003,9.570557e+000
1.026816e+003,9.606476e+000
1.027780e+003,1.174139e+001
1.028744e+003,1.228519e+001
1.029709e+003,9.171692e+000
1.030673e+003,6.471985e+000
1.031637e+003,5.324463e+000
1.032601e+003,5.229767e+000
1.033566e+003,5.853180e+000
1.034530e+003,7.050323e+000
1.035494e+003,7.509247e+000
1.036458e+003,4.517365e+000
1.037422e+003,5.157166e-001
1.038387e+003,2.103271e-001
1.039351e+003,3.320831e+000
1.040315e+003,6.177521e+000
1.041279e+003,5.967926e+000
1.042244e+003,3.612274e+000
1.043208e+003,3.413940e+000
1.044172e+003,7.443634e+000
1.045136e+003,9.724670e+000
1.046101e+003,9.564728e+000
1.047065e+003,8.511292e+000
1.048029e+003,6.839386e+000
1.048993e+003,4.998901e+000
1.049958e+003,4.436188e+000
1.050922e+003,6.469543e+000
1.051886e+003,8.604370e+000
1.052850e+003,7.679962e+000
1.053814e+003,5.534180e+000
1.054779e+003,4.504730e+000
1.055743e+003,5.062500e+000
1.056707e+003,6.221710e+000
1.057671e+003,6.809601e+000
1.058636e+003,6.785828e+000
1.059600e+003,7.068512e+000
1.060564e+003,8.567535e+000
1.061528e+003,9.499298e+000
1.062493e+003,9.068939e+000
1.063457e+003,7.979370e+000
1.064421e+003,7.068298e+000
1.065385e+003,6.508331e+000
1.066349e+003,6.037170e+000
1.067314e+003,5.537994e+000
1.068278e+003,5.095551e+000
1.069242e+003,4.644379e+000
1.070206e+003,4.408569e+000
1.071171e+003,4.828125e+000
1.072135e+003,5.916840e+000
1.073099e+003,6.950745e+000
1.074063e+003,6.805298e+000
1.075028e+003,5.394104e+000
1.075992e+003,4.749725e+000
1.076956e+003,5.177185e+000
1.077920e+003,5.418091e+000
1.078885e+003,4.777374e+000
1.079849e+003,3.970459e+000
1.080813e+003,4.515381e+000
1.081777e+003,7.010498e+000
1.082741e+003,8.800842e+000
1.083706e+003,6.950043e+000
1.084670e+003,5.033722e+000
1.085634e+003,5.464050e+000
1.086598e+003,7.314636e+000
1.087563e+003,8.619049e+000
1.088527e+003,8.339661e+000
1.089491e+003,7.057312e+000
1.090455e+003,5.541260e+000
1.091420e+003,3.616608e+000
1.092384e+003,2.245392e+000
1.093348e+003,1.252014e+000
1.094312e+003,8.167725e-001
1.095276e+003,1.909180e+000
1.096241e+003,3.826782e+000
1.097205e+003,3.616302e+000
1.098169e+003,-5.465393e-001
1.099133e+003,-2.877838e+000
1.100098e+003,1.095551e+000
1.101062e+003,5.462006e+000
1.102026e+003,6.044891e+000
1.102990e+003,3.921143e+000
1.103955e+003,2.716949e+000
1.104919e+003,4.577820e+000
1.105883e+003,7.567932e+000
1.106847e+003,7.256042e+000
1.107812e+003,3.607452e+000
1.108776e+003,2.880493e+000
1.109740e+003,6.908905e+000
1.110704e+003,1.060889e+001
1.111668e+003,9.495514e+000
1.112633e+003,5.058380e+000
1.113597e+003,3.706085e+000
1.114561e+003,7.658203e+000
1.115525e+003,1.049667e+001
1.116490e+003,9.296631e+000
1.117454e+003,7.354706e+000
1.118418e+003,6.694855e+000
1.119382e+003,7.374756e+000
1.120347e+003,8.545258e+000
1.121311e+003,9.543549e+000
1.122275e+003,1.016257e+001
1.123239e+003,1.044028e+001
1.124203e+003,1.058517e+001
1.125168e+003,1.050919e+001
1.126132e+003,1.015765e+001
1.127096e+003,9.852905e+000
1.128060e+003,9.518555e+000
1.129025e+003,9.248840e+000
1.129989e+003,9.865509e+000
1.130953e+003,1.168008e+001
1.131917e+003,1.366028e+001
1.132882e+003,1.584860e+001
1.133846e+003,1.792178e+001
1.134810e+003,1.955823e+001
1.135774e+003,2.095776e+001
1.136739e+003,2.271072e+001
1.137703e+003,2.511441e+001
1.138667e+003,2.738278e+001
1.139631e+003,2.778391e+001
1.140595e+003,2.667319e+001
1.141560e+003,2.747595e+001
1.142524e+003,3.076718e+001
1.143488e+003,3.498297e+001
1.144452e+003,3.890665e+001
1.145417e+003,4.284000e+001
1.146381e+003,4.815045e+001
1.147345e+003,5.565347e+001
1.148309e+003,6.219766e+001
1.149274e+003,6.466995e+001
1.150238e+003,6.859387e+001
1.151202e+003,7.803833e+001
1.152166e+003,9.098169e+001
1.153130e+003,1.035388e+002
1.154095e+003,1.136417e+002
1.155059e+003,1.217585e+002
1.156023e+003,1.292241e+002
1.156987e+003,1.353932e+002
1.157952e+003,1.364923e+002
1.158916e+003,1.321341e+002
1.159880e+003,1.270661e+002
1.160844e+003,1.239647e+002
1.161809e+003,1.211605e+002
1.162773e+003,1.152103e+002
1.163737e+003,1.055142e+002
1.164701e+003,9.543106e+001
1.165666e+003,8.467596e+001
1.166630e+003,7.514441e+001
1.167594e+003,6.769675e+001
1.168558e+003,6.179480e+001
1.169522e+003,5.659903e+001
1.170487e+003,5.191235e+001
1.171451e+003,4.865421e+001
1.172415e+003,4.811792e+001
1.173379e+003,4.944931e+001
1.174344e+003,4.772495e+001
1.175308e+003,4.269080e+001
1.176272e+003,3.978384e+001
1.177236e+003,4.299634e+001
1.178201e+003,4.758716e+001
1.179165e+003,4.653452e+001
1.180129e+003,3.962347e+001
1.181093e+003,3.490250e+001
1.182057e+003,3.590390e+001
1.183022e+003,3.667447e+001
1.183986e+003,3.426910e+001
1.184950e+003,3.113412e+001
1.185914e+003,2.981296e+001
1.186879e+003,3.042715e+001
1.187843e+003,3.126517e+001
1.188807e+003,3.087332e+001
1.189771e+003,2.969998e+001
1.190736e+003,2.930710e+001
1.191700e+003,2.975604e+001
1.192664e+003,3.024597e+001
1.193628e+003,3.061908e+001
1.194593e+003,3.135895e+001
1.195557e+003,3.352454e+001
1.196521e+003,3.632040e+001
1.197485e+003,3.668640e+001
1.198449e+003,3.335574e+001
1.199414e+003,3.026752e+001
1.200378e+003,2.956757e+001
1.201342e+003,2.938849e+001
1.202306e+003,2.871445e+001
1.203271e+003,2.749625e+001
1.204235e+003,2.610358e+001
1.205199e+003,2.472488e+001
1.206163e+003,2.293719e+001
1.207128e+003,1.976715e+001
1.208092e+003,1.507401e+001
1.209056e+003,1.389166e+001
1.210020e+003,1.844617e+001
1.210984e+003,2.147427e+001
1.211949e+003,2.028766e+001
1.212913e+003,1.678943e+001
1.213877e+003,1.324457e+001
1.214841e+003,9.892731e+000
1.215806e+003,6.327271e+000
1.216770e+003,1.394592e+000
1.217734e+003,-2.196960e+000
1.218698e+003,-2.013855e+000
1.219663e+003,-2.094116e-001
1.220627e+003,1.012268e+000
1.221591e+003,9.885864e-001
1.222555e+003,-3.980103e-001
1.223520e+003,-3.312012e+000
1.224484e+003,-7.070251e+000
1.225448e+003,-8.719727e+000
1.226412e+003,-7.062103e+000
1.227376e+003,-5.895874e+000
1.228341e+003,-5.060577e+000
1.229305e+003,-4.979309e+000
1.230269e+003,-6.798767e+000
1.231233e+003,-9.306030e+000
1.232198e+003,-9.607971e+000
1.233162e+003,-6.750885e+000
1.234126e+003,-4.200012e+000
1.235090e+003,-4.934753e+000
1.236055e+003,-6.992035e+000
1.237019e+003,-8.684875e+000
1.237983e+003,-9.846588e+000
1.238947e+003,-9.815125e+000
1.239911e+003,-8.269348e+000
1.240876e+003,-6.677887e+000
1.241840e+003,-7.687836e+000
1.242804e+003,-1.161194e+001
1.243768e+003,-1.227179e+001
1.244733e+003,-4.980316e+000
1.245697e+003,-6.218872e-001
1.246661e+003,-2.386749e+000
1.247625e+003,-5.488800e+000
1.248590e+003,-6.348022e+000
1.249554e+003,-5.097778e+000
1.250518e+003,-3.674225e+000
1.251482e+003,-3.006348e+000
1.252447e+003,-2.773865e+000
1.253411e+003,-2.423584e+000
1.254375e+003,-2.092499e+000
1.255339e+003,-2.545776e+000
1.256303e+003,-3.655731e+000
1.257268e+003,-3.752106e+000
1.258232e+003,-1.719818e+000
1.259196e+003,1.261322e+000
1.260160e+003,3.148956e+000
1.261125e+003,4.001678e+000
1.262089e+003,4.218201e+000
1.263053e+003,2.363708e+000
1.264017e+003,1.424652e+000
1.264982e+003,3.272217e+000
1.265946e+003,5.591492e+000
1.266910e+003,5.916901e+000
1.267874e+003,4.440094e+000
1.268839e+003,3.252563e+000
1.269803e+003,3.751373e+000
1.270767e+003,5.106262e+000
1.271731e+003,5.849518e+000
1.272695e+003,6.014740e+000
1.273660e+003,5.705200e+000
1.274624e+003,4.529968e+000
1.275588e+003,3.239532e+000
1.276552e+003,2.433533e+000
1.277517e+003,1.971924e+000
1.278481e+003,1.548981e+000
1.279445e+003,1.147766e+000
1.280409e+003,-3.378296e-002
1.281374e+003,-3.578674e+000
1.282338e+003,-6.044312e+000
1.283302e+003,-4.656708e+000
1.284266e+003,-1.983826e+000
1.285230e+003,-8.840637e-001
1.286195e+003,-1.795837e+000
1.287159e+003,-3.535400e+000
1.288123e+003,-5.074799e+000
1.289087e+003,-6.123383e+000
1.290052e+003,-6.037720e+000
1.291016e+003,-4.431244e+000
1.291980e+003,-3.505096e+000
1.292944e+003,-3.555725e+000
1.293909e+003,-4.100677e+000
1.294873e+003,-5.096893e+000
1.295837e+003,-6.157501e+000
1.296801e+003,-6.933075e+000
1.297766e+003,-7.337921e+000
1.298730e+003,-7.104004e+000
1.299694e+003,-5.738892e+000
1.300658e+003,-4.586639e+000
1.301622e+003,-5.551392e+000
1.302587e+003,-7.393890e+000
1.303551e+003,-8.395081e+000
1.304515e+003,-8.146118e+000
1.305479e+003,-6.548706e+000
1.306444e+003,-3.115570e+000
1.307408e+003,8.919373e-001
1.308372e+003,8.604431e-001
1.309336e+003,-5.392273e+000
1.310301e+003,-8.955536e+000
1.311265e+003,-7.368347e+000
1.312229e+003,-5.432831e+000
1.313193e+003,-4.137634e+000
1.314157e+003,-3.488190e+000
1.315122e+003,-3.627258e+000
1.316086e+003,-4.380615e+000
1.317050e+003,-4.959045e+000
1.318014e+003,-4.721375e+000
1.318979e+003,-4.515594e+000
1.319943e+003,-6.668671e+000
1.320907e+003,-1.050928e+001
1.321871e+003,-1.059784e+001
1.322836e+003,-5.704224e+000
1.323800e+003,-1.450165e+000
1.324764e+003,-1.326538e+000
1.325728e+003,-3.361694e+000
1.326693e+003,-4.237671e+000
1.327657e+003,-3.921356e+000
1.328621e+003,-4.194855e+000
1.329585e+003,-5.901611e+000
1.330549e+003,-6.709564e+000
1.331514e+003,-4.849670e+000
1.332478e+003,-2.749603e+000
1.333442e+003,-3.129578e+000
1.334406e+003,-5.386414e+000
1.335371e+003,-6.623993e+000
1.336335e+003,-5.138763e+000
1.337299e+003,-2.538177e+000
1.338263e+003,-2.010773e+000
1.339228e+003,-3.914520e+000
1.340192e+003,-4.431030e+000
1.341156e+003,-2.358917e+000
1.342120e+003,-7.843018e-001
1.343084e+003,-1.496887e-001
1.344049e+003,-4.318848e-001
1.345013e+003,-2.176056e+000
1.345977e+003,-4.573090e+000
1.346941e+003,-5.554413e+000
1.347906e+003,-4.345978e+000
1.348870e+003,-2.424896e+000
1.349834e+003,-8.322144e-001
1.350798e+003,1.919556e-001
1.351763e+003,4.319458e-001
1.352727e+003,3.845215e-003
1.353691e+003,-7.214966e-001
1.354655e+003,-1.697296e+000
1.355620e+003,-2.552460e+000
1.356584e+003,-2.589874e+000
1.357548e+003,-1.920288e+000
1.358512e+003,-2.156708e+000
1.359476e+003,-4.116150e+000
1.360441e+003,-5.519531e+000
1.361405e+003,-5.294006e+000
1.362369e+003,-4.767731e+000
1.363333e+003,-4.168762e+000
1.364298e+003,-3.861053e+000
1.365262e+003,-4.509613e+000
1.366226e+003,-6.038788e+000
1.367190e+003,-7.387695e+000
1.368155e+003,-7.604706e+000
1.369119e+003,-7.037018e+000
1.370083e+003,-6.742218e+000
1.371047e+003,-6.753906e+000
1.372011e+003,-6.535309e+000
1.372976e+003,-6.616913e+000
1.373940e+003,-6.130585e+000
1.374904e+003,-4.005402e+000
1.375868e+003,-1.487549e+000
1.376833e+003,-1.716919e-001
1.377797e+003,-1.910706e-001
1.378761e+003,-8.975220e-001
1.379725e+003,-2.145294e+000
1.380690e+003,-3.453369e+000
1.381654e+003,-4.390686e+000
1.382618e+003,-4.971313e+000
1.383582e+003,-5.333740e+000
1.384547e+003,-5.422607e+000
1.385511e+003,-4.835632e+000
1.386475e+003,-3.363068e+000
1.387439e+003,-1.410278e+000
1.388403e+003,9.548645e-001
1.389368e+003,3.705688e+000
1.390332e+003,3.917480e+000
1.391296e+003,-1.944885e-001
1.392260e+003,-3.182678e+000
1.393225e+003,-3.646942e+000
1.394189e+003,-3.089294e+000
1.395153e+003,-1.513275e+000
1.396117e+003,1.740417e-001
1.397082e+003,6.338806e-001
1.398046e+003,-2.762451e-001
1.399010e+003,-1.382690e+000
1.399974e+003,-1.717560e+000
1.400938e+003,-1.544495e+000
1.401903e+003,-1.135437e+000
1.402867e+003,5.541992e-002
1.403831e+003,9.699097e-001
1.404795e+003,1.843292e+000
1.405760e+003,1.762421e+000
1.406724e+003,-1.482422e+000
1.407688e+003,-5.055573e+000
1.408652e+003,-4.683289e+000
1.409617e+003,-6.985779e-001
1.410581e+003,2.643921e+000
1.411545e+003,3.694946e+000
1.412509e+003,3.541779e+000
1.413474e+003,2.241089e+000
1.414438e+003,7.376404e-001
1.415402e+003,1.476563e+000
1.416366e+003,4.121216e+000
1.417330e+003,5.523285e+000
1.418295e+003,4.241638e+000
1.419259e+003,2.174042e+000
1.420223e+003,1.284393e+000
1.421187e+003,1.362000e+000
1.422152e+003,1.863068e+000
1.423116e+003,3.284241e+000
1.424080e+003,4.030579e+000
1.425044e+003,2.437561e+000
1.426009e+003,1.087677e+000
1.426973e+003,1.310547e+000
1.427937e+003,2.199280e+000
1.428901e+003,2.830750e+000
1.429865e+003,3.049438e+000
1.430830e+003,2.970520e+000
1.431794e+003,2.613892e+000
1.432758e+003,2.177765e+000
1.433722e+003,2.281219e+000
1.434687e+003,3.212677e+000
1.435651e+003,4.014832e+000
1.436615e+003,4.103516e+000
1.437579e+003,3.849945e+000
1.438544e+003,2.539459e+000
1.439508e+003,1.798187e+000
1.440472e+003,3.626984e+000
1.441436e+003,6.696442e+000
1.442401e+003,8.118652e+000
1.443365e+003,7.268097e+000
1.444329e+003,6.150085e+000
1.445293e+003,6.285583e+000
1.446257e+003,7.076141e+000
1.447222e+003,7.355713e+000
1.448186e+003,7.178650e+000
1.449150e+003,6.951752e+000
1.450114e+003,6.702789e+000
1.451079e+003,6.202393e+000
1.452043e+003,5.189331e+000
1.453007e+003,4.177246e+000
1.453971e+003,3.812592e+000
1.454936e+003,3.965973e+000
1.455900e+003,4.034851e+000
1.456864e+003,3.845215e+000
1.457828e+003,4.065063e+000
1.458792e+003,5.744476e+000
1.459757e+003,7.167908e+000
1.460721e+003,6.288239e+000
1.461685e+003,4.250061e+000
1.462649e+003,3.813110e+000
1.463614e+003,5.588470e+000
1.464578e+003,7.219025e+000
1.465542e+003,6.518951e+000
1.466506e+003,4.138763e+000
1.467471e+003,1.830994e+000
1.468435e+003,-6.541748e-001
1.469399e+003,-8.744202e-001
1.470363e+003,3.279327e+000
1.471328e+003,6.538757e+000
1.472292e+003,7.568848e+000
1.473256e+003,7.211426e+000
1.474220e+003,5.452087e+000
1.475184e+003,3.401642e+000
1.476149e+003,2.768036e+000
1.477113e+003,3.862244e+000
1.478077e+003,5.245087e+000
1.479041e+003,5.634460e+000
1.480006e+003,5.613617e+000
1.480970e+003,6.874817e+000
1.481934e+003,1.000201e+001
1.482898e+003,1.105875e+001
1.483863e+003,8.211182e+000
1.484827e+003,6.038239e+000
1.485791e+003,5.855530e+000
1.486755e+003,7.008392e+000
1.487719e+003,9.612488e+000
1.488684e+003,1.272809e+001
1.489648e+003,1.406592e+001
1.490612e+003,1.305551e+001
1.491576e+003,1.232758e+001
1.492541e+003,1.400992e+001
1.493505e+003,1.718277e+001
1.494469e+003,2.042102e+001
1.495433e+003,2.340237e+001
1.496398e+003,2.475934e+001
1.497362e+003,2.411188e+001
1.498326e+003,2.343054e+001
1.499290e+003,2.340918e+001
1.500255e+003,2.409549e+001
1.501219e+003,2.558359e+001
1.502183e+003,2.777975e+001
1.503147e+003,3.040958e+001
1.504111e+003,3.339511e+001
1.505076e+003,3.688065e+001
1.506040e+003,4.077338e+001
1.507004e+003,4.553204e+001
1.507968e+003,5.227533e+001
1.508933e+003,5.992569e+001
1.509897e+003,6.567880e+001
1.510861e+003,6.945679e+001
1.511825e+003,7.525989e+001
1.512790e+003,8.634012e+001
1.513754e+003,9.972580e+001
1.514718e+003,1.094229e+002
1.515682e+003,1.153158e+002
1.516646e+003,1.239560e+002
1.517611e+003,1.375968e+002
1.518575e+003,1.502093e+002
1.519539e+003,1.596124e+002
1.520503e+003,1.681372e+002
1.521468e+003,1.775083e+002
1.522432e+003,1.863506e+002
1.523396e+003,1.931575e+002
1.524360e+003,1.973345e+002
1.525325e+003,1.986985e+002
1.526289e+003,1.971563e+002
1.527253e+003,1.929531e+002
1.528217e+003,1.861626e+002
1.529182e+003,1.768802e+002
1.530146e+003,1.686636e+002
1.531110e+003,1.635017e+002
1.532074e+003,1.552804e+002
1.533039e+003,1.423632e+002
1.534003e+003,1.273054e+002
1.534967e+003,1.097455e+002
1.535931e+003,9.237259e+001
1.536896e+003,7.798145e+001
1.537860e+003,6.660385e+001
1.538824e+003,5.635242e+001
1.539788e+003,4.620013e+001
1.540752e+003,3.712384e+001
1.541717e+003,3.048050e+001
1.542681e+003,2.620453e+001
1.543645e+003,2.315024e+001
1.544609e+003,2.215887e+001
1.545573e+003,2.074750e+001
1.546538e+003,1.805917e+001
1.547502e+003,1.560956e+001
1.548466e+003,1.415048e+001
1.549430e+003,1.344077e+001
1.550395e+003,1.318582e+001
1.551359e+003,1.320786e+001
1.552323e+003,1.353394e+001
1.553287e+003,1.414160e+001
1.554252e+003,1.435678e+001
1.555216e+003,1.346991e+001
1.556180e+003,1.202420e+001
1.557144e+003,1.131100e+001
1.558109e+003,1.142953e+001
1.559073e+003,1.171405e+001
1.560037e+003,1.246609e+001
1.561001e+003,1.216080e+001
1.561966e+003,9.355011e+000
1.562930e+003,6.618469e+000
1.563894e+003,6.333282e+000
1.564858e+003,7.792206e+000
1.565823e+003,9.522186e+000
1.566787e+003,1.110492e+001
1.567751e+003,1.162939e+001
1.568715e+003,1.045349e+001
1.569679e+003,8.561096e+000
1.570644e+003,6.320221e+000
1.571608e+003,4.441162e+000
1.572572e+003,5.708160e+000
1.573536e+003,1.039682e+001
1.574500e+003,1.398560e+001
1.575465e+003,1.458423e+001
1.576429e+003,1.418259e+001
1.577393e+003,1.420578e+001
1.578357e+003,1.428818e+001
1.579322e+003,1.370334e+001
1.580286e+003,1.252133e+001
1.581250e+003,1.164929e+001
1.582214e+003,1.143008e+001
1.583179e+003,1.125436e+001
1.584143e+003,1.038913e+001
1.585107e+003,9.424774e+000
1.586071e+003,9.424500e+000
1.587036e+003,1.029190e+001
1.588000e+003,1.121210e+001
1.588964e+003,1.190472e+001
1.589928e+003,1.243170e+001
1.590893e+003,1.278632e+001
1.591857e+003,1.310101e+001
1.592821e+003,1.353510e+001
1.593785e+003,1.413147e+001
1.594750e+003,1.518039e+001
1.595714e+003,1.685614e+001
1.596678e+003,1.747272e+001
1.597642e+003,1.555441e+001
1.598606e+003,1.360303e+001
1.599571e+003,1.356924e+001
1.600535e+003,1.479745e+001
1.601499e+003,1.701270e+001
1.602463e+003,1.972296e+001
1.603427e+003,2.129279e+001
1.604392e+003,2.105576e+001
1.605356e+003,1.972079e+001
1.606320e+003,1.736765e+001
1.607284e+003,1.469482e+001
1.608249e+003,1.384366e+001
1.609213e+003,1.488107e+001
1.610177e+003,1.591745e+001
1.611141e+003,1.684372e+001
1.612106e+003,1.726627e+001
1.613070e+003,1.664221e+001
1.614034e+003,1.570917e+001
1.614998e+003,1.497812e+001
1.615963e+003,1.432883e+001
1.616927e+003,1.332471e+001
1.617891e+003,1.197546e+001
1.618855e+003,1.093356e+001
1.619820e+003,1.049304e+001
1.620784e+003,1.051276e+001
1.621748e+003,1.139224e+001
1.622712e+003,1.309570e+001
1.623677e+003,1.402957e+001
1.624641e+003,1.419434e+001
1.625605e+003,1.352737e+001
1.626569e+003,1.063986e+001
1.627533e+003,8.415833e+000
1.628498e+003,8.434540e+000
1.629462e+003,9.834686e+000
1.630426e+003,1.319464e+001
1.631390e+003,1.693854e+001
1.632354e+003,1.764697e+001
1.633319e+003,1.473083e+001
1.634283e+003,1.109207e+001
1.635247e+003,8.637787e+000
1.636211e+003,7.317383e+000
1.637176e+003,7.474762e+000
1.638140e+003,9.045898e+000
1.639104e+003,9.851898e+000
1.640068e+003,9.447327e+000
1.641033e+003,9.493988e+000
1.641997e+003,1.084103e+001
1.642961e+003,1.225403e+001
1.643925e+003,1.316452e+001
1.644890e+003,1.378217e+001
1.645854e+003,1.445459e+001
1.646818e+003,1.494586e+001
1.647782e+003,1.434232e+001
1.648747e+003,1.248874e+001
1.649711e+003,1.119653e+001
1.650675e+003,1.216455e+001
1.651639e+003,1.449536e+001
1.652604e+003,1.649100e+001
1.653568e+003,1.803510e+001
1.654532e+003,1.782715e+001
1.655496e+003,1.518396e+001
1.656460e+003,1.301004e+001
1.657425e+003,1.244986e+001
1.658389e+003,1.224847e+001
1.659353e+003,1.149182e+001
1.660317e+003,1.084833e+001
1.661281e+003,1.130368e+001
1.662246e+003,1.244583e+001
1.663210e+003,1.304492e+001
1.664174e+003,1.275644e+001
1.665138e+003,1.213519e+001
1.666103e+003,1.151712e+001
1.667067e+003,1.087503e+001
1.668031e+003,1.007556e+001
1.668995e+003,9.222504e+000
1.669960e+003,9.616272e+000
1.670924e+003,1.203778e+001
1.671888e+003,1.283722e+001
1.672852e+003,9.307526e+000
1.673817e+003,6.011871e+000
1.674781e+003,6.188049e+000
1.675745e+003,7.792786e+000
1.676709e+003,8.845856e+000
1.677674e+003,9.284851e+000
1.678638e+003,9.728088e+000
1.679602e+003,1.035764e+001
1.680566e+003,1.033081e+001
1.681531e+003,8.591614e+000
1.682495e+003,6.560028e+000
1.683459e+003,7.026245e+000
1.684423e+003,9.339447e+000
1.685387e+003,9.666046e+000
1.686352e+003,7.461060e+000
1.687316e+003,5.399719e+000
1.688280e+003,4.107086e+000
1.689244e+003,3.555695e+000
1.690208e+003,4.707764e+000
1.691173e+003,5.841217e+000
1.692137e+003,4.573486e+000
1.693101e+003,1.798492e+000
1.694065e+003,1.521301e-001
1.695030e+003,1.413879e-001
1.695994e+003,1.079651e+000
1.696958e+003,3.409760e+000
1.697922e+003,5.577484e+000
1.698887e+003,5.298248e+000
1.699851e+003,3.370026e+000
1.700815e+003,2.013428e+000
1.701779e+003,1.357635e+000
1.702744e+003,8.482666e-001
1.703708e+003,3.427124e-001
1.704672e+003,5.792542e-001
1.705636e+003,2.426086e+000
1.706601e+003,4.539368e+000
1.707565e+003,5.424713e+000
1.708529e+003,5.241211e+000
1.709493e+003,3.577087e+000
1.710458e+003,6.747437e-002
1.711422e+003,-2.121460e+000
1.712386e+003,-5.021362e-001
1.713350e+003,1.693115e+000
1.714314e+003,1.470947e+000
1.715279e+003,9.854126e-002
1.716243e+003,-1.394958e-001
1.717207e+003,7.331543e-001
1.718171e+003,1.639343e+000
1.719135e+003,2.311676e+000
1.720100e+003,2.424042e+000
1.721064e+003,1.409821e+000
1.722028e+003,5.561218e-001
1.722992e+003,2.525543e+000
1.723957e+003,6.531830e+000
1.724921e+003,6.767334e+000
1.725885e+003,2.215179e+000
1.726849e+003,-9.717407e-001
1.727814e+003,-1.359070e+000
1.728778e+003,-3.361206e-001
1.729742e+003,3.058075e+000
1.730706e+003,6.093597e+000
1.731671e+003,5.241852e+000
1.732635e+003,1.977814e+000
1.733599e+003,1.773071e-002
1.734563e+003,8.410645e-002
1.735528e+003,4.922791e-001
1.736492e+003,2.763977e-001
1.737456e+003,-1.373596e-001
1.738420e+003,-2.100220e-001
1.739385e+003,-2.588806e-001
1.740349e+003,-1.071747e+000
1.741313e+003,-2.835419e+000
1.742277e+003,-3.828400e+000
1.743241e+003,-3.435394e+000
1.744206e+003,-3.049866e+000
1.745170e+003,-3.415192e+000
1.746134e+003,-3.323944e+000
1.747098e+003,-1.221375e+000
1.748063e+003,1.014465e+000
1.749027e+003,7.633667e-001
1.749991e+003,-1.235168e+000
1.750955e+003,-2.293182e+000
1.751919e+003,-1.618011e+000
1.752884e+003,-8.059692e-001
1.753848e+003,-1.183502e+000
1.754812e+003,-2.148346e+000
1.755776e+003,-2.328857e+000
1.756741e+003,-1.637390e+000
1.757705e+003,-1.666351e+000
1.758669e+003,-3.184357e+000
1.759633e+003,-3.501343e+000
1.760598e+003,-1.413391e+000
1.761562e+003,3.266602e-001
1.762526e+003,1.305145e+000
1.763490e+003,1.546417e+000
1.764455e+003,7.527466e-001
1.765419e+003,-5.501404e-001
1.766383e+003,-2.123199e+000
1.767347e+003,-3.611969e+000
1.768312e+003,-3.655029e+000
1.769276e+003,-1.620209e+000
1.770240e+003,6.659241e-001
1.771204e+003,1.652069e+000
1.772168e+003,1.668427e+000
1.773133e+003,8.226318e-001
1.774097e+003,-7.478333e-001
1.775061e+003,-1.289490e+000
1.776025e+003,-5.053406e-001
1.776990e+003,-1.042938e+000
1.777954e+003,-4.486206e+000
1.778918e+003,-7.391998e+000
1.779882e+003,-7.570221e+000
1.780846e+003,-5.816833e+000
1.781811e+003,-1.746246e+000
1.782775e+003,3.364166e+000
1.783739e+003,4.623047e+000
1.784703e+003,1.029480e+000
1.785668e+003,-1.976227e+000
1.786632e+003,-1.869843e+000
1.787596e+003,-1.262848e+000
1.788560e+003,-1.835907e+000
1.789525e+003,-2.827057e+000
1.790489e+003,-3.645050e+000
1.791453e+003,-4.151489e+000
1.792417e+003,-3.676849e+000
1.793382e+003,-2.236023e+000
1.794346e+003,-1.470917e+000
1.795310e+003,-2.338104e+000
1.796274e+003,-3.275513e+000
1.797239e+003,-2.196167e+000
1.798203e+003,6.738281e-002
1.799167e+003,1.388855e-001
1.800131e+003,-2.785156e+000
1.801095e+003,-4.628754e+000
1.802060e+003,-4.730042e+000
1.803024e+003,-4.336334e+000
1.803988e+003,-3.017914e+000
1.804952e+003,-2.113770e+000
1.805917e+003,-2.588562e+000
1.806881e+003,-3.508362e+000
1.807845e+003,-4.302032e+000
1.808809e+003,-4.510986e+000
1.809773e+003,-3.161926e+000
1.810738e+003,-4.867554e-001
1.811702e+003,1.606201e+000
1.812666e+003,1.911407e+000
1.813630e+003,1.109131e+000
1.814595e+003,-2.450562e-002
1.815559e+003,-1.355865e+000
1.816523e+003,-2.199554e+000
1.817487e+003,-2.534149e+000
1.818452e+003,-1.970612e+000
1.819416e+003,4.214172e-001
1.820380e+003,1.385437e+000
1.821344e+003,-1.286285e+000
1.822309e+003,-4.000305e+000
1.823273e+003,-4.720215e+000
1.824237e+003,-4.199463e+000
1.825201e+003,-2.400116e+000
1.826166e+003,-2.675476e-001
1.827130e+003,-3.536072e-001
1.828094e+003,-3.064453e+000
1.829058e+003,-5.310974e+000
1.830022e+003,-5.606384e+000
1.830987e+003,-4.821930e+000
1.831951e+003,-2.781586e+000
1.832915e+003,-7.430725e-001
1.833879e+003,-8.418579e-001
1.834844e+003,-2.516663e+000
1.835808e+003,-4.225616e+000
1.836772e+003,-5.505280e+000
1.837736e+003,-5.055939e+000
1.838700e+003,-2.290253e+000
1.839665e+003,-1.067810e-001
1.840629e+003,-1.417664e+000
1.841593e+003,-3.980316e+000
1.842557e+003,-2.831696e+000
1.843522e+003,1.938965e+000
1.844486e+003,4.050049e+000
1.845450e+003,1.794861e+000
1.846414e+003,4.933777e-001
1.847379e+003,2.087708e-001
1.848343e+003,2.983704e-001
1.849307e+003,1.622406e+000
1.850271e+003,2.341614e+000
1.851236e+003,2.471619e-001
1.852200e+003,-2.558014e+000
1.853164e+003,-2.864716e+000
1.854128e+003,-1.243256e+000
1.855093e+003,-8.543701e-001
1.856057e+003,-2.593903e+000
1.857021e+003,-3.854370e+000
1.857985e+003,-2.425568e+000
1.858949e+003,3.726196e-002
1.859914e+003,6.559753e-001
1.860878e+003,-1.745605e-001
1.861842e+003,-5.608826e-001
1.862806e+003,-5.461121e-001
1.863771e+003,3.276367e-001
1.864735e+003,2.464813e+000
1.865699e+003,3.653107e+000
1.866663e+003,2.883667e+000
1.867627e+003,1.195984e+000
1.868592e+003,-1.564911e+000
1.869556e+003,-4.239441e+000
1.870520e+003,-3.709045e+000
1.871484e+003,-6.379089e-001
1.872449e+003,3.331604e-001
1.873413e+003,-1.711945e+000
1.874377e+003,-2.331085e+000
1.875341e+003,5.982666e-001
1.876306e+003,3.408325e+000
1.877270e+003,4.298767e+000
1.878234e+003,3.911835e+000
1.879198e+003,2.174683e+000
1.880163e+003,1.526794e-001
1.881127e+003,-2.864990e-001
1.882091e+003,8.345947e-001
1.883055e+003,2.404388e+000
1.884020e+003,3.735565e+000
1.884984e+003,3.651489e+000
1.885948e+003,1.010956e+000
1.886912e+003,-2.600159e+000
1.887876e+003,-4.003326e+000
1.888841e+003,-3.312958e+000
1.889805e+003,-1.798523e+000
1.890769e+003,9.552917e-001
1.891733e+003,2.183258e+000
1.892698e+003,8.792725e-001
1.893662e+003,-4.504395e-001
1.894626e+003,-1.277771e+000
1.895590e+003,-1.361145e+000
1.896554e+003,5.209045e-001
1.897519e+003,2.630402e+000
1.898483e+003,2.043365e+000
1.899447e+003,-3.708496e-001
1.900411e+003,-7.505798e-001
1.901376e+003,1.706848e+000
1.902340e+003,3.858582e+000
1.903304e+003,4.488403e+000
1.904268e+003,4.538147e+000
1.905233e+003,5.320557e+000
1.906197e+003,5.226746e+000
1.907161e+003,6.127319e-001
1.908125e+003,-5.032135e+000
1.909090e+003,-4.141663e+000
1.910054e+003,1.936005e+000
1.911018e+003,4.579315e+000
1.911982e+003,1.391174e+000
1.912947e+003,-1.424103e+000
1.913911e+003,6.511230e-001
1.914875e+003,4.486359e+000
1.915839e+003,5.153717e+000
1.916803e+003,3.158752e+000
1.917768e+003,1.442078e+000
1.918732e+003,-5.862427e-002
1.919696e+003,-2.346802e-002
1.920660e+003,2.528015e+000
1.921625e+003,4.039368e+000
1.922589e+003,2.766235e+000
1.923553e+003,1.716492e+000
1.924517e+003,3.324463e+000
1.925481e+003,5.110077e+000
1.926446e+003,4.698822e+000
1.927410e+003,2.976685e+000
1.928374e+003,1.532501e+000
1.929338e+003,4.441833e-001
1.930303e+003,-3.652649e-001
1.931267e+003,-7.483521e-001
1.932231e+003,-6.665955e-001
1.933195e+003,-5.279541e-002
1.934160e+003,6.526794e-001
1.935124e+003,1.285553e+000
1.936088e+003,1.620636e+000
1.937052e+003,1.380737e+000
1.938017e+003,8.831177e-001
1.938981e+003,4.786682e-001
1.939945e+003,3.582458e-001
1.940909e+003,1.072754e+000
1.941874e+003,2.718689e+000
1.942838e+003,4.140900e+000
1.943802e+003,4.400604e+000
1.944766e+003,3.877594e+000
1.945730e+003,2.770416e+000
1.946695e+003,1.210938e+000
1.947659e+003,1.417725e+000
1.948623e+003,3.581970e+000
1.949587e+003,5.036255e+000
1.950552e+003,5.787811e+000
1.951516e+003,4.782166e+000
1.952480e+003,5.525818e-001
1.953444e+003,-3.145355e+000
1.954408e+003,-3.443146e+000
1.955373e+003,-2.207214e+000
1.956337e+003,-2.148529e+000
1.957301e+003,-2.466278e+000
1.958265e+003,-2.560120e-001
1.959230e+003,5.099396e+000
1.960194e+003,8.289795e+000
1.961158e+003,6.992340e+000
1.962122e+003,5.423859e+000
1.963087e+003,4.434235e+000
1.964051e+003,3.791321e+000
1.965015e+003,3.817413e+000
1.965979e+003,3.997253e+000
1.966944e+003,3.589050e+000
1.967908e+003,2.773743e+000
1.968872e+003,1.891632e+000
1.969836e+003,1.247314e+000
1.970801e+003,1.564056e+000
1.971765e+003,3.063049e+000
1.972729e+003,4.263184e+000
1.973693e+003,3.706696e+000
1.974657e+003,2.743378e+000
1.975622e+003,3.783173e+000
1.976586e+003,5.771912e+000
1.977550e+003,5.510773e+000
1.978514e+003,3.585785e+000
1.979479e+003,3.636780e+000
1.980443e+003,6.036926e+000
1.981407e+003,7.925232e+000
1.982371e+003,8.280609e+000
1.983335e+003,8.587555e+000
1.984300e+003,1.003043e+001
1.985264e+003,1.108975e+001
1.986228e+003,9.338257e+000
1.987192e+003,5.434662e+000
1.988157e+003,2.787140e+000
1.989121e+003,1.479614e+000
1.990085e+003,1.455200e+000
1.991049e+003,4.156067e+000
1.992014e+003,5.390106e+000
1.992978e+003,3.530975e+000
1.993942e+003,1.510468e+000
1.994906e+003,-9.440308e-001
1.995871e+003,-1.910614e+000
1.996835e+003,1.440247e+000
1.997799e+003,6.426208e+000
1.998763e+003,9.377228e+000
1.999728e+003,1.007965e+001
