5.003444e+002,2.023795e+002
5.013087e+002,2.010304e+002
5.022729e+002,1.945643e+002
5.032371e+002,1.856378e+002
5.042014e+002,1.805548e+002
5.051656e+002,1.789464e+002
5.061298e+002,1.784451e+002
5.070941e+002,1.766903e+002
5.080583e+002,1.727422e+002
5.090225e+002,1.707043e+002
5.099868e+002,1.714530e+002
5.109510e+002,1.724564e+002
5.119152e+002,1.733115e+002
5.128795e+002,1.741793e+002
5.138437e+002,1.721598e+002
5.148079e+002,1.627635e+002
5.157722e+002,1.538705e+002
5.167364e+002,1.484465e+002
5.177006e+002,1.466649e+002
5.186649e+002,1.465138e+002
5.196291e+002,1.476381e+002
5.205933e+002,1.492163e+002
5.215576e+002,1.487461e+002
5.225218e+002,1.456879e+002
5.234860e+002,1.412183e+002
5.244503e+002,1.382020e+002
5.254145e+002,1.381456e+002
5.263787e+002,1.382291e+002
5.273430e+002,1.390114e+002
5.283072e+002,1.395812e+002
5.292714e+002,1.381469e+002
5.302357e+002,1.322031e+002
5.311999e+002,1.273011e+002
5.321641e+002,1.264512e+002
5.331284e+002,1.266398e+002
5.340926e+002,1.248070e+002
5.350568e+002,1.193052e+002
5.360211e+002,1.132849e+002
5.369853e+002,1.104877e+002
5.379495e+002,1.095486e+002
5.389138e+002,1.096254e+002
5.398780e+002,1.100499e+002
5.408422e+002,1.103174e+002
5.418065e+002,1.091075e+002
5.427707e+002,1.066346e+002
5.437349e+002,1.042792e+002
5.446992e+002,1.022095e+002
5.456634e+002,1.003923e+002
5.466276e+002,9.897803e+001
5.475919e+002,9.910889e+001
5.485561e+002,9.877441e+001
5.495203e+002,9.790613e+001
5.504846e+002,9.596643e+001
5.514488e+002,9.203589e+001
5.524130e+002,8.476489e+001
5.533773e+002,7.904382e+001
5.543415e+002,7.782166e+001
5.553057e+002,7.875867e+001
5.562700e+002,7.966077e+001
5.572342e+002,7.906934e+001
5.581984e+002,7.709229e+001
5.591627e+002,7.369666e+001
5.601269e+002,7.003320e+001
5.610911e+002,6.799268e+001
5.620554e+002,6.844336e+001
5.630196e+002,7.076379e+001
5.639838e+002,7.176672e+001
5.649481e+002,7.233386e+001
5.659123e+002,7.048267e+001
5.668765e+002,6.420740e+001
5.678408e+002,5.606628e+001
5.688050e+002,5.256458e+001
5.697692e+002,5.849512e+001
5.707335e+002,6.276294e+001
5.716977e+002,6.162781e+001
5.726619e+002,5.759241e+001
5.736262e+002,5.418384e+001
5.745904e+002,5.393518e+001
5.755546e+002,5.514539e+001
5.765189e+002,5.448181e+001
5.774831e+002,5.212720e+001
5.784473e+002,4.885291e+001
5.794116e+002,4.549695e+001
5.803758e+002,4.268359e+001
5.813400e+002,4.312390e+001
5.823043e+002,4.732837e+001
5.832685e+002,4.975696e+001
5.842327e+002,4.844800e+001
5.851970e+002,4.442297e+001
5.861612e+002,4.147595e+001
5.871254e+002,4.023291e+001
5.880897e+002,3.895325e+001
5.890539e+002,3.677234e+001
5.900181e+002,3.405676e+001
5.909824e+002,3.172595e+001
5.919466e+002,3.071887e+001
5.929108e+002,3.019727e+001
5.938751e+002,2.870398e+001
5.948393e+002,2.695276e+001
5.958035e+002,2.629260e+001
5.967678e+002,2.778064e+001
5.977320e+002,3.126587e+001
5.986962e+002,3.367151e+001
5.996605e+002,3.442114e+001
6.006247e+002,3.414453e+001
6.015889e+002,3.322986e+001
6.025532e+002,3.172766e+001
6.035174e+002,2.922961e+001
6.044816e+002,2.350940e+001
6.054459e+002,1.948901e+001
6.064101e+002,1.846008e+001
6.073743e+002,1.946167e+001
6.083386e+002,2.089917e+001
6.093028e+002,2.245776e+001
6.102670e+002,2.369678e+001
6.112313e+002,2.387610e+001
6.121955e+002,2.355261e+001
6.131597e+002,2.351563e+001
6.141240e+002,2.427039e+001
6.150882e+002,2.542493e+001
6.160524e+002,2.559094e+001
6.170167e+002,2.526868e+001
6.179809e+002,2.526086e+001
6.189451e+002,2.544678e+001
6.199094e+002,2.559790e+001
6.208736e+002,2.640955e+001
6.218378e+002,3.171106e+001
6.228021e+002,3.445569e+001
6.237663e+002,3.297351e+001
6.247305e+002,2.904480e+001
6.256948e+002,2.499292e+001
6.266590e+002,2.052405e+001
6.276232e+002,1.719031e+001
6.285875e+002,1.722131e+001
6.295517e+002,1.877917e+001
6.305159e+002,1.966577e+001
6.314802e+002,1.852332e+001
6.324444e+002,1.600671e+001
6.334086e+002,1.494214e+001
6.343729e+002,1.527869e+001
6.353371e+002,1.538232e+001
6.363013e+002,1.439111e+001
6.372656e+002,1.260229e+001
6.382298e+002,1.169080e+001
6.391940e+002,1.374573e+001
6.401583e+002,1.323499e+001
6.411225e+002,9.378784e+000
6.420867e+002,4.681641e+000
6.430510e+002,1.430054e+000
6.440152e+002,-3.402100e-001
6.449794e+002,-1.069336e+000
6.459437e+002,-2.728271e-001
6.469079e+002,7.691650e-001
6.478721e+002,1.840088e+000
6.488364e+002,2.681396e+000
6.498006e+002,2.381104e+000
6.507648e+002,-2.899414e+000
6.517291e+002,-1.079028e+001
6.526933e+002,-1.451428e+001
6.536575e+002,-1.270313e+001
6.546218e+002,-7.674072e+000
6.555860e+002,-3.695801e+000
6.565502e+002,-6.861572e-001
6.575145e+002,3.265381e-001
6.584787e+002,-1.682129e+000
6.594429e+002,-4.469971e+000
6.604072e+002,-6.354126e+000
6.613714e+002,-7.041870e+000
6.623356e+002,-7.376709e+000
6.632999e+002,-8.559692e+000
6.642641e+002,-9.663940e+000
6.652283e+002,-9.310181e+000
6.661926e+002,-7.494629e+000
6.671568e+002,-5.478638e+000
6.681210e+002,-5.311035e+000
6.690853e+002,-6.392822e+000
6.700495e+002,-6.245850e+000
6.710137e+002,-4.836426e+000
6.719780e+002,-2.912720e+000
6.729422e+002,-1.273682e+000
6.739064e+002,-8.410645e-002
6.748707e+002,1.667480e-001
6.758349e+002,-5.147705e-001
6.767991e+002,-2.053711e+000
6.777634e+002,-4.513306e+000
6.787276e+002,-7.229248e+000
6.796918e+002,-8.488892e+000
6.806561e+002,-7.958130e+000
6.816203e+002,-6.526123e+000
6.825845e+002,-2.910156e+000
6.835488e+002,1.081299e+000
6.845130e+002,2.406616e+000
6.854772e+002,-1.369507e+000
6.864415e+002,-7.044556e+000
6.874057e+002,-8.882202e+000
6.883699e+002,-8.256836e+000
6.893342e+002,-6.137573e+000
6.902984e+002,-2.663818e+000
6.912626e+002,1.891357e+000
6.922269e+002,4.322144e+000
6.931911e+002,5.230957e+000
6.941553e+002,4.847534e+000
6.951196e+002,7.011719e-001
6.960838e+002,-5.060425e+000
6.970480e+002,-8.531738e+000
6.980123e+002,-8.185669e+000
6.989765e+002,-6.225952e+000
6.999407e+002,-3.249023e+000
7.009050e+002,-1.049805e-002
7.018692e+002,3.390625e+000
7.028334e+002,6.562622e+000
7.037977e+002,8.242798e+000
7.047619e+002,5.476807e+000
7.057261e+002,8.319092e-001
7.066904e+002,-1.272827e+000
7.076546e+002,-1.677246e-001
7.086188e+002,2.596680e+000
7.095831e+002,4.688354e+000
7.105473e+002,5.958862e+000
7.115115e+002,5.515869e+000
7.124758e+002,2.206909e+000
7.134400e+002,-1.680908e+000
7.144042e+002,-4.691162e+000
7.153685e+002,-6.509888e+000
7.163327e+002,-7.714233e+000
7.172969e+002,-8.934570e+000
7.182612e+002,-8.935181e+000
7.192254e+002,-6.002686e+000
7.201896e+002,-1.805786e+000
7.211539e+002,4.002686e-001
7.221181e+002,-2.285034e+000
7.230823e+002,-7.619141e+000
7.240466e+002,-8.984985e+000
7.250108e+002,-6.842041e+000
7.259750e+002,-4.913940e+000
7.269393e+002,-6.130371e+000
7.279035e+002,-1.053052e+001
7.288677e+002,-1.302869e+001
7.298320e+002,-1.005823e+001
7.307962e+002,-6.923706e+000
7.317604e+002,-3.617065e+000
7.327247e+002,-2.896729e-001
7.336889e+002,2.815430e+000
7.346531e+002,5.374390e+000
7.356174e+002,4.245117e+000
7.365816e+002,-4.211670e+000
7.375458e+002,-1.278223e+001
7.385101e+002,-1.589685e+001
7.394743e+002,-1.231555e+001
7.404385e+002,-4.935425e+000
7.414028e+002,2.826294e+000
7.423670e+002,8.824097e+000
7.433312e+002,1.004321e+001
7.442955e+002,6.934082e+000
7.452597e+002,2.533569e+000
7.462239e+002,-7.532959e-001
7.471882e+002,-3.699707e+000
7.481524e+002,-2.946533e+000
7.491166e+002,3.150269e+000
7.500809e+002,8.536499e+000
7.510451e+002,1.197314e+001
7.520093e+002,1.299829e+001
7.529736e+002,1.042932e+001
7.539378e+002,1.211792e+000
7.549020e+002,-6.119385e+000
7.558663e+002,-5.719360e+000
7.568306e+002,-7.824707e-001
7.577948e+002,4.382690e+000
7.587590e+002,6.909790e+000
7.597233e+002,7.281372e+000
7.606875e+002,8.252930e+000
7.616517e+002,1.014001e+001
7.626160e+002,1.106128e+001
7.635802e+002,1.028589e+001
7.645444e+002,8.825439e+000
7.655087e+002,8.609009e+000
7.664729e+002,9.860596e+000
7.674371e+002,1.159912e+001
7.684014e+002,1.455798e+001
7.693656e+002,1.704395e+001
7.703298e+002,1.820947e+001
7.712941e+002,1.798779e+001
7.722583e+002,1.660071e+001
7.732225e+002,1.242383e+001
7.741868e+002,8.805664e+000
7.751510e+002,9.122314e+000
7.761152e+002,1.235181e+001
7.770795e+002,1.553577e+001
7.780437e+002,1.597107e+001
7.790079e+002,1.392627e+001
7.799722e+002,1.335693e+001
7.809364e+002,1.432495e+001
7.819006e+002,1.507336e+001
7.828649e+002,1.522559e+001
7.838291e+002,1.530542e+001
7.847933e+002,1.611426e+001
7.857576e+002,1.772925e+001
7.867218e+002,1.795483e+001
7.876860e+002,1.655542e+001
7.886503e+002,1.494617e+001
7.896145e+002,1.428809e+001
7.905787e+002,1.484741e+001
7.915430e+002,1.572864e+001
7.925072e+002,1.530017e+001
7.934714e+002,1.398047e+001
7.944357e+002,1.273328e+001
7.953999e+002,1.217981e+001
7.963641e+002,1.289880e+001
7.973284e+002,1.540552e+001
7.982926e+002,1.990967e+001
7.992568e+002,2.198450e+001
8.002211e+002,1.955579e+001
8.011853e+002,1.617737e+001
8.021495e+002,1.401428e+001
8.031138e+002,1.367627e+001
8.040780e+002,1.449048e+001
8.050422e+002,1.599609e+001
8.060065e+002,1.733057e+001
8.069707e+002,1.751697e+001
8.079349e+002,1.707874e+001
8.088992e+002,1.666479e+001
8.098634e+002,1.682166e+001
8.108276e+002,1.792896e+001
8.117919e+002,2.041858e+001
8.127561e+002,2.270813e+001
8.137203e+002,2.421997e+001
8.146846e+002,2.548523e+001
8.156488e+002,2.543347e+001
8.166130e+002,2.182312e+001
8.175773e+002,1.314819e+001
8.185415e+002,8.970337e+000
8.195057e+002,1.032373e+001
8.204700e+002,1.267664e+001
8.214342e+002,1.573926e+001
8.223984e+002,1.869568e+001
8.233627e+002,1.952271e+001
8.243269e+002,1.680115e+001
8.252911e+002,1.374927e+001
8.262554e+002,1.076697e+001
8.272196e+002,9.119629e+000
8.281838e+002,1.083496e+001
8.291481e+002,1.613281e+001
8.301123e+002,2.265015e+001
8.310765e+002,2.638416e+001
8.320408e+002,2.705920e+001
8.330050e+002,2.630347e+001
8.339692e+002,2.404858e+001
8.349335e+002,2.131970e+001
8.358977e+002,1.889966e+001
8.368619e+002,1.685803e+001
8.378262e+002,1.736084e+001
8.387904e+002,2.258057e+001
8.397546e+002,2.685522e+001
8.407189e+002,2.835645e+001
8.416831e+002,2.820435e+001
8.426473e+002,2.868579e+001
8.436116e+002,3.109412e+001
8.445758e+002,3.355359e+001
8.455400e+002,3.225403e+001
8.465043e+002,2.940564e+001
8.474685e+002,2.889612e+001
8.484327e+002,3.196021e+001
8.493970e+002,3.629785e+001
8.503612e+002,3.711609e+001
8.513254e+002,3.316614e+001
8.522897e+002,3.301819e+001
8.532539e+002,3.890186e+001
8.542181e+002,4.436145e+001
8.551824e+002,4.547949e+001
8.561466e+002,4.353589e+001
8.571108e+002,4.418420e+001
8.580751e+002,4.882715e+001
8.590393e+002,5.276001e+001
8.600035e+002,5.484875e+001
8.609678e+002,5.638599e+001
8.619320e+002,5.893164e+001
8.628962e+002,6.294763e+001
8.638605e+002,6.704138e+001
8.648247e+002,6.889063e+001
8.657889e+002,6.923364e+001
8.667532e+002,6.993677e+001
8.677174e+002,7.123340e+001
8.686816e+002,7.268494e+001
8.696459e+002,7.410107e+001
8.706101e+002,7.601282e+001
8.715743e+002,7.631970e+001
8.725386e+002,7.168274e+001
8.735028e+002,6.989343e+001
8.744670e+002,7.421545e+001
8.754313e+002,8.150574e+001
8.763955e+002,8.633240e+001
8.773597e+002,8.683252e+001
8.783240e+002,8.641125e+001
8.792882e+002,8.611206e+001
8.802524e+002,8.648621e+001
8.812167e+002,8.860095e+001
8.821809e+002,9.239246e+001
8.831451e+002,9.678296e+001
8.841094e+002,1.004777e+002
8.850736e+002,1.039585e+002
8.860378e+002,1.084185e+002
8.870021e+002,1.142697e+002
8.879663e+002,1.183969e+002
8.889305e+002,1.175248e+002
8.898948e+002,1.126978e+002
8.908590e+002,1.105137e+002
8.918232e+002,1.138405e+002
8.927875e+002,1.170228e+002
8.937517e+002,1.175266e+002
8.947159e+002,1.183772e+002
8.956802e+002,1.227987e+002
8.966444e+002,1.304896e+002
8.976086e+002,1.367275e+002
8.985729e+002,1.363071e+002
8.995371e+002,1.331941e+002
9.005013e+002,1.335841e+002
9.014656e+002,1.374191e+002
9.024298e+002,1.422733e+002
9.033940e+002,1.460485e+002
9.043583e+002,1.482637e+002
9.053225e+002,1.492043e+002
9.062867e+002,1.472706e+002
9.072510e+002,1.450787e+002
9.082152e+002,1.426194e+002
9.091794e+002,1.414203e+002
9.101437e+002,1.434850e+002
9.111079e+002,1.491062e+002
9.120721e+002,1.541455e+002
9.130364e+002,1.564093e+002
9.140006e+002,1.557555e+002
9.149648e+002,1.501820e+002
9.159291e+002,1.426434e+002
9.168933e+002,1.384139e+002
9.178575e+002,1.408167e+002
9.188218e+002,1.471041e+002
9.197860e+002,1.488489e+002
9.207502e+002,1.457402e+002
9.217145e+002,1.420643e+002
9.226787e+002,1.388182e+002
9.236429e+002,1.366195e+002
9.246072e+002,1.364968e+002
9.255714e+002,1.389222e+002
9.265356e+002,1.382227e+002
9.274999e+002,1.290363e+002
9.284641e+002,1.208834e+002
9.294283e+002,1.177491e+002
9.303926e+002,1.183445e+002
9.313568e+002,1.199126e+002
9.323210e+002,1.210881e+002
9.332853e+002,1.215261e+002
9.342495e+002,1.210367e+002
9.352137e+002,1.191954e+002
9.361780e+002,1.145117e+002
9.371422e+002,1.072542e+002
9.381064e+002,1.010345e+002
9.390707e+002,1.004346e+002
9.400349e+002,1.059220e+002
9.409991e+002,1.092770e+002
9.419634e+002,1.087869e+002
9.429276e+002,1.083535e+002
9.438918e+002,1.101147e+002
9.448561e+002,1.124619e+002
9.458203e+002,1.124290e+002
9.467845e+002,1.090420e+002
9.477488e+002,1.051251e+002
9.487130e+002,1.009205e+002
9.496772e+002,9.810486e+001
9.506415e+002,9.943481e+001
9.516057e+002,1.039978e+002
9.525699e+002,1.078599e+002
9.535342e+002,1.070624e+002
9.544984e+002,1.020321e+002
9.554626e+002,9.857568e+001
9.564269e+002,9.773511e+001
9.573911e+002,9.740247e+001
9.583553e+002,9.639429e+001
9.593196e+002,9.547058e+001
9.602838e+002,9.605554e+001
9.612480e+002,9.827490e+001
9.622123e+002,1.008195e+002
9.631765e+002,1.056350e+002
9.641407e+002,1.088693e+002
9.651050e+002,1.074221e+002
9.660692e+002,1.026080e+002
9.670334e+002,9.766260e+001
9.679977e+002,9.491394e+001
9.689619e+002,9.422766e+001
9.699261e+002,9.500977e+001
9.708904e+002,9.621558e+001
9.718546e+002,9.546899e+001
9.728188e+002,9.128528e+001
9.737831e+002,8.785864e+001
9.747473e+002,9.164160e+001
9.757115e+002,1.044269e+002
9.766758e+002,1.159810e+002
9.776400e+002,1.290897e+002
9.786042e+002,1.385742e+002
9.795685e+002,1.419338e+002
9.805327e+002,1.404968e+002
9.814969e+002,1.364760e+002
9.824612e+002,1.310006e+002
9.834254e+002,1.238215e+002
9.843896e+002,1.107097e+002
9.853539e+002,9.701062e+001
9.863181e+002,9.013965e+001
9.872823e+002,8.894116e+001
9.882466e+002,8.662708e+001
9.892108e+002,7.784839e+001
9.901750e+002,6.520215e+001
9.911393e+002,6.202417e+001
9.921035e+002,7.561902e+001
9.930677e+002,8.368481e+001
9.940320e+002,8.189014e+001
9.949962e+002,7.820203e+001
9.959604e+002,7.982471e+001
9.969247e+002,8.731177e+001
9.978889e+002,9.618066e+001
9.988531e+002,1.053191e+002
9.998174e+002,1.121577e+002
1.000782e+003,1.145266e+002
1.001746e+003,1.150728e+002
1.002710e+003,1.177393e+002
1.003674e+003,1.238960e+002
1.004639e+003,1.309230e+002
1.005603e+003,1.342534e+002
1.006567e+003,1.332134e+002
1.007531e+003,1.313269e+002
1.008495e+003,1.281635e+002
1.009460e+003,1.252563e+002
1.010424e+003,1.238007e+002
1.011388e+003,1.236328e+002
1.012352e+003,1.238114e+002
1.013317e+003,1.251538e+002
1.014281e+003,1.239227e+002
1.015245e+003,1.179086e+002
1.016209e+003,1.099594e+002
1.017174e+003,1.018622e+002
1.018138e+003,9.417566e+001
1.019102e+003,8.661548e+001
1.020066e+003,7.900818e+001
1.021031e+003,7.207935e+001
1.021995e+003,6.713611e+001
1.022959e+003,6.319775e+001
1.023923e+003,5.876294e+001
1.024887e+003,5.318042e+001
1.025852e+003,4.689355e+001
1.026816e+003,4.079602e+001
1.027780e+003,3.536670e+001
1.028744e+003,3.014343e+001
1.029709e+003,2.304846e+001
1.030673e+003,1.825134e+001
1.031637e+003,1.816406e+001
1.032601e+003,2.030676e+001
1.033566e+003,2.151318e+001
1.034530e+003,2.083826e+001
1.035494e+003,1.980347e+001
1.036458e+003,1.965613e+001
1.037422e+003,2.002100e+001
1.038387e+003,2.066699e+001
1.039351e+003,2.134692e+001
1.040315e+003,2.159119e+001
1.041279e+003,2.129700e+001
1.042244e+003,2.067163e+001
1.043208e+003,1.935938e+001
1.044172e+003,1.457397e+001
1.045136e+003,1.304138e+001
1.046101e+003,1.860437e+001
1.047065e+003,2.414001e+001
1.048029e+003,2.392725e+001
1.048993e+003,1.916394e+001
1.049958e+003,1.615332e+001
1.050922e+003,1.858582e+001
1.051886e+003,2.266797e+001
1.052850e+003,2.424475e+001
1.053814e+003,2.482397e+001
1.054779e+003,2.689685e+001
1.055743e+003,3.058557e+001
1.056707e+003,3.321582e+001
1.057671e+003,3.148108e+001
1.058636e+003,2.522375e+001
1.059600e+003,2.034424e+001
1.060564e+003,1.695410e+001
1.061528e+003,1.610754e+001
1.062493e+003,1.869019e+001
1.063457e+003,2.233533e+001
1.064421e+003,2.561133e+001
1.065385e+003,2.847876e+001
1.066349e+003,2.889404e+001
1.067314e+003,2.394421e+001
1.068278e+003,1.840100e+001
1.069242e+003,1.532056e+001
1.070206e+003,1.437109e+001
1.071171e+003,1.488452e+001
1.072135e+003,1.617029e+001
1.073099e+003,1.736877e+001
1.074063e+003,1.744385e+001
1.075028e+003,1.646277e+001
1.075992e+003,1.650610e+001
1.076956e+003,1.796948e+001
1.077920e+003,1.866833e+001
1.078885e+003,1.791260e+001
1.079849e+003,1.663635e+001
1.080813e+003,1.622852e+001
1.081777e+003,1.709473e+001
1.082741e+003,1.813196e+001
1.083706e+003,1.741187e+001
1.084670e+003,1.674060e+001
1.085634e+003,1.778711e+001
1.086598e+003,1.959009e+001
1.087563e+003,2.006250e+001
1.088527e+003,1.843250e+001
1.089491e+003,1.666724e+001
1.090455e+003,1.794714e+001
1.091420e+003,2.222461e+001
1.092384e+003,2.541333e+001
1.093348e+003,2.782715e+001
1.094312e+003,2.786133e+001
1.095276e+003,2.274609e+001
1.096241e+003,1.527942e+001
1.097205e+003,1.416565e+001
1.098169e+003,2.338373e+001
1.099133e+003,2.884613e+001
1.100098e+003,2.179498e+001
1.101062e+003,1.340161e+001
1.102026e+003,1.040747e+001
1.102990e+003,1.212280e+001
1.103955e+003,1.469409e+001
1.104919e+003,1.563824e+001
1.105883e+003,1.577338e+001
1.106847e+003,1.741650e+001
1.107812e+003,2.045117e+001
1.108776e+003,2.149915e+001
1.109740e+003,1.963403e+001
1.110704e+003,1.743170e+001
1.111668e+003,1.647479e+001
1.112633e+003,1.728723e+001
1.113597e+003,2.123193e+001
1.114561e+003,3.030664e+001
1.115525e+003,3.688489e+001
1.116490e+003,3.784979e+001
1.117454e+003,3.657684e+001
1.118418e+003,3.439746e+001
1.119382e+003,3.260205e+001
1.120347e+003,3.254541e+001
1.121311e+003,3.458850e+001
1.122275e+003,3.694818e+001
1.123239e+003,3.755609e+001
1.124203e+003,3.719537e+001
1.125168e+003,3.662671e+001
1.126132e+003,3.547742e+001
1.127096e+003,3.571082e+001
1.128060e+003,3.932190e+001
1.129025e+003,4.528876e+001
1.129989e+003,4.956476e+001
1.130953e+003,5.091797e+001
1.131917e+003,5.215686e+001
1.132882e+003,5.374402e+001
1.133846e+003,5.621741e+001
1.134810e+003,5.987836e+001
1.135774e+003,6.480707e+001
1.136739e+003,7.128809e+001
1.137703e+003,7.938477e+001
1.138667e+003,8.777905e+001
1.139631e+003,9.380408e+001
1.140595e+003,9.790289e+001
1.141560e+003,1.045523e+002
1.142524e+003,1.139291e+002
1.143488e+003,1.276368e+002
1.144452e+003,1.482408e+002
1.145417e+003,1.739027e+002
1.146381e+003,1.975192e+002
1.147345e+003,2.170994e+002
1.148309e+003,2.390628e+002
1.149274e+003,2.664003e+002
1.150238e+003,2.954504e+002
1.151202e+003,3.263621e+002
1.152166e+003,3.577118e+002
1.153130e+003,3.877642e+002
1.154095e+003,4.149800e+002
1.155059e+003,4.373578e+002
1.156023e+003,4.534032e+002
1.156987e+003,4.625724e+002
1.157952e+003,4.633550e+002
1.158916e+003,4.560303e+002
1.159880e+003,4.458504e+002
1.160844e+003,4.364080e+002
1.161809e+003,4.236400e+002
1.162773e+003,3.988387e+002
1.163737e+003,3.593621e+002
1.164701e+003,3.200258e+002
1.165666e+003,2.812836e+002
1.166630e+003,2.478075e+002
1.167594e+003,2.219434e+002
1.168558e+003,2.020509e+002
1.169522e+003,1.864132e+002
1.170487e+003,1.741766e+002
1.171451e+003,1.652416e+002
1.172415e+003,1.594383e+002
1.173379e+003,1.565403e+002
1.174344e+003,1.570276e+002
1.175308e+003,1.614802e+002
1.176272e+003,1.634385e+002
1.177236e+003,1.602077e+002
1.178201e+003,1.543498e+002
1.179165e+003,1.484525e+002
1.180129e+003,1.420747e+002
1.181093e+003,1.352189e+002
1.182057e+003,1.279073e+002
1.183022e+003,1.206849e+002
1.183986e+003,1.129306e+002
1.184950e+003,1.059698e+002
1.185914e+003,1.007532e+002
1.186879e+003,9.780884e+001
1.187843e+003,9.807764e+001
1.188807e+003,1.022621e+002
1.189771e+003,1.082670e+002
1.190736e+003,1.101696e+002
1.191700e+003,1.073868e+002
1.192664e+003,1.057742e+002
1.193628e+003,1.074352e+002
1.194593e+003,1.089660e+002
1.195557e+003,1.072615e+002
1.196521e+003,1.032320e+002
1.197485e+003,1.007914e+002
1.198449e+003,1.016213e+002
1.199414e+003,1.008452e+002
1.200378e+003,9.559143e+001
1.201342e+003,8.873895e+001
1.202306e+003,8.069403e+001
1.203271e+003,7.233582e+001
1.204235e+003,6.507593e+001
1.205199e+003,5.970471e+001
1.206163e+003,5.575537e+001
1.207128e+003,5.242206e+001
1.208092e+003,4.982416e+001
1.209056e+003,4.627063e+001
1.210020e+003,4.217529e+001
1.210984e+003,3.671631e+001
1.211949e+003,2.867468e+001
1.212913e+003,1.948907e+001
1.213877e+003,1.118353e+001
1.214841e+003,4.027466e+000
1.215806e+003,-2.943237e+000
1.216770e+003,-1.073334e+001
1.217734e+003,-1.763696e+001
1.218698e+003,-2.259082e+001
1.219663e+003,-2.657904e+001
1.220627e+003,-3.080542e+001
1.221591e+003,-3.535529e+001
1.222555e+003,-3.934241e+001
1.223520e+003,-4.183917e+001
1.224484e+003,-4.290820e+001
1.225448e+003,-4.387952e+001
1.226412e+003,-4.502429e+001
1.227376e+003,-4.565649e+001
1.228341e+003,-4.557971e+001
1.229305e+003,-4.558746e+001
1.230269e+003,-4.668115e+001
1.231233e+003,-4.806885e+001
1.232198e+003,-4.747620e+001
1.233162e+003,-4.394672e+001
1.234126e+003,-4.076630e+001
1.235090e+003,-4.054034e+001
1.236055e+003,-4.242053e+001
1.237019e+003,-4.667889e+001
1.237983e+003,-5.208801e+001
1.238947e+003,-5.486139e+001
1.239911e+003,-5.321887e+001
1.240876e+003,-4.985577e+001
1.241840e+003,-4.918744e+001
1.242804e+003,-5.143073e+001
1.243768e+003,-5.184503e+001
1.244733e+003,-4.883032e+001
1.245697e+003,-4.592163e+001
1.246661e+003,-4.350818e+001
1.247625e+003,-4.208698e+001
1.248590e+003,-4.249176e+001
1.249554e+003,-4.356171e+001
1.250518e+003,-4.244434e+001
1.251482e+003,-3.791370e+001
1.252447e+003,-3.348462e+001
1.253411e+003,-3.365747e+001
1.254375e+003,-3.605414e+001
1.255339e+003,-3.593604e+001
1.256303e+003,-3.295410e+001
1.257268e+003,-2.945435e+001
1.258232e+003,-2.715900e+001
1.259196e+003,-2.578705e+001
1.260160e+003,-2.390051e+001
1.261125e+003,-2.092084e+001
1.262089e+003,-1.824634e+001
1.263053e+003,-1.697656e+001
1.264017e+003,-1.583972e+001
1.264982e+003,-1.505078e+001
1.265946e+003,-1.351147e+001
1.266910e+003,-9.050293e+000
1.267874e+003,-2.729614e+000
1.268839e+003,1.702576e+000
1.269803e+003,1.773865e+000
1.270767e+003,-1.113647e+000
1.271731e+003,-4.786865e+000
1.272695e+003,-8.887390e+000
1.273660e+003,-1.108893e+001
1.274624e+003,-1.119788e+001
1.275588e+003,-1.192889e+001
1.276552e+003,-1.460077e+001
1.277517e+003,-1.803607e+001
1.278481e+003,-2.046570e+001
1.279445e+003,-2.184668e+001
1.280409e+003,-2.395789e+001
1.281374e+003,-2.879889e+001
1.282338e+003,-3.227844e+001
1.283302e+003,-3.174194e+001
1.284266e+003,-2.931079e+001
1.285230e+003,-2.597119e+001
1.286195e+003,-2.316492e+001
1.287159e+003,-2.442780e+001
1.288123e+003,-3.251453e+001
1.289087e+003,-4.373840e+001
1.290052e+003,-4.752881e+001
1.291016e+003,-4.127136e+001
1.291980e+003,-3.809521e+001
1.292944e+003,-4.109180e+001
1.293909e+003,-4.373688e+001
1.294873e+003,-4.239941e+001
1.295837e+003,-3.916132e+001
1.296801e+003,-3.655280e+001
1.297766e+003,-3.512842e+001
1.298730e+003,-3.618201e+001
1.299694e+003,-4.212952e+001
1.300658e+003,-4.833765e+001
1.301622e+003,-4.874341e+001
1.302587e+003,-4.595789e+001
1.303551e+003,-4.401483e+001
1.304515e+003,-4.350775e+001
1.305479e+003,-4.334991e+001
1.306444e+003,-4.305975e+001
1.307408e+003,-4.264856e+001
1.308372e+003,-4.134497e+001
1.309336e+003,-3.876129e+001
1.310301e+003,-3.660876e+001
1.311265e+003,-3.354852e+001
1.312229e+003,-3.212988e+001
1.313193e+003,-3.449225e+001
1.314157e+003,-3.818573e+001
1.315122e+003,-4.101892e+001
1.316086e+003,-4.259692e+001
1.317050e+003,-4.316602e+001
1.318014e+003,-4.258148e+001
1.318979e+003,-4.166071e+001
1.319943e+003,-4.285754e+001
1.320907e+003,-4.536584e+001
1.321871e+003,-4.380341e+001
1.322836e+003,-3.710529e+001
1.323800e+003,-3.166949e+001
1.324764e+003,-3.181879e+001
1.325728e+003,-3.466260e+001
1.326693e+003,-3.515765e+001
1.327657e+003,-3.336584e+001
1.328621e+003,-3.353888e+001
1.329585e+003,-3.787311e+001
1.330549e+003,-3.971185e+001
1.331514e+003,-3.423468e+001
1.332478e+003,-2.809827e+001
1.333442e+003,-2.778662e+001
1.334406e+003,-3.250891e+001
1.335371e+003,-3.757880e+001
1.336335e+003,-4.009735e+001
1.337299e+003,-4.076202e+001
1.338263e+003,-4.104980e+001
1.339228e+003,-4.099927e+001
1.340192e+003,-3.996747e+001
1.341156e+003,-3.711212e+001
1.342120e+003,-3.462512e+001
1.343084e+003,-3.309491e+001
1.344049e+003,-3.263916e+001
1.345013e+003,-3.350446e+001
1.345977e+003,-3.485962e+001
1.346941e+003,-3.494031e+001
1.347906e+003,-3.308624e+001
1.348870e+003,-3.110022e+001
1.349834e+003,-3.105450e+001
1.350798e+003,-3.203143e+001
1.351763e+003,-3.102991e+001
1.352727e+003,-2.853510e+001
1.353691e+003,-2.857892e+001
1.354655e+003,-3.324042e+001
1.355620e+003,-3.849048e+001
1.356584e+003,-3.948999e+001
1.357548e+003,-3.647211e+001
1.358512e+003,-3.236731e+001
1.359476e+003,-2.605090e+001
1.360441e+003,-2.353027e+001
1.361405e+003,-2.890515e+001
1.362369e+003,-3.499176e+001
1.363333e+003,-3.977759e+001
1.364298e+003,-4.232471e+001
1.365262e+003,-4.073334e+001
1.366226e+003,-3.551227e+001
1.367190e+003,-3.064551e+001
1.368155e+003,-2.971924e+001
1.369119e+003,-3.131317e+001
1.370083e+003,-3.075336e+001
1.371047e+003,-2.674396e+001
1.372011e+003,-2.524768e+001
1.372976e+003,-2.887793e+001
1.373940e+003,-3.247681e+001
1.374904e+003,-3.474707e+001
1.375868e+003,-3.517078e+001
1.376833e+003,-3.196942e+001
1.377797e+003,-2.601227e+001
1.378761e+003,-2.282397e+001
1.379725e+003,-2.529681e+001
1.380690e+003,-2.891620e+001
1.381654e+003,-2.940265e+001
1.382618e+003,-2.771448e+001
1.383582e+003,-2.420166e+001
1.384547e+003,-1.943549e+001
1.385511e+003,-1.659747e+001
1.386475e+003,-1.788562e+001
1.387439e+003,-2.059613e+001
1.388403e+003,-2.019989e+001
1.389368e+003,-1.675909e+001
1.390332e+003,-1.452197e+001
1.391296e+003,-1.366254e+001
1.392260e+003,-1.326276e+001
1.393225e+003,-1.244159e+001
1.394189e+003,-1.285449e+001
1.395153e+003,-1.727271e+001
1.396117e+003,-2.272992e+001
1.397082e+003,-2.403802e+001
1.398046e+003,-2.034711e+001
1.399010e+003,-1.615320e+001
1.399974e+003,-1.589301e+001
1.400938e+003,-1.859253e+001
1.401903e+003,-1.966595e+001
1.402867e+003,-1.751312e+001
1.403831e+003,-1.452289e+001
1.404795e+003,-9.751709e+000
1.405760e+003,-6.623901e+000
1.406724e+003,-8.653748e+000
1.407688e+003,-1.292468e+001
1.408652e+003,-1.502679e+001
1.409617e+003,-1.449353e+001
1.410581e+003,-1.386334e+001
1.411545e+003,-1.416809e+001
1.412509e+003,-1.451074e+001
1.413474e+003,-1.420581e+001
1.414438e+003,-1.410175e+001
1.415402e+003,-1.501324e+001
1.416366e+003,-1.626398e+001
1.417330e+003,-1.600873e+001
1.418295e+003,-1.323090e+001
1.419259e+003,-9.803894e+000
1.420223e+003,-7.926819e+000
1.421187e+003,-7.790771e+000
1.422152e+003,-8.955933e+000
1.423116e+003,-1.150952e+001
1.424080e+003,-1.321423e+001
1.425044e+003,-1.439240e+001
1.426009e+003,-1.447821e+001
1.426973e+003,-1.235602e+001
1.427937e+003,-9.548584e+000
1.428901e+003,-7.725891e+000
1.429865e+003,-6.785583e+000
1.430830e+003,-5.531189e+000
1.431794e+003,-3.394653e+000
1.432758e+003,-1.180908e+000
1.433722e+003,2.014160e-002
1.434687e+003,7.048950e-001
1.435651e+003,3.425903e+000
1.436615e+003,9.264465e+000
1.437579e+003,1.220105e+001
1.438544e+003,9.778625e+000
1.439508e+003,6.712097e+000
1.440472e+003,6.176514e+000
1.441436e+003,7.915833e+000
1.442401e+003,1.117212e+001
1.443365e+003,1.525763e+001
1.444329e+003,1.776001e+001
1.445293e+003,1.663696e+001
1.446257e+003,1.428674e+001
1.447222e+003,1.567444e+001
1.448186e+003,1.974640e+001
1.449150e+003,2.104468e+001
1.450114e+003,1.878528e+001
1.451079e+003,1.444128e+001
1.452043e+003,6.914185e+000
1.453007e+003,-3.410645e-001
1.453971e+003,-2.370178e+000
1.454936e+003,8.929443e-002
1.455900e+003,2.654053e+000
1.456864e+003,4.776550e+000
1.457828e+003,6.639038e+000
1.458792e+003,8.019531e+000
1.459757e+003,8.812134e+000
1.460721e+003,8.807434e+000
1.461685e+003,8.202148e+000
1.462649e+003,7.585022e+000
1.463614e+003,7.268005e+000
1.464578e+003,6.836609e+000
1.465542e+003,5.676086e+000
1.466506e+003,3.943115e+000
1.467471e+003,2.342224e+000
1.468435e+003,9.283447e-001
1.469399e+003,2.214539e+000
1.470363e+003,7.726746e+000
1.471328e+003,1.287268e+001
1.472292e+003,1.754108e+001
1.473256e+003,1.972858e+001
1.474220e+003,1.711047e+001
1.475184e+003,1.236237e+001
1.476149e+003,9.715454e+000
1.477113e+003,1.028375e+001
1.478077e+003,1.236536e+001
1.479041e+003,1.479987e+001
1.480006e+003,1.734906e+001
1.480970e+003,1.801233e+001
1.481934e+003,1.537018e+001
1.482898e+003,1.472491e+001
1.483863e+003,1.623865e+001
1.484827e+003,1.903241e+001
1.485791e+003,2.516705e+001
1.486755e+003,3.133405e+001
1.487719e+003,3.306201e+001
1.488684e+003,3.187207e+001
1.489648e+003,3.330408e+001
1.490612e+003,3.929510e+001
1.491576e+003,4.606616e+001
1.492541e+003,5.025189e+001
1.493505e+003,5.310986e+001
1.494469e+003,5.789612e+001
1.495433e+003,6.364594e+001
1.496398e+003,6.720245e+001
1.497362e+003,6.789575e+001
1.498326e+003,7.005518e+001
1.499290e+003,7.577496e+001
1.500255e+003,8.413818e+001
1.501219e+003,9.393762e+001
1.502183e+003,1.050004e+002
1.503147e+003,1.175113e+002
1.504111e+003,1.316125e+002
1.505076e+003,1.465427e+002
1.506040e+003,1.614343e+002
1.507004e+003,1.777885e+002
1.507968e+003,1.972437e+002
1.508933e+003,2.190417e+002
1.509897e+003,2.410063e+002
1.510861e+003,2.637042e+002
1.511825e+003,2.911158e+002
1.512790e+003,3.256686e+002
1.513754e+003,3.655455e+002
1.514718e+003,4.093096e+002
1.515682e+003,4.563846e+002
1.516646e+003,5.007865e+002
1.517611e+003,5.420099e+002
1.518575e+003,5.820249e+002
1.519539e+003,6.275920e+002
1.520503e+003,6.667729e+002
1.521468e+003,6.931766e+002
1.522432e+003,7.087750e+002
1.523396e+003,7.158868e+002
1.524360e+003,7.157197e+002
1.525325e+003,7.098904e+002
1.526289e+003,6.996310e+002
1.527253e+003,6.850690e+002
1.528217e+003,6.663224e+002
1.529182e+003,6.438647e+002
1.530146e+003,6.147271e+002
1.531110e+003,5.770063e+002
1.532074e+003,5.346688e+002
1.533039e+003,4.853930e+002
1.534003e+003,4.329417e+002
1.534967e+003,3.772920e+002
1.535931e+003,3.227283e+002
1.536896e+003,2.721407e+002
1.537860e+003,2.270574e+002
1.538824e+003,1.884726e+002
1.539788e+003,1.566423e+002
1.540752e+003,1.313533e+002
1.541717e+003,1.127826e+002
1.542681e+003,1.006555e+002
1.543645e+003,9.101465e+001
1.544609e+003,8.549841e+001
1.545573e+003,7.987573e+001
1.546538e+003,7.201648e+001
1.547502e+003,6.537207e+001
1.548466e+003,6.100024e+001
1.549430e+003,5.984479e+001
1.550395e+003,6.506238e+001
1.551359e+003,7.336633e+001
1.552323e+003,7.578644e+001
1.553287e+003,6.960687e+001
1.554252e+003,6.228149e+001
1.555216e+003,6.048560e+001
1.556180e+003,6.124548e+001
1.557144e+003,5.704346e+001
1.558109e+003,4.789435e+001
1.559073e+003,4.314954e+001
1.560037e+003,4.562299e+001
1.561001e+003,4.529315e+001
1.561966e+003,3.574200e+001
1.562930e+003,2.629401e+001
1.563894e+003,2.605487e+001
1.564858e+003,3.201886e+001
1.565823e+003,3.687933e+001
1.566787e+003,3.904425e+001
1.567751e+003,3.962396e+001
1.568715e+003,3.885535e+001
1.569679e+003,3.856311e+001
1.570644e+003,4.180426e+001
1.571608e+003,4.651605e+001
1.572572e+003,4.739520e+001
1.573536e+003,4.452875e+001
1.574500e+003,4.220789e+001
1.575465e+003,4.170490e+001
1.576429e+003,4.193201e+001
1.577393e+003,4.145709e+001
1.578357e+003,4.103625e+001
1.579322e+003,4.300970e+001
1.580286e+003,4.744336e+001
1.581250e+003,5.145099e+001
1.582214e+003,5.437030e+001
1.583179e+003,5.578546e+001
1.584143e+003,5.399554e+001
1.585107e+003,5.123895e+001
1.586071e+003,5.168872e+001
1.587036e+003,5.468213e+001
1.588000e+003,5.596985e+001
1.588964e+003,5.409961e+001
1.589928e+003,5.336426e+001
1.590893e+003,5.814642e+001
1.591857e+003,6.433813e+001
1.592821e+003,6.465033e+001
1.593785e+003,6.053394e+001
1.594750e+003,6.041571e+001
1.595714e+003,6.574249e+001
1.596678e+003,7.063043e+001
1.597642e+003,7.219690e+001
1.598606e+003,7.356592e+001
1.599571e+003,7.833759e+001
1.600535e+003,8.408228e+001
1.601499e+003,8.761578e+001
1.602463e+003,8.870569e+001
1.603427e+003,8.826642e+001
1.604392e+003,8.655438e+001
1.605356e+003,8.468341e+001
1.606320e+003,8.383636e+001
1.607284e+003,8.372754e+001
1.608249e+003,8.367517e+001
1.609213e+003,8.371472e+001
1.610177e+003,8.266754e+001
1.611141e+003,8.014325e+001
1.612106e+003,7.704120e+001
1.613070e+003,7.133496e+001
1.614034e+003,6.745709e+001
1.614998e+003,7.073175e+001
1.615963e+003,7.730090e+001
1.616927e+003,8.020618e+001
1.617891e+003,7.853979e+001
1.618855e+003,7.603656e+001
1.619820e+003,7.448468e+001
1.620784e+003,7.370233e+001
1.621748e+003,7.490765e+001
1.622712e+003,7.823480e+001
1.623677e+003,8.021954e+001
1.624641e+003,8.078314e+001
1.625605e+003,8.060431e+001
1.626569e+003,7.793872e+001
1.627533e+003,7.518689e+001
1.628498e+003,7.402106e+001
1.629462e+003,7.392450e+001
1.630426e+003,7.481628e+001
1.631390e+003,7.608002e+001
1.632354e+003,7.627094e+001
1.633319e+003,7.523212e+001
1.634283e+003,7.525867e+001
1.635247e+003,7.828467e+001
1.636211e+003,8.229218e+001
1.637176e+003,8.415210e+001
1.638140e+003,8.411914e+001
1.639104e+003,8.232776e+001
1.640068e+003,7.761487e+001
1.641033e+003,7.475281e+001
1.641997e+003,7.639886e+001
1.642961e+003,7.854254e+001
1.643925e+003,7.959528e+001
1.644890e+003,7.973248e+001
1.645854e+003,7.820642e+001
1.646818e+003,7.592249e+001
1.647782e+003,7.527496e+001
1.648747e+003,7.688080e+001
1.649711e+003,7.906299e+001
1.650675e+003,8.090991e+001
1.651639e+003,8.238641e+001
1.652604e+003,8.245587e+001
1.653568e+003,8.093689e+001
1.654532e+003,8.045697e+001
1.655496e+003,8.186542e+001
1.656460e+003,8.175189e+001
1.657425e+003,7.840466e+001
1.658389e+003,7.470374e+001
1.659353e+003,7.162189e+001
1.660317e+003,6.934583e+001
1.661281e+003,6.885754e+001
1.662246e+003,6.910303e+001
1.663210e+003,6.698688e+001
1.664174e+003,6.179364e+001
1.665138e+003,5.737842e+001
1.666103e+003,5.689575e+001
1.667067e+003,5.876819e+001
1.668031e+003,6.072162e+001
1.668995e+003,6.274457e+001
1.669960e+003,6.280060e+001
1.670924e+003,6.029333e+001
1.671888e+003,5.829413e+001
1.672852e+003,5.755933e+001
1.673817e+003,5.729749e+001
1.674781e+003,5.735370e+001
1.675745e+003,5.725671e+001
1.676709e+003,5.638525e+001
1.677674e+003,5.486102e+001
1.678638e+003,5.327808e+001
1.679602e+003,5.183789e+001
1.680566e+003,4.983423e+001
1.681531e+003,4.630103e+001
1.682495e+003,4.306396e+001
1.683459e+003,4.323096e+001
1.684423e+003,4.597931e+001
1.685387e+003,4.779749e+001
1.686352e+003,4.849188e+001
1.687316e+003,4.863348e+001
1.688280e+003,4.824786e+001
1.689244e+003,4.761133e+001
1.690208e+003,4.724780e+001
1.691173e+003,4.624744e+001
1.692137e+003,4.283441e+001
1.693101e+003,3.840564e+001
1.694065e+003,3.686163e+001
1.695030e+003,3.887793e+001
1.695994e+003,4.005322e+001
1.696958e+003,3.726056e+001
1.697922e+003,3.326440e+001
1.698887e+003,3.143866e+001
1.699851e+003,3.134723e+001
1.700815e+003,3.151422e+001
1.701779e+003,3.156854e+001
1.702744e+003,3.044653e+001
1.703708e+003,2.760797e+001
1.704672e+003,2.662103e+001
1.705636e+003,3.112000e+001
1.706601e+003,3.654242e+001
1.707565e+003,3.694244e+001
1.708529e+003,3.359753e+001
1.709493e+003,2.834424e+001
1.710458e+003,2.077600e+001
1.711422e+003,1.645239e+001
1.712386e+003,2.028223e+001
1.713350e+003,2.568469e+001
1.714314e+003,2.741321e+001
1.715279e+003,2.647595e+001
1.716243e+003,2.447070e+001
1.717207e+003,2.188055e+001
1.718171e+003,1.947430e+001
1.719135e+003,1.756195e+001
1.720100e+003,1.709851e+001
1.721064e+003,1.905493e+001
1.722028e+003,2.112073e+001
1.722992e+003,1.996320e+001
1.723957e+003,1.677893e+001
1.724921e+003,1.573724e+001
1.725885e+003,1.619550e+001
1.726849e+003,1.754761e+001
1.727814e+003,2.271399e+001
1.728778e+003,2.633118e+001
1.729742e+003,2.523309e+001
1.730706e+003,2.202386e+001
1.731671e+003,1.782813e+001
1.732635e+003,1.322894e+001
1.733599e+003,9.637939e+000
1.734563e+003,7.811646e+000
1.735528e+003,8.036743e+000
1.736492e+003,1.024500e+001
1.737456e+003,1.294067e+001
1.738420e+003,1.438910e+001
1.739385e+003,1.459137e+001
1.740349e+003,1.494781e+001
1.741313e+003,1.623468e+001
1.742277e+003,1.536182e+001
1.743241e+003,1.029578e+001
1.744206e+003,7.120605e+000
1.745170e+003,7.535583e+000
1.746134e+003,8.458984e+000
1.747098e+003,8.313660e+000
1.748063e+003,7.593872e+000
1.749027e+003,7.513306e+000
1.749991e+003,7.556335e+000
1.750955e+003,5.262146e+000
1.751919e+003,3.211060e-001
1.752884e+003,-3.366516e+000
1.753848e+003,-2.522400e+000
1.754812e+003,3.854980e-001
1.755776e+003,5.784912e-001
1.756741e+003,-1.448425e+000
1.757705e+003,-1.715149e+000
1.758669e+003,2.612305e-002
1.759633e+003,1.788269e+000
1.760598e+003,3.686707e+000
1.761562e+003,4.438354e+000
1.762526e+003,2.854675e+000
1.763490e+003,1.649719e+000
1.764455e+003,3.857910e+000
1.765419e+003,7.269409e+000
1.766383e+003,7.281860e+000
1.767347e+003,4.056763e+000
1.768312e+003,2.556335e+000
1.769276e+003,5.028564e+000
1.770240e+003,8.367188e+000
1.771204e+003,1.027563e+001
1.772168e+003,1.116589e+001
1.773133e+003,1.084906e+001
1.774097e+003,9.402588e+000
1.775061e+003,7.621277e+000
1.776025e+003,5.005615e+000
1.776990e+003,3.000916e+000
1.777954e+003,2.641785e+000
1.778918e+003,3.233826e+000
1.779882e+003,4.447876e+000
1.780846e+003,5.385010e+000
1.781811e+003,4.942383e+000
1.782775e+003,3.744141e+000
1.783739e+003,3.586365e+000
1.784703e+003,4.932556e+000
1.785668e+003,6.521606e+000
1.786632e+003,7.289185e+000
1.787596e+003,7.814880e+000
1.788560e+003,9.681763e+000
1.789525e+003,1.187787e+001
1.790489e+003,1.176373e+001
1.791453e+003,1.001788e+001
1.792417e+003,1.005371e+001
1.793382e+003,1.239197e+001
1.794346e+003,1.403717e+001
1.795310e+003,1.332251e+001
1.796274e+003,1.141724e+001
1.797239e+003,9.725220e+000
1.798203e+003,8.941162e+000
1.799167e+003,9.877380e+000
1.800131e+003,1.220953e+001
1.801095e+003,1.224933e+001
1.802060e+003,8.284119e+000
1.803024e+003,6.673950e+000
1.803988e+003,1.009406e+001
1.804952e+003,1.281860e+001
1.805917e+003,1.140344e+001
1.806881e+003,8.592773e+000
1.807845e+003,6.925232e+000
1.808809e+003,6.640686e+000
1.809773e+003,7.386230e+000
1.810738e+003,8.854614e+000
1.811702e+003,1.064539e+001
1.812666e+003,1.244159e+001
1.813630e+003,1.374567e+001
1.814595e+003,1.386237e+001
1.815559e+003,1.285541e+001
1.816523e+003,1.126392e+001
1.817487e+003,9.061890e+000
1.818452e+003,7.911987e+000
1.819416e+003,8.605713e+000
1.820380e+003,9.402893e+000
1.821344e+003,8.715820e+000
1.822309e+003,8.764587e+000
1.823273e+003,1.249261e+001
1.824237e+003,1.689362e+001
1.825201e+003,1.841101e+001
1.826166e+003,1.770557e+001
1.827130e+003,1.730072e+001
1.828094e+003,1.746454e+001
1.829058e+003,1.651965e+001
1.830022e+003,1.325916e+001
1.830987e+003,1.030463e+001
1.831951e+003,1.034442e+001
1.832915e+003,1.164618e+001
1.833879e+003,1.178986e+001
1.834844e+003,1.091577e+001
1.835808e+003,9.302856e+000
1.836772e+003,7.365723e+000
1.837736e+003,7.680786e+000
1.838700e+003,1.127765e+001
1.839665e+003,1.446338e+001
1.840629e+003,1.390814e+001
1.841593e+003,1.138135e+001
1.842557e+003,1.031158e+001
1.843522e+003,1.065247e+001
1.844486e+003,1.041656e+001
1.845450e+003,9.150452e+000
1.846414e+003,9.287781e+000
1.847379e+003,1.181616e+001
1.848343e+003,1.296716e+001
1.849307e+003,1.000208e+001
1.850271e+003,7.486877e+000
1.851236e+003,9.782776e+000
1.852200e+003,1.432520e+001
1.853164e+003,1.697058e+001
1.854128e+003,1.721198e+001
1.855093e+003,1.726257e+001
1.856057e+003,1.820892e+001
1.857021e+003,1.828070e+001
1.857985e+003,1.558087e+001
1.858949e+003,1.178363e+001
1.859914e+003,9.529053e+000
1.860878e+003,8.965576e+000
1.861842e+003,1.094727e+001
1.862806e+003,1.542444e+001
1.863771e+003,1.759302e+001
1.864735e+003,1.598029e+001
1.865699e+003,1.421875e+001
1.866663e+003,1.369366e+001
1.867627e+003,1.468109e+001
1.868592e+003,1.832281e+001
1.869556e+003,2.227216e+001
1.870520e+003,2.231592e+001
1.871484e+003,1.906488e+001
1.872449e+003,1.688367e+001
1.873413e+003,1.741620e+001
1.874377e+003,1.905347e+001
1.875341e+003,2.034045e+001
1.876306e+003,2.182782e+001
1.877270e+003,2.462811e+001
1.878234e+003,2.675842e+001
1.879198e+003,2.619214e+001
1.880163e+003,2.378156e+001
1.881127e+003,2.046124e+001
1.882091e+003,1.723688e+001
1.883055e+003,1.613837e+001
1.884020e+003,1.787531e+001
1.884984e+003,2.134216e+001
1.885948e+003,2.568665e+001
1.886912e+003,2.941620e+001
1.887876e+003,2.928577e+001
1.888841e+003,2.571692e+001
1.889805e+003,2.316650e+001
1.890769e+003,2.151605e+001
1.891733e+003,2.174292e+001
1.892698e+003,2.468616e+001
1.893662e+003,2.691217e+001
1.894626e+003,2.786597e+001
1.895590e+003,2.727466e+001
1.896554e+003,2.355200e+001
1.897519e+003,1.963312e+001
1.898483e+003,1.872626e+001
1.899447e+003,2.006812e+001
1.900411e+003,2.182159e+001
1.901376e+003,2.383832e+001
1.902340e+003,2.651855e+001
1.903304e+003,3.144574e+001
1.904268e+003,3.465936e+001
1.905233e+003,3.248456e+001
1.906197e+003,2.895978e+001
1.907161e+003,2.824585e+001
1.908125e+003,2.943182e+001
1.909090e+003,2.989740e+001
1.910054e+003,2.953522e+001
1.911018e+003,3.065399e+001
1.911982e+003,3.393414e+001
1.912947e+003,3.687256e+001
1.913911e+003,3.752081e+001
1.914875e+003,3.649335e+001
1.915839e+003,3.437567e+001
1.916803e+003,3.136090e+001
1.917768e+003,3.017914e+001
1.918732e+003,3.136353e+001
1.919696e+003,3.288208e+001
1.920660e+003,3.519183e+001
1.921625e+003,3.712012e+001
1.922589e+003,3.761896e+001
1.923553e+003,3.838971e+001
1.924517e+003,4.191406e+001
1.925481e+003,4.477240e+001
1.926446e+003,4.337311e+001
1.927410e+003,3.939740e+001
1.928374e+003,3.528107e+001
1.929338e+003,3.128314e+001
1.930303e+003,2.978796e+001
1.931267e+003,3.271161e+001
1.932231e+003,3.598016e+001
1.933195e+003,3.706390e+001
1.934160e+003,3.779321e+001
1.935124e+003,4.012927e+001
1.936088e+003,4.212091e+001
1.937052e+003,4.157355e+001
1.938017e+003,3.932477e+001
1.938981e+003,3.656116e+001
1.939945e+003,3.393036e+001
1.940909e+003,3.260370e+001
1.941874e+003,3.296564e+001
1.942838e+003,3.430975e+001
1.943802e+003,3.642377e+001
1.944766e+003,3.878137e+001
1.945730e+003,3.926123e+001
1.946695e+003,3.793799e+001
1.947659e+003,3.776849e+001
1.948623e+003,3.868665e+001
1.949587e+003,4.088794e+001
1.950552e+003,4.585730e+001
1.951516e+003,4.649432e+001
1.952480e+003,3.749280e+001
1.953444e+003,2.997607e+001
1.954408e+003,3.307196e+001
1.955373e+003,4.001892e+001
1.956337e+003,4.150275e+001
1.957301e+003,3.968976e+001
1.958265e+003,4.146796e+001
1.959230e+003,4.781470e+001
1.960194e+003,5.098706e+001
1.961158e+003,4.624347e+001
1.962122e+003,4.247589e+001
1.963087e+003,4.330206e+001
1.964051e+003,4.426831e+001
1.965015e+003,4.251514e+001
1.965979e+003,4.071295e+001
1.966944e+003,4.149194e+001
1.967908e+003,4.368378e+001
1.968872e+003,4.518530e+001
1.969836e+003,4.577502e+001
1.970801e+003,4.631927e+001
1.971765e+003,4.725128e+001
1.972729e+003,4.843005e+001
1.973693e+003,4.976245e+001
1.974657e+003,5.105676e+001
1.975622e+003,5.177850e+001
1.976586e+003,5.203870e+001
1.977550e+003,5.269202e+001
1.978514e+003,5.378650e+001
1.979479e+003,5.480078e+001
1.980443e+003,5.552112e+001
1.981407e+003,5.512494e+001
1.982371e+003,5.336969e+001
1.983335e+003,5.253845e+001
1.984300e+003,5.423773e+001
1.985264e+003,5.684546e+001
1.986228e+003,5.821094e+001
1.987192e+003,5.849756e+001
1.988157e+003,5.865619e+001
1.989121e+003,5.911188e+001
1.990085e+003,5.794952e+001
1.991049e+003,5.333911e+001
1.992014e+003,5.130920e+001
1.992978e+003,5.375378e+001
1.993942e+003,5.681390e+001
1.994906e+003,6.048950e+001
1.995871e+003,6.301215e+001
1.996835e+003,6.204468e+001
1.997799e+003,5.998724e+001
1.998763e+003,6.024591e+001
1.999728e+003,6.237213e+001
