5.003444e+002,3.227100e+001
5.013087e+002,3.132195e+001
5.022729e+002,2.996419e+001
5.032371e+002,2.854037e+001
5.042014e+002,2.758536e+001
5.051656e+002,2.708421e+001
5.061298e+002,2.697345e+001
5.070941e+002,2.721541e+001
5.080583e+002,2.786292e+001
5.090225e+002,2.814417e+001
5.099868e+002,2.778101e+001
5.109510e+002,2.745361e+001
5.119152e+002,2.763994e+001
5.128795e+002,2.841576e+001
5.138437e+002,2.888474e+001
5.148079e+002,2.885172e+001
5.157722e+002,2.842863e+001
5.167364e+002,2.717554e+001
5.177006e+002,2.529015e+001
5.186649e+002,2.374327e+001
5.196291e+002,2.465865e+001
5.205933e+002,2.617625e+001
5.215576e+002,2.566513e+001
5.225218e+002,2.295204e+001
5.234860e+002,1.933807e+001
5.244503e+002,1.723950e+001
5.254145e+002,1.730481e+001
5.263787e+002,1.809239e+001
5.273430e+002,2.013113e+001
5.283072e+002,2.253925e+001
5.292714e+002,2.412460e+001
5.302357e+002,2.467647e+001
5.311999e+002,2.420052e+001
5.321641e+002,2.231818e+001
5.331284e+002,2.021658e+001
5.340926e+002,1.873062e+001
5.350568e+002,1.812047e+001
5.360211e+002,1.776282e+001
5.369853e+002,1.729233e+001
5.379495e+002,1.688132e+001
5.389138e+002,1.653226e+001
5.398780e+002,1.627634e+001
5.408422e+002,1.625742e+001
5.418065e+002,1.726729e+001
5.427707e+002,1.908775e+001
5.437349e+002,2.001201e+001
5.446992e+002,1.940587e+001
5.456634e+002,1.767432e+001
5.466276e+002,1.628423e+001
5.475919e+002,1.558986e+001
5.485561e+002,1.495647e+001
5.495203e+002,1.414874e+001
5.504846e+002,1.335992e+001
5.514488e+002,1.303551e+001
5.524130e+002,1.377574e+001
5.533773e+002,1.413589e+001
5.543415e+002,1.305348e+001
5.553057e+002,1.147365e+001
5.562700e+002,1.025415e+001
5.572342e+002,9.909515e+000
5.581984e+002,1.024573e+001
5.591627e+002,1.138589e+001
5.601269e+002,1.293825e+001
5.610911e+002,1.374341e+001
5.620554e+002,1.312244e+001
5.630196e+002,1.122209e+001
5.639838e+002,9.755997e+000
5.649481e+002,8.945267e+000
5.659123e+002,8.249832e+000
5.668765e+002,7.551620e+000
5.678408e+002,7.055496e+000
5.688050e+002,7.278214e+000
5.697692e+002,9.308990e+000
5.707335e+002,1.029910e+001
5.716977e+002,8.615646e+000
5.726619e+002,5.798676e+000
5.736262e+002,3.930664e+000
5.745904e+002,4.521515e+000
5.755546e+002,6.283096e+000
5.765189e+002,7.218689e+000
5.774831e+002,7.450424e+000
5.784473e+002,7.284470e+000
5.794116e+002,6.974716e+000
5.803758e+002,6.565994e+000
5.813400e+002,5.569580e+000
5.823043e+002,3.433197e+000
5.832685e+002,1.818420e+000
5.842327e+002,1.707840e+000
5.851970e+002,2.912933e+000
5.861612e+002,3.716293e+000
5.871254e+002,2.781219e+000
5.880897e+002,2.566925e+000
5.890539e+002,4.110886e+000
5.900181e+002,6.517487e+000
5.909824e+002,8.373718e+000
5.919466e+002,8.886444e+000
5.929108e+002,8.375031e+000
5.938751e+002,7.073868e+000
5.948393e+002,5.368393e+000
5.958035e+002,3.748276e+000
5.967678e+002,2.593613e+000
5.977320e+002,2.001968e+000
5.986962e+002,2.843643e+000
5.996605e+002,5.067719e+000
6.006247e+002,6.711792e+000
6.015889e+002,6.482864e+000
6.025532e+002,4.574860e+000
6.035174e+002,3.704025e+000
6.044816e+002,5.460785e+000
6.054459e+002,6.628845e+000
6.064101e+002,6.273972e+000
6.073743e+002,5.083557e+000
6.083386e+002,4.468140e+000
6.093028e+002,5.546219e+000
6.102670e+002,6.586899e+000
6.112313e+002,6.279205e+000
6.121955e+002,5.097214e+000
6.131597e+002,3.429626e+000
6.141240e+002,1.575531e+000
6.150882e+002,-1.695557e-001
6.160524e+002,-1.526794e-001
6.170167e+002,1.354111e+000
6.179809e+002,2.933502e+000
6.189451e+002,3.902298e+000
6.199094e+002,4.291031e+000
6.208736e+002,4.740128e+000
6.218378e+002,5.942062e+000
6.228021e+002,6.586411e+000
6.237663e+002,6.594772e+000
6.247305e+002,6.001389e+000
6.256948e+002,4.559189e+000
6.266590e+002,1.332001e+000
6.276232e+002,-1.011108e+000
6.285875e+002,-1.231689e-001
6.295517e+002,2.011322e+000
6.305159e+002,3.082184e+000
6.314802e+002,1.871109e+000
6.324444e+002,-3.813782e-001
6.334086e+002,5.572510e-001
6.343729e+002,3.632156e+000
6.353371e+002,5.711777e+000
6.363013e+002,5.544144e+000
6.372656e+002,3.731766e+000
6.382298e+002,2.523834e+000
6.391940e+002,2.624237e+000
6.401583e+002,2.372787e+000
6.411225e+002,1.638565e+000
6.420867e+002,8.241577e-001
6.430510e+002,3.914795e-001
6.440152e+002,5.252686e-001
6.449794e+002,4.067230e-001
6.459437e+002,-7.900238e-001
6.469079e+002,-2.080536e+000
6.478721e+002,-2.505569e+000
6.488364e+002,-1.803925e+000
6.498006e+002,-7.622223e-001
6.507648e+002,-1.270996e+000
6.517291e+002,-2.499832e+000
6.526933e+002,-1.901627e+000
6.536575e+002,1.118988e+000
6.546218e+002,4.922180e+000
6.555860e+002,6.325455e+000
6.565502e+002,3.808914e+000
6.575145e+002,1.822205e+000
6.584787e+002,1.856842e-001
6.594429e+002,-8.608856e-001
6.604072e+002,-8.419342e-001
6.613714e+002,4.496002e-001
6.623356e+002,1.399155e+000
6.632999e+002,7.374878e-001
6.642641e+002,-1.632233e-001
6.652283e+002,-5.546112e-001
6.661926e+002,-3.308105e-001
6.671568e+002,1.126709e-001
6.681210e+002,1.842194e-001
6.690853e+002,1.564178e-001
6.700495e+002,1.026993e+000
6.710137e+002,2.734238e+000
6.719780e+002,4.239670e+000
6.729422e+002,4.397461e+000
6.739064e+002,2.899353e+000
6.748707e+002,1.541885e+000
6.758349e+002,-2.767944e-001
6.767991e+002,-1.396210e+000
6.777634e+002,-6.316986e-001
6.787276e+002,1.724319e+000
6.796918e+002,3.102097e+000
6.806561e+002,1.008835e+000
6.816203e+002,-7.307739e-001
6.825845e+002,-3.237305e-001
6.835488e+002,1.404892e+000
6.845130e+002,3.126099e+000
6.854772e+002,3.951935e+000
6.864415e+002,3.887177e+000
6.874057e+002,2.158600e+000
6.883699e+002,-5.846252e-001
6.893342e+002,-2.055267e+000
6.902984e+002,-7.928314e-001
6.912626e+002,2.621979e+000
6.922269e+002,3.929977e+000
6.931911e+002,8.477783e-001
6.941553e+002,-9.330750e-001
6.951196e+002,-3.896179e-001
6.960838e+002,1.302887e+000
6.970480e+002,2.419846e+000
6.980123e+002,2.595123e+000
6.989765e+002,2.311996e+000
6.999407e+002,1.340927e+000
7.009050e+002,3.901062e-001
7.018692e+002,1.451416e-001
7.028334e+002,7.543793e-001
7.037977e+002,1.605362e+000
7.047619e+002,1.809906e+000
7.057261e+002,1.636368e+000
7.066904e+002,1.345581e+000
7.076546e+002,9.727631e-001
7.086188e+002,7.907867e-001
7.095831e+002,1.303452e+000
7.105473e+002,2.963394e+000
7.115115e+002,3.607666e+000
7.124758e+002,3.227158e+000
7.134400e+002,2.047745e+000
7.144042e+002,-4.506836e-001
7.153685e+002,-4.107773e+000
7.163327e+002,-6.331497e+000
7.172969e+002,-4.088425e+000
7.182612e+002,-1.762390e+000
7.192254e+002,-1.302841e+000
7.201896e+002,-2.243988e+000
7.211539e+002,-3.211212e+000
7.221181e+002,-3.049561e+000
7.230823e+002,-2.177612e+000
7.240466e+002,-1.710693e+000
7.250108e+002,-1.506714e+000
7.259750e+002,-1.481796e+000
7.269393e+002,-1.754135e+000
7.279035e+002,-2.323502e+000
7.288677e+002,-2.309097e+000
7.298320e+002,-5.678558e-001
7.307962e+002,7.675629e-001
7.317604e+002,1.214249e+000
7.327247e+002,1.347351e+000
7.336889e+002,2.055923e+000
7.346531e+002,3.743332e+000
7.356174e+002,4.651352e+000
7.365816e+002,3.367905e+000
7.375458e+002,1.746628e+000
7.385101e+002,1.338562e+000
7.394743e+002,2.414764e+000
7.404385e+002,3.885696e+000
7.414028e+002,4.040466e+000
7.423670e+002,2.901688e+000
7.433312e+002,1.877869e+000
7.442955e+002,1.213440e+000
7.452597e+002,7.775116e-001
7.462239e+002,2.942810e-001
7.471882e+002,-3.826904e-001
7.481524e+002,-6.362000e-001
7.491166e+002,-4.630127e-001
7.500809e+002,-2.548981e-001
7.510451e+002,-3.437195e-001
7.520093e+002,-5.393982e-001
7.529736e+002,-2.818298e-002
7.539378e+002,2.534760e+000
7.549020e+002,4.598816e+000
7.558663e+002,4.010803e+000
7.568306e+002,2.155533e+000
7.577948e+002,8.047485e-001
7.587590e+002,1.009232e+000
7.597233e+002,2.355408e+000
7.606875e+002,4.503510e+000
7.616517e+002,7.326935e+000
7.626160e+002,8.036499e+000
7.635802e+002,5.204010e+000
7.645444e+002,6.352539e-001
7.655087e+002,-1.936096e+000
7.664729e+002,-1.798538e+000
7.674371e+002,-1.013382e+000
7.684014e+002,9.149017e-001
7.693656e+002,2.703094e+000
7.703298e+002,3.524261e+000
7.712941e+002,3.320328e+000
7.722583e+002,2.704834e+000
7.732225e+002,1.399002e+000
7.741868e+002,5.842438e-001
7.751510e+002,1.850525e+000
7.761152e+002,4.427490e+000
7.770795e+002,6.359833e+000
7.780437e+002,5.892944e+000
7.790079e+002,3.371643e+000
7.799722e+002,2.001648e+000
7.809364e+002,1.770538e+000
7.819006e+002,1.748093e+000
7.828649e+002,1.803543e+000
7.838291e+002,1.921295e+000
7.847933e+002,1.815567e+000
7.857576e+002,9.038239e-001
7.867218e+002,4.901733e-001
7.876860e+002,1.141083e+000
7.886503e+002,2.243271e+000
7.896145e+002,3.498917e+000
7.905787e+002,4.746338e+000
7.915430e+002,5.581100e+000
7.925072e+002,5.151215e+000
7.934714e+002,4.086060e+000
7.944357e+002,2.753540e+000
7.953999e+002,1.522308e+000
7.963641e+002,1.341049e+000
7.973284e+002,3.348175e+000
7.982926e+002,7.770523e+000
7.992568e+002,9.777222e+000
8.002211e+002,8.600266e+000
8.011853e+002,6.692444e+000
8.021495e+002,4.552078e+000
8.031138e+002,2.605438e+000
8.040780e+002,1.957535e+000
8.050422e+002,3.410522e+000
8.060065e+002,4.962448e+000
8.069707e+002,6.215332e+000
8.079349e+002,6.966827e+000
8.088992e+002,6.670761e+000
8.098634e+002,5.370132e+000
8.108276e+002,4.455597e+000
8.117919e+002,6.783920e+000
8.127561e+002,1.032751e+001
8.137203e+002,1.113197e+001
8.146846e+002,8.882492e+000
8.156488e+002,5.314636e+000
8.166130e+002,2.271469e+000
8.175773e+002,-5.135956e-001
8.185415e+002,-1.242798e+000
8.195057e+002,1.732880e+000
8.204700e+002,4.135513e+000
8.214342e+002,3.919952e+000
8.223984e+002,2.051239e+000
8.233627e+002,1.259857e+000
8.243269e+002,2.884064e+000
8.252911e+002,5.025177e+000
8.262554e+002,7.166580e+000
8.272196e+002,8.770432e+000
8.281838e+002,8.929321e+000
8.291481e+002,7.521866e+000
8.301123e+002,5.615250e+000
8.310765e+002,5.156647e+000
8.320408e+002,6.013306e+000
8.330050e+002,6.340347e+000
8.339692e+002,5.984329e+000
8.349335e+002,5.381180e+000
8.358977e+002,5.015350e+000
8.368619e+002,4.997055e+000
8.378262e+002,4.831757e+000
8.387904e+002,3.895554e+000
8.397546e+002,3.349518e+000
8.407189e+002,3.824997e+000
8.416831e+002,4.825256e+000
8.426473e+002,5.318604e+000
8.436116e+002,4.673599e+000
8.445758e+002,4.283997e+000
8.455400e+002,6.176758e+000
8.465043e+002,8.658890e+000
8.474685e+002,9.895889e+000
8.484327e+002,9.499496e+000
8.493970e+002,8.343704e+000
8.503612e+002,7.754501e+000
8.513254e+002,7.803787e+000
8.522897e+002,7.543869e+000
8.532539e+002,6.164841e+000
8.542181e+002,5.384979e+000
8.551824e+002,6.797302e+000
8.561466e+002,1.018634e+001
8.571108e+002,1.288988e+001
8.580751e+002,1.391927e+001
8.590393e+002,1.413292e+001
8.600035e+002,1.364145e+001
8.609678e+002,1.281917e+001
8.619320e+002,1.161401e+001
8.628962e+002,1.012813e+001
8.638605e+002,9.466888e+000
8.648247e+002,1.267844e+001
8.657889e+002,1.751169e+001
8.667532e+002,1.865369e+001
8.677174e+002,1.542119e+001
8.686816e+002,1.105974e+001
8.696459e+002,9.293091e+000
8.706101e+002,1.055208e+001
8.715743e+002,1.175839e+001
8.725386e+002,1.344884e+001
8.735028e+002,1.446335e+001
8.744670e+002,1.368610e+001
8.754313e+002,1.207173e+001
8.763955e+002,1.154837e+001
8.773597e+002,1.298376e+001
8.783240e+002,1.494691e+001
8.792882e+002,1.704207e+001
8.802524e+002,1.863496e+001
8.812167e+002,1.880392e+001
8.821809e+002,1.762772e+001
8.831451e+002,1.611565e+001
8.841094e+002,1.556812e+001
8.850736e+002,1.609001e+001
8.860378e+002,1.721973e+001
8.870021e+002,1.913527e+001
8.879663e+002,2.074910e+001
8.889305e+002,2.110103e+001
8.898948e+002,2.048848e+001
8.908590e+002,2.069293e+001
8.918232e+002,2.281351e+001
8.927875e+002,2.427809e+001
8.937517e+002,2.408907e+001
8.947159e+002,2.345181e+001
8.956802e+002,2.315662e+001
8.966444e+002,2.340472e+001
8.976086e+002,2.418828e+001
8.985729e+002,2.627315e+001
8.995371e+002,2.832803e+001
9.005013e+002,2.768117e+001
9.014656e+002,2.481683e+001
9.024298e+002,2.194472e+001
9.033940e+002,2.060043e+001
9.043583e+002,2.065404e+001
9.053225e+002,2.169200e+001
9.062867e+002,2.557428e+001
9.072510e+002,2.778612e+001
9.082152e+002,2.727719e+001
9.091794e+002,2.590982e+001
9.101437e+002,2.556313e+001
9.111079e+002,2.653073e+001
9.120721e+002,2.731448e+001
9.130364e+002,2.707950e+001
9.140006e+002,2.610327e+001
9.149648e+002,2.354813e+001
9.159291e+002,2.060973e+001
9.168933e+002,1.975476e+001
9.178575e+002,2.259982e+001
9.188218e+002,2.756297e+001
9.197860e+002,2.916150e+001
9.207502e+002,2.731673e+001
9.217145e+002,2.551291e+001
9.226787e+002,2.473907e+001
9.236429e+002,2.418091e+001
9.246072e+002,2.232231e+001
9.255714e+002,1.855849e+001
9.265356e+002,1.627199e+001
9.274999e+002,1.704115e+001
9.284641e+002,1.815372e+001
9.294283e+002,1.897475e+001
9.303926e+002,1.949222e+001
9.313568e+002,1.976518e+001
9.323210e+002,1.977759e+001
9.332853e+002,1.995490e+001
9.342495e+002,2.182336e+001
9.352137e+002,2.412349e+001
9.361780e+002,2.467874e+001
9.371422e+002,2.312074e+001
9.381064e+002,2.068787e+001
9.390707e+002,1.884084e+001
9.400349e+002,1.742178e+001
9.409991e+002,1.693730e+001
9.419634e+002,1.816499e+001
9.429276e+002,1.914240e+001
9.438918e+002,1.966765e+001
9.448561e+002,1.956647e+001
9.458203e+002,1.822411e+001
9.467845e+002,1.511346e+001
9.477488e+002,1.272366e+001
9.487130e+002,1.360484e+001
9.496772e+002,1.544077e+001
9.506415e+002,1.671866e+001
9.516057e+002,1.716809e+001
9.525699e+002,1.696799e+001
9.535342e+002,1.624959e+001
9.544984e+002,1.516847e+001
9.554626e+002,1.578853e+001
9.564269e+002,1.884688e+001
9.573911e+002,2.069307e+001
9.583553e+002,1.941225e+001
9.593196e+002,1.670410e+001
9.602838e+002,1.536305e+001
9.612480e+002,1.572549e+001
9.622123e+002,1.635651e+001
9.631765e+002,1.769180e+001
9.641407e+002,1.843506e+001
9.651050e+002,1.757932e+001
9.660692e+002,1.559883e+001
9.670334e+002,1.344066e+001
9.679977e+002,1.172079e+001
9.689619e+002,1.073477e+001
9.699261e+002,1.143352e+001
9.708904e+002,1.321309e+001
9.718546e+002,1.469608e+001
9.728188e+002,1.552782e+001
9.737831e+002,1.604579e+001
9.747473e+002,1.669691e+001
9.757115e+002,1.750816e+001
9.766758e+002,1.851065e+001
9.776400e+002,2.014351e+001
9.786042e+002,2.159981e+001
9.795685e+002,2.295496e+001
9.805327e+002,2.375774e+001
9.814969e+002,2.334872e+001
9.824612e+002,2.156509e+001
9.834254e+002,1.949428e+001
9.843896e+002,1.807951e+001
9.853539e+002,1.681694e+001
9.863181e+002,1.495818e+001
9.872823e+002,1.260866e+001
9.882466e+002,1.063942e+001
9.892108e+002,9.891159e+000
9.901750e+002,1.037616e+001
9.911393e+002,1.124297e+001
9.921035e+002,1.269766e+001
9.930677e+002,1.362570e+001
9.940320e+002,1.402840e+001
9.949962e+002,1.405515e+001
9.959604e+002,1.362329e+001
9.969247e+002,1.279918e+001
9.978889e+002,1.230991e+001
9.988531e+002,1.228081e+001
9.998174e+002,1.271814e+001
1.000782e+003,1.391034e+001
1.001746e+003,1.557265e+001
1.002710e+003,1.746286e+001
1.003674e+003,1.935358e+001
1.004639e+003,2.082774e+001
1.005603e+003,2.109241e+001
1.006567e+003,1.996556e+001
1.007531e+003,1.911679e+001
1.008495e+003,1.855644e+001
1.009460e+003,1.824924e+001
1.010424e+003,1.836162e+001
1.011388e+003,1.877945e+001
1.012352e+003,1.897530e+001
1.013317e+003,1.893747e+001
1.014281e+003,1.838644e+001
1.015245e+003,1.675449e+001
1.016209e+003,1.502850e+001
1.017174e+003,1.395724e+001
1.018138e+003,1.358012e+001
1.019102e+003,1.345648e+001
1.020066e+003,1.326224e+001
1.021031e+003,1.310957e+001
1.021995e+003,1.342017e+001
1.022959e+003,1.394165e+001
1.023923e+003,1.347508e+001
1.024887e+003,1.137839e+001
1.025852e+003,8.512451e+000
1.026816e+003,6.213303e+000
1.027780e+003,4.613022e+000
1.028744e+003,3.341522e+000
1.029709e+003,1.801041e+000
1.030673e+003,1.200592e+000
1.031637e+003,3.195267e+000
1.032601e+003,5.766541e+000
1.033566e+003,5.597168e+000
1.034530e+003,1.667557e+000
1.035494e+003,-2.248215e+000
1.036458e+003,-1.432114e+000
1.037422e+003,1.719406e+000
1.038387e+003,3.254898e+000
1.039351e+003,3.056625e+000
1.040315e+003,2.263535e+000
1.041279e+003,1.645355e+000
1.042244e+003,1.314423e+000
1.043208e+003,1.751175e+000
1.044172e+003,4.217010e+000
1.045136e+003,4.960754e+000
1.046101e+003,2.320068e+000
1.047065e+003,-2.810822e-001
1.048029e+003,-3.362579e-001
1.048993e+003,1.630127e+000
1.049958e+003,3.054276e+000
1.050922e+003,2.577591e+000
1.051886e+003,1.842194e+000
1.052850e+003,2.908066e+000
1.053814e+003,4.553726e+000
1.054779e+003,5.185501e+000
1.055743e+003,4.455063e+000
1.056707e+003,2.883621e+000
1.057671e+003,9.707642e-001
1.058636e+003,-1.309509e+000
1.059600e+003,-1.152588e+000
1.060564e+003,4.883453e+000
1.061528e+003,8.494919e+000
1.062493e+003,6.970108e+000
1.063457e+003,3.376633e+000
1.064421e+003,6.972809e-001
1.065385e+003,-6.301270e-001
1.066349e+003,-6.251984e-001
1.067314e+003,1.972366e+000
1.068278e+003,4.419022e+000
1.069242e+003,4.562653e+000
1.070206e+003,3.390244e+000
1.071171e+003,2.444748e+000
1.072135e+003,2.351791e+000
1.073099e+003,2.564819e+000
1.074063e+003,2.225739e+000
1.075028e+003,1.291245e+000
1.075992e+003,8.068848e-001
1.076956e+003,3.546600e-001
1.077920e+003,7.288361e-001
1.078885e+003,3.239655e+000
1.079849e+003,6.539764e+000
1.080813e+003,7.909485e+000
1.081777e+003,6.683777e+000
1.082741e+003,5.324066e+000
1.083706e+003,4.999695e+000
1.084670e+003,4.729828e+000
1.085634e+003,3.707809e+000
1.086598e+003,2.377380e+000
1.087563e+003,1.925903e+000
1.088527e+003,2.953186e+000
1.089491e+003,4.368103e+000
1.090455e+003,3.676346e+000
1.091420e+003,5.034943e-001
1.092384e+003,-3.288727e-001
1.093348e+003,2.540909e+000
1.094312e+003,5.080658e+000
1.095276e+003,4.430008e+000
1.096241e+003,1.782288e+000
1.097205e+003,8.141022e-001
1.098169e+003,2.613525e+000
1.099133e+003,3.918869e+000
1.100098e+003,3.072906e+000
1.101062e+003,1.877365e+000
1.102026e+003,1.367691e+000
1.102990e+003,1.485718e+000
1.103955e+003,1.781082e+000
1.104919e+003,1.946014e+000
1.105883e+003,1.827255e+000
1.106847e+003,8.992157e-001
1.107812e+003,-8.077393e-001
1.108776e+003,-8.545380e-001
1.109740e+003,1.589615e+000
1.110704e+003,4.189453e+000
1.111668e+003,5.291016e+000
1.112633e+003,5.257111e+000
1.113597e+003,5.444962e+000
1.114561e+003,6.175797e+000
1.115525e+003,6.442322e+000
1.116490e+003,5.909927e+000
1.117454e+003,4.915543e+000
1.118418e+003,3.115356e+000
1.119382e+003,1.181641e+000
1.120347e+003,5.323334e-001
1.121311e+003,1.954697e+000
1.122275e+003,4.234268e+000
1.123239e+003,5.230957e+000
1.124203e+003,5.083511e+000
1.125168e+003,4.420639e+000
1.126132e+003,2.868851e+000
1.127096e+003,1.955902e+000
1.128060e+003,3.292419e+000
1.129025e+003,6.281204e+000
1.129989e+003,8.147720e+000
1.130953e+003,8.207642e+000
1.131917e+003,8.169510e+000
1.132882e+003,8.721497e+000
1.133846e+003,9.207870e+000
1.134810e+003,8.966492e+000
1.135774e+003,8.361588e+000
1.136739e+003,8.225983e+000
1.137703e+003,9.022598e+000
1.138667e+003,1.051103e+001
1.139631e+003,1.255724e+001
1.140595e+003,1.497139e+001
1.141560e+003,1.635786e+001
1.142524e+003,1.634389e+001
1.143488e+003,1.667587e+001
1.144452e+003,1.857272e+001
1.145417e+003,2.172443e+001
1.146381e+003,2.504945e+001
1.147345e+003,2.853139e+001
1.148309e+003,3.205771e+001
1.149274e+003,3.542453e+001
1.150238e+003,3.909183e+001
1.151202e+003,4.362819e+001
1.152166e+003,4.866095e+001
1.153130e+003,5.351582e+001
1.154095e+003,5.777452e+001
1.155059e+003,6.141600e+001
1.156023e+003,6.483482e+001
1.156987e+003,6.764572e+001
1.157952e+003,6.748123e+001
1.158916e+003,6.403546e+001
1.159880e+003,6.043881e+001
1.160844e+003,5.842271e+001
1.161809e+003,5.702509e+001
1.162773e+003,5.432793e+001
1.163737e+003,5.013052e+001
1.164701e+003,4.555069e+001
1.165666e+003,4.071736e+001
1.166630e+003,3.581252e+001
1.167594e+003,2.989352e+001
1.168558e+003,2.435858e+001
1.169522e+003,2.138957e+001
1.170487e+003,2.138623e+001
1.171451e+003,2.243146e+001
1.172415e+003,2.244212e+001
1.173379e+003,2.153174e+001
1.174344e+003,2.037389e+001
1.175308e+003,1.895616e+001
1.176272e+003,1.787978e+001
1.177236e+003,1.747250e+001
1.178201e+003,1.745485e+001
1.179165e+003,1.749156e+001
1.180129e+003,1.752219e+001
1.181093e+003,1.737407e+001
1.182057e+003,1.741603e+001
1.183022e+003,1.669617e+001
1.183986e+003,1.359819e+001
1.184950e+003,1.056055e+001
1.185914e+003,1.025002e+001
1.186879e+003,1.259888e+001
1.187843e+003,1.563510e+001
1.188807e+003,1.776750e+001
1.189771e+003,1.884602e+001
1.190736e+003,1.822997e+001
1.191700e+003,1.567671e+001
1.192664e+003,1.384515e+001
1.193628e+003,1.327377e+001
1.194593e+003,1.316350e+001
1.195557e+003,1.312413e+001
1.196521e+003,1.306627e+001
1.197485e+003,1.264053e+001
1.198449e+003,1.162875e+001
1.199414e+003,1.083385e+001
1.200378e+003,1.106093e+001
1.201342e+003,1.123720e+001
1.202306e+003,1.065645e+001
1.203271e+003,9.420670e+000
1.204235e+003,7.760681e+000
1.205199e+003,5.896515e+000
1.206163e+003,4.302322e+000
1.207128e+003,3.846573e+000
1.208092e+003,4.635300e+000
1.209056e+003,4.166183e+000
1.210020e+003,1.779907e+000
1.210984e+003,-2.913666e-001
1.211949e+003,-1.200775e+000
1.212913e+003,-1.631317e+000
1.213877e+003,-2.552582e+000
1.214841e+003,-3.977051e+000
1.215806e+003,-4.810822e+000
1.216770e+003,-4.284027e+000
1.217734e+003,-3.643173e+000
1.218698e+003,-3.738251e+000
1.219663e+003,-4.302200e+000
1.220627e+003,-5.089447e+000
1.221591e+003,-5.974884e+000
1.222555e+003,-6.841232e+000
1.223520e+003,-7.568573e+000
1.224484e+003,-8.125275e+000
1.225448e+003,-8.529434e+000
1.226412e+003,-8.876526e+000
1.227376e+003,-8.827942e+000
1.228341e+003,-8.099091e+000
1.229305e+003,-7.367081e+000
1.230269e+003,-6.892578e+000
1.231233e+003,-6.714737e+000
1.232198e+003,-6.952484e+000
1.233162e+003,-7.630066e+000
1.234126e+003,-8.162888e+000
1.235090e+003,-8.222412e+000
1.236055e+003,-7.929535e+000
1.237019e+003,-6.957001e+000
1.237983e+003,-5.803955e+000
1.238947e+003,-5.874817e+000
1.239911e+003,-7.693878e+000
1.240876e+003,-9.917099e+000
1.241840e+003,-1.054100e+001
1.242804e+003,-9.458969e+000
1.243768e+003,-8.693100e+000
1.244733e+003,-8.787735e+000
1.245697e+003,-8.457611e+000
1.246661e+003,-7.258423e+000
1.247625e+003,-6.064163e+000
1.248590e+003,-5.569519e+000
1.249554e+003,-5.566605e+000
1.250518e+003,-5.263123e+000
1.251482e+003,-4.292755e+000
1.252447e+003,-3.549240e+000
1.253411e+003,-4.320847e+000
1.254375e+003,-5.871307e+000
1.255339e+003,-6.565796e+000
1.256303e+003,-6.345764e+000
1.257268e+003,-6.465118e+000
1.258232e+003,-8.086960e+000
1.259196e+003,-1.003165e+001
1.260160e+003,-9.308212e+000
1.261125e+003,-5.151306e+000
1.262089e+003,-2.692490e+000
1.263053e+003,-4.306519e+000
1.264017e+003,-5.551376e+000
1.264982e+003,-5.085251e+000
1.265946e+003,-3.954529e+000
1.266910e+003,-3.145844e+000
1.267874e+003,-2.738846e+000
1.268839e+003,-2.053833e+000
1.269803e+003,-6.178284e-001
1.270767e+003,6.614075e-001
1.271731e+003,-2.193298e-001
1.272695e+003,-3.162659e+000
1.273660e+003,-5.298889e+000
1.274624e+003,-6.663879e+000
1.275588e+003,-7.266632e+000
1.276552e+003,-6.369720e+000
1.277517e+003,-4.880280e+000
1.278481e+003,-4.795013e+000
1.279445e+003,-6.365952e+000
1.280409e+003,-7.571777e+000
1.281374e+003,-7.572571e+000
1.282338e+003,-7.284607e+000
1.283302e+003,-7.050385e+000
1.284266e+003,-6.919357e+000
1.285230e+003,-7.027679e+000
1.286195e+003,-7.317032e+000
1.287159e+003,-7.473495e+000
1.288123e+003,-7.206238e+000
1.289087e+003,-6.613022e+000
1.290052e+003,-6.123520e+000
1.291016e+003,-5.729218e+000
1.291980e+003,-5.757355e+000
1.292944e+003,-6.378525e+000
1.293909e+003,-7.285965e+000
1.294873e+003,-8.714554e+000
1.295837e+003,-1.004752e+001
1.296801e+003,-1.018613e+001
1.297766e+003,-9.114044e+000
1.298730e+003,-8.551254e+000
1.299694e+003,-9.854950e+000
1.300658e+003,-1.125011e+001
1.301622e+003,-1.053778e+001
1.302587e+003,-8.640442e+000
1.303551e+003,-6.544968e+000
1.304515e+003,-4.586655e+000
1.305479e+003,-4.020767e+000
1.306444e+003,-6.274643e+000
1.307408e+003,-1.018884e+001
1.308372e+003,-1.147337e+001
1.309336e+003,-8.942932e+000
1.310301e+003,-7.448349e+000
1.311265e+003,-7.589264e+000
1.312229e+003,-8.240356e+000
1.313193e+003,-9.943588e+000
1.314157e+003,-1.146889e+001
1.315122e+003,-1.117331e+001
1.316086e+003,-9.295364e+000
1.317050e+003,-7.767548e+000
1.318014e+003,-7.847885e+000
1.318979e+003,-8.665421e+000
1.319943e+003,-8.731689e+000
1.320907e+003,-8.098526e+000
1.321871e+003,-7.591003e+000
1.322836e+003,-7.261734e+000
1.323800e+003,-7.339233e+000
1.324764e+003,-8.632477e+000
1.325728e+003,-1.003003e+001
1.326693e+003,-9.139832e+000
1.327657e+003,-5.887436e+000
1.328621e+003,-4.125916e+000
1.329585e+003,-5.683609e+000
1.330549e+003,-7.075104e+000
1.331514e+003,-6.336670e+000
1.332478e+003,-5.048706e+000
1.333442e+003,-4.523865e+000
1.334406e+003,-4.837173e+000
1.335371e+003,-5.549286e+000
1.336335e+003,-6.376877e+000
1.337299e+003,-7.284332e+000
1.338263e+003,-8.300613e+000
1.339228e+003,-9.564865e+000
1.340192e+003,-9.555298e+000
1.341156e+003,-6.969009e+000
1.342120e+003,-5.119537e+000
1.343084e+003,-4.677521e+000
1.344049e+003,-5.085648e+000
1.345013e+003,-6.190598e+000
1.345977e+003,-7.624008e+000
1.346941e+003,-8.757828e+000
1.347906e+003,-9.402786e+000
1.348870e+003,-9.341354e+000
1.349834e+003,-8.104309e+000
1.350798e+003,-6.258774e+000
1.351763e+003,-4.469803e+000
1.352727e+003,-2.898056e+000
1.353691e+003,-2.726120e+000
1.354655e+003,-4.703064e+000
1.355620e+003,-7.037659e+000
1.356584e+003,-7.618546e+000
1.357548e+003,-6.579483e+000
1.358512e+003,-5.118301e+000
1.359476e+003,-2.670761e+000
1.360441e+003,-1.650757e+000
1.361405e+003,-3.936066e+000
1.362369e+003,-6.293579e+000
1.363333e+003,-7.192825e+000
1.364298e+003,-7.142136e+000
1.365262e+003,-7.014297e+000
1.366226e+003,-7.035995e+000
1.367190e+003,-6.771896e+000
1.368155e+003,-5.815735e+000
1.369119e+003,-4.530899e+000
1.370083e+003,-4.070328e+000
1.371047e+003,-4.612488e+000
1.372011e+003,-5.165665e+000
1.372976e+003,-6.429825e+000
1.373940e+003,-6.957947e+000
1.374904e+003,-5.255112e+000
1.375868e+003,-3.082428e+000
1.376833e+003,-2.976654e+000
1.377797e+003,-4.885651e+000
1.378761e+003,-6.598587e+000
1.379725e+003,-7.278732e+000
1.380690e+003,-7.131729e+000
1.381654e+003,-5.670944e+000
1.382618e+003,-3.815323e+000
1.383582e+003,-2.973663e+000
1.384547e+003,-3.101944e+000
1.385511e+003,-3.176437e+000
1.386475e+003,-2.700943e+000
1.387439e+003,-2.016525e+000
1.388403e+003,-1.568542e+000
1.389368e+003,-1.365341e+000
1.390332e+003,-1.406448e+000
1.391296e+003,-1.658646e+000
1.392260e+003,-2.139420e+000
1.393225e+003,-3.090164e+000
1.394189e+003,-4.022324e+000
1.395153e+003,-4.792587e+000
1.396117e+003,-5.294052e+000
1.397082e+003,-5.295135e+000
1.398046e+003,-4.817001e+000
1.399010e+003,-4.218521e+000
1.399974e+003,-3.855560e+000
1.400938e+003,-3.930481e+000
1.401903e+003,-4.969986e+000
1.402867e+003,-7.338470e+000
1.403831e+003,-7.932281e+000
1.404795e+003,-5.281693e+000
1.405760e+003,-3.107986e+000
1.406724e+003,-3.180557e+000
1.407688e+003,-4.295258e+000
1.408652e+003,-5.067276e+000
1.409617e+003,-5.275406e+000
1.410581e+003,-5.072037e+000
1.411545e+003,-4.445862e+000
1.412509e+003,-3.809036e+000
1.413474e+003,-3.530533e+000
1.414438e+003,-3.665131e+000
1.415402e+003,-4.415298e+000
1.416366e+003,-5.531998e+000
1.417330e+003,-5.865601e+000
1.418295e+003,-4.803757e+000
1.419259e+003,-3.433762e+000
1.420223e+003,-3.232193e+000
1.421187e+003,-3.982361e+000
1.422152e+003,-3.879654e+000
1.423116e+003,-2.381165e+000
1.424080e+003,-1.417358e+000
1.425044e+003,-1.819290e+000
1.426009e+003,-2.718719e+000
1.426973e+003,-4.380539e+000
1.427937e+003,-5.986603e+000
1.428901e+003,-6.381241e+000
1.429865e+003,-5.638931e+000
1.430830e+003,-4.959732e+000
1.431794e+003,-5.154968e+000
1.432758e+003,-5.468521e+000
1.433722e+003,-4.243088e+000
1.434687e+003,-1.191528e+000
1.435651e+003,1.147934e+000
1.436615e+003,2.569214e+000
1.437579e+003,3.071884e+000
1.438544e+003,2.148438e+000
1.439508e+003,8.798828e-001
1.440472e+003,-3.323975e-001
1.441436e+003,-1.154068e+000
1.442401e+003,-9.677277e-001
1.443365e+003,2.312317e-001
1.444329e+003,1.383743e+000
1.445293e+003,1.744339e+000
1.446257e+003,1.613770e+000
1.447222e+003,1.457214e+000
1.448186e+003,1.246506e+000
1.449150e+003,8.836670e-001
1.450114e+003,3.243103e-001
1.451079e+003,-3.427734e-001
1.452043e+003,-1.449997e+000
1.453007e+003,-2.275742e+000
1.453971e+003,-1.466095e+000
1.454936e+003,6.601715e-001
1.455900e+003,1.771118e+000
1.456864e+003,1.139404e+000
1.457828e+003,4.973907e-001
1.458792e+003,1.595047e+000
1.459757e+003,2.263626e+000
1.460721e+003,-4.358673e-001
1.461685e+003,-4.612122e+000
1.462649e+003,-5.861816e+000
1.463614e+003,-3.277283e+000
1.464578e+003,-7.032776e-001
1.465542e+003,-1.765823e+000
1.466506e+003,-4.962524e+000
1.467471e+003,-5.589432e+000
1.468435e+003,-2.902054e+000
1.469399e+003,-9.731598e-001
1.470363e+003,-3.285217e-001
1.471328e+003,-2.424774e-001
1.472292e+003,-1.345444e+000
1.473256e+003,-2.333267e+000
1.474220e+003,-1.814392e+000
1.475184e+003,-4.361115e-001
1.476149e+003,2.525330e-001
1.477113e+003,-2.301025e-001
1.478077e+003,-9.705200e-001
1.479041e+003,-1.030624e+000
1.480006e+003,-5.213928e-001
1.480970e+003,6.680298e-002
1.481934e+003,7.565308e-001
1.482898e+003,1.049591e+000
1.483863e+003,7.227173e-001
1.484827e+003,3.275299e-001
1.485791e+003,-3.225861e-001
1.486755e+003,-5.718994e-001
1.487719e+003,2.717896e-001
1.488684e+003,1.930161e+000
1.489648e+003,3.985199e+000
1.490612e+003,6.271469e+000
1.491576e+003,7.375854e+000
1.492541e+003,5.525467e+000
1.493505e+003,2.729584e+000
1.494469e+003,4.178757e+000
1.495433e+003,8.939713e+000
1.496398e+003,1.166353e+001
1.497362e+003,1.135608e+001
1.498326e+003,1.063327e+001
1.499290e+003,1.032722e+001
1.500255e+003,1.070105e+001
1.501219e+003,1.235284e+001
1.502183e+003,1.505553e+001
1.503147e+003,1.771767e+001
1.504111e+003,2.018507e+001
1.505076e+003,2.214064e+001
1.506040e+003,2.305450e+001
1.507004e+003,2.376282e+001
1.507968e+003,2.460367e+001
1.508933e+003,2.600381e+001
1.509897e+003,2.898975e+001
1.510861e+003,3.380263e+001
1.511825e+003,3.954044e+001
1.512790e+003,4.578522e+001
1.513754e+003,5.195105e+001
1.514718e+003,5.665787e+001
1.515682e+003,5.984789e+001
1.516646e+003,6.453937e+001
1.517611e+003,7.198076e+001
1.518575e+003,7.868582e+001
1.519539e+003,8.296762e+001
1.520503e+003,8.701709e+001
1.521468e+003,9.329541e+001
1.522432e+003,9.930090e+001
1.523396e+003,1.010222e+002
1.524360e+003,9.849812e+001
1.525325e+003,9.526886e+001
1.526289e+003,9.371028e+001
1.527253e+003,9.304826e+001
1.528217e+003,9.199278e+001
1.529182e+003,9.061926e+001
1.530146e+003,8.779291e+001
1.531110e+003,8.311778e+001
1.532074e+003,7.749510e+001
1.533039e+003,7.084166e+001
1.534003e+003,6.320679e+001
1.534967e+003,5.378439e+001
1.535931e+003,4.430211e+001
1.536896e+003,3.651746e+001
1.537860e+003,3.057529e+001
1.538824e+003,2.570981e+001
1.539788e+003,2.145674e+001
1.540752e+003,1.777051e+001
1.541717e+003,1.458842e+001
1.542681e+003,1.207164e+001
1.543645e+003,1.095993e+001
1.544609e+003,1.247797e+001
1.545573e+003,1.242651e+001
1.546538e+003,8.656784e+000
1.547502e+003,5.964020e+000
1.548466e+003,7.144104e+000
1.549430e+003,9.550415e+000
1.550395e+003,1.034354e+001
1.551359e+003,9.777878e+000
1.552323e+003,9.833481e+000
1.553287e+003,1.113631e+001
1.554252e+003,1.190495e+001
1.555216e+003,1.039188e+001
1.556180e+003,7.766739e+000
1.557144e+003,6.857529e+000
1.558109e+003,7.771820e+000
1.559073e+003,8.214539e+000
1.560037e+003,7.968903e+000
1.561001e+003,7.353119e+000
1.561966e+003,6.329315e+000
1.562930e+003,5.323288e+000
1.563894e+003,4.444580e+000
1.564858e+003,3.860565e+000
1.565823e+003,4.241043e+000
1.566787e+003,5.612122e+000
1.567751e+003,6.507950e+000
1.568715e+003,6.030502e+000
1.569679e+003,5.081467e+000
1.570644e+003,4.795746e+000
1.571608e+003,4.830841e+000
1.572572e+003,4.078339e+000
1.573536e+003,2.523621e+000
1.574500e+003,2.008530e+000
1.575465e+003,3.732010e+000
1.576429e+003,5.662323e+000
1.577393e+003,6.002350e+000
1.578357e+003,5.420456e+000
1.579322e+003,5.151825e+000
1.580286e+003,5.330093e+000
1.581250e+003,6.099991e+000
1.582214e+003,7.771225e+000
1.583179e+003,9.018417e+000
1.584143e+003,8.489380e+000
1.585107e+003,7.249222e+000
1.586071e+003,6.782867e+000
1.587036e+003,6.997986e+000
1.588000e+003,7.516235e+000
1.588964e+003,8.259460e+000
1.589928e+003,8.335922e+000
1.590893e+003,6.331955e+000
1.591857e+003,4.155273e+000
1.592821e+003,5.459656e+000
1.593785e+003,9.437485e+000
1.594750e+003,1.095354e+001
1.595714e+003,8.909409e+000
1.596678e+003,7.337021e+000
1.597642e+003,8.247009e+000
1.598606e+003,9.537857e+000
1.599571e+003,9.524246e+000
1.600535e+003,8.920288e+000
1.601499e+003,8.623413e+000
1.602463e+003,8.609222e+000
1.603427e+003,8.236603e+000
1.604392e+003,7.144913e+000
1.605356e+003,6.471130e+000
1.606320e+003,7.820923e+000
1.607284e+003,1.033606e+001
1.608249e+003,1.156776e+001
1.609213e+003,1.148129e+001
1.610177e+003,1.083109e+001
1.611141e+003,9.236343e+000
1.612106e+003,8.350128e+000
1.613070e+003,9.686340e+000
1.614034e+003,1.137267e+001
1.614998e+003,1.223624e+001
1.615963e+003,1.244725e+001
1.616927e+003,1.206891e+001
1.617891e+003,1.129959e+001
1.618855e+003,1.126814e+001
1.619820e+003,1.281223e+001
1.620784e+003,1.430411e+001
1.621748e+003,1.302191e+001
1.622712e+003,9.688278e+000
1.623677e+003,8.327240e+000
1.624641e+003,9.282852e+000
1.625605e+003,1.045479e+001
1.626569e+003,1.163316e+001
1.627533e+003,1.219183e+001
1.628498e+003,1.186516e+001
1.629462e+003,1.098933e+001
1.630426e+003,9.113739e+000
1.631390e+003,7.062653e+000
1.632354e+003,6.820786e+000
1.633319e+003,8.656158e+000
1.634283e+003,1.036238e+001
1.635247e+003,1.020758e+001
1.636211e+003,9.261353e+000
1.637176e+003,9.682449e+000
1.638140e+003,1.136436e+001
1.639104e+003,1.210344e+001
1.640068e+003,1.161427e+001
1.641033e+003,1.087138e+001
1.641997e+003,9.588242e+000
1.642961e+003,8.932816e+000
1.643925e+003,9.825989e+000
1.644890e+003,1.125597e+001
1.645854e+003,1.240843e+001
1.646818e+003,1.317360e+001
1.647782e+003,1.371684e+001
1.648747e+003,1.404071e+001
1.649711e+003,1.352411e+001
1.650675e+003,1.137973e+001
1.651639e+003,8.825638e+000
1.652604e+003,8.623108e+000
1.653568e+003,1.061752e+001
1.654532e+003,1.151572e+001
1.655496e+003,1.081952e+001
1.656460e+003,1.023375e+001
1.657425e+003,1.044389e+001
1.658389e+003,1.064632e+001
1.659353e+003,1.042798e+001
1.660317e+003,9.956436e+000
1.661281e+003,9.130585e+000
1.662246e+003,8.217133e+000
1.663210e+003,8.006104e+000
1.664174e+003,8.757431e+000
1.665138e+003,9.770966e+000
1.666103e+003,1.059918e+001
1.667067e+003,1.098325e+001
1.668031e+003,1.015062e+001
1.668995e+003,8.249146e+000
1.669960e+003,7.235001e+000
1.670924e+003,7.483459e+000
1.671888e+003,7.718872e+000
1.672852e+003,7.588165e+000
1.673817e+003,7.212341e+000
1.674781e+003,6.233582e+000
1.675745e+003,5.369949e+000
1.676709e+003,5.610367e+000
1.677674e+003,6.666504e+000
1.678638e+003,7.612427e+000
1.679602e+003,8.149780e+000
1.680566e+003,8.051300e+000
1.681531e+003,6.867462e+000
1.682495e+003,5.403488e+000
1.683459e+003,5.185165e+000
1.684423e+003,5.902771e+000
1.685387e+003,5.639801e+000
1.686352e+003,4.064423e+000
1.687316e+003,3.134171e+000
1.688280e+003,3.813919e+000
1.689244e+003,4.622147e+000
1.690208e+003,4.133926e+000
1.691173e+003,3.390350e+000
1.692137e+003,3.796494e+000
1.693101e+003,5.016037e+000
1.694065e+003,5.689789e+000
1.695030e+003,5.424728e+000
1.695994e+003,4.666809e+000
1.696958e+003,3.309616e+000
1.697922e+003,2.145020e+000
1.698887e+003,2.556122e+000
1.699851e+003,3.918961e+000
1.700815e+003,4.041306e+000
1.701779e+003,2.744308e+000
1.702744e+003,2.077347e+000
1.703708e+003,2.920166e+000
1.704672e+003,3.848206e+000
1.705636e+003,3.555573e+000
1.706601e+003,2.870804e+000
1.707565e+003,3.392807e+000
1.708529e+003,4.695099e+000
1.709493e+003,5.186783e+000
1.710458e+003,4.593872e+000
1.711422e+003,3.975754e+000
1.712386e+003,3.759277e+000
1.713350e+003,3.784393e+000
1.714314e+003,4.107651e+000
1.715279e+003,4.358078e+000
1.716243e+003,3.880859e+000
1.717207e+003,2.777893e+000
1.718171e+003,1.482285e+000
1.719135e+003,1.300201e-001
1.720100e+003,-1.375580e-001
1.721064e+003,1.750641e+000
1.722028e+003,4.107056e+000
1.722992e+003,4.469604e+000
1.723957e+003,3.279144e+000
1.724921e+003,2.720840e+000
1.725885e+003,2.787140e+000
1.726849e+003,2.701935e+000
1.727814e+003,2.408844e+000
1.728778e+003,2.111008e+000
1.729742e+003,1.369049e+000
1.730706e+003,1.083633e+000
1.731671e+003,2.677383e+000
1.732635e+003,5.092407e+000
1.733599e+003,6.175537e+000
1.734563e+003,5.725266e+000
1.735528e+003,5.023438e+000
1.736492e+003,4.718658e+000
1.737456e+003,4.459747e+000
1.738420e+003,3.807632e+000
1.739385e+003,2.875916e+000
1.740349e+003,2.280945e+000
1.741313e+003,2.101639e+000
1.742277e+003,2.126022e+000
1.743241e+003,3.191986e+000
1.744206e+003,3.268097e+000
1.745170e+003,7.796326e-001
1.746134e+003,-1.305573e+000
1.747098e+003,-9.357147e-001
1.748063e+003,3.937378e-001
1.749027e+003,9.377747e-001
1.749991e+003,7.531586e-001
1.750955e+003,7.835083e-001
1.751919e+003,1.304840e+000
1.752884e+003,1.748825e+000
1.753848e+003,1.642044e+000
1.754812e+003,1.219070e+000
1.755776e+003,9.938507e-001
1.756741e+003,1.016663e+000
1.757705e+003,1.025391e+000
1.758669e+003,9.354706e-001
1.759633e+003,9.303741e-001
1.760598e+003,1.295715e+000
1.761562e+003,1.247940e+000
1.762526e+003,3.388977e-002
1.763490e+003,-1.007187e+000
1.764455e+003,-5.011597e-001
1.765419e+003,6.045074e-001
1.766383e+003,4.627838e-001
1.767347e+003,-8.615875e-001
1.768312e+003,-1.577774e+000
1.769276e+003,-8.560944e-001
1.770240e+003,4.949188e-001
1.771204e+003,2.087326e+000
1.772168e+003,3.475616e+000
1.773133e+003,3.193008e+000
1.774097e+003,1.442871e+000
1.775061e+003,2.709045e-001
1.776025e+003,-1.943665e-001
1.776990e+003,-3.257751e-002
1.777954e+003,1.061798e+000
1.778918e+003,2.281204e+000
1.779882e+003,3.271606e+000
1.780846e+003,3.745361e+000
1.781811e+003,3.053360e+000
1.782775e+003,1.648865e+000
1.783739e+003,1.053391e+000
1.784703e+003,1.566406e+000
1.785668e+003,2.104797e+000
1.786632e+003,2.274231e+000
1.787596e+003,2.106110e+000
1.788560e+003,1.761307e+000
1.789525e+003,1.169205e+000
1.790489e+003,-1.312103e-001
1.791453e+003,-1.849976e+000
1.792417e+003,-3.179794e+000
1.793382e+003,-3.872864e+000
1.794346e+003,-3.510971e+000
1.795310e+003,-1.792740e+000
1.796274e+003,-5.072021e-002
1.797239e+003,1.595154e-001
1.798203e+003,-5.511475e-001
1.799167e+003,-4.642181e-001
1.800131e+003,4.380341e-001
1.801095e+003,1.104492e+000
1.802060e+003,1.697784e+000
1.803024e+003,2.071686e+000
1.803988e+003,1.843155e+000
1.804952e+003,1.753555e+000
1.805917e+003,2.585632e+000
1.806881e+003,3.354523e+000
1.807845e+003,2.808502e+000
1.808809e+003,1.533798e+000
1.809773e+003,1.070770e+000
1.810738e+003,1.544571e+000
1.811702e+003,1.308060e+000
1.812666e+003,-6.329193e-001
1.813630e+003,-2.615768e+000
1.814595e+003,-2.345886e+000
1.815559e+003,-3.410034e-001
1.816523e+003,1.573135e+000
1.817487e+003,3.487595e+000
1.818452e+003,4.306519e+000
1.819416e+003,3.735123e+000
1.820380e+003,2.938736e+000
1.821344e+003,1.750565e+000
1.822309e+003,9.634705e-001
1.823273e+003,1.544495e+000
1.824237e+003,2.428574e+000
1.825201e+003,2.480652e+000
1.826166e+003,1.875092e+000
1.827130e+003,1.055679e+000
1.828094e+003,1.169434e-001
1.829058e+003,-8.207703e-002
1.830022e+003,1.207687e+000
1.830987e+003,2.730759e+000
1.831951e+003,3.856689e+000
1.832915e+003,4.293503e+000
1.833879e+003,3.061569e+000
1.834844e+003,8.435211e-001
1.835808e+003,-3.629608e-001
1.836772e+003,-2.422638e-001
1.837736e+003,7.760773e-001
1.838700e+003,2.536835e+000
1.839665e+003,3.550735e+000
1.840629e+003,2.225449e+000
1.841593e+003,4.553223e-002
1.842557e+003,2.806702e-001
1.843522e+003,2.879410e+000
1.844486e+003,4.105972e+000
1.845450e+003,3.180298e+000
1.846414e+003,2.509430e+000
1.847379e+003,1.985382e+000
1.848343e+003,1.654617e+000
1.849307e+003,1.963654e+000
1.850271e+003,2.093796e+000
1.851236e+003,1.042938e+000
1.852200e+003,-2.329407e-001
1.853164e+003,-1.270599e-001
1.854128e+003,9.481964e-001
1.855093e+003,9.249420e-001
1.856057e+003,-7.261810e-001
1.857021e+003,-1.695129e+000
1.857985e+003,5.697632e-002
1.858949e+003,2.816345e+000
1.859914e+003,3.431580e+000
1.860878e+003,2.408279e+000
1.861842e+003,2.734863e+000
1.862806e+003,4.449341e+000
1.863771e+003,5.410431e+000
1.864735e+003,5.227707e+000
1.865699e+003,4.194550e+000
1.866663e+003,1.798187e+000
1.867627e+003,-4.238892e-002
1.868592e+003,1.045120e+000
1.869556e+003,3.250259e+000
1.870520e+003,2.658264e+000
1.871484e+003,-1.047668e-001
1.872449e+003,-3.899078e-001
1.873413e+003,3.472031e+000
1.874377e+003,5.801178e+000
1.875341e+003,3.102097e+000
1.876306e+003,6.078796e-001
1.877270e+003,1.790726e+000
1.878234e+003,3.835144e+000
1.879198e+003,3.715042e+000
1.880163e+003,2.398529e+000
1.881127e+003,2.154465e+000
1.882091e+003,3.078049e+000
1.883055e+003,3.707794e+000
1.884020e+003,3.435547e+000
1.884984e+003,2.935089e+000
1.885948e+003,2.822388e+000
1.886912e+003,2.892715e+000
1.887876e+003,2.695847e+000
1.888841e+003,2.294647e+000
1.889805e+003,2.508713e+000
1.890769e+003,3.566345e+000
1.891733e+003,3.901260e+000
1.892698e+003,2.756226e+000
1.893662e+003,2.299911e+000
1.894626e+003,4.128128e+000
1.895590e+003,5.763611e+000
1.896554e+003,4.956207e+000
1.897519e+003,3.477081e+000
1.898483e+003,3.351944e+000
1.899447e+003,4.316223e+000
1.900411e+003,5.560013e+000
1.901376e+003,7.041214e+000
1.902340e+003,7.611984e+000
1.903304e+003,5.960464e+000
1.904268e+003,4.664368e+000
1.905233e+003,6.228455e+000
1.906197e+003,8.071213e+000
1.907161e+003,6.667892e+000
1.908125e+003,4.042145e+000
1.909090e+003,4.826080e+000
1.910054e+003,8.240158e+000
1.911018e+003,8.912231e+000
1.911982e+003,5.450180e+000
1.912947e+003,2.381699e+000
1.913911e+003,3.009521e+000
1.914875e+003,5.116852e+000
1.915839e+003,5.228775e+000
1.916803e+003,3.739761e+000
1.917768e+003,2.869873e+000
1.918732e+003,2.716049e+000
1.919696e+003,2.808350e+000
1.920660e+003,3.120499e+000
1.921625e+003,3.890533e+000
1.922589e+003,5.681641e+000
1.923553e+003,7.017639e+000
1.924517e+003,6.611710e+000
1.925481e+003,5.875259e+000
1.926446e+003,6.372665e+000
1.927410e+003,7.322006e+000
1.928374e+003,6.819984e+000
1.929338e+003,4.878708e+000
1.930303e+003,3.844078e+000
1.931267e+003,4.621796e+000
1.932231e+003,5.598076e+000
1.933195e+003,5.934479e+000
1.934160e+003,6.224678e+000
1.935124e+003,7.274307e+000
1.936088e+003,8.186668e+000
1.937052e+003,7.662201e+000
1.938017e+003,6.276268e+000
1.938981e+003,5.270668e+000
1.939945e+003,4.900299e+000
1.940909e+003,5.058556e+000
1.941874e+003,5.574188e+000
1.942838e+003,5.534447e+000
1.943802e+003,4.057236e+000
1.944766e+003,2.320335e+000
1.945730e+003,2.664780e+000
1.946695e+003,4.793663e+000
1.947659e+003,6.789474e+000
1.948623e+003,8.719109e+000
1.949587e+003,9.508247e+000
1.950552e+003,8.815735e+000
1.951516e+003,8.037315e+000
1.952480e+003,7.539200e+000
1.953444e+003,7.242195e+000
1.954408e+003,7.045517e+000
1.955373e+003,6.991386e+000
1.956337e+003,7.473862e+000
1.957301e+003,8.265022e+000
1.958265e+003,8.187119e+000
1.959230e+003,7.076225e+000
1.960194e+003,6.373962e+000
1.961158e+003,6.094482e+000
1.962122e+003,6.307457e+000
1.963087e+003,7.721130e+000
1.964051e+003,8.829521e+000
1.965015e+003,8.572021e+000
1.965979e+003,7.885979e+000
1.966944e+003,7.428284e+000
1.967908e+003,7.338432e+000
1.968872e+003,7.981796e+000
1.969836e+003,9.094063e+000
1.970801e+003,9.527603e+000
1.971765e+003,8.845406e+000
1.972729e+003,7.986931e+000
1.973693e+003,7.662247e+000
1.974657e+003,7.815788e+000
1.975622e+003,8.646988e+000
1.976586e+003,9.748405e+000
1.977550e+003,1.006453e+001
1.978514e+003,9.685646e+000
1.979479e+003,9.033112e+000
1.980443e+003,8.195229e+000
1.981407e+003,7.472549e+000
1.982371e+003,6.960655e+000
1.983335e+003,7.550049e+000
1.984300e+003,1.011449e+001
1.985264e+003,1.289754e+001
1.986228e+003,1.311932e+001
1.987192e+003,1.133585e+001
1.988157e+003,1.044725e+001
1.989121e+003,1.066109e+001
1.990085e+003,1.089024e+001
1.991049e+003,1.162865e+001
1.992014e+003,1.144431e+001
1.992978e+003,8.670555e+000
1.993942e+003,6.936569e+000
1.994906e+003,8.126999e+000
1.995871e+003,1.011031e+001
1.996835e+003,1.208943e+001
1.997799e+003,1.345991e+001
1.998763e+003,1.293709e+001
1.999728e+003,1.098087e+001
