5.003444e+002,3.076819e+001
5.013087e+002,3.050682e+001
5.022729e+002,3.058202e+001
5.032371e+002,3.079793e+001
5.042014e+002,2.984607e+001
5.051656e+002,2.796719e+001
5.061298e+002,2.620056e+001
5.070941e+002,2.546298e+001
5.080583e+002,2.588110e+001
5.090225e+002,2.624913e+001
5.099868e+002,2.649290e+001
5.109510e+002,2.676567e+001
5.119152e+002,2.713535e+001
5.128795e+002,2.761874e+001
5.138437e+002,2.825012e+001
5.148079e+002,3.022568e+001
5.157722e+002,3.137688e+001
5.167364e+002,2.998872e+001
5.177006e+002,2.630867e+001
5.186649e+002,2.254814e+001
5.196291e+002,2.177686e+001
5.205933e+002,2.256412e+001
5.215576e+002,2.306653e+001
5.225218e+002,2.300647e+001
5.234860e+002,2.299327e+001
5.244503e+002,2.438628e+001
5.254145e+002,2.812981e+001
5.263787e+002,2.928078e+001
5.273430e+002,2.607974e+001
5.283072e+002,2.148816e+001
5.292714e+002,1.970686e+001
5.302357e+002,2.235672e+001
5.311999e+002,2.399019e+001
5.321641e+002,2.373048e+001
5.331284e+002,2.290733e+001
5.340926e+002,2.246101e+001
5.350568e+002,2.267593e+001
5.360211e+002,2.282425e+001
5.369853e+002,2.254849e+001
5.379495e+002,2.202896e+001
5.389138e+002,2.111467e+001
5.398780e+002,1.982704e+001
5.408422e+002,1.851581e+001
5.418065e+002,1.845010e+001
5.427707e+002,1.941597e+001
5.437349e+002,1.986049e+001
5.446992e+002,1.918373e+001
5.456634e+002,1.779295e+001
5.466276e+002,1.718320e+001
5.475919e+002,1.816441e+001
5.485561e+002,1.917601e+001
5.495203e+002,2.045886e+001
5.504846e+002,2.152054e+001
5.514488e+002,2.177649e+001
5.524130e+002,2.112369e+001
5.533773e+002,1.946501e+001
5.543415e+002,1.578610e+001
5.553057e+002,1.184340e+001
5.562700e+002,9.549820e+000
5.572342e+002,1.004317e+001
5.581984e+002,1.208899e+001
5.591627e+002,1.324268e+001
5.601269e+002,1.372395e+001
5.610911e+002,1.331560e+001
5.620554e+002,1.173933e+001
5.630196e+002,9.247452e+000
5.639838e+002,8.721069e+000
5.649481e+002,1.258041e+001
5.659123e+002,1.490784e+001
5.668765e+002,1.400517e+001
5.678408e+002,1.103342e+001
5.688050e+002,9.153580e+000
5.697692e+002,1.019963e+001
5.707335e+002,1.039594e+001
5.716977e+002,7.435074e+000
5.726619e+002,3.480850e+000
5.736262e+002,1.679092e+000
5.745904e+002,4.486465e+000
5.755546e+002,9.004623e+000
5.765189e+002,1.074826e+001
5.774831e+002,1.042543e+001
5.784473e+002,9.183090e+000
5.794116e+002,7.864014e+000
5.803758e+002,6.560287e+000
5.813400e+002,5.275452e+000
5.823043e+002,3.534149e+000
5.832685e+002,2.370285e+000
5.842327e+002,2.429382e+000
5.851970e+002,3.650803e+000
5.861612e+002,5.070786e+000
5.871254e+002,7.275497e+000
5.880897e+002,8.633835e+000
5.890539e+002,8.114609e+000
5.900181e+002,6.593628e+000
5.909824e+002,5.629395e+000
5.919466e+002,6.469864e+000
5.929108e+002,7.683075e+000
5.938751e+002,7.523590e+000
5.948393e+002,6.640198e+000
5.958035e+002,6.166229e+000
5.967678e+002,6.932465e+000
5.977320e+002,8.672379e+000
5.986962e+002,8.516800e+000
5.996605e+002,6.281982e+000
6.006247e+002,4.354553e+000
6.015889e+002,4.109634e+000
6.025532e+002,5.411987e+000
6.035174e+002,5.952820e+000
6.044816e+002,4.365814e+000
6.054459e+002,3.540192e+000
6.064101e+002,4.528198e+000
6.073743e+002,6.444168e+000
6.083386e+002,7.708725e+000
6.093028e+002,7.501114e+000
6.102670e+002,6.462219e+000
6.112313e+002,4.561905e+000
6.121955e+002,2.522324e+000
6.131597e+002,1.294540e+000
6.141240e+002,1.519165e+000
6.150882e+002,2.856964e+000
6.160524e+002,4.220581e+000
6.170167e+002,5.662537e+000
6.179809e+002,6.799133e+000
6.189451e+002,7.337860e+000
6.199094e+002,7.274826e+000
6.208736e+002,7.097153e+000
6.218378e+002,7.207291e+000
6.228021e+002,6.975693e+000
6.237663e+002,6.102585e+000
6.247305e+002,4.958939e+000
6.256948e+002,4.101227e+000
6.266590e+002,3.734009e+000
6.276232e+002,3.357040e+000
6.285875e+002,2.829514e+000
6.295517e+002,2.248398e+000
6.305159e+002,1.529907e+000
6.314802e+002,6.307526e-001
6.324444e+002,-2.241364e-001
6.334086e+002,-5.676270e-003
6.343729e+002,1.060196e+000
6.353371e+002,2.382675e+000
6.363013e+002,3.872818e+000
6.372656e+002,5.197693e+000
6.382298e+002,5.254364e+000
6.391940e+002,2.539139e+000
6.401583e+002,3.117065e-001
6.411225e+002,-1.576294e+000
6.420867e+002,-2.611771e+000
6.430510e+002,-1.838547e+000
6.440152e+002,1.700378e+000
6.449794e+002,4.137436e+000
6.459437e+002,2.628922e+000
6.469079e+002,6.050110e-002
6.478721e+002,-1.226852e+000
6.488364e+002,-4.553833e-001
6.498006e+002,1.069412e+000
6.507648e+002,8.146515e-001
6.517291e+002,-5.799713e-001
6.526933e+002,-1.501541e+000
6.536575e+002,-1.657730e+000
6.546218e+002,-1.245193e+000
6.555860e+002,-5.664063e-001
6.565502e+002,9.313660e-001
6.575145e+002,1.280136e+000
6.584787e+002,-4.983826e-001
6.594429e+002,-2.468124e+000
6.604072e+002,-2.994690e+000
6.613714e+002,-1.723404e+000
6.623356e+002,-3.787842e-001
6.632999e+002,4.931793e-001
6.642641e+002,8.269501e-001
6.652283e+002,4.514465e-001
6.661926e+002,-4.407959e-001
6.671568e+002,-1.463333e+000
6.681210e+002,-2.396179e+000
6.690853e+002,-3.009003e+000
6.700495e+002,-2.505936e+000
6.710137e+002,-9.584808e-001
6.719780e+002,5.449677e-001
6.729422e+002,7.763367e-001
6.739064e+002,-6.596985e-001
6.748707e+002,-1.323502e+000
6.758349e+002,-9.082336e-001
6.767991e+002,-3.852081e-001
6.777634e+002,-1.462097e-001
6.787276e+002,-3.468323e-002
6.796918e+002,6.113586e-001
6.806561e+002,3.042786e+000
6.816203e+002,4.599747e+000
6.825845e+002,3.500824e+000
6.835488e+002,9.913483e-001
6.845130e+002,-8.042908e-001
6.854772e+002,-2.277374e-001
6.864415e+002,1.706711e+000
6.874057e+002,2.471542e+000
6.883699e+002,2.273758e+000
6.893342e+002,1.884155e+000
6.902984e+002,1.753708e+000
6.912626e+002,1.885544e+000
6.922269e+002,2.009598e+000
6.931911e+002,2.910477e+000
6.941553e+002,3.070984e+000
6.951196e+002,1.743469e+000
6.960838e+002,-4.218750e-001
6.970480e+002,-2.483292e+000
6.980123e+002,-4.573959e+000
6.989765e+002,-5.384827e+000
6.999407e+002,-3.708237e+000
7.009050e+002,-1.430191e+000
7.018692e+002,5.180359e-002
7.028334e+002,2.070618e-001
7.037977e+002,-5.176697e-001
7.047619e+002,-1.758698e+000
7.057261e+002,-3.080490e+000
7.066904e+002,-3.774658e+000
7.076546e+002,-3.729675e+000
7.086188e+002,-3.181534e+000
7.095831e+002,-2.469696e+000
7.105473e+002,-1.542297e+000
7.115115e+002,-8.705750e-001
7.124758e+002,-7.308807e-001
7.134400e+002,-6.059570e-001
7.144042e+002,-2.343903e-001
7.153685e+002,4.609680e-001
7.163327e+002,1.623016e+000
7.172969e+002,4.787018e+000
7.182612e+002,7.040405e+000
7.192254e+002,6.750656e+000
7.201896e+002,4.495300e+000
7.211539e+002,1.520233e+000
7.221181e+002,-1.254013e+000
7.230823e+002,-3.583282e+000
7.240466e+002,-5.257080e+000
7.250108e+002,-6.158981e+000
7.259750e+002,-5.637589e+000
7.269393e+002,-3.161667e+000
7.279035e+002,7.441254e-001
7.288677e+002,2.826691e+000
7.298320e+002,1.469864e+000
7.307962e+002,7.707520e-001
7.317604e+002,1.254639e+000
7.327247e+002,2.467636e+000
7.336889e+002,3.891815e+000
7.346531e+002,5.518021e+000
7.356174e+002,6.002869e+000
7.365816e+002,4.260361e+000
7.375458e+002,2.041840e+000
7.385101e+002,5.269165e-001
7.394743e+002,7.595825e-002
7.404385e+002,3.415375e-001
7.414028e+002,1.025528e+000
7.423670e+002,1.590912e+000
7.433312e+002,7.929688e-001
7.442955e+002,-1.410950e+000
7.452597e+002,-3.437912e+000
7.462239e+002,-3.453079e+000
7.471882e+002,-8.867493e-001
7.481524e+002,1.006042e+000
7.491166e+002,1.843521e+000
7.500809e+002,2.208420e+000
7.510451e+002,2.202087e+000
7.520093e+002,1.897675e+000
7.529736e+002,1.381226e+000
7.539378e+002,3.938904e-001
7.549020e+002,9.957886e-002
7.558663e+002,1.820557e+000
7.568306e+002,4.331650e+000
7.577948e+002,5.798569e+000
7.587590e+002,5.129715e+000
7.597233e+002,3.126785e+000
7.606875e+002,2.564896e+000
7.616517e+002,3.340988e+000
7.626160e+002,3.753784e+000
7.635802e+002,3.306808e+000
7.645444e+002,2.412048e+000
7.655087e+002,1.825302e+000
7.664729e+002,1.364914e+000
7.674371e+002,1.646530e+000
7.684014e+002,2.987183e+000
7.693656e+002,4.617752e+000
7.703298e+002,6.553833e+000
7.712941e+002,8.587799e+000
7.722583e+002,9.466156e+000
7.732225e+002,7.186478e+000
7.741868e+002,4.312897e+000
7.751510e+002,2.844055e+000
7.761152e+002,2.572418e+000
7.770795e+002,2.503601e+000
7.780437e+002,1.740112e+000
7.790079e+002,4.164124e-001
7.799722e+002,1.968536e-001
7.809364e+002,1.146347e+000
7.819006e+002,1.937347e+000
7.828649e+002,1.927170e+000
7.838291e+002,1.504288e+000
7.847933e+002,1.903809e+000
7.857576e+002,4.222992e+000
7.867218e+002,5.010651e+000
7.876860e+002,2.443680e+000
7.886503e+002,-5.359039e-001
7.896145e+002,-1.227158e+000
7.905787e+002,9.595795e-001
7.915430e+002,3.650360e+000
7.925072e+002,4.015060e+000
7.934714e+002,3.418503e+000
7.944357e+002,3.635529e+000
7.953999e+002,4.746063e+000
7.963641e+002,5.801666e+000
7.973284e+002,5.663635e+000
7.982926e+002,4.244156e+000
7.992568e+002,3.267334e+000
8.002211e+002,2.463486e+000
8.011853e+002,1.785004e+000
8.021495e+002,1.378983e+000
8.031138e+002,1.448318e+000
8.040780e+002,2.213272e+000
8.050422e+002,4.277115e+000
8.060065e+002,5.653076e+000
8.069707e+002,5.237488e+000
8.079349e+002,4.058487e+000
8.088992e+002,3.062210e+000
8.098634e+002,2.686752e+000
8.108276e+002,2.835709e+000
8.117919e+002,3.649231e+000
8.127561e+002,4.425919e+000
8.137203e+002,3.922089e+000
8.146846e+002,2.175751e+000
8.156488e+002,4.741211e-001
8.166130e+002,3.681488e-001
8.175773e+002,2.182877e+000
8.185415e+002,3.418030e+000
8.195057e+002,3.710068e+000
8.204700e+002,3.753876e+000
8.214342e+002,3.707535e+000
8.223984e+002,3.592529e+000
8.233627e+002,3.354645e+000
8.243269e+002,2.745682e+000
8.252911e+002,2.646790e+000
8.262554e+002,3.980713e+000
8.272196e+002,5.672226e+000
8.281838e+002,6.566254e+000
8.291481e+002,6.267593e+000
8.301123e+002,5.313416e+000
8.310765e+002,4.563797e+000
8.320408e+002,4.004807e+000
8.330050e+002,3.628983e+000
8.339692e+002,3.495224e+000
8.349335e+002,3.486801e+000
8.358977e+002,3.622681e+000
8.368619e+002,4.048935e+000
8.378262e+002,4.105225e+000
8.387904e+002,2.915771e+000
8.397546e+002,2.131302e+000
8.407189e+002,2.719788e+000
8.416831e+002,3.880035e+000
8.426473e+002,3.903320e+000
8.436116e+002,1.686752e+000
8.445758e+002,-1.992035e-001
8.455400e+002,1.391266e+000
8.465043e+002,4.321243e+000
8.474685e+002,6.693192e+000
8.484327e+002,7.939011e+000
8.493970e+002,8.198807e+000
8.503612e+002,7.421448e+000
8.513254e+002,5.166214e+000
8.522897e+002,5.280121e+000
8.532539e+002,9.612579e+000
8.542181e+002,1.344977e+001
8.551824e+002,1.370531e+001
8.561466e+002,1.096570e+001
8.571108e+002,9.072815e+000
8.580751e+002,9.010391e+000
8.590393e+002,8.959869e+000
8.600035e+002,7.864700e+000
8.609678e+002,6.932602e+000
8.619320e+002,7.902481e+000
8.628962e+002,1.130168e+001
8.638605e+002,1.523785e+001
8.648247e+002,1.697064e+001
8.657889e+002,1.695990e+001
8.667532e+002,1.585123e+001
8.677174e+002,1.373372e+001
8.686816e+002,1.160687e+001
8.696459e+002,1.059236e+001
8.706101e+002,1.080862e+001
8.715743e+002,1.194341e+001
8.725386e+002,1.561273e+001
8.735028e+002,1.812138e+001
8.744670e+002,1.752675e+001
8.754313e+002,1.518295e+001
8.763955e+002,1.387595e+001
8.773597e+002,1.481703e+001
8.783240e+002,1.604871e+001
8.792882e+002,1.611537e+001
8.802524e+002,1.569434e+001
8.812167e+002,1.518816e+001
8.821809e+002,1.481866e+001
8.831451e+002,1.479851e+001
8.841094e+002,1.545102e+001
8.850736e+002,1.685715e+001
8.860378e+002,1.818839e+001
8.870021e+002,1.931593e+001
8.879663e+002,2.050757e+001
8.889305e+002,2.212709e+001
8.898948e+002,2.392632e+001
8.908590e+002,2.475725e+001
8.918232e+002,2.396864e+001
8.927875e+002,2.334561e+001
8.937517e+002,2.335339e+001
8.947159e+002,2.360620e+001
8.956802e+002,2.348378e+001
8.966444e+002,2.291533e+001
8.976086e+002,2.278334e+001
8.985729e+002,2.466617e+001
8.995371e+002,2.717604e+001
9.005013e+002,2.752252e+001
9.014656e+002,2.610074e+001
9.024298e+002,2.489568e+001
9.033940e+002,2.537785e+001
9.043583e+002,2.715697e+001
9.053225e+002,2.794157e+001
9.062867e+002,2.664136e+001
9.072510e+002,2.548103e+001
9.082152e+002,2.474687e+001
9.091794e+002,2.432109e+001
9.101437e+002,2.379109e+001
9.111079e+002,2.306572e+001
9.120721e+002,2.335695e+001
9.130364e+002,2.754390e+001
9.140006e+002,3.078928e+001
9.149648e+002,2.915489e+001
9.159291e+002,2.455539e+001
9.168933e+002,2.115968e+001
9.178575e+002,2.181059e+001
9.188218e+002,2.517152e+001
9.197860e+002,2.712303e+001
9.207502e+002,2.764771e+001
9.217145e+002,2.710553e+001
9.226787e+002,2.491893e+001
9.236429e+002,2.258914e+001
9.246072e+002,2.233160e+001
9.255714e+002,2.460912e+001
9.265356e+002,2.594373e+001
9.274999e+002,2.516316e+001
9.284641e+002,2.390109e+001
9.294283e+002,2.249307e+001
9.303926e+002,2.114931e+001
9.313568e+002,1.992726e+001
9.323210e+002,1.881915e+001
9.332853e+002,1.808223e+001
9.342495e+002,1.882721e+001
9.352137e+002,2.005507e+001
9.361780e+002,2.013876e+001
9.371422e+002,1.884247e+001
9.381064e+002,1.716708e+001
9.390707e+002,1.628503e+001
9.400349e+002,1.609753e+001
9.409991e+002,1.644818e+001
9.419634e+002,1.776714e+001
9.429276e+002,1.892586e+001
9.438918e+002,1.965410e+001
9.448561e+002,2.008614e+001
9.458203e+002,2.062666e+001
9.467845e+002,2.158186e+001
9.477488e+002,2.188596e+001
9.487130e+002,1.940601e+001
9.496772e+002,1.682767e+001
9.506415e+002,1.680392e+001
9.516057e+002,1.904317e+001
9.525699e+002,2.115797e+001
9.535342e+002,2.077663e+001
9.544984e+002,1.823135e+001
9.554626e+002,1.693808e+001
9.564269e+002,1.735558e+001
9.573911e+002,1.750221e+001
9.583553e+002,1.616229e+001
9.593196e+002,1.447331e+001
9.602838e+002,1.462167e+001
9.612480e+002,1.726555e+001
9.622123e+002,1.909091e+001
9.631765e+002,1.885251e+001
9.641407e+002,1.800929e+001
9.651050e+002,1.652644e+001
9.660692e+002,1.496794e+001
9.670334e+002,1.440498e+001
9.679977e+002,1.560066e+001
9.689619e+002,1.773373e+001
9.699261e+002,1.898636e+001
9.708904e+002,1.942180e+001
9.718546e+002,1.911772e+001
9.728188e+002,1.785869e+001
9.737831e+002,1.656284e+001
9.747473e+002,1.670288e+001
9.757115e+002,1.874864e+001
9.766758e+002,1.991582e+001
9.776400e+002,1.939575e+001
9.786042e+002,1.919621e+001
9.795685e+002,2.001622e+001
9.805327e+002,2.114291e+001
9.814969e+002,2.166858e+001
9.824612e+002,2.137279e+001
9.834254e+002,2.089333e+001
9.843896e+002,2.061092e+001
9.853539e+002,2.039258e+001
9.863181e+002,2.037369e+001
9.872823e+002,2.031682e+001
9.882466e+002,1.955365e+001
9.892108e+002,1.761955e+001
9.901750e+002,1.491866e+001
9.911393e+002,1.315529e+001
9.921035e+002,1.235175e+001
9.930677e+002,1.182693e+001
9.940320e+002,1.176601e+001
9.949962e+002,1.208211e+001
9.959604e+002,1.264012e+001
9.969247e+002,1.346539e+001
9.978889e+002,1.485477e+001
9.988531e+002,1.721368e+001
9.998174e+002,1.946925e+001
1.000782e+003,2.125534e+001
1.001746e+003,2.263969e+001
1.002710e+003,2.363072e+001
1.003674e+003,2.425314e+001
1.004639e+003,2.467494e+001
1.005603e+003,2.523672e+001
1.006567e+003,2.590385e+001
1.007531e+003,2.593945e+001
1.008495e+003,2.526723e+001
1.009460e+003,2.422931e+001
1.010424e+003,2.269138e+001
1.011388e+003,2.095033e+001
1.012352e+003,2.029922e+001
1.013317e+003,2.180611e+001
1.014281e+003,2.231418e+001
1.015245e+003,1.980666e+001
1.016209e+003,1.694040e+001
1.017174e+003,1.601926e+001
1.018138e+003,1.686131e+001
1.019102e+003,1.740889e+001
1.020066e+003,1.596022e+001
1.021031e+003,1.334677e+001
1.021995e+003,1.165112e+001
1.022959e+003,1.057516e+001
1.023923e+003,9.608215e+000
1.024887e+003,8.633987e+000
1.025852e+003,7.549728e+000
1.026816e+003,6.044495e+000
1.027780e+003,3.901657e+000
1.028744e+003,2.880432e+000
1.029709e+003,3.785767e+000
1.030673e+003,4.968002e+000
1.031637e+003,6.522766e+000
1.032601e+003,7.750977e+000
1.033566e+003,7.571320e+000
1.034530e+003,5.694702e+000
1.035494e+003,3.603882e+000
1.036458e+003,2.867752e+000
1.037422e+003,2.930923e+000
1.038387e+003,2.909012e+000
1.039351e+003,2.741058e+000
1.040315e+003,2.673233e+000
1.041279e+003,2.959167e+000
1.042244e+003,3.551544e+000
1.043208e+003,3.986267e+000
1.044172e+003,4.393021e+000
1.045136e+003,4.054077e+000
1.046101e+003,2.169724e+000
1.047065e+003,4.897766e-001
1.048029e+003,4.661713e-001
1.048993e+003,1.648880e+000
1.049958e+003,2.021362e+000
1.050922e+003,1.963196e-001
1.051886e+003,-1.280518e+000
1.052850e+003,9.066925e-001
1.053814e+003,4.569641e+000
1.054779e+003,6.953812e+000
1.055743e+003,7.438507e+000
1.056707e+003,7.058441e+000
1.057671e+003,7.060730e+000
1.058636e+003,7.422516e+000
1.059600e+003,7.333252e+000
1.060564e+003,6.375549e+000
1.061528e+003,5.919083e+000
1.062493e+003,6.471161e+000
1.063457e+003,7.150726e+000
1.064421e+003,7.000748e+000
1.065385e+003,5.978729e+000
1.066349e+003,4.958328e+000
1.067314e+003,4.211044e+000
1.068278e+003,3.841705e+000
1.069242e+003,4.336761e+000
1.070206e+003,5.147324e+000
1.071171e+003,5.148056e+000
1.072135e+003,3.938400e+000
1.073099e+003,2.439438e+000
1.074063e+003,2.315140e+000
1.075028e+003,3.753738e+000
1.075992e+003,5.205292e+000
1.076956e+003,6.946655e+000
1.077920e+003,8.079163e+000
1.078885e+003,8.139114e+000
1.079849e+003,7.608170e+000
1.080813e+003,7.361526e+000
1.081777e+003,7.649384e+000
1.082741e+003,7.597382e+000
1.083706e+003,5.586899e+000
1.084670e+003,3.888367e+000
1.085634e+003,4.318527e+000
1.086598e+003,5.976746e+000
1.087563e+003,7.018631e+000
1.088527e+003,6.483170e+000
1.089491e+003,5.082764e+000
1.090455e+003,3.933304e+000
1.091420e+003,2.963699e+000
1.092384e+003,2.798203e+000
1.093348e+003,4.115662e+000
1.094312e+003,4.817291e+000
1.095276e+003,3.086166e+000
1.096241e+003,-2.754211e-002
1.097205e+003,-1.316040e+000
1.098169e+003,2.224884e-001
1.099133e+003,1.442154e+000
1.100098e+003,7.339935e-001
1.101062e+003,-1.345978e-001
1.102026e+003,-2.449036e-002
1.102990e+003,8.820038e-001
1.103955e+003,1.906799e+000
1.104919e+003,2.599152e+000
1.105883e+003,2.815277e+000
1.106847e+003,2.086136e+000
1.107812e+003,4.154968e-001
1.108776e+003,6.150818e-002
1.109740e+003,1.687637e+000
1.110704e+003,3.456207e+000
1.111668e+003,4.250381e+000
1.112633e+003,4.261826e+000
1.113597e+003,3.826279e+000
1.114561e+003,2.423111e+000
1.115525e+003,1.636459e+000
1.116490e+003,2.281693e+000
1.117454e+003,3.254684e+000
1.118418e+003,4.191910e+000
1.119382e+003,4.945877e+000
1.120347e+003,5.167206e+000
1.121311e+003,4.551575e+000
1.122275e+003,3.644287e+000
1.123239e+003,4.051941e+000
1.124203e+003,5.792557e+000
1.125168e+003,6.743607e+000
1.126132e+003,6.256409e+000
1.127096e+003,6.382874e+000
1.128060e+003,9.588501e+000
1.129025e+003,1.482893e+001
1.129989e+003,1.704805e+001
1.130953e+003,1.451318e+001
1.131917e+003,1.193839e+001
1.132882e+003,1.005290e+001
1.133846e+003,9.139343e+000
1.134810e+003,9.918716e+000
1.135774e+003,1.177180e+001
1.136739e+003,1.328786e+001
1.137703e+003,1.367459e+001
1.138667e+003,1.376823e+001
1.139631e+003,1.507996e+001
1.140595e+003,1.752489e+001
1.141560e+003,2.023378e+001
1.142524e+003,2.339830e+001
1.143488e+003,2.638326e+001
1.144452e+003,2.813512e+001
1.145417e+003,2.929051e+001
1.146381e+003,3.220888e+001
1.147345e+003,3.714215e+001
1.148309e+003,4.332652e+001
1.149274e+003,5.205687e+001
1.150238e+003,6.048848e+001
1.151202e+003,6.711684e+001
1.152166e+003,7.248734e+001
1.153130e+003,7.799893e+001
1.154095e+003,8.410541e+001
1.155059e+003,8.937421e+001
1.156023e+003,9.205205e+001
1.156987e+003,9.207774e+001
1.157952e+003,9.019475e+001
1.158916e+003,8.651306e+001
1.159880e+003,8.186276e+001
1.160844e+003,7.584933e+001
1.161809e+003,6.895868e+001
1.162773e+003,6.276260e+001
1.163737e+003,5.746587e+001
1.164701e+003,5.201418e+001
1.165666e+003,4.486897e+001
1.166630e+003,3.908792e+001
1.167594e+003,3.680368e+001
1.168558e+003,3.612115e+001
1.169522e+003,3.431036e+001
1.170487e+003,3.066441e+001
1.171451e+003,2.700970e+001
1.172415e+003,2.542020e+001
1.173379e+003,2.544537e+001
1.174344e+003,2.495541e+001
1.175308e+003,2.406770e+001
1.176272e+003,2.252025e+001
1.177236e+003,1.954816e+001
1.178201e+003,1.647192e+001
1.179165e+003,1.496646e+001
1.180129e+003,1.495506e+001
1.181093e+003,1.517422e+001
1.182057e+003,1.573581e+001
1.183022e+003,1.608823e+001
1.183986e+003,1.583058e+001
1.184950e+003,1.545680e+001
1.185914e+003,1.541487e+001
1.186879e+003,1.580385e+001
1.187843e+003,1.655978e+001
1.188807e+003,1.761220e+001
1.189771e+003,1.866496e+001
1.190736e+003,1.884854e+001
1.191700e+003,1.801546e+001
1.192664e+003,1.774649e+001
1.193628e+003,1.862939e+001
1.194593e+003,1.966141e+001
1.195557e+003,2.043407e+001
1.196521e+003,2.075696e+001
1.197485e+003,1.976030e+001
1.198449e+003,1.676518e+001
1.199414e+003,1.427292e+001
1.200378e+003,1.427882e+001
1.201342e+003,1.439406e+001
1.202306e+003,1.268170e+001
1.203271e+003,9.866623e+000
1.204235e+003,7.818802e+000
1.205199e+003,7.448959e+000
1.206163e+003,7.890503e+000
1.207128e+003,7.651382e+000
1.208092e+003,6.688232e+000
1.209056e+003,6.347504e+000
1.210020e+003,7.023026e+000
1.210984e+003,7.437622e+000
1.211949e+003,7.454391e+000
1.212913e+003,6.826065e+000
1.213877e+003,5.081696e+000
1.214841e+003,2.266861e+000
1.215806e+003,-6.235504e-001
1.216770e+003,-3.691299e+000
1.217734e+003,-5.991791e+000
1.218698e+003,-6.822189e+000
1.219663e+003,-6.835556e+000
1.220627e+003,-6.552612e+000
1.221591e+003,-6.254196e+000
1.222555e+003,-6.383347e+000
1.223520e+003,-7.363144e+000
1.224484e+003,-8.830460e+000
1.225448e+003,-9.248352e+000
1.226412e+003,-7.682220e+000
1.227376e+003,-7.262283e+000
1.228341e+003,-9.159088e+000
1.229305e+003,-1.092542e+001
1.230269e+003,-1.116447e+001
1.231233e+003,-1.036452e+001
1.232198e+003,-9.409775e+000
1.233162e+003,-8.438766e+000
1.234126e+003,-7.844711e+000
1.235090e+003,-8.278946e+000
1.236055e+003,-9.061050e+000
1.237019e+003,-9.684067e+000
1.237983e+003,-1.002658e+001
1.238947e+003,-9.464127e+000
1.239911e+003,-7.710220e+000
1.240876e+003,-6.089310e+000
1.241840e+003,-6.892288e+000
1.242804e+003,-1.034969e+001
1.243768e+003,-1.185873e+001
1.244733e+003,-9.312866e+000
1.245697e+003,-7.505188e+000
1.246661e+003,-7.649475e+000
1.247625e+003,-8.076981e+000
1.248590e+003,-6.899185e+000
1.249554e+003,-4.740875e+000
1.250518e+003,-4.228195e+000
1.251482e+003,-6.745102e+000
1.252447e+003,-9.812897e+000
1.253411e+003,-1.032518e+001
1.254375e+003,-9.125397e+000
1.255339e+003,-7.858780e+000
1.256303e+003,-6.613174e+000
1.257268e+003,-6.104370e+000
1.258232e+003,-7.172821e+000
1.259196e+003,-8.885803e+000
1.260160e+003,-9.134628e+000
1.261125e+003,-7.625916e+000
1.262089e+003,-5.821747e+000
1.263053e+003,-3.220657e+000
1.264017e+003,-1.398972e+000
1.264982e+003,-8.262482e-001
1.265946e+003,-1.014969e+000
1.266910e+003,-1.836929e+000
1.267874e+003,-2.967300e+000
1.268839e+003,-3.646072e+000
1.269803e+003,-3.343597e+000
1.270767e+003,-2.834091e+000
1.271731e+003,-3.899155e+000
1.272695e+003,-6.353516e+000
1.273660e+003,-6.916458e+000
1.274624e+003,-4.926392e+000
1.275588e+003,-3.083481e+000
1.276552e+003,-2.997543e+000
1.277517e+003,-3.747940e+000
1.278481e+003,-3.428452e+000
1.279445e+003,-1.816803e+000
1.280409e+003,-1.477203e+000
1.281374e+003,-4.397552e+000
1.282338e+003,-7.171478e+000
1.283302e+003,-8.131104e+000
1.284266e+003,-7.974792e+000
1.285230e+003,-6.981873e+000
1.286195e+003,-5.684494e+000
1.287159e+003,-5.386841e+000
1.288123e+003,-7.130157e+000
1.289087e+003,-9.878601e+000
1.290052e+003,-1.061729e+001
1.291016e+003,-8.647537e+000
1.291980e+003,-7.390823e+000
1.292944e+003,-7.237396e+000
1.293909e+003,-7.405212e+000
1.294873e+003,-7.760544e+000
1.295837e+003,-8.007156e+000
1.296801e+003,-7.547272e+000
1.297766e+003,-6.411667e+000
1.298730e+003,-5.843399e+000
1.299694e+003,-6.665375e+000
1.300658e+003,-8.172073e+000
1.301622e+003,-1.024779e+001
1.302587e+003,-1.209599e+001
1.303551e+003,-1.198347e+001
1.304515e+003,-9.778992e+000
1.305479e+003,-7.733978e+000
1.306444e+003,-7.902100e+000
1.307408e+003,-9.393768e+000
1.308372e+003,-8.679520e+000
1.309336e+003,-4.237320e+000
1.310301e+003,-2.378113e+000
1.311265e+003,-5.500671e+000
1.312229e+003,-8.464844e+000
1.313193e+003,-1.016092e+001
1.314157e+003,-1.076730e+001
1.315122e+003,-1.022552e+001
1.316086e+003,-8.891815e+000
1.317050e+003,-7.641037e+000
1.318014e+003,-6.985168e+000
1.318979e+003,-6.787170e+000
1.319943e+003,-7.077042e+000
1.320907e+003,-7.683151e+000
1.321871e+003,-7.494781e+000
1.322836e+003,-6.355560e+000
1.323800e+003,-5.343048e+000
1.324764e+003,-5.165146e+000
1.325728e+003,-5.354401e+000
1.326693e+003,-5.011505e+000
1.327657e+003,-4.155090e+000
1.328621e+003,-3.988113e+000
1.329585e+003,-4.950851e+000
1.330549e+003,-5.836472e+000
1.331514e+003,-6.619598e+000
1.332478e+003,-7.062866e+000
1.333442e+003,-6.435043e+000
1.334406e+003,-5.070343e+000
1.335371e+003,-4.321564e+000
1.336335e+003,-4.975586e+000
1.337299e+003,-6.084549e+000
1.338263e+003,-5.823883e+000
1.339228e+003,-3.959549e+000
1.340192e+003,-2.884644e+000
1.341156e+003,-2.858643e+000
1.342120e+003,-3.177307e+000
1.343084e+003,-4.128677e+000
1.344049e+003,-5.242188e+000
1.345013e+003,-6.001968e+000
1.345977e+003,-6.438171e+000
1.346941e+003,-7.164520e+000
1.347906e+003,-8.486633e+000
1.348870e+003,-8.883652e+000
1.349834e+003,-5.893723e+000
1.350798e+003,-2.004135e+000
1.351763e+003,-2.262177e+000
1.352727e+003,-5.935944e+000
1.353691e+003,-8.785782e+000
1.354655e+003,-9.244858e+000
1.355620e+003,-8.494568e+000
1.356584e+003,-7.589325e+000
1.357548e+003,-6.563492e+000
1.358512e+003,-6.148026e+000
1.359476e+003,-6.843002e+000
1.360441e+003,-7.279205e+000
1.361405e+003,-6.827927e+000
1.362369e+003,-6.238510e+000
1.363333e+003,-5.874374e+000
1.364298e+003,-5.590973e+000
1.365262e+003,-5.036606e+000
1.366226e+003,-4.213318e+000
1.367190e+003,-3.629990e+000
1.368155e+003,-3.757828e+000
1.369119e+003,-4.206589e+000
1.370083e+003,-3.614807e+000
1.371047e+003,-1.292236e+000
1.372011e+003,-8.610382e-001
1.372976e+003,-4.408569e+000
1.373940e+003,-7.241318e+000
1.374904e+003,-6.944717e+000
1.375868e+003,-5.353561e+000
1.376833e+003,-4.923767e+000
1.377797e+003,-5.733017e+000
1.378761e+003,-5.977692e+000
1.379725e+003,-4.579971e+000
1.380690e+003,-3.342667e+000
1.381654e+003,-4.965149e+000
1.382618e+003,-7.442017e+000
1.383582e+003,-7.858765e+000
1.384547e+003,-6.262436e+000
1.385511e+003,-4.411926e+000
1.386475e+003,-3.110794e+000
1.387439e+003,-2.407120e+000
1.388403e+003,-2.526550e+000
1.389368e+003,-3.477264e+000
1.390332e+003,-4.182632e+000
1.391296e+003,-4.475098e+000
1.392260e+003,-4.646820e+000
1.393225e+003,-4.812775e+000
1.394189e+003,-4.897491e+000
1.395153e+003,-4.875259e+000
1.396117e+003,-4.726898e+000
1.397082e+003,-4.430023e+000
1.398046e+003,-3.950577e+000
1.399010e+003,-3.111404e+000
1.399974e+003,-1.773438e+000
1.400938e+003,-5.953064e-001
1.401903e+003,-1.479904e+000
1.402867e+003,-5.052185e+000
1.403831e+003,-6.450974e+000
1.404795e+003,-4.153748e+000
1.405760e+003,-2.125290e+000
1.406724e+003,-2.341537e+000
1.407688e+003,-3.462921e+000
1.408652e+003,-3.600037e+000
1.409617e+003,-2.703842e+000
1.410581e+003,-2.090576e+000
1.411545e+003,-2.296951e+000
1.412509e+003,-2.841217e+000
1.413474e+003,-3.736130e+000
1.414438e+003,-4.535034e+000
1.415402e+003,-3.949112e+000
1.416366e+003,-2.167435e+000
1.417330e+003,-9.893951e-001
1.418295e+003,-1.188583e+000
1.419259e+003,-1.918961e+000
1.420223e+003,-2.398163e+000
1.421187e+003,-2.691208e+000
1.422152e+003,-2.773178e+000
1.423116e+003,-2.519714e+000
1.424080e+003,-2.048416e+000
1.425044e+003,-9.332733e-001
1.426009e+003,-3.427277e-001
1.426973e+003,-1.434097e+000
1.427937e+003,-2.934525e+000
1.428901e+003,-3.225830e+000
1.429865e+003,-2.203064e+000
1.430830e+003,-8.302765e-001
1.431794e+003,1.907806e-001
1.432758e+003,9.258270e-001
1.433722e+003,1.688156e+000
1.434687e+003,2.723297e+000
1.435651e+003,2.776184e+000
1.436615e+003,2.510376e-001
1.437579e+003,-1.623413e+000
1.438544e+003,-2.643539e+000
1.439508e+003,-2.752716e+000
1.440472e+003,-1.072006e+000
1.441436e+003,1.379883e+000
1.442401e+003,2.504028e+000
1.443365e+003,1.876175e+000
1.444329e+003,1.163879e+000
1.445293e+003,1.667816e+000
1.446257e+003,2.732758e+000
1.447222e+003,3.274994e+000
1.448186e+003,3.234695e+000
1.449150e+003,1.944595e+000
1.450114e+003,-1.267105e+000
1.451079e+003,-3.391739e+000
1.452043e+003,-2.187332e+000
1.453007e+003,6.073151e-001
1.453971e+003,3.114014e+000
1.454936e+003,5.071335e+000
1.455900e+003,4.898361e+000
1.456864e+003,1.547119e+000
1.457828e+003,-1.200974e+000
1.458792e+003,-5.625305e-001
1.459757e+003,9.101868e-001
1.460721e+003,9.839935e-001
1.461685e+003,3.283997e-001
1.462649e+003,8.252258e-001
1.463614e+003,2.851044e+000
1.464578e+003,4.475571e+000
1.465542e+003,3.855667e+000
1.466506e+003,1.704163e+000
1.467471e+003,2.702026e-001
1.468435e+003,-1.245270e-001
1.469399e+003,-8.275909e-001
1.470363e+003,-3.068665e+000
1.471328e+003,-4.173065e+000
1.472292e+003,-2.699265e+000
1.473256e+003,-9.573059e-001
1.474220e+003,-5.573120e-001
1.475184e+003,-9.724121e-001
1.476149e+003,-1.126678e+000
1.477113e+003,-6.468964e-001
1.478077e+003,4.192352e-001
1.479041e+003,2.149628e+000
1.480006e+003,4.247742e+000
1.480970e+003,5.471298e+000
1.481934e+003,5.635391e+000
1.482898e+003,5.056351e+000
1.483863e+003,2.593903e+000
1.484827e+003,1.025909e+000
1.485791e+003,1.572189e+000
1.486755e+003,3.077011e+000
1.487719e+003,4.532700e+000
1.488684e+003,5.889832e+000
1.489648e+003,7.693130e+000
1.490612e+003,1.013245e+001
1.491576e+003,1.214145e+001
1.492541e+003,1.275381e+001
1.493505e+003,1.240868e+001
1.494469e+003,1.164726e+001
1.495433e+003,1.054211e+001
1.496398e+003,1.064468e+001
1.497362e+003,1.267789e+001
1.498326e+003,1.480643e+001
1.499290e+003,1.560388e+001
1.500255e+003,1.625977e+001
1.501219e+003,1.862694e+001
1.502183e+003,2.236771e+001
1.503147e+003,2.551733e+001
1.504111e+003,2.761618e+001
1.505076e+003,2.918044e+001
1.506040e+003,2.945432e+001
1.507004e+003,3.056122e+001
1.507968e+003,3.504640e+001
1.508933e+003,4.166364e+001
1.509897e+003,4.791985e+001
1.510861e+003,5.349648e+001
1.511825e+003,5.932246e+001
1.512790e+003,6.591019e+001
1.513754e+003,7.300473e+001
1.514718e+003,8.072311e+001
1.515682e+003,8.894772e+001
1.516646e+003,9.504404e+001
1.517611e+003,9.765941e+001
1.518575e+003,1.012689e+002
1.519539e+003,1.091196e+002
1.520503e+003,1.166109e+002
1.521468e+003,1.217017e+002
1.522432e+003,1.246197e+002
1.523396e+003,1.257925e+002
1.524360e+003,1.254070e+002
1.525325e+003,1.235744e+002
1.526289e+003,1.204043e+002
1.527253e+003,1.163261e+002
1.528217e+003,1.121080e+002
1.529182e+003,1.078570e+002
1.530146e+003,1.021703e+002
1.531110e+003,9.447522e+001
1.532074e+003,8.612547e+001
1.533039e+003,7.653096e+001
1.534003e+003,6.672176e+001
1.534967e+003,5.670207e+001
1.535931e+003,4.746469e+001
1.536896e+003,4.015512e+001
1.537860e+003,3.464911e+001
1.538824e+003,2.991078e+001
1.539788e+003,2.534422e+001
1.540752e+003,2.128799e+001
1.541717e+003,1.828893e+001
1.542681e+003,1.624980e+001
1.543645e+003,1.406844e+001
1.544609e+003,1.122337e+001
1.545573e+003,1.004532e+001
1.546538e+003,1.174425e+001
1.547502e+003,1.313116e+001
1.548466e+003,1.319034e+001
1.549430e+003,1.258437e+001
1.550395e+003,1.172865e+001
1.551359e+003,1.073460e+001
1.552323e+003,9.666321e+000
1.553287e+003,8.597549e+000
1.554252e+003,7.947418e+000
1.555216e+003,8.176773e+000
1.556180e+003,8.772720e+000
1.557144e+003,8.530991e+000
1.558109e+003,7.456894e+000
1.559073e+003,6.390945e+000
1.560037e+003,5.046295e+000
1.561001e+003,3.991745e+000
1.561966e+003,3.799271e+000
1.562930e+003,3.915894e+000
1.563894e+003,3.574127e+000
1.564858e+003,3.046707e+000
1.565823e+003,3.398560e+000
1.566787e+003,4.726395e+000
1.567751e+003,5.255081e+000
1.568715e+003,3.690170e+000
1.569679e+003,1.995209e+000
1.570644e+003,3.050430e+000
1.571608e+003,5.674515e+000
1.572572e+003,6.564651e+000
1.573536e+003,5.670715e+000
1.574500e+003,4.637619e+000
1.575465e+003,3.483688e+000
1.576429e+003,3.061737e+000
1.577393e+003,5.014694e+000
1.578357e+003,7.708832e+000
1.579322e+003,7.337524e+000
1.580286e+003,4.031647e+000
1.581250e+003,2.647949e+000
1.582214e+003,5.208328e+000
1.583179e+003,7.826370e+000
1.584143e+003,7.026657e+000
1.585107e+003,5.190689e+000
1.586071e+003,6.170425e+000
1.587036e+003,9.037369e+000
1.588000e+003,1.020709e+001
1.588964e+003,8.717285e+000
1.589928e+003,7.443268e+000
1.590893e+003,8.998505e+000
1.591857e+003,1.118303e+001
1.592821e+003,1.019395e+001
1.593785e+003,6.705139e+000
1.594750e+003,4.465836e+000
1.595714e+003,3.901382e+000
1.596678e+003,4.457535e+000
1.597642e+003,6.432327e+000
1.598606e+003,8.749893e+000
1.599571e+003,1.086513e+001
1.600535e+003,1.268097e+001
1.601499e+003,1.410258e+001
1.602463e+003,1.504387e+001
1.603427e+003,1.526828e+001
1.604392e+003,1.467229e+001
1.605356e+003,1.349475e+001
1.606320e+003,1.153146e+001
1.607284e+003,9.326111e+000
1.608249e+003,8.631943e+000
1.609213e+003,9.516800e+000
1.610177e+003,9.826584e+000
1.611141e+003,8.852386e+000
1.612106e+003,8.182907e+000
1.613070e+003,8.866425e+000
1.614034e+003,9.867813e+000
1.614998e+003,1.069270e+001
1.615963e+003,1.122775e+001
1.616927e+003,1.131157e+001
1.617891e+003,1.090379e+001
1.618855e+003,9.901703e+000
1.619820e+003,8.031830e+000
1.620784e+003,6.288269e+000
1.621748e+003,6.689743e+000
1.622712e+003,8.914764e+000
1.623677e+003,9.804153e+000
1.624641e+003,9.020187e+000
1.625605e+003,8.902161e+000
1.626569e+003,1.026791e+001
1.627533e+003,1.124988e+001
1.628498e+003,1.047424e+001
1.629462e+003,9.612946e+000
1.630426e+003,1.026994e+001
1.631390e+003,1.187962e+001
1.632354e+003,1.328169e+001
1.633319e+003,1.406374e+001
1.634283e+003,1.368288e+001
1.635247e+003,1.135620e+001
1.636211e+003,8.756577e+000
1.637176e+003,9.796143e+000
1.638140e+003,1.410823e+001
1.639104e+003,1.458734e+001
1.640068e+003,9.318466e+000
1.641033e+003,6.781525e+000
1.641997e+003,1.178676e+001
1.642961e+003,1.614316e+001
1.643925e+003,1.494733e+001
1.644890e+003,1.189149e+001
1.645854e+003,1.032378e+001
1.646818e+003,1.009975e+001
1.647782e+003,9.745499e+000
1.648747e+003,8.838821e+000
1.649711e+003,8.545822e+000
1.650675e+003,1.011888e+001
1.651639e+003,1.249127e+001
1.652604e+003,1.327533e+001
1.653568e+003,1.246631e+001
1.654532e+003,1.139430e+001
1.655496e+003,9.901001e+000
1.656460e+003,8.982056e+000
1.657425e+003,9.472366e+000
1.658389e+003,9.954178e+000
1.659353e+003,9.457687e+000
1.660317e+003,8.696594e+000
1.661281e+003,8.472351e+000
1.662246e+003,8.640137e+000
1.663210e+003,8.644958e+000
1.664174e+003,8.338409e+000
1.665138e+003,7.868607e+000
1.666103e+003,7.148361e+000
1.667067e+003,6.542480e+000
1.668031e+003,7.208694e+000
1.668995e+003,9.017059e+000
1.669960e+003,9.553192e+000
1.670924e+003,8.348053e+000
1.671888e+003,7.266586e+000
1.672852e+003,6.867584e+000
1.673817e+003,6.619537e+000
1.674781e+003,6.015274e+000
1.675745e+003,5.476639e+000
1.676709e+003,5.497345e+000
1.677674e+003,5.994232e+000
1.678638e+003,6.786407e+000
1.679602e+003,7.803192e+000
1.680566e+003,8.233566e+000
1.681531e+003,7.278915e+000
1.682495e+003,5.737839e+000
1.683459e+003,4.520523e+000
1.684423e+003,3.702759e+000
1.685387e+003,4.657608e+000
1.686352e+003,7.946579e+000
1.687316e+003,9.584579e+000
1.688280e+003,7.582077e+000
1.689244e+003,4.997360e+000
1.690208e+003,3.678207e+000
1.691173e+003,3.206039e+000
1.692137e+003,3.693008e+000
1.693101e+003,4.766724e+000
1.694065e+003,5.040436e+000
1.695030e+003,4.066406e+000
1.695994e+003,2.763763e+000
1.696958e+003,1.509888e+000
1.697922e+003,5.657043e-001
1.698887e+003,3.234558e-001
1.699851e+003,6.629791e-001
1.700815e+003,1.334198e+000
1.701779e+003,2.234512e+000
1.702744e+003,2.318359e+000
1.703708e+003,1.127884e+000
1.704672e+003,5.963135e-002
1.705636e+003,-4.812622e-002
1.706601e+003,4.189606e-001
1.707565e+003,1.438248e+000
1.708529e+003,2.739822e+000
1.709493e+003,3.107498e+000
1.710458e+003,2.304871e+000
1.711422e+003,1.340363e+000
1.712386e+003,1.364594e-001
1.713350e+003,-3.379517e-001
1.714314e+003,1.521912e+000
1.715279e+003,3.958267e+000
1.716243e+003,3.694031e+000
1.717207e+003,1.151596e+000
1.718171e+003,-4.905396e-001
1.719135e+003,-3.310242e-001
1.720100e+003,1.566772e-001
1.721064e+003,3.752136e-002
1.722028e+003,-5.041199e-001
1.722992e+003,-1.314865e+000
1.723957e+003,-2.125687e+000
1.724921e+003,-1.775848e+000
1.725885e+003,-5.700684e-002
1.726849e+003,3.607941e-001
1.727814e+003,-2.407715e+000
1.728778e+003,-4.175919e+000
1.729742e+003,-2.412842e+000
1.730706e+003,4.128113e-001
1.731671e+003,2.143890e+000
1.732635e+003,2.738586e+000
1.733599e+003,2.635590e+000
1.734563e+003,2.159927e+000
1.735528e+003,1.903122e+000
1.736492e+003,2.122101e+000
1.737456e+003,1.697906e+000
1.738420e+003,-9.558105e-001
1.739385e+003,-4.781738e+000
1.740349e+003,-5.450333e+000
1.741313e+003,-2.095840e+000
1.742277e+003,4.148102e-001
1.743241e+003,2.165298e+000
1.744206e+003,3.188614e+000
1.745170e+003,3.125839e+000
1.746134e+003,2.634338e+000
1.747098e+003,1.517929e+000
1.748063e+003,5.617981e-001
1.749027e+003,1.187546e+000
1.749991e+003,2.680222e+000
1.750955e+003,2.667435e+000
1.751919e+003,5.821381e-001
1.752884e+003,-1.390320e+000
1.753848e+003,-1.427795e+000
1.754812e+003,-5.303802e-001
1.755776e+003,-7.151337e-001
1.756741e+003,-1.832703e+000
1.757705e+003,-1.713867e+000
1.758669e+003,3.003540e-001
1.759633e+003,1.352692e+000
1.760598e+003,2.919464e-001
1.761562e+003,-6.754761e-001
1.762526e+003,-5.307312e-001
1.763490e+003,-2.477264e-001
1.764455e+003,-4.555969e-001
1.765419e+003,-1.000000e+000
1.766383e+003,-1.961441e+000
1.767347e+003,-3.081314e+000
1.768312e+003,-3.111343e+000
1.769276e+003,-1.460938e+000
1.770240e+003,1.153564e-001
1.771204e+003,-1.253662e-001
1.772168e+003,-1.496353e+000
1.773133e+003,-3.009689e+000
1.774097e+003,-4.549316e+000
1.775061e+003,-4.674530e+000
1.776025e+003,-3.145706e+000
1.776990e+003,-1.641785e+000
1.777954e+003,-3.503113e-001
1.778918e+003,3.081055e-001
1.779882e+003,-6.839752e-001
1.780846e+003,-2.099533e+000
1.781811e+003,-1.935440e+000
1.782775e+003,-6.838531e-001
1.783739e+003,-8.580017e-002
1.784703e+003,-3.859558e-001
1.785668e+003,-8.938599e-001
1.786632e+003,-1.887573e+000
1.787596e+003,-2.501114e+000
1.788560e+003,-1.425079e+000
1.789525e+003,1.992645e-001
1.790489e+003,4.723663e-001
1.791453e+003,-3.021545e-001
1.792417e+003,-6.938477e-001
1.793382e+003,-3.929749e-001
1.794346e+003,1.586914e-001
1.795310e+003,7.478485e-001
1.796274e+003,1.047333e+000
1.797239e+003,6.885834e-001
1.798203e+003,7.720947e-003
1.799167e+003,-3.589020e-001
1.800131e+003,-6.670227e-001
1.801095e+003,-3.656769e-001
1.802060e+003,1.974396e+000
1.803024e+003,2.980148e+000
1.803988e+003,9.685822e-001
1.804952e+003,-9.072113e-001
1.805917e+003,-9.570770e-001
1.806881e+003,-3.319550e-001
1.807845e+003,-1.831818e-001
1.808809e+003,-3.364716e-001
1.809773e+003,-4.945374e-002
1.810738e+003,7.312012e-001
1.811702e+003,1.166168e+000
1.812666e+003,7.463379e-001
1.813630e+003,4.825592e-001
1.814595e+003,1.977493e+000
1.815559e+003,4.423691e+000
1.816523e+003,4.277390e+000
1.817487e+003,1.236786e+000
1.818452e+003,-5.984192e-001
1.819416e+003,-4.900665e-001
1.820380e+003,-5.359192e-001
1.821344e+003,-2.109024e+000
1.822309e+003,-3.014374e+000
1.823273e+003,-1.038345e+000
1.824237e+003,1.616867e+000
1.825201e+003,2.823242e+000
1.826166e+003,2.714935e+000
1.827130e+003,1.667984e+000
1.828094e+003,-2.110748e-001
1.829058e+003,-1.125626e+000
1.830022e+003,4.957123e-001
1.830987e+003,1.966995e+000
1.831951e+003,3.842621e-001
1.832915e+003,-2.199081e+000
1.833879e+003,-2.848465e+000
1.834844e+003,-1.886108e+000
1.835808e+003,-3.950348e-001
1.836772e+003,1.286240e+000
1.837736e+003,2.170609e+000
1.838700e+003,1.755554e+000
1.839665e+003,9.516602e-001
1.840629e+003,6.336823e-001
1.841593e+003,5.236206e-001
1.842557e+003,-6.600952e-002
1.843522e+003,-1.132507e+000
1.844486e+003,-2.106094e+000
1.845450e+003,-3.402100e+000
1.846414e+003,-3.493530e+000
1.847379e+003,-9.619293e-001
1.848343e+003,4.765778e-001
1.849307e+003,-1.521851e+000
1.850271e+003,-3.546204e+000
1.851236e+003,-2.897430e+000
1.852200e+003,-7.696381e-001
1.853164e+003,1.351410e+000
1.854128e+003,2.797333e+000
1.855093e+003,2.864685e+000
1.856057e+003,1.537827e+000
1.857021e+003,1.083832e-001
1.857985e+003,-4.620819e-001
1.858949e+003,-3.170776e-001
1.859914e+003,7.792664e-001
1.860878e+003,2.497467e+000
1.861842e+003,2.558655e+000
1.862806e+003,8.694153e-001
1.863771e+003,-2.613220e-001
1.864735e+003,-4.122620e-001
1.865699e+003,-4.389038e-001
1.866663e+003,-7.174377e-001
1.867627e+003,-7.846527e-001
1.868592e+003,-8.082581e-002
1.869556e+003,8.218842e-001
1.870520e+003,9.411011e-001
1.871484e+003,3.883209e-001
1.872449e+003,-9.860229e-002
1.873413e+003,-3.421478e-001
1.874377e+003,1.888885e-001
1.875341e+003,2.212753e+000
1.876306e+003,3.826675e+000
1.877270e+003,3.581818e+000
1.878234e+003,2.776031e+000
1.879198e+003,2.914764e+000
1.880163e+003,3.477081e+000
1.881127e+003,3.196274e+000
1.882091e+003,2.116806e+000
1.883055e+003,1.392273e+000
1.884020e+003,1.418701e+000
1.884984e+003,1.022720e+000
1.885948e+003,-9.264526e-001
1.886912e+003,-3.046677e+000
1.887876e+003,-2.344803e+000
1.888841e+003,8.969574e-001
1.889805e+003,3.112411e+000
1.890769e+003,4.305115e+000
1.891733e+003,4.283310e+000
1.892698e+003,2.137405e+000
1.893662e+003,7.671051e-001
1.894626e+003,1.576599e+000
1.895590e+003,2.966690e+000
1.896554e+003,4.706345e+000
1.897519e+003,5.908768e+000
1.898483e+003,4.671173e+000
1.899447e+003,1.800537e+000
1.900411e+003,6.078644e-001
1.901376e+003,1.774490e+000
1.902340e+003,2.600906e+000
1.903304e+003,1.875809e+000
1.904268e+003,8.414764e-001
1.905233e+003,-9.588623e-002
1.906197e+003,-5.746918e-001
1.907161e+003,3.274536e-002
1.908125e+003,1.283356e+000
1.909090e+003,2.452576e+000
1.910054e+003,3.298615e+000
1.911018e+003,3.714584e+000
1.911982e+003,3.729630e+000
1.912947e+003,3.459351e+000
1.913911e+003,2.959259e+000
1.914875e+003,2.343781e+000
1.915839e+003,1.724503e+000
1.916803e+003,1.106491e+000
1.917768e+003,9.313812e-001
1.918732e+003,1.322739e+000
1.919696e+003,1.858200e+000
1.920660e+003,2.811829e+000
1.921625e+003,3.225540e+000
1.922589e+003,2.256195e+000
1.923553e+003,1.607971e+000
1.924517e+003,2.972183e+000
1.925481e+003,4.360550e+000
1.926446e+003,3.500381e+000
1.927410e+003,1.608154e+000
1.928374e+003,1.128769e+000
1.929338e+003,2.110138e+000
1.930303e+003,3.253555e+000
1.931267e+003,4.744980e+000
1.932231e+003,5.259399e+000
1.933195e+003,2.515640e+000
1.934160e+003,3.513794e-001
1.935124e+003,2.637207e+000
1.936088e+003,6.155518e+000
1.937052e+003,7.304871e+000
1.938017e+003,6.414322e+000
1.938981e+003,4.201050e+000
1.939945e+003,1.507629e+000
1.940909e+003,5.326080e-001
1.941874e+003,2.116867e+000
1.942838e+003,4.448532e+000
1.943802e+003,5.997162e+000
1.944766e+003,6.742340e+000
1.945730e+003,6.248932e+000
1.946695e+003,4.666199e+000
1.947659e+003,3.809052e+000
1.948623e+003,3.693634e+000
1.949587e+003,3.842499e+000
1.950552e+003,4.327820e+000
1.951516e+003,4.813889e+000
1.952480e+003,5.224335e+000
1.953444e+003,5.536880e+000
1.954408e+003,5.819443e+000
1.955373e+003,5.789169e+000
1.956337e+003,4.967331e+000
1.957301e+003,3.703354e+000
1.958265e+003,2.791656e+000
1.959230e+003,2.249161e+000
1.960194e+003,2.218414e+000
1.961158e+003,2.786270e+000
1.962122e+003,3.434814e+000
1.963087e+003,4.435440e+000
1.964051e+003,5.044006e+000
1.965015e+003,4.784424e+000
1.965979e+003,4.156860e+000
1.966944e+003,3.053635e+000
1.967908e+003,2.094406e+000
1.968872e+003,2.641190e+000
1.969836e+003,4.487732e+000
1.970801e+003,5.972855e+000
1.971765e+003,6.383850e+000
1.972729e+003,6.173737e+000
1.973693e+003,5.629288e+000
1.974657e+003,4.936966e+000
1.975622e+003,3.927872e+000
1.976586e+003,3.079056e+000
1.977550e+003,4.412216e+000
1.978514e+003,7.390488e+000
1.979479e+003,8.519363e+000
1.980443e+003,7.348373e+000
1.981407e+003,5.900116e+000
1.982371e+003,4.918228e+000
1.983335e+003,4.645828e+000
1.984300e+003,5.299377e+000
1.985264e+003,6.283737e+000
1.986228e+003,6.810776e+000
1.987192e+003,6.850021e+000
1.988157e+003,6.158752e+000
1.989121e+003,4.409683e+000
1.990085e+003,3.902878e+000
1.991049e+003,5.688721e+000
1.992014e+003,6.705353e+000
1.992978e+003,5.998184e+000
1.993942e+003,5.170074e+000
1.994906e+003,4.731171e+000
1.995871e+003,4.411118e+000
1.996835e+003,3.553528e+000
1.997799e+003,3.025925e+000
1.998763e+003,4.533417e+000
1.999728e+003,7.510406e+000
