5.003444e+002,3.357465e+001
5.013087e+002,3.453323e+001
5.022729e+002,3.396259e+001
5.032371e+002,3.230975e+001
5.042014e+002,3.061786e+001
5.051656e+002,2.895807e+001
5.061298e+002,2.752664e+001
5.070941e+002,2.644730e+001
5.080583e+002,2.562045e+001
5.090225e+002,2.529291e+001
5.099868e+002,2.598248e+001
5.109510e+002,2.646603e+001
5.119152e+002,2.574707e+001
5.128795e+002,2.368005e+001
5.138437e+002,2.268695e+001
5.148079e+002,2.519254e+001
5.157722e+002,2.756393e+001
5.167364e+002,2.797632e+001
5.177006e+002,2.635327e+001
5.186649e+002,2.422546e+001
5.196291e+002,2.337457e+001
5.205933e+002,2.351654e+001
5.215576e+002,2.430240e+001
5.225218e+002,2.545734e+001
5.234860e+002,2.659824e+001
5.244503e+002,2.723788e+001
5.254145e+002,2.742264e+001
5.263787e+002,2.761850e+001
5.273430e+002,2.790192e+001
5.283072e+002,2.815042e+001
5.292714e+002,2.827637e+001
5.302357e+002,2.854965e+001
5.311999e+002,2.725861e+001
5.321641e+002,2.261252e+001
5.331284e+002,1.816403e+001
5.340926e+002,1.713818e+001
5.350568e+002,2.085318e+001
5.360211e+002,2.470377e+001
5.369853e+002,2.481506e+001
5.379495e+002,2.321634e+001
5.389138e+002,2.092072e+001
5.398780e+002,1.850562e+001
5.408422e+002,1.619714e+001
5.418065e+002,1.458337e+001
5.427707e+002,1.366135e+001
5.437349e+002,1.406958e+001
5.446992e+002,1.643616e+001
5.456634e+002,1.993192e+001
5.466276e+002,2.168900e+001
5.475919e+002,1.980377e+001
5.485561e+002,1.846066e+001
5.495203e+002,1.808911e+001
5.504846e+002,1.811905e+001
5.514488e+002,1.776743e+001
5.524130e+002,1.674341e+001
5.533773e+002,1.563214e+001
5.543415e+002,1.481931e+001
5.553057e+002,1.407794e+001
5.562700e+002,1.296631e+001
5.572342e+002,1.120364e+001
5.581984e+002,9.394653e+000
5.591627e+002,9.272308e+000
5.601269e+002,1.037448e+001
5.610911e+002,1.187567e+001
5.620554e+002,1.337091e+001
5.630196e+002,1.468488e+001
5.639838e+002,1.475421e+001
5.649481e+002,1.221402e+001
5.659123e+002,1.043665e+001
5.668765e+002,1.099164e+001
5.678408e+002,1.298471e+001
5.688050e+002,1.344073e+001
5.697692e+002,9.537811e+000
5.707335e+002,6.435486e+000
5.716977e+002,6.414825e+000
5.726619e+002,7.974304e+000
5.736262e+002,8.989197e+000
5.745904e+002,7.966187e+000
5.755546e+002,6.300049e+000
5.765189e+002,6.154083e+000
5.774831e+002,6.807343e+000
5.784473e+002,7.238953e+000
5.794116e+002,6.827209e+000
5.803758e+002,5.771301e+000
5.813400e+002,5.220123e+000
5.823043e+002,5.358704e+000
5.832685e+002,4.768677e+000
5.842327e+002,2.388214e+000
5.851970e+002,-1.227814e+000
5.861612e+002,-3.124146e+000
5.871254e+002,-1.567596e+000
5.880897e+002,2.071533e-001
5.890539e+002,2.032867e+000
5.900181e+002,3.494537e+000
5.909824e+002,3.953400e+000
5.919466e+002,2.594421e+000
5.929108e+002,1.233429e+000
5.938751e+002,2.115723e+000
5.948393e+002,4.164429e+000
5.958035e+002,5.770416e+000
5.967678e+002,5.786621e+000
5.977320e+002,4.508545e+000
5.986962e+002,3.469055e+000
5.996605e+002,2.358978e+000
6.006247e+002,1.798889e+000
6.015889e+002,2.495148e+000
6.025532e+002,4.328888e+000
6.035174e+002,5.252502e+000
6.044816e+002,4.033508e+000
6.054459e+002,3.238770e+000
6.064101e+002,3.083801e+000
6.073743e+002,3.608582e+000
6.083386e+002,5.093231e+000
6.093028e+002,8.575745e+000
6.102670e+002,1.122778e+001
6.112313e+002,1.069135e+001
6.121955e+002,8.278870e+000
6.131597e+002,5.352600e+000
6.141240e+002,2.892059e+000
6.150882e+002,1.124359e+000
6.160524e+002,1.994354e+000
6.170167e+002,5.088409e+000
6.179809e+002,7.073120e+000
6.189451e+002,6.059509e+000
6.199094e+002,2.410156e+000
6.208736e+002,-4.450684e-001
6.218378e+002,-3.050781e+000
6.228021e+002,-3.594086e+000
6.237663e+002,-2.734375e-002
6.247305e+002,5.292084e+000
6.256948e+002,8.359894e+000
6.266590e+002,6.632538e+000
6.276232e+002,4.317688e+000
6.285875e+002,4.557556e+000
6.295517e+002,5.753906e+000
6.305159e+002,6.130219e+000
6.314802e+002,4.692200e+000
6.324444e+002,2.158112e+000
6.334086e+002,8.961487e-001
6.343729e+002,5.284119e-001
6.353371e+002,-7.551270e-001
6.363013e+002,-3.990631e+000
6.372656e+002,-8.168152e+000
6.382298e+002,-9.466553e+000
6.391940e+002,-4.080170e+000
6.401583e+002,-7.870483e-001
6.411225e+002,-5.523987e-001
6.420867e+002,-1.662537e+000
6.430510e+002,-2.190125e+000
6.440152e+002,-1.585083e+000
6.449794e+002,-1.268890e+000
6.459437e+002,-2.913147e+000
6.469079e+002,-4.475616e+000
6.478721e+002,-3.693787e+000
6.488364e+002,-9.146118e-002
6.498006e+002,4.064911e+000
6.507648e+002,4.106781e+000
6.517291e+002,1.508148e+000
6.526933e+002,-1.406250e-001
6.536575e+002,-1.777344e-001
6.546218e+002,9.375000e-001
6.555860e+002,2.468018e+000
6.565502e+002,5.480804e+000
6.575145e+002,6.167572e+000
6.584787e+002,3.027588e+000
6.594429e+002,-8.761292e-001
6.604072e+002,-3.256805e+000
6.613714e+002,-3.738251e+000
6.623356e+002,-3.475708e+000
6.632999e+002,-2.427643e+000
6.642641e+002,-1.510498e+000
6.652283e+002,-9.446106e-001
6.661926e+002,-7.958069e-001
6.671568e+002,-1.221100e+000
6.681210e+002,-2.910156e+000
6.690853e+002,-5.022736e+000
6.700495e+002,-5.108032e+000
6.710137e+002,-3.226471e+000
6.719780e+002,-9.132080e-001
6.729422e+002,1.786804e-001
6.739064e+002,-2.952881e-001
6.748707e+002,-3.962097e-001
6.758349e+002,2.060852e-001
6.767991e+002,6.244812e-001
6.777634e+002,4.933167e-001
6.787276e+002,-2.777100e-003
6.796918e+002,-2.001343e-001
6.806561e+002,6.347656e-002
6.816203e+002,4.862366e-001
6.825845e+002,1.504181e+000
6.835488e+002,2.503113e+000
6.845130e+002,2.346375e+000
6.854772e+002,6.207275e-002
6.864415e+002,-2.892700e+000
6.874057e+002,-3.404633e+000
6.883699e+002,-2.315796e+000
6.893342e+002,-1.055481e+000
6.902984e+002,-2.951050e-001
6.912626e+002,-6.124878e-002
6.922269e+002,-8.701172e-001
6.931911e+002,-4.664581e+000
6.941553e+002,-6.323364e+000
6.951196e+002,-4.101471e+000
6.960838e+002,-2.462463e-001
6.970480e+002,1.781494e+000
6.980123e+002,8.688354e-001
6.989765e+002,-7.600403e-001
6.999407e+002,-3.203094e+000
7.009050e+002,-5.142670e+000
7.018692e+002,-4.945526e+000
7.028334e+002,-2.396576e+000
7.037977e+002,4.466248e-001
7.047619e+002,-1.695251e-001
7.057261e+002,-2.540955e+000
7.066904e+002,-3.301086e+000
7.076546e+002,-1.928101e+000
7.086188e+002,4.260254e-001
7.095831e+002,2.040344e+000
7.105473e+002,3.001801e+000
7.115115e+002,2.247772e+000
7.124758e+002,-2.061340e+000
7.134400e+002,-6.024689e+000
7.144042e+002,-6.862274e+000
7.153685e+002,-4.495117e+000
7.163327e+002,-2.306763e+000
7.172969e+002,-1.861572e+000
7.182612e+002,-1.876312e+000
7.192254e+002,-2.262848e+000
7.201896e+002,-2.770660e+000
7.211539e+002,-3.001465e+000
7.221181e+002,-2.557068e+000
7.230823e+002,-1.770111e+000
7.240466e+002,-1.547150e+000
7.250108e+002,-1.651825e+000
7.259750e+002,-1.694244e+000
7.269393e+002,-1.541565e+000
7.279035e+002,-1.434967e+000
7.288677e+002,-2.014771e+000
7.298320e+002,-4.343384e+000
7.307962e+002,-5.331787e+000
7.317604e+002,-4.114166e+000
7.327247e+002,-1.662292e+000
7.336889e+002,6.812134e-001
7.346531e+002,2.446808e+000
7.356174e+002,3.503906e+000
7.365816e+002,4.911316e+000
7.375458e+002,5.546875e+000
7.385101e+002,3.477844e+000
7.394743e+002,-1.122406e+000
7.404385e+002,-5.432800e+000
7.414028e+002,-4.737701e+000
7.423670e+002,-4.040833e-001
7.433312e+002,2.146057e+000
7.442955e+002,2.793182e+000
7.452597e+002,2.256134e+000
7.462239e+002,8.855591e-001
7.471882e+002,-1.969238e+000
7.481524e+002,-3.000763e+000
7.491166e+002,-1.422058e+000
7.500809e+002,2.522583e-001
7.510451e+002,1.407684e+000
7.520093e+002,1.930389e+000
7.529736e+002,1.714142e+000
7.539378e+002,3.828430e-001
7.549020e+002,-8.014526e-001
7.558663e+002,-1.054230e+000
7.568306e+002,-7.328796e-001
7.577948e+002,-4.741516e-001
7.587590e+002,-6.820374e-001
7.597233e+002,-1.055756e+000
7.606875e+002,1.367188e-002
7.616517e+002,2.409485e+000
7.626160e+002,3.963318e+000
7.635802e+002,3.990234e+000
7.645444e+002,3.091034e+000
7.655087e+002,2.309479e+000
7.664729e+002,1.094879e+000
7.674371e+002,1.293945e+000
7.684014e+002,4.870056e+000
7.693656e+002,7.936127e+000
7.703298e+002,7.261749e+000
7.712941e+002,2.898834e+000
7.722583e+002,-8.648987e-001
7.732225e+002,5.804443e-002
7.741868e+002,1.923767e+000
7.751510e+002,1.636932e+000
7.761152e+002,-2.818298e-001
7.770795e+002,-2.003784e+000
7.780437e+002,-1.928802e+000
7.790079e+002,-4.092712e-001
7.799722e+002,-4.440002e-001
7.809364e+002,-2.305481e+000
7.819006e+002,-3.294464e+000
7.828649e+002,-1.385590e+000
7.838291e+002,2.377869e+000
7.847933e+002,4.064209e+000
7.857576e+002,1.625122e+000
7.867218e+002,-1.788940e-001
7.876860e+002,2.851257e-001
7.886503e+002,1.369446e+000
7.896145e+002,1.475006e+000
7.905787e+002,2.563477e-001
7.915430e+002,-8.302917e-001
7.925072e+002,-3.278503e-001
7.934714e+002,1.035675e+000
7.944357e+002,3.541107e+000
7.953999e+002,6.749115e+000
7.963641e+002,8.680206e+000
7.973284e+002,6.904663e+000
7.982926e+002,1.084045e+000
7.992568e+002,-1.750061e+000
8.002211e+002,-1.087067e+000
8.011853e+002,-4.852295e-002
8.021495e+002,1.010162e+000
8.031138e+002,2.062775e+000
8.040780e+002,2.123627e+000
8.050422e+002,-4.257507e-001
8.060065e+002,-2.026428e+000
8.069707e+002,-1.483307e+000
8.079349e+002,1.674500e-001
8.088992e+002,2.241516e+000
8.098634e+002,4.439819e+000
8.108276e+002,6.585144e+000
8.117919e+002,8.651367e+000
8.127561e+002,9.867188e+000
8.137203e+002,8.790710e+000
8.146846e+002,5.491241e+000
8.156488e+002,1.838013e+000
8.166130e+002,8.972168e-003
8.175773e+002,2.423706e-001
8.185415e+002,6.175842e-001
8.195057e+002,1.007629e+000
8.204700e+002,1.360291e+000
8.214342e+002,1.684601e+000
8.223984e+002,1.966125e+000
8.233627e+002,2.220917e+000
8.243269e+002,2.660370e+000
8.252911e+002,2.746185e+000
8.262554e+002,1.607300e+000
8.272196e+002,3.248901e-001
8.281838e+002,6.283569e-002
8.291481e+002,1.186340e+000
8.301123e+002,3.166595e+000
8.310765e+002,5.442078e+000
8.320408e+002,7.642639e+000
8.330050e+002,7.297516e+000
8.339692e+002,3.696381e+000
8.349335e+002,-5.318909e-001
8.358977e+002,-2.701965e+000
8.368619e+002,-2.514160e+000
8.378262e+002,-1.829315e+000
8.387904e+002,-3.629456e-001
8.397546e+002,9.285278e-001
8.407189e+002,1.711945e+000
8.416831e+002,2.220398e+000
8.426473e+002,3.086212e+000
8.436116e+002,4.817474e+000
8.445758e+002,6.061890e+000
8.455400e+002,4.035370e+000
8.465043e+002,1.058197e+000
8.474685e+002,3.752136e-001
8.484327e+002,2.777161e+000
8.493970e+002,6.354340e+000
8.503612e+002,7.684265e+000
8.513254e+002,6.226074e+000
8.522897e+002,5.424225e+000
8.532539e+002,5.429871e+000
8.542181e+002,5.580872e+000
8.551824e+002,5.665649e+000
8.561466e+002,5.860840e+000
8.571108e+002,6.308868e+000
8.580751e+002,6.560944e+000
8.590393e+002,6.929810e+000
8.600035e+002,7.492554e+000
8.609678e+002,8.495728e+000
8.619320e+002,1.069690e+001
8.628962e+002,1.418622e+001
8.638605e+002,1.715659e+001
8.648247e+002,1.602368e+001
8.657889e+002,1.251456e+001
8.667532e+002,1.023044e+001
8.677174e+002,9.648102e+000
8.686816e+002,1.029605e+001
8.696459e+002,1.187070e+001
8.706101e+002,1.467490e+001
8.715743e+002,1.669208e+001
8.725386e+002,1.761139e+001
8.735028e+002,1.827805e+001
8.744670e+002,1.889288e+001
8.754313e+002,1.915610e+001
8.763955e+002,1.843579e+001
8.773597e+002,1.623761e+001
8.783240e+002,1.439758e+001
8.792882e+002,1.423230e+001
8.802524e+002,1.482199e+001
8.812167e+002,1.541956e+001
8.821809e+002,1.591193e+001
8.831451e+002,1.680484e+001
8.841094e+002,1.884204e+001
8.850736e+002,2.205762e+001
8.860378e+002,2.447849e+001
8.870021e+002,2.603748e+001
8.879663e+002,2.693005e+001
8.889305e+002,2.732825e+001
8.898948e+002,2.707693e+001
8.908590e+002,2.545978e+001
8.918232e+002,2.087781e+001
8.927875e+002,1.785632e+001
8.937517e+002,1.783698e+001
8.947159e+002,1.918228e+001
8.956802e+002,2.064465e+001
8.966444e+002,2.175293e+001
8.976086e+002,2.269693e+001
8.985729e+002,2.407959e+001
8.995371e+002,2.529996e+001
9.005013e+002,2.476523e+001
9.014656e+002,2.293991e+001
9.024298e+002,2.186072e+001
9.033940e+002,2.307401e+001
9.043583e+002,2.607489e+001
9.053225e+002,2.782425e+001
9.062867e+002,2.718573e+001
9.072510e+002,2.638324e+001
9.082152e+002,2.525598e+001
9.091794e+002,2.448407e+001
9.101437e+002,2.474176e+001
9.111079e+002,2.612463e+001
9.120721e+002,2.796173e+001
9.130364e+002,3.098694e+001
9.140006e+002,3.302151e+001
9.149648e+002,3.208865e+001
9.159291e+002,2.940155e+001
9.168933e+002,2.743784e+001
9.178575e+002,2.784222e+001
9.188218e+002,2.965787e+001
9.197860e+002,2.975836e+001
9.207502e+002,2.802148e+001
9.217145e+002,2.690802e+001
9.226787e+002,2.789169e+001
9.236429e+002,2.912378e+001
9.246072e+002,2.738123e+001
9.255714e+002,2.158319e+001
9.265356e+002,1.788272e+001
9.274999e+002,1.867996e+001
9.284641e+002,2.005261e+001
9.294283e+002,2.143625e+001
9.303926e+002,2.238705e+001
9.313568e+002,2.222034e+001
9.323210e+002,2.048645e+001
9.332853e+002,1.843460e+001
9.342495e+002,1.848843e+001
9.352137e+002,1.947757e+001
9.361780e+002,1.983475e+001
9.371422e+002,1.933026e+001
9.381064e+002,1.842126e+001
9.390707e+002,1.748633e+001
9.400349e+002,1.624808e+001
9.409991e+002,1.572720e+001
9.419634e+002,1.644101e+001
9.429276e+002,1.702060e+001
9.438918e+002,1.705591e+001
9.448561e+002,1.681644e+001
9.458203e+002,1.685956e+001
9.467845e+002,1.747888e+001
9.477488e+002,1.794012e+001
9.487130e+002,1.698679e+001
9.496772e+002,1.606683e+001
9.506415e+002,1.677924e+001
9.516057e+002,1.884540e+001
9.525699e+002,2.057471e+001
9.535342e+002,2.028348e+001
9.544984e+002,1.817578e+001
9.554626e+002,1.631610e+001
9.564269e+002,1.444720e+001
9.573911e+002,1.444659e+001
9.583553e+002,1.859341e+001
9.593196e+002,2.404214e+001
9.602838e+002,2.569864e+001
9.612480e+002,2.225107e+001
9.622123e+002,1.951346e+001
9.631765e+002,1.995950e+001
9.641407e+002,2.078012e+001
9.651050e+002,2.057144e+001
9.660692e+002,1.959073e+001
9.670334e+002,1.898111e+001
9.679977e+002,1.956461e+001
9.689619e+002,2.060068e+001
9.699261e+002,1.958157e+001
9.708904e+002,1.725266e+001
9.718546e+002,1.633218e+001
9.728188e+002,1.748679e+001
9.737831e+002,1.958841e+001
9.747473e+002,2.132013e+001
9.757115e+002,2.270950e+001
9.766758e+002,2.385980e+001
9.776400e+002,2.508920e+001
9.786042e+002,2.595978e+001
9.795685e+002,2.616476e+001
9.805327e+002,2.580212e+001
9.814969e+002,2.496881e+001
9.824612e+002,2.379370e+001
9.834254e+002,2.296027e+001
9.843896e+002,2.378677e+001
9.853539e+002,2.459476e+001
9.863181e+002,2.345218e+001
9.872823e+002,2.033578e+001
9.882466e+002,1.611765e+001
9.892108e+002,1.160297e+001
9.901750e+002,7.347992e+000
9.911393e+002,6.081909e+000
9.921035e+002,9.382843e+000
9.930677e+002,1.247299e+001
9.940320e+002,1.574033e+001
9.949962e+002,1.862839e+001
9.959604e+002,2.051538e+001
9.969247e+002,2.141351e+001
9.978889e+002,2.195541e+001
9.988531e+002,2.213708e+001
9.998174e+002,2.183182e+001
1.000782e+003,2.024039e+001
1.001746e+003,1.867816e+001
1.002710e+003,1.957944e+001
1.003674e+003,2.360608e+001
1.004639e+003,2.810037e+001
1.005603e+003,2.811325e+001
1.006567e+003,2.306238e+001
1.007531e+003,2.125717e+001
1.008495e+003,2.398068e+001
1.009460e+003,2.721216e+001
1.010424e+003,2.912265e+001
1.011388e+003,2.974670e+001
1.012352e+003,2.867068e+001
1.013317e+003,2.408267e+001
1.014281e+003,2.127209e+001
1.015245e+003,2.300046e+001
1.016209e+003,2.553439e+001
1.017174e+003,2.659763e+001
1.018138e+003,2.578995e+001
1.019102e+003,2.358994e+001
1.020066e+003,2.020010e+001
1.021031e+003,1.655774e+001
1.021995e+003,1.572516e+001
1.022959e+003,1.688510e+001
1.023923e+003,1.659012e+001
1.024887e+003,1.317896e+001
1.025852e+003,8.673035e+000
1.026816e+003,6.451843e+000
1.027780e+003,7.164185e+000
1.028744e+003,7.713623e+000
1.029709e+003,7.970062e+000
1.030673e+003,7.856750e+000
1.031637e+003,7.174377e+000
1.032601e+003,6.072968e+000
1.033566e+003,4.590179e+000
1.034530e+003,2.821625e+000
1.035494e+003,1.587036e+000
1.036458e+003,2.269501e+000
1.037422e+003,3.647247e+000
1.038387e+003,3.486084e+000
1.039351e+003,1.843842e+000
1.040315e+003,3.107910e-001
1.041279e+003,1.150818e-001
1.042244e+003,1.100494e+000
1.043208e+003,2.236053e+000
1.044172e+003,3.704285e+000
1.045136e+003,4.635254e+000
1.046101e+003,5.168549e+000
1.047065e+003,5.217987e+000
1.048029e+003,4.123596e+000
1.048993e+003,2.348236e+000
1.049958e+003,1.755035e+000
1.050922e+003,3.797272e+000
1.051886e+003,6.015808e+000
1.052850e+003,5.705200e+000
1.053814e+003,4.092285e+000
1.054779e+003,2.425140e+000
1.055743e+003,1.088593e+000
1.056707e+003,1.590881e-001
1.057671e+003,-2.841187e-001
1.058636e+003,-2.702332e-001
1.059600e+003,6.479797e-001
1.060564e+003,4.602966e+000
1.061528e+003,6.747864e+000
1.062493e+003,4.539124e+000
1.063457e+003,1.146454e+000
1.064421e+003,4.545898e-001
1.065385e+003,2.911102e+000
1.066349e+003,5.124939e+000
1.067314e+003,5.489471e+000
1.068278e+003,4.916992e+000
1.069242e+003,3.473358e+000
1.070206e+003,1.906403e+000
1.071171e+003,1.375488e+000
1.072135e+003,2.222595e+000
1.073099e+003,3.560333e+000
1.074063e+003,3.993042e+000
1.075028e+003,3.456085e+000
1.075992e+003,3.643677e+000
1.076956e+003,4.817047e+000
1.077920e+003,5.874115e+000
1.078885e+003,6.913605e+000
1.079849e+003,7.626862e+000
1.080813e+003,6.996796e+000
1.081777e+003,4.543060e+000
1.082741e+003,2.822571e+000
1.083706e+003,3.547028e+000
1.084670e+003,4.716125e+000
1.085634e+003,5.671906e+000
1.086598e+003,6.155548e+000
1.087563e+003,5.970154e+000
1.088527e+003,5.098022e+000
1.089491e+003,3.769470e+000
1.090455e+003,2.025635e+000
1.091420e+003,-3.248291e-001
1.092384e+003,-7.088928e-001
1.093348e+003,2.135712e+000
1.094312e+003,4.387634e+000
1.095276e+003,3.217621e+000
1.096241e+003,-4.153442e-002
1.097205e+003,-1.464905e+000
1.098169e+003,-1.379089e-001
1.099133e+003,1.316864e+000
1.100098e+003,2.011505e+000
1.101062e+003,2.558197e+000
1.102026e+003,3.552063e+000
1.102990e+003,4.719635e+000
1.103955e+003,5.293884e+000
1.104919e+003,4.784546e+000
1.105883e+003,3.503876e+000
1.106847e+003,1.919312e+000
1.107812e+003,8.404541e-002
1.108776e+003,1.714783e-001
1.109740e+003,3.307770e+000
1.110704e+003,6.229675e+000
1.111668e+003,6.020477e+000
1.112633e+003,3.712433e+000
1.113597e+003,3.742462e+000
1.114561e+003,7.952148e+000
1.115525e+003,1.077023e+001
1.116490e+003,9.471954e+000
1.117454e+003,7.357025e+000
1.118418e+003,6.350739e+000
1.119382e+003,6.595581e+000
1.120347e+003,7.362213e+000
1.121311e+003,8.080139e+000
1.122275e+003,8.794891e+000
1.123239e+003,1.032352e+001
1.124203e+003,1.265512e+001
1.125168e+003,1.330948e+001
1.126132e+003,1.157678e+001
1.127096e+003,9.661865e+000
1.128060e+003,9.223785e+000
1.129025e+003,9.903198e+000
1.129989e+003,1.017691e+001
1.130953e+003,9.431427e+000
1.131917e+003,9.347839e+000
1.132882e+003,1.065051e+001
1.133846e+003,1.248502e+001
1.134810e+003,1.478476e+001
1.135774e+003,1.714725e+001
1.136739e+003,1.876639e+001
1.137703e+003,1.919830e+001
1.138667e+003,1.923999e+001
1.139631e+003,2.038770e+001
1.140595e+003,2.249570e+001
1.141560e+003,2.426450e+001
1.142524e+003,2.558691e+001
1.143488e+003,2.721674e+001
1.144452e+003,2.923062e+001
1.145417e+003,3.188040e+001
1.146381e+003,3.641776e+001
1.147345e+003,4.382843e+001
1.148309e+003,5.035406e+001
1.149274e+003,5.437177e+001
1.150238e+003,5.822388e+001
1.151202e+003,6.288022e+001
1.152166e+003,6.848553e+001
1.153130e+003,7.533664e+001
1.154095e+003,8.326459e+001
1.155059e+003,9.050653e+001
1.156023e+003,9.471124e+001
1.156987e+003,9.608578e+001
1.157952e+003,9.700769e+001
1.158916e+003,9.784818e+001
1.159880e+003,9.792197e+001
1.160844e+003,9.715344e+001
1.161809e+003,9.475598e+001
1.162773e+003,8.887445e+001
1.163737e+003,7.861859e+001
1.164701e+003,6.901950e+001
1.165666e+003,6.154678e+001
1.166630e+003,5.500409e+001
1.167594e+003,4.888431e+001
1.168558e+003,4.342984e+001
1.169522e+003,3.906229e+001
1.170487e+003,3.589685e+001
1.171451e+003,3.380405e+001
1.172415e+003,3.268170e+001
1.173379e+003,3.235733e+001
1.174344e+003,3.206851e+001
1.175308e+003,3.180957e+001
1.176272e+003,3.205115e+001
1.177236e+003,3.410742e+001
1.178201e+003,3.595963e+001
1.179165e+003,3.429547e+001
1.180129e+003,2.894449e+001
1.181093e+003,2.473260e+001
1.182057e+003,2.264059e+001
1.183022e+003,2.212213e+001
1.183986e+003,2.452780e+001
1.184950e+003,2.711978e+001
1.185914e+003,2.690894e+001
1.186879e+003,2.407324e+001
1.187843e+003,2.119376e+001
1.188807e+003,2.032208e+001
1.189771e+003,2.079721e+001
1.190736e+003,2.079575e+001
1.191700e+003,2.018884e+001
1.192664e+003,2.044128e+001
1.193628e+003,2.268594e+001
1.194593e+003,2.469168e+001
1.195557e+003,2.471890e+001
1.196521e+003,2.316357e+001
1.197485e+003,2.150461e+001
1.198449e+003,2.006714e+001
1.199414e+003,1.827039e+001
1.200378e+003,1.415405e+001
1.201342e+003,1.114203e+001
1.202306e+003,1.224805e+001
1.203271e+003,1.603250e+001
1.204235e+003,1.976013e+001
1.205199e+003,2.189194e+001
1.206163e+003,2.206589e+001
1.207128e+003,1.933658e+001
1.208092e+003,1.348462e+001
1.209056e+003,1.055289e+001
1.210020e+003,1.224408e+001
1.210984e+003,1.295654e+001
1.211949e+003,1.025159e+001
1.212913e+003,6.172791e+000
1.213877e+003,3.388855e+000
1.214841e+003,2.108063e+000
1.215806e+003,8.743286e-001
1.216770e+003,-1.268250e+000
1.217734e+003,-2.890411e+000
1.218698e+003,-2.432007e+000
1.219663e+003,-1.444885e+000
1.220627e+003,-2.163055e+000
1.221591e+003,-4.655762e+000
1.222555e+003,-6.912323e+000
1.223520e+003,-7.017303e+000
1.224484e+003,-5.455872e+000
1.225448e+003,-4.857117e+000
1.226412e+003,-5.998352e+000
1.227376e+003,-6.458923e+000
1.228341e+003,-5.588593e+000
1.229305e+003,-4.893036e+000
1.230269e+003,-5.381714e+000
1.231233e+003,-6.587646e+000
1.232198e+003,-7.514038e+000
1.233162e+003,-7.847351e+000
1.234126e+003,-7.753357e+000
1.235090e+003,-7.118256e+000
1.236055e+003,-6.530457e+000
1.237019e+003,-6.382538e+000
1.237983e+003,-6.818817e+000
1.238947e+003,-8.290649e+000
1.239911e+003,-1.089145e+001
1.240876e+003,-1.350665e+001
1.241840e+003,-1.461945e+001
1.242804e+003,-1.420706e+001
1.243768e+003,-1.267419e+001
1.244733e+003,-7.776978e+000
1.245697e+003,-4.807709e+000
1.246661e+003,-6.044861e+000
1.247625e+003,-7.903473e+000
1.248590e+003,-7.313019e+000
1.249554e+003,-4.755798e+000
1.250518e+003,-2.715302e+000
1.251482e+003,-2.370514e+000
1.252447e+003,-3.039337e+000
1.253411e+003,-4.076111e+000
1.254375e+003,-5.270172e+000
1.255339e+003,-6.457489e+000
1.256303e+003,-7.532623e+000
1.257268e+003,-7.955383e+000
1.258232e+003,-7.385468e+000
1.259196e+003,-6.367889e+000
1.260160e+003,-5.821320e+000
1.261125e+003,-5.738190e+000
1.262089e+003,-5.396820e+000
1.263053e+003,-4.778748e+000
1.264017e+003,-4.086517e+000
1.264982e+003,-3.025452e+000
1.265946e+003,-2.055634e+000
1.266910e+003,-1.887848e+000
1.267874e+003,-2.277802e+000
1.268839e+003,-2.032043e+000
1.269803e+003,-3.345947e-001
1.270767e+003,1.774200e+000
1.271731e+003,2.179047e+000
1.272695e+003,9.779968e-001
1.273660e+003,3.791199e-001
1.274624e+003,6.263733e-001
1.275588e+003,3.517761e-001
1.276552e+003,-1.181824e+000
1.277517e+003,-3.466492e+000
1.278481e+003,-6.028076e+000
1.279445e+003,-8.980774e+000
1.280409e+003,-1.090109e+001
1.281374e+003,-1.110461e+001
1.282338e+003,-1.030746e+001
1.283302e+003,-7.947418e+000
1.284266e+003,-5.504639e+000
1.285230e+003,-4.843048e+000
1.286195e+003,-6.022156e+000
1.287159e+003,-7.611816e+000
1.288123e+003,-8.382141e+000
1.289087e+003,-8.504089e+000
1.290052e+003,-8.796783e+000
1.291016e+003,-9.675476e+000
1.291980e+003,-9.471649e+000
1.292944e+003,-7.419250e+000
1.293909e+003,-5.625702e+000
1.294873e+003,-4.611267e+000
1.295837e+003,-4.259705e+000
1.296801e+003,-4.606476e+000
1.297766e+003,-5.590759e+000
1.298730e+003,-6.714264e+000
1.299694e+003,-7.863037e+000
1.300658e+003,-9.002533e+000
1.301622e+003,-1.017508e+001
1.302587e+003,-1.117599e+001
1.303551e+003,-1.164053e+001
1.304515e+003,-1.149481e+001
1.305479e+003,-1.112720e+001
1.306444e+003,-1.095853e+001
1.307408e+003,-1.085443e+001
1.308372e+003,-1.007788e+001
1.309336e+003,-8.284851e+000
1.310301e+003,-6.924042e+000
1.311265e+003,-5.834534e+000
1.312229e+003,-5.304047e+000
1.313193e+003,-5.926758e+000
1.314157e+003,-6.891205e+000
1.315122e+003,-7.370209e+000
1.316086e+003,-7.321625e+000
1.317050e+003,-7.135376e+000
1.318014e+003,-6.972443e+000
1.318979e+003,-7.042633e+000
1.319943e+003,-8.124420e+000
1.320907e+003,-9.919556e+000
1.321871e+003,-1.033572e+001
1.322836e+003,-9.145966e+000
1.323800e+003,-7.753143e+000
1.324764e+003,-6.911530e+000
1.325728e+003,-6.266632e+000
1.326693e+003,-5.217896e+000
1.327657e+003,-3.817169e+000
1.328621e+003,-2.590973e+000
1.329585e+003,-1.165497e+000
1.330549e+003,-3.689575e-002
1.331514e+003,3.363037e-001
1.332478e+003,-4.360962e-002
1.333442e+003,-1.493683e+000
1.334406e+003,-3.527863e+000
1.335371e+003,-4.908112e+000
1.336335e+003,-4.916382e+000
1.337299e+003,-4.285645e+000
1.338263e+003,-4.476318e+000
1.339228e+003,-5.610474e+000
1.340192e+003,-6.367737e+000
1.341156e+003,-7.116974e+000
1.342120e+003,-7.008514e+000
1.343084e+003,-4.752380e+000
1.344049e+003,-2.877380e+000
1.345013e+003,-3.939880e+000
1.345977e+003,-6.993500e+000
1.346941e+003,-8.965027e+000
1.347906e+003,-8.736115e+000
1.348870e+003,-7.897278e+000
1.349834e+003,-7.978668e+000
1.350798e+003,-8.449829e+000
1.351763e+003,-7.837128e+000
1.352727e+003,-6.393280e+000
1.353691e+003,-6.062836e+000
1.354655e+003,-7.907898e+000
1.355620e+003,-9.757141e+000
1.356584e+003,-8.367828e+000
1.357548e+003,-4.238251e+000
1.358512e+003,-2.517883e+000
1.359476e+003,-4.580933e+000
1.360441e+003,-6.375092e+000
1.361405e+003,-7.190002e+000
1.362369e+003,-7.037262e+000
1.363333e+003,-4.774048e+000
1.364298e+003,-2.065735e+000
1.365262e+003,-1.550140e+000
1.366226e+003,-3.476410e+000
1.367190e+003,-5.398071e+000
1.368155e+003,-5.121063e+000
1.369119e+003,-3.403137e+000
1.370083e+003,-2.611359e+000
1.371047e+003,-2.988281e+000
1.372011e+003,-2.987335e+000
1.372976e+003,-2.014923e+000
1.373940e+003,-1.758942e+000
1.374904e+003,-3.780640e+000
1.375868e+003,-6.128815e+000
1.376833e+003,-5.772461e+000
1.377797e+003,-3.000214e+000
1.378761e+003,-1.615814e+000
1.379725e+003,-3.517426e+000
1.380690e+003,-6.163025e+000
1.381654e+003,-7.228516e+000
1.382618e+003,-7.185608e+000
1.383582e+003,-6.377441e+000
1.384547e+003,-4.972809e+000
1.385511e+003,-3.698273e+000
1.386475e+003,-2.972137e+000
1.387439e+003,-2.600250e+000
1.388403e+003,-2.109497e+000
1.389368e+003,-1.518066e+000
1.390332e+003,-2.046356e+000
1.391296e+003,-4.827881e+000
1.392260e+003,-6.271362e+000
1.393225e+003,-4.892120e+000
1.394189e+003,-2.937042e+000
1.395153e+003,-1.007019e+000
1.396117e+003,3.736572e-001
1.397082e+003,4.815674e-001
1.398046e+003,-6.662292e-001
1.399010e+003,-2.185547e+000
1.399974e+003,-3.358582e+000
1.400938e+003,-4.397369e+000
1.401903e+003,-5.573517e+000
1.402867e+003,-6.780548e+000
1.403831e+003,-6.649750e+000
1.404795e+003,-3.963043e+000
1.405760e+003,-1.981567e+000
1.406724e+003,-2.950836e+000
1.407688e+003,-4.883270e+000
1.408652e+003,-5.041870e+000
1.409617e+003,-3.379089e+000
1.410581e+003,-1.725037e+000
1.411545e+003,-7.449036e-001
1.412509e+003,-2.798462e-001
1.413474e+003,-7.996826e-001
1.414438e+003,-1.588593e+000
1.415402e+003,-7.406921e-001
1.416366e+003,1.497772e+000
1.417330e+003,2.767761e+000
1.418295e+003,2.100952e+000
1.419259e+003,3.923035e-001
1.420223e+003,-2.026672e+000
1.421187e+003,-4.896729e+000
1.422152e+003,-5.722321e+000
1.423116e+003,-3.459808e+000
1.424080e+003,-1.937073e+000
1.425044e+003,-3.942657e+000
1.426009e+003,-5.244934e+000
1.426973e+003,-3.261261e+000
1.427937e+003,-1.100464e-001
1.428901e+003,1.903412e+000
1.429865e+003,2.429474e+000
1.430830e+003,2.022186e+000
1.431794e+003,1.026489e+000
1.432758e+003,-1.097107e-001
1.433722e+003,-3.239441e-001
1.434687e+003,6.206360e-001
1.435651e+003,2.114380e+000
1.436615e+003,4.502563e+000
1.437579e+003,5.960938e+000
1.438544e+003,5.354492e+000
1.439508e+003,4.885681e+000
1.440472e+003,7.025238e+000
1.441436e+003,1.021298e+001
1.442401e+003,1.106970e+001
1.443365e+003,8.870850e+000
1.444329e+003,5.802948e+000
1.445293e+003,3.296600e+000
1.446257e+003,1.535309e+000
1.447222e+003,1.139374e+000
1.448186e+003,1.806915e+000
1.449150e+003,1.930817e+000
1.450114e+003,1.087311e+000
1.451079e+003,6.779175e-001
1.452043e+003,2.166901e+000
1.453007e+003,4.152191e+000
1.453971e+003,4.380981e+000
1.454936e+003,3.024536e+000
1.455900e+003,2.066772e+000
1.456864e+003,2.078613e+000
1.457828e+003,2.204651e+000
1.458792e+003,1.482758e+000
1.459757e+003,9.407349e-001
1.460721e+003,2.090881e+000
1.461685e+003,3.895447e+000
1.462649e+003,3.987335e+000
1.463614e+003,1.958374e+000
1.464578e+003,-6.161499e-002
1.465542e+003,-1.908264e-001
1.466506e+003,8.605347e-001
1.467471e+003,1.148499e+000
1.468435e+003,6.441650e-001
1.469399e+003,3.383179e-001
1.470363e+003,-3.910828e-001
1.471328e+003,-2.444153e-001
1.472292e+003,2.168121e+000
1.473256e+003,4.201935e+000
1.474220e+003,3.620911e+000
1.475184e+003,1.609070e+000
1.476149e+003,4.783630e-001
1.477113e+003,9.148560e-001
1.478077e+003,1.976379e+000
1.479041e+003,2.889069e+000
1.480006e+003,3.717712e+000
1.480970e+003,4.358643e+000
1.481934e+003,4.665436e+000
1.482898e+003,4.715332e+000
1.483863e+003,4.079071e+000
1.484827e+003,3.751221e+000
1.485791e+003,4.153534e+000
1.486755e+003,5.070343e+000
1.487719e+003,6.618591e+000
1.488684e+003,8.301453e+000
1.489648e+003,8.728088e+000
1.490612e+003,7.609802e+000
1.491576e+003,7.464447e+000
1.492541e+003,1.078735e+001
1.493505e+003,1.546756e+001
1.494469e+003,1.659567e+001
1.495433e+003,1.463089e+001
1.496398e+003,1.300754e+001
1.497362e+003,1.220935e+001
1.498326e+003,1.224854e+001
1.499290e+003,1.310385e+001
1.500255e+003,1.477414e+001
1.501219e+003,1.774066e+001
1.502183e+003,2.159558e+001
1.503147e+003,2.401532e+001
1.504111e+003,2.408328e+001
1.505076e+003,2.484341e+001
1.506040e+003,2.849753e+001
1.507004e+003,3.326147e+001
1.507968e+003,3.724438e+001
1.508933e+003,4.091071e+001
1.509897e+003,4.525742e+001
1.510861e+003,5.066669e+001
1.511825e+003,5.694183e+001
1.512790e+003,6.397220e+001
1.513754e+003,7.124142e+001
1.514718e+003,7.751129e+001
1.515682e+003,8.267920e+001
1.516646e+003,9.030231e+001
1.517611e+003,1.024637e+002
1.518575e+003,1.131297e+002
1.519539e+003,1.199437e+002
1.520503e+003,1.255432e+002
1.521468e+003,1.313278e+002
1.522432e+003,1.365976e+002
1.523396e+003,1.403864e+002
1.524360e+003,1.424734e+002
1.525325e+003,1.432822e+002
1.526289e+003,1.431245e+002
1.527253e+003,1.416411e+002
1.528217e+003,1.379779e+002
1.529182e+003,1.322170e+002
1.530146e+003,1.268076e+002
1.531110e+003,1.231886e+002
1.532074e+003,1.168804e+002
1.533039e+003,1.055930e+002
1.534003e+003,9.354520e+001
1.534967e+003,8.256055e+001
1.535931e+003,7.241043e+001
1.536896e+003,6.250839e+001
1.537860e+003,5.292545e+001
1.538824e+003,4.369458e+001
1.539788e+003,3.489685e+001
1.540752e+003,2.794803e+001
1.541717e+003,2.497995e+001
1.542681e+003,2.533517e+001
1.543645e+003,2.422183e+001
1.544609e+003,2.108347e+001
1.545573e+003,1.823117e+001
1.546538e+003,1.523596e+001
1.547502e+003,1.264807e+001
1.548466e+003,1.084744e+001
1.549430e+003,9.768005e+000
1.550395e+003,9.337402e+000
1.551359e+003,9.353668e+000
1.552323e+003,9.541168e+000
1.553287e+003,9.820190e+000
1.554252e+003,1.033124e+001
1.555216e+003,1.127216e+001
1.556180e+003,1.224252e+001
1.557144e+003,1.226276e+001
1.558109e+003,1.134506e+001
1.559073e+003,1.054172e+001
1.560037e+003,9.808868e+000
1.561001e+003,8.848114e+000
1.561966e+003,7.531891e+000
1.562930e+003,6.370209e+000
1.563894e+003,5.504822e+000
1.564858e+003,5.054871e+000
1.565823e+003,5.762207e+000
1.566787e+003,7.612000e+000
1.567751e+003,8.426819e+000
1.568715e+003,6.737457e+000
1.569679e+003,4.441437e+000
1.570644e+003,3.648834e+000
1.571608e+003,4.067108e+000
1.572572e+003,5.421997e+000
1.573536e+003,7.849274e+000
1.574500e+003,9.000916e+000
1.575465e+003,7.206177e+000
1.576429e+003,5.222778e+000
1.577393e+003,5.548279e+000
1.578357e+003,7.024597e+000
1.579322e+003,7.480042e+000
1.580286e+003,6.860748e+000
1.581250e+003,6.126953e+000
1.582214e+003,5.466980e+000
1.583179e+003,5.103241e+000
1.584143e+003,5.252869e+000
1.585107e+003,5.604126e+000
1.586071e+003,6.130798e+000
1.587036e+003,6.777588e+000
1.588000e+003,6.618042e+000
1.588964e+003,5.254456e+000
1.589928e+003,4.542419e+000
1.590893e+003,6.161804e+000
1.591857e+003,8.732178e+000
1.592821e+003,1.036737e+001
1.593785e+003,1.114081e+001
1.594750e+003,1.111694e+001
1.595714e+003,1.001395e+001
1.596678e+003,9.613556e+000
1.597642e+003,1.129102e+001
1.598606e+003,1.293698e+001
1.599571e+003,1.234940e+001
1.600535e+003,1.112967e+001
1.601499e+003,1.190515e+001
1.602463e+003,1.418896e+001
1.603427e+003,1.447339e+001
1.604392e+003,1.106348e+001
1.605356e+003,7.605377e+000
1.606320e+003,8.250763e+000
1.607284e+003,1.155945e+001
1.608249e+003,1.330029e+001
1.609213e+003,1.340094e+001
1.610177e+003,1.413043e+001
1.611141e+003,1.639545e+001
1.612106e+003,1.798459e+001
1.613070e+003,1.745319e+001
1.614034e+003,1.612640e+001
1.614998e+003,1.477655e+001
1.615963e+003,1.337137e+001
1.616927e+003,1.140759e+001
1.617891e+003,9.009216e+000
1.618855e+003,7.498016e+000
1.619820e+003,7.617188e+000
1.620784e+003,8.741943e+000
1.621748e+003,1.085361e+001
1.622712e+003,1.374020e+001
1.623677e+003,1.444489e+001
1.624641e+003,1.246136e+001
1.625605e+003,1.133011e+001
1.626569e+003,1.203229e+001
1.627533e+003,1.256854e+001
1.628498e+003,1.224423e+001
1.629462e+003,1.144882e+001
1.630426e+003,9.824890e+000
1.631390e+003,8.093750e+000
1.632354e+003,7.989319e+000
1.633319e+003,9.742493e+000
1.634283e+003,1.148056e+001
1.635247e+003,1.178674e+001
1.636211e+003,1.130133e+001
1.637176e+003,1.122513e+001
1.638140e+003,1.158801e+001
1.639104e+003,1.195911e+001
1.640068e+003,1.242667e+001
1.641033e+003,1.215829e+001
1.641997e+003,9.561096e+000
1.642961e+003,8.347473e+000
1.643925e+003,1.212759e+001
1.644890e+003,1.658969e+001
1.645854e+003,1.698083e+001
1.646818e+003,1.438641e+001
1.647782e+003,1.258643e+001
1.648747e+003,1.273883e+001
1.649711e+003,1.325378e+001
1.650675e+003,1.278690e+001
1.651639e+003,1.217703e+001
1.652604e+003,1.334494e+001
1.653568e+003,1.611169e+001
1.654532e+003,1.733844e+001
1.655496e+003,1.635858e+001
1.656460e+003,1.570331e+001
1.657425e+003,1.694812e+001
1.658389e+003,1.759543e+001
1.659353e+003,1.540829e+001
1.660317e+003,1.263062e+001
1.661281e+003,1.178400e+001
1.662246e+003,1.246887e+001
1.663210e+003,1.303592e+001
1.664174e+003,1.296268e+001
1.665138e+003,1.243329e+001
1.666103e+003,1.143896e+001
1.667067e+003,1.016983e+001
1.668031e+003,8.911926e+000
1.668995e+003,7.754761e+000
1.669960e+003,7.677429e+000
1.670924e+003,9.195984e+000
1.671888e+003,1.002322e+001
1.672852e+003,8.771210e+000
1.673817e+003,7.501770e+000
1.674781e+003,7.244110e+000
1.675745e+003,7.812927e+000
1.676709e+003,9.972778e+000
1.677674e+003,1.272656e+001
1.678638e+003,1.279660e+001
1.679602e+003,9.204865e+000
1.680566e+003,5.763062e+000
1.681531e+003,5.801086e+000
1.682495e+003,7.390656e+000
1.683459e+003,6.836487e+000
1.684423e+003,4.524323e+000
1.685387e+003,3.615479e+000
1.686352e+003,4.633209e+000
1.687316e+003,5.394897e+000
1.688280e+003,5.156891e+000
1.689244e+003,4.586578e+000
1.690208e+003,3.660583e+000
1.691173e+003,2.947266e+000
1.692137e+003,3.661316e+000
1.693101e+003,5.288300e+000
1.694065e+003,5.637024e+000
1.695030e+003,4.008575e+000
1.695994e+003,2.358887e+000
1.696958e+003,1.994415e+000
1.697922e+003,2.249176e+000
1.698887e+003,2.417206e+000
1.699851e+003,2.531708e+000
1.700815e+003,2.515778e+000
1.701779e+003,2.309418e+000
1.702744e+003,2.219604e+000
1.703708e+003,2.462341e+000
1.704672e+003,3.013397e+000
1.705636e+003,3.965637e+000
1.706601e+003,4.710724e+000
1.707565e+003,4.397644e+000
1.708529e+003,3.428955e+000
1.709493e+003,2.782806e+000
1.710458e+003,2.592407e+000
1.711422e+003,2.305206e+000
1.712386e+003,1.947601e+000
1.713350e+003,1.327362e+000
1.714314e+003,-7.043457e-001
1.715279e+003,-2.791809e+000
1.716243e+003,-1.763184e+000
1.717207e+003,1.708832e+000
1.718171e+003,3.207947e+000
1.719135e+003,1.545837e+000
1.720100e+003,-1.929016e-001
1.721064e+003,5.499268e-002
1.722028e+003,9.473572e-001
1.722992e+003,6.616516e-001
1.723957e+003,-4.447632e-001
1.724921e+003,-1.187561e+000
1.725885e+003,-1.863251e+000
1.726849e+003,-1.901611e+000
1.727814e+003,-4.116821e-001
1.728778e+003,1.133911e+000
1.729742e+003,2.379211e+000
1.730706e+003,3.059601e+000
1.731671e+003,2.615540e+000
1.732635e+003,1.271301e+000
1.733599e+003,-3.768311e-001
1.734563e+003,-1.962402e+000
1.735528e+003,-3.245514e+000
1.736492e+003,-4.163605e+000
1.737456e+003,-4.256653e+000
1.738420e+003,-2.810944e+000
1.739385e+003,-5.618896e-001
1.740349e+003,1.234741e-001
1.741313e+003,-1.008636e+000
1.742277e+003,-1.922089e+000
1.743241e+003,-2.800751e+000
1.744206e+003,-2.985748e+000
1.745170e+003,-1.897552e+000
1.746134e+003,-8.085327e-001
1.747098e+003,-3.225098e-001
1.748063e+003,-3.039551e-001
1.749027e+003,-9.776306e-001
1.749991e+003,-1.796478e+000
1.750955e+003,-1.276245e+000
1.751919e+003,7.717896e-001
1.752884e+003,2.321930e+000
1.753848e+003,1.677826e+000
1.754812e+003,-6.845093e-002
1.755776e+003,-5.514832e-001
1.756741e+003,2.791748e-001
1.757705e+003,1.123047e-002
1.758669e+003,-2.353638e+000
1.759633e+003,-3.189117e+000
1.760598e+003,-1.329987e+000
1.761562e+003,7.641602e-001
1.762526e+003,3.887817e+000
1.763490e+003,5.705933e+000
1.764455e+003,3.547546e+000
1.765419e+003,-4.387512e-001
1.766383e+003,-3.114929e+000
1.767347e+003,-4.110901e+000
1.768312e+003,-4.553436e+000
1.769276e+003,-5.005646e+000
1.770240e+003,-5.328461e+000
1.771204e+003,-5.251129e+000
1.772168e+003,-4.679108e+000
1.773133e+003,-3.324127e+000
1.774097e+003,-1.366333e+000
1.775061e+003,-8.478394e-001
1.776025e+003,-2.353363e+000
1.776990e+003,-3.369812e+000
1.777954e+003,-2.708618e+000
1.778918e+003,-1.718445e+000
1.779882e+003,-1.321838e+000
1.780846e+003,-1.433258e+000
1.781811e+003,-1.867554e+000
1.782775e+003,-2.519257e+000
1.783739e+003,-3.291473e+000
1.784703e+003,-4.196442e+000
1.785668e+003,-4.397186e+000
1.786632e+003,-3.451538e+000
1.787596e+003,-2.152649e+000
1.788560e+003,-4.288635e-001
1.789525e+003,1.186066e+000
1.790489e+003,1.665436e+000
1.791453e+003,1.140015e+000
1.792417e+003,2.150879e-001
1.793382e+003,-8.765564e-001
1.794346e+003,-1.640961e+000
1.795310e+003,-1.827759e+000
1.796274e+003,-1.708649e+000
1.797239e+003,-1.409332e+000
1.798203e+003,-1.025482e+000
1.799167e+003,-1.440125e+000
1.800131e+003,-3.114044e+000
1.801095e+003,-4.386993e+000
1.802060e+003,-5.104858e+000
1.803024e+003,-5.195190e+000
1.803988e+003,-4.454285e+000
1.804952e+003,-3.514313e+000
1.805917e+003,-2.134247e+000
1.806881e+003,-1.162811e+000
1.807845e+003,-1.762329e+000
1.808809e+003,-3.205078e+000
1.809773e+003,-4.039825e+000
1.810738e+003,-3.923279e+000
1.811702e+003,-3.400360e+000
1.812666e+003,-2.832733e+000
1.813630e+003,-2.165283e+000
1.814595e+003,-1.260468e+000
1.815559e+003,-3.097229e-001
1.816523e+003,1.051941e-001
1.817487e+003,3.408813e-002
1.818452e+003,-9.398499e-001
1.819416e+003,-3.352142e+000
1.820380e+003,-4.765442e+000
1.821344e+003,-4.107086e+000
1.822309e+003,-3.155701e+000
1.823273e+003,-2.905151e+000
1.824237e+003,-2.736023e+000
1.825201e+003,-2.073883e+000
1.826166e+003,-1.083282e+000
1.827130e+003,-5.624390e-002
1.828094e+003,8.860168e-001
1.829058e+003,1.200134e+000
1.830022e+003,4.656982e-001
1.830987e+003,-4.006958e-001
1.831951e+003,-4.361572e-001
1.832915e+003,-2.857666e-001
1.833879e+003,-1.082520e+000
1.834844e+003,-2.504852e+000
1.835808e+003,-3.520264e+000
1.836772e+003,-3.935364e+000
1.837736e+003,-4.063324e+000
1.838700e+003,-4.110870e+000
1.839665e+003,-3.580292e+000
1.840629e+003,-1.768494e+000
1.841593e+003,4.683228e-001
1.842557e+003,1.166107e+000
1.843522e+003,3.406677e-001
1.844486e+003,-2.731323e-001
1.845450e+003,-3.563232e-001
1.846414e+003,-5.086670e-001
1.847379e+003,-8.601074e-001
1.848343e+003,-1.538116e+000
1.849307e+003,-3.301910e+000
1.850271e+003,-4.504730e+000
1.851236e+003,-3.451660e+000
1.852200e+003,-1.311798e+000
1.853164e+003,3.744812e-001
1.854128e+003,1.174316e+000
1.855093e+003,9.856262e-001
1.856057e+003,4.473877e-002
1.857021e+003,-4.171143e-001
1.857985e+003,7.012329e-001
1.858949e+003,2.074829e+000
1.859914e+003,9.516907e-001
1.860878e+003,-1.965973e+000
1.861842e+003,-2.733368e+000
1.862806e+003,-1.325714e+000
1.863771e+003,1.079407e-001
1.864735e+003,1.226685e+000
1.865699e+003,2.129456e+000
1.866663e+003,3.142426e+000
1.867627e+003,3.615692e+000
1.868592e+003,2.024841e+000
1.869556e+003,-1.239929e-001
1.870520e+003,1.065338e+000
1.871484e+003,4.806152e+000
1.872449e+003,5.587036e+000
1.873413e+003,2.306763e+000
1.874377e+003,-1.731873e-001
1.875341e+003,-8.875732e-001
1.876306e+003,-6.119995e-001
1.877270e+003,1.086823e+000
1.878234e+003,2.739502e+000
1.879198e+003,2.523132e+000
1.880163e+003,1.425262e+000
1.881127e+003,1.680054e+000
1.882091e+003,3.184875e+000
1.883055e+003,3.926819e+000
1.884020e+003,3.075226e+000
1.884984e+003,1.530762e+000
1.885948e+003,8.685303e-002
1.886912e+003,-1.042358e+000
1.887876e+003,-1.317352e+000
1.888841e+003,-8.208313e-001
1.889805e+003,-1.046967e+000
1.890769e+003,-2.544342e+000
1.891733e+003,-1.362457e+000
1.892698e+003,4.976532e+000
1.893662e+003,8.484100e+000
1.894626e+003,4.211273e+000
1.895590e+003,-6.333313e-001
1.896554e+003,-1.223694e+000
1.897519e+003,5.545044e-001
1.898483e+003,3.429230e+000
1.899447e+003,6.497101e+000
1.900411e+003,7.295776e+000
1.901376e+003,5.343292e+000
1.902340e+003,3.449036e+000
1.903304e+003,2.369873e+000
1.904268e+003,2.010345e+000
1.905233e+003,2.975098e+000
1.906197e+003,4.104980e+000
1.907161e+003,4.134888e+000
1.908125e+003,3.536438e+000
1.909090e+003,3.164764e+000
1.910054e+003,2.973236e+000
1.911018e+003,2.495453e+000
1.911982e+003,1.642273e+000
1.912947e+003,4.959106e-001
1.913911e+003,-9.301147e-001
1.914875e+003,-1.709290e+000
1.915839e+003,-2.556152e-001
1.916803e+003,2.696899e+000
1.917768e+003,3.739105e+000
1.918732e+003,2.543182e+000
1.919696e+003,2.317871e+000
1.920660e+003,3.792999e+000
1.921625e+003,4.450409e+000
1.922589e+003,2.851440e+000
1.923553e+003,1.618469e+000
1.924517e+003,2.196716e+000
1.925481e+003,3.726135e+000
1.926446e+003,6.641907e+000
1.927410e+003,9.528931e+000
1.928374e+003,9.059570e+000
1.929338e+003,5.260132e+000
1.930303e+003,2.339661e+000
1.931267e+003,1.543732e+000
1.932231e+003,1.665771e+000
1.933195e+003,2.237823e+000
1.934160e+003,3.168854e+000
1.935124e+003,5.327698e+000
1.936088e+003,6.983398e+000
1.937052e+003,5.233215e+000
1.938017e+003,1.786652e+000
1.938981e+003,7.330322e-001
1.939945e+003,2.291260e+000
1.940909e+003,3.439606e+000
1.941874e+003,2.813721e+000
1.942838e+003,2.083618e+000
1.943802e+003,2.966064e+000
1.944766e+003,4.432617e+000
1.945730e+003,3.915253e+000
1.946695e+003,1.715851e+000
1.947659e+003,1.241211e+000
1.948623e+003,2.637543e+000
1.949587e+003,3.791687e+000
1.950552e+003,4.694702e+000
1.951516e+003,4.661285e+000
1.952480e+003,2.806915e+000
1.953444e+003,1.393494e+000
1.954408e+003,2.592407e+000
1.955373e+003,4.343353e+000
1.956337e+003,3.320587e+000
1.957301e+003,6.958313e-001
1.958265e+003,4.560242e-001
1.959230e+003,3.091736e+000
1.960194e+003,4.769867e+000
1.961158e+003,3.946716e+000
1.962122e+003,3.251129e+000
1.963087e+003,3.626190e+000
1.964051e+003,4.032440e+000
1.965015e+003,3.754242e+000
1.965979e+003,3.566864e+000
1.966944e+003,4.234344e+000
1.967908e+003,5.389435e+000
1.968872e+003,6.485199e+000
1.969836e+003,7.368591e+000
1.970801e+003,8.038239e+000
1.971765e+003,8.499451e+000
1.972729e+003,8.534790e+000
1.973693e+003,7.762268e+000
1.974657e+003,7.013611e+000
1.975622e+003,8.236237e+000
1.976586e+003,1.012650e+001
1.977550e+003,8.096527e+000
1.978514e+003,3.323975e+000
1.979479e+003,3.628204e+000
1.980443e+003,9.683533e+000
1.981407e+003,1.259879e+001
1.982371e+003,8.985352e+000
1.983335e+003,4.391876e+000
1.984300e+003,2.765656e+000
1.985264e+003,3.072601e+000
1.986228e+003,4.110840e+000
1.987192e+003,5.469818e+000
1.988157e+003,4.836731e+000
1.989121e+003,1.417725e+000
1.990085e+003,5.066528e-001
1.991049e+003,4.089783e+000
1.992014e+003,6.304199e+000
1.992978e+003,5.043304e+000
1.993942e+003,4.112885e+000
1.994906e+003,5.168854e+000
1.995871e+003,6.646301e+000
1.996835e+003,7.707306e+000
1.997799e+003,8.361542e+000
1.998763e+003,8.485138e+000
1.999728e+003,8.148987e+000
