5.003444e+002,4.132819e+001
5.013087e+002,4.115073e+001
5.022729e+002,3.815244e+001
5.032371e+002,3.386136e+001
5.042014e+002,3.273883e+001
5.051656e+002,3.436584e+001
5.061298e+002,3.679077e+001
5.070941e+002,3.830414e+001
5.080583e+002,3.874210e+001
5.090225e+002,3.831311e+001
5.099868e+002,3.656400e+001
5.109510e+002,3.471307e+001
5.119152e+002,3.328308e+001
5.128795e+002,3.231445e+001
5.138437e+002,3.182651e+001
5.148079e+002,3.239566e+001
5.157722e+002,3.301059e+001
5.167364e+002,3.323041e+001
5.177006e+002,3.292712e+001
5.186649e+002,3.226245e+001
5.196291e+002,3.154947e+001
5.205933e+002,3.086362e+001
5.215576e+002,2.982211e+001
5.225218e+002,2.834082e+001
5.234860e+002,2.673816e+001
5.244503e+002,2.576846e+001
5.254145e+002,2.586771e+001
5.263787e+002,2.650806e+001
5.273430e+002,2.842068e+001
5.283072e+002,3.039621e+001
5.292714e+002,3.053259e+001
5.302357e+002,2.742862e+001
5.311999e+002,2.476825e+001
5.321641e+002,2.314178e+001
5.331284e+002,2.232925e+001
5.340926e+002,2.228317e+001
5.350568e+002,2.295035e+001
5.360211e+002,2.342645e+001
5.369853e+002,2.301376e+001
5.379495e+002,2.234891e+001
5.389138e+002,2.173514e+001
5.398780e+002,2.132013e+001
5.408422e+002,2.116309e+001
5.418065e+002,2.186072e+001
5.427707e+002,2.320462e+001
5.437349e+002,2.337097e+001
5.446992e+002,2.145871e+001
5.456634e+002,1.824457e+001
5.466276e+002,1.654901e+001
5.475919e+002,1.828033e+001
5.485561e+002,1.948807e+001
5.495203e+002,1.955054e+001
5.504846e+002,1.901138e+001
5.514488e+002,1.876852e+001
5.524130e+002,1.937888e+001
5.533773e+002,2.003662e+001
5.543415e+002,2.058389e+001
5.553057e+002,2.083829e+001
5.562700e+002,2.050516e+001
5.572342e+002,1.938281e+001
5.581984e+002,1.773929e+001
5.591627e+002,1.606003e+001
5.601269e+002,1.458752e+001
5.610911e+002,1.386145e+001
5.620554e+002,1.417801e+001
5.630196e+002,1.526364e+001
5.639838e+002,1.524838e+001
5.649481e+002,1.325238e+001
5.659123e+002,1.147302e+001
5.668765e+002,1.043530e+001
5.678408e+002,1.011304e+001
5.688050e+002,1.017822e+001
5.697692e+002,1.063898e+001
5.707335e+002,1.081024e+001
5.716977e+002,1.066827e+001
5.726619e+002,1.022519e+001
5.736262e+002,9.224487e+000
5.745904e+002,7.269897e+000
5.755546e+002,5.871704e+000
5.765189e+002,8.090149e+000
5.774831e+002,1.200061e+001
5.784473e+002,1.421677e+001
5.794116e+002,1.252393e+001
5.803758e+002,7.526428e+000
5.813400e+002,5.504791e+000
5.823043e+002,6.838837e+000
5.832685e+002,8.275146e+000
5.842327e+002,9.019501e+000
5.851970e+002,9.254150e+000
5.861612e+002,9.388428e+000
5.871254e+002,8.671906e+000
5.880897e+002,8.515961e+000
5.890539e+002,9.712921e+000
5.900181e+002,1.144897e+001
5.909824e+002,1.241156e+001
5.919466e+002,1.168628e+001
5.929108e+002,1.027228e+001
5.938751e+002,9.245270e+000
5.948393e+002,8.453796e+000
5.958035e+002,7.621582e+000
5.967678e+002,6.576233e+000
5.977320e+002,5.512909e+000
5.986962e+002,5.524414e+000
5.996605e+002,6.331696e+000
6.006247e+002,7.335876e+000
6.015889e+002,8.645386e+000
6.025532e+002,1.019061e+001
6.035174e+002,1.069791e+001
6.044816e+002,9.073334e+000
6.054459e+002,7.545746e+000
6.064101e+002,6.145050e+000
6.073743e+002,5.077118e+000
6.083386e+002,4.751587e+000
6.093028e+002,5.816406e+000
6.102670e+002,6.920776e+000
6.112313e+002,6.763031e+000
6.121955e+002,6.014984e+000
6.131597e+002,5.620605e+000
6.141240e+002,6.207916e+000
6.150882e+002,7.403076e+000
6.160524e+002,7.562408e+000
6.170167e+002,6.961609e+000
6.179809e+002,6.675812e+000
6.189451e+002,7.230133e+000
6.199094e+002,8.378204e+000
6.208736e+002,8.877411e+000
6.218378e+002,8.098663e+000
6.228021e+002,7.743439e+000
6.237663e+002,8.346222e+000
6.247305e+002,9.422089e+000
6.256948e+002,1.016101e+001
6.266590e+002,1.019080e+001
6.276232e+002,9.449646e+000
6.285875e+002,7.537201e+000
6.295517e+002,5.520691e+000
6.305159e+002,4.652252e+000
6.314802e+002,5.498932e+000
6.324444e+002,7.107056e+000
6.334086e+002,7.053528e+000
6.343729e+002,5.930054e+000
6.353371e+002,4.499115e+000
6.363013e+002,2.840271e+000
6.372656e+002,1.158936e+000
6.382298e+002,3.693542e-001
6.391940e+002,1.856506e+000
6.401583e+002,2.274567e+000
6.411225e+002,1.493256e+000
6.420867e+002,6.127930e-002
6.430510e+002,-1.859406e+000
6.440152e+002,-4.898865e+000
6.449794e+002,-6.714508e+000
6.459437e+002,-5.196045e+000
6.469079e+002,-2.866089e+000
6.478721e+002,-1.482513e+000
6.488364e+002,-1.680023e+000
6.498006e+002,-2.840942e+000
6.507648e+002,-4.861267e+000
6.517291e+002,-6.925537e+000
6.526933e+002,-6.464111e+000
6.536575e+002,-2.887451e+000
6.546218e+002,2.383484e+000
6.555860e+002,6.747803e+000
6.565502e+002,1.030478e+001
6.575145e+002,1.221005e+001
6.584787e+002,1.233386e+001
6.594429e+002,1.121991e+001
6.604072e+002,8.930511e+000
6.613714e+002,5.323303e+000
6.623356e+002,1.982758e+000
6.632999e+002,-1.371002e+000
6.642641e+002,-3.647675e+000
6.652283e+002,-3.188477e+000
6.661926e+002,-5.064697e-001
6.671568e+002,2.023254e+000
6.681210e+002,1.052246e+000
6.690853e+002,-1.883636e+000
6.700495e+002,-2.050995e+000
6.710137e+002,4.700623e-001
6.719780e+002,3.104828e+000
6.729422e+002,2.956909e+000
6.739064e+002,-8.452454e-001
6.748707e+002,-2.575195e+000
6.758349e+002,-1.360260e+000
6.767991e+002,1.666260e-001
6.777634e+002,1.274872e+000
6.787276e+002,2.036377e+000
6.796918e+002,2.526398e+000
6.806561e+002,2.115723e+000
6.816203e+002,1.809296e+000
6.825845e+002,2.091339e+000
6.835488e+002,2.740387e+000
6.845130e+002,3.377350e+000
6.854772e+002,3.754089e+000
6.864415e+002,4.103180e+000
6.874057e+002,4.869232e+000
6.883699e+002,5.665649e+000
6.893342e+002,5.818787e+000
6.902984e+002,4.956360e+000
6.912626e+002,3.309601e+000
6.922269e+002,2.103149e+000
6.931911e+002,1.772614e+000
6.941553e+002,1.814850e+000
6.951196e+002,2.001770e+000
6.960838e+002,2.304962e+000
6.970480e+002,2.971466e+000
6.980123e+002,4.541626e+000
6.989765e+002,5.398682e+000
6.999407e+002,4.592621e+000
7.009050e+002,3.161713e+000
7.018692e+002,1.675049e+000
7.028334e+002,4.278259e-001
7.037977e+002,-3.947144e-001
7.047619e+002,-1.913452e-002
7.057261e+002,1.085999e+000
7.066904e+002,1.545746e+000
7.076546e+002,1.132080e+000
7.086188e+002,6.189575e-001
7.095831e+002,1.361755e+000
7.105473e+002,4.304993e+000
7.115115e+002,4.957886e+000
7.124758e+002,1.957397e+000
7.134400e+002,-1.566467e+000
7.144042e+002,-4.011871e+000
7.153685e+002,-5.190735e+000
7.163327e+002,-5.305573e+000
7.172969e+002,-3.042633e+000
7.182612e+002,-9.173584e-001
7.192254e+002,-2.993469e-001
7.201896e+002,-7.263489e-001
7.211539e+002,-9.216003e-001
7.221181e+002,2.800598e-001
7.230823e+002,2.079010e+000
7.240466e+002,1.949615e+000
7.250108e+002,5.420227e-001
7.259750e+002,5.368042e-002
7.269393e+002,1.824310e+000
7.279035e+002,5.247284e+000
7.288677e+002,6.735535e+000
7.298320e+002,5.274231e+000
7.307962e+002,3.690308e+000
7.317604e+002,1.500946e+000
7.327247e+002,-4.223328e-001
7.336889e+002,-7.731628e-001
7.346531e+002,1.025513e+000
7.356174e+002,2.479309e+000
7.365816e+002,2.596130e+000
7.375458e+002,2.212250e+000
7.385101e+002,1.808899e+000
7.394743e+002,1.565735e+000
7.404385e+002,1.369232e+000
7.414028e+002,8.784180e-001
7.423670e+002,-4.623413e-002
7.433312e+002,-4.831238e-001
7.442955e+002,-9.747314e-002
7.452597e+002,9.220581e-001
7.462239e+002,2.504547e+000
7.471882e+002,5.084686e+000
7.481524e+002,5.774017e+000
7.491166e+002,2.688843e+000
7.500809e+002,-2.722473e-001
7.510451e+002,-1.613892e+000
7.520093e+002,-1.564087e+000
7.529736e+002,-1.339874e+000
7.539378e+002,-1.281342e+000
7.549020e+002,-1.022797e+000
7.558663e+002,-1.870422e-001
7.568306e+002,8.612671e-001
7.577948e+002,1.481445e+000
7.587590e+002,1.266418e+000
7.597233e+002,5.198669e-001
7.606875e+002,5.925293e-001
7.616517e+002,1.494568e+000
7.626160e+002,2.348633e+000
7.635802e+002,2.968842e+000
7.645444e+002,3.470184e+000
7.655087e+002,4.033844e+000
7.664729e+002,4.631836e+000
7.674371e+002,5.234528e+000
7.684014e+002,6.214172e+000
7.693656e+002,6.848755e+000
7.703298e+002,6.572266e+000
7.712941e+002,5.411469e+000
7.722583e+002,4.085632e+000
7.732225e+002,2.756042e+000
7.741868e+002,1.828735e+000
7.751510e+002,1.761230e+000
7.761152e+002,2.382538e+000
7.770795e+002,3.235229e+000
7.780437e+002,3.895508e+000
7.790079e+002,4.351807e+000
7.799722e+002,4.967773e+000
7.809364e+002,5.727081e+000
7.819006e+002,6.502899e+000
7.828649e+002,7.775238e+000
7.838291e+002,9.231934e+000
7.847933e+002,9.402710e+000
7.857576e+002,6.907471e+000
7.867218e+002,4.813568e+000
7.876860e+002,4.210846e+000
7.886503e+002,4.105682e+000
7.896145e+002,3.331421e+000
7.905787e+002,1.694763e+000
7.915430e+002,7.375183e-001
7.925072e+002,3.138306e+000
7.934714e+002,6.208160e+000
7.944357e+002,6.993164e+000
7.953999e+002,5.602020e+000
7.963641e+002,3.726318e+000
7.973284e+002,3.191223e+000
7.982926e+002,4.101746e+000
7.992568e+002,4.552582e+000
8.002211e+002,3.931335e+000
8.011853e+002,3.240234e+000
8.021495e+002,3.212952e+000
8.031138e+002,3.901184e+000
8.040780e+002,4.642609e+000
8.050422e+002,4.732544e+000
8.060065e+002,5.406433e+000
8.069707e+002,8.040405e+000
8.079349e+002,1.059039e+001
8.088992e+002,1.056940e+001
8.098634e+002,7.450378e+000
8.108276e+002,4.021973e+000
8.117919e+002,4.763641e+000
8.127561e+002,7.499786e+000
8.137203e+002,8.342499e+000
8.146846e+002,7.038208e+000
8.156488e+002,4.890259e+000
8.166130e+002,3.203888e+000
8.175773e+002,1.731445e+000
8.185415e+002,2.029449e+000
8.195057e+002,5.367188e+000
8.204700e+002,8.233368e+000
8.214342e+002,9.141357e+000
8.223984e+002,8.690399e+000
8.233627e+002,8.594208e+000
8.243269e+002,9.610382e+000
8.252911e+002,1.086276e+001
8.262554e+002,1.182065e+001
8.272196e+002,1.264877e+001
8.281838e+002,1.373303e+001
8.291481e+002,1.506339e+001
8.301123e+002,1.596326e+001
8.310765e+002,1.505515e+001
8.320408e+002,1.241525e+001
8.330050e+002,1.037445e+001
8.339692e+002,9.213348e+000
8.349335e+002,8.322479e+000
8.358977e+002,7.031403e+000
8.368619e+002,5.272766e+000
8.378262e+002,4.352539e+000
8.387904e+002,4.614502e+000
8.397546e+002,5.081757e+000
8.407189e+002,5.887787e+000
8.416831e+002,6.686371e+000
8.426473e+002,6.901672e+000
8.436116e+002,6.210266e+000
8.445758e+002,5.288971e+000
8.455400e+002,4.088684e+000
8.465043e+002,3.073547e+000
8.474685e+002,3.518707e+000
8.484327e+002,5.647430e+000
8.493970e+002,8.062500e+000
8.503612e+002,8.097382e+000
8.513254e+002,5.021057e+000
8.522897e+002,4.659271e+000
8.532539e+002,8.925568e+000
8.542181e+002,1.285196e+001
8.551824e+002,1.299207e+001
8.561466e+002,1.009329e+001
8.571108e+002,9.114716e+000
8.580751e+002,1.228101e+001
8.590393e+002,1.507437e+001
8.600035e+002,1.605673e+001
8.609678e+002,1.621832e+001
8.619320e+002,1.686185e+001
8.628962e+002,1.843320e+001
8.638605e+002,1.986334e+001
8.648247e+002,1.908817e+001
8.657889e+002,1.707950e+001
8.667532e+002,1.594174e+001
8.677174e+002,1.595270e+001
8.686816e+002,1.671646e+001
8.696459e+002,1.792078e+001
8.706101e+002,1.974512e+001
8.715743e+002,2.131079e+001
8.725386e+002,2.293436e+001
8.735028e+002,2.399103e+001
8.744670e+002,2.373117e+001
8.754313e+002,2.267532e+001
8.763955e+002,2.191336e+001
8.773597e+002,2.187146e+001
8.783240e+002,2.227118e+001
8.792882e+002,2.286325e+001
8.802524e+002,2.360742e+001
8.812167e+002,2.476602e+001
8.821809e+002,2.620642e+001
8.831451e+002,2.732504e+001
8.841094e+002,2.732794e+001
8.850736e+002,2.638013e+001
8.860378e+002,2.597491e+001
8.870021e+002,2.615204e+001
8.879663e+002,2.627466e+001
8.889305e+002,2.565762e+001
8.898948e+002,2.450687e+001
8.908590e+002,2.425110e+001
8.918232e+002,2.588330e+001
8.927875e+002,2.725183e+001
8.937517e+002,2.779587e+001
8.947159e+002,2.801859e+001
8.956802e+002,2.825739e+001
8.966444e+002,2.848935e+001
8.976086e+002,2.838260e+001
8.985729e+002,2.751755e+001
8.995371e+002,2.659320e+001
9.005013e+002,2.659360e+001
9.014656e+002,2.749796e+001
9.024298e+002,2.877670e+001
9.033940e+002,2.997800e+001
9.043583e+002,3.092477e+001
9.053225e+002,3.130353e+001
9.062867e+002,3.006418e+001
9.072510e+002,2.938034e+001
9.082152e+002,2.992578e+001
9.091794e+002,3.101862e+001
9.101437e+002,3.216519e+001
9.111079e+002,3.327979e+001
9.120721e+002,3.372043e+001
9.130364e+002,3.204205e+001
9.140006e+002,3.015018e+001
9.149648e+002,2.920779e+001
9.159291e+002,2.919397e+001
9.168933e+002,2.972726e+001
9.178575e+002,3.044403e+001
9.188218e+002,3.110910e+001
9.197860e+002,3.105557e+001
9.207502e+002,3.017615e+001
9.217145e+002,2.966611e+001
9.226787e+002,3.007794e+001
9.236429e+002,3.104636e+001
9.246072e+002,3.206400e+001
9.255714e+002,3.312378e+001
9.265356e+002,3.357553e+001
9.274999e+002,3.266925e+001
9.284641e+002,3.169095e+001
9.294283e+002,3.152945e+001
9.303926e+002,3.164063e+001
9.313568e+002,3.069406e+001
9.323210e+002,2.789828e+001
9.332853e+002,2.482391e+001
9.342495e+002,2.450427e+001
9.352137e+002,2.549411e+001
9.361780e+002,2.591385e+001
9.371422e+002,2.546686e+001
9.381064e+002,2.460977e+001
9.390707e+002,2.367590e+001
9.400349e+002,2.230777e+001
9.409991e+002,2.209970e+001
9.419634e+002,2.447644e+001
9.429276e+002,2.595050e+001
9.438918e+002,2.459122e+001
9.448561e+002,2.215530e+001
9.458203e+002,2.195428e+001
9.467845e+002,2.540082e+001
9.477488e+002,2.883322e+001
9.487130e+002,2.887787e+001
9.496772e+002,2.811954e+001
9.506415e+002,2.893799e+001
9.516057e+002,3.112729e+001
9.525699e+002,3.255652e+001
9.535342e+002,3.108167e+001
9.544984e+002,2.710730e+001
9.554626e+002,2.470831e+001
9.564269e+002,2.405667e+001
9.573911e+002,2.449197e+001
9.583553e+002,2.648569e+001
9.593196e+002,2.910010e+001
9.602838e+002,3.095255e+001
9.612480e+002,3.200278e+001
9.622123e+002,3.191748e+001
9.631765e+002,2.909747e+001
9.641407e+002,2.676593e+001
9.651050e+002,2.709589e+001
9.660692e+002,2.893695e+001
9.670334e+002,2.963696e+001
9.679977e+002,2.761594e+001
9.689619e+002,2.454327e+001
9.699261e+002,2.353989e+001
9.708904e+002,2.400558e+001
9.718546e+002,2.505276e+001
9.728188e+002,2.647556e+001
9.737831e+002,2.819110e+001
9.747473e+002,3.036795e+001
9.757115e+002,3.331613e+001
9.766758e+002,3.532837e+001
9.776400e+002,3.595197e+001
9.786042e+002,3.647903e+001
9.795685e+002,3.733017e+001
9.805327e+002,3.794785e+001
9.814969e+002,3.760980e+001
9.824612e+002,3.618307e+001
9.834254e+002,3.449969e+001
9.843896e+002,3.318112e+001
9.853539e+002,3.181390e+001
9.863181e+002,2.975644e+001
9.872823e+002,2.707669e+001
9.882466e+002,2.465237e+001
9.892108e+002,2.342029e+001
9.901750e+002,2.341202e+001
9.911393e+002,2.318283e+001
9.921035e+002,2.123221e+001
9.930677e+002,2.065491e+001
9.940320e+002,2.225644e+001
9.949962e+002,2.507861e+001
9.959604e+002,2.883786e+001
9.969247e+002,3.339056e+001
9.978889e+002,3.685626e+001
9.988531e+002,3.770386e+001
9.998174e+002,3.733072e+001
1.000782e+003,3.576904e+001
1.001746e+003,3.425861e+001
1.002710e+003,3.473691e+001
1.003674e+003,3.780786e+001
1.004639e+003,4.181659e+001
1.005603e+003,4.382837e+001
1.006567e+003,4.354816e+001
1.007531e+003,4.374969e+001
1.008495e+003,4.494437e+001
1.009460e+003,4.567487e+001
1.010424e+003,4.480984e+001
1.011388e+003,4.280035e+001
1.012352e+003,4.138162e+001
1.013317e+003,4.111920e+001
1.014281e+003,4.045987e+001
1.015245e+003,3.849432e+001
1.016209e+003,3.625186e+001
1.017174e+003,3.464301e+001
1.018138e+003,3.363123e+001
1.019102e+003,3.244052e+001
1.020066e+003,3.044168e+001
1.021031e+003,2.807803e+001
1.021995e+003,2.636285e+001
1.022959e+003,2.499222e+001
1.023923e+003,2.331610e+001
1.024887e+003,2.082025e+001
1.025852e+003,1.836972e+001
1.026816e+003,1.784128e+001
1.027780e+003,2.018130e+001
1.028744e+003,2.057324e+001
1.029709e+003,1.655710e+001
1.030673e+003,1.295590e+001
1.031637e+003,1.092819e+001
1.032601e+003,1.017542e+001
1.033566e+003,1.048737e+001
1.034530e+003,1.177728e+001
1.035494e+003,1.313208e+001
1.036458e+003,1.357846e+001
1.037422e+003,1.322226e+001
1.038387e+003,1.201877e+001
1.039351e+003,1.009570e+001
1.040315e+003,8.527344e+000
1.041279e+003,8.207581e+000
1.042244e+003,8.961029e+000
1.043208e+003,9.648132e+000
1.044172e+003,1.053049e+001
1.045136e+003,1.043274e+001
1.046101e+003,8.883331e+000
1.047065e+003,7.047943e+000
1.048029e+003,5.067230e+000
1.048993e+003,3.327057e+000
1.049958e+003,3.117493e+000
1.050922e+003,5.581451e+000
1.051886e+003,8.664154e+000
1.052850e+003,1.028525e+001
1.053814e+003,1.112839e+001
1.054779e+003,1.230219e+001
1.055743e+003,1.386789e+001
1.056707e+003,1.444061e+001
1.057671e+003,1.217203e+001
1.058636e+003,7.000580e+000
1.059600e+003,5.129791e+000
1.060564e+003,1.014478e+001
1.061528e+003,1.349347e+001
1.062493e+003,1.260538e+001
1.063457e+003,1.016608e+001
1.064421e+003,9.313751e+000
1.065385e+003,1.045181e+001
1.066349e+003,1.143958e+001
1.067314e+003,1.139178e+001
1.068278e+003,1.058322e+001
1.069242e+003,8.388031e+000
1.070206e+003,5.995178e+000
1.071171e+003,5.411255e+000
1.072135e+003,7.252197e+000
1.073099e+003,1.000272e+001
1.074063e+003,1.125558e+001
1.075028e+003,1.093930e+001
1.075992e+003,1.036365e+001
1.076956e+003,8.905762e+000
1.077920e+003,7.958954e+000
1.078885e+003,8.708405e+000
1.079849e+003,1.028687e+001
1.080813e+003,1.074747e+001
1.081777e+003,9.532410e+000
1.082741e+003,9.021912e+000
1.083706e+003,1.142859e+001
1.084670e+003,1.365448e+001
1.085634e+003,1.397354e+001
1.086598e+003,1.276083e+001
1.087563e+003,1.087515e+001
1.088527e+003,8.964935e+000
1.089491e+003,7.486481e+000
1.090455e+003,7.177734e+000
1.091420e+003,8.069122e+000
1.092384e+003,8.504303e+000
1.093348e+003,8.130737e+000
1.094312e+003,7.711548e+000
1.095276e+003,7.935089e+000
1.096241e+003,8.641815e+000
1.097205e+003,8.979553e+000
1.098169e+003,8.520294e+000
1.099133e+003,8.279083e+000
1.100098e+003,8.921661e+000
1.101062e+003,9.767426e+000
1.102026e+003,1.068881e+001
1.102990e+003,1.144107e+001
1.103955e+003,1.146259e+001
1.104919e+003,1.040552e+001
1.105883e+003,8.947845e+000
1.106847e+003,8.671448e+000
1.107812e+003,9.596527e+000
1.108776e+003,1.043097e+001
1.109740e+003,1.118423e+001
1.110704e+003,1.172531e+001
1.111668e+003,1.219736e+001
1.112633e+003,1.260248e+001
1.113597e+003,1.219861e+001
1.114561e+003,9.730927e+000
1.115525e+003,8.999817e+000
1.116490e+003,1.273889e+001
1.117454e+003,1.679648e+001
1.118418e+003,1.867560e+001
1.119382e+003,1.868597e+001
1.120347e+003,1.813828e+001
1.121311e+003,1.771640e+001
1.122275e+003,1.750198e+001
1.123239e+003,1.839478e+001
1.124203e+003,2.042517e+001
1.125168e+003,2.125098e+001
1.126132e+003,2.031671e+001
1.127096e+003,1.931662e+001
1.128060e+003,1.964859e+001
1.129025e+003,2.090817e+001
1.129989e+003,2.135165e+001
1.130953e+003,2.029245e+001
1.131917e+003,1.956454e+001
1.132882e+003,1.911966e+001
1.133846e+003,1.971878e+001
1.134810e+003,2.255331e+001
1.135774e+003,2.677664e+001
1.136739e+003,3.055035e+001
1.137703e+003,3.282065e+001
1.138667e+003,3.411935e+001
1.139631e+003,3.519751e+001
1.140595e+003,3.612045e+001
1.141560e+003,3.764386e+001
1.142524e+003,3.996799e+001
1.143488e+003,4.279556e+001
1.144452e+003,4.518811e+001
1.145417e+003,4.783209e+001
1.146381e+003,5.358875e+001
1.147345e+003,6.372861e+001
1.148309e+003,7.365015e+001
1.149274e+003,8.155099e+001
1.150238e+003,8.980313e+001
1.151202e+003,1.000473e+002
1.152166e+003,1.116629e+002
1.153130e+003,1.235075e+002
1.154095e+003,1.347790e+002
1.155059e+003,1.447799e+002
1.156023e+003,1.532126e+002
1.156987e+003,1.594842e+002
1.157952e+003,1.608856e+002
1.158916e+003,1.572485e+002
1.159880e+003,1.519529e+002
1.160844e+003,1.467092e+002
1.161809e+003,1.403911e+002
1.162773e+003,1.303718e+002
1.163737e+003,1.155120e+002
1.164701e+003,1.021633e+002
1.165666e+003,9.369864e+001
1.166630e+003,8.546552e+001
1.167594e+003,7.442554e+001
1.168558e+003,6.310046e+001
1.169522e+003,5.501453e+001
1.170487e+003,5.120801e+001
1.171451e+003,5.023138e+001
1.172415e+003,5.071872e+001
1.173379e+003,5.224326e+001
1.174344e+003,5.296249e+001
1.175308e+003,5.305161e+001
1.176272e+003,5.207385e+001
1.177236e+003,4.908807e+001
1.178201e+003,4.568765e+001
1.179165e+003,4.383850e+001
1.180129e+003,4.342993e+001
1.181093e+003,4.321078e+001
1.182057e+003,4.365134e+001
1.183022e+003,4.330606e+001
1.183986e+003,4.111234e+001
1.184950e+003,3.838983e+001
1.185914e+003,3.624872e+001
1.186879e+003,3.496689e+001
1.187843e+003,3.417767e+001
1.188807e+003,3.350443e+001
1.189771e+003,3.340137e+001
1.190736e+003,3.600461e+001
1.191700e+003,4.178955e+001
1.192664e+003,4.476468e+001
1.193628e+003,4.298254e+001
1.194593e+003,4.038898e+001
1.195557e+003,3.996301e+001
1.196521e+003,4.094904e+001
1.197485e+003,4.070663e+001
1.198449e+003,3.863187e+001
1.199414e+003,3.610385e+001
1.200378e+003,3.297852e+001
1.201342e+003,3.032922e+001
1.202306e+003,2.870609e+001
1.203271e+003,2.806604e+001
1.204235e+003,2.867209e+001
1.205199e+003,3.045926e+001
1.206163e+003,3.197287e+001
1.207128e+003,3.050833e+001
1.208092e+003,2.583783e+001
1.209056e+003,2.424402e+001
1.210020e+003,2.825427e+001
1.210984e+003,2.987857e+001
1.211949e+003,2.465399e+001
1.212913e+003,1.711075e+001
1.213877e+003,1.344205e+001
1.214841e+003,1.400684e+001
1.215806e+003,1.413757e+001
1.216770e+003,1.169424e+001
1.217734e+003,8.837311e+000
1.218698e+003,6.990417e+000
1.219663e+003,5.587738e+000
1.220627e+003,4.043701e+000
1.221591e+003,2.212738e+000
1.222555e+003,8.053589e-002
1.223520e+003,-2.378052e+000
1.224484e+003,-4.808258e+000
1.225448e+003,-5.799622e+000
1.226412e+003,-4.312531e+000
1.227376e+003,-3.760773e+000
1.228341e+003,-5.344940e+000
1.229305e+003,-6.591980e+000
1.230269e+003,-5.864899e+000
1.231233e+003,-3.950439e+000
1.232198e+003,-2.250977e+000
1.233162e+003,-1.013000e+000
1.234126e+003,-6.199036e-001
1.235090e+003,-1.945770e+000
1.236055e+003,-3.955688e+000
1.237019e+003,-5.916809e+000
1.237983e+003,-7.586090e+000
1.238947e+003,-8.272125e+000
1.239911e+003,-7.626617e+000
1.240876e+003,-6.123322e+000
1.241840e+003,-4.434387e+000
1.242804e+003,-2.513397e+000
1.243768e+003,-1.115570e+000
1.244733e+003,-1.384888e-001
1.245697e+003,7.495117e-002
1.246661e+003,-1.938202e+000
1.247625e+003,-3.718353e+000
1.248590e+003,-2.634155e+000
1.249554e+003,4.957275e-001
1.250518e+003,2.514191e+000
1.251482e+003,1.878510e+000
1.252447e+003,1.380615e-001
1.253411e+003,-1.171051e+000
1.254375e+003,-1.871643e+000
1.255339e+003,-1.545654e+000
1.256303e+003,-1.725464e-001
1.257268e+003,1.066162e+000
1.258232e+003,1.107544e+000
1.259196e+003,8.074036e-001
1.260160e+003,2.628387e+000
1.261125e+003,7.357849e+000
1.262089e+003,1.005093e+001
1.263053e+003,7.851501e+000
1.264017e+003,6.155731e+000
1.264982e+003,7.219025e+000
1.265946e+003,8.726196e+000
1.266910e+003,7.954407e+000
1.267874e+003,5.291046e+000
1.268839e+003,3.560181e+000
1.269803e+003,4.662933e+000
1.270767e+003,7.019867e+000
1.271731e+003,7.580261e+000
1.272695e+003,6.433197e+000
1.273660e+003,5.614655e+000
1.274624e+003,4.914642e+000
1.275588e+003,4.608276e+000
1.276552e+003,5.640717e+000
1.277517e+003,7.087402e+000
1.278481e+003,6.797913e+000
1.279445e+003,4.473236e+000
1.280409e+003,2.383423e+000
1.281374e+003,1.019470e+000
1.282338e+003,4.741821e-001
1.283302e+003,1.732910e+000
1.284266e+003,3.145569e+000
1.285230e+003,2.311951e+000
1.286195e+003,-6.033020e-001
1.287159e+003,-2.997711e+000
1.288123e+003,-2.662689e+000
1.289087e+003,-5.074463e-001
1.290052e+003,3.965759e-001
1.291016e+003,-5.344238e-001
1.291980e+003,-1.087067e+000
1.292944e+003,-1.096588e+000
1.293909e+003,-1.232513e+000
1.294873e+003,-1.553955e+000
1.295837e+003,-2.031006e+000
1.296801e+003,-2.896851e+000
1.297766e+003,-4.087189e+000
1.298730e+003,-4.660370e+000
1.299694e+003,-3.919434e+000
1.300658e+003,-2.969543e+000
1.301622e+003,-3.283234e+000
1.302587e+003,-4.004364e+000
1.303551e+003,-3.562317e+000
1.304515e+003,-1.763489e+000
1.305479e+003,-1.587830e-001
1.306444e+003,-1.573792e-001
1.307408e+003,-1.267395e+000
1.308372e+003,-1.560516e+000
1.309336e+003,-6.509705e-001
1.310301e+003,-1.510925e-001
1.311265e+003,-6.347656e-003
1.312229e+003,-2.743530e-001
1.313193e+003,-1.815613e+000
1.314157e+003,-3.288300e+000
1.315122e+003,-2.714539e+000
1.316086e+003,-4.881287e-001
1.317050e+003,7.440796e-001
1.318014e+003,-7.523193e-001
1.318979e+003,-3.539856e+000
1.319943e+003,-5.430908e+000
1.320907e+003,-6.315674e+000
1.321871e+003,-6.106628e+000
1.322836e+003,-4.644745e+000
1.323800e+003,-3.309387e+000
1.324764e+003,-3.053223e+000
1.325728e+003,-3.207245e+000
1.326693e+003,-2.451782e+000
1.327657e+003,-8.031006e-001
1.328621e+003,-2.000122e-001
1.329585e+003,-1.852844e+000
1.330549e+003,-2.611389e+000
1.331514e+003,1.729736e-001
1.332478e+003,3.124176e+000
1.333442e+003,2.508331e+000
1.334406e+003,-9.835205e-001
1.335371e+003,-3.931641e+000
1.336335e+003,-4.255585e+000
1.337299e+003,-2.924561e+000
1.338263e+003,-1.741241e+000
1.339228e+003,-6.287537e-001
1.340192e+003,-3.547668e-001
1.341156e+003,-1.877380e+000
1.342120e+003,-2.786072e+000
1.343084e+003,-1.995331e+000
1.344049e+003,-1.383667e+000
1.345013e+003,-3.040466e+000
1.345977e+003,-6.010498e+000
1.346941e+003,-7.138947e+000
1.347906e+003,-5.211304e+000
1.348870e+003,-2.941345e+000
1.349834e+003,-3.046326e+000
1.350798e+003,-4.398773e+000
1.351763e+003,-4.687408e+000
1.352727e+003,-3.982727e+000
1.353691e+003,-2.853424e+000
1.354655e+003,-1.253418e+000
1.355620e+003,-1.010742e-001
1.356584e+003,-1.052521e+000
1.357548e+003,-3.672333e+000
1.358512e+003,-4.077850e+000
1.359476e+003,-8.792419e-001
1.360441e+003,7.158813e-001
1.361405e+003,-2.752869e+000
1.362369e+003,-5.626190e+000
1.363333e+003,-4.035156e+000
1.364298e+003,-6.090088e-001
1.365262e+003,6.294556e-001
1.366226e+003,-1.130005e+000
1.367190e+003,-3.743011e+000
1.368155e+003,-5.337891e+000
1.369119e+003,-5.828979e+000
1.370083e+003,-4.785248e+000
1.371047e+003,-1.532379e+000
1.372011e+003,7.336426e-001
1.372976e+003,1.644806e+000
1.373940e+003,1.814240e+000
1.374904e+003,9.444885e-001
1.375868e+003,-8.633423e-002
1.376833e+003,-1.646118e-001
1.377797e+003,6.799622e-001
1.378761e+003,1.704132e+000
1.379725e+003,2.803436e+000
1.380690e+003,3.460602e+000
1.381654e+003,2.790619e+000
1.382618e+003,1.562042e+000
1.383582e+003,6.098633e-001
1.384547e+003,4.705811e-002
1.385511e+003,3.991699e-002
1.386475e+003,6.681213e-001
1.387439e+003,1.679230e+000
1.388403e+003,3.008331e+000
1.389368e+003,4.635101e+000
1.390332e+003,4.993286e+000
1.391296e+003,3.226471e+000
1.392260e+003,2.033936e+000
1.393225e+003,2.122467e+000
1.394189e+003,2.687988e+000
1.395153e+003,3.743866e+000
1.396117e+003,4.785400e+000
1.397082e+003,5.252106e+000
1.398046e+003,4.981140e+000
1.399010e+003,3.920654e+000
1.399974e+003,1.888000e+000
1.400938e+003,-6.525574e-001
1.401903e+003,-1.702026e+000
1.402867e+003,-4.031982e-001
1.403831e+003,4.707642e-001
1.404795e+003,3.862915e-001
1.405760e+003,2.658997e-001
1.406724e+003,2.424927e-001
1.407688e+003,4.089355e-003
1.408652e+003,-8.675842e-001
1.409617e+003,-1.989380e+000
1.410581e+003,-1.911682e+000
1.411545e+003,1.678772e-001
1.412509e+003,2.272675e+000
1.413474e+003,1.998474e+000
1.414438e+003,5.927429e-001
1.415402e+003,7.069397e-001
1.416366e+003,2.175781e+000
1.417330e+003,2.727509e+000
1.418295e+003,1.177460e+000
1.419259e+003,-4.106445e-001
1.420223e+003,7.959290e-001
1.421187e+003,4.109039e+000
1.422152e+003,5.596466e+000
1.423116e+003,4.778656e+000
1.424080e+003,3.985840e+000
1.425044e+003,3.699738e+000
1.426009e+003,3.419617e+000
1.426973e+003,2.310089e+000
1.427937e+003,1.464905e+000
1.428901e+003,3.033417e+000
1.429865e+003,6.481750e+000
1.430830e+003,8.536865e+000
1.431794e+003,7.013062e+000
1.432758e+003,3.714294e+000
1.433722e+003,2.369476e+000
1.434687e+003,3.292480e+000
1.435651e+003,4.730286e+000
1.436615e+003,6.852509e+000
1.437579e+003,8.266998e+000
1.438544e+003,8.492279e+000
1.439508e+003,8.463562e+000
1.440472e+003,9.390442e+000
1.441436e+003,1.050220e+001
1.442401e+003,9.605927e+000
1.443365e+003,6.429810e+000
1.444329e+003,4.095123e+000
1.445293e+003,5.139130e+000
1.446257e+003,7.857727e+000
1.447222e+003,8.923126e+000
1.448186e+003,8.671478e+000
1.449150e+003,9.155548e+000
1.450114e+003,1.088348e+001
1.451079e+003,1.177267e+001
1.452043e+003,1.002307e+001
1.453007e+003,7.555695e+000
1.453971e+003,7.053467e+000
1.454936e+003,8.240234e+000
1.455900e+003,9.236542e+000
1.456864e+003,9.784088e+000
1.457828e+003,9.940826e+000
1.458792e+003,9.403809e+000
1.459757e+003,8.579865e+000
1.460721e+003,7.536438e+000
1.461685e+003,6.542267e+000
1.462649e+003,6.261017e+000
1.463614e+003,6.848145e+000
1.464578e+003,7.552826e+000
1.465542e+003,7.696625e+000
1.466506e+003,7.304596e+000
1.467471e+003,6.522156e+000
1.468435e+003,5.362823e+000
1.469399e+003,4.551758e+000
1.470363e+003,3.453339e+000
1.471328e+003,3.397095e+000
1.472292e+003,5.692627e+000
1.473256e+003,7.846649e+000
1.474220e+003,7.936646e+000
1.475184e+003,6.852875e+000
1.476149e+003,6.426971e+000
1.477113e+003,7.150360e+000
1.478077e+003,8.041443e+000
1.479041e+003,8.247589e+000
1.480006e+003,8.236420e+000
1.480970e+003,9.328033e+000
1.481934e+003,1.192993e+001
1.482898e+003,1.317474e+001
1.483863e+003,1.172412e+001
1.484827e+003,1.088184e+001
1.485791e+003,1.229956e+001
1.486755e+003,1.424393e+001
1.487719e+003,1.512903e+001
1.488684e+003,1.499335e+001
1.489648e+003,1.419266e+001
1.490612e+003,1.298972e+001
1.491576e+003,1.294489e+001
1.492541e+003,1.555173e+001
1.493505e+003,1.956592e+001
1.494469e+003,2.257932e+001
1.495433e+003,2.451492e+001
1.496398e+003,2.540350e+001
1.497362e+003,2.500201e+001
1.498326e+003,2.511819e+001
1.499290e+003,2.683743e+001
1.500255e+003,2.943958e+001
1.501219e+003,3.194727e+001
1.502183e+003,3.436050e+001
1.503147e+003,3.695999e+001
1.504111e+003,3.965024e+001
1.505076e+003,4.336520e+001
1.506040e+003,4.922070e+001
1.507004e+003,5.584821e+001
1.507968e+003,6.180341e+001
1.508933e+003,6.746271e+001
1.509897e+003,7.340814e+001
1.510861e+003,8.004596e+001
1.511825e+003,8.816879e+001
1.512790e+003,9.832068e+001
1.513754e+003,1.098041e+002
1.514718e+003,1.219268e+002
1.515682e+003,1.345261e+002
1.516646e+003,1.456183e+002
1.517611e+003,1.544354e+002
1.518575e+003,1.636467e+002
1.519539e+003,1.754821e+002
1.520503e+003,1.867786e+002
1.521468e+003,1.968098e+002
1.522432e+003,2.046489e+002
1.523396e+003,2.092522e+002
1.524360e+003,2.104975e+002
1.525325e+003,2.089754e+002
1.526289e+003,2.051154e+002
1.527253e+003,1.992038e+002
1.528217e+003,1.913976e+002
1.529182e+003,1.817909e+002
1.530146e+003,1.736075e+002
1.531110e+003,1.695887e+002
1.532074e+003,1.614312e+002
1.533039e+003,1.455672e+002
1.534003e+003,1.287438e+002
1.534967e+003,1.132199e+002
1.535931e+003,9.943936e+001
1.536896e+003,8.811469e+001
1.537860e+003,7.866754e+001
1.538824e+003,6.897510e+001
1.539788e+003,5.797720e+001
1.540752e+003,4.759854e+001
1.541717e+003,4.047147e+001
1.542681e+003,3.623087e+001
1.543645e+003,3.174014e+001
1.544609e+003,2.659860e+001
1.545573e+003,2.278568e+001
1.546538e+003,2.069763e+001
1.547502e+003,1.893347e+001
1.548466e+003,1.674973e+001
1.549430e+003,1.520996e+001
1.550395e+003,1.584219e+001
1.551359e+003,1.785977e+001
1.552323e+003,1.899155e+001
1.553287e+003,1.848923e+001
1.554252e+003,1.763715e+001
1.555216e+003,1.767365e+001
1.556180e+003,1.770139e+001
1.557144e+003,1.506769e+001
1.558109e+003,9.742157e+000
1.559073e+003,7.444427e+000
1.560037e+003,9.637329e+000
1.561001e+003,1.153165e+001
1.561966e+003,1.164664e+001
1.562930e+003,1.113406e+001
1.563894e+003,1.059363e+001
1.564858e+003,1.020410e+001
1.565823e+003,1.048672e+001
1.566787e+003,1.147253e+001
1.567751e+003,1.241916e+001
1.568715e+003,1.310657e+001
1.569679e+003,1.317899e+001
1.570644e+003,1.178748e+001
1.571608e+003,9.350067e+000
1.572572e+003,6.894958e+000
1.573536e+003,4.501495e+000
1.574500e+003,4.484131e+000
1.575465e+003,8.986145e+000
1.576429e+003,1.378012e+001
1.577393e+003,1.527460e+001
1.578357e+003,1.464395e+001
1.579322e+003,1.412613e+001
1.580286e+003,1.393982e+001
1.581250e+003,1.388248e+001
1.582214e+003,1.401859e+001
1.583179e+003,1.372198e+001
1.584143e+003,1.189310e+001
1.585107e+003,9.813324e+000
1.586071e+003,9.767822e+000
1.587036e+003,1.115701e+001
1.588000e+003,1.132263e+001
1.588964e+003,9.471802e+000
1.589928e+003,8.280792e+000
1.590893e+003,9.857239e+000
1.591857e+003,1.280441e+001
1.592821e+003,1.548401e+001
1.593785e+003,1.777505e+001
1.594750e+003,1.876578e+001
1.595714e+003,1.817273e+001
1.596678e+003,1.674976e+001
1.597642e+003,1.338110e+001
1.598606e+003,1.145108e+001
1.599571e+003,1.593832e+001
1.600535e+003,2.209698e+001
1.601499e+003,2.317685e+001
1.602463e+003,1.953497e+001
1.603427e+003,1.590283e+001
1.604392e+003,1.406024e+001
1.605356e+003,1.383603e+001
1.606320e+003,1.600003e+001
1.607284e+003,1.934625e+001
1.608249e+003,2.002164e+001
1.609213e+003,1.790665e+001
1.610177e+003,1.687723e+001
1.611141e+003,1.803403e+001
1.612106e+003,1.915869e+001
1.613070e+003,1.930972e+001
1.614034e+003,1.886710e+001
1.614998e+003,1.772333e+001
1.615963e+003,1.633374e+001
1.616927e+003,1.532062e+001
1.617891e+003,1.478711e+001
1.618855e+003,1.463635e+001
1.619820e+003,1.475470e+001
1.620784e+003,1.507666e+001
1.621748e+003,1.621573e+001
1.622712e+003,1.800394e+001
1.623677e+003,1.763394e+001
1.624641e+003,1.444986e+001
1.625605e+003,1.304941e+001
1.626569e+003,1.491510e+001
1.627533e+003,1.715231e+001
1.628498e+003,1.930203e+001
1.629462e+003,2.072043e+001
1.630426e+003,2.032761e+001
1.631390e+003,1.882077e+001
1.632354e+003,1.767981e+001
1.633319e+003,1.728278e+001
1.634283e+003,1.725153e+001
1.635247e+003,1.735040e+001
1.636211e+003,1.742319e+001
1.637176e+003,1.700522e+001
1.638140e+003,1.625775e+001
1.639104e+003,1.700974e+001
1.640068e+003,1.994177e+001
1.641033e+003,2.166614e+001
1.641997e+003,2.084805e+001
1.642961e+003,1.949722e+001
1.643925e+003,1.854474e+001
1.644890e+003,1.763037e+001
1.645854e+003,1.599567e+001
1.646818e+003,1.410141e+001
1.647782e+003,1.321085e+001
1.648747e+003,1.368213e+001
1.649711e+003,1.487103e+001
1.650675e+003,1.645419e+001
1.651639e+003,1.823193e+001
1.652604e+003,2.024835e+001
1.653568e+003,2.231503e+001
1.654532e+003,2.009247e+001
1.655496e+003,1.117023e+001
1.656460e+003,5.952393e+000
1.657425e+003,1.039185e+001
1.658389e+003,1.529306e+001
1.659353e+003,1.522260e+001
1.660317e+003,1.336905e+001
1.661281e+003,1.318600e+001
1.662246e+003,1.430197e+001
1.663210e+003,1.452823e+001
1.664174e+003,1.322739e+001
1.665138e+003,1.199826e+001
1.666103e+003,1.243179e+001
1.667067e+003,1.322708e+001
1.668031e+003,1.106036e+001
1.668995e+003,6.341248e+000
1.669960e+003,5.013611e+000
1.670924e+003,8.549591e+000
1.671888e+003,1.110931e+001
1.672852e+003,9.926605e+000
1.673817e+003,8.622406e+000
1.674781e+003,9.701599e+000
1.675745e+003,1.167752e+001
1.676709e+003,1.347580e+001
1.677674e+003,1.466385e+001
1.678638e+003,1.411938e+001
1.679602e+003,1.152579e+001
1.680566e+003,9.196594e+000
1.681531e+003,9.170685e+000
1.682495e+003,1.030646e+001
1.683459e+003,1.067938e+001
1.684423e+003,1.026639e+001
1.685387e+003,9.193939e+000
1.686352e+003,7.343933e+000
1.687316e+003,6.276001e+000
1.688280e+003,6.624023e+000
1.689244e+003,7.593384e+000
1.690208e+003,9.410736e+000
1.691173e+003,1.090292e+001
1.692137e+003,1.049429e+001
1.693101e+003,8.764252e+000
1.694065e+003,7.306732e+000
1.695030e+003,6.381256e+000
1.695994e+003,5.789886e+000
1.696958e+003,5.539642e+000
1.697922e+003,5.555603e+000
1.698887e+003,6.042542e+000
1.699851e+003,6.704742e+000
1.700815e+003,6.346161e+000
1.701779e+003,4.833466e+000
1.702744e+003,3.377014e+000
1.703708e+003,2.341034e+000
1.704672e+003,2.134705e+000
1.705636e+003,3.321259e+000
1.706601e+003,4.872681e+000
1.707565e+003,5.688873e+000
1.708529e+003,5.869110e+000
1.709493e+003,5.229553e+000
1.710458e+003,3.647797e+000
1.711422e+003,2.007294e+000
1.712386e+003,4.819336e-001
1.713350e+003,-5.466309e-001
1.714314e+003,-1.024689e+000
1.715279e+003,-9.156494e-001
1.716243e+003,5.098267e-001
1.717207e+003,2.807251e+000
1.718171e+003,3.570190e+000
1.719135e+003,2.165009e+000
1.720100e+003,9.835510e-001
1.721064e+003,1.664368e+000
1.722028e+003,2.984497e+000
1.722992e+003,3.314514e+000
1.723957e+003,2.966217e+000
1.724921e+003,3.032623e+000
1.725885e+003,3.434326e+000
1.726849e+003,3.306183e+000
1.727814e+003,2.070129e+000
1.728778e+003,1.366791e+000
1.729742e+003,2.360077e+000
1.730706e+003,3.689697e+000
1.731671e+003,3.832642e+000
1.732635e+003,3.085815e+000
1.733599e+003,2.704803e+000
1.734563e+003,2.906769e+000
1.735528e+003,2.538361e+000
1.736492e+003,9.352722e-001
1.737456e+003,-5.944519e-001
1.738420e+003,-4.052429e-001
1.739385e+003,7.843628e-001
1.740349e+003,6.258850e-001
1.741313e+003,-1.272400e+000
1.742277e+003,-2.022491e+000
1.743241e+003,-7.529297e-001
1.744206e+003,4.205627e-001
1.745170e+003,1.328827e+000
1.746134e+003,1.837555e+000
1.747098e+003,1.940521e+000
1.748063e+003,1.542084e+000
1.749027e+003,1.492920e-001
1.749991e+003,-1.729401e+000
1.750955e+003,-2.888092e+000
1.751919e+003,-2.988007e+000
1.752884e+003,-2.766266e+000
1.753848e+003,-2.833984e+000
1.754812e+003,-2.958374e+000
1.755776e+003,-2.527191e+000
1.756741e+003,-1.459167e+000
1.757705e+003,-8.020935e-001
1.758669e+003,-8.283386e-001
1.759633e+003,-7.662048e-001
1.760598e+003,-2.293396e-001
1.761562e+003,-2.651672e-001
1.762526e+003,-1.368988e+000
1.763490e+003,-2.692017e+000
1.764455e+003,-4.003174e+000
1.765419e+003,-4.918701e+000
1.766383e+003,-5.188324e+000
1.767347e+003,-4.708862e+000
1.768312e+003,-2.695679e+000
1.769276e+003,1.250549e+000
1.770240e+003,4.191437e+000
1.771204e+003,2.667999e+000
1.772168e+003,-1.223694e+000
1.773133e+003,-2.976715e+000
1.774097e+003,-2.790680e+000
1.775061e+003,-2.490601e+000
1.776025e+003,-2.315277e+000
1.776990e+003,-2.633789e+000
1.777954e+003,-3.936829e+000
1.778918e+003,-4.477661e+000
1.779882e+003,-2.137665e+000
1.780846e+003,7.449646e-001
1.781811e+003,6.219177e-001
1.782775e+003,-1.448578e+000
1.783739e+003,-1.813812e+000
1.784703e+003,2.573853e-001
1.785668e+003,1.884613e+000
1.786632e+003,1.319946e+000
1.787596e+003,3.957825e-001
1.788560e+003,9.578857e-001
1.789525e+003,1.948212e+000
1.790489e+003,1.461426e+000
1.791453e+003,-1.262512e-001
1.792417e+003,-1.064545e+000
1.793382e+003,-1.031372e+000
1.794346e+003,-1.274261e+000
1.795310e+003,-2.546204e+000
1.796274e+003,-3.341431e+000
1.797239e+003,-1.580170e+000
1.798203e+003,1.699860e+000
1.799167e+003,2.569763e+000
1.800131e+003,2.750549e-001
1.801095e+003,-1.175323e+000
1.802060e+003,-7.846375e-001
1.803024e+003,-7.198181e-001
1.803988e+003,-1.712067e+000
1.804952e+003,-2.605865e+000
1.805917e+003,-3.027252e+000
1.806881e+003,-2.950073e+000
1.807845e+003,-1.880829e+000
1.808809e+003,-4.294434e-001
1.809773e+003,1.077881e-001
1.810738e+003,-4.224243e-001
1.811702e+003,-9.971619e-001
1.812666e+003,-9.836426e-001
1.813630e+003,-6.512451e-001
1.814595e+003,-3.226013e-001
1.815559e+003,-6.137085e-002
1.816523e+003,6.820679e-002
1.817487e+003,1.260376e-001
1.818452e+003,-3.348999e-001
1.819416e+003,-1.493408e+000
1.820380e+003,-2.387787e+000
1.821344e+003,-3.216858e+000
1.822309e+003,-3.318451e+000
1.823273e+003,-1.395050e+000
1.824237e+003,8.782043e-001
1.825201e+003,1.911896e+000
1.826166e+003,1.720886e+000
1.827130e+003,1.352844e-001
1.828094e+003,-2.806427e+000
1.829058e+003,-4.198639e+000
1.830022e+003,-1.847076e+000
1.830987e+003,9.177856e-001
1.831951e+003,1.063416e+000
1.832915e+003,1.538391e-001
1.833879e+003,8.904724e-001
1.834844e+003,2.487885e+000
1.835808e+003,1.666840e+000
1.836772e+003,-1.658051e+000
1.837736e+003,-3.283020e+000
1.838700e+003,-1.378143e+000
1.839665e+003,1.090454e+000
1.840629e+003,1.571869e+000
1.841593e+003,6.115417e-001
1.842557e+003,-9.017944e-001
1.843522e+003,-2.955383e+000
1.844486e+003,-4.206512e+000
1.845450e+003,-4.032684e+000
1.846414e+003,-3.919220e+000
1.847379e+003,-4.685974e+000
1.848343e+003,-4.791443e+000
1.849307e+003,-2.749207e+000
1.850271e+003,-8.317566e-001
1.851236e+003,-5.587158e-001
1.852200e+003,-1.385162e+000
1.853164e+003,-3.337830e+000
1.854128e+003,-5.608429e+000
1.855093e+003,-5.822021e+000
1.856057e+003,-3.202423e+000
1.857021e+003,-1.033630e-001
1.857985e+003,1.509369e+000
1.858949e+003,2.101898e+000
1.859914e+003,2.405487e+000
1.860878e+003,2.473175e+000
1.861842e+003,2.482880e+000
1.862806e+003,2.402405e+000
1.863771e+003,1.552032e+000
1.864735e+003,-5.644836e-001
1.865699e+003,-1.917419e+000
1.866663e+003,-1.235199e+000
1.867627e+003,-4.364014e-002
1.868592e+003,3.502502e-001
1.869556e+003,1.009216e-001
1.870520e+003,-4.804688e-001
1.871484e+003,-1.294800e+000
1.872449e+003,-1.591217e+000
1.873413e+003,-9.830017e-001
1.874377e+003,3.341980e-001
1.875341e+003,3.140045e+000
1.876306e+003,4.954559e+000
1.877270e+003,3.457825e+000
1.878234e+003,1.164612e+000
1.879198e+003,7.794495e-001
1.880163e+003,1.546326e+000
1.881127e+003,1.567261e+000
1.882091e+003,8.448486e-001
1.883055e+003,1.062988e+000
1.884020e+003,2.738373e+000
1.884984e+003,3.851746e+000
1.885948e+003,2.536285e+000
1.886912e+003,1.879883e-002
1.887876e+003,-1.292328e+000
1.888841e+003,-1.442780e+000
1.889805e+003,-1.142303e+000
1.890769e+003,-4.651489e-001
1.891733e+003,1.313263e+000
1.892698e+003,5.345886e+000
1.893662e+003,7.526276e+000
1.894626e+003,5.260010e+000
1.895590e+003,2.398712e+000
1.896554e+003,1.336121e+000
1.897519e+003,1.445007e+000
1.898483e+003,2.123535e+000
1.899447e+003,3.134583e+000
1.900411e+003,4.314545e+000
1.901376e+003,5.718170e+000
1.902340e+003,6.636658e+000
1.903304e+003,6.904327e+000
1.904268e+003,6.421814e+000
1.905233e+003,4.713593e+000
1.906197e+003,2.717468e+000
1.907161e+003,1.043671e+000
1.908125e+003,2.658081e-002
1.909090e+003,2.871399e-001
1.910054e+003,1.508026e+000
1.911018e+003,2.814270e+000
1.911982e+003,3.852661e+000
1.912947e+003,4.174286e+000
1.913911e+003,3.413940e+000
1.914875e+003,2.432220e+000
1.915839e+003,2.525879e+000
1.916803e+003,3.455383e+000
1.917768e+003,4.696594e+000
1.918732e+003,6.592499e+000
1.919696e+003,7.090881e+000
1.920660e+003,5.876038e+000
1.921625e+003,4.205261e+000
1.922589e+003,1.275848e+000
1.923553e+003,-5.046082e-001
1.924517e+003,1.348816e+000
1.925481e+003,3.874023e+000
1.926446e+003,4.569153e+000
1.927410e+003,4.028625e+000
1.928374e+003,3.231262e+000
1.929338e+003,2.271851e+000
1.930303e+003,1.766815e+000
1.931267e+003,2.116180e+000
1.932231e+003,2.745514e+000
1.933195e+003,3.380554e+000
1.934160e+003,3.959076e+000
1.935124e+003,4.782593e+000
1.936088e+003,5.176208e+000
1.937052e+003,4.060455e+000
1.938017e+003,2.153961e+000
1.938981e+003,7.548218e-001
1.939945e+003,2.052307e-001
1.940909e+003,6.757507e-001
1.941874e+003,2.090118e+000
1.942838e+003,3.421936e+000
1.943802e+003,3.823059e+000
1.944766e+003,3.732086e+000
1.945730e+003,3.708801e+000
1.946695e+003,3.702118e+000
1.947659e+003,4.045319e+000
1.948623e+003,4.745667e+000
1.949587e+003,5.495941e+000
1.950552e+003,6.604004e+000
1.951516e+003,6.498566e+000
1.952480e+003,3.860321e+000
1.953444e+003,1.617615e+000
1.954408e+003,2.337921e+000
1.955373e+003,3.892975e+000
1.956337e+003,2.811035e+000
1.957301e+003,3.157349e-001
1.958265e+003,7.071228e-001
1.959230e+003,4.565643e+000
1.960194e+003,7.232880e+000
1.961158e+003,7.298706e+000
1.962122e+003,6.893677e+000
1.963087e+003,6.131866e+000
1.964051e+003,5.614563e+000
1.965015e+003,6.236359e+000
1.965979e+003,7.015320e+000
1.966944e+003,6.520355e+000
1.967908e+003,5.376770e+000
1.968872e+003,4.963196e+000
1.969836e+003,5.480316e+000
1.970801e+003,6.501007e+000
1.971765e+003,7.771759e+000
1.972729e+003,8.463226e+000
1.973693e+003,7.674469e+000
1.974657e+003,6.492767e+000
1.975622e+003,6.533234e+000
1.976586e+003,7.381714e+000
1.977550e+003,8.075958e+000
1.978514e+003,8.684204e+000
1.979479e+003,9.788147e+000
1.980443e+003,1.134607e+001
1.981407e+003,1.167642e+001
1.982371e+003,1.015939e+001
1.983335e+003,8.012329e+000
1.984300e+003,5.899048e+000
1.985264e+003,4.481445e+000
1.986228e+003,5.078674e+000
1.987192e+003,7.131073e+000
1.988157e+003,7.655243e+000
1.989121e+003,6.187195e+000
1.990085e+003,5.929352e+000
1.991049e+003,8.385742e+000
1.992014e+003,9.142914e+000
1.992978e+003,5.852753e+000
1.993942e+003,3.152649e+000
1.994906e+003,2.586243e+000
1.995871e+003,3.192780e+000
1.996835e+003,5.059357e+000
1.997799e+003,7.266846e+000
1.998763e+003,8.524384e+000
1.999728e+003,8.790741e+000
