5.003444e+002,3.922052e+001
5.013087e+002,4.070035e+001
5.022729e+002,3.490820e+001
5.032371e+002,2.497632e+001
5.042014e+002,2.101486e+001
5.051656e+002,2.224942e+001
5.061298e+002,2.538669e+001
5.070941e+002,2.759326e+001
5.080583e+002,2.871356e+001
5.090225e+002,2.884985e+001
5.099868e+002,2.728290e+001
5.109510e+002,2.579553e+001
5.119152e+002,2.551868e+001
5.128795e+002,2.660812e+001
5.138437e+002,2.727057e+001
5.148079e+002,2.634171e+001
5.157722e+002,2.546719e+001
5.167364e+002,2.537695e+001
5.177006e+002,2.601764e+001
5.186649e+002,2.665460e+001
5.196291e+002,2.661603e+001
5.205933e+002,2.631622e+001
5.215576e+002,2.590579e+001
5.225218e+002,2.525659e+001
5.234860e+002,2.423282e+001
5.244503e+002,2.277884e+001
5.254145e+002,2.099927e+001
5.263787e+002,1.937027e+001
5.273430e+002,1.739224e+001
5.283072e+002,1.587900e+001
5.292714e+002,1.612918e+001
5.302357e+002,1.917142e+001
5.311999e+002,2.115179e+001
5.321641e+002,2.163440e+001
5.331284e+002,2.155826e+001
5.340926e+002,2.163593e+001
5.350568e+002,2.206329e+001
5.360211e+002,2.181934e+001
5.369853e+002,1.963809e+001
5.379495e+002,1.702136e+001
5.389138e+002,1.480563e+001
5.398780e+002,1.343195e+001
5.408422e+002,1.308054e+001
5.418065e+002,1.518854e+001
5.427707e+002,1.925299e+001
5.437349e+002,2.129440e+001
5.446992e+002,1.964764e+001
5.456634e+002,1.558932e+001
5.466276e+002,1.375101e+001
5.475919e+002,1.808334e+001
5.485561e+002,1.987186e+001
5.495203e+002,1.668256e+001
5.504846e+002,1.132358e+001
5.514488e+002,8.013855e+000
5.524130e+002,9.050934e+000
5.533773e+002,1.074310e+001
5.543415e+002,1.150961e+001
5.553057e+002,1.157983e+001
5.562700e+002,1.094150e+001
5.572342e+002,9.575989e+000
5.581984e+002,7.987732e+000
5.591627e+002,7.364563e+000
5.601269e+002,7.637695e+000
5.610911e+002,9.043121e+000
5.620554e+002,1.180914e+001
5.630196e+002,1.544452e+001
5.639838e+002,1.604453e+001
5.649481e+002,1.088992e+001
5.659123e+002,6.711182e+000
5.668765e+002,5.273438e+000
5.678408e+002,5.874481e+000
5.688050e+002,6.172180e+000
5.697692e+002,4.740662e+000
5.707335e+002,3.623901e+000
5.716977e+002,3.758789e+000
5.726619e+002,4.599213e+000
5.736262e+002,5.467255e+000
5.745904e+002,5.985504e+000
5.755546e+002,6.184631e+000
5.765189e+002,5.817474e+000
5.774831e+002,5.011780e+000
5.784473e+002,4.200287e+000
5.794116e+002,3.761993e+000
5.803758e+002,3.809021e+000
5.813400e+002,4.220123e+000
5.823043e+002,5.136444e+000
5.832685e+002,5.256592e+000
5.842327e+002,3.476715e+000
5.851970e+002,4.198914e-001
5.861612e+002,-6.134644e-001
5.871254e+002,3.389191e+000
5.880897e+002,6.402954e+000
5.890539e+002,6.712616e+000
5.900181e+002,5.266388e+000
5.909824e+002,3.834229e+000
5.919466e+002,3.540222e+000
5.929108e+002,3.753235e+000
5.938751e+002,3.941803e+000
5.948393e+002,3.970154e+000
5.958035e+002,3.454620e+000
5.967678e+002,2.167175e+000
5.977320e+002,4.565735e-001
5.986962e+002,9.407043e-001
5.996605e+002,3.475433e+000
6.006247e+002,5.319824e+000
6.015889e+002,4.992249e+000
6.025532e+002,2.672516e+000
6.035174e+002,7.589111e-001
6.044816e+002,-5.535278e-001
6.054459e+002,-1.527771e+000
6.064101e+002,-2.093597e+000
6.073743e+002,-2.374878e+000
6.083386e+002,-2.476410e+000
6.093028e+002,-2.209991e+000
6.102670e+002,-2.174072e+000
6.112313e+002,-3.684753e+000
6.121955e+002,-5.449829e+000
6.131597e+002,-5.478027e+000
6.141240e+002,-2.465363e+000
6.150882e+002,2.483521e+000
6.160524e+002,4.871887e+000
6.170167e+002,5.246796e+000
6.179809e+002,4.610565e+000
6.189451e+002,2.697968e+000
6.199094e+002,-1.679993e-001
6.208736e+002,-7.656555e-001
6.218378e+002,4.157654e+000
6.228021e+002,8.184387e+000
6.237663e+002,1.137946e+001
6.247305e+002,1.326566e+001
6.256948e+002,1.276239e+001
6.266590e+002,8.230103e+000
6.276232e+002,3.425537e+000
6.285875e+002,6.184692e-001
6.295517e+002,-8.624573e-001
6.305159e+002,-1.613129e+000
6.314802e+002,-2.060730e+000
6.324444e+002,-2.375580e+000
6.334086e+002,-2.934540e+000
6.343729e+002,-3.437073e+000
6.353371e+002,-3.155609e+000
6.363013e+002,-1.750305e+000
6.372656e+002,3.381653e-001
6.382298e+002,1.718994e+000
6.391940e+002,2.429657e+000
6.401583e+002,1.960541e+000
6.411225e+002,-5.307617e-001
6.420867e+002,-3.369629e+000
6.430510e+002,-4.564789e+000
6.440152e+002,-3.303802e+000
6.449794e+002,-2.091827e+000
6.459437e+002,-2.431366e+000
6.469079e+002,-3.194122e+000
6.478721e+002,-3.548859e+000
6.488364e+002,-3.124329e+000
6.498006e+002,-2.092316e+000
6.507648e+002,-4.642029e-001
6.517291e+002,1.340546e+000
6.526933e+002,2.444672e+000
6.536575e+002,2.670685e+000
6.546218e+002,2.079803e+000
6.555860e+002,6.977844e-001
6.565502e+002,-2.523621e+000
6.575145e+002,-4.158813e+000
6.584787e+002,-2.913483e+000
6.594429e+002,-1.304352e+000
6.604072e+002,-1.680420e+000
6.613714e+002,-4.628052e+000
6.623356e+002,-6.640442e+000
6.632999e+002,-5.462097e+000
6.642641e+002,-3.703735e+000
6.652283e+002,-2.192993e+000
6.661926e+002,-1.176208e+000
6.671568e+002,-6.947632e-001
6.681210e+002,-1.256195e+000
6.690853e+002,-2.223145e+000
6.700495e+002,-1.421661e+000
6.710137e+002,1.049225e+000
6.719780e+002,3.304626e+000
6.729422e+002,3.223755e+000
6.739064e+002,1.502380e-001
6.748707e+002,-1.832245e+000
6.758349e+002,-2.322937e+000
6.767991e+002,-2.618225e+000
6.777634e+002,-2.909454e+000
6.787276e+002,-3.145386e+000
6.796918e+002,-3.687866e+000
6.806561e+002,-6.193878e+000
6.816203e+002,-7.586823e+000
6.825845e+002,-5.749268e+000
6.835488e+002,-2.165802e+000
6.845130e+002,8.629761e-001
6.854772e+002,1.709167e+000
6.864415e+002,9.696045e-001
6.874057e+002,-8.863831e-001
6.883699e+002,-3.467010e+000
6.893342e+002,-5.038361e+000
6.902984e+002,-4.499298e+000
6.912626e+002,-2.144135e+000
6.922269e+002,-4.172668e-001
6.931911e+002,1.084900e+000
6.941553e+002,1.896149e+000
6.951196e+002,1.544250e+000
6.960838e+002,2.844849e-001
6.970480e+002,-1.642517e+000
6.980123e+002,-4.885406e+000
6.989765e+002,-6.592224e+000
6.999407e+002,-4.521667e+000
7.009050e+002,-1.676697e+000
7.018692e+002,-7.255859e-001
7.028334e+002,-2.422272e+000
7.037977e+002,-4.871643e+000
7.047619e+002,-4.828888e+000
7.057261e+002,-3.130249e+000
7.066904e+002,-1.831116e+000
7.076546e+002,-1.266693e+000
7.086188e+002,-7.265625e-001
7.095831e+002,1.017639e+000
7.105473e+002,4.784332e+000
7.115115e+002,6.633087e+000
7.124758e+002,5.694153e+000
7.134400e+002,4.034210e+000
7.144042e+002,3.049255e+000
7.153685e+002,2.845093e+000
7.163327e+002,2.083435e+000
7.172969e+002,-6.105042e-001
7.182612e+002,-3.274048e+000
7.192254e+002,-5.991852e+000
7.201896e+002,-8.068024e+000
7.211539e+002,-8.058441e+000
7.221181e+002,-4.423401e+000
7.230823e+002,9.768066e-001
7.240466e+002,3.389679e+000
7.250108e+002,3.439850e+000
7.259750e+002,2.075745e+000
7.269393e+002,-6.434937e-001
7.279035e+002,-4.538452e+000
7.288677e+002,-6.485046e+000
7.298320e+002,-3.561157e+000
7.307962e+002,-1.483002e+000
7.317604e+002,-1.110077e+000
7.327247e+002,-1.533417e+000
7.336889e+002,-1.503082e+000
7.346531e+002,-6.939392e-001
7.356174e+002,-7.781677e-001
7.365816e+002,-3.320160e+000
7.375458e+002,-5.850922e+000
7.385101e+002,-6.054565e+000
7.394743e+002,-3.669037e+000
7.404385e+002,-7.579651e-001
7.414028e+002,-7.763062e-001
7.423670e+002,-3.344818e+000
7.433312e+002,-4.401428e+000
7.442955e+002,-3.282806e+000
7.452597e+002,-1.441956e+000
7.462239e+002,-8.117981e-001
7.471882e+002,-2.066620e+000
7.481524e+002,-1.948364e+000
7.491166e+002,1.197968e+000
7.500809e+002,3.066864e+000
7.510451e+002,6.228333e-001
7.520093e+002,-4.687775e+000
7.529736e+002,-7.395050e+000
7.539378e+002,-2.756287e+000
7.549020e+002,2.216492e+000
7.558663e+002,2.731842e+000
7.568306e+002,7.642212e-001
7.577948e+002,-1.055481e+000
7.587590e+002,-1.183289e+000
7.597233e+002,-3.413391e-001
7.606875e+002,-2.785339e-001
7.616517e+002,-7.473755e-001
7.626160e+002,-8.015442e-001
7.635802e+002,-4.345703e-002
7.645444e+002,1.176208e+000
7.655087e+002,2.056702e+000
7.664729e+002,2.319336e+000
7.674371e+002,2.697510e+000
7.684014e+002,3.808380e+000
7.693656e+002,4.507172e+000
7.703298e+002,3.759857e+000
7.712941e+002,1.641144e+000
7.722583e+002,-2.533569e-001
7.732225e+002,-4.588013e-001
7.741868e+002,-2.698975e-001
7.751510e+002,-6.336670e-001
7.761152e+002,-1.476440e+000
7.770795e+002,-2.604828e+000
7.780437e+002,-3.888855e+000
7.790079e+002,-5.205475e+000
7.799722e+002,-4.517120e+000
7.809364e+002,-1.618713e+000
7.819006e+002,6.138916e-001
7.828649e+002,1.243927e+000
7.838291e+002,5.919800e-001
7.847933e+002,-7.965698e-001
7.857576e+002,-4.484650e+000
7.867218e+002,-6.647339e+000
7.876860e+002,-5.766357e+000
7.886503e+002,-3.616486e+000
7.896145e+002,-1.528168e+000
7.905787e+002,8.520508e-002
7.915430e+002,1.606415e+000
7.925072e+002,3.411224e+000
7.934714e+002,4.987091e+000
7.944357e+002,6.167114e+000
7.953999e+002,6.953857e+000
7.963641e+002,7.037872e+000
7.973284e+002,5.915253e+000
7.982926e+002,3.449951e+000
7.992568e+002,2.703003e+000
8.002211e+002,4.080414e+000
8.011853e+002,5.084137e+000
8.021495e+002,5.178741e+000
8.031138e+002,4.734100e+000
8.040780e+002,4.047943e+000
8.050422e+002,2.011627e+000
8.060065e+002,1.208557e+000
8.069707e+002,3.832184e+000
8.079349e+002,6.864868e+000
8.088992e+002,6.851074e+000
8.098634e+002,2.948273e+000
8.108276e+002,-1.492645e+000
8.117919e+002,-1.482574e+000
8.127561e+002,9.982300e-001
8.137203e+002,2.921631e+000
8.146846e+002,4.096405e+000
8.156488e+002,4.321838e+000
8.166130e+002,2.909790e+000
8.175773e+002,-9.428406e-001
8.185415e+002,-1.795349e+000
8.195057e+002,2.788300e+000
8.204700e+002,6.420380e+000
8.214342e+002,6.414795e+000
8.223984e+002,3.840271e+000
8.233627e+002,1.661316e+000
8.243269e+002,8.095703e-001
8.252911e+002,8.543091e-001
8.262554e+002,1.691254e+000
8.272196e+002,2.868408e+000
8.281838e+002,4.041382e+000
8.291481e+002,4.995819e+000
8.301123e+002,5.584564e+000
8.310765e+002,5.462189e+000
8.320408e+002,4.609467e+000
8.330050e+002,3.862701e+000
8.339692e+002,3.342224e+000
8.349335e+002,2.856903e+000
8.358977e+002,2.131378e+000
8.368619e+002,1.134552e+000
8.378262e+002,9.777832e-001
8.387904e+002,2.295654e+000
8.397546e+002,3.437164e+000
8.407189e+002,4.032593e+000
8.416831e+002,4.209167e+000
8.426473e+002,4.098999e+000
8.436116e+002,3.620483e+000
8.445758e+002,3.632080e+000
8.455400e+002,5.764069e+000
8.465043e+002,8.113007e+000
8.474685e+002,8.502716e+000
8.484327e+002,6.623383e+000
8.493970e+002,3.867249e+000
8.503612e+002,2.289520e+000
8.513254e+002,1.962067e+000
8.522897e+002,2.221252e+000
8.532539e+002,3.461182e+000
8.542181e+002,4.454742e+000
8.551824e+002,3.951050e+000
8.561466e+002,2.526794e+000
8.571108e+002,3.703522e+000
8.580751e+002,1.151022e+001
8.590393e+002,1.646906e+001
8.600035e+002,1.402515e+001
8.609678e+002,8.456970e+000
8.619320e+002,4.390137e+000
8.628962e+002,3.724609e+000
8.638605e+002,4.720215e+000
8.648247e+002,5.098541e+000
8.657889e+002,5.139832e+000
8.667532e+002,5.507843e+000
8.677174e+002,6.287506e+000
8.686816e+002,7.404114e+000
8.696459e+002,8.919037e+000
8.706101e+002,1.105896e+001
8.715743e+002,1.257468e+001
8.725386e+002,1.333527e+001
8.735028e+002,1.376901e+001
8.744670e+002,1.315967e+001
8.754313e+002,1.220062e+001
8.763955e+002,1.264664e+001
8.773597e+002,1.574173e+001
8.783240e+002,1.830270e+001
8.792882e+002,1.698691e+001
8.802524e+002,1.466513e+001
8.812167e+002,1.406177e+001
8.821809e+002,1.553845e+001
8.831451e+002,1.746674e+001
8.841094e+002,1.775000e+001
8.850736e+002,1.658395e+001
8.860378e+002,1.601208e+001
8.870021e+002,1.578650e+001
8.879663e+002,1.633640e+001
8.889305e+002,1.860565e+001
8.898948e+002,2.195740e+001
8.908590e+002,2.320807e+001
8.918232e+002,2.041745e+001
8.927875e+002,1.870978e+001
8.937517e+002,1.985690e+001
8.947159e+002,2.189255e+001
8.956802e+002,2.319135e+001
8.966444e+002,2.323804e+001
8.976086e+002,2.247314e+001
8.985729e+002,2.108218e+001
8.995371e+002,1.984030e+001
9.005013e+002,1.987720e+001
9.014656e+002,2.111044e+001
9.024298e+002,2.272961e+001
9.033940e+002,2.409000e+001
9.043583e+002,2.496082e+001
9.053225e+002,2.472391e+001
9.062867e+002,2.125714e+001
9.072510e+002,1.921820e+001
9.082152e+002,2.011307e+001
9.091794e+002,2.198630e+001
9.101437e+002,2.255374e+001
9.111079e+002,2.141483e+001
9.120721e+002,2.111029e+001
9.130364e+002,2.467734e+001
9.140006e+002,2.782294e+001
9.149648e+002,2.746942e+001
9.159291e+002,2.497760e+001
9.168933e+002,2.339633e+001
9.178575e+002,2.475180e+001
9.188218e+002,2.788669e+001
9.197860e+002,2.923352e+001
9.207502e+002,2.874127e+001
9.217145e+002,2.720444e+001
9.226787e+002,2.416232e+001
9.236429e+002,2.113803e+001
9.246072e+002,2.026382e+001
9.255714e+002,2.187671e+001
9.265356e+002,2.306390e+001
9.274999e+002,2.308032e+001
9.284641e+002,2.272305e+001
9.294283e+002,2.224561e+001
9.303926e+002,2.173883e+001
9.313568e+002,2.117618e+001
9.323210e+002,2.051572e+001
9.332853e+002,1.988474e+001
9.342495e+002,1.951288e+001
9.352137e+002,1.926926e+001
9.361780e+002,1.926028e+001
9.371422e+002,1.963724e+001
9.381064e+002,2.012979e+001
9.390707e+002,2.015213e+001
9.400349e+002,1.938541e+001
9.409991e+002,1.891623e+001
9.419634e+002,1.893069e+001
9.429276e+002,1.886029e+001
9.438918e+002,1.848563e+001
9.448561e+002,1.803391e+001
9.458203e+002,1.781125e+001
9.467845e+002,1.789542e+001
9.477488e+002,1.857404e+001
9.487130e+002,2.124753e+001
9.496772e+002,2.367819e+001
9.506415e+002,2.375653e+001
9.516057e+002,2.161224e+001
9.525699e+002,1.865817e+001
9.535342e+002,1.620221e+001
9.544984e+002,1.427313e+001
9.554626e+002,1.406091e+001
9.564269e+002,1.597803e+001
9.573911e+002,1.829141e+001
9.583553e+002,2.141544e+001
9.593196e+002,2.417972e+001
9.602838e+002,2.407401e+001
9.612480e+002,1.990289e+001
9.622123e+002,1.729404e+001
9.631765e+002,1.984567e+001
9.641407e+002,2.244296e+001
9.651050e+002,2.244952e+001
9.660692e+002,2.046909e+001
9.670334e+002,1.841608e+001
9.679977e+002,1.757385e+001
9.689619e+002,1.767657e+001
9.699261e+002,1.827124e+001
9.708904e+002,1.892673e+001
9.718546e+002,1.835715e+001
9.728188e+002,1.585333e+001
9.737831e+002,1.345908e+001
9.747473e+002,1.451190e+001
9.757115e+002,2.014658e+001
9.766758e+002,2.338467e+001
9.776400e+002,2.125281e+001
9.786042e+002,2.066412e+001
9.795685e+002,2.550452e+001
9.805327e+002,3.156177e+001
9.814969e+002,3.255161e+001
9.824612e+002,2.647302e+001
9.834254e+002,1.956607e+001
9.843896e+002,1.795197e+001
9.853539e+002,1.850815e+001
9.863181e+002,1.829364e+001
9.872823e+002,1.695172e+001
9.882466e+002,1.501144e+001
9.892108e+002,1.307507e+001
9.901750e+002,1.150095e+001
9.911393e+002,1.106888e+001
9.921035e+002,1.181296e+001
9.930677e+002,1.267801e+001
9.940320e+002,1.378671e+001
9.949962e+002,1.526364e+001
9.959604e+002,1.730737e+001
9.969247e+002,1.993594e+001
9.978889e+002,2.270755e+001
9.988531e+002,2.560181e+001
9.998174e+002,2.768448e+001
1.000782e+003,2.817657e+001
1.001746e+003,2.797885e+001
1.002710e+003,2.826682e+001
1.003674e+003,2.952917e+001
1.004639e+003,3.137982e+001
1.005603e+003,3.323633e+001
1.006567e+003,3.502966e+001
1.007531e+003,3.593274e+001
1.008495e+003,3.593286e+001
1.009460e+003,3.525110e+001
1.010424e+003,3.348712e+001
1.011388e+003,3.113873e+001
1.012352e+003,3.033664e+001
1.013317e+003,3.266046e+001
1.014281e+003,3.348264e+001
1.015245e+003,3.004456e+001
1.016209e+003,2.589423e+001
1.017174e+003,2.396686e+001
1.018138e+003,2.414594e+001
1.019102e+003,2.406790e+001
1.020066e+003,2.180252e+001
1.021031e+003,1.826544e+001
1.021995e+003,1.552158e+001
1.022959e+003,1.326761e+001
1.023923e+003,1.152979e+001
1.024887e+003,1.050262e+001
1.025852e+003,9.585999e+000
1.026816e+003,7.696472e+000
1.027780e+003,4.565491e+000
1.028744e+003,2.487885e+000
1.029709e+003,1.965912e+000
1.030673e+003,2.023560e+000
1.031637e+003,2.858826e+000
1.032601e+003,3.797272e+000
1.033566e+003,3.985199e+000
1.034530e+003,3.196228e+000
1.035494e+003,2.131592e+000
1.036458e+003,1.051239e+000
1.037422e+003,4.054260e-001
1.038387e+003,1.349670e+000
1.039351e+003,3.658020e+000
1.040315e+003,5.708221e+000
1.041279e+003,6.342804e+000
1.042244e+003,5.909241e+000
1.043208e+003,5.744263e+000
1.044172e+003,6.212555e+000
1.045136e+003,5.863922e+000
1.046101e+003,3.874146e+000
1.047065e+003,2.089844e+000
1.048029e+003,1.965149e+000
1.048993e+003,3.068420e+000
1.049958e+003,3.603088e+000
1.050922e+003,2.590881e+000
1.051886e+003,1.494415e+000
1.052850e+003,1.729309e+000
1.053814e+003,2.733337e+000
1.054779e+003,4.130280e+000
1.055743e+003,5.644226e+000
1.056707e+003,6.594208e+000
1.057671e+003,6.107391e+000
1.058636e+003,4.131958e+000
1.059600e+003,3.027679e+000
1.060564e+003,3.960999e+000
1.061528e+003,4.508270e+000
1.062493e+003,3.693359e+000
1.063457e+003,2.411560e+000
1.064421e+003,1.776733e+000
1.065385e+003,1.989746e+000
1.066349e+003,2.447510e+000
1.067314e+003,3.137634e+000
1.068278e+003,3.648407e+000
1.069242e+003,3.730896e+000
1.070206e+003,3.548889e+000
1.071171e+003,3.188721e+000
1.072135e+003,2.653778e+000
1.073099e+003,2.033264e+000
1.074063e+003,1.634125e+000
1.075028e+003,1.552216e+000
1.075992e+003,1.506287e+000
1.076956e+003,1.388397e+000
1.077920e+003,1.167175e+000
1.078885e+003,8.653259e-001
1.079849e+003,6.993103e-001
1.080813e+003,9.543762e-001
1.081777e+003,1.722809e+000
1.082741e+003,2.770691e+000
1.083706e+003,4.329346e+000
1.084670e+003,5.425385e+000
1.085634e+003,5.376770e+000
1.086598e+003,4.449097e+000
1.087563e+003,3.130188e+000
1.088527e+003,1.838257e+000
1.089491e+003,9.452820e-001
1.090455e+003,9.887695e-001
1.091420e+003,1.946228e+000
1.092384e+003,2.269684e+000
1.093348e+003,1.482788e+000
1.094312e+003,6.608276e-001
1.095276e+003,6.898499e-001
1.096241e+003,1.382904e+000
1.097205e+003,1.717712e+000
1.098169e+003,1.118896e+000
1.099133e+003,1.074738e+000
1.100098e+003,3.522034e+000
1.101062e+003,5.580475e+000
1.102026e+003,4.667938e+000
1.102990e+003,1.904816e+000
1.103955e+003,2.271729e-001
1.104919e+003,1.366730e+000
1.105883e+003,3.968262e+000
1.106847e+003,5.261230e+000
1.107812e+003,5.173248e+000
1.108776e+003,5.457947e+000
1.109740e+003,6.495789e+000
1.110704e+003,7.280518e+000
1.111668e+003,6.828796e+000
1.112633e+003,5.684937e+000
1.113597e+003,5.922424e+000
1.114561e+003,8.520905e+000
1.115525e+003,1.023108e+001
1.116490e+003,9.499481e+000
1.117454e+003,8.175323e+000
1.118418e+003,7.373383e+000
1.119382e+003,7.251038e+000
1.120347e+003,7.497559e+000
1.121311e+003,7.765045e+000
1.122275e+003,7.695557e+000
1.123239e+003,6.815399e+000
1.124203e+003,5.530823e+000
1.125168e+003,5.628265e+000
1.126132e+003,7.574097e+000
1.127096e+003,1.020392e+001
1.128060e+003,1.287564e+001
1.129025e+003,1.540723e+001
1.129989e+003,1.722897e+001
1.130953e+003,1.822430e+001
1.131917e+003,1.839816e+001
1.132882e+003,1.696683e+001
1.133846e+003,1.577933e+001
1.134810e+003,1.617969e+001
1.135774e+003,1.778577e+001
1.136739e+003,1.934116e+001
1.137703e+003,2.012869e+001
1.138667e+003,2.082437e+001
1.139631e+003,2.280789e+001
1.140595e+003,2.587921e+001
1.141560e+003,2.829425e+001
1.142524e+003,2.974942e+001
1.143488e+003,3.193021e+001
1.144452e+003,3.604218e+001
1.145417e+003,4.171906e+001
1.146381e+003,4.769525e+001
1.147345e+003,5.391910e+001
1.148309e+003,6.028775e+001
1.149274e+003,6.671478e+001
1.150238e+003,7.351651e+001
1.151202e+003,8.115460e+001
1.152166e+003,8.941077e+001
1.153130e+003,9.773102e+001
1.154095e+003,1.056990e+002
1.155059e+003,1.134293e+002
1.156023e+003,1.221068e+002
1.156987e+003,1.308367e+002
1.157952e+003,1.338145e+002
1.158916e+003,1.308289e+002
1.159880e+003,1.257463e+002
1.160844e+003,1.196401e+002
1.161809e+003,1.124121e+002
1.162773e+003,1.042941e+002
1.163737e+003,9.508292e+001
1.164701e+003,8.602386e+001
1.165666e+003,7.702621e+001
1.166630e+003,6.896527e+001
1.167594e+003,6.175598e+001
1.168558e+003,5.583026e+001
1.169522e+003,5.205661e+001
1.170487e+003,5.048334e+001
1.171451e+003,5.002454e+001
1.172415e+003,4.954483e+001
1.173379e+003,4.891147e+001
1.174344e+003,4.745035e+001
1.175308e+003,4.507330e+001
1.176272e+003,4.385522e+001
1.177236e+003,4.533240e+001
1.178201e+003,4.775665e+001
1.179165e+003,4.936459e+001
1.180129e+003,5.004138e+001
1.181093e+003,4.772595e+001
1.182057e+003,3.937732e+001
1.183022e+003,3.204706e+001
1.183986e+003,2.824185e+001
1.184950e+003,2.662103e+001
1.185914e+003,2.624524e+001
1.186879e+003,2.674628e+001
1.187843e+003,2.809012e+001
1.188807e+003,3.021805e+001
1.189771e+003,3.271152e+001
1.190736e+003,3.465048e+001
1.191700e+003,3.603519e+001
1.192664e+003,3.630444e+001
1.193628e+003,3.488528e+001
1.194593e+003,3.326639e+001
1.195557e+003,3.259814e+001
1.196521e+003,3.252527e+001
1.197485e+003,3.180817e+001
1.198449e+003,3.005713e+001
1.199414e+003,2.843848e+001
1.200378e+003,2.815482e+001
1.201342e+003,2.760034e+001
1.202306e+003,2.516693e+001
1.203271e+003,2.161353e+001
1.204235e+003,1.862991e+001
1.205199e+003,1.711945e+001
1.206163e+003,1.673206e+001
1.207128e+003,1.692361e+001
1.208092e+003,1.775995e+001
1.209056e+003,1.803546e+001
1.210020e+003,1.809644e+001
1.210984e+003,1.713382e+001
1.211949e+003,1.424774e+001
1.212913e+003,1.054059e+001
1.213877e+003,7.206970e+000
1.214841e+003,4.432953e+000
1.215806e+003,2.870117e+000
1.216770e+003,3.557892e+000
1.217734e+003,4.192596e+000
1.218698e+003,2.989502e+000
1.219663e+003,8.086548e-001
1.220627e+003,-1.462860e+000
1.221591e+003,-3.504913e+000
1.222555e+003,-5.232422e+000
1.223520e+003,-6.530670e+000
1.224484e+003,-7.365753e+000
1.225448e+003,-7.945892e+000
1.226412e+003,-8.388763e+000
1.227376e+003,-8.310577e+000
1.228341e+003,-7.289551e+000
1.229305e+003,-6.367554e+000
1.230269e+003,-5.864624e+000
1.231233e+003,-5.949799e+000
1.232198e+003,-7.098236e+000
1.233162e+003,-9.424927e+000
1.234126e+003,-1.145010e+001
1.235090e+003,-1.257324e+001
1.236055e+003,-1.258792e+001
1.237019e+003,-1.042615e+001
1.237983e+003,-7.148010e+000
1.238947e+003,-5.311005e+000
1.239911e+003,-5.889435e+000
1.240876e+003,-7.885681e+000
1.241840e+003,-1.015445e+001
1.242804e+003,-1.278271e+001
1.243768e+003,-1.391843e+001
1.244733e+003,-1.222162e+001
1.245697e+003,-1.068155e+001
1.246661e+003,-9.778442e+000
1.247625e+003,-9.192902e+000
1.248590e+003,-8.603119e+000
1.249554e+003,-7.881409e+000
1.250518e+003,-6.989044e+000
1.251482e+003,-5.965027e+000
1.252447e+003,-5.311493e+000
1.253411e+003,-5.991394e+000
1.254375e+003,-7.011261e+000
1.255339e+003,-5.943359e+000
1.256303e+003,-2.754852e+000
1.257268e+003,-5.446777e-001
1.258232e+003,-1.747253e+000
1.259196e+003,-4.456085e+000
1.260160e+003,-4.106476e+000
1.261125e+003,2.069397e-001
1.262089e+003,2.936981e+000
1.263053e+003,1.877167e+000
1.264017e+003,8.169556e-001
1.264982e+003,5.516663e-001
1.265946e+003,8.815918e-001
1.266910e+003,1.819061e+000
1.267874e+003,3.114044e+000
1.268839e+003,4.294830e+000
1.269803e+003,5.061554e+000
1.270767e+003,5.356720e+000
1.271731e+003,4.967163e+000
1.272695e+003,3.989166e+000
1.273660e+003,3.334137e+000
1.274624e+003,3.068695e+000
1.275588e+003,2.235321e+000
1.276552e+003,-3.779602e-001
1.277517e+003,-3.297028e+000
1.278481e+003,-3.280273e+000
1.279445e+003,1.181946e-001
1.280409e+003,1.569397e+000
1.281374e+003,-2.250366e+000
1.282338e+003,-6.183472e+000
1.283302e+003,-7.771637e+000
1.284266e+003,-7.924774e+000
1.285230e+003,-7.504150e+000
1.286195e+003,-6.850342e+000
1.287159e+003,-5.912079e+000
1.288123e+003,-4.572540e+000
1.289087e+003,-3.135620e+000
1.290052e+003,-2.934967e+000
1.291016e+003,-4.743927e+000
1.291980e+003,-5.465881e+000
1.292944e+003,-4.275940e+000
1.293909e+003,-3.479584e+000
1.294873e+003,-4.313934e+000
1.295837e+003,-5.577637e+000
1.296801e+003,-5.366730e+000
1.297766e+003,-3.575531e+000
1.298730e+003,-2.361725e+000
1.299694e+003,-3.123383e+000
1.300658e+003,-4.671082e+000
1.301622e+003,-5.869019e+000
1.302587e+003,-6.684021e+000
1.303551e+003,-6.856598e+000
1.304515e+003,-6.393524e+000
1.305479e+003,-6.287750e+000
1.306444e+003,-7.622925e+000
1.307408e+003,-9.769623e+000
1.308372e+003,-1.020291e+001
1.309336e+003,-8.265778e+000
1.310301e+003,-6.668976e+000
1.311265e+003,-4.730621e+000
1.312229e+003,-3.953613e+000
1.313193e+003,-5.890442e+000
1.314157e+003,-8.568665e+000
1.315122e+003,-1.036880e+001
1.316086e+003,-1.081262e+001
1.317050e+003,-9.245758e+000
1.318014e+003,-4.907440e+000
1.318979e+003,-5.238953e-001
1.319943e+003,-2.115875e+000
1.320907e+003,-8.619415e+000
1.321871e+003,-1.061981e+001
1.322836e+003,-6.757294e+000
1.323800e+003,-2.811890e+000
1.324764e+003,-1.711884e+000
1.325728e+003,-2.420410e+000
1.326693e+003,-3.520996e+000
1.327657e+003,-5.074677e+000
1.328621e+003,-6.445648e+000
1.329585e+003,-7.410919e+000
1.330549e+003,-7.226746e+000
1.331514e+003,-5.575592e+000
1.332478e+003,-3.500336e+000
1.333442e+003,-1.191315e+000
1.334406e+003,8.176880e-001
1.335371e+003,9.962158e-001
1.336335e+003,-1.497101e+000
1.337299e+003,-5.069427e+000
1.338263e+003,-6.783722e+000
1.339228e+003,-6.510986e+000
1.340192e+003,-5.467224e+000
1.341156e+003,-1.776428e+000
1.342120e+003,-1.102905e-001
1.343084e+003,-3.311523e+000
1.344049e+003,-7.137207e+000
1.345013e+003,-7.565277e+000
1.345977e+003,-5.334686e+000
1.346941e+003,-3.891541e+000
1.347906e+003,-4.523682e+000
1.348870e+003,-5.478058e+000
1.349834e+003,-5.146576e+000
1.350798e+003,-4.212952e+000
1.351763e+003,-3.831940e+000
1.352727e+003,-3.894440e+000
1.353691e+003,-3.971375e+000
1.354655e+003,-3.864716e+000
1.355620e+003,-3.788940e+000
1.356584e+003,-4.070496e+000
1.357548e+003,-4.586243e+000
1.358512e+003,-4.582123e+000
1.359476e+003,-3.640381e+000
1.360441e+003,-3.836212e+000
1.361405e+003,-7.637634e+000
1.362369e+003,-1.039328e+001
1.363333e+003,-8.388885e+000
1.364298e+003,-4.562164e+000
1.365262e+003,-3.559021e+000
1.366226e+003,-6.099152e+000
1.367190e+003,-8.750580e+000
1.368155e+003,-8.434692e+000
1.369119e+003,-6.228851e+000
1.370083e+003,-5.545013e+000
1.371047e+003,-6.927673e+000
1.372011e+003,-7.071716e+000
1.372976e+003,-5.011993e+000
1.373940e+003,-3.428070e+000
1.374904e+003,-3.554169e+000
1.375868e+003,-4.372833e+000
1.376833e+003,-4.787292e+000
1.377797e+003,-4.712860e+000
1.378761e+003,-4.295166e+000
1.379725e+003,-3.393311e+000
1.380690e+003,-2.647583e+000
1.381654e+003,-2.870636e+000
1.382618e+003,-3.523315e+000
1.383582e+003,-4.021851e+000
1.384547e+003,-4.299042e+000
1.385511e+003,-4.283478e+000
1.386475e+003,-3.945343e+000
1.387439e+003,-3.562775e+000
1.388403e+003,-3.713898e+000
1.389368e+003,-4.412231e+000
1.390332e+003,-4.021454e+000
1.391296e+003,-1.217590e+000
1.392260e+003,2.874451e-001
1.393225e+003,-1.198639e+000
1.394189e+003,-3.198456e+000
1.395153e+003,-4.475677e+000
1.396117e+003,-5.250214e+000
1.397082e+003,-6.537781e+000
1.398046e+003,-8.195618e+000
1.399010e+003,-8.051727e+000
1.399974e+003,-4.079926e+000
1.400938e+003,1.498444e+000
1.401903e+003,1.962067e+000
1.402867e+003,-4.089355e+000
1.403831e+003,-7.056549e+000
1.404795e+003,-5.460449e+000
1.405760e+003,-3.409149e+000
1.406724e+003,-2.124512e+000
1.407688e+003,-1.824310e+000
1.408652e+003,-3.051697e+000
1.409617e+003,-5.131134e+000
1.410581e+003,-5.493286e+000
1.411545e+003,-2.835419e+000
1.412509e+003,1.329041e-001
1.413474e+003,4.249878e-001
1.414438e+003,-7.307739e-001
1.415402e+003,-7.344360e-001
1.416366e+003,3.519897e-001
1.417330e+003,6.870422e-001
1.418295e+003,-6.964111e-001
1.419259e+003,-2.086700e+000
1.420223e+003,-1.101257e+000
1.421187e+003,1.611725e+000
1.422152e+003,2.443665e+000
1.423116e+003,8.030396e-001
1.424080e+003,-3.343201e-001
1.425044e+003,2.264404e-002
1.426009e+003,4.899597e-001
1.426973e+003,9.218750e-001
1.427937e+003,8.812256e-001
1.428901e+003,-4.400940e-001
1.429865e+003,-2.655945e+000
1.430830e+003,-4.373627e+000
1.431794e+003,-4.750641e+000
1.432758e+003,-4.157715e+000
1.433722e+003,-3.045532e+000
1.434687e+003,-1.088593e+000
1.435651e+003,6.396484e-001
1.436615e+003,1.691162e+000
1.437579e+003,1.974121e+000
1.438544e+003,8.784180e-001
1.439508e+003,-2.213135e-001
1.440472e+003,-4.946289e-001
1.441436e+003,1.531982e-001
1.442401e+003,1.924866e+000
1.443365e+003,4.632355e+000
1.444329e+003,6.890045e+000
1.445293e+003,7.699341e+000
1.446257e+003,7.639862e+000
1.447222e+003,7.717102e+000
1.448186e+003,7.774261e+000
1.449150e+003,6.891998e+000
1.450114e+003,4.634674e+000
1.451079e+003,2.643463e+000
1.452043e+003,1.786804e+000
1.453007e+003,1.879028e+000
1.453971e+003,3.082611e+000
1.454936e+003,5.027527e+000
1.455900e+003,5.363708e+000
1.456864e+003,3.113586e+000
1.457828e+003,1.323578e+000
1.458792e+003,2.667328e+000
1.459757e+003,4.109863e+000
1.460721e+003,2.244934e+000
1.461685e+003,-1.175934e+000
1.462649e+003,-2.059601e+000
1.463614e+003,5.350342e-001
1.464578e+003,3.553009e+000
1.465542e+003,4.224152e+000
1.466506e+003,3.241089e+000
1.467471e+003,2.883423e+000
1.468435e+003,3.571625e+000
1.469399e+003,3.805542e+000
1.470363e+003,2.506836e+000
1.471328e+003,1.747345e+000
1.472292e+003,1.848724e+000
1.473256e+003,2.387665e+000
1.474220e+003,3.764191e+000
1.475184e+003,5.503967e+000
1.476149e+003,6.612885e+000
1.477113e+003,6.676056e+000
1.478077e+003,6.091644e+000
1.479041e+003,5.368988e+000
1.480006e+003,4.695526e+000
1.480970e+003,4.320282e+000
1.481934e+003,4.034027e+000
1.482898e+003,4.175537e+000
1.483863e+003,4.477905e+000
1.484827e+003,5.433228e+000
1.485791e+003,8.509460e+000
1.486755e+003,1.144098e+001
1.487719e+003,1.162848e+001
1.488684e+003,9.754669e+000
1.489648e+003,8.174744e+000
1.490612e+003,7.751831e+000
1.491576e+003,8.037018e+000
1.492541e+003,8.527069e+000
1.493505e+003,9.463898e+000
1.494469e+003,1.173584e+001
1.495433e+003,1.491763e+001
1.496398e+003,1.762106e+001
1.497362e+003,1.980145e+001
1.498326e+003,2.210559e+001
1.499290e+003,2.496158e+001
1.500255e+003,2.799075e+001
1.501219e+003,3.082483e+001
1.502183e+003,3.330264e+001
1.503147e+003,3.458710e+001
1.504111e+003,3.408014e+001
1.505076e+003,3.454010e+001
1.506040e+003,3.788916e+001
1.507004e+003,4.271356e+001
1.507968e+003,4.757175e+001
1.508933e+003,5.266684e+001
1.509897e+003,5.821951e+001
1.510861e+003,6.460379e+001
1.511825e+003,7.304987e+001
1.512790e+003,8.473526e+001
1.513754e+003,9.780746e+001
1.514718e+003,1.087121e+002
1.515682e+003,1.173037e+002
1.516646e+003,1.272825e+002
1.517611e+003,1.402339e+002
1.518575e+003,1.519401e+002
1.519539e+003,1.611800e+002
1.520503e+003,1.690872e+002
1.521468e+003,1.763153e+002
1.522432e+003,1.823521e+002
1.523396e+003,1.867422e+002
1.524360e+003,1.891719e+002
1.525325e+003,1.892607e+002
1.526289e+003,1.867993e+002
1.527253e+003,1.822310e+002
1.528217e+003,1.761293e+002
1.529182e+003,1.686234e+002
1.530146e+003,1.609957e+002
1.531110e+003,1.540400e+002
1.532074e+003,1.450729e+002
1.533039e+003,1.326154e+002
1.534003e+003,1.190344e+002
1.534967e+003,1.053018e+002
1.535931e+003,9.180121e+001
1.536896e+003,7.831274e+001
1.537860e+003,6.528787e+001
1.538824e+003,5.359525e+001
1.539788e+003,4.362030e+001
1.540752e+003,3.534851e+001
1.541717e+003,2.888828e+001
1.542681e+003,2.424844e+001
1.543645e+003,2.069757e+001
1.544609e+003,1.862369e+001
1.545573e+003,1.732132e+001
1.546538e+003,1.660141e+001
1.547502e+003,1.632852e+001
1.548466e+003,1.770523e+001
1.549430e+003,1.898035e+001
1.550395e+003,1.763739e+001
1.551359e+003,1.441727e+001
1.552323e+003,1.205719e+001
1.553287e+003,1.155237e+001
1.554252e+003,1.200690e+001
1.555216e+003,1.277985e+001
1.556180e+003,1.351715e+001
1.557144e+003,1.334634e+001
1.558109e+003,1.229755e+001
1.559073e+003,1.134521e+001
1.560037e+003,9.992828e+000
1.561001e+003,9.223694e+000
1.561966e+003,1.054218e+001
1.562930e+003,1.198810e+001
1.563894e+003,1.130981e+001
1.564858e+003,9.179596e+000
1.565823e+003,7.345337e+000
1.566787e+003,6.180573e+000
1.567751e+003,5.818726e+000
1.568715e+003,6.601593e+000
1.569679e+003,7.685638e+000
1.570644e+003,7.945801e+000
1.571608e+003,7.465912e+000
1.572572e+003,6.667786e+000
1.573536e+003,5.656525e+000
1.574500e+003,5.646637e+000
1.575465e+003,7.624573e+000
1.576429e+003,9.636475e+000
1.577393e+003,9.880768e+000
1.578357e+003,9.026306e+000
1.579322e+003,8.443542e+000
1.580286e+003,8.285126e+000
1.581250e+003,8.172607e+000
1.582214e+003,7.851288e+000
1.583179e+003,8.111176e+000
1.584143e+003,1.027081e+001
1.585107e+003,1.245386e+001
1.586071e+003,1.194272e+001
1.587036e+003,9.809082e+000
1.588000e+003,8.848938e+000
1.588964e+003,9.572662e+000
1.589928e+003,1.052200e+001
1.590893e+003,1.072079e+001
1.591857e+003,1.069052e+001
1.592821e+003,1.121393e+001
1.593785e+003,1.225812e+001
1.594750e+003,1.364618e+001
1.595714e+003,1.547552e+001
1.596678e+003,1.622882e+001
1.597642e+003,1.466064e+001
1.598606e+003,1.281659e+001
1.599571e+003,1.242023e+001
1.600535e+003,1.279193e+001
1.601499e+003,1.317987e+001
1.602463e+003,1.340030e+001
1.603427e+003,1.318036e+001
1.604392e+003,1.233453e+001
1.605356e+003,1.173618e+001
1.606320e+003,1.243692e+001
1.607284e+003,1.402814e+001
1.608249e+003,1.557581e+001
1.609213e+003,1.710593e+001
1.610177e+003,1.739316e+001
1.611141e+003,1.571466e+001
1.612106e+003,1.410376e+001
1.613070e+003,1.370425e+001
1.614034e+003,1.354227e+001
1.614998e+003,1.295700e+001
1.615963e+003,1.212839e+001
1.616927e+003,1.115952e+001
1.617891e+003,1.016473e+001
1.618855e+003,9.837433e+000
1.619820e+003,1.063327e+001
1.620784e+003,1.149625e+001
1.621748e+003,1.084637e+001
1.622712e+003,9.334351e+000
1.623677e+003,9.823700e+000
1.624641e+003,1.285208e+001
1.625605e+003,1.494681e+001
1.626569e+003,1.471146e+001
1.627533e+003,1.358969e+001
1.628498e+003,1.171558e+001
1.629462e+003,1.021674e+001
1.630426e+003,1.041602e+001
1.631390e+003,1.157129e+001
1.632354e+003,1.186551e+001
1.633319e+003,1.094687e+001
1.634283e+003,1.031793e+001
1.635247e+003,1.114908e+001
1.636211e+003,1.260248e+001
1.637176e+003,1.354651e+001
1.638140e+003,1.401273e+001
1.639104e+003,1.288779e+001
1.640068e+003,9.261658e+000
1.641033e+003,7.136658e+000
1.641997e+003,8.721497e+000
1.642961e+003,1.045316e+001
1.643925e+003,1.000787e+001
1.644890e+003,9.242096e+000
1.645854e+003,1.056625e+001
1.646818e+003,1.302075e+001
1.647782e+003,1.359409e+001
1.648747e+003,1.146509e+001
1.649711e+003,9.062531e+000
1.650675e+003,8.384918e+000
1.651639e+003,9.073975e+000
1.652604e+003,1.052396e+001
1.653568e+003,1.258469e+001
1.654532e+003,1.364249e+001
1.655496e+003,1.355045e+001
1.656460e+003,1.262064e+001
1.657425e+003,9.730499e+000
1.658389e+003,7.821228e+000
1.659353e+003,9.697723e+000
1.660317e+003,1.233112e+001
1.661281e+003,1.199796e+001
1.662246e+003,9.458313e+000
1.663210e+003,8.141632e+000
1.664174e+003,9.183350e+000
1.665138e+003,1.021979e+001
1.666103e+003,8.953308e+000
1.667067e+003,6.640472e+000
1.668031e+003,6.190521e+000
1.668995e+003,7.468506e+000
1.669960e+003,7.709656e+000
1.670924e+003,6.509277e+000
1.671888e+003,5.373505e+000
1.672852e+003,4.542786e+000
1.673817e+003,4.007782e+000
1.674781e+003,3.985779e+000
1.675745e+003,4.040039e+000
1.676709e+003,3.385559e+000
1.677674e+003,2.374817e+000
1.678638e+003,2.194580e+000
1.679602e+003,3.215668e+000
1.680566e+003,4.871429e+000
1.681531e+003,7.235138e+000
1.682495e+003,9.526550e+000
1.683459e+003,1.009442e+001
1.684423e+003,9.069305e+000
1.685387e+003,7.873596e+000
1.686352e+003,6.661163e+000
1.687316e+003,5.510559e+000
1.688280e+003,4.440765e+000
1.689244e+003,3.422455e+000
1.690208e+003,2.342224e+000
1.691173e+003,1.278687e+000
1.692137e+003,1.841431e-001
1.693101e+003,-6.184387e-001
1.694065e+003,-3.081055e-001
1.695030e+003,1.216919e+000
1.695994e+003,2.306091e+000
1.696958e+003,1.821167e+000
1.697922e+003,7.201843e-001
1.698887e+003,2.502441e-003
1.699851e+003,-2.790833e-001
1.700815e+003,-9.979248e-003
1.701779e+003,7.220764e-001
1.702744e+003,1.342865e+000
1.703708e+003,1.805237e+000
1.704672e+003,2.413452e+000
1.705636e+003,3.290466e+000
1.706601e+003,4.024384e+000
1.707565e+003,4.559906e+000
1.708529e+003,4.822021e+000
1.709493e+003,3.681824e+000
1.710458e+003,6.964417e-001
1.711422e+003,-9.584656e-001
1.712386e+003,1.498749e+000
1.713350e+003,4.234436e+000
1.714314e+003,3.263275e+000
1.715279e+003,7.794800e-001
1.716243e+003,1.057404e+000
1.717207e+003,3.706726e+000
1.718171e+003,4.984863e+000
1.719135e+003,3.896118e+000
1.720100e+003,2.871704e+000
1.721064e+003,3.595245e+000
1.722028e+003,4.662811e+000
1.722992e+003,4.111938e+000
1.723957e+003,2.433655e+000
1.724921e+003,1.535614e+000
1.725885e+003,1.322937e+000
1.726849e+003,5.086060e-001
1.727814e+003,-1.548523e+000
1.728778e+003,-2.998169e+000
1.729742e+003,-2.813934e+000
1.730706e+003,-2.007782e+000
1.731671e+003,-1.750244e+000
1.732635e+003,-1.915466e+000
1.733599e+003,-1.424316e+000
1.734563e+003,-1.538391e-001
1.735528e+003,3.876953e-001
1.736492e+003,-6.630859e-001
1.737456e+003,-1.777161e+000
1.738420e+003,-1.083771e+000
1.739385e+003,7.551880e-001
1.740349e+003,1.819946e+000
1.741313e+003,2.111328e+000
1.742277e+003,2.271149e+000
1.743241e+003,3.431763e+000
1.744206e+003,3.025940e+000
1.745170e+003,-1.419708e+000
1.746134e+003,-5.212646e+000
1.747098e+003,-5.370605e+000
1.748063e+003,-3.817108e+000
1.749027e+003,-2.491913e+000
1.749991e+003,-1.705353e+000
1.750955e+003,-1.248596e+000
1.751919e+003,-1.032227e+000
1.752884e+003,-9.839478e-001
1.753848e+003,-1.050018e+000
1.754812e+003,-1.143982e+000
1.755776e+003,-9.772949e-001
1.756741e+003,-4.030762e-001
1.757705e+003,5.660400e-001
1.758669e+003,2.359711e+000
1.759633e+003,2.828949e+000
1.760598e+003,3.842468e-001
1.761562e+003,-1.701935e+000
1.762526e+003,-1.317596e+000
1.763490e+003,-1.068420e+000
1.764455e+003,-4.134583e+000
1.765419e+003,-7.858398e+000
1.766383e+003,-7.733948e+000
1.767347e+003,-3.845551e+000
1.768312e+003,5.986328e-001
1.769276e+003,4.099579e+000
1.770240e+003,5.519348e+000
1.771204e+003,3.051025e+000
1.772168e+003,-1.189240e+000
1.773133e+003,-2.392731e+000
1.774097e+003,-9.411316e-001
1.775061e+003,-8.474426e-001
1.776025e+003,-2.955994e+000
1.776990e+003,-4.191559e+000
1.777954e+003,-2.904541e+000
1.778918e+003,-1.334869e+000
1.779882e+003,-1.080811e+000
1.780846e+003,-1.800507e+000
1.781811e+003,-3.367645e+000
1.782775e+003,-5.243286e+000
1.783739e+003,-5.682831e+000
1.784703e+003,-4.297638e+000
1.785668e+003,-2.501007e+000
1.786632e+003,-5.548096e-001
1.787596e+003,7.758789e-001
1.788560e+003,6.927490e-001
1.789525e+003,2.840881e-001
1.790489e+003,1.283203e+000
1.791453e+003,2.964508e+000
1.792417e+003,2.634094e+000
1.793382e+003,3.515625e-002
1.794346e+003,-1.408203e+000
1.795310e+003,1.976013e-001
1.796274e+003,2.224854e+000
1.797239e+003,1.693817e+000
1.798203e+003,-3.383179e-001
1.799167e+003,-1.188782e+000
1.800131e+003,-1.079773e+000
1.801095e+003,-7.633972e-001
1.802060e+003,4.901428e-001
1.803024e+003,1.439728e+000
1.803988e+003,1.761810e+000
1.804952e+003,1.761932e+000
1.805917e+003,1.677094e+000
1.806881e+003,1.251038e+000
1.807845e+003,-1.766357e-001
1.808809e+003,-1.892670e+000
1.809773e+003,-2.353912e+000
1.810738e+003,-1.469360e+000
1.811702e+003,-8.201904e-001
1.812666e+003,-1.400330e+000
1.813630e+003,-2.347260e+000
1.814595e+003,-2.539673e+000
1.815559e+003,-2.122101e+000
1.816523e+003,-1.399933e+000
1.817487e+003,-2.968445e-001
1.818452e+003,7.764587e-001
1.819416e+003,2.275055e+000
1.820380e+003,2.795227e+000
1.821344e+003,9.077759e-001
1.822309e+003,-9.023743e-001
1.823273e+003,-8.389893e-001
1.824237e+003,-1.486206e-002
1.825201e+003,5.825500e-001
1.826166e+003,8.084717e-001
1.827130e+003,5.313110e-001
1.828094e+003,-3.170471e-001
1.829058e+003,-1.388641e+000
1.830022e+003,-2.677765e+000
1.830987e+003,-3.500214e+000
1.831951e+003,-2.987366e+000
1.832915e+003,-1.878540e+000
1.833879e+003,-1.287079e+000
1.834844e+003,-1.056793e+000
1.835808e+003,-3.771973e-001
1.836772e+003,7.981567e-001
1.837736e+003,1.529480e+000
1.838700e+003,1.332001e+000
1.839665e+003,2.258606e-001
1.840629e+003,-1.971405e+000
1.841593e+003,-4.142303e+000
1.842557e+003,-3.754181e+000
1.843522e+003,-8.764954e-001
1.844486e+003,-2.274780e-001
1.845450e+003,-3.887360e+000
1.846414e+003,-5.307495e+000
1.847379e+003,-3.212158e+000
1.848343e+003,-1.212799e+000
1.849307e+003,3.479004e-002
1.850271e+003,6.242981e-001
1.851236e+003,2.264404e-002
1.852200e+003,-5.891113e-001
1.853164e+003,9.107971e-001
1.854128e+003,3.556061e+000
1.855093e+003,3.830078e+000
1.856057e+003,8.245850e-001
1.857021e+003,-2.190521e+000
1.857985e+003,-2.589691e+000
1.858949e+003,-1.567841e+000
1.859914e+003,-1.125549e+000
1.860878e+003,-1.006683e+000
1.861842e+003,5.250549e-001
1.862806e+003,3.494995e+000
1.863771e+003,3.573944e+000
1.864735e+003,-8.458557e-001
1.865699e+003,-4.433868e+000
1.866663e+003,-4.624908e+000
1.867627e+003,-3.453644e+000
1.868592e+003,-2.391357e+000
1.869556e+003,-1.677826e+000
1.870520e+003,-1.678162e+000
1.871484e+003,-2.247192e+000
1.872449e+003,-2.083923e+000
1.873413e+003,-1.257629e-001
1.874377e+003,9.176331e-001
1.875341e+003,-1.469666e+000
1.876306e+003,-3.556793e+000
1.877270e+003,-2.941376e+000
1.878234e+003,-1.567749e+000
1.879198e+003,-1.395294e+000
1.880163e+003,-1.851135e+000
1.881127e+003,-1.294861e+000
1.882091e+003,1.121521e-001
1.883055e+003,2.915039e-001
1.884020e+003,-1.428772e+000
1.884984e+003,-2.596405e+000
1.885948e+003,-9.087524e-001
1.886912e+003,1.913544e+000
1.887876e+003,2.306549e+000
1.888841e+003,5.516052e-001
1.889805e+003,-5.206299e-002
1.890769e+003,7.543030e-001
1.891733e+003,1.291870e+000
1.892698e+003,1.096832e+000
1.893662e+003,1.070374e+000
1.894626e+003,2.008453e+000
1.895590e+003,2.677063e+000
1.896554e+003,2.356415e+000
1.897519e+003,1.402222e+000
1.898483e+003,-7.288818e-001
1.899447e+003,-3.383026e+000
1.900411e+003,-3.711426e+000
1.901376e+003,-1.054443e+000
1.902340e+003,1.491608e+000
1.903304e+003,3.178589e+000
1.904268e+003,3.766541e+000
1.905233e+003,2.078033e+000
1.906197e+003,3.269043e-001
1.907161e+003,1.257690e+000
1.908125e+003,3.646912e+000
1.909090e+003,5.377716e+000
1.910054e+003,5.868347e+000
1.911018e+003,4.677795e+000
1.911982e+003,1.994049e+000
1.912947e+003,-6.018982e-001
1.913911e+003,-2.011322e+000
1.914875e+003,-2.394409e+000
1.915839e+003,-2.019836e+000
1.916803e+003,-1.050903e+000
1.917768e+003,6.156006e-001
1.918732e+003,3.466705e+000
1.919696e+003,4.490540e+000
1.920660e+003,2.964020e+000
1.921625e+003,1.861664e+000
1.922589e+003,1.820648e+000
1.923553e+003,2.058350e+000
1.924517e+003,2.187408e+000
1.925481e+003,2.455963e+000
1.926446e+003,3.037659e+000
1.927410e+003,3.951874e+000
1.928374e+003,5.756134e+000
1.929338e+003,8.119659e+000
1.930303e+003,8.035828e+000
1.931267e+003,3.822540e+000
1.932231e+003,9.966736e-001
1.933195e+003,3.483521e+000
1.934160e+003,6.104614e+000
1.935124e+003,4.679749e+000
1.936088e+003,1.495392e+000
1.937052e+003,-9.148865e-001
1.938017e+003,-2.257019e+000
1.938981e+003,-2.636353e+000
1.939945e+003,-2.291870e+000
1.940909e+003,-1.597443e+000
1.941874e+003,-8.480530e-001
1.942838e+003,-7.053528e-001
1.943802e+003,-1.718567e+000
1.944766e+003,-2.761292e+000
1.945730e+003,-1.721191e+000
1.946695e+003,9.682007e-001
1.947659e+003,2.800262e+000
1.948623e+003,3.752899e+000
1.949587e+003,3.398773e+000
1.950552e+003,1.267914e+000
1.951516e+003,-5.130005e-002
1.952480e+003,3.558960e-001
1.953444e+003,1.671387e+000
1.954408e+003,4.024902e+000
1.955373e+003,6.078217e+000
1.956337e+003,5.808167e+000
1.957301e+003,4.015625e+000
1.958265e+003,2.784027e+000
1.959230e+003,2.174774e+000
1.960194e+003,2.231628e+000
1.961158e+003,2.825684e+000
1.962122e+003,3.715759e+000
1.963087e+003,6.074127e+000
1.964051e+003,7.303497e+000
1.965015e+003,4.841858e+000
1.965979e+003,1.802856e+000
1.966944e+003,1.246582e+000
1.967908e+003,2.300995e+000
1.968872e+003,3.176239e+000
1.969836e+003,3.456635e+000
1.970801e+003,3.332703e+000
1.971765e+003,2.929199e+000
1.972729e+003,2.415497e+000
1.973693e+003,1.838623e+000
1.974657e+003,1.449432e+000
1.975622e+003,1.816010e+000
1.976586e+003,2.480530e+000
1.977550e+003,2.049530e+000
1.978514e+003,9.098816e-001
1.979479e+003,1.244049e+000
1.980443e+003,3.235199e+000
1.981407e+003,4.912689e+000
1.982371e+003,5.619019e+000
1.983335e+003,5.906525e+000
1.984300e+003,6.062256e+000
1.985264e+003,6.027740e+000
1.986228e+003,5.854004e+000
1.987192e+003,5.472656e+000
1.988157e+003,4.417786e+000
1.989121e+003,2.209503e+000
1.990085e+003,2.354492e+000
1.991049e+003,7.377930e+000
1.992014e+003,9.835144e+000
1.992978e+003,6.530914e+000
1.993942e+003,3.505768e+000
1.994906e+003,2.506531e+000
1.995871e+003,2.826660e+000
1.996835e+003,5.369934e+000
1.997799e+003,8.175507e+000
1.998763e+003,7.538055e+000
1.999728e+003,4.269501e+000
