5.003444e+002,3.409317e+001
5.013087e+002,3.382208e+001
5.022729e+002,3.296344e+001
5.032371e+002,3.167984e+001
5.042014e+002,2.964258e+001
5.051656e+002,2.707675e+001
5.061298e+002,2.506387e+001
5.070941e+002,2.461276e+001
5.080583e+002,2.600665e+001
5.090225e+002,2.679758e+001
5.099868e+002,2.731586e+001
5.109510e+002,2.714496e+001
5.119152e+002,2.556168e+001
5.128795e+002,2.242169e+001
5.138437e+002,2.043936e+001
5.148079e+002,2.142352e+001
5.157722e+002,2.301144e+001
5.167364e+002,2.469592e+001
5.177006e+002,2.603537e+001
5.186649e+002,2.648276e+001
5.196291e+002,2.492853e+001
5.205933e+002,2.272327e+001
5.215576e+002,2.052637e+001
5.225218e+002,1.856122e+001
5.234860e+002,1.768951e+001
5.244503e+002,1.983621e+001
5.254145e+002,2.669049e+001
5.263787e+002,2.989951e+001
5.273430e+002,2.790051e+001
5.283072e+002,2.336633e+001
5.292714e+002,1.970801e+001
5.302357e+002,1.684366e+001
5.311999e+002,1.460248e+001
5.321641e+002,1.303458e+001
5.331284e+002,1.224844e+001
5.340926e+002,1.235022e+001
5.350568e+002,1.331616e+001
5.360211e+002,1.456091e+001
5.369853e+002,1.644641e+001
5.379495e+002,1.821783e+001
5.389138e+002,1.896854e+001
5.398780e+002,1.839850e+001
5.408422e+002,1.698535e+001
5.418065e+002,1.589481e+001
5.427707e+002,1.514127e+001
5.437349e+002,1.525162e+001
5.446992e+002,1.665851e+001
5.456634e+002,1.879318e+001
5.466276e+002,1.971567e+001
5.475919e+002,1.813959e+001
5.485561e+002,1.695102e+001
5.495203e+002,1.604749e+001
5.504846e+002,1.549976e+001
5.514488e+002,1.571368e+001
5.524130e+002,1.768622e+001
5.533773e+002,1.871960e+001
5.543415e+002,1.697610e+001
5.553057e+002,1.409177e+001
5.562700e+002,1.153226e+001
5.572342e+002,1.017661e+001
5.581984e+002,9.732941e+000
5.591627e+002,9.919159e+000
5.601269e+002,1.058899e+001
5.610911e+002,1.132306e+001
5.620554e+002,1.189160e+001
5.630196e+002,1.214334e+001
5.639838e+002,1.130695e+001
5.649481e+002,8.205566e+000
5.659123e+002,5.754089e+000
5.668765e+002,4.688507e+000
5.678408e+002,4.871307e+000
5.688050e+002,5.674805e+000
5.697692e+002,7.247009e+000
5.707335e+002,8.471405e+000
5.716977e+002,9.499084e+000
5.726619e+002,1.000467e+001
5.736262e+002,9.265472e+000
5.745904e+002,6.511078e+000
5.755546e+002,3.715271e+000
5.765189e+002,3.964386e+000
5.774831e+002,6.001709e+000
5.784473e+002,8.118652e+000
5.794116e+002,9.224487e+000
5.803758e+002,9.479797e+000
5.813400e+002,9.065460e+000
5.823043e+002,7.653137e+000
5.832685e+002,5.940308e+000
5.842327e+002,4.067047e+000
5.851970e+002,2.251312e+000
5.861612e+002,1.113892e+000
5.871254e+002,6.801147e-001
5.880897e+002,8.609314e-001
5.890539e+002,2.066986e+000
5.900181e+002,3.693115e+000
5.909824e+002,4.918976e+000
5.919466e+002,5.361389e+000
5.929108e+002,5.052460e+000
5.938751e+002,3.519928e+000
5.948393e+002,1.607941e+000
5.958035e+002,9.234619e-001
5.967678e+002,2.626221e+000
5.977320e+002,6.218842e+000
5.986962e+002,6.763580e+000
5.996605e+002,4.027802e+000
6.006247e+002,1.674805e+000
6.015889e+002,1.622314e+000
6.025532e+002,3.716095e+000
6.035174e+002,5.247833e+000
6.044816e+002,5.903320e+000
6.054459e+002,6.319275e+000
6.064101e+002,6.489960e+000
6.073743e+002,6.467499e+000
6.083386e+002,6.400787e+000
6.093028e+002,6.583984e+000
6.102670e+002,6.331238e+000
6.112313e+002,4.283173e+000
6.121955e+002,1.800812e+000
6.131597e+002,9.286194e-001
6.141240e+002,3.011200e+000
6.150882e+002,6.988464e+000
6.160524e+002,8.325836e+000
6.170167e+002,7.590790e+000
6.179809e+002,6.685425e+000
6.189451e+002,6.569244e+000
6.199094e+002,6.885376e+000
6.208736e+002,5.579987e+000
6.218378e+002,-5.572205e-001
6.228021e+002,-4.156860e+000
6.237663e+002,-3.151367e+000
6.247305e+002,4.797668e-001
6.256948e+002,3.523895e+000
6.266590e+002,4.613556e+000
6.276232e+002,4.800446e+000
6.285875e+002,4.995026e+000
6.295517e+002,5.088684e+000
6.305159e+002,4.730652e+000
6.314802e+002,3.727295e+000
6.324444e+002,2.440216e+000
6.334086e+002,2.490570e+000
6.343729e+002,3.514465e+000
6.353371e+002,4.018463e+000
6.363013e+002,3.348877e+000
6.372656e+002,1.811707e+000
6.382298e+002,6.398621e-001
6.391940e+002,-5.901794e-001
6.401583e+002,-8.164063e-001
6.411225e+002,1.423737e+000
6.420867e+002,4.321655e+000
6.430510e+002,5.504700e+000
6.440152e+002,3.839050e+000
6.449794e+002,1.465088e+000
6.459437e+002,-1.502197e+000
6.469079e+002,-3.888397e+000
6.478721e+002,-4.134399e+000
6.488364e+002,-1.973236e+000
6.498006e+002,8.068237e-001
6.507648e+002,6.205139e-001
6.517291e+002,-1.542480e+000
6.526933e+002,-3.416595e+000
6.536575e+002,-4.642120e+000
6.546218e+002,-4.934906e+000
6.555860e+002,-3.590485e+000
6.565502e+002,1.097473e+000
6.575145e+002,3.527924e+000
6.584787e+002,3.014832e+000
6.594429e+002,1.183411e+000
6.604072e+002,-1.230865e+000
6.613714e+002,-4.312134e+000
6.623356e+002,-6.166473e+000
6.632999e+002,-5.223083e+000
6.642641e+002,-3.679443e+000
6.652283e+002,-2.391296e+000
6.661926e+002,-1.425781e+000
6.671568e+002,-2.625122e-001
6.681210e+002,1.841309e+000
6.690853e+002,4.152283e+000
6.700495e+002,4.780945e+000
6.710137e+002,3.833435e+000
6.719780e+002,3.010315e+000
6.729422e+002,4.267303e+000
6.739064e+002,8.265656e+000
6.748707e+002,9.771942e+000
6.758349e+002,7.111389e+000
6.767991e+002,4.585114e+000
6.777634e+002,4.660065e+000
6.787276e+002,7.030731e+000
6.796918e+002,8.320190e+000
6.806561e+002,5.821289e+000
6.816203e+002,3.205688e+000
6.825845e+002,1.532166e+000
6.835488e+002,8.191223e-001
6.845130e+002,1.139923e+000
6.854772e+002,2.741943e+000
6.864415e+002,4.714844e+000
6.874057e+002,4.140930e+000
6.883699e+002,1.816772e+000
6.893342e+002,5.145569e-001
6.902984e+002,1.970795e+000
6.912626e+002,5.611328e+000
6.922269e+002,7.055389e+000
6.931911e+002,4.226746e+000
6.941553e+002,2.544800e+000
6.951196e+002,2.363403e+000
6.960838e+002,3.232758e+000
6.970480e+002,5.000824e+000
6.980123e+002,8.750458e+000
6.989765e+002,1.064120e+001
6.999407e+002,7.781281e+000
7.009050e+002,3.794067e+000
7.018692e+002,1.678925e+000
7.028334e+002,2.330658e+000
7.037977e+002,3.870178e+000
7.047619e+002,3.088837e+000
7.057261e+002,1.367371e+000
7.066904e+002,1.774475e+000
7.076546e+002,4.774475e+000
7.086188e+002,8.141876e+000
7.095831e+002,8.205170e+000
7.105473e+002,3.285675e+000
7.115115e+002,-1.072693e-001
7.124758e+002,-2.119263e+000
7.134400e+002,-2.990814e+000
7.144042e+002,-2.187225e+000
7.153685e+002,2.519531e-001
7.163327e+002,2.051514e+000
7.172969e+002,1.625275e+000
7.182612e+002,8.255310e-001
7.192254e+002,1.835327e-001
7.201896e+002,-3.279419e-001
7.211539e+002,-9.907837e-001
7.221181e+002,-2.068420e+000
7.230823e+002,-3.202301e+000
7.240466e+002,-3.508392e+000
7.250108e+002,-2.977356e+000
7.259750e+002,-1.809113e+000
7.269393e+002,-8.071899e-002
7.279035e+002,1.787048e+000
7.288677e+002,1.868866e+000
7.298320e+002,-2.817047e+000
7.307962e+002,-4.733429e+000
7.317604e+002,-1.058014e+000
7.327247e+002,4.789124e+000
7.336889e+002,7.585205e+000
7.346531e+002,4.820831e+000
7.356174e+002,1.903656e+000
7.365816e+002,2.899658e+000
7.375458e+002,4.877136e+000
7.385101e+002,5.465515e+000
7.394743e+002,4.148804e+000
7.404385e+002,2.350433e+000
7.414028e+002,2.309570e+000
7.423670e+002,3.158569e+000
7.433312e+002,2.359711e+000
7.442955e+002,-1.477051e-001
7.452597e+002,-2.523010e+000
7.462239e+002,-2.621796e+000
7.471882e+002,2.751465e-001
7.481524e+002,1.965973e+000
7.491166e+002,1.112213e+000
7.500809e+002,2.795105e-001
7.510451e+002,6.177673e-001
7.520093e+002,1.842896e+000
7.529736e+002,2.753998e+000
7.539378e+002,3.000977e+000
7.549020e+002,2.907349e+000
7.558663e+002,2.184845e+000
7.568306e+002,1.425110e+000
7.577948e+002,1.456818e+000
7.587590e+002,2.678864e+000
7.597233e+002,4.522308e+000
7.606875e+002,5.794342e+000
7.616517e+002,6.667694e+000
7.626160e+002,7.041687e+000
7.635802e+002,6.752563e+000
7.645444e+002,6.152435e+000
7.655087e+002,5.939789e+000
7.664729e+002,6.286011e+000
7.674371e+002,6.535522e+000
7.684014e+002,6.784027e+000
7.693656e+002,6.792297e+000
7.703298e+002,6.275360e+000
7.712941e+002,5.303314e+000
7.722583e+002,4.523895e+000
7.732225e+002,4.763306e+000
7.741868e+002,5.007050e+000
7.751510e+002,4.099182e+000
7.761152e+002,2.510681e+000
7.770795e+002,1.430115e+000
7.780437e+002,1.890747e+000
7.790079e+002,3.629242e+000
7.799722e+002,5.081238e+000
7.809364e+002,6.465790e+000
7.819006e+002,6.830841e+000
7.828649e+002,5.205780e+000
7.838291e+002,2.440094e+000
7.847933e+002,1.110168e+000
7.857576e+002,1.739990e+000
7.867218e+002,2.672272e+000
7.876860e+002,4.288239e+000
7.886503e+002,5.901733e+000
7.896145e+002,6.717590e+000
7.905787e+002,6.609802e+000
7.915430e+002,6.661407e+000
7.925072e+002,8.381378e+000
7.934714e+002,1.034641e+001
7.944357e+002,1.134125e+001
7.953999e+002,1.134903e+001
7.963641e+002,1.057813e+001
7.973284e+002,9.108459e+000
7.982926e+002,6.840546e+000
7.992568e+002,6.187195e+000
8.002211e+002,7.566162e+000
8.011853e+002,8.527466e+000
8.021495e+002,8.577545e+000
8.031138e+002,8.039215e+000
8.040780e+002,7.136749e+000
8.050422e+002,5.084686e+000
8.060065e+002,3.481903e+000
8.069707e+002,2.180878e+000
8.079349e+002,1.642761e+000
8.088992e+002,2.792908e+000
8.098634e+002,5.836975e+000
8.108276e+002,9.488922e+000
8.117919e+002,1.232779e+001
8.127561e+002,1.366531e+001
8.137203e+002,1.207281e+001
8.146846e+002,7.679169e+000
8.156488e+002,3.112213e+000
8.166130e+002,1.533752e+000
8.175773e+002,3.462769e+000
8.185415e+002,4.977997e+000
8.195057e+002,5.305786e+000
8.204700e+002,5.890686e+000
8.214342e+002,7.765167e+000
8.223984e+002,1.026614e+001
8.233627e+002,1.147440e+001
8.243269e+002,1.006711e+001
8.252911e+002,8.792236e+000
8.262554e+002,9.624481e+000
8.272196e+002,1.112451e+001
8.281838e+002,1.157144e+001
8.291481e+002,1.047696e+001
8.301123e+002,9.039917e+000
8.310765e+002,9.504578e+000
8.320408e+002,1.166415e+001
8.330050e+002,1.302481e+001
8.339692e+002,1.344864e+001
8.349335e+002,1.326068e+001
8.358977e+002,1.289844e+001
8.368619e+002,1.255154e+001
8.378262e+002,1.139346e+001
8.387904e+002,7.168640e+000
8.397546e+002,4.424500e+000
8.407189e+002,5.459839e+000
8.416831e+002,8.499146e+000
8.426473e+002,1.018686e+001
8.436116e+002,8.748962e+000
8.445758e+002,7.066162e+000
8.455400e+002,8.322754e+000
8.465043e+002,1.063217e+001
8.474685e+002,1.243643e+001
8.484327e+002,1.330075e+001
8.493970e+002,1.331903e+001
8.503612e+002,1.234100e+001
8.513254e+002,9.998413e+000
8.522897e+002,8.768524e+000
8.532539e+002,8.714355e+000
8.542181e+002,9.250854e+000
8.551824e+002,1.058707e+001
8.561466e+002,1.275626e+001
8.571108e+002,1.449490e+001
8.580751e+002,1.470673e+001
8.590393e+002,1.456693e+001
8.600035e+002,1.445047e+001
8.609678e+002,1.453500e+001
8.619320e+002,1.500290e+001
8.628962e+002,1.587296e+001
8.638605e+002,1.683929e+001
8.648247e+002,1.755603e+001
8.657889e+002,1.795615e+001
8.667532e+002,1.794635e+001
8.677174e+002,1.751218e+001
8.686816e+002,1.672910e+001
8.696459e+002,1.546768e+001
8.706101e+002,1.346753e+001
8.715743e+002,1.391599e+001
8.725386e+002,1.970486e+001
8.735028e+002,2.408762e+001
8.744670e+002,2.420349e+001
8.754313e+002,2.178204e+001
8.763955e+002,2.032037e+001
8.773597e+002,2.112238e+001
8.783240e+002,2.275217e+001
8.792882e+002,2.492828e+001
8.802524e+002,2.670410e+001
8.812167e+002,2.700833e+001
8.821809e+002,2.581876e+001
8.831451e+002,2.396713e+001
8.841094e+002,2.248041e+001
8.850736e+002,2.159973e+001
8.860378e+002,2.235498e+001
8.870021e+002,2.507669e+001
8.879663e+002,2.761261e+001
8.889305e+002,2.871039e+001
8.898948e+002,2.851089e+001
8.908590e+002,2.793173e+001
8.918232e+002,2.649359e+001
8.927875e+002,2.595560e+001
8.937517e+002,2.722452e+001
8.947159e+002,2.903772e+001
8.956802e+002,3.049945e+001
8.966444e+002,3.117700e+001
8.976086e+002,3.079568e+001
8.985729e+002,2.864944e+001
8.995371e+002,2.606741e+001
9.005013e+002,2.467810e+001
9.014656e+002,2.467435e+001
9.024298e+002,2.646893e+001
9.033940e+002,3.052112e+001
9.043583e+002,3.617114e+001
9.053225e+002,3.932883e+001
9.062867e+002,3.819000e+001
9.072510e+002,3.627264e+001
9.082152e+002,3.281226e+001
9.091794e+002,2.957901e+001
9.101437e+002,2.846823e+001
9.111079e+002,2.977945e+001
9.120721e+002,3.141135e+001
9.130364e+002,3.235416e+001
9.140006e+002,3.272824e+001
9.149648e+002,3.257529e+001
9.159291e+002,3.215857e+001
9.168933e+002,3.153043e+001
9.178575e+002,3.067307e+001
9.188218e+002,2.999094e+001
9.197860e+002,3.182422e+001
9.207502e+002,3.625250e+001
9.217145e+002,3.804663e+001
9.226787e+002,3.504486e+001
9.236429e+002,3.055023e+001
9.246072e+002,2.888654e+001
9.255714e+002,3.041937e+001
9.265356e+002,3.209671e+001
9.274999e+002,3.454892e+001
9.284641e+002,3.567657e+001
9.294283e+002,3.436725e+001
9.303926e+002,3.141672e+001
9.313568e+002,2.782675e+001
9.323210e+002,2.397897e+001
9.332853e+002,2.086935e+001
9.342495e+002,2.081339e+001
9.352137e+002,2.242612e+001
9.361780e+002,2.451279e+001
9.371422e+002,2.687344e+001
9.381064e+002,2.829510e+001
9.390707e+002,2.657849e+001
9.400349e+002,2.056479e+001
9.409991e+002,1.806042e+001
9.419634e+002,2.211224e+001
9.429276e+002,2.516946e+001
9.438918e+002,2.434433e+001
9.448561e+002,2.166534e+001
9.458203e+002,2.081686e+001
9.467845e+002,2.315790e+001
9.477488e+002,2.587912e+001
9.487130e+002,2.708884e+001
9.496772e+002,2.755524e+001
9.506415e+002,2.768100e+001
9.516057e+002,2.759222e+001
9.525699e+002,2.723318e+001
9.535342e+002,2.650818e+001
9.544984e+002,2.545029e+001
9.554626e+002,2.501917e+001
9.564269e+002,2.543665e+001
9.573911e+002,2.635953e+001
9.583553e+002,2.848520e+001
9.593196e+002,3.061230e+001
9.602838e+002,3.033356e+001
9.612480e+002,2.666089e+001
9.622123e+002,2.414185e+001
9.631765e+002,2.447864e+001
9.641407e+002,2.593637e+001
9.651050e+002,2.896155e+001
9.660692e+002,3.220065e+001
9.670334e+002,3.320825e+001
9.679977e+002,3.051239e+001
9.689619e+002,2.629523e+001
9.699261e+002,2.491418e+001
9.708904e+002,2.542154e+001
9.718546e+002,2.584354e+001
9.728188e+002,2.565970e+001
9.737831e+002,2.531189e+001
9.747473e+002,2.549249e+001
9.757115e+002,2.638351e+001
9.766758e+002,2.716678e+001
9.776400e+002,2.783188e+001
9.786042e+002,2.870282e+001
9.795685e+002,2.977649e+001
9.805327e+002,3.088162e+001
9.814969e+002,3.212781e+001
9.824612e+002,3.367181e+001
9.834254e+002,3.484970e+001
9.843896e+002,3.438861e+001
9.853539e+002,3.321951e+001
9.863181e+002,3.266895e+001
9.872823e+002,3.245200e+001
9.882466e+002,3.116562e+001
9.892108e+002,2.773999e+001
9.901750e+002,2.290338e+001
9.911393e+002,2.028842e+001
9.921035e+002,2.039185e+001
9.930677e+002,2.114755e+001
9.940320e+002,2.350455e+001
9.949962e+002,2.608279e+001
9.959604e+002,2.738364e+001
9.969247e+002,2.740158e+001
9.978889e+002,2.778452e+001
9.988531e+002,2.883957e+001
9.998174e+002,3.054910e+001
1.000782e+003,3.411996e+001
1.001746e+003,3.813998e+001
1.002710e+003,4.017001e+001
1.003674e+003,3.933096e+001
1.004639e+003,3.745120e+001
1.005603e+003,3.788614e+001
1.006567e+003,4.083878e+001
1.007531e+003,4.183456e+001
1.008495e+003,3.958548e+001
1.009460e+003,3.807727e+001
1.010424e+003,4.109402e+001
1.011388e+003,4.708951e+001
1.012352e+003,4.924670e+001
1.013317e+003,4.465683e+001
1.014281e+003,4.012576e+001
1.015245e+003,3.783194e+001
1.016209e+003,3.616409e+001
1.017174e+003,3.400766e+001
1.018138e+003,3.133878e+001
1.019102e+003,2.883719e+001
1.020066e+003,2.709753e+001
1.021031e+003,2.604614e+001
1.021995e+003,2.538330e+001
1.022959e+003,2.481973e+001
1.023923e+003,2.356635e+001
1.024887e+003,2.111438e+001
1.025852e+003,1.821170e+001
1.026816e+003,1.610516e+001
1.027780e+003,1.505444e+001
1.028744e+003,1.428088e+001
1.029709e+003,1.416168e+001
1.030673e+003,1.371762e+001
1.031637e+003,1.193799e+001
1.032601e+003,9.841217e+000
1.033566e+003,9.184967e+000
1.034530e+003,1.058154e+001
1.035494e+003,1.223145e+001
1.036458e+003,1.172446e+001
1.037422e+003,1.030978e+001
1.038387e+003,1.051157e+001
1.039351e+003,1.214313e+001
1.040315e+003,1.312158e+001
1.041279e+003,1.184338e+001
1.042244e+003,8.946106e+000
1.043208e+003,7.221436e+000
1.044172e+003,7.087402e+000
1.045136e+003,7.213257e+000
1.046101e+003,7.739807e+000
1.047065e+003,8.486816e+000
1.048029e+003,9.507568e+000
1.048993e+003,1.059018e+001
1.049958e+003,1.106418e+001
1.050922e+003,1.034509e+001
1.051886e+003,9.979095e+000
1.052850e+003,1.187198e+001
1.053814e+003,1.478827e+001
1.054779e+003,1.761826e+001
1.055743e+003,1.985413e+001
1.056707e+003,2.065979e+001
1.057671e+003,1.888776e+001
1.058636e+003,1.447705e+001
1.059600e+003,1.215158e+001
1.060564e+003,1.379883e+001
1.061528e+003,1.511560e+001
1.062493e+003,1.500708e+001
1.063457e+003,1.432538e+001
1.064421e+003,1.438095e+001
1.065385e+003,1.535287e+001
1.066349e+003,1.542905e+001
1.067314e+003,1.239566e+001
1.068278e+003,9.802979e+000
1.069242e+003,1.114230e+001
1.070206e+003,1.433777e+001
1.071171e+003,1.579706e+001
1.072135e+003,1.404520e+001
1.073099e+003,1.076465e+001
1.074063e+003,8.903229e+000
1.075028e+003,8.659119e+000
1.075992e+003,8.665100e+000
1.076956e+003,8.757782e+000
1.077920e+003,9.009247e+000
1.078885e+003,9.771454e+000
1.079849e+003,1.083936e+001
1.080813e+003,1.182480e+001
1.081777e+003,1.277563e+001
1.082741e+003,1.325888e+001
1.083706e+003,1.164896e+001
1.084670e+003,1.036465e+001
1.085634e+003,1.150003e+001
1.086598e+003,1.390689e+001
1.087563e+003,1.521182e+001
1.088527e+003,1.421942e+001
1.089491e+003,1.210803e+001
1.090455e+003,1.087326e+001
1.091420e+003,1.049023e+001
1.092384e+003,1.039377e+001
1.093348e+003,1.090671e+001
1.094312e+003,1.086633e+001
1.095276e+003,9.143799e+000
1.096241e+003,6.575043e+000
1.097205e+003,5.623993e+000
1.098169e+003,7.128296e+000
1.099133e+003,8.214630e+000
1.100098e+003,6.924347e+000
1.101062e+003,5.864136e+000
1.102026e+003,7.300873e+000
1.102990e+003,1.033322e+001
1.103955e+003,1.249820e+001
1.104919e+003,1.227347e+001
1.105883e+003,1.054385e+001
1.106847e+003,9.101257e+000
1.107812e+003,7.973541e+000
1.108776e+003,7.659851e+000
1.109740e+003,8.498444e+000
1.110704e+003,9.498566e+000
1.111668e+003,9.974823e+000
1.112633e+003,1.021445e+001
1.113597e+003,1.109396e+001
1.114561e+003,1.302615e+001
1.115525e+003,1.443839e+001
1.116490e+003,1.417953e+001
1.117454e+003,1.388596e+001
1.118418e+003,1.524503e+001
1.119382e+003,1.766229e+001
1.120347e+003,1.917215e+001
1.121311e+003,1.843030e+001
1.122275e+003,1.615045e+001
1.123239e+003,1.407071e+001
1.124203e+003,1.243170e+001
1.125168e+003,1.106638e+001
1.126132e+003,9.927643e+000
1.127096e+003,9.314087e+000
1.128060e+003,8.921021e+000
1.129025e+003,9.012909e+000
1.129989e+003,1.147659e+001
1.130953e+003,1.776349e+001
1.131917e+003,2.323315e+001
1.132882e+003,2.683417e+001
1.133846e+003,2.935663e+001
1.134810e+003,3.101929e+001
1.135774e+003,3.207227e+001
1.136739e+003,3.256799e+001
1.137703e+003,3.255286e+001
1.138667e+003,3.273349e+001
1.139631e+003,3.468256e+001
1.140595e+003,3.809644e+001
1.141560e+003,4.026050e+001
1.142524e+003,4.064404e+001
1.143488e+003,4.178470e+001
1.144452e+003,4.514789e+001
1.145417e+003,5.056052e+001
1.146381e+003,5.775043e+001
1.147345e+003,6.767865e+001
1.148309e+003,7.654730e+001
1.149274e+003,8.240088e+001
1.150238e+003,8.828690e+001
1.151202e+003,9.555960e+001
1.152166e+003,1.042939e+002
1.153130e+003,1.146947e+002
1.154095e+003,1.264718e+002
1.155059e+003,1.375278e+002
1.156023e+003,1.454302e+002
1.156987e+003,1.499043e+002
1.157952e+003,1.506887e+002
1.158916e+003,1.476683e+002
1.159880e+003,1.438289e+002
1.160844e+003,1.416253e+002
1.161809e+003,1.387535e+002
1.162773e+003,1.294651e+002
1.163737e+003,1.117444e+002
1.164701e+003,9.679013e+001
1.165666e+003,8.976962e+001
1.166630e+003,8.393283e+001
1.167594e+003,7.691077e+001
1.168558e+003,6.947470e+001
1.169522e+003,6.270084e+001
1.170487e+003,5.711295e+001
1.171451e+003,5.313449e+001
1.172415e+003,5.134018e+001
1.173379e+003,5.132593e+001
1.174344e+003,5.113620e+001
1.175308e+003,5.078699e+001
1.176272e+003,5.078906e+001
1.177236e+003,5.172824e+001
1.178201e+003,5.289767e+001
1.179165e+003,5.348901e+001
1.180129e+003,5.338181e+001
1.181093e+003,5.194733e+001
1.182057e+003,4.809192e+001
1.183022e+003,4.448392e+001
1.183986e+003,4.201343e+001
1.184950e+003,4.030902e+001
1.185914e+003,3.909561e+001
1.186879e+003,3.831857e+001
1.187843e+003,3.797455e+001
1.188807e+003,3.799585e+001
1.189771e+003,3.850787e+001
1.190736e+003,4.054443e+001
1.191700e+003,4.443869e+001
1.192664e+003,4.572189e+001
1.193628e+003,4.234775e+001
1.194593e+003,3.869229e+001
1.195557e+003,3.819888e+001
1.196521e+003,3.989874e+001
1.197485e+003,4.062372e+001
1.198449e+003,4.011725e+001
1.199414e+003,3.804831e+001
1.200378e+003,3.194702e+001
1.201342e+003,2.637695e+001
1.202306e+003,2.409888e+001
1.203271e+003,2.464566e+001
1.204235e+003,2.716037e+001
1.205199e+003,3.089633e+001
1.206163e+003,3.413416e+001
1.207128e+003,3.376205e+001
1.208092e+003,2.954633e+001
1.209056e+003,2.699213e+001
1.210020e+003,2.737271e+001
1.210984e+003,2.665573e+001
1.211949e+003,2.256500e+001
1.212913e+003,1.737833e+001
1.213877e+003,1.447656e+001
1.214841e+003,1.403043e+001
1.215806e+003,1.243723e+001
1.216770e+003,6.731384e+000
1.217734e+003,2.043976e+000
1.218698e+003,2.779968e+000
1.219663e+003,5.683563e+000
1.220627e+003,6.967224e+000
1.221591e+003,5.891632e+000
1.222555e+003,3.733246e+000
1.223520e+003,1.651703e+000
1.224484e+003,-1.420898e-001
1.225448e+003,-9.645996e-001
1.226412e+003,-1.793213e-001
1.227376e+003,1.033630e-001
1.228341e+003,-8.899231e-001
1.229305e+003,-1.619293e+000
1.230269e+003,-9.059753e-001
1.231233e+003,5.488892e-001
1.232198e+003,1.386566e+000
1.233162e+003,1.331573e+000
1.234126e+003,8.487244e-001
1.235090e+003,-1.195679e-001
1.236055e+003,-1.235321e+000
1.237019e+003,-2.190674e+000
1.237983e+003,-2.998657e+000
1.238947e+003,-3.564331e+000
1.239911e+003,-3.774048e+000
1.240876e+003,-3.751862e+000
1.241840e+003,-3.796753e+000
1.242804e+003,-3.927368e+000
1.243768e+003,-3.632507e+000
1.244733e+003,-2.838837e+000
1.245697e+003,-1.628021e+000
1.246661e+003,8.589172e-001
1.247625e+003,2.694275e+000
1.248590e+003,2.116730e+000
1.249554e+003,-1.863403e-001
1.250518e+003,-2.322723e+000
1.251482e+003,-3.604767e+000
1.252447e+003,-3.897461e+000
1.253411e+003,-2.287872e+000
1.254375e+003,3.518982e-001
1.255339e+003,2.067108e+000
1.256303e+003,2.844604e+000
1.257268e+003,3.174438e+000
1.258232e+003,3.036987e+000
1.259196e+003,2.635437e+000
1.260160e+003,2.553802e+000
1.261125e+003,2.885712e+000
1.262089e+003,3.880157e+000
1.263053e+003,5.893646e+000
1.264017e+003,7.882294e+000
1.264982e+003,1.035822e+001
1.265946e+003,1.227972e+001
1.266910e+003,1.224805e+001
1.267874e+003,1.064767e+001
1.268839e+003,9.325684e+000
1.269803e+003,9.525879e+000
1.270767e+003,1.029327e+001
1.271731e+003,9.582123e+000
1.272695e+003,7.579834e+000
1.273660e+003,7.275360e+000
1.274624e+003,9.383331e+000
1.275588e+003,1.076712e+001
1.276552e+003,9.438812e+000
1.277517e+003,6.693634e+000
1.278481e+003,4.754578e+000
1.279445e+003,3.740570e+000
1.280409e+003,2.677155e+000
1.281374e+003,6.492310e-001
1.282338e+003,-5.333862e-001
1.283302e+003,8.432312e-001
1.284266e+003,2.967102e+000
1.285230e+003,3.949158e+000
1.286195e+003,3.388855e+000
1.287159e+003,1.722168e+000
1.288123e+003,-6.378174e-001
1.289087e+003,-3.170868e+000
1.290052e+003,-4.583649e+000
1.291016e+003,-4.797943e+000
1.291980e+003,-4.422272e+000
1.292944e+003,-3.008911e+000
1.293909e+003,-1.914001e+000
1.294873e+003,-1.623413e+000
1.295837e+003,-1.725494e+000
1.296801e+003,-1.729950e+000
1.297766e+003,-1.569458e+000
1.298730e+003,-1.562775e+000
1.299694e+003,-2.239990e+000
1.300658e+003,-2.677643e+000
1.301622e+003,-1.147644e+000
1.302587e+003,1.151154e+000
1.303551e+003,1.993927e+000
1.304515e+003,1.169159e+000
1.305479e+003,5.078735e-001
1.306444e+003,1.548126e+000
1.307408e+003,3.508057e+000
1.308372e+003,3.874451e+000
1.309336e+003,2.073364e+000
1.310301e+003,3.854980e-001
1.311265e+003,-8.783569e-001
1.312229e+003,-2.083008e+000
1.313193e+003,-4.013062e+000
1.314157e+003,-5.536224e+000
1.315122e+003,-5.067230e+000
1.316086e+003,-2.873199e+000
1.317050e+003,-6.423645e-001
1.318014e+003,6.553650e-001
1.318979e+003,8.566589e-001
1.319943e+003,-1.111145e+000
1.320907e+003,-4.708527e+000
1.321871e+003,-5.586853e+000
1.322836e+003,-2.918610e+000
1.323800e+003,-6.436157e-001
1.324764e+003,-1.756622e+000
1.325728e+003,-4.033417e+000
1.326693e+003,-3.269531e+000
1.327657e+003,6.256714e-001
1.328621e+003,3.275726e+000
1.329585e+003,3.501190e+000
1.330549e+003,3.217590e+000
1.331514e+003,2.949127e+000
1.332478e+003,2.459717e+000
1.333442e+003,1.574890e+000
1.334406e+003,4.560547e-001
1.335371e+003,-6.112366e-001
1.336335e+003,-1.447021e+000
1.337299e+003,-1.957825e+000
1.338263e+003,-1.997040e+000
1.339228e+003,-1.504211e+000
1.340192e+003,-1.036591e+000
1.341156e+003,-8.573914e-001
1.342120e+003,-3.322144e-001
1.343084e+003,1.238800e+000
1.344049e+003,2.367645e+000
1.345013e+003,1.515594e+000
1.345977e+003,-6.230469e-001
1.346941e+003,-2.095062e+000
1.347906e+003,-2.228180e+000
1.348870e+003,-1.418030e+000
1.349834e+003,6.367493e-001
1.350798e+003,2.730682e+000
1.351763e+003,2.293671e+000
1.352727e+003,-1.007080e-001
1.353691e+003,-1.082672e+000
1.354655e+003,9.429321e-001
1.355620e+003,3.504120e+000
1.356584e+003,3.401611e+000
1.357548e+003,1.063263e+000
1.358512e+003,2.273560e-002
1.359476e+003,8.647156e-001
1.360441e+003,1.218018e+000
1.361405e+003,-1.477966e-001
1.362369e+003,-1.280792e+000
1.363333e+003,-5.061340e-001
1.364298e+003,7.756348e-001
1.365262e+003,2.954102e-002
1.366226e+003,-2.886963e+000
1.367190e+003,-5.237732e+000
1.368155e+003,-4.555450e+000
1.369119e+003,-1.906982e+000
1.370083e+003,-6.458435e-001
1.371047e+003,-1.176544e+000
1.372011e+003,-1.071136e+000
1.372976e+003,-2.396545e-001
1.373940e+003,7.335205e-001
1.374904e+003,2.174194e+000
1.375868e+003,3.430237e+000
1.376833e+003,3.366455e+000
1.377797e+003,2.056549e+000
1.378761e+003,8.912354e-001
1.379725e+003,4.882202e-001
1.380690e+003,4.326172e-001
1.381654e+003,3.554382e-001
1.382618e+003,4.092102e-001
1.383582e+003,7.331543e-001
1.384547e+003,1.355164e+000
1.385511e+003,2.421875e+000
1.386475e+003,4.047241e+000
1.387439e+003,5.741882e+000
1.388403e+003,6.909973e+000
1.389368e+003,7.533386e+000
1.390332e+003,7.307343e+000
1.391296e+003,5.749939e+000
1.392260e+003,4.508087e+000
1.393225e+003,3.884216e+000
1.394189e+003,3.622498e+000
1.395153e+003,3.443878e+000
1.396117e+003,3.606171e+000
1.397082e+003,5.008636e+000
1.398046e+003,7.527985e+000
1.399010e+003,9.429993e+000
1.399974e+003,9.004456e+000
1.400938e+003,6.720459e+000
1.401903e+003,4.475220e+000
1.402867e+003,2.519012e+000
1.403831e+003,1.673523e+000
1.404795e+003,2.384399e+000
1.405760e+003,3.144836e+000
1.406724e+003,2.995819e+000
1.407688e+003,2.419067e+000
1.408652e+003,2.271912e+000
1.409617e+003,2.726959e+000
1.410581e+003,3.441132e+000
1.411545e+003,4.321259e+000
1.412509e+003,5.146240e+000
1.413474e+003,5.299103e+000
1.414438e+003,5.256744e+000
1.415402e+003,6.661560e+000
1.416366e+003,9.235504e+000
1.417330e+003,1.033844e+001
1.418295e+003,8.771088e+000
1.419259e+003,6.084381e+000
1.420223e+003,3.406891e+000
1.421187e+003,8.789368e-001
1.422152e+003,2.767639e-001
1.423116e+003,2.531616e+000
1.424080e+003,4.319580e+000
1.425044e+003,3.854889e+000
1.426009e+003,3.389679e+000
1.426973e+003,4.087341e+000
1.427937e+003,5.137726e+000
1.428901e+003,5.402496e+000
1.429865e+003,5.017944e+000
1.430830e+003,5.322205e+000
1.431794e+003,7.085815e+000
1.432758e+003,8.845947e+000
1.433722e+003,7.701630e+000
1.434687e+003,3.444794e+000
1.435651e+003,2.042542e+000
1.436615e+003,5.956177e+000
1.437579e+003,7.963531e+000
1.438544e+003,5.245148e+000
1.439508e+003,2.829132e+000
1.440472e+003,5.348267e+000
1.441436e+003,1.038840e+001
1.442401e+003,1.270270e+001
1.443365e+003,1.112549e+001
1.444329e+003,8.776733e+000
1.445293e+003,7.851746e+000
1.446257e+003,7.950928e+000
1.447222e+003,8.524445e+000
1.448186e+003,9.419342e+000
1.449150e+003,9.706635e+000
1.450114e+003,8.920532e+000
1.451079e+003,8.868561e+000
1.452043e+003,1.150354e+001
1.453007e+003,1.487558e+001
1.453971e+003,1.634735e+001
1.454936e+003,1.589819e+001
1.455900e+003,1.381848e+001
1.456864e+003,9.418427e+000
1.457828e+003,6.356171e+000
1.458792e+003,8.286835e+000
1.459757e+003,1.084302e+001
1.460721e+003,1.007025e+001
1.461685e+003,7.285187e+000
1.462649e+003,5.289520e+000
1.463614e+003,4.954376e+000
1.464578e+003,5.915192e+000
1.465542e+003,8.136383e+000
1.466506e+003,1.064731e+001
1.467471e+003,1.032022e+001
1.468435e+003,6.376892e+000
1.469399e+003,4.462494e+000
1.470363e+003,6.058990e+000
1.471328e+003,7.693787e+000
1.472292e+003,8.744354e+000
1.473256e+003,9.135712e+000
1.474220e+003,8.667572e+000
1.475184e+003,7.940308e+000
1.476149e+003,7.944366e+000
1.477113e+003,8.781281e+000
1.478077e+003,9.323029e+000
1.479041e+003,8.553406e+000
1.480006e+003,7.312164e+000
1.480970e+003,8.209930e+000
1.481934e+003,1.211249e+001
1.482898e+003,1.364957e+001
1.483863e+003,1.079092e+001
1.484827e+003,8.622375e+000
1.485791e+003,8.786041e+000
1.486755e+003,1.018170e+001
1.487719e+003,1.220605e+001
1.488684e+003,1.433090e+001
1.489648e+003,1.561099e+001
1.490612e+003,1.585706e+001
1.491576e+003,1.619839e+001
1.492541e+003,1.751572e+001
1.493505e+003,1.938608e+001
1.494469e+003,2.089310e+001
1.495433e+003,2.197028e+001
1.496398e+003,2.341632e+001
1.497362e+003,2.581787e+001
1.498326e+003,2.787720e+001
1.499290e+003,2.811975e+001
1.500255e+003,2.814905e+001
1.501219e+003,3.032544e+001
1.502183e+003,3.429202e+001
1.503147e+003,3.773563e+001
1.504111e+003,3.987732e+001
1.505076e+003,4.295746e+001
1.506040e+003,4.915060e+001
1.507004e+003,5.601761e+001
1.507968e+003,6.058020e+001
1.508933e+003,6.410611e+001
1.509897e+003,6.913669e+001
1.510861e+003,7.640945e+001
1.511825e+003,8.549634e+001
1.512790e+003,9.627405e+001
1.513754e+003,1.078228e+002
1.514718e+003,1.184319e+002
1.515682e+003,1.279576e+002
1.516646e+003,1.386570e+002
1.517611e+003,1.518859e+002
1.518575e+003,1.638893e+002
1.519539e+003,1.728893e+002
1.520503e+003,1.813246e+002
1.521468e+003,1.916771e+002
1.522432e+003,2.014848e+002
1.523396e+003,2.073787e+002
1.524360e+003,2.089222e+002
1.525325e+003,2.078264e+002
1.526289e+003,2.052650e+002
1.527253e+003,2.014015e+002
1.528217e+003,1.964636e+002
1.529182e+003,1.905913e+002
1.530146e+003,1.833559e+002
1.531110e+003,1.752685e+002
1.532074e+003,1.643809e+002
1.533039e+003,1.489451e+002
1.534003e+003,1.321935e+002
1.534967e+003,1.142384e+002
1.535931e+003,9.731824e+001
1.536896e+003,8.391440e+001
1.537860e+003,7.384344e+001
1.538824e+003,6.528799e+001
1.539788e+003,5.713324e+001
1.540752e+003,4.905313e+001
1.541717e+003,4.053381e+001
1.542681e+003,3.212567e+001
1.543645e+003,2.655551e+001
1.544609e+003,2.481662e+001
1.545573e+003,2.415948e+001
1.546538e+003,2.581494e+001
1.547502e+003,2.642984e+001
1.548466e+003,2.423337e+001
1.549430e+003,2.130350e+001
1.550395e+003,1.947998e+001
1.551359e+003,1.867093e+001
1.552323e+003,1.821317e+001
1.553287e+003,1.784753e+001
1.554252e+003,1.725851e+001
1.555216e+003,1.606155e+001
1.556180e+003,1.467838e+001
1.557144e+003,1.427203e+001
1.558109e+003,1.494290e+001
1.559073e+003,1.491547e+001
1.560037e+003,1.376538e+001
1.561001e+003,1.220874e+001
1.561966e+003,9.861481e+000
1.562930e+003,8.214325e+000
1.563894e+003,8.947327e+000
1.564858e+003,1.119415e+001
1.565823e+003,1.315125e+001
1.566787e+003,1.437088e+001
1.567751e+003,1.443143e+001
1.568715e+003,1.286792e+001
1.569679e+003,1.091125e+001
1.570644e+003,9.774536e+000
1.571608e+003,9.401062e+000
1.572572e+003,9.996735e+000
1.573536e+003,1.169733e+001
1.574500e+003,1.334927e+001
1.575465e+003,1.464743e+001
1.576429e+003,1.554483e+001
1.577393e+003,1.607919e+001
1.578357e+003,1.603159e+001
1.579322e+003,1.459869e+001
1.580286e+003,1.198969e+001
1.581250e+003,1.082471e+001
1.582214e+003,1.232257e+001
1.583179e+003,1.371896e+001
1.584143e+003,1.222998e+001
1.585107e+003,1.007065e+001
1.586071e+003,1.086063e+001
1.587036e+003,1.376236e+001
1.588000e+003,1.560602e+001
1.588964e+003,1.558304e+001
1.589928e+003,1.480087e+001
1.590893e+003,1.334879e+001
1.591857e+003,1.222070e+001
1.592821e+003,1.364325e+001
1.593785e+003,1.698557e+001
1.594750e+003,1.806564e+001
1.595714e+003,1.588879e+001
1.596678e+003,1.409567e+001
1.597642e+003,1.384903e+001
1.598606e+003,1.493365e+001
1.599571e+003,1.863379e+001
1.600535e+003,2.270309e+001
1.601499e+003,2.373386e+001
1.602463e+003,2.200146e+001
1.603427e+003,2.043533e+001
1.604392e+003,2.024164e+001
1.605356e+003,2.043652e+001
1.606320e+003,1.996548e+001
1.607284e+003,1.914194e+001
1.608249e+003,1.870651e+001
1.609213e+003,1.865042e+001
1.610177e+003,1.965948e+001
1.611141e+003,2.267584e+001
1.612106e+003,2.470526e+001
1.613070e+003,2.364627e+001
1.614034e+003,2.158270e+001
1.614998e+003,1.945035e+001
1.615963e+003,1.758963e+001
1.616927e+003,1.647095e+001
1.617891e+003,1.607935e+001
1.618855e+003,1.591605e+001
1.619820e+003,1.559192e+001
1.620784e+003,1.535858e+001
1.621748e+003,1.596729e+001
1.622712e+003,1.746948e+001
1.623677e+003,1.897076e+001
1.624641e+003,2.061664e+001
1.625605e+003,2.145135e+001
1.626569e+003,2.058783e+001
1.627533e+003,1.919531e+001
1.628498e+003,1.745584e+001
1.629462e+003,1.614938e+001
1.630426e+003,1.620386e+001
1.631390e+003,1.707446e+001
1.632354e+003,1.777121e+001
1.633319e+003,1.793683e+001
1.634283e+003,1.716245e+001
1.635247e+003,1.486142e+001
1.636211e+003,1.223236e+001
1.637176e+003,1.163800e+001
1.638140e+003,1.301685e+001
1.639104e+003,1.455249e+001
1.640068e+003,1.649557e+001
1.641033e+003,1.708121e+001
1.641997e+003,1.455643e+001
1.642961e+003,1.262729e+001
1.643925e+003,1.374414e+001
1.644890e+003,1.574548e+001
1.645854e+003,1.669440e+001
1.646818e+003,1.658194e+001
1.647782e+003,1.572922e+001
1.648747e+003,1.435223e+001
1.649711e+003,1.367935e+001
1.650675e+003,1.504004e+001
1.651639e+003,1.734506e+001
1.652604e+003,1.824225e+001
1.653568e+003,1.767746e+001
1.654532e+003,1.602148e+001
1.655496e+003,1.255103e+001
1.656460e+003,1.074307e+001
1.657425e+003,1.334351e+001
1.658389e+003,1.558069e+001
1.659353e+003,1.385287e+001
1.660317e+003,1.122015e+001
1.661281e+003,1.139001e+001
1.662246e+003,1.354880e+001
1.663210e+003,1.445428e+001
1.664174e+003,1.311761e+001
1.665138e+003,1.130185e+001
1.666103e+003,1.041013e+001
1.667067e+003,9.932037e+000
1.668031e+003,8.801971e+000
1.668995e+003,7.138977e+000
1.669960e+003,6.141602e+000
1.670924e+003,6.064484e+000
1.671888e+003,6.127167e+000
1.672852e+003,6.001129e+000
1.673817e+003,5.929382e+000
1.674781e+003,5.580139e+000
1.675745e+003,5.672852e+000
1.676709e+003,7.653870e+000
1.677674e+003,1.075336e+001
1.678638e+003,1.243732e+001
1.679602e+003,1.192239e+001
1.680566e+003,1.089780e+001
1.681531e+003,1.085654e+001
1.682495e+003,1.101776e+001
1.683459e+003,9.410522e+000
1.684423e+003,6.410736e+000
1.685387e+003,5.174011e+000
1.686352e+003,6.234680e+000
1.687316e+003,7.371185e+000
1.688280e+003,7.913391e+000
1.689244e+003,8.297241e+000
1.690208e+003,8.981293e+000
1.691173e+003,9.487885e+000
1.692137e+003,9.306732e+000
1.693101e+003,8.642975e+000
1.694065e+003,7.624634e+000
1.695030e+003,6.105774e+000
1.695994e+003,5.405731e+000
1.696958e+003,7.256927e+000
1.697922e+003,9.376160e+000
1.698887e+003,8.349731e+000
1.699851e+003,5.383453e+000
1.700815e+003,4.261963e+000
1.701779e+003,5.197388e+000
1.702744e+003,5.318512e+000
1.703708e+003,3.440125e+000
1.704672e+003,2.483429e+000
1.705636e+003,5.136383e+000
1.706601e+003,8.878937e+000
1.707565e+003,1.081509e+001
1.708529e+003,1.101746e+001
1.709493e+003,8.459778e+000
1.710458e+003,2.528717e+000
1.711422e+003,-1.651672e+000
1.712386e+003,-9.335632e-001
1.713350e+003,1.223022e+000
1.714314e+003,2.213715e+000
1.715279e+003,2.482056e+000
1.716243e+003,2.906921e+000
1.717207e+003,3.506348e+000
1.718171e+003,3.914917e+000
1.719135e+003,4.062958e+000
1.720100e+003,4.048676e+000
1.721064e+003,3.922516e+000
1.722028e+003,3.431854e+000
1.722992e+003,1.990417e+000
1.723957e+003,1.359253e-001
1.724921e+003,3.737183e-001
1.725885e+003,2.989502e+000
1.726849e+003,4.155487e+000
1.727814e+003,2.122955e+000
1.728778e+003,6.500244e-001
1.729742e+003,1.961212e+000
1.730706e+003,3.891632e+000
1.731671e+003,4.235504e+000
1.732635e+003,3.278656e+000
1.733599e+003,2.391632e+000
1.734563e+003,1.868164e+000
1.735528e+003,5.347595e-001
1.736492e+003,-2.288422e+000
1.737456e+003,-4.575562e+000
1.738420e+003,-3.736511e+000
1.739385e+003,-9.718628e-001
1.740349e+003,-3.768005e-001
1.741313e+003,-2.497101e+000
1.742277e+003,-3.467834e+000
1.743241e+003,-2.429413e+000
1.744206e+003,-1.444489e+000
1.745170e+003,-1.147705e+000
1.746134e+003,-6.734619e-001
1.747098e+003,1.182739e+000
1.748063e+003,2.916443e+000
1.749027e+003,2.402008e+000
1.749991e+003,2.739868e-001
1.750955e+003,-1.324371e+000
1.751919e+003,-1.696045e+000
1.752884e+003,-1.785645e+000
1.753848e+003,-2.372864e+000
1.754812e+003,-3.217804e+000
1.755776e+003,-3.737000e+000
1.756741e+003,-3.816742e+000
1.757705e+003,-3.781616e+000
1.758669e+003,-3.649811e+000
1.759633e+003,-3.713562e+000
1.760598e+003,-4.793762e+000
1.761562e+003,-5.119904e+000
1.762526e+003,-3.083038e+000
1.763490e+003,-9.821472e-001
1.764455e+003,-5.590515e-001
1.765419e+003,-1.053131e+000
1.766383e+003,-1.405182e+000
1.767347e+003,-1.398743e+000
1.768312e+003,-9.082947e-001
1.769276e+003,1.012573e-001
1.770240e+003,9.971619e-001
1.771204e+003,1.543945e+000
1.772168e+003,1.540375e+000
1.773133e+003,-5.978088e-001
1.774097e+003,-4.442902e+000
1.775061e+003,-4.983917e+000
1.776025e+003,-1.276428e+000
1.776990e+003,1.046844e+000
1.777954e+003,-3.052979e-001
1.778918e+003,-2.007629e+000
1.779882e+003,-1.831909e+000
1.780846e+003,-7.909851e-001
1.781811e+003,1.806641e-001
1.782775e+003,9.804382e-001
1.783739e+003,1.166199e+000
1.784703e+003,7.139893e-001
1.785668e+003,-2.432251e-001
1.786632e+003,-2.882874e+000
1.787596e+003,-4.711060e+000
1.788560e+003,-2.708221e+000
1.789525e+003,7.293701e-001
1.790489e+003,2.239441e+000
1.791453e+003,1.891968e+000
1.792417e+003,5.296326e-001
1.793382e+003,-1.415863e+000
1.794346e+003,-2.337555e+000
1.795310e+003,-1.347321e+000
1.796274e+003,2.170410e-001
1.797239e+003,9.172668e-001
1.798203e+003,1.263672e+000
1.799167e+003,2.581970e+000
1.800131e+003,5.164703e+000
1.801095e+003,4.609375e+000
1.802060e+003,-2.399445e+000
1.803024e+003,-6.368683e+000
1.803988e+003,-4.590210e+000
1.804952e+003,-2.029724e+000
1.805917e+003,-2.870178e-001
1.806881e+003,4.708557e-001
1.807845e+003,-4.502258e-001
1.808809e+003,-1.985107e+000
1.809773e+003,-1.874481e+000
1.810738e+003,6.561279e-003
1.811702e+003,1.280518e+000
1.812666e+003,4.683228e-001
1.813630e+003,-1.036255e+000
1.814595e+003,-1.386932e+000
1.815559e+003,-8.614807e-001
1.816523e+003,-2.983704e-001
1.817487e+003,3.865662e-001
1.818452e+003,4.259644e-001
1.819416e+003,-4.936523e-001
1.820380e+003,-8.473511e-001
1.821344e+003,-2.948303e-001
1.822309e+003,7.398987e-001
1.823273e+003,2.855042e+000
1.824237e+003,4.857971e+000
1.825201e+003,5.193634e+000
1.826166e+003,4.311676e+000
1.827130e+003,3.618896e+000
1.828094e+003,3.309113e+000
1.829058e+003,2.759949e+000
1.830022e+003,1.544128e+000
1.830987e+003,5.466614e-001
1.831951e+003,7.572021e-001
1.832915e+003,1.448730e+000
1.833879e+003,1.699615e+000
1.834844e+003,1.465729e+000
1.835808e+003,4.862976e-001
1.836772e+003,-1.076935e+000
1.837736e+003,-1.701935e+000
1.838700e+003,-7.532959e-001
1.839665e+003,2.520447e-001
1.840629e+003,-4.666138e-002
1.841593e+003,-9.994812e-001
1.842557e+003,-1.319733e+000
1.843522e+003,-1.026062e+000
1.844486e+003,-1.027191e+000
1.845450e+003,-1.473206e+000
1.846414e+003,-1.566284e+000
1.847379e+003,-1.697754e+000
1.848343e+003,-1.402527e+000
1.849307e+003,3.299561e-001
1.850271e+003,1.786438e+000
1.851236e+003,1.647614e+000
1.852200e+003,6.635742e-001
1.853164e+003,-1.954651e-001
1.854128e+003,-1.000916e+000
1.855093e+003,-2.665436e+000
1.856057e+003,-5.161560e+000
1.857021e+003,-6.144196e+000
1.857985e+003,-3.453156e+000
1.858949e+003,3.775635e-001
1.859914e+003,5.968628e-001
1.860878e+003,-1.946045e+000
1.861842e+003,-2.549469e+000
1.862806e+003,-1.193542e+000
1.863771e+003,3.565369e-001
1.864735e+003,2.003845e+000
1.865699e+003,2.630554e+000
1.866663e+003,1.451233e+000
1.867627e+003,-7.580566e-002
1.868592e+003,-1.044220e+000
1.869556e+003,-1.535767e+000
1.870520e+003,-1.160309e+000
1.871484e+003,-1.508179e-001
1.872449e+003,-6.018066e-002
1.873413e+003,-9.189148e-001
1.874377e+003,-1.546936e+000
1.875341e+003,-2.352783e+000
1.876306e+003,-2.588562e+000
1.877270e+003,-1.560608e+000
1.878234e+003,-1.240845e-001
1.879198e+003,1.112457e+000
1.880163e+003,2.080688e+000
1.881127e+003,2.917877e+000
1.882091e+003,3.545288e+000
1.883055e+003,3.409332e+000
1.884020e+003,2.370911e+000
1.884984e+003,1.382965e+000
1.885948e+003,1.332977e+000
1.886912e+003,1.680481e+000
1.887876e+003,1.155426e+000
1.888841e+003,-1.547241e-002
1.889805e+003,1.264099e+000
1.890769e+003,5.877045e+000
1.891733e+003,8.048645e+000
1.892698e+003,6.299316e+000
1.893662e+003,4.073181e+000
1.894626e+003,2.042084e+000
1.895590e+003,6.138916e-001
1.896554e+003,2.373047e-001
1.897519e+003,6.207275e-001
1.898483e+003,1.727203e+000
1.899447e+003,3.070435e+000
1.900411e+003,3.349945e+000
1.901376e+003,2.327942e+000
1.902340e+003,1.678619e+000
1.903304e+003,2.375610e+000
1.904268e+003,2.992584e+000
1.905233e+003,2.638184e+000
1.906197e+003,1.916168e+000
1.907161e+003,1.063232e+000
1.908125e+003,5.560303e-001
1.909090e+003,1.550537e+000
1.910054e+003,3.470032e+000
1.911018e+003,4.007660e+000
1.911982e+003,2.621094e+000
1.912947e+003,1.245026e+000
1.913911e+003,1.257690e+000
1.914875e+003,1.910919e+000
1.915839e+003,2.025330e+000
1.916803e+003,1.574249e+000
1.917768e+003,8.157654e-001
1.918732e+003,-3.588257e-001
1.919696e+003,-3.773193e-001
1.920660e+003,1.444244e+000
1.921625e+003,2.760468e+000
1.922589e+003,2.815674e+000
1.923553e+003,2.496948e+000
1.924517e+003,1.640869e+000
1.925481e+003,1.209503e+000
1.926446e+003,2.797394e+000
1.927410e+003,5.153839e+000
1.928374e+003,5.452423e+000
1.929338e+003,3.622070e+000
1.930303e+003,2.640869e+000
1.931267e+003,3.894623e+000
1.932231e+003,4.651764e+000
1.933195e+003,2.340515e+000
1.934160e+003,3.872986e-001
1.935124e+003,2.500214e+000
1.936088e+003,5.325195e+000
1.937052e+003,4.177521e+000
1.938017e+003,7.555237e-001
1.938981e+003,-4.845276e-001
1.939945e+003,8.220215e-001
1.940909e+003,1.796814e+000
1.941874e+003,1.120575e+000
1.942838e+003,1.918335e-001
1.943802e+003,4.379578e-001
1.944766e+003,1.357178e+000
1.945730e+003,1.581970e+000
1.946695e+003,1.183838e+000
1.947659e+003,1.660492e+000
1.948623e+003,3.089539e+000
1.949587e+003,4.253113e+000
1.950552e+003,5.347260e+000
1.951516e+003,4.901672e+000
1.952480e+003,1.091583e+000
1.953444e+003,-1.441162e+000
1.954408e+003,1.835938e+000
1.955373e+003,6.713684e+000
1.956337e+003,7.291168e+000
1.957301e+003,4.782196e+000
1.958265e+003,2.685516e+000
1.959230e+003,1.000824e+000
1.960194e+003,6.121826e-001
1.961158e+003,2.685516e+000
1.962122e+003,4.001282e+000
1.963087e+003,3.232330e+000
1.964051e+003,2.184143e+000
1.965015e+003,1.811523e+000
1.965979e+003,1.985260e+000
1.966944e+003,2.848938e+000
1.967908e+003,3.680603e+000
1.968872e+003,2.731750e+000
1.969836e+003,6.094666e-001
1.970801e+003,6.894531e-001
1.971765e+003,4.268524e+000
1.972729e+003,8.266968e+000
1.973693e+003,1.026871e+001
1.974657e+003,1.069971e+001
1.975622e+003,9.449463e+000
1.976586e+003,7.300049e+000
1.977550e+003,6.621399e+000
1.978514e+003,7.278748e+000
1.979479e+003,8.014343e+000
1.980443e+003,8.577698e+000
1.981407e+003,8.797119e+000
1.982371e+003,8.656891e+000
1.983335e+003,8.288513e+000
1.984300e+003,7.668030e+000
1.985264e+003,6.976105e+000
1.986228e+003,6.608093e+000
1.987192e+003,6.479034e+000
1.988157e+003,6.138428e+000
1.989121e+003,5.497040e+000
1.990085e+003,5.433228e+000
1.991049e+003,6.547058e+000
1.992014e+003,7.185760e+000
1.992978e+003,6.708405e+000
1.993942e+003,6.179871e+000
1.994906e+003,5.846619e+000
1.995871e+003,5.720184e+000
1.996835e+003,6.080414e+000
1.997799e+003,6.583038e+000
1.998763e+003,6.397736e+000
1.999728e+003,5.719910e+000
