5.003444e+002,4.524713e+001
5.013087e+002,4.394656e+001
5.022729e+002,4.221155e+001
5.032371e+002,4.039557e+001
5.042014e+002,3.880478e+001
5.051656e+002,3.747488e+001
5.061298e+002,3.642392e+001
5.070941e+002,3.562155e+001
5.080583e+002,3.496063e+001
5.090225e+002,3.459644e+001
5.099868e+002,3.466971e+001
5.109510e+002,3.477164e+001
5.119152e+002,3.480627e+001
5.128795e+002,3.479715e+001
5.138437e+002,3.445712e+001
5.148079e+002,3.362964e+001
5.157722e+002,3.261850e+001
5.167364e+002,3.114035e+001
5.177006e+002,2.932892e+001
5.186649e+002,2.785849e+001
5.196291e+002,2.830746e+001
5.205933e+002,2.949179e+001
5.215576e+002,2.926605e+001
5.225218e+002,2.754190e+001
5.234860e+002,2.584778e+001
5.244503e+002,2.726169e+001
5.254145e+002,3.340656e+001
5.263787e+002,3.699728e+001
5.273430e+002,3.679330e+001
5.283072e+002,3.491321e+001
5.292714e+002,3.433203e+001
5.302357e+002,3.613037e+001
5.311999e+002,3.605472e+001
5.321641e+002,3.245541e+001
5.331284e+002,2.846896e+001
5.340926e+002,2.676578e+001
5.350568e+002,2.837329e+001
5.360211e+002,2.987796e+001
5.369853e+002,2.786154e+001
5.379495e+002,2.482959e+001
5.389138e+002,2.249451e+001
5.398780e+002,2.158774e+001
5.408422e+002,2.181433e+001
5.418065e+002,2.297137e+001
5.427707e+002,2.483585e+001
5.437349e+002,2.555237e+001
5.446992e+002,2.431857e+001
5.456634e+002,2.173221e+001
5.466276e+002,1.996515e+001
5.475919e+002,1.958890e+001
5.485561e+002,1.969379e+001
5.495203e+002,2.067297e+001
5.504846e+002,2.180438e+001
5.514488e+002,2.212140e+001
5.524130e+002,2.117929e+001
5.533773e+002,1.988385e+001
5.543415e+002,1.843936e+001
5.553057e+002,1.712436e+001
5.562700e+002,1.615463e+001
5.572342e+002,1.563760e+001
5.581984e+002,1.551672e+001
5.591627e+002,1.625204e+001
5.601269e+002,1.749033e+001
5.610911e+002,1.806903e+001
5.620554e+002,1.728503e+001
5.630196e+002,1.525281e+001
5.639838e+002,1.368793e+001
5.649481e+002,1.261487e+001
5.659123e+002,1.197479e+001
5.668765e+002,1.247153e+001
5.678408e+002,1.370227e+001
5.688050e+002,1.415564e+001
5.697692e+002,1.249774e+001
5.707335e+002,1.068762e+001
5.716977e+002,8.995667e+000
5.726619e+002,7.776062e+000
5.736262e+002,7.614471e+000
5.745904e+002,9.129456e+000
5.755546e+002,1.111136e+001
5.765189e+002,1.106311e+001
5.774831e+002,9.827545e+000
5.784473e+002,9.342163e+000
5.794116e+002,1.099017e+001
5.803758e+002,1.456604e+001
5.813400e+002,1.551581e+001
5.823043e+002,1.286588e+001
5.832685e+002,1.030786e+001
5.842327e+002,9.386627e+000
5.851970e+002,9.968079e+000
5.861612e+002,1.034427e+001
5.871254e+002,9.555481e+000
5.880897e+002,9.120117e+000
5.890539e+002,9.719696e+000
5.900181e+002,1.068170e+001
5.909824e+002,1.079138e+001
5.919466e+002,8.954254e+000
5.929108e+002,7.024231e+000
5.938751e+002,6.927277e+000
5.948393e+002,8.017548e+000
5.958035e+002,9.543945e+000
5.967678e+002,1.096442e+001
5.977320e+002,1.224008e+001
5.986962e+002,1.234097e+001
5.996605e+002,1.120016e+001
6.006247e+002,9.379547e+000
6.015889e+002,6.529602e+000
6.025532e+002,2.846069e+000
6.035174e+002,7.663879e-001
6.044816e+002,1.740295e+000
6.054459e+002,3.035614e+000
6.064101e+002,4.799805e+000
6.073743e+002,6.532990e+000
6.083386e+002,7.455261e+000
6.093028e+002,6.964386e+000
6.102670e+002,6.012268e+000
6.112313e+002,5.225677e+000
6.121955e+002,4.559814e+000
6.131597e+002,3.847260e+000
6.141240e+002,2.983368e+000
6.150882e+002,2.147034e+000
6.160524e+002,2.443878e+000
6.170167e+002,3.754333e+000
6.179809e+002,5.182373e+000
6.189451e+002,6.382355e+000
6.199094e+002,7.205536e+000
6.208736e+002,7.207214e+000
6.218378e+002,5.399048e+000
6.228021e+002,4.282043e+000
6.237663e+002,4.395355e+000
6.247305e+002,5.310883e+000
6.256948e+002,6.366821e+000
6.266590e+002,7.459076e+000
6.276232e+002,7.782227e+000
6.285875e+002,7.002869e+000
6.295517e+002,5.669128e+000
6.305159e+002,4.129303e+000
6.314802e+002,2.561768e+000
6.324444e+002,1.029083e+000
6.334086e+002,-1.725769e-001
6.343729e+002,-8.958435e-001
6.353371e+002,-6.752319e-001
6.363013e+002,7.650146e-001
6.372656e+002,2.954468e+000
6.382298e+002,4.385010e+000
6.391940e+002,4.760712e+000
6.401583e+002,4.404846e+000
6.411225e+002,3.079346e+000
6.420867e+002,1.555450e+000
6.430510e+002,6.954346e-001
6.440152e+002,8.163757e-001
6.449794e+002,5.598755e-001
6.459437e+002,-1.584320e+000
6.469079e+002,-3.769348e+000
6.478721e+002,-4.142212e+000
6.488364e+002,-2.223755e+000
6.498006e+002,4.317322e-001
6.507648e+002,7.071838e-001
6.517291e+002,-5.271912e-001
6.526933e+002,-9.129944e-001
6.536575e+002,2.236938e-002
6.546218e+002,1.497223e+000
6.555860e+002,2.046600e+000
6.565502e+002,1.378632e+000
6.575145e+002,6.393433e-002
6.584787e+002,-3.008484e+000
6.594429e+002,-5.748932e+000
6.604072e+002,-6.326569e+000
6.613714e+002,-4.316864e+000
6.623356e+002,-1.890503e+000
6.632999e+002,1.090942e+000
6.642641e+002,2.995087e+000
6.652283e+002,2.136414e+000
6.661926e+002,-8.266296e-001
6.671568e+002,-3.319275e+000
6.681210e+002,-1.880066e+000
6.690853e+002,1.668732e+000
6.700495e+002,2.441925e+000
6.710137e+002,4.871521e-001
6.719780e+002,-2.121948e+000
6.729422e+002,-3.250397e+000
6.739064e+002,-2.723267e+000
6.748707e+002,-1.952698e+000
6.758349e+002,-2.201233e-001
6.767991e+002,8.150330e-001
6.777634e+002,1.237793e-001
6.787276e+002,-1.885651e+000
6.796918e+002,-3.074524e+000
6.806561e+002,-2.412109e+000
6.816203e+002,-1.315735e+000
6.825845e+002,2.581787e-002
6.835488e+002,1.351746e+000
6.845130e+002,2.484558e+000
6.854772e+002,3.380829e+000
6.864415e+002,3.838593e+000
6.874057e+002,2.409821e+000
6.883699e+002,-2.263794e-001
6.893342e+002,-1.393463e+000
6.902984e+002,6.503296e-001
6.912626e+002,5.196686e+000
6.922269e+002,6.932892e+000
6.931911e+002,3.197327e+000
6.941553e+002,7.837219e-001
6.951196e+002,7.203979e-001
6.960838e+002,1.746185e+000
6.970480e+002,1.855682e+000
6.980123e+002,9.979248e-002
6.989765e+002,-8.567200e-001
6.999407e+002,4.865417e-001
7.009050e+002,2.508667e+000
7.018692e+002,4.267822e+000
7.028334e+002,5.247589e+000
7.037977e+002,5.129364e+000
7.047619e+002,2.695831e+000
7.057261e+002,-7.534180e-001
7.066904e+002,-2.812744e+000
7.076546e+002,-3.098999e+000
7.086188e+002,-2.319733e+000
7.095831e+002,-1.518982e+000
7.105473e+002,-6.375732e-001
7.115115e+002,-3.511047e-001
7.124758e+002,-9.813232e-001
7.134400e+002,-1.864288e+000
7.144042e+002,-2.551270e+000
7.153685e+002,-2.954285e+000
7.163327e+002,-3.343964e+000
7.172969e+002,-4.427155e+000
7.182612e+002,-4.871674e+000
7.192254e+002,-3.455383e+000
7.201896e+002,-1.075195e+000
7.211539e+002,3.649597e-001
7.221181e+002,-8.599854e-001
7.230823e+002,-3.388306e+000
7.240466e+002,-3.323090e+000
7.250108e+002,-1.085663e+000
7.259750e+002,1.447083e+000
7.269393e+002,3.180145e+000
7.279035e+002,3.865082e+000
7.288677e+002,3.078064e+000
7.298320e+002,-1.212067e+000
7.307962e+002,-3.650360e+000
7.317604e+002,-2.932617e+000
7.327247e+002,-5.028381e-001
7.336889e+002,1.780762e+000
7.346531e+002,3.494232e+000
7.356174e+002,3.628326e+000
7.365816e+002,9.802551e-001
7.375458e+002,-2.029663e+000
7.385101e+002,-3.513062e+000
7.394743e+002,-3.068909e+000
7.404385e+002,-1.814026e+000
7.414028e+002,-1.437164e+000
7.423670e+002,-2.133179e+000
7.433312e+002,-2.903625e+000
7.442955e+002,-3.446350e+000
7.452597e+002,-3.494141e+000
7.462239e+002,-2.887268e+000
7.471882e+002,-1.662903e+000
7.481524e+002,8.316040e-002
7.491166e+002,3.264221e+000
7.500809e+002,5.330322e+000
7.510451e+002,4.760559e+000
7.520093e+002,2.180664e+000
7.529736e+002,1.141357e-002
7.539378e+002,1.136169e-001
7.549020e+002,1.832581e-001
7.558663e+002,-2.184814e+000
7.568306e+002,-5.276215e+000
7.577948e+002,-6.513184e+000
7.587590e+002,-4.508240e+000
7.597233e+002,-7.460022e-001
7.606875e+002,5.707092e-001
7.616517e+002,-1.067505e-001
7.626160e+002,-2.781067e-001
7.635802e+002,9.393616e-001
7.645444e+002,2.795441e+000
7.655087e+002,3.590637e+000
7.664729e+002,2.545929e+000
7.674371e+002,1.976166e+000
7.684014e+002,2.832581e+000
7.693656e+002,3.385986e+000
7.703298e+002,1.880035e+000
7.712941e+002,-1.524994e+000
7.722583e+002,-3.835724e+000
7.732225e+002,-1.926086e+000
7.741868e+002,1.152008e+000
7.751510e+002,3.760986e+000
7.761152e+002,5.448822e+000
7.770795e+002,5.416687e+000
7.780437e+002,2.887207e+000
7.790079e+002,-1.586639e+000
7.799722e+002,-2.036530e+000
7.809364e+002,1.863861e+000
7.819006e+002,4.890930e+000
7.828649e+002,4.586914e+000
7.838291e+002,2.084900e+000
7.847933e+002,9.443970e-001
7.857576e+002,2.049164e+000
7.867218e+002,2.679321e+000
7.876860e+002,2.122406e+000
7.886503e+002,1.482605e+000
7.896145e+002,2.047943e+000
7.905787e+002,4.007080e+000
7.915430e+002,5.531647e+000
7.925072e+002,3.270050e+000
7.934714e+002,3.234863e-002
7.944357e+002,-5.895081e-001
7.953999e+002,1.514740e+000
7.963641e+002,4.471863e+000
7.973284e+002,6.143188e+000
7.982926e+002,6.458466e+000
7.992568e+002,6.526093e+000
8.002211e+002,6.215515e+000
8.011853e+002,5.185303e+000
8.021495e+002,3.057678e+000
8.031138e+002,5.612183e-001
8.040780e+002,-5.176697e-001
8.050422e+002,5.010986e-001
8.060065e+002,1.938873e+000
8.069707e+002,3.691223e+000
8.079349e+002,5.045288e+000
8.088992e+002,5.077881e+000
8.098634e+002,3.701172e+000
8.108276e+002,2.315277e+000
8.117919e+002,3.176727e+000
8.127561e+002,4.918030e+000
8.137203e+002,5.282532e+000
8.146846e+002,4.227997e+000
8.156488e+002,2.859131e+000
8.166130e+002,2.394196e+000
8.175773e+002,2.949890e+000
8.185415e+002,3.387482e+000
8.195057e+002,3.619141e+000
8.204700e+002,3.526337e+000
8.214342e+002,2.767426e+000
8.223984e+002,1.665039e+000
8.233627e+002,1.029175e+000
8.243269e+002,1.184540e+000
8.252911e+002,1.987396e+000
8.262554e+002,3.796417e+000
8.272196e+002,5.724030e+000
8.281838e+002,6.922852e+000
8.291481e+002,7.033936e+000
8.301123e+002,6.117157e+000
8.310765e+002,3.817017e+000
8.320408e+002,4.769592e-001
8.330050e+002,2.142334e-002
8.339692e+002,3.478302e+000
8.349335e+002,7.449738e+000
8.358977e+002,8.098785e+000
8.368619e+002,4.843842e+000
8.378262e+002,3.464935e+000
8.387904e+002,6.405945e+000
8.397546e+002,8.291260e+000
8.407189e+002,7.040344e+000
8.416831e+002,4.050354e+000
8.426473e+002,1.791656e+000
8.436116e+002,1.362976e+000
8.445758e+002,2.021973e+000
8.455400e+002,3.358948e+000
8.465043e+002,4.640106e+000
8.474685e+002,5.165558e+000
8.484327e+002,4.942566e+000
8.493970e+002,4.513824e+000
8.503612e+002,4.509705e+000
8.513254e+002,4.835175e+000
8.522897e+002,6.260498e+000
8.532539e+002,9.871613e+000
8.542181e+002,1.281555e+001
8.551824e+002,1.335947e+001
8.561466e+002,1.194913e+001
8.571108e+002,1.073996e+001
8.580751e+002,9.460724e+000
8.590393e+002,8.432495e+000
8.600035e+002,7.992401e+000
8.609678e+002,8.051392e+000
8.619320e+002,8.554260e+000
8.628962e+002,9.414764e+000
8.638605e+002,1.035825e+001
8.648247e+002,1.090210e+001
8.657889e+002,1.123602e+001
8.667532e+002,1.202203e+001
8.677174e+002,1.333704e+001
8.686816e+002,1.440933e+001
8.696459e+002,1.418030e+001
8.706101e+002,1.234119e+001
8.715743e+002,1.238959e+001
8.725386e+002,1.649246e+001
8.735028e+002,1.959735e+001
8.744670e+002,1.960098e+001
8.754313e+002,1.767661e+001
8.763955e+002,1.619092e+001
8.773597e+002,1.593237e+001
8.783240e+002,1.649258e+001
8.792882e+002,1.821408e+001
8.802524e+002,1.992920e+001
8.812167e+002,2.043579e+001
8.821809e+002,1.966367e+001
8.831451e+002,1.847360e+001
8.841094e+002,1.794476e+001
8.850736e+002,1.830743e+001
8.860378e+002,2.018121e+001
8.870021e+002,2.387747e+001
8.879663e+002,2.733594e+001
8.889305e+002,2.966592e+001
8.898948e+002,3.077368e+001
8.908590e+002,3.026636e+001
8.918232e+002,2.663593e+001
8.927875e+002,2.417343e+001
8.937517e+002,2.421155e+001
8.947159e+002,2.531412e+001
8.956802e+002,2.619095e+001
8.966444e+002,2.646259e+001
8.976086e+002,2.677371e+001
8.985729e+002,2.825046e+001
8.995371e+002,3.011310e+001
9.005013e+002,3.086575e+001
9.014656e+002,3.065823e+001
9.024298e+002,2.995856e+001
9.033940e+002,2.891473e+001
9.043583e+002,2.751700e+001
9.053225e+002,2.687125e+001
9.062867e+002,2.760132e+001
9.072510e+002,2.806534e+001
9.082152e+002,2.810492e+001
9.091794e+002,2.836624e+001
9.101437e+002,2.956458e+001
9.111079e+002,3.180161e+001
9.120721e+002,3.408044e+001
9.130364e+002,3.639493e+001
9.140006e+002,3.765063e+001
9.149648e+002,3.706943e+001
9.159291e+002,3.516187e+001
9.168933e+002,3.250513e+001
9.178575e+002,2.946320e+001
9.188218e+002,2.647513e+001
9.197860e+002,2.582693e+001
9.207502e+002,2.749689e+001
9.217145e+002,2.830530e+001
9.226787e+002,2.736856e+001
9.236429e+002,2.605444e+001
9.246072e+002,2.643539e+001
9.255714e+002,2.903958e+001
9.265356e+002,2.972971e+001
9.274999e+002,2.512949e+001
9.284641e+002,2.130054e+001
9.294283e+002,2.147000e+001
9.303926e+002,2.379990e+001
9.313568e+002,2.437692e+001
9.323210e+002,2.104608e+001
9.332853e+002,1.673505e+001
9.342495e+002,1.687082e+001
9.352137e+002,1.905270e+001
9.361780e+002,1.960077e+001
9.371422e+002,1.788477e+001
9.381064e+002,1.617142e+001
9.390707e+002,1.755881e+001
9.400349e+002,2.264456e+001
9.409991e+002,2.537787e+001
9.419634e+002,2.460608e+001
9.429276e+002,2.324030e+001
9.438918e+002,2.130545e+001
9.448561e+002,1.955298e+001
9.458203e+002,1.943747e+001
9.467845e+002,2.176035e+001
9.477488e+002,2.401089e+001
9.487130e+002,2.395316e+001
9.496772e+002,2.320038e+001
9.506415e+002,2.289099e+001
9.516057e+002,2.314200e+001
9.525699e+002,2.351584e+001
9.535342e+002,2.356476e+001
9.544984e+002,2.323404e+001
9.554626e+002,2.262634e+001
9.564269e+002,2.193295e+001
9.573911e+002,2.146051e+001
9.583553e+002,2.103629e+001
9.593196e+002,2.087265e+001
9.602838e+002,2.161490e+001
9.612480e+002,2.365689e+001
9.622123e+002,2.471701e+001
9.631765e+002,2.362119e+001
9.641407e+002,2.208978e+001
9.651050e+002,2.053824e+001
9.660692e+002,1.909998e+001
9.670334e+002,1.784616e+001
9.679977e+002,1.691776e+001
9.689619e+002,1.654727e+001
9.699261e+002,1.700458e+001
9.708904e+002,1.799905e+001
9.718546e+002,1.934839e+001
9.728188e+002,2.097104e+001
9.737831e+002,2.279010e+001
9.747473e+002,2.492395e+001
9.757115e+002,2.760287e+001
9.766758e+002,2.967691e+001
9.776400e+002,3.118872e+001
9.786042e+002,3.235721e+001
9.795685e+002,3.302658e+001
9.805327e+002,3.318527e+001
9.814969e+002,3.316800e+001
9.824612e+002,3.321503e+001
9.834254e+002,3.248297e+001
9.843896e+002,2.875082e+001
9.853539e+002,2.424927e+001
9.863181e+002,2.163995e+001
9.872823e+002,2.073309e+001
9.882466e+002,1.985596e+001
9.892108e+002,1.774127e+001
9.901750e+002,1.500821e+001
9.911393e+002,1.442188e+001
9.921035e+002,1.710333e+001
9.930677e+002,1.919183e+001
9.940320e+002,2.121606e+001
9.949962e+002,2.247034e+001
9.959604e+002,2.139722e+001
9.969247e+002,1.815997e+001
9.978889e+002,1.683252e+001
9.988531e+002,2.047626e+001
9.998174e+002,2.464087e+001
1.000782e+003,2.646487e+001
1.001746e+003,2.732803e+001
1.002710e+003,2.987851e+001
1.003674e+003,3.492328e+001
1.004639e+003,4.000272e+001
1.005603e+003,4.060495e+001
1.006567e+003,3.612289e+001
1.007531e+003,3.308136e+001
1.008495e+003,3.194904e+001
1.009460e+003,3.125784e+001
1.010424e+003,3.019980e+001
1.011388e+003,2.895627e+001
1.012352e+003,2.822061e+001
1.013317e+003,2.860947e+001
1.014281e+003,2.810263e+001
1.015245e+003,2.508261e+001
1.016209e+003,2.182123e+001
1.017174e+003,2.038394e+001
1.018138e+003,2.056522e+001
1.019102e+003,2.034576e+001
1.020066e+003,1.801233e+001
1.021031e+003,1.466068e+001
1.021995e+003,1.333679e+001
1.022959e+003,1.342584e+001
1.023923e+003,1.298227e+001
1.024887e+003,1.117648e+001
1.025852e+003,8.811188e+000
1.026816e+003,7.246033e+000
1.027780e+003,6.780304e+000
1.028744e+003,6.413147e+000
1.029709e+003,6.264557e+000
1.030673e+003,5.895569e+000
1.031637e+003,4.953186e+000
1.032601e+003,3.685364e+000
1.033566e+003,2.205688e+000
1.034530e+003,6.582947e-001
1.035494e+003,1.354980e-001
1.036458e+003,2.797058e+000
1.037422e+003,6.526215e+000
1.038387e+003,7.608551e+000
1.039351e+003,6.082855e+000
1.040315e+003,4.077911e+000
1.041279e+003,3.162872e+000
1.042244e+003,3.270355e+000
1.043208e+003,3.799591e+000
1.044172e+003,5.509674e+000
1.045136e+003,5.838531e+000
1.046101e+003,3.389618e+000
1.047065e+003,1.147827e+000
1.048029e+003,1.540924e+000
1.048993e+003,3.856415e+000
1.049958e+003,5.012756e+000
1.050922e+003,3.235657e+000
1.051886e+003,1.114441e+000
1.052850e+003,1.590149e+000
1.053814e+003,3.142639e+000
1.054779e+003,3.728943e+000
1.055743e+003,2.946472e+000
1.056707e+003,1.885345e+000
1.057671e+003,1.861267e+000
1.058636e+003,2.844788e+000
1.059600e+003,3.955414e+000
1.060564e+003,6.012360e+000
1.061528e+003,7.488037e+000
1.062493e+003,8.159760e+000
1.063457e+003,7.803497e+000
1.064421e+003,5.561951e+000
1.065385e+003,1.528503e+000
1.066349e+003,-9.088135e-001
1.067314e+003,1.405731e+000
1.068278e+003,4.177277e+000
1.069242e+003,3.820435e+000
1.070206e+003,2.083252e+000
1.071171e+003,2.175079e+000
1.072135e+003,5.132080e+000
1.073099e+003,8.522369e+000
1.074063e+003,8.258942e+000
1.075028e+003,3.914978e+000
1.075992e+003,2.292725e+000
1.076956e+003,5.311310e+000
1.077920e+003,7.069061e+000
1.078885e+003,4.166168e+000
1.079849e+003,-7.111816e-001
1.080813e+003,-2.350952e+000
1.081777e+003,6.076355e-001
1.082741e+003,3.218140e+000
1.083706e+003,1.432709e+000
1.084670e+003,-3.869019e-001
1.085634e+003,7.869873e-001
1.086598e+003,3.721039e+000
1.087563e+003,5.769653e+000
1.088527e+003,5.537262e+000
1.089491e+003,3.906494e+000
1.090455e+003,2.107666e+000
1.091420e+003,-4.022217e-002
1.092384e+003,-1.974487e-002
1.093348e+003,3.644043e+000
1.094312e+003,6.496429e+000
1.095276e+003,5.341431e+000
1.096241e+003,1.631927e+000
1.097205e+003,-4.201050e-001
1.098169e+003,6.671143e-002
1.099133e+003,6.142273e-001
1.100098e+003,6.313171e-001
1.101062e+003,2.693176e-001
1.102026e+003,-1.082214e+000
1.102990e+003,-2.651886e+000
1.103955e+003,-2.756866e+000
1.104919e+003,-4.370117e-001
1.105883e+003,3.063019e+000
1.106847e+003,5.265167e+000
1.107812e+003,6.064880e+000
1.108776e+003,6.621490e+000
1.109740e+003,7.286530e+000
1.110704e+003,7.091339e+000
1.111668e+003,4.381989e+000
1.112633e+003,2.613220e-001
1.113597e+003,-3.813782e-001
1.114561e+003,4.995514e+000
1.115525e+003,8.536713e+000
1.116490e+003,5.741913e+000
1.117454e+003,2.486450e+000
1.118418e+003,3.177399e+000
1.119382e+003,6.922333e+000
1.120347e+003,1.015915e+001
1.121311e+003,1.055801e+001
1.122275e+003,8.878876e+000
1.123239e+003,6.411896e+000
1.124203e+003,3.740845e+000
1.125168e+003,4.703125e+000
1.126132e+003,1.113052e+001
1.127096e+003,1.734036e+001
1.128060e+003,1.850833e+001
1.129025e+003,1.558542e+001
1.129989e+003,1.325024e+001
1.130953e+003,1.149118e+001
1.131917e+003,1.093045e+001
1.132882e+003,1.300284e+001
1.133846e+003,1.505383e+001
1.134810e+003,1.486343e+001
1.135774e+003,1.336942e+001
1.136739e+003,1.312656e+001
1.137703e+003,1.553824e+001
1.138667e+003,1.916159e+001
1.139631e+003,2.155093e+001
1.140595e+003,2.280341e+001
1.141560e+003,2.437338e+001
1.142524e+003,2.628400e+001
1.143488e+003,2.918268e+001
1.144452e+003,3.399414e+001
1.145417e+003,4.009409e+001
1.146381e+003,4.493961e+001
1.147345e+003,4.734674e+001
1.148309e+003,5.138739e+001
1.149274e+003,5.892633e+001
1.150238e+003,6.747763e+001
1.151202e+003,7.659619e+001
1.152166e+003,8.575372e+001
1.153130e+003,9.437515e+001
1.154095e+003,1.019984e+002
1.155059e+003,1.082885e+002
1.156023e+003,1.133396e+002
1.156987e+003,1.167672e+002
1.157952e+003,1.165784e+002
1.158916e+003,1.127199e+002
1.159880e+003,1.077298e+002
1.160844e+003,1.023519e+002
1.161809e+003,9.628870e+001
1.162773e+003,8.911801e+001
1.163737e+003,8.038013e+001
1.164701e+003,7.274997e+001
1.165666e+003,6.832312e+001
1.166630e+003,6.390128e+001
1.167594e+003,5.790021e+001
1.168558e+003,5.130890e+001
1.169522e+003,4.515417e+001
1.170487e+003,4.003415e+001
1.171451e+003,3.688986e+001
1.172415e+003,3.712717e+001
1.173379e+003,3.969592e+001
1.174344e+003,3.864200e+001
1.175308e+003,3.373087e+001
1.176272e+003,3.069424e+001
1.177236e+003,3.321426e+001
1.178201e+003,3.721481e+001
1.179165e+003,3.711441e+001
1.180129e+003,3.273669e+001
1.181093e+003,2.829919e+001
1.182057e+003,2.391293e+001
1.183022e+003,2.095230e+001
1.183986e+003,2.054178e+001
1.184950e+003,2.116455e+001
1.185914e+003,2.135983e+001
1.186879e+003,2.108560e+001
1.187843e+003,2.137125e+001
1.188807e+003,2.301840e+001
1.189771e+003,2.549646e+001
1.190736e+003,2.763226e+001
1.191700e+003,2.948291e+001
1.192664e+003,2.977917e+001
1.193628e+003,2.772653e+001
1.194593e+003,2.522018e+001
1.195557e+003,2.369244e+001
1.196521e+003,2.274374e+001
1.197485e+003,2.078622e+001
1.198449e+003,1.698151e+001
1.199414e+003,1.422543e+001
1.200378e+003,1.465616e+001
1.201342e+003,1.582306e+001
1.202306e+003,1.639444e+001
1.203271e+003,1.634085e+001
1.204235e+003,1.618927e+001
1.205199e+003,1.619427e+001
1.206163e+003,1.596777e+001
1.207128e+003,1.479205e+001
1.208092e+003,1.263791e+001
1.209056e+003,1.013480e+001
1.210020e+003,6.793549e+000
1.210984e+003,4.134308e+000
1.211949e+003,2.638428e+000
1.212913e+003,1.941437e+000
1.213877e+003,2.062469e+000
1.214841e+003,2.962830e+000
1.215806e+003,2.895172e+000
1.216770e+003,5.432129e-001
1.217734e+003,-2.031006e+000
1.218698e+003,-3.063660e+000
1.219663e+003,-3.772888e+000
1.220627e+003,-6.430725e+000
1.221591e+003,-1.076083e+001
1.222555e+003,-1.339413e+001
1.223520e+003,-1.105267e+001
1.224484e+003,-5.153564e+000
1.225448e+003,-2.849823e+000
1.226412e+003,-6.407379e+000
1.227376e+003,-8.833344e+000
1.228341e+003,-9.630768e+000
1.229305e+003,-1.002390e+001
1.230269e+003,-1.082361e+001
1.231233e+003,-1.166525e+001
1.232198e+003,-1.145441e+001
1.233162e+003,-9.764282e+000
1.234126e+003,-8.180023e+000
1.235090e+003,-7.778229e+000
1.236055e+003,-8.401459e+000
1.237019e+003,-1.035297e+001
1.237983e+003,-1.308383e+001
1.238947e+003,-1.510303e+001
1.239911e+003,-1.570990e+001
1.240876e+003,-1.539197e+001
1.241840e+003,-1.488989e+001
1.242804e+003,-1.417944e+001
1.243768e+003,-1.356860e+001
1.244733e+003,-1.379279e+001
1.245697e+003,-1.304480e+001
1.246661e+003,-1.003003e+001
1.247625e+003,-7.345581e+000
1.248590e+003,-7.262207e+000
1.249554e+003,-9.030487e+000
1.250518e+003,-1.007092e+001
1.251482e+003,-9.250427e+000
1.252447e+003,-8.257965e+000
1.253411e+003,-9.208221e+000
1.254375e+003,-1.113483e+001
1.255339e+003,-1.241895e+001
1.256303e+003,-1.286014e+001
1.257268e+003,-1.183899e+001
1.258232e+003,-8.582550e+000
1.259196e+003,-4.634613e+000
1.260160e+003,-2.992310e+000
1.261125e+003,-3.891205e+000
1.262089e+003,-4.764587e+000
1.263053e+003,-6.154541e+000
1.264017e+003,-6.780212e+000
1.264982e+003,-5.955505e+000
1.265946e+003,-4.412323e+000
1.266910e+003,-2.301331e+000
1.267874e+003,-1.401672e-001
1.268839e+003,9.546509e-001
1.269803e+003,2.361450e-001
1.270767e+003,-1.578705e+000
1.271731e+003,-3.332306e+000
1.272695e+003,-4.869751e+000
1.273660e+003,-5.355804e+000
1.274624e+003,-4.692749e+000
1.275588e+003,-3.900665e+000
1.276552e+003,-3.048737e+000
1.277517e+003,-2.338684e+000
1.278481e+003,-2.308868e+000
1.279445e+003,-3.040558e+000
1.280409e+003,-4.509399e+000
1.281374e+003,-7.567444e+000
1.282338e+003,-1.013129e+001
1.283302e+003,-1.131705e+001
1.284266e+003,-1.141107e+001
1.285230e+003,-9.989594e+000
1.286195e+003,-7.691986e+000
1.287159e+003,-6.720398e+000
1.288123e+003,-8.836975e+000
1.289087e+003,-1.258978e+001
1.290052e+003,-1.378043e+001
1.291016e+003,-1.149762e+001
1.291980e+003,-1.029965e+001
1.292944e+003,-1.154480e+001
1.293909e+003,-1.231467e+001
1.294873e+003,-1.060953e+001
1.295837e+003,-8.027435e+000
1.296801e+003,-6.630737e+000
1.297766e+003,-6.763245e+000
1.298730e+003,-8.479126e+000
1.299694e+003,-1.295764e+001
1.300658e+003,-1.713986e+001
1.301622e+003,-1.717154e+001
1.302587e+003,-1.477087e+001
1.303551e+003,-1.219836e+001
1.304515e+003,-9.954163e+000
1.305479e+003,-8.491608e+000
1.306444e+003,-8.437531e+000
1.307408e+003,-9.311646e+000
1.308372e+003,-9.072327e+000
1.309336e+003,-6.939270e+000
1.310301e+003,-6.177032e+000
1.311265e+003,-7.687622e+000
1.312229e+003,-9.447876e+000
1.313193e+003,-1.189667e+001
1.314157e+003,-1.370242e+001
1.315122e+003,-1.274689e+001
1.316086e+003,-9.597290e+000
1.317050e+003,-7.459229e+000
1.318014e+003,-8.428925e+000
1.318979e+003,-1.083752e+001
1.319943e+003,-1.204575e+001
1.320907e+003,-1.199179e+001
1.321871e+003,-1.119687e+001
1.322836e+003,-9.756622e+000
1.323800e+003,-8.058563e+000
1.324764e+003,-5.568176e+000
1.325728e+003,-3.255707e+000
1.326693e+003,-3.139618e+000
1.327657e+003,-5.396179e+000
1.328621e+003,-7.681335e+000
1.329585e+003,-9.337921e+000
1.330549e+003,-1.007077e+001
1.331514e+003,-9.992035e+000
1.332478e+003,-9.586670e+000
1.333442e+003,-8.937897e+000
1.334406e+003,-8.187927e+000
1.335371e+003,-7.947632e+000
1.336335e+003,-8.534485e+000
1.337299e+003,-8.928680e+000
1.338263e+003,-7.070068e+000
1.339228e+003,-2.474670e+000
1.340192e+003,-1.383667e-001
1.341156e+003,-3.957825e-001
1.342120e+003,-2.219604e+000
1.343084e+003,-7.624359e+000
1.344049e+003,-1.292044e+001
1.345013e+003,-1.470044e+001
1.345977e+003,-1.349625e+001
1.346941e+003,-1.186453e+001
1.347906e+003,-1.072391e+001
1.348870e+003,-9.362976e+000
1.349834e+003,-6.531372e+000
1.350798e+003,-3.686829e+000
1.351763e+003,-3.700226e+000
1.352727e+003,-6.039337e+000
1.353691e+003,-7.651978e+000
1.354655e+003,-7.207428e+000
1.355620e+003,-6.423035e+000
1.356584e+003,-7.898926e+000
1.357548e+003,-1.112390e+001
1.358512e+003,-1.156613e+001
1.359476e+003,-7.738190e+000
1.360441e+003,-5.210205e+000
1.361405e+003,-6.356873e+000
1.362369e+003,-7.867462e+000
1.363333e+003,-8.287018e+000
1.364298e+003,-7.962006e+000
1.365262e+003,-7.497498e+000
1.366226e+003,-7.104034e+000
1.367190e+003,-6.629425e+000
1.368155e+003,-5.920929e+000
1.369119e+003,-5.251160e+000
1.370083e+003,-5.475861e+000
1.371047e+003,-6.752014e+000
1.372011e+003,-8.023834e+000
1.372976e+003,-1.042563e+001
1.373940e+003,-1.170328e+001
1.374904e+003,-9.972839e+000
1.375868e+003,-7.209381e+000
1.376833e+003,-5.781555e+000
1.377797e+003,-5.947327e+000
1.378761e+003,-7.259796e+000
1.379725e+003,-9.955566e+000
1.380690e+003,-1.222983e+001
1.381654e+003,-1.167282e+001
1.382618e+003,-9.704742e+000
1.383582e+003,-8.122772e+000
1.384547e+003,-7.046295e+000
1.385511e+003,-6.067719e+000
1.386475e+003,-4.963196e+000
1.387439e+003,-4.227875e+000
1.388403e+003,-4.931213e+000
1.389368e+003,-7.081970e+000
1.390332e+003,-8.028229e+000
1.391296e+003,-6.998535e+000
1.392260e+003,-5.928833e+000
1.393225e+003,-5.167175e+000
1.394189e+003,-4.661835e+000
1.395153e+003,-4.716949e+000
1.396117e+003,-4.857147e+000
1.397082e+003,-3.945374e+000
1.398046e+003,-2.007294e+000
1.399010e+003,-9.169922e-001
1.399974e+003,-2.551849e+000
1.400938e+003,-5.988159e+000
1.401903e+003,-7.777496e+000
1.402867e+003,-7.112549e+000
1.403831e+003,-6.007874e+000
1.404795e+003,-3.742218e+000
1.405760e+003,-2.419342e+000
1.406724e+003,-4.177826e+000
1.407688e+003,-6.820221e+000
1.408652e+003,-7.085144e+000
1.409617e+003,-5.074493e+000
1.410581e+003,-3.747040e+000
1.411545e+003,-4.360748e+000
1.412509e+003,-5.454895e+000
1.413474e+003,-6.022034e+000
1.414438e+003,-6.184937e+000
1.415402e+003,-5.439209e+000
1.416366e+003,-3.921112e+000
1.417330e+003,-3.271606e+000
1.418295e+003,-4.251038e+000
1.419259e+003,-5.817688e+000
1.420223e+003,-7.371704e+000
1.421187e+003,-8.760864e+000
1.422152e+003,-8.198395e+000
1.423116e+003,-4.953003e+000
1.424080e+003,-1.412140e+000
1.425044e+003,3.228119e+000
1.426009e+003,6.053314e+000
1.426973e+003,4.496796e+000
1.427937e+003,1.203064e+000
1.428901e+003,-5.730591e-001
1.429865e+003,-5.505981e-001
1.430830e+003,-7.091980e-001
1.431794e+003,-2.425201e+000
1.432758e+003,-4.776367e+000
1.433722e+003,-5.731415e+000
1.434687e+003,-4.989319e+000
1.435651e+003,-3.645477e+000
1.436615e+003,-1.943634e+000
1.437579e+003,-3.951721e-001
1.438544e+003,1.353729e+000
1.439508e+003,2.671387e+000
1.440472e+003,2.996063e+000
1.441436e+003,2.847168e+000
1.442401e+003,2.989899e+000
1.443365e+003,3.588623e+000
1.444329e+003,4.628235e+000
1.445293e+003,6.365570e+000
1.446257e+003,8.007599e+000
1.447222e+003,7.729340e+000
1.448186e+003,5.815735e+000
1.449150e+003,3.776825e+000
1.450114e+003,1.521515e+000
1.451079e+003,-2.201538e-001
1.452043e+003,-9.299011e-001
1.453007e+003,-7.926025e-001
1.453971e+003,1.854248e-001
1.454936e+003,1.742065e+000
1.455900e+003,2.476227e+000
1.456864e+003,2.011688e+000
1.457828e+003,1.321350e+000
1.458792e+003,3.258362e-001
1.459757e+003,-2.906494e-001
1.460721e+003,6.542664e-001
1.461685e+003,2.251495e+000
1.462649e+003,2.570984e+000
1.463614e+003,1.255890e+000
1.464578e+003,-2.728882e-001
1.465542e+003,-7.950745e-001
1.466506e+003,-7.833862e-001
1.467471e+003,-1.655426e+000
1.468435e+003,-3.694183e+000
1.469399e+003,-4.227264e+000
1.470363e+003,-2.648499e+000
1.471328e+003,-5.284119e-001
1.472292e+003,2.903931e+000
1.473256e+003,5.358704e+000
1.474220e+003,4.950256e+000
1.475184e+003,2.778625e+000
1.476149e+003,2.956848e-001
1.477113e+003,-1.668243e+000
1.478077e+003,-1.703705e+000
1.479041e+003,1.812988e+000
1.480006e+003,7.540466e+000
1.480970e+003,1.060947e+001
1.481934e+003,1.034250e+001
1.482898e+003,9.233154e+000
1.483863e+003,6.137360e+000
1.484827e+003,3.834290e+000
1.485791e+003,3.519501e+000
1.486755e+003,4.183533e+000
1.487719e+003,4.795197e+000
1.488684e+003,5.398407e+000
1.489648e+003,6.911835e+000
1.490612e+003,9.645020e+000
1.491576e+003,1.183728e+001
1.492541e+003,1.172162e+001
1.493505e+003,1.049179e+001
1.494469e+003,1.064328e+001
1.495433e+003,1.186810e+001
1.496398e+003,1.395520e+001
1.497362e+003,1.772165e+001
1.498326e+003,2.060062e+001
1.499290e+003,2.028757e+001
1.500255e+003,1.896359e+001
1.501219e+003,1.919363e+001
1.502183e+003,2.097571e+001
1.503147e+003,2.415433e+001
1.504111e+003,2.886304e+001
1.505076e+003,3.415723e+001
1.506040e+003,4.022226e+001
1.507004e+003,4.590329e+001
1.507968e+003,4.918524e+001
1.508933e+003,5.154596e+001
1.509897e+003,5.649997e+001
1.510861e+003,6.477451e+001
1.511825e+003,7.310870e+001
1.512790e+003,7.859680e+001
1.513754e+003,8.330585e+001
1.514718e+003,9.203082e+001
1.515682e+003,1.045948e+002
1.516646e+003,1.150977e+002
1.517611e+003,1.221865e+002
1.518575e+003,1.299194e+002
1.519539e+003,1.416846e+002
1.520503e+003,1.525265e+002
1.521468e+003,1.601551e+002
1.522432e+003,1.649124e+002
1.523396e+003,1.671468e+002
1.524360e+003,1.672605e+002
1.525325e+003,1.663659e+002
1.526289e+003,1.652440e+002
1.527253e+003,1.628444e+002
1.528217e+003,1.569442e+002
1.529182e+003,1.476228e+002
1.530146e+003,1.393405e+002
1.531110e+003,1.331960e+002
1.532074e+003,1.257206e+002
1.533039e+003,1.166608e+002
1.534003e+003,1.055963e+002
1.534967e+003,9.100821e+001
1.535931e+003,7.593579e+001
1.536896e+003,6.328140e+001
1.537860e+003,5.348325e+001
1.538824e+003,4.579898e+001
1.539788e+003,3.967267e+001
1.540752e+003,3.458810e+001
1.541717e+003,3.005243e+001
1.542681e+003,2.602328e+001
1.543645e+003,2.148398e+001
1.544609e+003,1.541962e+001
1.545573e+003,1.218768e+001
1.546538e+003,1.317267e+001
1.547502e+003,1.455966e+001
1.548466e+003,1.565656e+001
1.549430e+003,1.640051e+001
1.550395e+003,1.640552e+001
1.551359e+003,1.586157e+001
1.552323e+003,1.568433e+001
1.553287e+003,1.614279e+001
1.554252e+003,1.590942e+001
1.555216e+003,1.362601e+001
1.556180e+003,1.031760e+001
1.557144e+003,8.438110e+000
1.558109e+003,8.124054e+000
1.559073e+003,7.602356e+000
1.560037e+003,6.408997e+000
1.561001e+003,5.353302e+000
1.561966e+003,4.976868e+000
1.562930e+003,5.060242e+000
1.563894e+003,5.293701e+000
1.564858e+003,5.626892e+000
1.565823e+003,6.187134e+000
1.566787e+003,6.948639e+000
1.567751e+003,7.559082e+000
1.568715e+003,7.948639e+000
1.569679e+003,7.927460e+000
1.570644e+003,6.758575e+000
1.571608e+003,4.932648e+000
1.572572e+003,4.254272e+000
1.573536e+003,4.908661e+000
1.574500e+003,5.738708e+000
1.575465e+003,6.234161e+000
1.576429e+003,6.870605e+000
1.577393e+003,8.502258e+000
1.578357e+003,1.021835e+001
1.579322e+003,9.701935e+000
1.580286e+003,7.161316e+000
1.581250e+003,6.707642e+000
1.582214e+003,1.019907e+001
1.583179e+003,1.365732e+001
1.584143e+003,1.368121e+001
1.585107e+003,1.232529e+001
1.586071e+003,1.313510e+001
1.587036e+003,1.530978e+001
1.588000e+003,1.539099e+001
1.588964e+003,1.237683e+001
1.589928e+003,9.394714e+000
1.590893e+003,8.453247e+000
1.591857e+003,8.824402e+000
1.592821e+003,9.579956e+000
1.593785e+003,1.073734e+001
1.594750e+003,1.238620e+001
1.595714e+003,1.462833e+001
1.596678e+003,1.622937e+001
1.597642e+003,1.657324e+001
1.598606e+003,1.633685e+001
1.599571e+003,1.578583e+001
1.600535e+003,1.529370e+001
1.601499e+003,1.529602e+001
1.602463e+003,1.574792e+001
1.603427e+003,1.642871e+001
1.604392e+003,1.727567e+001
1.605356e+003,1.824722e+001
1.606320e+003,1.984451e+001
1.607284e+003,2.138455e+001
1.608249e+003,2.032483e+001
1.609213e+003,1.653885e+001
1.610177e+003,1.441043e+001
1.611141e+003,1.526666e+001
1.612106e+003,1.630814e+001
1.613070e+003,1.590512e+001
1.614034e+003,1.543411e+001
1.614998e+003,1.616907e+001
1.615963e+003,1.742807e+001
1.616927e+003,1.810593e+001
1.617891e+003,1.792032e+001
1.618855e+003,1.672443e+001
1.619820e+003,1.418329e+001
1.620784e+003,1.134320e+001
1.621748e+003,9.885010e+000
1.622712e+003,9.934143e+000
1.623677e+003,1.120758e+001
1.624641e+003,1.413043e+001
1.625605e+003,1.575546e+001
1.626569e+003,1.396570e+001
1.627533e+003,1.241940e+001
1.628498e+003,1.356461e+001
1.629462e+003,1.548373e+001
1.630426e+003,1.657272e+001
1.631390e+003,1.703882e+001
1.632354e+003,1.781879e+001
1.633319e+003,1.904395e+001
1.634283e+003,1.965369e+001
1.635247e+003,1.871106e+001
1.636211e+003,1.707483e+001
1.637176e+003,1.650565e+001
1.638140e+003,1.697665e+001
1.639104e+003,1.661691e+001
1.640068e+003,1.473392e+001
1.641033e+003,1.426620e+001
1.641997e+003,1.764014e+001
1.642961e+003,2.030713e+001
1.643925e+003,1.950403e+001
1.644890e+003,1.738278e+001
1.645854e+003,1.563907e+001
1.646818e+003,1.445102e+001
1.647782e+003,1.371185e+001
1.648747e+003,1.335239e+001
1.649711e+003,1.325638e+001
1.650675e+003,1.341742e+001
1.651639e+003,1.390948e+001
1.652604e+003,1.480045e+001
1.653568e+003,1.597446e+001
1.654532e+003,1.654660e+001
1.655496e+003,1.610312e+001
1.656460e+003,1.647974e+001
1.657425e+003,2.001920e+001
1.658389e+003,2.211398e+001
1.659353e+003,1.875006e+001
1.660317e+003,1.393649e+001
1.661281e+003,1.197141e+001
1.662246e+003,1.239743e+001
1.663210e+003,1.270459e+001
1.664174e+003,1.211691e+001
1.665138e+003,1.160419e+001
1.666103e+003,1.202725e+001
1.667067e+003,1.276175e+001
1.668031e+003,1.251337e+001
1.668995e+003,1.141580e+001
1.669960e+003,1.093628e+001
1.670924e+003,1.142285e+001
1.671888e+003,1.167972e+001
1.672852e+003,1.111191e+001
1.673817e+003,1.036618e+001
1.674781e+003,9.609406e+000
1.675745e+003,9.049011e+000
1.676709e+003,9.271027e+000
1.677674e+003,9.869049e+000
1.678638e+003,9.469879e+000
1.679602e+003,7.666046e+000
1.680566e+003,5.696594e+000
1.681531e+003,4.252319e+000
1.682495e+003,3.782776e+000
1.683459e+003,5.506866e+000
1.684423e+003,8.840210e+000
1.685387e+003,1.042651e+001
1.686352e+003,9.788574e+000
1.687316e+003,9.447937e+000
1.688280e+003,1.062686e+001
1.689244e+003,1.148099e+001
1.690208e+003,1.028296e+001
1.691173e+003,8.179443e+000
1.692137e+003,5.985138e+000
1.693101e+003,4.150238e+000
1.694065e+003,3.777679e+000
1.695030e+003,5.065704e+000
1.695994e+003,5.910461e+000
1.696958e+003,4.789490e+000
1.697922e+003,3.023529e+000
1.698887e+003,2.094421e+000
1.699851e+003,1.932190e+000
1.700815e+003,2.362885e+000
1.701779e+003,3.267975e+000
1.702744e+003,3.846130e+000
1.703708e+003,4.012085e+000
1.704672e+003,3.857849e+000
1.705636e+003,2.820404e+000
1.706601e+003,1.680725e+000
1.707565e+003,2.337891e+000
1.708529e+003,4.181976e+000
1.709493e+003,4.885498e+000
1.710458e+003,4.101349e+000
1.711422e+003,2.714691e+000
1.712386e+003,5.269165e-001
1.713350e+003,-1.209747e+000
1.714314e+003,-1.753418e+000
1.715279e+003,-1.356171e+000
1.716243e+003,3.231812e-001
1.717207e+003,2.794128e+000
1.718171e+003,3.742371e+000
1.719135e+003,2.567780e+000
1.720100e+003,9.812012e-001
1.721064e+003,-1.044006e-001
1.722028e+003,-6.512451e-001
1.722992e+003,-2.703857e-001
1.723957e+003,9.849548e-001
1.724921e+003,1.895660e+000
1.725885e+003,2.257263e+000
1.726849e+003,1.921448e+000
1.727814e+003,1.681824e-001
1.728778e+003,-7.486267e-001
1.729742e+003,9.627686e-001
1.730706e+003,3.081421e+000
1.731671e+003,3.231720e+000
1.732635e+003,1.846680e+000
1.733599e+003,2.669983e-001
1.734563e+003,-9.170532e-001
1.735528e+003,-1.304382e+000
1.736492e+003,-7.643127e-001
1.737456e+003,1.757813e-001
1.738420e+003,9.732971e-001
1.739385e+003,1.388245e+000
1.740349e+003,9.650879e-001
1.741313e+003,-3.840027e-001
1.742277e+003,-1.512207e+000
1.743241e+003,-2.954346e+000
1.744206e+003,-3.119354e+000
1.745170e+003,-6.527100e-001
1.746134e+003,1.637451e+000
1.747098e+003,1.955933e+000
1.748063e+003,1.426239e+000
1.749027e+003,1.647552e+000
1.749991e+003,2.329285e+000
1.750955e+003,1.727722e+000
1.751919e+003,-4.699097e-001
1.752884e+003,-1.997070e+000
1.753848e+003,-9.427185e-001
1.754812e+003,1.096832e+000
1.755776e+003,9.212646e-001
1.756741e+003,-1.241364e+000
1.757705e+003,-2.461914e+000
1.758669e+003,-2.454590e+000
1.759633e+003,-2.745209e+000
1.760598e+003,-4.412354e+000
1.761562e+003,-5.256592e+000
1.762526e+003,-3.445465e+000
1.763490e+003,-1.523285e+000
1.764455e+003,-1.405487e+000
1.765419e+003,-2.274384e+000
1.766383e+003,-3.221893e+000
1.767347e+003,-3.828369e+000
1.768312e+003,-2.927765e+000
1.769276e+003,3.375244e-002
1.770240e+003,2.619263e+000
1.771204e+003,2.259583e+000
1.772168e+003,2.616272e-001
1.773133e+003,-1.121918e+000
1.774097e+003,-1.818665e+000
1.775061e+003,-3.916321e-001
1.776025e+003,3.701630e+000
1.776990e+003,5.419647e+000
1.777954e+003,2.185364e+000
1.778918e+003,-1.212158e+000
1.779882e+003,-1.223114e+000
1.780846e+003,1.560364e-001
1.781811e+003,4.685669e-001
1.782775e+003,2.117920e-002
1.783739e+003,-2.923889e-001
1.784703e+003,-2.932434e-001
1.785668e+003,-1.542358e-001
1.786632e+003,2.481079e-001
1.787596e+003,1.134338e-001
1.788560e+003,-1.606445e+000
1.789525e+003,-3.466644e+000
1.790489e+003,-3.464630e+000
1.791453e+003,-2.088470e+000
1.792417e+003,-6.730042e-001
1.793382e+003,3.525085e-001
1.794346e+003,-4.028320e-003
1.795310e+003,-2.425751e+000
1.796274e+003,-4.801849e+000
1.797239e+003,-4.588715e+000
1.798203e+003,-2.249115e+000
1.799167e+003,3.330383e-001
1.800131e+003,3.122498e+000
1.801095e+003,4.105896e+000
1.802060e+003,2.638733e+000
1.803024e+003,1.214539e+000
1.803988e+003,-4.181213e-001
1.804952e+003,-1.594086e+000
1.805917e+003,-1.902313e+000
1.806881e+003,-1.695923e+000
1.807845e+003,-1.105133e+000
1.808809e+003,-2.852478e-001
1.809773e+003,6.961060e-001
1.810738e+003,1.663055e+000
1.811702e+003,1.861603e+000
1.812666e+003,8.543396e-001
1.813630e+003,2.748413e-001
1.814595e+003,2.818939e+000
1.815559e+003,6.940308e+000
1.816523e+003,5.520111e+000
1.817487e+003,-2.224884e+000
1.818452e+003,-5.838684e+000
1.819416e+003,-3.179901e+000
1.820380e+003,-7.472839e-001
1.821344e+003,-5.335388e-001
1.822309e+003,-9.328003e-001
1.823273e+003,-1.332123e+000
1.824237e+003,-1.364319e+000
1.825201e+003,-3.742065e-001
1.826166e+003,1.099365e+000
1.827130e+003,1.808228e+000
1.828094e+003,1.474304e+000
1.829058e+003,3.558350e-001
1.830022e+003,-1.690033e+000
1.830987e+003,-3.636536e+000
1.831951e+003,-5.030273e+000
1.832915e+003,-5.518188e+000
1.833879e+003,-4.134399e+000
1.834844e+003,-1.482025e+000
1.835808e+003,9.569397e-001
1.836772e+003,2.807343e+000
1.837736e+003,3.083496e+000
1.838700e+003,1.197266e+000
1.839665e+003,-3.266907e-001
1.840629e+003,1.218231e+000
1.841593e+003,3.759888e+000
1.842557e+003,2.491547e+000
1.843522e+003,-2.518768e+000
1.844486e+003,-5.402008e+000
1.845450e+003,-5.374512e+000
1.846414e+003,-4.200836e+000
1.847379e+003,-6.304932e-001
1.848343e+003,1.816803e+000
1.849307e+003,1.696777e+000
1.850271e+003,7.353210e-001
1.851236e+003,-1.339722e-002
1.852200e+003,-5.065002e-001
1.853164e+003,-1.094177e+000
1.854128e+003,-1.853027e+000
1.855093e+003,-2.444977e+000
1.856057e+003,-2.627869e+000
1.857021e+003,-2.689728e+000
1.857985e+003,-3.030640e+000
1.858949e+003,-3.155670e+000
1.859914e+003,-1.928009e+000
1.860878e+003,4.167480e-001
1.861842e+003,2.614807e+000
1.862806e+003,4.630463e+000
1.863771e+003,4.529602e+000
1.864735e+003,1.266266e+000
1.865699e+003,-1.035675e+000
1.866663e+003,8.612061e-002
1.867627e+003,1.676392e+000
1.868592e+003,5.249023e-001
1.869556e+003,-1.796478e+000
1.870520e+003,-1.480469e+000
1.871484e+003,8.640442e-001
1.872449e+003,8.527527e-001
1.873413e+003,-2.609711e+000
1.874377e+003,-4.016327e+000
1.875341e+003,-3.784790e-001
1.876306e+003,3.061676e+000
1.877270e+003,2.982819e+000
1.878234e+003,1.765961e+000
1.879198e+003,1.874573e+000
1.880163e+003,2.798981e+000
1.881127e+003,3.537903e+000
1.882091e+003,3.697083e+000
1.883055e+003,2.471710e+000
1.884020e+003,-2.424011e-001
1.884984e+003,-2.419037e+000
1.885948e+003,-2.199677e+000
1.886912e+003,-3.657837e-001
1.887876e+003,1.836975e+000
1.888841e+003,4.253632e+000
1.889805e+003,4.271301e+000
1.890769e+003,1.162537e+000
1.891733e+003,-3.092651e-001
1.892698e+003,8.774109e-001
1.893662e+003,2.003021e+000
1.894626e+003,2.281982e+000
1.895590e+003,2.188629e+000
1.896554e+003,1.614197e+000
1.897519e+003,1.317566e+000
1.898483e+003,2.629333e+000
1.899447e+003,4.762299e+000
1.900411e+003,5.209198e+000
1.901376e+003,3.505524e+000
1.902340e+003,2.274689e+000
1.903304e+003,2.859436e+000
1.904268e+003,3.519226e+000
1.905233e+003,3.485840e+000
1.906197e+003,2.867432e+000
1.907161e+003,1.186371e+000
1.908125e+003,-6.325378e-001
1.909090e+003,-8.449707e-001
1.910054e+003,2.175598e-001
1.911018e+003,6.243591e-001
1.911982e+003,-6.259155e-002
1.912947e+003,-8.486938e-002
1.913911e+003,1.808289e+000
1.914875e+003,4.253174e+000
1.915839e+003,5.007538e+000
1.916803e+003,4.380798e+000
1.917768e+003,4.798676e+000
1.918732e+003,6.790527e+000
1.919696e+003,6.900452e+000
1.920660e+003,4.180084e+000
1.921625e+003,2.470306e+000
1.922589e+003,3.088562e+000
1.923553e+003,3.821655e+000
1.924517e+003,3.351257e+000
1.925481e+003,2.687317e+000
1.926446e+003,3.098755e+000
1.927410e+003,3.830933e+000
1.928374e+003,2.816620e+000
1.929338e+003,9.848022e-002
1.930303e+003,-9.375916e-001
1.931267e+003,1.353790e+000
1.932231e+003,3.555603e+000
1.933195e+003,3.918335e+000
1.934160e+003,3.591156e+000
1.935124e+003,2.829742e+000
1.936088e+003,2.227509e+000
1.937052e+003,2.946136e+000
1.938017e+003,4.472687e+000
1.938981e+003,5.581696e+000
1.939945e+003,5.929657e+000
1.940909e+003,5.527069e+000
1.941874e+003,4.395966e+000
1.942838e+003,2.797058e+000
1.943802e+003,1.032562e+000
1.944766e+003,-2.671509e-001
1.945730e+003,-8.911133e-003
1.946695e+003,1.485748e+000
1.947659e+003,2.278839e+000
1.948623e+003,2.181274e+000
1.949587e+003,3.361298e+000
1.950552e+003,6.685211e+000
1.951516e+003,8.971252e+000
1.952480e+003,8.847351e+000
1.953444e+003,8.114471e+000
1.954408e+003,7.885193e+000
1.955373e+003,7.667725e+000
1.956337e+003,6.631256e+000
1.957301e+003,5.353912e+000
1.958265e+003,5.515411e+000
1.959230e+003,7.409302e+000
1.960194e+003,8.710480e+000
1.961158e+003,8.544556e+000
1.962122e+003,8.076965e+000
1.963087e+003,7.465149e+000
1.964051e+003,6.878723e+000
1.965015e+003,6.237457e+000
1.965979e+003,6.118561e+000
1.966944e+003,7.494720e+000
1.967908e+003,9.333405e+000
1.968872e+003,1.009305e+001
1.969836e+003,9.495544e+000
1.970801e+003,7.518616e+000
1.971765e+003,4.344482e+000
1.972729e+003,2.115112e+000
1.973693e+003,2.879700e+000
1.974657e+003,4.768555e+000
1.975622e+003,4.877869e+000
1.976586e+003,3.835266e+000
1.977550e+003,3.474670e+000
1.978514e+003,3.807037e+000
1.979479e+003,4.305206e+000
1.980443e+003,4.848083e+000
1.981407e+003,5.596741e+000
1.982371e+003,6.713501e+000
1.983335e+003,7.252045e+000
1.984300e+003,6.281494e+000
1.985264e+003,4.903046e+000
1.986228e+003,5.067139e+000
1.987192e+003,6.233307e+000
1.988157e+003,5.436371e+000
1.989121e+003,1.897430e+000
1.990085e+003,8.414612e-001
1.991049e+003,3.826172e+000
1.992014e+003,6.330231e+000
1.992978e+003,7.829193e+000
1.993942e+003,8.579071e+000
1.994906e+003,8.191589e+000
1.995871e+003,7.599731e+000
1.996835e+003,7.499329e+000
1.997799e+003,7.719788e+000
1.998763e+003,7.914764e+000
1.999728e+003,7.992706e+000
