5.003444e+002,2.922174e+001
5.013087e+002,2.949216e+001
5.022729e+002,2.952341e+001
5.032371e+002,2.923846e+001
5.042014e+002,2.750323e+001
5.051656e+002,2.466940e+001
5.061298e+002,2.258969e+001
5.070941e+002,2.306808e+001
5.080583e+002,2.678516e+001
5.090225e+002,2.858759e+001
5.099868e+002,2.731250e+001
5.109510e+002,2.598260e+001
5.119152e+002,2.639505e+001
5.128795e+002,2.877512e+001
5.138437e+002,3.057938e+001
5.148079e+002,3.135822e+001
5.157722e+002,3.113284e+001
5.167364e+002,2.893683e+001
5.177006e+002,2.518188e+001
5.186649e+002,2.182462e+001
5.196291e+002,2.219318e+001
5.205933e+002,2.409012e+001
5.215576e+002,2.463989e+001
5.225218e+002,2.350244e+001
5.234860e+002,2.177505e+001
5.244503e+002,2.168506e+001
5.254145e+002,2.427039e+001
5.263787e+002,2.462830e+001
5.273430e+002,2.120563e+001
5.283072e+002,1.661267e+001
5.292714e+002,1.449835e+001
5.302357e+002,1.605951e+001
5.311999e+002,1.717410e+001
5.321641e+002,1.704364e+001
5.331284e+002,1.692245e+001
5.340926e+002,1.804263e+001
5.350568e+002,2.088486e+001
5.360211e+002,2.312350e+001
5.369853e+002,2.279034e+001
5.379495e+002,2.121555e+001
5.389138e+002,1.858774e+001
5.398780e+002,1.531430e+001
5.408422e+002,1.243427e+001
5.418065e+002,1.389587e+001
5.427707e+002,1.892001e+001
5.437349e+002,2.176523e+001
5.446992e+002,2.037842e+001
5.456634e+002,1.609561e+001
5.466276e+002,1.369827e+001
5.475919e+002,1.502579e+001
5.485561e+002,1.642865e+001
5.495203e+002,1.841708e+001
5.504846e+002,2.004736e+001
5.514488e+002,1.987283e+001
5.524130e+002,1.669922e+001
5.533773e+002,1.341650e+001
5.543415e+002,1.114597e+001
5.553057e+002,9.744568e+000
5.562700e+002,9.162292e+000
5.572342e+002,9.336853e+000
5.581984e+002,9.962067e+000
5.591627e+002,1.085483e+001
5.601269e+002,1.182758e+001
5.610911e+002,1.199609e+001
5.620554e+002,1.079984e+001
5.630196e+002,8.361145e+000
5.639838e+002,6.369049e+000
5.649481e+002,4.192169e+000
5.659123e+002,3.350952e+000
5.668765e+002,5.243042e+000
5.678408e+002,8.950256e+000
5.688050e+002,1.156012e+001
5.697692e+002,1.140631e+001
5.707335e+002,1.077365e+001
5.716977e+002,1.024200e+001
5.726619e+002,9.866455e+000
5.736262e+002,9.649445e+000
5.745904e+002,9.637939e+000
5.755546e+002,9.761749e+000
5.765189e+002,1.007355e+001
5.774831e+002,1.016672e+001
5.784473e+002,9.252350e+000
5.794116e+002,6.881561e+000
5.803758e+002,3.402924e+000
5.813400e+002,2.089508e+000
5.823043e+002,3.132233e+000
5.832685e+002,4.321838e+000
5.842327e+002,5.341003e+000
5.851970e+002,6.238647e+000
5.861612e+002,6.618805e+000
5.871254e+002,5.732452e+000
5.880897e+002,4.759064e+000
5.890539e+002,3.586823e+000
5.900181e+002,2.445313e+000
5.909824e+002,1.774323e+000
5.919466e+002,2.109894e+000
5.929108e+002,2.594757e+000
5.938751e+002,2.102448e+000
5.948393e+002,1.134796e+000
5.958035e+002,4.824524e-001
5.967678e+002,7.442932e-001
5.977320e+002,1.852325e+000
5.986962e+002,2.850159e+000
5.996605e+002,3.543640e+000
6.006247e+002,4.220856e+000
6.015889e+002,5.430420e+000
6.025532e+002,7.061707e+000
6.035174e+002,7.259949e+000
6.044816e+002,3.707764e+000
6.054459e+002,1.235168e+000
6.064101e+002,7.547302e-001
6.073743e+002,1.774567e+000
6.083386e+002,3.615967e+000
6.093028e+002,6.868896e+000
6.102670e+002,8.929230e+000
6.112313e+002,7.159576e+000
6.121955e+002,3.505798e+000
6.131597e+002,4.169006e-001
6.141240e+002,-4.298401e-001
6.150882e+002,4.312134e-001
6.160524e+002,8.439026e-001
6.170167e+002,9.672546e-001
6.179809e+002,1.653076e+000
6.189451e+002,3.535553e+000
6.199094e+002,6.231812e+000
6.208736e+002,7.385284e+000
6.218378e+002,5.815247e+000
6.228021e+002,4.226440e+000
6.237663e+002,2.643280e+000
6.247305e+002,1.277496e+000
6.256948e+002,3.449402e-001
6.266590e+002,-1.738892e-001
6.276232e+002,-3.382263e-001
6.285875e+002,2.356262e-001
6.295517e+002,1.041779e+000
6.305159e+002,1.465698e+000
6.314802e+002,1.137909e+000
6.324444e+002,2.763367e-001
6.334086e+002,-6.699524e-001
6.343729e+002,-1.433624e+000
6.353371e+002,-1.101563e+000
6.363013e+002,8.780823e-001
6.372656e+002,3.726685e+000
6.382298e+002,4.787964e+000
6.391940e+002,2.668274e+000
6.401583e+002,1.356506e-001
6.411225e+002,-3.771790e+000
6.420867e+002,-7.254303e+000
6.430510e+002,-7.879578e+000
6.440152e+002,-4.216309e+000
6.449794e+002,-9.407654e-001
6.459437e+002,-9.719238e-001
6.469079e+002,-1.946289e+000
6.478721e+002,-1.613220e+000
6.488364e+002,6.170044e-001
6.498006e+002,2.865021e+000
6.507648e+002,6.821289e-001
6.517291e+002,-4.065094e+000
6.526933e+002,-6.424500e+000
6.536575e+002,-5.384430e+000
6.546218e+002,-2.631226e+000
6.555860e+002,-1.360992e+000
6.565502e+002,-2.189209e+000
6.575145e+002,-3.599304e+000
6.584787e+002,-6.680054e+000
6.594429e+002,-9.395905e+000
6.604072e+002,-9.910675e+000
6.613714e+002,-7.780548e+000
6.623356e+002,-5.402527e+000
6.632999e+002,-3.540497e+000
6.642641e+002,-2.249359e+000
6.652283e+002,-1.531982e+000
6.661926e+002,-1.290344e+000
6.671568e+002,-1.528137e+000
6.681210e+002,-2.778900e+000
6.690853e+002,-4.160614e+000
6.700495e+002,-3.022339e+000
6.710137e+002,5.129395e-001
6.719780e+002,4.169189e+000
6.729422e+002,5.484833e+000
6.739064e+002,3.905426e+000
6.748707e+002,2.714600e+000
6.758349e+002,1.902374e+000
6.767991e+002,1.288483e+000
6.777634e+002,9.152832e-001
6.787276e+002,8.869324e-001
6.796918e+002,1.267456e+000
6.806561e+002,2.544312e+000
6.816203e+002,3.387146e+000
6.825845e+002,3.144348e+000
6.835488e+002,2.161560e+000
6.845130e+002,9.650879e-001
6.854772e+002,-7.788086e-002
6.864415e+002,-7.345581e-001
6.874057e+002,-7.345581e-001
6.883699e+002,-3.991089e-001
6.893342e+002,-1.361084e-002
6.902984e+002,3.439636e-001
6.912626e+002,6.528015e-001
6.922269e+002,4.309082e-001
6.931911e+002,-1.160126e+000
6.941553e+002,-1.639526e+000
6.951196e+002,1.802979e-001
6.960838e+002,2.614075e+000
6.970480e+002,2.748932e+000
6.980123e+002,-1.227722e+000
6.989765e+002,-4.128754e+000
6.999407e+002,-3.179749e+000
7.009050e+002,-1.068146e+000
7.018692e+002,3.728943e-001
7.028334e+002,3.659973e-001
7.037977e+002,-8.678589e-001
7.047619e+002,-4.045807e+000
7.057261e+002,-7.573334e+000
7.066904e+002,-7.914520e+000
7.076546e+002,-4.508148e+000
7.086188e+002,4.458313e-001
7.095831e+002,3.486816e+000
7.105473e+002,3.928406e+000
7.115115e+002,4.016998e+000
7.124758e+002,3.636902e+000
7.134400e+002,3.005310e+000
7.144042e+002,2.213104e+000
7.153685e+002,1.343323e+000
7.163327e+002,6.751709e-001
7.172969e+002,8.862610e-001
7.182612e+002,8.315125e-001
7.192254e+002,-6.159668e-001
7.201896e+002,-2.760437e+000
7.211539e+002,-4.031891e+000
7.221181e+002,-2.979523e+000
7.230823e+002,-6.380615e-001
7.240466e+002,7.934570e-004
7.250108e+002,-5.451965e-001
7.259750e+002,-7.333374e-001
7.269393e+002,3.548889e-001
7.279035e+002,2.240356e+000
7.288677e+002,2.301422e+000
7.298320e+002,-1.786499e+000
7.307962e+002,-4.152191e+000
7.317604e+002,-3.758423e+000
7.327247e+002,-1.654297e+000
7.336889e+002,9.288940e-001
7.346531e+002,3.912384e+000
7.356174e+002,5.496979e+000
7.365816e+002,4.328644e+000
7.375458e+002,2.478394e+000
7.385101e+002,1.485718e+000
7.394743e+002,1.715424e+000
7.404385e+002,2.306458e+000
7.414028e+002,1.753387e+000
7.423670e+002,1.440735e-001
7.433312e+002,-4.066772e-001
7.442955e+002,5.794678e-001
7.452597e+002,1.998505e+000
7.462239e+002,2.381805e+000
7.471882e+002,1.236298e+000
7.481524e+002,8.658752e-001
7.491166e+002,1.134064e+000
7.500809e+002,1.696136e+000
7.510451e+002,2.790466e+000
7.520093e+002,4.149200e+000
7.529736e+002,4.972961e+000
7.539378e+002,4.941071e+000
7.549020e+002,4.553528e+000
7.558663e+002,3.935120e+000
7.568306e+002,3.254425e+000
7.577948e+002,2.710541e+000
7.587590e+002,2.361450e+000
7.597233e+002,1.958893e+000
7.606875e+002,7.185059e-001
7.616517e+002,-1.068848e+000
7.626160e+002,-1.130981e+000
7.635802e+002,1.887970e+000
7.645444e+002,6.233368e+000
7.655087e+002,8.062805e+000
7.664729e+002,5.919342e+000
7.674371e+002,4.145905e+000
7.684014e+002,2.767273e+000
7.693656e+002,1.956970e+000
7.703298e+002,2.108276e+000
7.712941e+002,3.157074e+000
7.722583e+002,4.188660e+000
7.732225e+002,4.467865e+000
7.741868e+002,4.495270e+000
7.751510e+002,4.574707e+000
7.761152e+002,4.761536e+000
7.770795e+002,5.128357e+000
7.780437e+002,5.724640e+000
7.790079e+002,6.404480e+000
7.799722e+002,6.030151e+000
7.809364e+002,4.475220e+000
7.819006e+002,3.273926e+000
7.828649e+002,3.362976e+000
7.838291e+002,4.423401e+000
7.847933e+002,5.220978e+000
7.857576e+002,6.080475e+000
7.867218e+002,5.315247e+000
7.876860e+002,1.167114e+000
7.886503e+002,-3.119019e+000
7.896145e+002,-4.710297e+000
7.905787e+002,-2.949890e+000
7.915430e+002,4.730225e-003
7.925072e+002,2.532257e+000
7.934714e+002,4.251068e+000
7.944357e+002,4.472809e+000
7.953999e+002,3.540710e+000
7.963641e+002,2.686676e+000
7.973284e+002,3.246521e+000
7.982926e+002,5.316254e+000
7.992568e+002,7.175293e+000
8.002211e+002,9.064270e+000
8.011853e+002,9.795502e+000
8.021495e+002,8.468475e+000
8.031138e+002,6.001282e+000
8.040780e+002,5.131897e+000
8.050422e+002,7.641571e+000
8.060065e+002,9.080414e+000
8.069707e+002,6.800171e+000
8.079349e+002,3.440186e+000
8.088992e+002,1.775543e+000
8.098634e+002,2.781891e+000
8.108276e+002,4.884857e+000
8.117919e+002,6.040314e+000
8.127561e+002,6.127533e+000
8.137203e+002,5.326996e+000
8.146846e+002,3.846924e+000
8.156488e+002,2.107605e+000
8.166130e+002,3.995972e-001
8.175773e+002,-1.533722e+000
8.185415e+002,-2.104889e+000
8.195057e+002,-7.911377e-001
8.204700e+002,6.391602e-001
8.214342e+002,1.615234e+000
8.223984e+002,2.269501e+000
8.233627e+002,3.115723e+000
8.243269e+002,4.693420e+000
8.252911e+002,5.832947e+000
8.262554e+002,5.398682e+000
8.272196e+002,4.530304e+000
8.281838e+002,4.549469e+000
8.291481e+002,5.820099e+000
8.301123e+002,7.433228e+000
8.310765e+002,7.746887e+000
8.320408e+002,6.787720e+000
8.330050e+002,6.085327e+000
8.339692e+002,5.786346e+000
8.349335e+002,5.664886e+000
8.358977e+002,5.433044e+000
8.368619e+002,5.067932e+000
8.378262e+002,5.485260e+000
8.387904e+002,7.802429e+000
8.397546e+002,9.365723e+000
8.407189e+002,9.287048e+000
8.416831e+002,8.092560e+000
8.426473e+002,6.507019e+000
8.436116e+002,4.615112e+000
8.445758e+002,3.554138e+000
8.455400e+002,4.893555e+000
8.465043e+002,7.120789e+000
8.474685e+002,9.014984e+000
8.484327e+002,1.024069e+001
8.493970e+002,1.085840e+001
8.503612e+002,1.070294e+001
8.513254e+002,9.472382e+000
8.522897e+002,9.250336e+000
8.532539e+002,1.038000e+001
8.542181e+002,1.170316e+001
8.551824e+002,1.284235e+001
8.561466e+002,1.394736e+001
8.571108e+002,1.492841e+001
8.580751e+002,1.522476e+001
8.590393e+002,1.524301e+001
8.600035e+002,1.482233e+001
8.609678e+002,1.463895e+001
8.619320e+002,1.571085e+001
8.628962e+002,1.830017e+001
8.638605e+002,2.102997e+001
8.648247e+002,2.180151e+001
8.657889e+002,2.107364e+001
8.667532e+002,1.954538e+001
8.677174e+002,1.731583e+001
8.686816e+002,1.529968e+001
8.696459e+002,1.464801e+001
8.706101e+002,1.566025e+001
8.715743e+002,1.651346e+001
8.725386e+002,1.745886e+001
8.735028e+002,1.799872e+001
8.744670e+002,1.742068e+001
8.754313e+002,1.624835e+001
8.763955e+002,1.569373e+001
8.773597e+002,1.642667e+001
8.783240e+002,1.716919e+001
8.792882e+002,1.630618e+001
8.802524e+002,1.531540e+001
8.812167e+002,1.568661e+001
8.821809e+002,1.759265e+001
8.831451e+002,2.017139e+001
8.841094e+002,2.238373e+001
8.850736e+002,2.429028e+001
8.860378e+002,2.557001e+001
8.870021e+002,2.607281e+001
8.879663e+002,2.627692e+001
8.889305e+002,2.619162e+001
8.898948e+002,2.586914e+001
8.908590e+002,2.588828e+001
8.918232e+002,2.679764e+001
8.927875e+002,2.748019e+001
8.937517e+002,2.776886e+001
8.947159e+002,2.773798e+001
8.956802e+002,2.703311e+001
8.966444e+002,2.569617e+001
8.976086e+002,2.466290e+001
8.985729e+002,2.532367e+001
8.995371e+002,2.686673e+001
9.005013e+002,2.739331e+001
9.014656e+002,2.720242e+001
9.024298e+002,2.778903e+001
9.033940e+002,3.033994e+001
9.043583e+002,3.428674e+001
9.053225e+002,3.610986e+001
9.062867e+002,3.346780e+001
9.072510e+002,3.133768e+001
9.082152e+002,3.033490e+001
9.091794e+002,2.992294e+001
9.101437e+002,2.955573e+001
9.111079e+002,2.913260e+001
9.120721e+002,2.878033e+001
9.130364e+002,2.850070e+001
9.140006e+002,2.808511e+001
9.149648e+002,2.711899e+001
9.159291e+002,2.617645e+001
9.168933e+002,2.635605e+001
9.178575e+002,2.832410e+001
9.188218e+002,3.134000e+001
9.197860e+002,3.317612e+001
9.207502e+002,3.379941e+001
9.217145e+002,3.345557e+001
9.226787e+002,3.185373e+001
9.236429e+002,2.998407e+001
9.246072e+002,2.913455e+001
9.255714e+002,2.942596e+001
9.265356e+002,2.941675e+001
9.274999e+002,2.912299e+001
9.284641e+002,2.808502e+001
9.294283e+002,2.557010e+001
9.303926e+002,2.243387e+001
9.313568e+002,2.000342e+001
9.323210e+002,1.894608e+001
9.332853e+002,1.874634e+001
9.342495e+002,1.910236e+001
9.352137e+002,1.961649e+001
9.361780e+002,1.983496e+001
9.371422e+002,1.977072e+001
9.381064e+002,1.943958e+001
9.390707e+002,1.853961e+001
9.400349e+002,1.655392e+001
9.409991e+002,1.644778e+001
9.419634e+002,2.029175e+001
9.429276e+002,2.302719e+001
9.438918e+002,2.266602e+001
9.448561e+002,2.065149e+001
9.458203e+002,1.944147e+001
9.467845e+002,1.981329e+001
9.477488e+002,2.072931e+001
9.487130e+002,2.184143e+001
9.496772e+002,2.278458e+001
9.506415e+002,2.312717e+001
9.516057e+002,2.294522e+001
9.525699e+002,2.260989e+001
9.535342e+002,2.245215e+001
9.544984e+002,2.244659e+001
9.554626e+002,2.316104e+001
9.564269e+002,2.522607e+001
9.573911e+002,2.630057e+001
9.583553e+002,2.492194e+001
9.593196e+002,2.245078e+001
9.602838e+002,2.102982e+001
9.612480e+002,2.074496e+001
9.622123e+002,2.130978e+001
9.631765e+002,2.424628e+001
9.641407e+002,2.652274e+001
9.651050e+002,2.594504e+001
9.660692e+002,2.352817e+001
9.670334e+002,2.176340e+001
9.679977e+002,2.229727e+001
9.689619e+002,2.413666e+001
9.699261e+002,2.519406e+001
9.708904e+002,2.544937e+001
9.718546e+002,2.468195e+001
9.728188e+002,2.250903e+001
9.737831e+002,2.036395e+001
9.747473e+002,2.036264e+001
9.757115e+002,2.301416e+001
9.766758e+002,2.538913e+001
9.776400e+002,2.762442e+001
9.786042e+002,2.967480e+001
9.795685e+002,3.187564e+001
9.805327e+002,3.348798e+001
9.814969e+002,3.350665e+001
9.824612e+002,3.169009e+001
9.834254e+002,2.932834e+001
9.843896e+002,2.715341e+001
9.853539e+002,2.512347e+001
9.863181e+002,2.329092e+001
9.872823e+002,2.154852e+001
9.882466e+002,1.974219e+001
9.892108e+002,1.787891e+001
9.901750e+002,1.629071e+001
9.911393e+002,1.590750e+001
9.921035e+002,1.711639e+001
9.930677e+002,1.809808e+001
9.940320e+002,1.853183e+001
9.949962e+002,1.922458e+001
9.959604e+002,2.122192e+001
9.969247e+002,2.453314e+001
9.978889e+002,2.735831e+001
9.988531e+002,2.825665e+001
9.998174e+002,2.865381e+001
1.000782e+003,2.933353e+001
1.001746e+003,3.043179e+001
1.002710e+003,3.229175e+001
1.003674e+003,3.487009e+001
1.004639e+003,3.724960e+001
1.005603e+003,3.773007e+001
1.006567e+003,3.602615e+001
1.007531e+003,3.505725e+001
1.008495e+003,3.521021e+001
1.009460e+003,3.534027e+001
1.010424e+003,3.468207e+001
1.011388e+003,3.349564e+001
1.012352e+003,3.287442e+001
1.013317e+003,3.380875e+001
1.014281e+003,3.320334e+001
1.015245e+003,2.791547e+001
1.016209e+003,2.278394e+001
1.017174e+003,2.210275e+001
1.018138e+003,2.542447e+001
1.019102e+003,2.899527e+001
1.020066e+003,2.993661e+001
1.021031e+003,2.866049e+001
1.021995e+003,2.513031e+001
1.022959e+003,1.973639e+001
1.023923e+003,1.546335e+001
1.024887e+003,1.338626e+001
1.025852e+003,1.260983e+001
1.026816e+003,1.193591e+001
1.027780e+003,1.158957e+001
1.028744e+003,1.086606e+001
1.029709e+003,8.832275e+000
1.030673e+003,7.375946e+000
1.031637e+003,7.548492e+000
1.032601e+003,8.340942e+000
1.033566e+003,8.250793e+000
1.034530e+003,6.822998e+000
1.035494e+003,5.281372e+000
1.036458e+003,4.513489e+000
1.037422e+003,4.756317e+000
1.038387e+003,7.229645e+000
1.039351e+003,1.148804e+001
1.040315e+003,1.436008e+001
1.041279e+003,1.332715e+001
1.042244e+003,9.391785e+000
1.043208e+003,7.218933e+000
1.044172e+003,8.009796e+000
1.045136e+003,8.323853e+000
1.046101e+003,8.127258e+000
1.047065e+003,7.592285e+000
1.048029e+003,6.387787e+000
1.048993e+003,4.822510e+000
1.049958e+003,4.053192e+000
1.050922e+003,4.887024e+000
1.051886e+003,6.259094e+000
1.052850e+003,7.377441e+000
1.053814e+003,8.129242e+000
1.054779e+003,8.070343e+000
1.055743e+003,7.223267e+000
1.056707e+003,6.459015e+000
1.057671e+003,6.913544e+000
1.058636e+003,8.566833e+000
1.059600e+003,8.621246e+000
1.060564e+003,5.077393e+000
1.061528e+003,3.297638e+000
1.062493e+003,5.123840e+000
1.063457e+003,8.012421e+000
1.064421e+003,9.239868e+000
1.065385e+003,8.573578e+000
1.066349e+003,7.799561e+000
1.067314e+003,7.708588e+000
1.068278e+003,7.939545e+000
1.069242e+003,8.452332e+000
1.070206e+003,9.085876e+000
1.071171e+003,9.573029e+000
1.072135e+003,9.721039e+000
1.073099e+003,9.403992e+000
1.074063e+003,8.447388e+000
1.075028e+003,6.760406e+000
1.075992e+003,6.852753e+000
1.076956e+003,9.969910e+000
1.077920e+003,1.222717e+001
1.078885e+003,1.185629e+001
1.079849e+003,1.005106e+001
1.080813e+003,8.800690e+000
1.081777e+003,8.402100e+000
1.082741e+003,8.503113e+000
1.083706e+003,9.405823e+000
1.084670e+003,1.004102e+001
1.085634e+003,9.477783e+000
1.086598e+003,8.238861e+000
1.087563e+003,7.623260e+000
1.088527e+003,8.341705e+000
1.089491e+003,9.480408e+000
1.090455e+003,8.899841e+000
1.091420e+003,6.236633e+000
1.092384e+003,4.640778e+000
1.093348e+003,4.420197e+000
1.094312e+003,4.424774e+000
1.095276e+003,3.998413e+000
1.096241e+003,3.466827e+000
1.097205e+003,3.688080e+000
1.098169e+003,5.041992e+000
1.099133e+003,5.970154e+000
1.100098e+003,5.620300e+000
1.101062e+003,5.089233e+000
1.102026e+003,4.875336e+000
1.102990e+003,5.100983e+000
1.103955e+003,5.789886e+000
1.104919e+003,6.922333e+000
1.105883e+003,8.293884e+000
1.106847e+003,9.684662e+000
1.107812e+003,1.102661e+001
1.108776e+003,1.153336e+001
1.109740e+003,1.112326e+001
1.110704e+003,9.986145e+000
1.111668e+003,7.687317e+000
1.112633e+003,4.841187e+000
1.113597e+003,3.892914e+000
1.114561e+003,5.639252e+000
1.115525e+003,7.705170e+000
1.116490e+003,9.442780e+000
1.117454e+003,1.105652e+001
1.118418e+003,1.346304e+001
1.119382e+003,1.598526e+001
1.120347e+003,1.648123e+001
1.121311e+003,1.353458e+001
1.122275e+003,9.200562e+000
1.123239e+003,8.154175e+000
1.124203e+003,1.040540e+001
1.125168e+003,1.266855e+001
1.126132e+003,1.484573e+001
1.127096e+003,1.683170e+001
1.128060e+003,1.840927e+001
1.129025e+003,1.959009e+001
1.129989e+003,2.067749e+001
1.130953e+003,2.166693e+001
1.131917e+003,2.243176e+001
1.132882e+003,2.308261e+001
1.133846e+003,2.354480e+001
1.134810e+003,2.357794e+001
1.135774e+003,2.342636e+001
1.136739e+003,2.344363e+001
1.137703e+003,2.383099e+001
1.138667e+003,2.485873e+001
1.139631e+003,2.743552e+001
1.140595e+003,3.121689e+001
1.141560e+003,3.325674e+001
1.142524e+003,3.278043e+001
1.143488e+003,3.332205e+001
1.144452e+003,3.765323e+001
1.145417e+003,4.486865e+001
1.146381e+003,5.156531e+001
1.147345e+003,5.706403e+001
1.148309e+003,6.353613e+001
1.149274e+003,7.218851e+001
1.150238e+003,8.132980e+001
1.151202e+003,9.055078e+001
1.152166e+003,9.967429e+001
1.153130e+003,1.088153e+002
1.154095e+003,1.177726e+002
1.155059e+003,1.253584e+002
1.156023e+003,1.303500e+002
1.156987e+003,1.324537e+002
1.157952e+003,1.311718e+002
1.158916e+003,1.265662e+002
1.159880e+003,1.202772e+002
1.160844e+003,1.120446e+002
1.161809e+003,1.024663e+002
1.162773e+003,9.320929e+001
1.163737e+003,8.410233e+001
1.164701e+003,7.620657e+001
1.165666e+003,7.079800e+001
1.166630e+003,6.587164e+001
1.167594e+003,6.053900e+001
1.168558e+003,5.526834e+001
1.169522e+003,5.064697e+001
1.170487e+003,4.694919e+001
1.171451e+003,4.446936e+001
1.172415e+003,4.371777e+001
1.173379e+003,4.414221e+001
1.174344e+003,4.273648e+001
1.175308e+003,3.941980e+001
1.176272e+003,3.694464e+001
1.177236e+003,3.690506e+001
1.178201e+003,3.769257e+001
1.179165e+003,3.702689e+001
1.180129e+003,3.477713e+001
1.181093e+003,3.278400e+001
1.182057e+003,3.163278e+001
1.183022e+003,3.064328e+001
1.183986e+003,2.891336e+001
1.184950e+003,2.765613e+001
1.185914e+003,2.853983e+001
1.186879e+003,3.129959e+001
1.187843e+003,3.409384e+001
1.188807e+003,3.539230e+001
1.189771e+003,3.540372e+001
1.190736e+003,3.480170e+001
1.191700e+003,3.351355e+001
1.192664e+003,3.211533e+001
1.193628e+003,3.038742e+001
1.194593e+003,2.909705e+001
1.195557e+003,2.889514e+001
1.196521e+003,2.952457e+001
1.197485e+003,3.039706e+001
1.198449e+003,3.191144e+001
1.199414e+003,3.219202e+001
1.200378e+003,2.901770e+001
1.201342e+003,2.561356e+001
1.202306e+003,2.396625e+001
1.203271e+003,2.364261e+001
1.204235e+003,2.349243e+001
1.205199e+003,2.291058e+001
1.206163e+003,2.191119e+001
1.207128e+003,2.039142e+001
1.208092e+003,1.831177e+001
1.209056e+003,1.734872e+001
1.210020e+003,1.819150e+001
1.210984e+003,1.859634e+001
1.211949e+003,1.825378e+001
1.212913e+003,1.686472e+001
1.213877e+003,1.353427e+001
1.214841e+003,8.366211e+000
1.215806e+003,4.152832e+000
1.216770e+003,2.135101e+000
1.217734e+003,1.056915e+000
1.218698e+003,-2.733765e-001
1.219663e+003,-1.340393e+000
1.220627e+003,-1.009247e+000
1.221591e+003,5.397949e-001
1.222555e+003,1.609955e+000
1.223520e+003,6.322021e-001
1.224484e+003,-1.920380e+000
1.225448e+003,-4.074554e+000
1.226412e+003,-5.931061e+000
1.227376e+003,-7.081696e+000
1.228341e+003,-7.144897e+000
1.229305e+003,-7.058014e+000
1.230269e+003,-7.526520e+000
1.231233e+003,-8.166656e+000
1.232198e+003,-7.785919e+000
1.233162e+003,-5.921143e+000
1.234126e+003,-4.728088e+000
1.235090e+003,-6.767517e+000
1.236055e+003,-9.468170e+000
1.237019e+003,-9.993469e+000
1.237983e+003,-8.882263e+000
1.238947e+003,-7.406250e+000
1.239911e+003,-6.053864e+000
1.240876e+003,-5.290192e+000
1.241840e+003,-6.139832e+000
1.242804e+003,-8.784943e+000
1.243768e+003,-9.566132e+000
1.244733e+003,-6.518433e+000
1.245697e+003,-4.100281e+000
1.246661e+003,-2.630951e+000
1.247625e+003,-2.148590e+000
1.248590e+003,-3.358398e+000
1.249554e+003,-5.371002e+000
1.250518e+003,-5.887268e+000
1.251482e+003,-3.854004e+000
1.252447e+003,-1.139313e+000
1.253411e+003,4.841614e-001
1.254375e+003,1.149475e+000
1.255339e+003,8.533630e-001
1.256303e+003,-2.876587e-001
1.257268e+003,-1.375793e+000
1.258232e+003,-2.070862e+000
1.259196e+003,-2.513519e+000
1.260160e+003,-2.920410e+000
1.261125e+003,-3.338623e+000
1.262089e+003,-2.624084e+000
1.263053e+003,-1.498718e-001
1.264017e+003,2.655426e+000
1.264982e+003,7.300781e+000
1.265946e+003,1.089648e+001
1.266910e+003,9.681030e+000
1.267874e+003,4.601746e+000
1.268839e+003,2.282410e-001
1.269803e+003,-3.930664e-001
1.270767e+003,1.040649e+000
1.271731e+003,1.356079e+000
1.272695e+003,6.549683e-001
1.273660e+003,5.308228e-001
1.274624e+003,9.911804e-001
1.275588e+003,1.521332e+000
1.276552e+003,2.396240e+000
1.277517e+003,3.167389e+000
1.278481e+003,2.594177e+000
1.279445e+003,4.524841e-001
1.280409e+003,-1.399139e+000
1.281374e+003,-2.412170e+000
1.282338e+003,-2.850464e+000
1.283302e+003,-2.321442e+000
1.284266e+003,-1.709351e+000
1.285230e+003,-2.403931e+000
1.286195e+003,-4.241394e+000
1.287159e+003,-5.481628e+000
1.288123e+003,-4.630951e+000
1.289087e+003,-2.347351e+000
1.290052e+003,-8.765564e-001
1.291016e+003,-4.055786e-001
1.291980e+003,-6.330566e-001
1.292944e+003,-2.437195e+000
1.293909e+003,-3.983429e+000
1.294873e+003,-4.060364e+000
1.295837e+003,-3.545898e+000
1.296801e+003,-3.988007e+000
1.297766e+003,-5.463226e+000
1.298730e+003,-6.108734e+000
1.299694e+003,-4.567047e+000
1.300658e+003,-2.753174e+000
1.301622e+003,-2.983826e+000
1.302587e+003,-4.174530e+000
1.303551e+003,-4.630096e+000
1.304515e+003,-4.052063e+000
1.305479e+003,-3.387482e+000
1.306444e+003,-3.543213e+000
1.307408e+003,-4.177582e+000
1.308372e+003,-3.802032e+000
1.309336e+003,-1.836212e+000
1.310301e+003,-7.013245e-001
1.311265e+003,-4.462891e-001
1.312229e+003,-9.477844e-001
1.313193e+003,-2.966766e+000
1.314157e+003,-5.273529e+000
1.315122e+003,-6.616241e+000
1.316086e+003,-6.916443e+000
1.317050e+003,-6.943207e+000
1.318014e+003,-7.157593e+000
1.318979e+003,-7.104553e+000
1.319943e+003,-5.844360e+000
1.320907e+003,-3.493988e+000
1.321871e+003,-1.714813e+000
1.322836e+003,-7.583923e-001
1.323800e+003,-3.200378e-001
1.324764e+003,-4.416504e-001
1.325728e+003,-8.246155e-001
1.326693e+003,-9.471436e-001
1.327657e+003,-8.585815e-001
1.328621e+003,-1.133972e+000
1.329585e+003,-1.551636e+000
1.330549e+003,-2.262299e+000
1.331514e+003,-4.779327e+000
1.332478e+003,-7.074432e+000
1.333442e+003,-6.261017e+000
1.334406e+003,-3.073212e+000
1.335371e+003,-1.006805e+000
1.336335e+003,-2.132690e+000
1.337299e+003,-4.546265e+000
1.338263e+003,-4.580444e+000
1.339228e+003,-1.822174e+000
1.340192e+003,-5.311279e-001
1.341156e+003,-1.640778e+000
1.342120e+003,-2.735077e+000
1.343084e+003,-3.839294e+000
1.344049e+003,-4.724030e+000
1.345013e+003,-4.976135e+000
1.345977e+003,-4.669464e+000
1.346941e+003,-4.339691e+000
1.347906e+003,-4.214569e+000
1.348870e+003,-3.621246e+000
1.349834e+003,-1.235565e+000
1.350798e+003,1.325012e+000
1.351763e+003,6.801453e-001
1.352727e+003,-2.520477e+000
1.353691e+003,-4.520142e+000
1.354655e+003,-3.763184e+000
1.355620e+003,-2.030579e+000
1.356584e+003,-1.229370e+000
1.357548e+003,-1.252533e+000
1.358512e+003,-1.670593e+000
1.359476e+003,-3.049561e+000
1.360441e+003,-3.770081e+000
1.361405e+003,-2.433014e+000
1.362369e+003,-1.284454e+000
1.363333e+003,-1.621674e+000
1.364298e+003,-2.735107e+000
1.365262e+003,-3.659546e+000
1.366226e+003,-4.061737e+000
1.367190e+003,-3.997101e+000
1.368155e+003,-3.499908e+000
1.369119e+003,-2.794189e+000
1.370083e+003,-2.575104e+000
1.371047e+003,-2.919556e+000
1.372011e+003,-3.176239e+000
1.372976e+003,-3.853485e+000
1.373940e+003,-4.074951e+000
1.374904e+003,-2.850372e+000
1.375868e+003,-1.309448e+000
1.376833e+003,-1.204559e+000
1.377797e+003,-2.470978e+000
1.378761e+003,-3.135498e+000
1.379725e+003,-2.063629e+000
1.380690e+003,-1.024384e+000
1.381654e+003,-2.649719e+000
1.382618e+003,-4.977875e+000
1.383582e+003,-5.236359e+000
1.384547e+003,-3.425049e+000
1.385511e+003,-8.756104e-001
1.386475e+003,1.939362e+000
1.387439e+003,4.287231e+000
1.388403e+003,4.788696e+000
1.389368e+003,3.436218e+000
1.390332e+003,2.582672e+000
1.391296e+003,2.346130e+000
1.392260e+003,2.723694e+000
1.393225e+003,5.265625e+000
1.394189e+003,6.667511e+000
1.395153e+003,3.199280e+000
1.396117e+003,-1.852661e+000
1.397082e+003,-2.482239e+000
1.398046e+003,2.119568e+000
1.399010e+003,6.310791e+000
1.399974e+003,4.767242e+000
1.400938e+003,-5.070496e-001
1.401903e+003,-2.730469e+000
1.402867e+003,-6.829224e-001
1.403831e+003,1.086731e+000
1.404795e+003,2.423645e+000
1.405760e+003,3.385529e+000
1.406724e+003,3.846466e+000
1.407688e+003,3.591156e+000
1.408652e+003,2.220551e+000
1.409617e+003,1.835938e-001
1.410581e+003,-1.068146e+000
1.411545e+003,-9.613647e-001
1.412509e+003,3.253174e-002
1.413474e+003,2.075562e+000
1.414438e+003,4.091949e+000
1.415402e+003,4.471069e+000
1.416366e+003,3.483398e+000
1.417330e+003,2.190918e+000
1.418295e+003,8.756104e-001
1.419259e+003,-1.094360e-001
1.420223e+003,-2.939453e-001
1.421187e+003,1.210022e-001
1.422152e+003,3.495789e-001
1.423116e+003,3.718262e-001
1.424080e+003,7.315063e-001
1.425044e+003,2.293335e+000
1.426009e+003,3.144806e+000
1.426973e+003,1.734863e+000
1.427937e+003,-3.948669e-001
1.428901e+003,-1.285431e+000
1.429865e+003,-7.914734e-001
1.430830e+003,-2.396545e-001
1.431794e+003,-5.526123e-001
1.432758e+003,-9.133911e-001
1.433722e+003,5.440369e-001
1.434687e+003,4.221680e+000
1.435651e+003,7.143860e+000
1.436615e+003,8.912872e+000
1.437579e+003,9.597382e+000
1.438544e+003,8.533173e+000
1.439508e+003,7.176270e+000
1.440472e+003,6.582794e+000
1.441436e+003,6.550171e+000
1.442401e+003,6.348877e+000
1.443365e+003,5.795898e+000
1.444329e+003,5.535950e+000
1.445293e+003,6.196869e+000
1.446257e+003,7.171906e+000
1.447222e+003,7.139069e+000
1.448186e+003,6.267090e+000
1.449150e+003,5.516846e+000
1.450114e+003,4.880798e+000
1.451079e+003,4.524902e+000
1.452043e+003,4.521515e+000
1.453007e+003,5.036133e+000
1.453971e+003,6.900970e+000
1.454936e+003,9.644470e+000
1.455900e+003,9.784241e+000
1.456864e+003,5.711609e+000
1.457828e+003,2.389282e+000
1.458792e+003,3.458801e+000
1.459757e+003,5.602692e+000
1.460721e+003,6.482697e+000
1.461685e+003,6.255951e+000
1.462649e+003,5.321594e+000
1.463614e+003,3.955505e+000
1.464578e+003,2.884827e+000
1.465542e+003,2.739380e+000
1.466506e+003,3.196442e+000
1.467471e+003,3.520386e+000
1.468435e+003,3.887512e+000
1.469399e+003,3.996124e+000
1.470363e+003,2.480225e+000
1.471328e+003,2.379395e+000
1.472292e+003,6.032593e+000
1.473256e+003,9.425476e+000
1.474220e+003,9.348114e+000
1.475184e+003,7.167358e+000
1.476149e+003,5.581543e+000
1.477113e+003,5.550110e+000
1.478077e+003,6.646240e+000
1.479041e+003,8.635101e+000
1.480006e+003,1.105923e+001
1.480970e+003,1.204926e+001
1.481934e+003,1.114713e+001
1.482898e+003,9.995972e+000
1.483863e+003,7.787292e+000
1.484827e+003,6.432404e+000
1.485791e+003,6.742462e+000
1.486755e+003,8.078156e+000
1.487719e+003,1.022986e+001
1.488684e+003,1.268817e+001
1.489648e+003,1.448383e+001
1.490612e+003,1.539322e+001
1.491576e+003,1.617456e+001
1.492541e+003,1.737860e+001
1.493505e+003,1.880118e+001
1.494469e+003,2.004916e+001
1.495433e+003,2.100815e+001
1.496398e+003,2.183228e+001
1.497362e+003,2.261682e+001
1.498326e+003,2.377066e+001
1.499290e+003,2.529477e+001
1.500255e+003,2.740454e+001
1.501219e+003,3.057834e+001
1.502183e+003,3.459647e+001
1.503147e+003,3.847104e+001
1.504111e+003,4.201434e+001
1.505076e+003,4.521884e+001
1.506040e+003,4.765460e+001
1.507004e+003,5.027893e+001
1.507968e+003,5.323096e+001
1.508933e+003,5.725180e+001
1.509897e+003,6.474173e+001
1.510861e+003,7.605109e+001
1.511825e+003,8.667191e+001
1.512790e+003,9.281125e+001
1.513754e+003,9.707437e+001
1.514718e+003,1.046483e+002
1.515682e+003,1.153857e+002
1.516646e+003,1.270255e+002
1.517611e+003,1.409582e+002
1.518575e+003,1.524590e+002
1.519539e+003,1.587238e+002
1.520503e+003,1.638615e+002
1.521468e+003,1.710166e+002
1.522432e+003,1.777018e+002
1.523396e+003,1.801822e+002
1.524360e+003,1.782037e+002
1.525325e+003,1.742553e+002
1.526289e+003,1.700331e+002
1.527253e+003,1.652855e+002
1.528217e+003,1.595478e+002
1.529182e+003,1.529471e+002
1.530146e+003,1.445038e+002
1.531110e+003,1.326800e+002
1.532074e+003,1.215843e+002
1.533039e+003,1.122429e+002
1.534003e+003,1.021256e+002
1.534967e+003,8.973962e+001
1.535931e+003,7.683664e+001
1.536896e+003,6.477252e+001
1.537860e+003,5.420218e+001
1.538824e+003,4.587839e+001
1.539788e+003,4.000513e+001
1.540752e+003,3.517032e+001
1.541717e+003,2.953439e+001
1.542681e+003,2.355530e+001
1.543645e+003,1.957318e+001
1.544609e+003,1.844138e+001
1.545573e+003,1.770541e+001
1.546538e+003,1.738229e+001
1.547502e+003,1.701422e+001
1.548466e+003,1.663208e+001
1.549430e+003,1.632715e+001
1.550395e+003,1.580157e+001
1.551359e+003,1.528995e+001
1.552323e+003,1.611075e+001
1.553287e+003,1.854065e+001
1.554252e+003,1.963522e+001
1.555216e+003,1.647516e+001
1.556180e+003,1.108322e+001
1.557144e+003,8.073547e+000
1.558109e+003,7.625885e+000
1.559073e+003,7.919434e+000
1.560037e+003,9.343079e+000
1.561001e+003,1.014453e+001
1.561966e+003,9.755127e+000
1.562930e+003,8.889130e+000
1.563894e+003,7.603577e+000
1.564858e+003,6.334167e+000
1.565823e+003,6.264008e+000
1.566787e+003,7.544464e+000
1.567751e+003,9.064117e+000
1.568715e+003,1.036853e+001
1.569679e+003,1.134308e+001
1.570644e+003,1.174725e+001
1.571608e+003,1.154819e+001
1.572572e+003,1.088242e+001
1.573536e+003,9.830719e+000
1.574500e+003,8.941559e+000
1.575465e+003,8.176300e+000
1.576429e+003,7.857666e+000
1.577393e+003,8.533173e+000
1.578357e+003,9.633972e+000
1.579322e+003,9.984924e+000
1.580286e+003,9.637756e+000
1.581250e+003,9.951965e+000
1.582214e+003,1.160065e+001
1.583179e+003,1.297034e+001
1.584143e+003,1.251837e+001
1.585107e+003,1.130713e+001
1.586071e+003,1.108386e+001
1.587036e+003,1.161725e+001
1.588000e+003,1.158743e+001
1.588964e+003,1.056244e+001
1.589928e+003,9.712341e+000
1.590893e+003,9.906311e+000
1.591857e+003,1.066736e+001
1.592821e+003,1.148676e+001
1.593785e+003,1.230435e+001
1.594750e+003,1.251773e+001
1.595714e+003,1.186942e+001
1.596678e+003,1.138693e+001
1.597642e+003,1.149225e+001
1.598606e+003,1.191348e+001
1.599571e+003,1.258060e+001
1.600535e+003,1.340338e+001
1.601499e+003,1.441650e+001
1.602463e+003,1.543964e+001
1.603427e+003,1.574268e+001
1.604392e+003,1.495276e+001
1.605356e+003,1.410287e+001
1.606320e+003,1.462372e+001
1.607284e+003,1.578464e+001
1.608249e+003,1.503387e+001
1.609213e+003,1.226865e+001
1.610177e+003,1.108044e+001
1.611141e+003,1.260156e+001
1.612106e+003,1.438641e+001
1.613070e+003,1.597757e+001
1.614034e+003,1.667731e+001
1.614998e+003,1.502649e+001
1.615963e+003,1.251245e+001
1.616927e+003,1.199640e+001
1.617891e+003,1.357599e+001
1.618855e+003,1.437772e+001
1.619820e+003,1.247250e+001
1.620784e+003,9.774323e+000
1.621748e+003,9.371246e+000
1.622712e+003,1.104501e+001
1.623677e+003,1.236029e+001
1.624641e+003,1.331531e+001
1.625605e+003,1.389886e+001
1.626569e+003,1.364557e+001
1.627533e+003,1.309070e+001
1.628498e+003,1.238364e+001
1.629462e+003,1.190359e+001
1.630426e+003,1.179553e+001
1.631390e+003,1.215237e+001
1.632354e+003,1.362195e+001
1.633319e+003,1.608255e+001
1.634283e+003,1.737195e+001
1.635247e+003,1.565601e+001
1.636211e+003,1.251169e+001
1.637176e+003,1.078375e+001
1.638140e+003,1.045102e+001
1.639104e+003,1.013608e+001
1.640068e+003,9.582062e+000
1.641033e+003,9.703156e+000
1.641997e+003,1.168967e+001
1.642961e+003,1.314697e+001
1.643925e+003,1.255267e+001
1.644890e+003,1.117401e+001
1.645854e+003,9.631378e+000
1.646818e+003,8.457886e+000
1.647782e+003,8.969025e+000
1.648747e+003,1.139954e+001
1.649711e+003,1.360547e+001
1.650675e+003,1.381973e+001
1.651639e+003,1.296515e+001
1.652604e+003,1.279388e+001
1.653568e+003,1.319797e+001
1.654532e+003,1.306201e+001
1.655496e+003,1.201993e+001
1.656460e+003,1.161792e+001
1.657425e+003,1.339240e+001
1.658389e+003,1.450671e+001
1.659353e+003,1.230527e+001
1.660317e+003,9.539215e+000
1.661281e+003,9.451691e+000
1.662246e+003,1.140207e+001
1.663210e+003,1.293481e+001
1.664174e+003,1.325797e+001
1.665138e+003,1.273035e+001
1.666103e+003,1.122290e+001
1.667067e+003,9.596436e+000
1.668031e+003,1.025613e+001
1.668995e+003,1.296030e+001
1.669960e+003,1.340265e+001
1.670924e+003,1.069659e+001
1.671888e+003,8.353241e+000
1.672852e+003,7.324158e+000
1.673817e+003,6.949646e+000
1.674781e+003,6.803802e+000
1.675745e+003,7.012787e+000
1.676709e+003,8.242188e+000
1.677674e+003,9.920502e+000
1.678638e+003,1.007300e+001
1.679602e+003,8.111938e+000
1.680566e+003,6.406067e+000
1.681531e+003,7.218048e+000
1.682495e+003,8.954346e+000
1.683459e+003,8.260223e+000
1.684423e+003,5.651672e+000
1.685387e+003,5.359802e+000
1.686352e+003,8.223999e+000
1.687316e+003,9.823975e+000
1.688280e+003,8.284851e+000
1.689244e+003,6.036835e+000
1.690208e+003,4.225586e+000
1.691173e+003,3.037018e+000
1.692137e+003,3.147949e+000
1.693101e+003,4.223572e+000
1.694065e+003,4.918182e+000
1.695030e+003,4.791931e+000
1.695994e+003,4.328461e+000
1.696958e+003,3.743256e+000
1.697922e+003,3.212769e+000
1.698887e+003,2.902954e+000
1.699851e+003,2.862946e+000
1.700815e+003,3.384247e+000
1.701779e+003,4.391785e+000
1.702744e+003,4.307526e+000
1.703708e+003,2.363708e+000
1.704672e+003,9.810486e-001
1.705636e+003,2.338287e+000
1.706601e+003,4.434692e+000
1.707565e+003,4.019836e+000
1.708529e+003,2.121979e+000
1.709493e+003,2.058990e+000
1.710458e+003,4.473907e+000
1.711422e+003,5.977905e+000
1.712386e+003,4.438202e+000
1.713350e+003,2.603821e+000
1.714314e+003,2.846878e+000
1.715279e+003,3.896103e+000
1.716243e+003,3.521790e+000
1.717207e+003,1.950287e+000
1.718171e+003,1.205704e+000
1.719135e+003,1.874039e+000
1.720100e+003,2.317993e+000
1.721064e+003,1.321716e+000
1.722028e+003,-2.537537e-001
1.722992e+003,-1.191223e+000
1.723957e+003,-1.388992e+000
1.724921e+003,-1.001892e+000
1.725885e+003,-1.664886e-001
1.726849e+003,6.708527e-001
1.727814e+003,1.814682e+000
1.728778e+003,2.904114e+000
1.729742e+003,4.140717e+000
1.730706e+003,4.847092e+000
1.731671e+003,3.940323e+000
1.732635e+003,1.905243e+000
1.733599e+003,-2.642365e-001
1.734563e+003,-2.016937e+000
1.735528e+003,-2.257736e+000
1.736492e+003,-4.887543e-001
1.737456e+003,7.557373e-001
1.738420e+003,-1.869232e+000
1.739385e+003,-6.695358e+000
1.740349e+003,-6.982132e+000
1.741313e+003,-1.304718e+000
1.742277e+003,2.130066e+000
1.743241e+003,2.105759e+000
1.744206e+003,2.122910e+000
1.745170e+003,2.756805e+000
1.746134e+003,3.223602e+000
1.747098e+003,3.123810e+000
1.748063e+003,2.575485e+000
1.749027e+003,1.643860e+000
1.749991e+003,4.798889e-001
1.750955e+003,-9.921417e-001
1.751919e+003,-2.604019e+000
1.752884e+003,-3.261948e+000
1.753848e+003,-2.038666e+000
1.754812e+003,1.598358e-001
1.755776e+003,1.675430e+000
1.756741e+003,2.615860e+000
1.757705e+003,2.888733e+000
1.758669e+003,2.357025e+000
1.759633e+003,1.225891e+000
1.760598e+003,-1.624969e+000
1.761562e+003,-3.591324e+000
1.762526e+003,-3.072617e+000
1.763490e+003,-2.051529e+000
1.764455e+003,-1.529678e+000
1.765419e+003,-1.624298e+000
1.766383e+003,-3.098846e+000
1.767347e+003,-5.427719e+000
1.768312e+003,-5.716995e+000
1.769276e+003,-2.577744e+000
1.770240e+003,3.418427e-001
1.771204e+003,-9.996948e-001
1.772168e+003,-4.621277e+000
1.773133e+003,-6.436981e+000
1.774097e+003,-6.548355e+000
1.775061e+003,-5.787216e+000
1.776025e+003,-4.267014e+000
1.776990e+003,-2.390686e+000
1.777954e+003,2.921906e-001
1.778918e+003,2.437134e+000
1.779882e+003,2.841858e+000
1.780846e+003,2.099289e+000
1.781811e+003,7.258606e-001
1.782775e+003,-8.933868e-001
1.783739e+003,-1.420364e+000
1.784703e+003,-5.125732e-001
1.785668e+003,1.311188e-001
1.786632e+003,-2.685699e-001
1.787596e+003,-1.334900e+000
1.788560e+003,-3.233414e+000
1.789525e+003,-4.998947e+000
1.790489e+003,-5.695236e+000
1.791453e+003,-5.225845e+000
1.792417e+003,-2.618057e+000
1.793382e+003,1.883743e+000
1.794346e+003,4.296371e+000
1.795310e+003,2.375885e+000
1.796274e+003,-9.472351e-001
1.797239e+003,-2.340744e+000
1.798203e+003,-2.174683e+000
1.799167e+003,-2.067719e+000
1.800131e+003,-2.316406e+000
1.801095e+003,-2.359604e+000
1.802060e+003,-1.290649e+000
1.803024e+003,-1.003876e+000
1.803988e+003,-2.893356e+000
1.804952e+003,-4.279922e+000
1.805917e+003,-3.200623e+000
1.806881e+003,-1.608200e+000
1.807845e+003,-1.868546e+000
1.808809e+003,-3.039017e+000
1.809773e+003,-2.557724e+000
1.810738e+003,-1.731110e-001
1.811702e+003,1.968872e+000
1.812666e+003,2.503601e+000
1.813630e+003,1.929581e+000
1.814595e+003,8.062286e-001
1.815559e+003,-7.498016e-001
1.816523e+003,-2.293335e+000
1.817487e+003,-3.901947e+000
1.818452e+003,-4.038437e+000
1.819416e+003,-1.788940e+000
1.820380e+003,-2.266541e-001
1.821344e+003,-9.253540e-001
1.822309e+003,-1.683502e+000
1.823273e+003,-7.635345e-001
1.824237e+003,5.586853e-001
1.825201e+003,8.428497e-001
1.826166e+003,3.497925e-001
1.827130e+003,1.104889e-001
1.828094e+003,2.430267e-001
1.829058e+003,-1.818237e-001
1.830022e+003,-1.854004e+000
1.830987e+003,-3.453476e+000
1.831951e+003,-3.704468e+000
1.832915e+003,-3.348251e+000
1.833879e+003,-3.812744e+000
1.834844e+003,-4.578445e+000
1.835808e+003,-3.424011e+000
1.836772e+003,-3.219604e-001
1.837736e+003,1.467972e+000
1.838700e+003,4.222717e-001
1.839665e+003,-1.099304e+000
1.840629e+003,-8.401337e-001
1.841593e+003,2.572479e-001
1.842557e+003,-2.023315e-002
1.843522e+003,-1.645538e+000
1.844486e+003,-2.027603e+000
1.845450e+003,1.342773e-001
1.846414e+003,1.333832e+000
1.847379e+003,5.520935e-001
1.848343e+003,-1.912537e-001
1.849307e+003,-7.205200e-002
1.850271e+003,1.760864e-001
1.851236e+003,1.204834e-001
1.852200e+003,-1.064148e-001
1.853164e+003,-4.635620e-001
1.854128e+003,-9.626007e-001
1.855093e+003,-1.525818e+000
1.856057e+003,-1.975723e+000
1.857021e+003,-1.910400e+000
1.857985e+003,-9.509583e-001
1.858949e+003,9.303284e-002
1.859914e+003,-4.469757e-001
1.860878e+003,-2.130020e+000
1.861842e+003,-2.513336e+000
1.862806e+003,-1.591934e+000
1.863771e+003,-8.472443e-001
1.864735e+003,-5.382843e-001
1.865699e+003,-5.495148e-001
1.866663e+003,-6.824799e-001
1.867627e+003,-1.217255e+000
1.868592e+003,-3.116608e+000
1.869556e+003,-5.356506e+000
1.870520e+003,-5.564819e+000
1.871484e+003,-4.076309e+000
1.872449e+003,-3.045013e+000
1.873413e+003,-2.481308e+000
1.874377e+003,-1.751160e+000
1.875341e+003,-8.772736e-001
1.876306e+003,-1.230164e-001
1.877270e+003,1.341858e-001
1.878234e+003,3.441772e-001
1.879198e+003,1.444931e+000
1.880163e+003,2.694397e+000
1.881127e+003,2.519226e+000
1.882091e+003,1.030609e+000
1.883055e+003,-5.654907e-001
1.884020e+003,-1.660446e+000
1.884984e+003,-1.837509e+000
1.885948e+003,-6.679993e-001
1.886912e+003,1.040909e+000
1.887876e+003,1.656631e+000
1.888841e+003,1.288147e+000
1.889805e+003,1.043259e+000
1.890769e+003,8.922272e-001
1.891733e+003,1.047760e+000
1.892698e+003,1.547134e+000
1.893662e+003,2.094269e+000
1.894626e+003,2.893280e+000
1.895590e+003,3.396118e+000
1.896554e+003,2.793289e+000
1.897519e+003,2.119751e+000
1.898483e+003,3.025131e+000
1.899447e+003,4.748779e+000
1.900411e+003,4.824615e+000
1.901376e+003,2.823807e+000
1.902340e+003,5.390320e-001
1.903304e+003,-2.077484e+000
1.904268e+003,-3.740128e+000
1.905233e+003,-2.861313e+000
1.906197e+003,-1.325912e+000
1.907161e+003,-1.632965e+000
1.908125e+003,-2.388077e+000
1.909090e+003,-2.905273e-001
1.910054e+003,3.929779e+000
1.911018e+003,6.279510e+000
1.911982e+003,5.612213e+000
1.912947e+003,4.379959e+000
1.913911e+003,4.352036e+000
1.914875e+003,4.373245e+000
1.915839e+003,2.378052e+000
1.916803e+003,-8.997498e-001
1.917768e+003,-6.652222e-001
1.918732e+003,4.200256e+000
1.919696e+003,5.404022e+000
1.920660e+003,8.716583e-001
1.921625e+003,-1.403656e+000
1.922589e+003,1.789352e+000
1.923553e+003,4.909149e+000
1.924517e+003,4.697357e+000
1.925481e+003,3.495346e+000
1.926446e+003,3.170395e+000
1.927410e+003,3.428986e+000
1.928374e+003,3.788971e+000
1.929338e+003,4.061554e+000
1.930303e+003,3.472549e+000
1.931267e+003,1.621658e+000
1.932231e+003,1.667328e-001
1.933195e+003,-4.537811e-001
1.934160e+003,-3.409729e-001
1.935124e+003,1.223480e+000
1.936088e+003,2.775009e+000
1.937052e+003,2.084564e+000
1.938017e+003,2.996063e-001
1.938981e+003,3.176880e-001
1.939945e+003,2.200394e+000
1.940909e+003,3.596130e+000
1.941874e+003,3.398911e+000
1.942838e+003,2.392105e+000
1.943802e+003,1.340469e+000
1.944766e+003,7.095032e-001
1.945730e+003,1.359009e+000
1.946695e+003,2.995682e+000
1.947659e+003,3.793427e+000
1.948623e+003,3.635712e+000
1.949587e+003,3.674927e+000
1.950552e+003,4.186020e+000
1.951516e+003,4.492157e+000
1.952480e+003,4.189758e+000
1.953444e+003,4.018890e+000
1.954408e+003,4.694000e+000
1.955373e+003,5.441483e+000
1.956337e+003,5.450470e+000
1.957301e+003,4.852676e+000
1.958265e+003,3.238159e+000
1.959230e+003,2.835846e-001
1.960194e+003,-7.506561e-001
1.961158e+003,1.880600e+000
1.962122e+003,4.079422e+000
1.963087e+003,4.246216e+000
1.964051e+003,4.448608e+000
1.965015e+003,6.863663e+000
1.965979e+003,9.238098e+000
1.966944e+003,8.768494e+000
1.967908e+003,6.468369e+000
1.968872e+003,4.287628e+000
1.969836e+003,2.890137e+000
1.970801e+003,2.733887e+000
1.971765e+003,3.893890e+000
1.972729e+003,4.745926e+000
1.973693e+003,3.692841e+000
1.974657e+003,2.217499e+000
1.975622e+003,2.669983e+000
1.976586e+003,4.321991e+000
1.977550e+003,5.457855e+000
1.978514e+003,6.098862e+000
1.979479e+003,6.305328e+000
1.980443e+003,6.108215e+000
1.981407e+003,6.315262e+000
1.982371e+003,7.307831e+000
1.983335e+003,8.138672e+000
1.984300e+003,8.016998e+000
1.985264e+003,7.311142e+000
1.986228e+003,6.662170e+000
1.987192e+003,5.996201e+000
1.988157e+003,4.865295e+000
1.989121e+003,2.972992e+000
1.990085e+003,2.481262e+000
1.991049e+003,4.474197e+000
1.992014e+003,5.804184e+000
1.992978e+003,5.081070e+000
1.993942e+003,4.912918e+000
1.994906e+003,7.293274e+000
1.995871e+003,9.417603e+000
1.996835e+003,8.646591e+000
1.997799e+003,6.736740e+000
1.998763e+003,6.436722e+000
1.999728e+003,7.432159e+000
