5.003444e+002,3.923978e+001
5.013087e+002,3.831192e+001
5.022729e+002,3.730704e+001
5.032371e+002,3.640771e+001
5.042014e+002,3.567816e+001
5.051656e+002,3.510889e+001
5.061298e+002,3.436229e+001
5.070941e+002,3.303191e+001
5.080583e+002,3.080016e+001
5.090225e+002,2.938673e+001
5.099868e+002,2.881581e+001
5.109510e+002,2.870036e+001
5.119152e+002,2.919110e+001
5.128795e+002,3.037152e+001
5.138437e+002,3.080716e+001
5.148079e+002,2.936212e+001
5.157722e+002,2.775500e+001
5.167364e+002,2.660754e+001
5.177006e+002,2.596283e+001
5.186649e+002,2.538281e+001
5.196291e+002,2.441209e+001
5.205933e+002,2.348845e+001
5.215576e+002,2.271193e+001
5.225218e+002,2.207539e+001
5.234860e+002,2.180687e+001
5.244503e+002,2.251985e+001
5.254145e+002,2.482980e+001
5.263787e+002,2.645505e+001
5.273430e+002,2.745325e+001
5.283072e+002,2.775507e+001
5.292714e+002,2.696240e+001
5.302357e+002,2.385153e+001
5.311999e+002,2.188290e+001
5.321641e+002,2.232239e+001
5.331284e+002,2.351595e+001
5.340926e+002,2.417128e+001
5.350568e+002,2.372765e+001
5.360211e+002,2.280305e+001
5.369853e+002,2.195116e+001
5.379495e+002,2.126265e+001
5.389138e+002,2.068805e+001
5.398780e+002,2.022241e+001
5.408422e+002,2.000516e+001
5.418065e+002,2.090964e+001
5.427707e+002,2.267218e+001
5.437349e+002,2.306497e+001
5.446992e+002,2.114178e+001
5.456634e+002,1.762570e+001
5.466276e+002,1.509814e+001
5.475919e+002,1.395239e+001
5.485561e+002,1.373738e+001
5.495203e+002,1.539900e+001
5.504846e+002,1.753305e+001
5.514488e+002,1.808209e+001
5.524130e+002,1.578891e+001
5.533773e+002,1.324387e+001
5.543415e+002,1.138373e+001
5.553057e+002,1.022908e+001
5.562700e+002,9.873184e+000
5.572342e+002,1.034734e+001
5.581984e+002,1.134761e+001
5.591627e+002,1.260893e+001
5.601269e+002,1.398221e+001
5.610911e+002,1.483229e+001
5.620554e+002,1.476576e+001
5.630196e+002,1.381723e+001
5.639838e+002,1.277681e+001
5.649481e+002,1.121031e+001
5.659123e+002,1.018668e+001
5.668765e+002,1.071800e+001
5.678408e+002,1.216205e+001
5.688050e+002,1.231706e+001
5.697692e+002,8.840500e+000
5.707335e+002,6.102417e+000
5.716977e+002,5.755920e+000
5.726619e+002,6.883377e+000
5.736262e+002,8.316299e+000
5.745904e+002,9.381317e+000
5.755546e+002,1.011810e+001
5.765189e+002,1.095770e+001
5.774831e+002,1.140254e+001
5.784473e+002,1.025546e+001
5.794116e+002,6.788208e+000
5.803758e+002,1.506165e+000
5.813400e+002,1.515350e-001
5.823043e+002,3.688477e+000
5.832685e+002,6.682343e+000
5.842327e+002,7.024918e+000
5.851970e+002,5.269302e+000
5.861612e+002,4.446869e+000
5.871254e+002,5.647049e+000
5.880897e+002,6.900253e+000
5.890539e+002,8.329422e+000
5.900181e+002,9.390381e+000
5.909824e+002,9.173569e+000
5.919466e+002,6.666519e+000
5.929108e+002,3.821976e+000
5.938751e+002,2.762543e+000
5.948393e+002,2.796677e+000
5.958035e+002,2.869965e+000
5.967678e+002,2.231750e+000
5.977320e+002,1.130417e+000
5.986962e+002,1.195923e+000
5.996605e+002,2.202484e+000
6.006247e+002,3.377808e+000
6.015889e+002,4.764755e+000
6.025532e+002,6.288269e+000
6.035174e+002,6.677811e+000
6.044816e+002,4.012833e+000
6.054459e+002,2.312622e+000
6.064101e+002,3.003586e+000
6.073743e+002,4.900497e+000
6.083386e+002,5.682999e+000
6.093028e+002,3.582901e+000
6.102670e+002,1.394745e+000
6.112313e+002,1.251129e+000
6.121955e+002,2.330765e+000
6.131597e+002,3.789246e+000
6.141240e+002,5.006744e+000
6.150882e+002,5.771423e+000
6.160524e+002,4.553299e+000
6.170167e+002,1.792206e+000
6.179809e+002,2.017975e-001
6.189451e+002,1.310669e+000
6.199094e+002,4.607162e+000
6.208736e+002,6.631561e+000
6.218378e+002,6.633026e+000
6.228021e+002,6.347244e+000
6.237663e+002,5.638580e+000
6.247305e+002,4.841599e+000
6.256948e+002,4.505371e+000
6.266590e+002,5.078369e+000
6.276232e+002,5.196304e+000
6.285875e+002,3.764481e+000
6.295517e+002,1.908295e+000
6.305159e+002,8.919067e-001
6.314802e+002,1.318695e+000
6.324444e+002,2.368225e+000
6.334086e+002,1.569351e+000
6.343729e+002,-3.089905e-001
6.353371e+002,-1.330917e+000
6.363013e+002,-6.954803e-001
6.372656e+002,9.874725e-001
6.382298e+002,1.641479e+000
6.391940e+002,1.570435e-001
6.401583e+002,-1.123047e+000
6.411225e+002,-2.108124e+000
6.420867e+002,-2.636261e+000
6.430510e+002,-2.492081e+000
6.440152e+002,-1.492203e+000
6.449794e+002,-7.206573e-001
6.459437e+002,-9.053955e-001
6.469079e+002,-1.366760e+000
6.478721e+002,-1.354691e+000
6.488364e+002,-6.887207e-001
6.498006e+002,-1.123199e-001
6.507648e+002,-1.750931e+000
6.517291e+002,-4.473221e+000
6.526933e+002,-4.997269e+000
6.536575e+002,-2.597961e+000
6.546218e+002,1.049591e+000
6.555860e+002,2.717056e+000
6.565502e+002,1.160065e+000
6.575145e+002,-7.629395e-005
6.584787e+002,-2.946320e-001
6.594429e+002,-5.928802e-001
6.604072e+002,-1.879379e+000
6.613714e+002,-4.462234e+000
6.623356e+002,-6.193146e+000
6.632999e+002,-5.389709e+000
6.642641e+002,-4.236618e+000
6.652283e+002,-3.783722e+000
6.661926e+002,-4.016266e+000
6.671568e+002,-4.140015e+000
6.681210e+002,-3.141266e+000
6.690853e+002,-1.602341e+000
6.700495e+002,-1.028885e+000
6.710137e+002,-1.382462e+000
6.719780e+002,-1.786774e+000
6.729422e+002,-1.250458e+000
6.739064e+002,5.222778e-001
6.748707e+002,1.067307e+000
6.758349e+002,-5.853271e-002
6.767991e+002,-1.540359e+000
6.777634e+002,-3.012863e+000
6.787276e+002,-4.299347e+000
6.796918e+002,-4.952637e+000
6.806561e+002,-4.602890e+000
6.816203e+002,-3.977509e+000
6.825845e+002,-3.184357e+000
6.835488e+002,-2.342896e+000
6.845130e+002,-1.474472e+000
6.854772e+002,-5.164032e-001
6.864415e+002,2.573547e-001
6.874057e+002,-3.345490e-001
6.883699e+002,-1.878036e+000
6.893342e+002,-2.728348e+000
6.902984e+002,-1.798798e+000
6.912626e+002,4.431000e-001
6.922269e+002,4.587860e-001
6.931911e+002,-4.594894e+000
6.941553e+002,-7.601624e+000
6.951196e+002,-7.188400e+000
6.960838e+002,-4.945145e+000
6.970480e+002,-3.311935e+000
6.980123e+002,-3.062317e+000
6.989765e+002,-2.501129e+000
6.999407e+002,-3.164063e-001
7.009050e+002,1.952179e+000
7.018692e+002,3.102554e+000
7.028334e+002,2.705368e+000
7.037977e+002,1.199066e+000
7.047619e+002,-1.501083e+000
7.057261e+002,-4.327454e+000
7.066904e+002,-4.993530e+000
7.076546e+002,-3.132782e+000
7.086188e+002,-8.216858e-002
7.095831e+002,2.100113e+000
7.105473e+002,3.221588e+000
7.115115e+002,3.590057e+000
7.124758e+002,2.732178e+000
7.134400e+002,1.677765e+000
7.144042e+002,1.198441e+000
7.153685e+002,1.350296e+000
7.163327e+002,1.216721e+000
7.172969e+002,-2.397614e-001
7.182612e+002,-1.455917e+000
7.192254e+002,-1.862122e+000
7.201896e+002,-1.565826e+000
7.211539e+002,-6.888428e-001
7.221181e+002,8.477478e-001
7.230823e+002,2.280762e+000
7.240466e+002,9.591827e-001
7.250108e+002,-2.239456e+000
7.259750e+002,-3.900681e+000
7.269393e+002,-1.812408e+000
7.279035e+002,3.193680e+000
7.288677e+002,5.280380e+000
7.298320e+002,1.489716e+000
7.307962e+002,-1.117828e+000
7.317604e+002,-1.916763e+000
7.327247e+002,-1.328583e+000
7.336889e+002,3.786469e-001
7.346531e+002,3.614594e+000
7.356174e+002,5.433548e+000
7.365816e+002,3.595551e+000
7.375458e+002,8.858643e-001
7.385101e+002,-6.617432e-001
7.394743e+002,-5.252380e-001
7.404385e+002,3.535309e-001
7.414028e+002,6.542664e-001
7.423670e+002,1.129761e-001
7.433312e+002,-1.178848e+000
7.442955e+002,-3.154465e+000
7.452597e+002,-4.586624e+000
7.462239e+002,-3.827515e+000
7.471882e+002,6.509399e-002
7.481524e+002,1.664505e+000
7.491166e+002,-1.456741e+000
7.500809e+002,-4.058472e+000
7.510451e+002,-3.786743e+000
7.520093e+002,-1.246155e+000
7.529736e+002,9.936523e-001
7.539378e+002,1.861816e+000
7.549020e+002,2.267044e+000
7.558663e+002,2.784012e+000
7.568306e+002,3.277222e+000
7.577948e+002,3.364792e+000
7.587590e+002,2.816681e+000
7.597233e+002,1.937332e+000
7.606875e+002,2.127350e+000
7.616517e+002,3.322861e+000
7.626160e+002,4.108398e+000
7.635802e+002,4.072433e+000
7.645444e+002,3.555634e+000
7.655087e+002,3.216049e+000
7.664729e+002,3.095520e+000
7.674371e+002,2.985443e+000
7.684014e+002,2.814346e+000
7.693656e+002,2.666870e+000
7.703298e+002,2.566345e+000
7.712941e+002,2.555283e+000
7.722583e+002,2.794922e+000
7.732225e+002,3.888290e+000
7.741868e+002,4.767227e+000
7.751510e+002,4.428192e+000
7.761152e+002,3.159973e+000
7.770795e+002,1.592987e+000
7.780437e+002,2.518005e-001
7.790079e+002,-7.920380e-001
7.799722e+002,-1.064606e-001
7.809364e+002,2.539063e+000
7.819006e+002,4.401443e+000
7.828649e+002,3.698273e+000
7.838291e+002,1.517899e+000
7.847933e+002,1.566772e+000
7.857576e+002,6.208008e+000
7.867218e+002,8.744339e+000
7.876860e+002,7.023911e+000
7.886503e+002,4.034363e+000
7.896145e+002,2.014069e+000
7.905787e+002,1.627701e+000
7.915430e+002,2.164124e+000
7.925072e+002,3.635635e+000
7.934714e+002,4.899399e+000
7.944357e+002,4.330292e+000
7.953999e+002,2.269455e+000
7.963641e+002,5.426941e-001
7.973284e+002,1.200867e+000
7.982926e+002,4.438736e+000
7.992568e+002,6.482422e+000
8.002211e+002,7.290207e+000
8.011853e+002,6.901276e+000
8.021495e+002,4.988358e+000
8.031138e+002,2.187653e+000
8.040780e+002,1.194305e-001
8.050422e+002,-1.144882e+000
8.060065e+002,-1.547363e+000
8.069707e+002,-4.994659e-001
8.079349e+002,7.720795e-001
8.088992e+002,8.718872e-001
8.098634e+002,-5.069885e-001
8.108276e+002,-1.897125e+000
8.117919e+002,-9.431915e-001
8.127561e+002,1.129333e+000
8.137203e+002,2.199142e+000
8.146846e+002,2.170975e+000
8.156488e+002,1.959396e+000
8.166130e+002,2.692078e+000
8.175773e+002,4.723221e+000
8.185415e+002,5.263443e+000
8.195057e+002,2.635849e+000
8.204700e+002,6.110077e-001
8.214342e+002,9.691772e-001
8.223984e+002,2.898392e+000
8.233627e+002,4.174988e+000
8.243269e+002,4.045395e+000
8.252911e+002,3.199371e+000
8.262554e+002,1.003143e+000
8.272196e+002,-9.656982e-001
8.281838e+002,-4.658813e-001
8.291481e+002,2.915894e+000
8.301123e+002,6.923264e+000
8.310765e+002,7.343109e+000
8.320408e+002,4.421799e+000
8.330050e+002,2.979202e+000
8.339692e+002,3.593338e+000
8.349335e+002,4.761642e+000
8.358977e+002,4.974487e+000
8.368619e+002,4.136520e+000
8.378262e+002,3.629532e+000
8.387904e+002,3.458725e+000
8.397546e+002,3.452393e+000
8.407189e+002,3.672119e+000
8.416831e+002,4.032761e+000
8.426473e+002,4.447128e+000
8.436116e+002,4.931534e+000
8.445758e+002,5.316666e+000
8.455400e+002,4.886627e+000
8.465043e+002,4.239151e+000
8.474685e+002,4.505203e+000
8.484327e+002,5.946716e+000
8.493970e+002,7.653381e+000
8.503612e+002,7.890121e+000
8.513254e+002,6.243637e+000
8.522897e+002,5.606110e+000
8.532539e+002,6.563583e+000
8.542181e+002,7.462952e+000
8.551824e+002,7.199341e+000
8.561466e+002,6.102921e+000
8.571108e+002,5.945923e+000
8.580751e+002,7.911362e+000
8.590393e+002,9.066986e+000
8.600035e+002,7.462250e+000
8.609678e+002,5.336533e+000
8.619320e+002,5.598129e+000
8.628962e+002,9.235535e+000
8.638605e+002,1.373349e+001
8.648247e+002,1.540884e+001
8.657889e+002,1.496500e+001
8.667532e+002,1.341110e+001
8.677174e+002,1.088913e+001
8.686816e+002,8.831100e+000
8.696459e+002,9.047058e+000
8.706101e+002,1.197356e+001
8.715743e+002,1.446223e+001
8.725386e+002,1.644228e+001
8.735028e+002,1.816684e+001
8.744670e+002,1.978030e+001
8.754313e+002,2.097055e+001
8.763955e+002,2.119281e+001
8.773597e+002,2.013110e+001
8.783240e+002,1.881529e+001
8.792882e+002,1.792451e+001
8.802524e+002,1.708438e+001
8.812167e+002,1.574384e+001
8.821809e+002,1.399837e+001
8.831451e+002,1.259483e+001
8.841094e+002,1.252258e+001
8.850736e+002,1.391566e+001
8.860378e+002,1.616873e+001
8.870021e+002,1.958539e+001
8.879663e+002,2.244775e+001
8.889305e+002,2.349896e+001
8.898948e+002,2.303926e+001
8.908590e+002,2.280084e+001
8.918232e+002,2.308194e+001
8.927875e+002,2.352856e+001
8.937517e+002,2.403304e+001
8.947159e+002,2.467499e+001
8.956802e+002,2.573492e+001
8.966444e+002,2.703043e+001
8.976086e+002,2.758887e+001
8.985729e+002,2.603578e+001
8.995371e+002,2.378409e+001
9.005013e+002,2.301265e+001
9.014656e+002,2.369487e+001
9.024298e+002,2.512515e+001
9.033940e+002,2.676230e+001
9.043583e+002,2.844699e+001
9.053225e+002,2.976991e+001
9.062867e+002,3.109625e+001
9.072510e+002,3.121843e+001
9.082152e+002,2.882721e+001
9.091794e+002,2.636665e+001
9.101437e+002,2.684224e+001
9.111079e+002,3.075583e+001
9.120721e+002,3.370219e+001
9.130364e+002,3.180864e+001
9.140006e+002,2.896123e+001
9.149648e+002,2.732843e+001
9.159291e+002,2.675500e+001
9.168933e+002,2.612222e+001
9.178575e+002,2.460463e+001
9.188218e+002,2.271851e+001
9.197860e+002,2.270316e+001
9.207502e+002,2.452904e+001
9.217145e+002,2.607893e+001
9.226787e+002,2.700153e+001
9.236429e+002,2.776736e+001
9.246072e+002,2.921454e+001
9.255714e+002,3.171983e+001
9.265356e+002,3.233855e+001
9.274999e+002,2.882227e+001
9.284641e+002,2.517455e+001
9.294283e+002,2.225435e+001
9.303926e+002,2.040456e+001
9.313568e+002,2.006483e+001
9.323210e+002,2.154395e+001
9.332853e+002,2.351860e+001
9.342495e+002,2.391414e+001
9.352137e+002,2.331065e+001
9.361780e+002,2.230557e+001
9.371422e+002,2.115999e+001
9.381064e+002,2.042059e+001
9.390707e+002,2.080676e+001
9.400349e+002,2.247369e+001
9.409991e+002,2.324080e+001
9.419634e+002,2.243170e+001
9.429276e+002,2.165761e+001
9.438918e+002,2.136481e+001
9.448561e+002,2.141156e+001
9.458203e+002,2.162321e+001
9.467845e+002,2.207755e+001
9.477488e+002,2.228337e+001
9.487130e+002,2.145116e+001
9.496772e+002,2.045911e+001
9.506415e+002,2.004016e+001
9.516057e+002,2.018762e+001
9.525699e+002,2.039206e+001
9.535342e+002,2.012611e+001
9.544984e+002,1.945363e+001
9.554626e+002,1.951450e+001
9.564269e+002,2.073181e+001
9.573911e+002,2.152336e+001
9.583553e+002,2.077898e+001
9.593196e+002,1.958409e+001
9.602838e+002,2.016614e+001
9.612480e+002,2.336702e+001
9.622123e+002,2.486774e+001
9.631765e+002,2.157050e+001
9.641407e+002,1.828510e+001
9.651050e+002,1.731458e+001
9.660692e+002,1.807120e+001
9.670334e+002,1.889862e+001
9.679977e+002,1.884673e+001
9.689619e+002,1.844397e+001
9.699261e+002,1.837766e+001
9.708904e+002,1.855748e+001
9.718546e+002,1.931172e+001
9.728188e+002,2.078838e+001
9.737831e+002,2.230490e+001
9.747473e+002,2.290495e+001
9.757115e+002,2.238028e+001
9.766758e+002,2.231624e+001
9.776400e+002,2.298811e+001
9.786042e+002,2.400462e+001
9.795685e+002,2.579395e+001
9.805327e+002,2.747844e+001
9.814969e+002,2.783122e+001
9.824612e+002,2.651596e+001
9.834254e+002,2.504654e+001
9.843896e+002,2.525029e+001
9.853539e+002,2.561925e+001
9.863181e+002,2.423618e+001
9.872823e+002,2.121953e+001
9.882466e+002,1.801195e+001
9.892108e+002,1.593533e+001
9.901750e+002,1.513635e+001
9.911393e+002,1.551031e+001
9.921035e+002,1.806151e+001
9.930677e+002,1.941867e+001
9.940320e+002,1.880595e+001
9.949962e+002,1.771141e+001
9.959604e+002,1.744000e+001
9.969247e+002,1.810629e+001
9.978889e+002,1.899182e+001
9.988531e+002,1.949556e+001
9.998174e+002,2.013065e+001
1.000782e+003,2.155949e+001
1.001746e+003,2.339450e+001
1.002710e+003,2.512503e+001
1.003674e+003,2.644678e+001
1.004639e+003,2.719493e+001
1.005603e+003,2.696938e+001
1.006567e+003,2.561189e+001
1.007531e+003,2.559155e+001
1.008495e+003,2.809087e+001
1.009460e+003,2.961481e+001
1.010424e+003,2.678331e+001
1.011388e+003,2.111832e+001
1.012352e+003,1.919875e+001
1.013317e+003,2.448874e+001
1.014281e+003,2.783324e+001
1.015245e+003,2.505617e+001
1.016209e+003,2.080188e+001
1.017174e+003,1.829970e+001
1.018138e+003,1.785446e+001
1.019102e+003,1.796814e+001
1.020066e+003,1.755669e+001
1.021031e+003,1.659337e+001
1.021995e+003,1.433066e+001
1.022959e+003,1.096132e+001
1.023923e+003,8.172440e+000
1.024887e+003,6.497467e+000
1.025852e+003,5.617218e+000
1.026816e+003,5.187057e+000
1.027780e+003,5.428696e+000
1.028744e+003,5.537857e+000
1.029709e+003,5.405197e+000
1.030673e+003,5.139908e+000
1.031637e+003,4.790375e+000
1.032601e+003,4.239655e+000
1.033566e+003,3.125809e+000
1.034530e+003,1.399628e+000
1.035494e+003,1.232147e-001
1.036458e+003,7.294312e-001
1.037422e+003,2.326645e+000
1.038387e+003,3.610397e+000
1.039351e+003,4.447418e+000
1.040315e+003,4.753601e+000
1.041279e+003,4.441681e+000
1.042244e+003,3.720413e+000
1.043208e+003,3.403580e+000
1.044172e+003,3.889359e+000
1.045136e+003,3.827118e+000
1.046101e+003,2.714661e+000
1.047065e+003,1.673904e+000
1.048029e+003,1.743103e+000
1.048993e+003,2.522858e+000
1.049958e+003,2.303986e+000
1.050922e+003,-1.837616e-001
1.051886e+003,-2.435272e+000
1.052850e+003,-1.198822e+000
1.053814e+003,1.403320e+000
1.054779e+003,2.448959e+000
1.055743e+003,1.415710e+000
1.056707e+003,8.815002e-002
1.057671e+003,6.786346e-001
1.058636e+003,3.179108e+000
1.059600e+003,4.411636e+000
1.060564e+003,2.857895e+000
1.061528e+003,2.613724e+000
1.062493e+003,5.464798e+000
1.063457e+003,8.825668e+000
1.064421e+003,9.786636e+000
1.065385e+003,8.099670e+000
1.066349e+003,6.048691e+000
1.067314e+003,4.410934e+000
1.068278e+003,3.216370e+000
1.069242e+003,2.745895e+000
1.070206e+003,2.652634e+000
1.071171e+003,2.098984e+000
1.072135e+003,8.243561e-001
1.073099e+003,-2.178040e-001
1.074063e+003,7.564392e-001
1.075028e+003,4.062561e+000
1.075992e+003,6.110199e+000
1.076956e+003,6.763367e+000
1.077920e+003,6.526733e+000
1.078885e+003,5.002579e+000
1.079849e+003,3.079636e+000
1.080813e+003,2.472382e+000
1.081777e+003,3.673004e+000
1.082741e+003,4.821579e+000
1.083706e+003,5.091568e+000
1.084670e+003,4.683685e+000
1.085634e+003,3.090057e+000
1.086598e+003,9.891968e-001
1.087563e+003,-2.487183e-001
1.088527e+003,1.209412e-001
1.089491e+003,1.181793e+000
1.090455e+003,8.135986e-001
1.091420e+003,-1.284470e+000
1.092384e+003,-1.528824e+000
1.093348e+003,1.019989e+000
1.094312e+003,3.485443e+000
1.095276e+003,4.395981e+000
1.096241e+003,4.085526e+000
1.097205e+003,3.163971e+000
1.098169e+003,1.235596e+000
1.099133e+003,-2.402039e-001
1.100098e+003,-5.308838e-001
1.101062e+003,-3.157959e-001
1.102026e+003,3.025818e-001
1.102990e+003,1.056183e+000
1.103955e+003,1.425125e+000
1.104919e+003,1.087067e+000
1.105883e+003,5.022278e-001
1.106847e+003,8.004761e-001
1.107812e+003,1.979050e+000
1.108776e+003,2.773666e+000
1.109740e+003,3.261826e+000
1.110704e+003,3.103333e+000
1.111668e+003,1.350403e+000
1.112633e+003,-1.249573e+000
1.113597e+003,-1.417847e+000
1.114561e+003,2.361282e+000
1.115525e+003,5.500809e+000
1.116490e+003,6.299774e+000
1.117454e+003,6.333557e+000
1.118418e+003,6.618225e+000
1.119382e+003,7.169434e+000
1.120347e+003,7.433960e+000
1.121311e+003,6.976776e+000
1.122275e+003,5.933624e+000
1.123239e+003,4.699249e+000
1.124203e+003,3.522888e+000
1.125168e+003,3.232590e+000
1.126132e+003,3.908752e+000
1.127096e+003,5.539291e+000
1.128060e+003,9.022034e+000
1.129025e+003,1.356557e+001
1.129989e+003,1.514034e+001
1.130953e+003,1.150633e+001
1.131917e+003,9.314224e+000
1.132882e+003,1.131088e+001
1.133846e+003,1.421072e+001
1.134810e+003,1.650354e+001
1.135774e+003,1.795720e+001
1.136739e+003,1.851138e+001
1.137703e+003,1.816333e+001
1.138667e+003,1.785545e+001
1.139631e+003,1.957948e+001
1.140595e+003,2.300003e+001
1.141560e+003,2.490440e+001
1.142524e+003,2.453770e+001
1.143488e+003,2.521056e+001
1.144452e+003,3.000258e+001
1.145417e+003,3.761168e+001
1.146381e+003,4.281369e+001
1.147345e+003,4.365706e+001
1.148309e+003,4.698907e+001
1.149274e+003,5.629044e+001
1.150238e+003,6.655411e+001
1.151202e+003,7.642755e+001
1.152166e+003,8.517258e+001
1.153130e+003,9.194473e+001
1.154095e+003,9.630722e+001
1.155059e+003,9.890662e+001
1.156023e+003,1.010890e+002
1.156987e+003,1.024545e+002
1.157952e+003,1.004901e+002
1.158916e+003,9.496120e+001
1.159880e+003,8.894652e+001
1.160844e+003,8.369150e+001
1.161809e+003,7.871671e+001
1.162773e+003,7.340982e+001
1.163737e+003,6.780139e+001
1.164701e+003,6.174429e+001
1.165666e+003,5.417087e+001
1.166630e+003,4.741174e+001
1.167594e+003,4.273140e+001
1.168558e+003,3.918266e+001
1.169522e+003,3.526331e+001
1.170487e+003,3.064641e+001
1.171451e+003,2.668321e+001
1.172415e+003,2.497173e+001
1.173379e+003,2.502385e+001
1.174344e+003,2.429022e+001
1.175308e+003,2.276285e+001
1.176272e+003,2.152042e+001
1.177236e+003,2.083084e+001
1.178201e+003,2.072749e+001
1.179165e+003,2.142879e+001
1.180129e+003,2.287137e+001
1.181093e+003,2.372244e+001
1.182057e+003,2.372174e+001
1.183022e+003,2.314293e+001
1.183986e+003,2.176987e+001
1.184950e+003,2.019890e+001
1.185914e+003,1.874907e+001
1.186879e+003,1.769569e+001
1.187843e+003,1.760872e+001
1.188807e+003,1.895653e+001
1.189771e+003,2.093774e+001
1.190736e+003,2.106619e+001
1.191700e+003,1.905099e+001
1.192664e+003,1.813326e+001
1.193628e+003,1.939232e+001
1.194593e+003,2.089220e+001
1.195557e+003,2.150261e+001
1.196521e+003,2.121667e+001
1.197485e+003,1.989000e+001
1.198449e+003,1.715411e+001
1.199414e+003,1.454739e+001
1.200378e+003,1.243340e+001
1.201342e+003,1.098961e+001
1.202306e+003,1.033812e+001
1.203271e+003,1.042085e+001
1.204235e+003,1.160477e+001
1.205199e+003,1.386810e+001
1.206163e+003,1.576689e+001
1.207128e+003,1.469289e+001
1.208092e+003,1.044792e+001
1.209056e+003,7.710159e+000
1.210020e+003,7.066223e+000
1.210984e+003,6.466476e+000
1.211949e+003,5.167847e+000
1.212913e+003,3.649078e+000
1.213877e+003,2.778656e+000
1.214841e+003,2.596191e+000
1.215806e+003,1.681458e+000
1.216770e+003,-1.353027e+000
1.217734e+003,-3.946121e+000
1.218698e+003,-3.212265e+000
1.219663e+003,-1.820602e+000
1.220627e+003,-3.928070e+000
1.221591e+003,-9.488083e+000
1.222555e+003,-1.416025e+001
1.223520e+003,-1.382996e+001
1.224484e+003,-9.725632e+000
1.225448e+003,-7.974258e+000
1.226412e+003,-1.005141e+001
1.227376e+003,-1.140479e+001
1.228341e+003,-1.178374e+001
1.229305e+003,-1.182782e+001
1.230269e+003,-1.181458e+001
1.231233e+003,-1.174156e+001
1.232198e+003,-1.154605e+001
1.233162e+003,-1.117072e+001
1.234126e+003,-1.049036e+001
1.235090e+003,-9.099594e+000
1.236055e+003,-7.822662e+000
1.237019e+003,-7.731094e+000
1.237983e+003,-8.465805e+000
1.238947e+003,-8.734497e+000
1.239911e+003,-7.964981e+000
1.240876e+003,-7.435303e+000
1.241840e+003,-9.472763e+000
1.242804e+003,-1.437431e+001
1.243768e+003,-1.628522e+001
1.244733e+003,-1.137640e+001
1.245697e+003,-8.478455e+000
1.246661e+003,-1.009520e+001
1.247625e+003,-1.245363e+001
1.248590e+003,-1.263234e+001
1.249554e+003,-1.086755e+001
1.250518e+003,-8.920593e+000
1.251482e+003,-7.587372e+000
1.252447e+003,-6.837479e+000
1.253411e+003,-6.781219e+000
1.254375e+003,-7.075790e+000
1.255339e+003,-7.045547e+000
1.256303e+003,-6.631027e+000
1.257268e+003,-6.252502e+000
1.258232e+003,-6.287277e+000
1.259196e+003,-6.556137e+000
1.260160e+003,-6.450546e+000
1.261125e+003,-5.756500e+000
1.262089e+003,-5.435806e+000
1.263053e+003,-6.132446e+000
1.264017e+003,-6.744873e+000
1.264982e+003,-7.113144e+000
1.265946e+003,-7.139908e+000
1.266910e+003,-6.743393e+000
1.267874e+003,-5.939056e+000
1.268839e+003,-4.571854e+000
1.269803e+003,-2.511429e+000
1.270767e+003,-6.127472e-001
1.271731e+003,-7.569427e-001
1.272695e+003,-2.841934e+000
1.273660e+003,-4.090790e+000
1.274624e+003,-4.260559e+000
1.275588e+003,-4.509048e+000
1.276552e+003,-5.550873e+000
1.277517e+003,-6.855835e+000
1.278481e+003,-7.453934e+000
1.279445e+003,-7.265274e+000
1.280409e+003,-7.278458e+000
1.281374e+003,-7.912033e+000
1.282338e+003,-8.647919e+000
1.283302e+003,-9.564758e+000
1.284266e+003,-1.024611e+001
1.285230e+003,-9.891342e+000
1.286195e+003,-8.709625e+000
1.287159e+003,-7.988052e+000
1.288123e+003,-8.750809e+000
1.289087e+003,-1.027473e+001
1.290052e+003,-1.048035e+001
1.291016e+003,-8.752869e+000
1.291980e+003,-8.258331e+000
1.292944e+003,-1.025494e+001
1.293909e+003,-1.192116e+001
1.294873e+003,-1.184317e+001
1.295837e+003,-1.084694e+001
1.296801e+003,-1.016267e+001
1.297766e+003,-9.930908e+000
1.298730e+003,-9.314468e+000
1.299694e+003,-7.553314e+000
1.300658e+003,-6.020309e+000
1.301622e+003,-6.615417e+000
1.302587e+003,-8.180527e+000
1.303551e+003,-8.854767e+000
1.304515e+003,-8.335709e+000
1.305479e+003,-7.769424e+000
1.306444e+003,-8.268143e+000
1.307408e+003,-9.286560e+000
1.308372e+003,-8.531311e+000
1.309336e+003,-4.829605e+000
1.310301e+003,-3.045242e+000
1.311265e+003,-4.899643e+000
1.312229e+003,-6.698318e+000
1.313193e+003,-7.585693e+000
1.314157e+003,-7.801743e+000
1.315122e+003,-7.227859e+000
1.316086e+003,-6.287384e+000
1.317050e+003,-6.178452e+000
1.318014e+003,-7.670807e+000
1.318979e+003,-1.017033e+001
1.319943e+003,-1.332080e+001
1.320907e+003,-1.668591e+001
1.321871e+003,-1.717494e+001
1.322836e+003,-1.416586e+001
1.323800e+003,-1.053249e+001
1.324764e+003,-6.942261e+000
1.325728e+003,-4.061691e+000
1.326693e+003,-3.405777e+000
1.327657e+003,-5.102966e+000
1.328621e+003,-6.851761e+000
1.329585e+003,-8.197205e+000
1.330549e+003,-8.676025e+000
1.331514e+003,-7.883041e+000
1.332478e+003,-6.822525e+000
1.333442e+003,-6.197479e+000
1.334406e+003,-6.113953e+000
1.335371e+003,-6.720886e+000
1.336335e+003,-8.051941e+000
1.337299e+003,-9.244293e+000
1.338263e+003,-8.541107e+000
1.339228e+003,-5.521912e+000
1.340192e+003,-4.570053e+000
1.341156e+003,-7.550476e+000
1.342120e+003,-9.711609e+000
1.343084e+003,-1.020398e+001
1.344049e+003,-9.981857e+000
1.345013e+003,-9.462112e+000
1.345977e+003,-8.797653e+000
1.346941e+003,-8.307800e+000
1.347906e+003,-8.120483e+000
1.348870e+003,-8.022247e+000
1.349834e+003,-7.894241e+000
1.350798e+003,-7.742538e+000
1.351763e+003,-7.464371e+000
1.352727e+003,-7.058136e+000
1.353691e+003,-6.655716e+000
1.354655e+003,-6.276276e+000
1.355620e+003,-5.963516e+000
1.356584e+003,-5.644028e+000
1.357548e+003,-5.340286e+000
1.358512e+003,-5.721832e+000
1.359476e+003,-7.527420e+000
1.360441e+003,-8.480072e+000
1.361405e+003,-6.677063e+000
1.362369e+003,-5.232300e+000
1.363333e+003,-6.045990e+000
1.364298e+003,-7.994629e+000
1.365262e+003,-9.561234e+000
1.366226e+003,-1.024042e+001
1.367190e+003,-1.024251e+001
1.368155e+003,-9.747238e+000
1.369119e+003,-8.847275e+000
1.370083e+003,-7.776031e+000
1.371047e+003,-6.311752e+000
1.372011e+003,-5.490021e+000
1.372976e+003,-6.154739e+000
1.373940e+003,-6.535355e+000
1.374904e+003,-5.401886e+000
1.375868e+003,-3.918488e+000
1.376833e+003,-3.826004e+000
1.377797e+003,-5.080933e+000
1.378761e+003,-5.968079e+000
1.379725e+003,-5.643936e+000
1.380690e+003,-5.051468e+000
1.381654e+003,-5.152328e+000
1.382618e+003,-5.552750e+000
1.383582e+003,-5.875275e+000
1.384547e+003,-6.038025e+000
1.385511e+003,-5.712143e+000
1.386475e+003,-4.630844e+000
1.387439e+003,-3.499695e+000
1.388403e+003,-3.480011e+000
1.389368e+003,-4.578354e+000
1.390332e+003,-5.472534e+000
1.391296e+003,-6.036957e+000
1.392260e+003,-6.437500e+000
1.393225e+003,-6.830414e+000
1.394189e+003,-7.022461e+000
1.395153e+003,-6.948273e+000
1.396117e+003,-6.570908e+000
1.397082e+003,-5.661819e+000
1.398046e+003,-4.289017e+000
1.399010e+003,-2.934509e+000
1.399974e+003,-2.079483e+000
1.400938e+003,-2.010864e+000
1.401903e+003,-3.487473e+000
1.402867e+003,-7.019760e+000
1.403831e+003,-8.405273e+000
1.404795e+003,-6.589508e+000
1.405760e+003,-4.425903e+000
1.406724e+003,-2.354980e+000
1.407688e+003,-1.143692e+000
1.408652e+003,-1.910889e+000
1.409617e+003,-4.219070e+000
1.410581e+003,-6.191650e+000
1.411545e+003,-7.150421e+000
1.412509e+003,-7.300629e+000
1.413474e+003,-6.349243e+000
1.414438e+003,-5.165985e+000
1.415402e+003,-5.205841e+000
1.416366e+003,-6.186050e+000
1.417330e+003,-6.670090e+000
1.418295e+003,-5.994263e+000
1.419259e+003,-5.036896e+000
1.420223e+003,-5.070206e+000
1.421187e+003,-5.897034e+000
1.422152e+003,-5.714371e+000
1.423116e+003,-3.891022e+000
1.424080e+003,-2.650757e+000
1.425044e+003,-3.317093e+000
1.426009e+003,-4.127197e+000
1.426973e+003,-4.759155e+000
1.427937e+003,-4.902252e+000
1.428901e+003,-3.793640e+000
1.429865e+003,-1.731445e+000
1.430830e+003,-3.570557e-002
1.431794e+003,3.683929e-001
1.432758e+003,-3.617859e-001
1.433722e+003,-1.903976e+000
1.434687e+003,-4.284805e+000
1.435651e+003,-5.266022e+000
1.436615e+003,-4.691055e+000
1.437579e+003,-3.623123e+000
1.438544e+003,-9.508972e-001
1.439508e+003,1.058731e+000
1.440472e+003,2.639771e-001
1.441436e+003,-1.947113e+000
1.442401e+003,-2.907196e+000
1.443365e+003,-2.039932e+000
1.444329e+003,-6.776581e-001
1.445293e+003,3.404999e-001
1.446257e+003,1.024307e+000
1.447222e+003,1.125320e+000
1.448186e+003,7.830658e-001
1.449150e+003,9.904175e-001
1.450114e+003,2.090424e+000
1.451079e+003,2.544479e+000
1.452043e+003,1.041519e+000
1.453007e+003,-1.038239e+000
1.453971e+003,-1.655457e+000
1.454936e+003,-1.069748e+000
1.455900e+003,-1.328552e+000
1.456864e+003,-3.230591e+000
1.457828e+003,-4.475800e+000
1.458792e+003,-3.028656e+000
1.459757e+003,-1.131577e+000
1.460721e+003,-7.141724e-001
1.461685e+003,-1.230484e+000
1.462649e+003,-1.394714e+000
1.463614e+003,-8.324280e-001
1.464578e+003,-4.075623e-002
1.465542e+003,5.216370e-001
1.466506e+003,8.893280e-001
1.467471e+003,1.428345e+000
1.468435e+003,2.508972e+000
1.469399e+003,2.464584e+000
1.470363e+003,-5.260620e-001
1.471328e+003,-2.403671e+000
1.472292e+003,-1.491180e+000
1.473256e+003,-1.454926e-001
1.474220e+003,-7.809448e-002
1.475184e+003,-7.029572e-001
1.476149e+003,-5.604248e-001
1.477113e+003,6.653442e-001
1.478077e+003,1.917770e+000
1.479041e+003,2.254059e+000
1.480006e+003,1.921417e+000
1.480970e+003,1.446411e+000
1.481934e+003,4.188843e-001
1.482898e+003,6.592865e-001
1.483863e+003,3.891754e+000
1.484827e+003,5.780457e+000
1.485791e+003,3.880753e+000
1.486755e+003,1.464478e+000
1.487719e+003,1.188065e+000
1.488684e+003,2.922638e+000
1.489648e+003,6.140350e+000
1.490612e+003,1.061191e+001
1.491576e+003,1.430154e+001
1.492541e+003,1.543341e+001
1.493505e+003,1.482211e+001
1.494469e+003,1.389598e+001
1.495433e+003,1.263237e+001
1.496398e+003,1.157545e+001
1.497362e+003,1.084483e+001
1.498326e+003,1.071883e+001
1.499290e+003,1.084398e+001
1.500255e+003,1.197440e+001
1.501219e+003,1.575491e+001
1.502183e+003,2.162776e+001
1.503147e+003,2.642853e+001
1.504111e+003,2.931021e+001
1.505076e+003,3.188203e+001
1.506040e+003,3.492996e+001
1.507004e+003,3.829318e+001
1.507968e+003,4.141742e+001
1.508933e+003,4.480324e+001
1.509897e+003,4.982021e+001
1.510861e+003,5.676544e+001
1.511825e+003,6.375049e+001
1.512790e+003,6.904865e+001
1.513754e+003,7.397821e+001
1.514718e+003,8.144057e+001
1.515682e+003,9.131328e+001
1.516646e+003,1.011454e+002
1.517611e+003,1.117298e+002
1.518575e+003,1.202159e+002
1.519539e+003,1.241707e+002
1.520503e+003,1.276396e+002
1.521468e+003,1.339733e+002
1.522432e+003,1.403807e+002
1.523396e+003,1.427057e+002
1.524360e+003,1.406599e+002
1.525325e+003,1.370216e+002
1.526289e+003,1.336671e+002
1.527253e+003,1.300627e+002
1.528217e+003,1.251713e+002
1.529182e+003,1.190762e+002
1.530146e+003,1.122585e+002
1.531110e+003,1.040631e+002
1.532074e+003,9.614603e+001
1.533039e+003,8.955527e+001
1.534003e+003,8.166321e+001
1.534967e+003,7.038303e+001
1.535931e+003,5.828304e+001
1.536896e+003,4.802348e+001
1.537860e+003,3.989551e+001
1.538824e+003,3.251697e+001
1.539788e+003,2.522383e+001
1.540752e+003,1.963841e+001
1.541717e+003,1.817923e+001
1.542681e+003,2.001756e+001
1.543645e+003,1.939571e+001
1.544609e+003,1.483839e+001
1.545573e+003,1.186627e+001
1.546538e+003,1.125090e+001
1.547502e+003,1.084407e+001
1.548466e+003,9.906570e+000
1.549430e+003,9.043427e+000
1.550395e+003,8.814163e+000
1.551359e+003,9.109787e+000
1.552323e+003,9.730347e+000
1.553287e+003,1.055727e+001
1.554252e+003,1.098024e+001
1.555216e+003,1.042252e+001
1.556180e+003,9.147568e+000
1.557144e+003,7.555359e+000
1.558109e+003,5.686050e+000
1.559073e+003,4.961823e+000
1.560037e+003,6.060699e+000
1.561001e+003,6.590363e+000
1.561966e+003,5.112885e+000
1.562930e+003,3.631790e+000
1.563894e+003,4.482620e+000
1.564858e+003,6.561096e+000
1.565823e+003,6.780151e+000
1.566787e+003,4.661163e+000
1.567751e+003,3.117233e+000
1.568715e+003,4.028915e+000
1.569679e+003,5.539612e+000
1.570644e+003,4.962494e+000
1.571608e+003,3.142868e+000
1.572572e+003,2.910065e+000
1.573536e+003,4.444885e+000
1.574500e+003,5.703415e+000
1.575465e+003,5.746643e+000
1.576429e+003,5.674255e+000
1.577393e+003,6.718658e+000
1.578357e+003,8.042007e+000
1.579322e+003,7.670975e+000
1.580286e+003,5.706802e+000
1.581250e+003,4.923218e+000
1.582214e+003,6.533463e+000
1.583179e+003,8.003586e+000
1.584143e+003,6.754044e+000
1.585107e+003,4.914536e+000
1.586071e+003,6.173325e+000
1.587036e+003,9.407883e+000
1.588000e+003,1.040868e+001
1.588964e+003,8.060059e+000
1.589928e+003,5.826797e+000
1.590893e+003,6.421432e+000
1.591857e+003,8.040421e+000
1.592821e+003,7.415863e+000
1.593785e+003,5.216629e+000
1.594750e+003,5.674255e+000
1.595714e+003,9.776779e+000
1.596678e+003,1.310979e+001
1.597642e+003,1.376096e+001
1.598606e+003,1.333932e+001
1.599571e+003,1.259085e+001
1.600535e+003,1.200261e+001
1.601499e+003,1.239041e+001
1.602463e+003,1.357341e+001
1.603427e+003,1.460802e+001
1.604392e+003,1.516902e+001
1.605356e+003,1.511682e+001
1.606320e+003,1.385588e+001
1.607284e+003,1.203114e+001
1.608249e+003,1.173239e+001
1.609213e+003,1.303494e+001
1.610177e+003,1.350311e+001
1.611141e+003,1.246823e+001
1.612106e+003,1.125867e+001
1.613070e+003,1.006329e+001
1.614034e+003,9.336792e+000
1.614998e+003,9.794067e+000
1.615963e+003,1.081509e+001
1.616927e+003,1.122520e+001
1.617891e+003,1.091127e+001
1.618855e+003,1.086731e+001
1.619820e+003,1.176068e+001
1.620784e+003,1.248135e+001
1.621748e+003,1.112495e+001
1.622712e+003,8.337677e+000
1.623677e+003,7.567184e+000
1.624641e+003,9.253204e+000
1.625605e+003,1.057652e+001
1.626569e+003,1.065453e+001
1.627533e+003,1.025859e+001
1.628498e+003,9.177231e+000
1.629462e+003,8.538010e+000
1.630426e+003,9.432098e+000
1.631390e+003,1.146101e+001
1.632354e+003,1.409492e+001
1.633319e+003,1.696361e+001
1.634283e+003,1.865625e+001
1.635247e+003,1.800444e+001
1.636211e+003,1.592059e+001
1.637176e+003,1.381023e+001
1.638140e+003,1.176543e+001
1.639104e+003,1.038589e+001
1.640068e+003,9.602905e+000
1.641033e+003,9.661514e+000
1.641997e+003,1.130145e+001
1.642961e+003,1.294756e+001
1.643925e+003,1.395444e+001
1.644890e+003,1.447758e+001
1.645854e+003,1.472325e+001
1.646818e+003,1.458540e+001
1.647782e+003,1.339362e+001
1.648747e+003,1.109306e+001
1.649711e+003,9.617477e+000
1.650675e+003,1.075752e+001
1.651639e+003,1.347749e+001
1.652604e+003,1.585983e+001
1.653568e+003,1.782692e+001
1.654532e+003,1.820009e+001
1.655496e+003,1.622104e+001
1.656460e+003,1.525333e+001
1.657425e+003,1.834372e+001
1.658389e+003,1.984819e+001
1.659353e+003,1.464424e+001
1.660317e+003,7.981506e+000
1.661281e+003,5.539963e+000
1.662246e+003,6.703659e+000
1.663210e+003,8.219101e+000
1.664174e+003,9.001465e+000
1.665138e+003,9.586121e+000
1.666103e+003,1.044453e+001
1.667067e+003,1.125523e+001
1.668031e+003,1.120918e+001
1.668995e+003,1.043266e+001
1.669960e+003,1.072626e+001
1.670924e+003,1.275124e+001
1.671888e+003,1.362364e+001
1.672852e+003,1.164238e+001
1.673817e+003,9.354568e+000
1.674781e+003,7.874832e+000
1.675745e+003,7.288803e+000
1.676709e+003,8.364151e+000
1.677674e+003,1.038864e+001
1.678638e+003,1.115297e+001
1.679602e+003,9.982285e+000
1.680566e+003,8.567688e+000
1.681531e+003,8.295166e+000
1.682495e+003,8.567566e+000
1.683459e+003,8.189392e+000
1.684423e+003,7.250458e+000
1.685387e+003,6.752365e+000
1.686352e+003,6.889755e+000
1.687316e+003,6.879120e+000
1.688280e+003,6.546188e+000
1.689244e+003,5.852249e+000
1.690208e+003,4.063629e+000
1.691173e+003,2.338898e+000
1.692137e+003,2.323654e+000
1.693101e+003,3.595184e+000
1.694065e+003,4.386200e+000
1.695030e+003,4.171585e+000
1.695994e+003,3.963943e+000
1.696958e+003,4.717010e+000
1.697922e+003,5.489166e+000
1.698887e+003,4.855743e+000
1.699851e+003,3.341125e+000
1.700815e+003,2.503296e+000
1.701779e+003,2.424698e+000
1.702744e+003,2.279861e+000
1.703708e+003,1.856796e+000
1.704672e+003,1.569550e+000
1.705636e+003,1.653152e+000
1.706601e+003,1.847610e+000
1.707565e+003,1.996552e+000
1.708529e+003,2.121552e+000
1.709493e+003,2.031219e+000
1.710458e+003,1.662842e+000
1.711422e+003,1.323441e+000
1.712386e+003,1.055649e+000
1.713350e+003,1.103180e+000
1.714314e+003,1.633316e+000
1.715279e+003,2.454773e+000
1.716243e+003,3.806931e+000
1.717207e+003,5.314957e+000
1.718171e+003,5.026642e+000
1.719135e+003,2.430847e+000
1.720100e+003,-2.227783e-002
1.721064e+003,-7.167511e-001
1.722028e+003,-5.704346e-001
1.722992e+003,-8.628235e-001
1.723957e+003,-1.305618e+000
1.724921e+003,-5.798187e-001
1.725885e+003,1.529892e+000
1.726849e+003,2.425522e+000
1.727814e+003,5.423279e-001
1.728778e+003,-7.104797e-001
1.729742e+003,9.907379e-001
1.730706e+003,3.131744e+000
1.731671e+003,2.935303e+000
1.732635e+003,1.179337e+000
1.733599e+003,-1.879883e-002
1.734563e+003,-1.812439e-001
1.735528e+003,7.638550e-002
1.736492e+003,3.790283e-001
1.737456e+003,2.975616e-001
1.738420e+003,-8.068848e-001
1.739385e+003,-2.463226e+000
1.740349e+003,-2.619827e+000
1.741313e+003,-8.799438e-001
1.742277e+003,6.935120e-001
1.743241e+003,2.433273e+000
1.744206e+003,3.654480e+000
1.745170e+003,4.401367e+000
1.746134e+003,4.355423e+000
1.747098e+003,2.601700e+000
1.748063e+003,4.978943e-001
1.749027e+003,-2.387085e-001
1.749991e+003,9.185791e-002
1.750955e+003,7.586670e-002
1.751919e+003,-7.640076e-001
1.752884e+003,-1.819366e+000
1.753848e+003,-2.596970e+000
1.754812e+003,-3.001831e+000
1.755776e+003,-2.721878e+000
1.756741e+003,-1.704590e+000
1.757705e+003,-6.534119e-001
1.758669e+003,7.758026e-001
1.759633e+003,9.657593e-001
1.760598e+003,-1.793030e+000
1.761562e+003,-3.704422e+000
1.762526e+003,-2.674545e+000
1.763490e+003,-1.260147e+000
1.764455e+003,-1.406769e+000
1.765419e+003,-2.294388e+000
1.766383e+003,-2.495560e+000
1.767347e+003,-1.942368e+000
1.768312e+003,-1.356918e+000
1.769276e+003,-1.092346e+000
1.770240e+003,-1.410324e+000
1.771204e+003,-2.875778e+000
1.772168e+003,-4.569672e+000
1.773133e+003,-4.276337e+000
1.774097e+003,-2.238693e+000
1.775061e+003,-9.029541e-001
1.776025e+003,-6.542206e-001
1.776990e+003,-6.324158e-001
1.777954e+003,-4.112701e-001
1.778918e+003,-3.841400e-001
1.779882e+003,-1.267380e+000
1.780846e+003,-2.323959e+000
1.781811e+003,-2.455521e+000
1.782775e+003,-1.827118e+000
1.783739e+003,-9.799500e-001
1.784703e+003,7.606506e-002
1.785668e+003,9.643707e-001
1.786632e+003,1.610916e+000
1.787596e+003,1.714142e+000
1.788560e+003,9.323883e-001
1.789525e+003,-2.039032e-001
1.790489e+003,-1.367172e+000
1.791453e+003,-2.337708e+000
1.792417e+003,-2.314697e+000
1.793382e+003,-1.247635e+000
1.794346e+003,-3.807373e-001
1.795310e+003,-3.936005e-001
1.796274e+003,-7.239838e-001
1.797239e+003,-6.644440e-001
1.798203e+003,-2.938385e-001
1.799167e+003,-2.025299e-001
1.800131e+003,-6.064301e-001
1.801095e+003,-1.106155e+000
1.802060e+003,-1.109238e+000
1.803024e+003,-1.790146e+000
1.803988e+003,-4.791077e+000
1.804952e+003,-6.733810e+000
1.805917e+003,-5.195557e+000
1.806881e+003,-2.538879e+000
1.807845e+003,-4.689331e-001
1.808809e+003,5.250702e-001
1.809773e+003,-3.426666e-001
1.810738e+003,-2.731873e+000
1.811702e+003,-4.543625e+000
1.812666e+003,-4.481827e+000
1.813630e+003,-3.479599e+000
1.814595e+003,-2.689056e+000
1.815559e+003,-2.163040e+000
1.816523e+003,-2.197601e+000
1.817487e+003,-2.892487e+000
1.818452e+003,-2.660568e+000
1.819416e+003,-8.281555e-001
1.820380e+003,4.011536e-001
1.821344e+003,-1.648865e-001
1.822309e+003,-7.935944e-001
1.823273e+003,1.402893e-001
1.824237e+003,1.165039e+000
1.825201e+003,2.354584e-001
1.826166e+003,-1.850159e+000
1.827130e+003,-2.778763e+000
1.828094e+003,-2.188858e+000
1.829058e+003,-1.074448e+000
1.830022e+003,7.766571e-001
1.830987e+003,1.716995e+000
1.831951e+003,-6.763763e-001
1.832915e+003,-4.036057e+000
1.833879e+003,-4.788071e+000
1.834844e+003,-3.520920e+000
1.835808e+003,-2.400024e+000
1.836772e+003,-1.789413e+000
1.837736e+003,-1.072525e+000
1.838700e+003,2.868652e-003
1.839665e+003,3.932190e-001
1.840629e+003,-1.014511e+000
1.841593e+003,-3.132355e+000
1.842557e+003,-3.672531e+000
1.843522e+003,-2.664093e+000
1.844486e+003,-1.984314e+000
1.845450e+003,-1.947327e+000
1.846414e+003,-1.405884e+000
1.847379e+003,1.000824e-001
1.848343e+003,1.180939e+000
1.849307e+003,1.175262e+000
1.850271e+003,9.779663e-001
1.851236e+003,1.677277e+000
1.852200e+003,2.411438e+000
1.853164e+003,1.173492e+000
1.854128e+003,-1.370377e+000
1.855093e+003,-2.006668e+000
1.856057e+003,2.918091e-001
1.857021e+003,2.456253e+000
1.857985e+003,1.808258e+000
1.858949e+003,-1.266479e-001
1.859914e+003,-6.971130e-001
1.860878e+003,-1.408386e-001
1.861842e+003,1.156616e-002
1.862806e+003,-2.915497e-001
1.863771e+003,-3.131104e-001
1.864735e+003,1.392059e-001
1.865699e+003,3.405151e-001
1.866663e+003,-1.082001e-001
1.867627e+003,-5.947113e-001
1.868592e+003,-7.985535e-001
1.869556e+003,-7.011108e-001
1.870520e+003,3.091278e-001
1.871484e+003,1.921997e+000
1.872449e+003,1.774612e+000
1.873413e+003,-9.746246e-001
1.874377e+003,-2.131027e+000
1.875341e+003,1.096573e+000
1.876306e+003,3.707825e+000
1.877270e+003,1.946655e+000
1.878234e+003,-7.556763e-001
1.879198e+003,-7.660522e-001
1.880163e+003,9.246368e-001
1.881127e+003,2.347763e+000
1.882091e+003,2.982315e+000
1.883055e+003,2.514450e+000
1.884020e+003,1.005203e+000
1.884984e+003,-2.722168e-002
1.885948e+003,8.304749e-001
1.886912e+003,2.670181e+000
1.887876e+003,3.770264e+000
1.888841e+003,4.150772e+000
1.889805e+003,3.713257e+000
1.890769e+003,2.157990e+000
1.891733e+003,1.474533e+000
1.892698e+003,2.201355e+000
1.893662e+003,2.782318e+000
1.894626e+003,2.766998e+000
1.895590e+003,2.424530e+000
1.896554e+003,1.427689e+000
1.897519e+003,6.562958e-001
1.898483e+003,1.642380e+000
1.899447e+003,3.642303e+000
1.900411e+003,4.092224e+000
1.901376e+003,2.507141e+000
1.902340e+003,1.263260e+000
1.903304e+003,1.466415e+000
1.904268e+003,1.847382e+000
1.905233e+003,1.500534e+000
1.906197e+003,1.148285e+000
1.907161e+003,1.712051e+000
1.908125e+003,2.765961e+000
1.909090e+003,3.464066e+000
1.910054e+003,3.684402e+000
1.911018e+003,3.648605e+000
1.911982e+003,3.521072e+000
1.912947e+003,3.501816e+000
1.913911e+003,3.712555e+000
1.914875e+003,4.123993e+000
1.915839e+003,4.718536e+000
1.916803e+003,5.296951e+000
1.917768e+003,5.067596e+000
1.918732e+003,3.888138e+000
1.919696e+003,3.267487e+000
1.920660e+003,3.514084e+000
1.921625e+003,3.671951e+000
1.922589e+003,3.683243e+000
1.923553e+003,3.216568e+000
1.924517e+003,1.210907e+000
1.925481e+003,-5.289459e-001
1.926446e+003,9.852600e-002
1.927410e+003,1.951202e+000
1.928374e+003,2.549530e+000
1.929338e+003,1.799667e+000
1.930303e+003,1.760056e+000
1.931267e+003,3.318069e+000
1.932231e+003,4.818314e+000
1.933195e+003,5.703796e+000
1.934160e+003,5.884705e+000
1.935124e+003,4.502167e+000
1.936088e+003,2.967850e+000
1.937052e+003,3.567719e+000
1.938017e+003,5.348953e+000
1.938981e+003,5.610550e+000
1.939945e+003,4.249115e+000
1.940909e+003,3.642059e+000
1.941874e+003,4.728409e+000
1.942838e+003,5.434067e+000
1.943802e+003,3.823257e+000
1.944766e+003,1.362793e+000
1.945730e+003,7.960205e-001
1.946695e+003,1.903778e+000
1.947659e+003,3.760193e+000
1.948623e+003,6.583649e+000
1.949587e+003,7.192932e+000
1.950552e+003,4.675781e+000
1.951516e+003,2.447556e+000
1.952480e+003,1.396561e+000
1.953444e+003,1.389023e+000
1.954408e+003,2.575089e+000
1.955373e+003,4.423416e+000
1.956337e+003,6.990448e+000
1.957301e+003,9.738571e+000
1.958265e+003,1.018741e+001
1.959230e+003,7.981659e+000
1.960194e+003,6.158157e+000
1.961158e+003,5.091003e+000
1.962122e+003,4.209961e+000
1.963087e+003,2.885864e+000
1.964051e+003,2.356369e+000
1.965015e+003,3.933701e+000
1.965979e+003,6.269272e+000
1.966944e+003,8.358582e+000
1.967908e+003,9.798889e+000
1.968872e+003,1.007895e+001
1.969836e+003,9.446243e+000
1.970801e+003,9.071854e+000
1.971765e+003,9.410217e+000
1.972729e+003,9.334656e+000
1.973693e+003,7.726395e+000
1.974657e+003,5.653625e+000
1.975622e+003,4.559158e+000
1.976586e+003,4.253616e+000
1.977550e+003,4.310822e+000
1.978514e+003,4.774155e+000
1.979479e+003,6.100922e+000
1.980443e+003,8.228088e+000
1.981407e+003,9.433929e+000
1.982371e+003,9.096161e+000
1.983335e+003,7.958893e+000
1.984300e+003,6.353165e+000
1.985264e+003,5.116119e+000
1.986228e+003,5.821609e+000
1.987192e+003,7.840851e+000
1.988157e+003,7.779037e+000
1.989121e+003,4.971802e+000
1.990085e+003,3.721130e+000
1.991049e+003,4.803268e+000
1.992014e+003,5.969162e+000
1.992978e+003,6.959763e+000
1.993942e+003,7.902710e+000
1.994906e+003,9.232086e+000
1.995871e+003,1.014223e+001
1.996835e+003,9.588043e+000
1.997799e+003,8.560440e+000
1.998763e+003,8.677917e+000
1.999728e+003,9.649475e+000
