5.003444e+002,3.638983e+001
5.013087e+002,3.776324e+001
5.022729e+002,3.729010e+001
5.032371e+002,3.557932e+001
5.042014e+002,3.407214e+001
5.051656e+002,3.282278e+001
5.061298e+002,3.197522e+001
5.070941e+002,3.159320e+001
5.080583e+002,3.153137e+001
5.090225e+002,3.229459e+001
5.099868e+002,3.509970e+001
5.109510e+002,3.722641e+001
5.119152e+002,3.690256e+001
5.128795e+002,3.391153e+001
5.138437e+002,3.137509e+001
5.148079e+002,3.057339e+001
5.157722e+002,3.033408e+001
5.167364e+002,3.052158e+001
5.177006e+002,3.080905e+001
5.186649e+002,3.053394e+001
5.196291e+002,2.809827e+001
5.205933e+002,2.566730e+001
5.215576e+002,2.594656e+001
5.225218e+002,2.876309e+001
5.234860e+002,3.218262e+001
5.244503e+002,3.294028e+001
5.254145e+002,3.026697e+001
5.263787e+002,2.844565e+001
5.273430e+002,2.783105e+001
5.283072e+002,2.781491e+001
5.292714e+002,2.752808e+001
5.302357e+002,2.658414e+001
5.311999e+002,2.548682e+001
5.321641e+002,2.443835e+001
5.331284e+002,2.364932e+001
5.340926e+002,2.313132e+001
5.350568e+002,2.277405e+001
5.360211e+002,2.263120e+001
5.369853e+002,2.350424e+001
5.379495e+002,2.458182e+001
5.389138e+002,2.516699e+001
5.398780e+002,2.492178e+001
5.408422e+002,2.391644e+001
5.418065e+002,2.206595e+001
5.427707e+002,1.954068e+001
5.437349e+002,1.761951e+001
5.446992e+002,1.666617e+001
5.456634e+002,1.647198e+001
5.466276e+002,1.637704e+001
5.475919e+002,1.667282e+001
5.485561e+002,1.686536e+001
5.495203e+002,1.685037e+001
5.504846e+002,1.658765e+001
5.514488e+002,1.602151e+001
5.524130e+002,1.499442e+001
5.533773e+002,1.432690e+001
5.543415e+002,1.468454e+001
5.553057e+002,1.539590e+001
5.562700e+002,1.559775e+001
5.572342e+002,1.474646e+001
5.581984e+002,1.353815e+001
5.591627e+002,1.409674e+001
5.601269e+002,1.584766e+001
5.610911e+002,1.758231e+001
5.620554e+002,1.868463e+001
5.630196e+002,1.899710e+001
5.639838e+002,1.768085e+001
5.649481e+002,1.276996e+001
5.659123e+002,9.110718e+000
5.668765e+002,8.296356e+000
5.678408e+002,9.603210e+000
5.688050e+002,1.061926e+001
5.697692e+002,9.880646e+000
5.707335e+002,9.491974e+000
5.716977e+002,1.080402e+001
5.726619e+002,1.274738e+001
5.736262e+002,1.386646e+001
5.745904e+002,1.314340e+001
5.755546e+002,1.151431e+001
5.765189e+002,9.851929e+000
5.774831e+002,8.304840e+000
5.784473e+002,7.741333e+000
5.794116e+002,8.825378e+000
5.803758e+002,1.137906e+001
5.813400e+002,1.111945e+001
5.823043e+002,6.989777e+000
5.832685e+002,3.010803e+000
5.842327e+002,7.322388e-001
5.851970e+002,6.695557e-002
5.861612e+002,-4.148560e-001
5.871254e+002,-2.447327e+000
5.880897e+002,-2.600830e+000
5.890539e+002,1.290924e+000
5.900181e+002,7.106293e+000
5.909824e+002,1.139737e+001
5.919466e+002,1.179129e+001
5.929108e+002,1.056848e+001
5.938751e+002,1.054099e+001
5.948393e+002,1.099686e+001
5.958035e+002,1.069315e+001
5.967678e+002,8.771057e+000
5.977320e+002,5.703583e+000
5.986962e+002,4.730194e+000
5.996605e+002,5.537292e+000
6.006247e+002,6.502716e+000
6.015889e+002,7.277374e+000
6.025532e+002,7.823395e+000
6.035174e+002,7.310425e+000
6.044816e+002,3.928802e+000
6.054459e+002,1.488220e+000
6.064101e+002,4.602051e-001
6.073743e+002,7.413635e-001
6.083386e+002,2.374146e+000
6.093028e+002,6.428070e+000
6.102670e+002,9.776550e+000
6.112313e+002,9.703522e+000
6.121955e+002,7.719116e+000
6.131597e+002,5.700378e+000
6.141240e+002,4.935425e+000
6.150882e+002,5.085724e+000
6.160524e+002,4.765411e+000
6.170167e+002,4.157501e+000
6.179809e+002,3.981384e+000
6.189451e+002,4.673859e+000
6.199094e+002,5.941833e+000
6.208736e+002,6.245636e+000
6.218378e+002,4.479309e+000
6.228021e+002,3.393250e+000
6.237663e+002,3.498810e+000
6.247305e+002,4.422577e+000
6.256948e+002,5.579010e+000
6.266590e+002,6.889404e+000
6.276232e+002,7.538605e+000
6.285875e+002,7.164032e+000
6.295517e+002,6.312775e+000
6.305159e+002,5.339661e+000
6.314802e+002,4.422943e+000
6.324444e+002,3.601654e+000
6.334086e+002,3.734375e+000
6.343729e+002,4.529510e+000
6.353371e+002,4.320221e+000
6.363013e+002,2.194244e+000
6.372656e+002,-1.066467e+000
6.382298e+002,-2.467072e+000
6.391940e+002,5.920410e-002
6.401583e+002,1.766388e+000
6.411225e+002,2.778259e+000
6.420867e+002,3.274445e+000
6.430510e+002,3.238708e+000
6.440152e+002,2.362823e+000
6.449794e+002,1.192078e+000
6.459437e+002,-2.736206e-001
6.469079e+002,-1.640320e+000
6.478721e+002,-2.362915e+000
6.488364e+002,-2.312225e+000
6.498006e+002,-2.043640e+000
6.507648e+002,-2.855682e+000
6.517291e+002,-4.340637e+000
6.526933e+002,-5.525726e+000
6.536575e+002,-6.279816e+000
6.546218e+002,-6.262024e+000
6.555860e+002,-4.698425e+000
6.565502e+002,-2.669373e-001
6.575145e+002,2.810333e+000
6.584787e+002,4.848969e+000
6.594429e+002,5.560638e+000
6.604072e+002,3.999298e+000
6.613714e+002,-3.027344e-001
6.623356e+002,-3.395264e+000
6.632999e+002,-2.156128e+000
6.642641e+002,-5.714417e-001
6.652283e+002,-9.857788e-001
6.661926e+002,-3.128632e+000
6.671568e+002,-4.786407e+000
6.681210e+002,-3.221344e+000
6.690853e+002,5.340271e-001
6.700495e+002,3.956024e+000
6.710137e+002,6.918671e+000
6.719780e+002,8.851837e+000
6.729422e+002,9.081055e+000
6.739064e+002,7.256744e+000
6.748707e+002,5.167297e+000
6.758349e+002,2.131226e+000
6.767991e+002,-4.049683e-001
6.777634e+002,-1.581909e+000
6.787276e+002,-1.391174e+000
6.796918e+002,-7.549438e-001
6.806561e+002,2.205200e-001
6.816203e+002,9.857483e-001
6.825845e+002,1.658112e+000
6.835488e+002,1.931427e+000
6.845130e+002,1.074829e+000
6.854772e+002,-1.614319e+000
6.864415e+002,-4.551758e+000
6.874057e+002,-4.152374e+000
6.883699e+002,-1.640778e+000
6.893342e+002,5.643005e-001
6.902984e+002,1.195587e+000
6.912626e+002,4.635010e-001
6.922269e+002,-5.678711e-001
6.931911e+002,-2.091736e+000
6.941553e+002,-3.098541e+000
6.951196e+002,-4.048706e+000
6.960838e+002,-4.602448e+000
6.970480e+002,-3.756744e+000
6.980123e+002,-3.068848e-001
6.989765e+002,2.212250e+000
6.999407e+002,2.431793e+000
7.009050e+002,1.315796e+000
7.018692e+002,-1.149292e+000
7.028334e+002,-4.594086e+000
7.037977e+002,-7.516510e+000
7.047619e+002,-6.782501e+000
7.057261e+002,-3.675537e+000
7.066904e+002,-7.121277e-001
7.076546e+002,1.682739e+000
7.086188e+002,3.027832e+000
7.095831e+002,2.363739e+000
7.105473e+002,-1.575378e+000
7.115115e+002,-3.799988e+000
7.124758e+002,-3.765869e+000
7.134400e+002,-3.096252e+000
7.144042e+002,-2.462372e+000
7.153685e+002,-1.866302e+000
7.163327e+002,-1.430481e+000
7.172969e+002,-1.103180e+000
7.182612e+002,-1.051880e+000
7.192254e+002,-1.932587e+000
7.201896e+002,-3.222900e+000
7.211539e+002,-3.769287e+000
7.221181e+002,-2.467010e+000
7.230823e+002,-2.195129e-001
7.240466e+002,4.750061e-001
7.250108e+002,8.572388e-002
7.259750e+002,-3.145752e-001
7.269393e+002,-2.493896e-001
7.279035e+002,-6.591797e-003
7.288677e+002,-3.443604e-001
7.298320e+002,-1.193665e+000
7.307962e+002,-1.975189e+000
7.317604e+002,-3.024353e+000
7.327247e+002,-3.795074e+000
7.336889e+002,-3.573151e+000
7.346531e+002,-2.220520e+000
7.356174e+002,-9.042053e-001
7.365816e+002,8.265381e-001
7.375458e+002,2.172089e+000
7.385101e+002,2.111603e+000
7.394743e+002,6.153564e-001
7.404385e+002,-1.188354e+000
7.414028e+002,-1.564484e+000
7.423670e+002,-1.234039e+000
7.433312e+002,-2.094238e+000
7.442955e+002,-4.150421e+000
7.452597e+002,-5.636902e+000
7.462239e+002,-4.392242e+000
7.471882e+002,4.803772e-001
7.481524e+002,3.782623e+000
7.491166e+002,4.973572e+000
7.500809e+002,5.011536e+000
7.510451e+002,3.657806e+000
7.520093e+002,1.366608e+000
7.529736e+002,-5.094299e-001
7.539378e+002,-9.605713e-001
7.549020e+002,-8.757324e-001
7.558663e+002,-5.743713e-001
7.568306e+002,-3.424377e-001
7.577948e+002,-7.697144e-001
7.587590e+002,-2.207275e+000
7.597233e+002,-4.210449e+000
7.606875e+002,-4.992981e+000
7.616517e+002,-4.555542e+000
7.626160e+002,-3.588409e+000
7.635802e+002,-2.055969e+000
7.645444e+002,-1.925354e-001
7.655087e+002,1.497162e+000
7.664729e+002,3.079529e+000
7.674371e+002,4.109070e+000
7.684014e+002,4.132996e+000
7.693656e+002,4.064026e+000
7.703298e+002,4.690094e+000
7.712941e+002,6.034973e+000
7.722583e+002,7.133514e+000
7.732225e+002,7.235504e+000
7.741868e+002,6.758331e+000
7.751510e+002,5.748047e+000
7.761152e+002,4.474243e+000
7.770795e+002,3.398102e+000
7.780437e+002,2.903168e+000
7.790079e+002,2.863831e+000
7.799722e+002,2.643188e+000
7.809364e+002,2.225861e+000
7.819006e+002,1.803650e+000
7.828649e+002,1.543518e+000
7.838291e+002,1.530548e+000
7.847933e+002,1.720428e+000
7.857576e+002,1.829987e+000
7.867218e+002,2.090485e+000
7.876860e+002,3.287872e+000
7.886503e+002,4.474945e+000
7.896145e+002,4.503021e+000
7.905787e+002,3.200226e+000
7.915430e+002,2.189392e+000
7.925072e+002,3.886597e+000
7.934714e+002,6.069061e+000
7.944357e+002,6.273285e+000
7.953999e+002,4.677185e+000
7.963641e+002,2.888733e+000
7.973284e+002,2.640930e+000
7.982926e+002,4.046417e+000
7.992568e+002,5.079285e+000
8.002211e+002,5.242889e+000
8.011853e+002,5.121094e+000
8.021495e+002,5.730438e+000
8.031138e+002,6.839569e+000
8.040780e+002,6.476318e+000
8.050422e+002,2.211578e+000
8.060065e+002,-6.180115e-001
8.069707e+002,2.238159e-001
8.079349e+002,2.544983e+000
8.088992e+002,4.304108e+000
8.098634e+002,4.851868e+000
8.108276e+002,5.329834e+000
8.117919e+002,7.927032e+000
8.127561e+002,1.085510e+001
8.137203e+002,1.071652e+001
8.146846e+002,7.389893e+000
8.156488e+002,3.263916e+000
8.166130e+002,1.044189e+000
8.175773e+002,8.431702e-001
8.185415e+002,1.634064e+000
8.195057e+002,3.912811e+000
8.204700e+002,6.002045e+000
8.214342e+002,7.262909e+000
8.223984e+002,7.913940e+000
8.233627e+002,8.768707e+000
8.243269e+002,1.078922e+001
8.252911e+002,1.168237e+001
8.262554e+002,9.333740e+000
8.272196e+002,5.926880e+000
8.281838e+002,3.306549e+000
8.291481e+002,2.347809e+000
8.301123e+002,3.171936e+000
8.310765e+002,6.684082e+000
8.320408e+002,1.232532e+001
8.330050e+002,1.453806e+001
8.339692e+002,1.237686e+001
8.349335e+002,8.951447e+000
8.358977e+002,7.503326e+000
8.368619e+002,8.470276e+000
8.378262e+002,8.974121e+000
8.387904e+002,8.791565e+000
8.397546e+002,7.962250e+000
8.407189e+002,5.606659e+000
8.416831e+002,2.849060e+000
8.426473e+002,1.701080e+000
8.436116e+002,3.340485e+000
8.445758e+002,5.699951e+000
8.455400e+002,6.482788e+000
8.465043e+002,6.317108e+000
8.474685e+002,5.929352e+000
8.484327e+002,5.766113e+000
8.493970e+002,6.098602e+000
8.503612e+002,7.182495e+000
8.513254e+002,9.141602e+000
8.522897e+002,1.013327e+001
8.532539e+002,9.806549e+000
8.542181e+002,8.877838e+000
8.551824e+002,7.471161e+000
8.561466e+002,5.954102e+000
8.571108e+002,5.862030e+000
8.580751e+002,8.007477e+000
8.590393e+002,1.008878e+001
8.600035e+002,1.161011e+001
8.609678e+002,1.288669e+001
8.619320e+002,1.449460e+001
8.628962e+002,1.656039e+001
8.638605e+002,1.817014e+001
8.648247e+002,1.726230e+001
8.657889e+002,1.504922e+001
8.667532e+002,1.441861e+001
8.677174e+002,1.574094e+001
8.686816e+002,1.752094e+001
8.696459e+002,1.798056e+001
8.706101e+002,1.688098e+001
8.715743e+002,1.707956e+001
8.725386e+002,2.001520e+001
8.735028e+002,2.234167e+001
8.744670e+002,2.272421e+001
8.754313e+002,2.176685e+001
8.763955e+002,2.068466e+001
8.773597e+002,1.973773e+001
8.783240e+002,1.958279e+001
8.792882e+002,2.116794e+001
8.802524e+002,2.316357e+001
8.812167e+002,2.450800e+001
8.821809e+002,2.497098e+001
8.831451e+002,2.497266e+001
8.841094e+002,2.508774e+001
8.850736e+002,2.542676e+001
8.860378e+002,2.534473e+001
8.870021e+002,2.438879e+001
8.879663e+002,2.410300e+001
8.889305e+002,2.611826e+001
8.898948e+002,2.964459e+001
8.908590e+002,3.070746e+001
8.918232e+002,2.709918e+001
8.927875e+002,2.454129e+001
8.937517e+002,2.483194e+001
8.947159e+002,2.610614e+001
8.956802e+002,2.657086e+001
8.966444e+002,2.582288e+001
8.976086e+002,2.507126e+001
8.985729e+002,2.588022e+001
8.995371e+002,2.757974e+001
9.005013e+002,2.885416e+001
9.014656e+002,2.975397e+001
9.024298e+002,3.030035e+001
9.033940e+002,3.029895e+001
9.043583e+002,2.977942e+001
9.053225e+002,3.022528e+001
9.062867e+002,3.338696e+001
9.072510e+002,3.488022e+001
9.082152e+002,3.337039e+001
9.091794e+002,3.140237e+001
9.101437e+002,3.181778e+001
9.111079e+002,3.507214e+001
9.120721e+002,3.780771e+001
9.130364e+002,3.743185e+001
9.140006e+002,3.605850e+001
9.149648e+002,3.487039e+001
9.159291e+002,3.394055e+001
9.168933e+002,3.265875e+001
9.178575e+002,3.054172e+001
9.188218e+002,2.816153e+001
9.197860e+002,2.821274e+001
9.207502e+002,3.067114e+001
9.217145e+002,3.233405e+001
9.226787e+002,3.273318e+001
9.236429e+002,3.244528e+001
9.246072e+002,3.202203e+001
9.255714e+002,3.135803e+001
9.265356e+002,3.029697e+001
9.274999e+002,2.812894e+001
9.284641e+002,2.614160e+001
9.294283e+002,2.501566e+001
9.303926e+002,2.448422e+001
9.313568e+002,2.386404e+001
9.323210e+002,2.276376e+001
9.332853e+002,2.168463e+001
9.342495e+002,2.183749e+001
9.352137e+002,2.243976e+001
9.361780e+002,2.227179e+001
9.371422e+002,2.123203e+001
9.381064e+002,2.033011e+001
9.390707e+002,2.077765e+001
9.400349e+002,2.259262e+001
9.409991e+002,2.427957e+001
9.419634e+002,2.700195e+001
9.429276e+002,2.807791e+001
9.438918e+002,2.520715e+001
9.448561e+002,2.083554e+001
9.458203e+002,1.939655e+001
9.467845e+002,2.267908e+001
9.477488e+002,2.632263e+001
9.487130e+002,2.665662e+001
9.496772e+002,2.616370e+001
9.506415e+002,2.709042e+001
9.516057e+002,2.926468e+001
9.525699e+002,3.065671e+001
9.535342e+002,2.920654e+001
9.544984e+002,2.537561e+001
9.554626e+002,2.406100e+001
9.564269e+002,2.587781e+001
9.573911e+002,2.780011e+001
9.583553e+002,2.914246e+001
9.593196e+002,2.997034e+001
9.602838e+002,3.040958e+001
9.612480e+002,3.042789e+001
9.622123e+002,2.989069e+001
9.631765e+002,2.823129e+001
9.641407e+002,2.668539e+001
9.651050e+002,2.567508e+001
9.660692e+002,2.513129e+001
9.670334e+002,2.486841e+001
9.679977e+002,2.487650e+001
9.689619e+002,2.537964e+001
9.699261e+002,2.708759e+001
9.708904e+002,2.927261e+001
9.718546e+002,2.976556e+001
9.728188e+002,2.764920e+001
9.737831e+002,2.519574e+001
9.747473e+002,2.593658e+001
9.757115e+002,3.089322e+001
9.766758e+002,3.383621e+001
9.776400e+002,3.307004e+001
9.786042e+002,3.267136e+001
9.795685e+002,3.393723e+001
9.805327e+002,3.568124e+001
9.814969e+002,3.641028e+001
9.824612e+002,3.575177e+001
9.834254e+002,3.453094e+001
9.843896e+002,3.315591e+001
9.853539e+002,3.148969e+001
9.863181e+002,2.916879e+001
9.872823e+002,2.626578e+001
9.882466e+002,2.346774e+001
9.892108e+002,2.153073e+001
9.901750e+002,2.073117e+001
9.911393e+002,2.123831e+001
9.921035e+002,2.423135e+001
9.930677e+002,2.546585e+001
9.940320e+002,2.325357e+001
9.949962e+002,2.078339e+001
9.959604e+002,2.137735e+001
9.969247e+002,2.516739e+001
9.978889e+002,2.853827e+001
9.988531e+002,2.885001e+001
9.998174e+002,2.892841e+001
1.000782e+003,3.118640e+001
1.001746e+003,3.444357e+001
1.002710e+003,3.670453e+001
1.003674e+003,3.713104e+001
1.004639e+003,3.667313e+001
1.005603e+003,3.700281e+001
1.006567e+003,3.814685e+001
1.007531e+003,3.926114e+001
1.008495e+003,4.048447e+001
1.009460e+003,4.149731e+001
1.010424e+003,4.228342e+001
1.011388e+003,4.280972e+001
1.012352e+003,4.262283e+001
1.013317e+003,4.100357e+001
1.014281e+003,3.978021e+001
1.015245e+003,4.019327e+001
1.016209e+003,4.037805e+001
1.017174e+003,3.863947e+001
1.018138e+003,3.528705e+001
1.019102e+003,3.221695e+001
1.020066e+003,3.110089e+001
1.021031e+003,3.119467e+001
1.021995e+003,3.001532e+001
1.022959e+003,2.761334e+001
1.023923e+003,2.471225e+001
1.024887e+003,2.123843e+001
1.025852e+003,1.781653e+001
1.026816e+003,1.570956e+001
1.027780e+003,1.548853e+001
1.028744e+003,1.461139e+001
1.029709e+003,1.194083e+001
1.030673e+003,9.617523e+000
1.031637e+003,7.949249e+000
1.032601e+003,7.028107e+000
1.033566e+003,7.464539e+000
1.034530e+003,9.436218e+000
1.035494e+003,1.095132e+001
1.036458e+003,8.630737e+000
1.037422e+003,5.033142e+000
1.038387e+003,5.116943e+000
1.039351e+003,8.585632e+000
1.040315e+003,1.165695e+001
1.041279e+003,1.154309e+001
1.042244e+003,8.964081e+000
1.043208e+003,7.014374e+000
1.044172e+003,5.392090e+000
1.045136e+003,4.730988e+000
1.046101e+003,5.752991e+000
1.047065e+003,7.131653e+000
1.048029e+003,8.067444e+000
1.048993e+003,8.518646e+000
1.049958e+003,8.912354e+000
1.050922e+003,9.700775e+000
1.051886e+003,1.014264e+001
1.052850e+003,8.993439e+000
1.053814e+003,7.243927e+000
1.054779e+003,6.178741e+000
1.055743e+003,6.028870e+000
1.056707e+003,6.167114e+000
1.057671e+003,5.825836e+000
1.058636e+003,4.961700e+000
1.059600e+003,4.803040e+000
1.060564e+003,6.356964e+000
1.061528e+003,7.596893e+000
1.062493e+003,7.610474e+000
1.063457e+003,7.245209e+000
1.064421e+003,7.857330e+000
1.065385e+003,9.628357e+000
1.066349e+003,1.061136e+001
1.067314e+003,9.190491e+000
1.068278e+003,7.418579e+000
1.069242e+003,6.836700e+000
1.070206e+003,6.991058e+000
1.071171e+003,6.995850e+000
1.072135e+003,6.408173e+000
1.073099e+003,5.439423e+000
1.074063e+003,4.548706e+000
1.075028e+003,3.762878e+000
1.075992e+003,4.080811e+000
1.076956e+003,6.106415e+000
1.077920e+003,7.717499e+000
1.078885e+003,8.022095e+000
1.079849e+003,7.712830e+000
1.080813e+003,8.024597e+000
1.081777e+003,9.283875e+000
1.082741e+003,1.041479e+001
1.083706e+003,1.035388e+001
1.084670e+003,1.006683e+001
1.085634e+003,1.057416e+001
1.086598e+003,1.118173e+001
1.087563e+003,1.024185e+001
1.088527e+003,7.070221e+000
1.089491e+003,3.325256e+000
1.090455e+003,2.127441e+000
1.091420e+003,3.683228e+000
1.092384e+003,3.764038e+000
1.093348e+003,1.139404e+000
1.094312e+003,-9.866028e-001
1.095276e+003,3.872681e-002
1.096241e+003,3.186829e+000
1.097205e+003,4.781433e+000
1.098169e+003,3.564545e+000
1.099133e+003,2.819580e+000
1.100098e+003,4.294800e+000
1.101062e+003,6.278137e+000
1.102026e+003,8.113953e+000
1.102990e+003,9.532410e+000
1.103955e+003,1.025583e+001
1.104919e+003,1.009335e+001
1.105883e+003,9.275665e+000
1.106847e+003,8.256866e+000
1.107812e+003,7.036530e+000
1.108776e+003,6.496613e+000
1.109740e+003,6.838226e+000
1.110704e+003,7.524811e+000
1.111668e+003,8.590057e+000
1.112633e+003,9.957520e+000
1.113597e+003,1.064499e+001
1.114561e+003,9.974091e+000
1.115525e+003,9.625122e+000
1.116490e+003,1.033099e+001
1.117454e+003,1.122186e+001
1.118418e+003,1.177927e+001
1.119382e+003,1.223923e+001
1.120347e+003,1.324396e+001
1.121311e+003,1.503467e+001
1.122275e+003,1.673337e+001
1.123239e+003,1.699911e+001
1.124203e+003,1.612704e+001
1.125168e+003,1.505670e+001
1.126132e+003,1.359042e+001
1.127096e+003,1.276663e+001
1.128060e+003,1.351669e+001
1.129025e+003,1.547693e+001
1.129989e+003,1.726746e+001
1.130953e+003,1.878232e+001
1.131917e+003,1.994949e+001
1.132882e+003,2.092822e+001
1.133846e+003,2.162109e+001
1.134810e+003,2.156961e+001
1.135774e+003,2.125464e+001
1.136739e+003,2.169559e+001
1.137703e+003,2.343927e+001
1.138667e+003,2.582590e+001
1.139631e+003,2.766510e+001
1.140595e+003,2.908835e+001
1.141560e+003,3.152051e+001
1.142524e+003,3.529712e+001
1.143488e+003,3.966342e+001
1.144452e+003,4.386725e+001
1.145417e+003,4.817371e+001
1.146381e+003,5.375803e+001
1.147345e+003,6.123279e+001
1.148309e+003,6.819931e+001
1.149274e+003,7.210629e+001
1.150238e+003,7.754633e+001
1.151202e+003,8.864056e+001
1.152166e+003,1.028338e+002
1.153130e+003,1.150393e+002
1.154095e+003,1.227800e+002
1.155059e+003,1.281730e+002
1.156023e+003,1.347918e+002
1.156987e+003,1.421252e+002
1.157952e+003,1.462744e+002
1.158916e+003,1.474971e+002
1.159880e+003,1.465153e+002
1.160844e+003,1.431549e+002
1.161809e+003,1.373204e+002
1.162773e+003,1.289671e+002
1.163737e+003,1.174940e+002
1.164701e+003,1.063769e+002
1.165666e+003,9.675842e+001
1.166630e+003,8.766504e+001
1.167594e+003,7.850266e+001
1.168558e+003,6.968842e+001
1.169522e+003,6.134808e+001
1.170487e+003,5.384122e+001
1.171451e+003,4.865799e+001
1.172415e+003,4.771524e+001
1.173379e+003,5.010870e+001
1.174344e+003,5.112457e+001
1.175308e+003,5.074432e+001
1.176272e+003,5.082095e+001
1.177236e+003,5.280804e+001
1.178201e+003,5.501715e+001
1.179165e+003,5.503125e+001
1.180129e+003,5.269141e+001
1.181093e+003,4.999716e+001
1.182057e+003,4.741772e+001
1.183022e+003,4.458411e+001
1.183986e+003,4.036227e+001
1.184950e+003,3.655530e+001
1.185914e+003,3.540997e+001
1.186879e+003,3.669733e+001
1.187843e+003,3.807336e+001
1.188807e+003,3.755249e+001
1.189771e+003,3.594205e+001
1.190736e+003,3.602826e+001
1.191700e+003,3.801895e+001
1.192664e+003,3.939340e+001
1.193628e+003,4.000552e+001
1.194593e+003,4.011996e+001
1.195557e+003,4.012033e+001
1.196521e+003,3.972400e+001
1.197485e+003,3.760089e+001
1.198449e+003,3.264362e+001
1.199414e+003,2.898828e+001
1.200378e+003,2.996191e+001
1.201342e+003,3.154507e+001
1.202306e+003,3.138693e+001
1.203271e+003,2.966287e+001
1.204235e+003,2.704602e+001
1.205199e+003,2.410776e+001
1.206163e+003,2.187521e+001
1.207128e+003,2.221869e+001
1.208092e+003,2.536154e+001
1.209056e+003,2.621725e+001
1.210020e+003,2.398862e+001
1.210984e+003,2.158328e+001
1.211949e+003,2.029208e+001
1.212913e+003,1.888895e+001
1.213877e+003,1.526178e+001
1.214841e+003,9.454895e+000
1.215806e+003,5.187073e+000
1.216770e+003,4.602570e+000
1.217734e+003,4.733398e+000
1.218698e+003,3.369141e+000
1.219663e+003,1.326294e+000
1.220627e+003,-1.303711e-001
1.221591e+003,-9.566650e-001
1.222555e+003,-2.626221e+000
1.223520e+003,-6.589752e+000
1.224484e+003,-1.163486e+001
1.225448e+003,-1.223999e+001
1.226412e+003,-5.147919e+000
1.227376e+003,-9.178162e-001
1.228341e+003,-7.558594e-001
1.229305e+003,-2.088867e+000
1.230269e+003,-4.490814e+000
1.231233e+003,-7.159210e+000
1.232198e+003,-8.456635e+000
1.233162e+003,-7.824738e+000
1.234126e+003,-6.871460e+000
1.235090e+003,-6.762695e+000
1.236055e+003,-7.124054e+000
1.237019e+003,-7.870636e+000
1.237983e+003,-8.716644e+000
1.238947e+003,-8.584259e+000
1.239911e+003,-6.965820e+000
1.240876e+003,-5.157623e+000
1.241840e+003,-5.274628e+000
1.242804e+003,-7.437561e+000
1.243768e+003,-9.056427e+000
1.244733e+003,-9.987610e+000
1.245697e+003,-1.046243e+001
1.246661e+003,-1.076819e+001
1.247625e+003,-1.070093e+001
1.248590e+003,-9.593079e+000
1.249554e+003,-7.771637e+000
1.250518e+003,-6.529968e+000
1.251482e+003,-6.588837e+000
1.252447e+003,-6.950104e+000
1.253411e+003,-6.186859e+000
1.254375e+003,-4.716339e+000
1.255339e+003,-3.479034e+000
1.256303e+003,-2.464081e+000
1.257268e+003,-1.835205e+000
1.258232e+003,-1.997620e+000
1.259196e+003,-2.583099e+000
1.260160e+003,-2.630737e+000
1.261125e+003,-1.984680e+000
1.262089e+003,-7.849731e-001
1.263053e+003,1.317474e+000
1.264017e+003,3.202362e+000
1.264982e+003,4.843048e+000
1.265946e+003,6.119049e+000
1.266910e+003,6.833496e+000
1.267874e+003,7.073212e+000
1.268839e+003,7.335815e+000
1.269803e+003,7.979462e+000
1.270767e+003,8.178467e+000
1.271731e+003,5.766357e+000
1.272695e+003,1.050873e+000
1.273660e+003,-4.635315e-001
1.274624e+003,2.334808e+000
1.275588e+003,4.970917e+000
1.276552e+003,5.397491e+000
1.277517e+003,4.248566e+000
1.278481e+003,1.965881e+000
1.279445e+003,-1.667725e+000
1.280409e+003,-3.781403e+000
1.281374e+003,-2.434082e+000
1.282338e+003,-6.005554e-001
1.283302e+003,4.505615e-001
1.284266e+003,8.824768e-001
1.285230e+003,1.091827e+000
1.286195e+003,9.673462e-001
1.287159e+003,-3.209534e-001
1.288123e+003,-3.397430e+000
1.289087e+003,-7.180389e+000
1.290052e+003,-8.601105e+000
1.291016e+003,-6.804199e+000
1.291980e+003,-6.141266e+000
1.292944e+003,-7.878357e+000
1.293909e+003,-9.304626e+000
1.294873e+003,-8.897400e+000
1.295837e+003,-7.596680e+000
1.296801e+003,-6.696960e+000
1.297766e+003,-6.394714e+000
1.298730e+003,-6.412933e+000
1.299694e+003,-6.867432e+000
1.300658e+003,-7.370026e+000
1.301622e+003,-7.279114e+000
1.302587e+003,-6.881317e+000
1.303551e+003,-6.856506e+000
1.304515e+003,-7.194519e+000
1.305479e+003,-6.956543e+000
1.306444e+003,-5.256683e+000
1.307408e+003,-2.866974e+000
1.308372e+003,-2.280945e+000
1.309336e+003,-4.121857e+000
1.310301e+003,-5.917084e+000
1.311265e+003,-8.787659e+000
1.312229e+003,-9.866699e+000
1.313193e+003,-6.761597e+000
1.314157e+003,-2.527527e+000
1.315122e+003,-3.099060e-001
1.316086e+003,-4.906311e-001
1.317050e+003,-1.606171e+000
1.318014e+003,-2.687225e+000
1.318979e+003,-3.603424e+000
1.319943e+003,-4.128204e+000
1.320907e+003,-4.286194e+000
1.321871e+003,-5.060181e+000
1.322836e+003,-7.059418e+000
1.323800e+003,-8.430603e+000
1.324764e+003,-7.942902e+000
1.325728e+003,-6.281860e+000
1.326693e+003,-4.260071e+000
1.327657e+003,-1.970642e+000
1.328621e+003,-1.321808e+000
1.329585e+003,-3.870483e+000
1.330549e+003,-5.390961e+000
1.331514e+003,-2.870758e+000
1.332478e+003,2.103271e-001
1.333442e+003,1.405334e-001
1.334406e+003,-2.467285e+000
1.335371e+003,-4.095062e+000
1.336335e+003,-2.675934e+000
1.337299e+003,-2.596130e-001
1.338263e+003,-9.745178e-001
1.339228e+003,-5.425385e+000
1.340192e+003,-7.207642e+000
1.341156e+003,-4.562561e+000
1.342120e+003,-2.068024e+000
1.343084e+003,1.766968e-002
1.344049e+003,1.095520e+000
1.345013e+003,9.243774e-002
1.345977e+003,-2.087799e+000
1.346941e+003,-2.750763e+000
1.347906e+003,-8.312683e-001
1.348870e+003,7.807007e-001
1.349834e+003,-1.294891e+000
1.350798e+003,-5.016876e+000
1.351763e+003,-6.028778e+000
1.352727e+003,-4.731903e+000
1.353691e+003,-3.944000e+000
1.354655e+003,-4.777832e+000
1.355620e+003,-6.031464e+000
1.356584e+003,-6.204193e+000
1.357548e+003,-5.384399e+000
1.358512e+003,-4.849518e+000
1.359476e+003,-4.866821e+000
1.360441e+003,-5.155731e+000
1.361405e+003,-6.368652e+000
1.362369e+003,-6.883301e+000
1.363333e+003,-5.081299e+000
1.364298e+003,-2.446960e+000
1.365262e+003,-1.240906e+000
1.366226e+003,-1.831360e+000
1.367190e+003,-2.565857e+000
1.368155e+003,-1.951355e+000
1.369119e+003,-6.518555e-001
1.370083e+003,-7.998352e-001
1.371047e+003,-2.892670e+000
1.372011e+003,-3.935852e+000
1.372976e+003,-3.247620e+000
1.373940e+003,-2.826599e+000
1.374904e+003,-3.872620e+000
1.375868e+003,-5.138428e+000
1.376833e+003,-4.805115e+000
1.377797e+003,-3.022919e+000
1.378761e+003,-1.823883e+000
1.379725e+003,-2.148712e+000
1.380690e+003,-2.855713e+000
1.381654e+003,-2.608276e+000
1.382618e+003,-2.028290e+000
1.383582e+003,-2.295776e+000
1.384547e+003,-3.270721e+000
1.385511e+003,-3.444153e+000
1.386475e+003,-1.948090e+000
1.387439e+003,3.387451e-002
1.388403e+003,5.248108e-001
1.389368e+003,-4.858093e-001
1.390332e+003,-4.235229e-001
1.391296e+003,2.073181e+000
1.392260e+003,3.210297e+000
1.393225e+003,4.338684e-001
1.394189e+003,-2.046997e+000
1.395153e+003,-1.027344e+000
1.396117e+003,1.536865e+000
1.397082e+003,2.081390e+000
1.398046e+003,1.055908e-002
1.399010e+003,-1.965912e+000
1.399974e+003,-1.457916e+000
1.400938e+003,6.861877e-001
1.401903e+003,2.444427e+000
1.402867e+003,4.410889e+000
1.403831e+003,5.100739e+000
1.404795e+003,3.127441e+000
1.405760e+003,1.376862e+000
1.406724e+003,4.393005e-001
1.407688e+003,-5.114746e-002
1.408652e+003,1.651001e-002
1.409617e+003,6.411133e-001
1.410581e+003,1.216370e+000
1.411545e+003,1.557373e+000
1.412509e+003,1.438599e+000
1.413474e+003,-1.355896e-001
1.414438e+003,-2.084412e+000
1.415402e+003,-1.890472e+000
1.416366e+003,2.210388e-001
1.417330e+003,1.778809e+000
1.418295e+003,1.797302e+000
1.419259e+003,1.078247e+000
1.420223e+003,-1.200867e-001
1.421187e+003,-1.579437e+000
1.422152e+003,-8.472290e-001
1.423116e+003,3.397095e+000
1.424080e+003,6.255615e+000
1.425044e+003,4.884521e+000
1.426009e+003,3.105865e+000
1.426973e+003,2.583649e+000
1.427937e+003,2.439880e+000
1.428901e+003,1.257111e+000
1.429865e+003,-6.987610e-001
1.430830e+003,-1.760406e+000
1.431794e+003,-9.144897e-001
1.432758e+003,1.105652e+000
1.433722e+003,3.159241e+000
1.434687e+003,5.600128e+000
1.435651e+003,6.874969e+000
1.436615e+003,4.876160e+000
1.437579e+003,3.709503e+000
1.438544e+003,4.701019e+000
1.439508e+003,5.787567e+000
1.440472e+003,5.104797e+000
1.441436e+003,3.886505e+000
1.442401e+003,4.932098e+000
1.443365e+003,8.589020e+000
1.444329e+003,1.166531e+001
1.445293e+003,1.176651e+001
1.446257e+003,1.028223e+001
1.447222e+003,9.647217e+000
1.448186e+003,9.632965e+000
1.449150e+003,9.049896e+000
1.450114e+003,7.513397e+000
1.451079e+003,6.328278e+000
1.452043e+003,6.926880e+000
1.453007e+003,7.944336e+000
1.453971e+003,7.034790e+000
1.454936e+003,4.428894e+000
1.455900e+003,2.495819e+000
1.456864e+003,1.677216e+000
1.457828e+003,2.069092e+000
1.458792e+003,4.682190e+000
1.459757e+003,7.485321e+000
1.460721e+003,8.908997e+000
1.461685e+003,9.221039e+000
1.462649e+003,9.160675e+000
1.463614e+003,9.000671e+000
1.464578e+003,8.538513e+000
1.465542e+003,7.495300e+000
1.466506e+003,5.976807e+000
1.467471e+003,4.255402e+000
1.468435e+003,2.151489e+000
1.469399e+003,1.733429e+000
1.470363e+003,3.987671e+000
1.471328e+003,6.349945e+000
1.472292e+003,8.715607e+000
1.473256e+003,1.022488e+001
1.474220e+003,1.008322e+001
1.475184e+003,9.092407e+000
1.476149e+003,8.629669e+000
1.477113e+003,8.978973e+000
1.478077e+003,9.112366e+000
1.479041e+003,8.135742e+000
1.480006e+003,6.769379e+000
1.480970e+003,7.163544e+000
1.481934e+003,9.910889e+000
1.482898e+003,1.106699e+001
1.483863e+003,9.480988e+000
1.484827e+003,8.030823e+000
1.485791e+003,7.488983e+000
1.486755e+003,7.661713e+000
1.487719e+003,8.652588e+000
1.488684e+003,9.953339e+000
1.489648e+003,9.940399e+000
1.490612e+003,8.314667e+000
1.491576e+003,8.833557e+000
1.492541e+003,1.545612e+001
1.493505e+003,2.445862e+001
1.494469e+003,2.700674e+001
1.495433e+003,2.408514e+001
1.496398e+003,2.260162e+001
1.497362e+003,2.383646e+001
1.498326e+003,2.589398e+001
1.499290e+003,2.829666e+001
1.500255e+003,3.055585e+001
1.501219e+003,3.140295e+001
1.502183e+003,3.122974e+001
1.503147e+003,3.274408e+001
1.504111e+003,3.676730e+001
1.505076e+003,4.130341e+001
1.506040e+003,4.525696e+001
1.507004e+003,4.924557e+001
1.507968e+003,5.362152e+001
1.508933e+003,5.855313e+001
1.509897e+003,6.432916e+001
1.510861e+003,7.126407e+001
1.511825e+003,7.978088e+001
1.512790e+003,9.032986e+001
1.513754e+003,1.017667e+002
1.514718e+003,1.118743e+002
1.515682e+003,1.205099e+002
1.516646e+003,1.306415e+002
1.517611e+003,1.435088e+002
1.518575e+003,1.559230e+002
1.519539e+003,1.674502e+002
1.520503e+003,1.780235e+002
1.521468e+003,1.882647e+002
1.522432e+003,1.970303e+002
1.523396e+003,2.027323e+002
1.524360e+003,2.052453e+002
1.525325e+003,2.057428e+002
1.526289e+003,2.050422e+002
1.527253e+003,2.029927e+002
1.528217e+003,1.992453e+002
1.529182e+003,1.939380e+002
1.530146e+003,1.872809e+002
1.531110e+003,1.795999e+002
1.532074e+003,1.694931e+002
1.533039e+003,1.558018e+002
1.534003e+003,1.404037e+002
1.534967e+003,1.231381e+002
1.535931e+003,1.060428e+002
1.536896e+003,9.121512e+001
1.537860e+003,7.867767e+001
1.538824e+003,6.679172e+001
1.539788e+003,5.470566e+001
1.540752e+003,4.386697e+001
1.541717e+003,3.628891e+001
1.542681e+003,3.172604e+001
1.543645e+003,2.775867e+001
1.544609e+003,2.459741e+001
1.545573e+003,2.210736e+001
1.546538e+003,1.984052e+001
1.547502e+003,1.828873e+001
1.548466e+003,1.821738e+001
1.549430e+003,1.891681e+001
1.550395e+003,1.996555e+001
1.551359e+003,2.085480e+001
1.552323e+003,2.058707e+001
1.553287e+003,1.891211e+001
1.554252e+003,1.694427e+001
1.555216e+003,1.557672e+001
1.556180e+003,1.471005e+001
1.557144e+003,1.419165e+001
1.558109e+003,1.410764e+001
1.559073e+003,1.429483e+001
1.560037e+003,1.502820e+001
1.561001e+003,1.484869e+001
1.561966e+003,1.280756e+001
1.562930e+003,1.058197e+001
1.563894e+003,9.758667e+000
1.564858e+003,9.748077e+000
1.565823e+003,8.747711e+000
1.566787e+003,6.514221e+000
1.567751e+003,5.487427e+000
1.568715e+003,7.451721e+000
1.569679e+003,1.014267e+001
1.570644e+003,1.031787e+001
1.571608e+003,8.897369e+000
1.572572e+003,9.289886e+000
1.573536e+003,1.175937e+001
1.574500e+003,1.307394e+001
1.575465e+003,1.144431e+001
1.576429e+003,9.379181e+000
1.577393e+003,8.399323e+000
1.578357e+003,8.494812e+000
1.579322e+003,1.045773e+001
1.580286e+003,1.410602e+001
1.581250e+003,1.613297e+001
1.582214e+003,1.521524e+001
1.583179e+003,1.367264e+001
1.584143e+003,1.291980e+001
1.585107e+003,1.253229e+001
1.586071e+003,1.238354e+001
1.587036e+003,1.243073e+001
1.588000e+003,1.168900e+001
1.588964e+003,9.720703e+000
1.589928e+003,8.444397e+000
1.590893e+003,9.472717e+000
1.591857e+003,1.163565e+001
1.592821e+003,1.360410e+001
1.593785e+003,1.525577e+001
1.594750e+003,1.539362e+001
1.595714e+003,1.345480e+001
1.596678e+003,1.222049e+001
1.597642e+003,1.327017e+001
1.598606e+003,1.471655e+001
1.599571e+003,1.504001e+001
1.600535e+003,1.494998e+001
1.601499e+003,1.542429e+001
1.602463e+003,1.633057e+001
1.603427e+003,1.660324e+001
1.604392e+003,1.569046e+001
1.605356e+003,1.513232e+001
1.606320e+003,1.733105e+001
1.607284e+003,2.083795e+001
1.608249e+003,2.087939e+001
1.609213e+003,1.728967e+001
1.610177e+003,1.571869e+001
1.611141e+003,1.823782e+001
1.612106e+003,1.996933e+001
1.613070e+003,1.707117e+001
1.614034e+003,1.385547e+001
1.614998e+003,1.389746e+001
1.615963e+003,1.561731e+001
1.616927e+003,1.601987e+001
1.617891e+003,1.472260e+001
1.618855e+003,1.347678e+001
1.619820e+003,1.327008e+001
1.620784e+003,1.331052e+001
1.621748e+003,1.250766e+001
1.622712e+003,1.136453e+001
1.623677e+003,1.185648e+001
1.624641e+003,1.440848e+001
1.625605e+003,1.629617e+001
1.626569e+003,1.647498e+001
1.627533e+003,1.579590e+001
1.628498e+003,1.425397e+001
1.629462e+003,1.284277e+001
1.630426e+003,1.232373e+001
1.631390e+003,1.254547e+001
1.632354e+003,1.331735e+001
1.633319e+003,1.444977e+001
1.634283e+003,1.515164e+001
1.635247e+003,1.474966e+001
1.636211e+003,1.375485e+001
1.637176e+003,1.296164e+001
1.638140e+003,1.248538e+001
1.639104e+003,1.318488e+001
1.640068e+003,1.556970e+001
1.641033e+003,1.692087e+001
1.641997e+003,1.602335e+001
1.642961e+003,1.490158e+001
1.643925e+003,1.412680e+001
1.644890e+003,1.393561e+001
1.645854e+003,1.504239e+001
1.646818e+003,1.679446e+001
1.647782e+003,1.735495e+001
1.648747e+003,1.626913e+001
1.649711e+003,1.558841e+001
1.650675e+003,1.727652e+001
1.651639e+003,2.019611e+001
1.652604e+003,2.217725e+001
1.653568e+003,2.309952e+001
1.654532e+003,2.147021e+001
1.655496e+003,1.609912e+001
1.656460e+003,1.222455e+001
1.657425e+003,1.246646e+001
1.658389e+003,1.317038e+001
1.659353e+003,1.150873e+001
1.660317e+003,9.837036e+000
1.661281e+003,1.154233e+001
1.662246e+003,1.539804e+001
1.663210e+003,1.707544e+001
1.664174e+003,1.530600e+001
1.665138e+003,1.357733e+001
1.666103e+003,1.531430e+001
1.667067e+003,1.799335e+001
1.668031e+003,1.560446e+001
1.668995e+003,8.737183e+000
1.669960e+003,5.891388e+000
1.670924e+003,8.874786e+000
1.671888e+003,1.091187e+001
1.672852e+003,9.110962e+000
1.673817e+003,6.869446e+000
1.674781e+003,5.296783e+000
1.675745e+003,5.141815e+000
1.676709e+003,8.524658e+000
1.677674e+003,1.400952e+001
1.678638e+003,1.727042e+001
1.679602e+003,1.695160e+001
1.680566e+003,1.487473e+001
1.681531e+003,1.178119e+001
1.682495e+003,8.865356e+000
1.683459e+003,8.548126e+000
1.684423e+003,1.017877e+001
1.685387e+003,9.791962e+000
1.686352e+003,6.699646e+000
1.687316e+003,5.037201e+000
1.688280e+003,6.939941e+000
1.689244e+003,9.005035e+000
1.690208e+003,8.648682e+000
1.691173e+003,7.066650e+000
1.692137e+003,5.091309e+000
1.693101e+003,3.186462e+000
1.694065e+003,2.164917e+000
1.695030e+003,2.087952e+000
1.695994e+003,2.811920e+000
1.696958e+003,5.074860e+000
1.697922e+003,7.256104e+000
1.698887e+003,6.746399e+000
1.699851e+003,4.637726e+000
1.700815e+003,4.331635e+000
1.701779e+003,6.002655e+000
1.702744e+003,7.314606e+000
1.703708e+003,7.701630e+000
1.704672e+003,7.707642e+000
1.705636e+003,7.498230e+000
1.706601e+003,6.868011e+000
1.707565e+003,5.738037e+000
1.708529e+003,4.301270e+000
1.709493e+003,2.641693e+000
1.710458e+003,6.677551e-001
1.711422e+003,-8.156128e-001
1.712386e+003,-1.050812e+000
1.713350e+003,-9.426880e-001
1.714314e+003,-1.854919e+000
1.715279e+003,-2.832977e+000
1.716243e+003,-1.540466e+000
1.717207e+003,1.525909e+000
1.718171e+003,3.113495e+000
1.719135e+003,2.359406e+000
1.720100e+003,1.382416e+000
1.721064e+003,1.472687e+000
1.722028e+003,2.085449e+000
1.722992e+003,2.655640e+000
1.723957e+003,3.347626e+000
1.724921e+003,4.290466e+000
1.725885e+003,5.450378e+000
1.726849e+003,5.395477e+000
1.727814e+003,3.289093e+000
1.728778e+003,1.368591e+000
1.729742e+003,-3.225708e-002
1.730706e+003,-3.814392e-001
1.731671e+003,1.859711e+000
1.732635e+003,4.872955e+000
1.733599e+003,5.054504e+000
1.734563e+003,2.273529e+000
1.735528e+003,-9.736023e-001
1.736492e+003,-3.433563e+000
1.737456e+003,-4.256897e+000
1.738420e+003,-2.167755e+000
1.739385e+003,1.677582e+000
1.740349e+003,3.486969e+000
1.741313e+003,3.084442e+000
1.742277e+003,2.108307e+000
1.743241e+003,-5.353699e-001
1.744206e+003,-1.756927e+000
1.745170e+003,1.796875e-001
1.746134e+003,1.898468e+000
1.747098e+003,1.038300e+000
1.748063e+003,-6.951294e-001
1.749027e+003,-1.275360e+000
1.749991e+003,-7.381592e-001
1.750955e+003,3.076172e-001
1.751919e+003,1.296570e+000
1.752884e+003,6.770325e-001
1.753848e+003,-2.893555e+000
1.754812e+003,-7.440918e+000
1.755776e+003,-8.844482e+000
1.756741e+003,-7.047852e+000
1.757705e+003,-4.489594e+000
1.758669e+003,-8.579712e-001
1.759633e+003,2.249420e+000
1.760598e+003,5.188080e+000
1.761562e+003,6.499390e+000
1.762526e+003,5.234497e+000
1.763490e+003,3.104645e+000
1.764455e+003,7.468262e-001
1.765419e+003,-1.342468e+000
1.766383e+003,-2.771149e+000
1.767347e+003,-3.514038e+000
1.768312e+003,-3.474182e+000
1.769276e+003,-2.633881e+000
1.770240e+003,-1.696533e+000
1.771204e+003,-1.125702e+000
1.772168e+003,-7.575073e-001
1.773133e+003,-5.706787e-001
1.774097e+003,-5.682983e-001
1.775061e+003,-7.520142e-001
1.776025e+003,-1.311615e+000
1.776990e+003,-1.887024e+000
1.777954e+003,-2.218140e+000
1.778918e+003,-2.316193e+000
1.779882e+003,-2.286133e+000
1.780846e+003,-2.245056e+000
1.781811e+003,-2.028473e+000
1.782775e+003,-1.751526e+000
1.783739e+003,-2.052826e+000
1.784703e+003,-3.045685e+000
1.785668e+003,-3.693573e+000
1.786632e+003,-3.779083e+000
1.787596e+003,-3.500977e+000
1.788560e+003,-2.303864e+000
1.789525e+003,-9.105225e-001
1.790489e+003,-6.291199e-001
1.791453e+003,-1.332520e+000
1.792417e+003,-2.451813e+000
1.793382e+003,-3.687592e+000
1.794346e+003,-3.765320e+000
1.795310e+003,-1.919373e+000
1.796274e+003,-1.037598e-001
1.797239e+003,-5.136719e-001
1.798203e+003,-2.359955e+000
1.799167e+003,-3.947479e+000
1.800131e+003,-5.909546e+000
1.801095e+003,-5.537506e+000
1.802060e+003,5.272522e-001
1.803024e+003,3.941437e+000
1.803988e+003,1.926453e+000
1.804952e+003,-6.714783e-001
1.805917e+003,-1.713165e+000
1.806881e+003,-2.120300e+000
1.807845e+003,-3.239990e+000
1.808809e+003,-4.397949e+000
1.809773e+003,-3.640778e+000
1.810738e+003,-1.002258e+000
1.811702e+003,9.546814e-001
1.812666e+003,6.387329e-001
1.813630e+003,-3.255615e-001
1.814595e+003,3.430786e-001
1.815559e+003,2.024994e+000
1.816523e+003,2.287567e+000
1.817487e+003,1.043060e+000
1.818452e+003,-2.610779e-001
1.819416e+003,-1.633698e+000
1.820380e+003,-2.389496e+000
1.821344e+003,-2.316254e+000
1.822309e+003,-1.942566e+000
1.823273e+003,-9.187622e-001
1.824237e+003,-4.507446e-002
1.825201e+003,-6.254578e-001
1.826166e+003,-2.112579e+000
1.827130e+003,-2.877655e+000
1.828094e+003,-2.702057e+000
1.829058e+003,-2.469391e+000
1.830022e+003,-2.776062e+000
1.830987e+003,-2.498474e+000
1.831951e+003,3.334045e-001
1.832915e+003,3.565186e+000
1.833879e+003,3.654541e+000
1.834844e+003,1.441010e+000
1.835808e+003,-1.784363e-001
1.836772e+003,-7.308350e-001
1.837736e+003,-1.200409e+000
1.838700e+003,-2.079895e+000
1.839665e+003,-3.261780e+000
1.840629e+003,-4.853790e+000
1.841593e+003,-5.699646e+000
1.842557e+003,-2.891052e+000
1.843522e+003,3.462158e+000
1.844486e+003,5.502167e+000
1.845450e+003,1.289368e-001
1.846414e+003,-3.246155e+000
1.847379e+003,-4.161560e+000
1.848343e+003,-4.225616e+000
1.849307e+003,-3.236481e+000
1.850271e+003,-2.071991e+000
1.851236e+003,-8.515930e-001
1.852200e+003,7.080078e-003
1.853164e+003,-4.677734e-001
1.854128e+003,-2.033661e+000
1.855093e+003,-3.394531e+000
1.856057e+003,-3.888123e+000
1.857021e+003,-3.684998e+000
1.857985e+003,-2.937012e+000
1.858949e+003,-2.064728e+000
1.859914e+003,-1.777527e+000
1.860878e+003,-1.926270e+000
1.861842e+003,-2.097656e+000
1.862806e+003,-2.363220e+000
1.863771e+003,-1.405914e+000
1.864735e+003,1.369263e+000
1.865699e+003,3.313721e+000
1.866663e+003,3.194885e+000
1.867627e+003,2.341309e+000
1.868592e+003,1.480652e+000
1.869556e+003,6.369934e-001
1.870520e+003,1.323547e-001
1.871484e+003,-7.586670e-002
1.872449e+003,-8.856201e-002
1.873413e+003,6.392212e-001
1.874377e+003,1.220154e+000
1.875341e+003,5.144653e-001
1.876306e+003,-3.387451e-002
1.877270e+003,5.254822e-001
1.878234e+003,1.344208e+000
1.879198e+003,1.835022e+000
1.880163e+003,1.915405e+000
1.881127e+003,1.325287e+000
1.882091e+003,3.385620e-001
1.883055e+003,-8.923340e-002
1.884020e+003,3.760071e-001
1.884984e+003,1.040161e+000
1.885948e+003,1.295898e+000
1.886912e+003,1.136536e+000
1.887876e+003,3.972473e-001
1.888841e+003,-7.685547e-001
1.889805e+003,-5.115967e-001
1.890769e+003,1.471283e+000
1.891733e+003,3.348053e+000
1.892698e+003,5.240204e+000
1.893662e+003,5.959473e+000
1.894626e+003,4.364319e+000
1.895590e+003,2.551941e+000
1.896554e+003,1.610962e+000
1.897519e+003,1.647980e+000
1.898483e+003,3.018951e+000
1.899447e+003,5.246368e+000
1.900411e+003,7.590820e+000
1.901376e+003,1.010046e+001
1.902340e+003,1.064890e+001
1.903304e+003,6.972992e+000
1.904268e+003,3.399353e+000
1.905233e+003,3.247070e+000
1.906197e+003,3.938232e+000
1.907161e+003,2.021484e+000
1.908125e+003,-5.511169e-001
1.909090e+003,8.065186e-001
1.910054e+003,5.110962e+000
1.911018e+003,6.779724e+000
1.911982e+003,4.274048e+000
1.912947e+003,1.359711e+000
1.913911e+003,7.520447e-001
1.914875e+003,1.309021e+000
1.915839e+003,1.220520e+000
1.916803e+003,5.636902e-001
1.917768e+003,2.756653e-001
1.918732e+003,4.103699e-001
1.919696e+003,1.458099e+000
1.920660e+003,4.289856e+000
1.921625e+003,5.744446e+000
1.922589e+003,4.022400e+000
1.923553e+003,2.411346e+000
1.924517e+003,3.017151e+000
1.925481e+003,4.186737e+000
1.926446e+003,4.640442e+000
1.927410e+003,4.557068e+000
1.928374e+003,4.105194e+000
1.929338e+003,3.294281e+000
1.930303e+003,3.013153e+000
1.931267e+003,4.121338e+000
1.932231e+003,4.505615e+000
1.933195e+003,1.575104e+000
1.934160e+003,-8.233032e-001
1.935124e+003,8.558960e-001
1.936088e+003,3.957123e+000
1.937052e+003,5.732788e+000
1.938017e+003,6.246002e+000
1.938981e+003,6.027527e+000
1.939945e+003,5.319702e+000
1.940909e+003,4.337860e+000
1.941874e+003,3.187469e+000
1.942838e+003,2.133667e+000
1.943802e+003,1.556274e+000
1.944766e+003,1.288574e+000
1.945730e+003,4.432983e-001
1.946695e+003,-8.161316e-001
1.947659e+003,3.309937e-001
1.948623e+003,4.279480e+000
1.949587e+003,5.235168e+000
1.950552e+003,1.585510e+000
1.951516e+003,-4.779663e-001
1.952480e+003,1.698578e+000
1.953444e+003,4.632813e+000
1.954408e+003,6.313599e+000
1.955373e+003,6.828461e+000
1.956337e+003,6.050415e+000
1.957301e+003,4.539734e+000
1.958265e+003,3.592896e+000
1.959230e+003,3.236694e+000
1.960194e+003,3.692841e+000
1.961158e+003,5.793060e+000
1.962122e+003,6.955841e+000
1.963087e+003,5.670410e+000
1.964051e+003,4.393799e+000
1.965015e+003,4.716797e+000
1.965979e+003,5.856201e+000
1.966944e+003,7.499847e+000
1.967908e+003,8.723755e+000
1.968872e+003,7.714050e+000
1.969836e+003,4.987000e+000
1.970801e+003,3.435699e+000
1.971765e+003,4.260437e+000
1.972729e+003,5.851654e+000
1.973693e+003,6.984344e+000
1.974657e+003,7.681366e+000
1.975622e+003,7.720276e+000
1.976586e+003,7.335602e+000
1.977550e+003,7.458832e+000
1.978514e+003,8.012543e+000
1.979479e+003,7.912781e+000
1.980443e+003,7.050781e+000
1.981407e+003,7.159668e+000
1.982371e+003,9.015137e+000
1.983335e+003,1.057272e+001
1.984300e+003,1.010083e+001
1.985264e+003,8.956421e+000
1.986228e+003,9.493530e+000
1.987192e+003,1.108743e+001
1.988157e+003,1.030093e+001
1.989121e+003,6.208374e+000
1.990085e+003,5.000153e+000
1.991049e+003,9.043335e+000
1.992014e+003,1.135907e+001
1.992978e+003,9.702881e+000
1.993942e+003,7.970459e+000
1.994906e+003,7.436615e+000
1.995871e+003,7.359497e+000
1.996835e+003,7.177887e+000
1.997799e+003,7.221954e+000
1.998763e+003,8.138275e+000
1.999728e+003,9.625153e+000
