5.003444e+002,3.773285e+001
5.013087e+002,3.696353e+001
5.022729e+002,3.505008e+001
5.032371e+002,3.261115e+001
5.042014e+002,3.095206e+001
5.051656e+002,3.002798e+001
5.061298e+002,2.951993e+001
5.070941e+002,2.907797e+001
5.080583e+002,2.849182e+001
5.090225e+002,2.871072e+001
5.099868e+002,3.051855e+001
5.109510e+002,3.204883e+001
5.119152e+002,3.216605e+001
5.128795e+002,3.074695e+001
5.138437e+002,2.957022e+001
5.148079e+002,3.013904e+001
5.157722e+002,3.036728e+001
5.167364e+002,2.886411e+001
5.177006e+002,2.572113e+001
5.186649e+002,2.246429e+001
5.196291e+002,2.097345e+001
5.205933e+002,2.090063e+001
5.215576e+002,2.188440e+001
5.225218e+002,2.360141e+001
5.234860e+002,2.563376e+001
5.244503e+002,2.753748e+001
5.254145e+002,2.973755e+001
5.263787e+002,2.953241e+001
5.273430e+002,2.517245e+001
5.283072e+002,1.959305e+001
5.292714e+002,1.681577e+001
5.302357e+002,1.785355e+001
5.311999e+002,1.931500e+001
5.321641e+002,2.178714e+001
5.331284e+002,2.411188e+001
5.340926e+002,2.520499e+001
5.350568e+002,2.452054e+001
5.360211e+002,2.308911e+001
5.369853e+002,2.160510e+001
5.379495e+002,2.043906e+001
5.389138e+002,2.004791e+001
5.398780e+002,2.047809e+001
5.408422e+002,2.124866e+001
5.418065e+002,2.107346e+001
5.427707e+002,2.007376e+001
5.437349e+002,1.889511e+001
5.446992e+002,1.753305e+001
5.456634e+002,1.614688e+001
5.466276e+002,1.536420e+001
5.475919e+002,1.577606e+001
5.485561e+002,1.632922e+001
5.495203e+002,1.751373e+001
5.504846e+002,1.849286e+001
5.514488e+002,1.796313e+001
5.524130e+002,1.483920e+001
5.533773e+002,1.184991e+001
5.543415e+002,1.032571e+001
5.553057e+002,9.662659e+000
5.562700e+002,9.135162e+000
5.572342e+002,8.281708e+000
5.581984e+002,7.593933e+000
5.591627e+002,9.089996e+000
5.601269e+002,1.187646e+001
5.610911e+002,1.367093e+001
5.620554e+002,1.316464e+001
5.630196e+002,1.063382e+001
5.639838e+002,9.234680e+000
5.649481e+002,9.681274e+000
5.659123e+002,1.021692e+001
5.668765e+002,1.097055e+001
5.678408e+002,1.188553e+001
5.688050e+002,1.251404e+001
5.697692e+002,1.248441e+001
5.707335e+002,1.183548e+001
5.716977e+002,1.016470e+001
5.726619e+002,8.216125e+000
5.736262e+002,7.073303e+000
5.745904e+002,7.651184e+000
5.755546e+002,8.707092e+000
5.765189e+002,7.872589e+000
5.774831e+002,5.832825e+000
5.784473e+002,3.968506e+000
5.794116e+002,3.298035e+000
5.803758e+002,3.817810e+000
5.813400e+002,4.030731e+000
5.823043e+002,3.609528e+000
5.832685e+002,3.132690e+000
5.842327e+002,2.975555e+000
5.851970e+002,3.199951e+000
5.861612e+002,3.450165e+000
5.871254e+002,3.361389e+000
5.880897e+002,3.405426e+000
5.890539e+002,3.841125e+000
5.900181e+002,4.336517e+000
5.909824e+002,4.379608e+000
5.919466e+002,3.612488e+000
5.929108e+002,2.529694e+000
5.938751e+002,1.343414e+000
5.948393e+002,3.276672e-001
5.958035e+002,1.395874e-001
5.967678e+002,1.255035e+000
5.977320e+002,3.407867e+000
5.986962e+002,3.560913e+000
5.996605e+002,1.432159e+000
6.006247e+002,-1.147766e-001
6.015889e+002,9.517822e-001
6.025532e+002,4.355377e+000
6.035174e+002,5.684052e+000
6.044816e+002,1.245758e+000
6.054459e+002,-1.236755e+000
6.064101e+002,1.251434e+000
6.073743e+002,6.126404e+000
6.083386e+002,8.315002e+000
6.093028e+002,3.803558e+000
6.102670e+002,-9.522095e-001
6.112313e+002,-6.828308e-001
6.121955e+002,2.331482e+000
6.131597e+002,5.234192e+000
6.141240e+002,6.047394e+000
6.150882e+002,5.233429e+000
6.160524e+002,4.795380e+000
6.170167e+002,4.751831e+000
6.179809e+002,4.545349e+000
6.189451e+002,3.542847e+000
6.199094e+002,1.926788e+000
6.208736e+002,1.769073e+000
6.218378e+002,5.932678e+000
6.228021e+002,8.645996e+000
6.237663e+002,8.731873e+000
6.247305e+002,7.300323e+000
6.256948e+002,6.067688e+000
6.266590e+002,5.540405e+000
6.276232e+002,5.156952e+000
6.285875e+002,5.019379e+000
6.295517e+002,4.838013e+000
6.305159e+002,4.067688e+000
6.314802e+002,2.415741e+000
6.324444e+002,3.540344e-001
6.334086e+002,-4.341431e-001
6.343729e+002,-2.083130e-001
6.353371e+002,1.284180e-001
6.363013e+002,2.103271e-001
6.372656e+002,1.047974e-001
6.382298e+002,2.355957e-001
6.391940e+002,1.805725e+000
6.401583e+002,1.694519e+000
6.411225e+002,-1.306824e+000
6.420867e+002,-5.034027e+000
6.430510e+002,-7.035065e+000
6.440152e+002,-6.531647e+000
6.449794e+002,-5.357452e+000
6.459437e+002,-3.956482e+000
6.469079e+002,-2.772308e+000
6.478721e+002,-2.230743e+000
6.488364e+002,-2.376190e+000
6.498006e+002,-2.733948e+000
6.507648e+002,-2.654175e+000
6.517291e+002,-2.216919e+000
6.526933e+002,-1.264160e+000
6.536575e+002,2.753296e-001
6.546218e+002,1.847565e+000
6.555860e+002,2.394989e+000
6.565502e+002,1.392151e+000
6.575145e+002,2.319641e-001
6.584787e+002,-1.424286e+000
6.594429e+002,-2.927948e+000
6.604072e+002,-3.570648e+000
6.613714e+002,-3.138702e+000
6.623356e+002,-3.031036e+000
6.632999e+002,-4.819641e+000
6.642641e+002,-6.551605e+000
6.652283e+002,-6.947998e+000
6.661926e+002,-5.968262e+000
6.671568e+002,-4.480255e+000
6.681210e+002,-3.510498e+000
6.690853e+002,-3.019012e+000
6.700495e+002,-2.664276e+000
6.710137e+002,-2.406067e+000
6.719780e+002,-2.043884e+000
6.729422e+002,-1.367981e+000
6.739064e+002,-3.749390e-001
6.748707e+002,5.185547e-001
6.758349e+002,1.636200e+000
6.767991e+002,2.266693e+000
6.777634e+002,2.132416e+000
6.787276e+002,1.416931e+000
6.796918e+002,6.820374e-001
6.806561e+002,-4.304810e-001
6.816203e+002,-1.210083e+000
6.825845e+002,-1.426147e+000
6.835488e+002,-1.105682e+000
6.845130e+002,-8.639526e-002
6.854772e+002,1.919312e+000
6.864415e+002,4.106903e+000
6.874057e+002,4.048737e+000
6.883699e+002,2.343475e+000
6.893342e+002,1.061920e+000
6.902984e+002,1.498260e+000
6.912626e+002,3.262970e+000
6.922269e+002,3.265442e+000
6.931911e+002,-2.298889e-001
6.941553e+002,-2.645172e+000
6.951196e+002,-3.707336e+000
6.960838e+002,-3.791809e+000
6.970480e+002,-3.194092e+000
6.980123e+002,-1.506409e+000
6.989765e+002,-7.595825e-002
6.999407e+002,7.082214e-001
7.009050e+002,9.346619e-001
7.018692e+002,5.374146e-001
7.028334e+002,-4.631653e-001
7.037977e+002,-1.894562e+000
7.047619e+002,-3.948029e+000
7.057261e+002,-5.786224e+000
7.066904e+002,-5.495880e+000
7.076546e+002,-2.781128e+000
7.086188e+002,6.730347e-001
7.095831e+002,2.180298e+000
7.105473e+002,9.930420e-001
7.115115e+002,-3.724670e-001
7.124758e+002,-2.397522e+000
7.134400e+002,-4.212708e+000
7.144042e+002,-5.170685e+000
7.153685e+002,-5.199677e+000
7.163327e+002,-4.975342e+000
7.172969e+002,-4.385986e+000
7.182612e+002,-3.945282e+000
7.192254e+002,-4.080627e+000
7.201896e+002,-4.619934e+000
7.211539e+002,-5.141663e+000
7.221181e+002,-5.270020e+000
7.230823e+002,-5.146027e+000
7.240466e+002,-5.373779e+000
7.250108e+002,-5.670380e+000
7.259750e+002,-5.157410e+000
7.269393e+002,-3.247284e+000
7.279035e+002,-4.623718e-001
7.288677e+002,3.018188e-001
7.298320e+002,-3.583923e+000
7.307962e+002,-5.510681e+000
7.317604e+002,-3.551025e+000
7.327247e+002,5.374146e-002
7.336889e+002,2.005127e+000
7.346531e+002,8.907166e-001
7.356174e+002,-1.034668e+000
7.365816e+002,-2.781769e+000
7.375458e+002,-3.902893e+000
7.385101e+002,-4.001129e+000
7.394743e+002,-3.026001e+000
7.404385e+002,-1.187622e+000
7.414028e+002,1.611603e+000
7.423670e+002,4.435211e+000
7.433312e+002,4.704346e+000
7.442955e+002,2.290192e+000
7.452597e+002,-5.404053e-001
7.462239e+002,-1.224060e+000
7.471882e+002,8.963318e-001
7.481524e+002,1.995026e+000
7.491166e+002,7.972717e-001
7.500809e+002,-2.740479e-001
7.510451e+002,-1.322937e-001
7.520093e+002,9.553223e-001
7.529736e+002,1.848267e+000
7.539378e+002,2.188782e+000
7.549020e+002,2.373962e+000
7.558663e+002,2.305573e+000
7.568306e+002,2.334747e+000
7.577948e+002,3.261902e+000
7.587590e+002,5.384277e+000
7.597233e+002,7.556458e+000
7.606875e+002,5.865143e+000
7.616517e+002,1.003082e+000
7.626160e+002,-2.275909e+000
7.635802e+002,-2.462585e+000
7.645444e+002,-6.683044e-001
7.655087e+002,8.583984e-001
7.664729e+002,2.076263e+000
7.674371e+002,2.913452e+000
7.684014e+002,2.802246e+000
7.693656e+002,2.852386e+000
7.703298e+002,4.467255e+000
7.712941e+002,7.500916e+000
7.722583e+002,9.215851e+000
7.732225e+002,5.907104e+000
7.741868e+002,2.043427e+000
7.751510e+002,1.658752e+000
7.761152e+002,3.827637e+000
7.770795e+002,5.475372e+000
7.780437e+002,3.839172e+000
7.790079e+002,-4.354248e-001
7.799722e+002,-7.827148e-001
7.809364e+002,2.951630e+000
7.819006e+002,6.497437e+000
7.828649e+002,8.615387e+000
7.838291e+002,9.525055e+000
7.847933e+002,9.645142e+000
7.857576e+002,8.595032e+000
7.867218e+002,6.688782e+000
7.876860e+002,3.246094e+000
7.886503e+002,-3.833008e-002
7.896145e+002,-1.804199e+000
7.905787e+002,-1.705902e+000
7.915430e+002,-5.246887e-001
7.925072e+002,1.796387e+000
7.934714e+002,3.883728e+000
7.944357e+002,3.846771e+000
7.953999e+002,2.072540e+000
7.963641e+002,7.535706e-001
7.973284e+002,2.408630e+000
7.982926e+002,7.365936e+000
7.992568e+002,8.607391e+000
8.002211e+002,3.798462e+000
8.011853e+002,-4.582214e-001
8.021495e+002,-9.353333e-001
8.031138e+002,1.599152e+000
8.040780e+002,3.496094e+000
8.050422e+002,3.158844e+000
8.060065e+002,3.225586e+000
8.069707e+002,5.353210e+000
8.079349e+002,7.575714e+000
8.088992e+002,7.670715e+000
8.098634e+002,5.109192e+000
8.108276e+002,2.015472e+000
8.117919e+002,1.345734e+000
8.127561e+002,1.998383e+000
8.137203e+002,2.594208e+000
8.146846e+002,3.117096e+000
8.156488e+002,3.120880e+000
8.166130e+002,1.716827e+000
8.175773e+002,-1.742249e+000
8.185415e+002,-2.923431e+000
8.195057e+002,-9.201660e-001
8.204700e+002,1.412537e+000
8.214342e+002,3.352844e+000
8.223984e+002,4.909058e+000
8.233627e+002,6.330902e+000
8.243269e+002,8.023621e+000
8.252911e+002,8.996643e+000
8.262554e+002,7.839081e+000
8.272196e+002,6.304596e+000
8.281838e+002,6.784668e+000
8.291481e+002,9.761230e+000
8.301123e+002,1.289813e+001
8.310765e+002,1.164053e+001
8.320408e+002,6.397369e+000
8.330050e+002,3.826477e+000
8.339692e+002,4.864624e+000
8.349335e+002,6.892670e+000
8.358977e+002,7.240356e+000
8.368619e+002,5.690277e+000
8.378262e+002,4.842468e+000
8.387904e+002,4.846100e+000
8.397546e+002,5.199341e+000
8.407189e+002,5.961731e+000
8.416831e+002,6.991333e+000
8.426473e+002,8.098724e+000
8.436116e+002,9.228882e+000
8.445758e+002,1.043350e+001
8.455400e+002,1.204749e+001
8.465043e+002,1.328470e+001
8.474685e+002,1.334360e+001
8.484327e+002,1.218515e+001
8.493970e+002,1.025528e+001
8.503612e+002,7.972321e+000
8.513254e+002,4.974426e+000
8.522897e+002,4.614380e+000
8.532539e+002,8.512939e+000
8.542181e+002,1.236301e+001
8.551824e+002,1.359067e+001
8.561466e+002,1.268686e+001
8.571108e+002,1.240192e+001
8.580751e+002,1.353452e+001
8.590393e+002,1.410651e+001
8.600035e+002,1.295767e+001
8.609678e+002,1.151840e+001
8.619320e+002,1.153452e+001
8.628962e+002,1.361038e+001
8.638605e+002,1.641370e+001
8.648247e+002,1.823471e+001
8.657889e+002,1.912585e+001
8.667532e+002,1.904410e+001
8.677174e+002,1.798334e+001
8.686816e+002,1.665366e+001
8.696459e+002,1.587570e+001
8.706101e+002,1.578918e+001
8.715743e+002,1.598648e+001
8.725386e+002,1.665448e+001
8.735028e+002,1.737347e+001
8.744670e+002,1.781647e+001
8.754313e+002,1.804544e+001
8.763955e+002,1.843027e+001
8.773597e+002,1.930115e+001
8.783240e+002,1.994272e+001
8.792882e+002,1.911227e+001
8.802524e+002,1.815262e+001
8.812167e+002,1.863235e+001
8.821809e+002,2.059280e+001
8.831451e+002,2.268042e+001
8.841094e+002,2.314682e+001
8.850736e+002,2.215262e+001
8.860378e+002,2.146487e+001
8.870021e+002,2.076715e+001
8.879663e+002,2.088806e+001
8.889305e+002,2.287338e+001
8.898948e+002,2.614685e+001
8.908590e+002,2.791711e+001
8.918232e+002,2.720374e+001
8.927875e+002,2.650317e+001
8.937517e+002,2.567609e+001
8.947159e+002,2.555078e+001
8.956802e+002,2.744485e+001
8.966444e+002,3.108881e+001
8.976086e+002,3.384219e+001
8.985729e+002,3.270557e+001
8.995371e+002,2.959753e+001
9.005013e+002,2.735861e+001
9.014656e+002,2.619592e+001
9.024298e+002,2.618005e+001
9.033940e+002,2.736923e+001
9.043583e+002,2.944983e+001
9.053225e+002,3.099680e+001
9.062867e+002,3.107977e+001
9.072510e+002,3.157266e+001
9.082152e+002,3.344308e+001
9.091794e+002,3.550296e+001
9.101437e+002,3.635315e+001
9.111079e+002,3.574069e+001
9.120721e+002,3.519977e+001
9.130364e+002,3.653577e+001
9.140006e+002,3.701047e+001
9.149648e+002,3.393494e+001
9.159291e+002,2.902994e+001
9.168933e+002,2.580795e+001
9.178575e+002,2.662659e+001
9.188218e+002,3.020190e+001
9.197860e+002,3.266431e+001
9.207502e+002,3.397125e+001
9.217145e+002,3.446075e+001
9.226787e+002,3.416626e+001
9.236429e+002,3.350003e+001
9.246072e+002,3.294983e+001
9.255714e+002,3.254868e+001
9.265356e+002,3.133499e+001
9.274999e+002,2.755798e+001
9.284641e+002,2.453754e+001
9.294283e+002,2.401987e+001
9.303926e+002,2.508536e+001
9.313568e+002,2.579953e+001
9.323210e+002,2.511533e+001
9.332853e+002,2.417096e+001
9.342495e+002,2.546765e+001
9.352137e+002,2.757690e+001
9.361780e+002,2.822662e+001
9.371422e+002,2.707364e+001
9.381064e+002,2.545322e+001
9.390707e+002,2.502057e+001
9.400349e+002,2.583136e+001
9.409991e+002,2.619308e+001
9.419634e+002,2.606607e+001
9.429276e+002,2.553381e+001
9.438918e+002,2.425909e+001
9.448561e+002,2.277252e+001
9.458203e+002,2.196204e+001
9.467845e+002,2.217850e+001
9.477488e+002,2.281262e+001
9.487130e+002,2.354507e+001
9.496772e+002,2.431708e+001
9.506415e+002,2.523483e+001
9.516057e+002,2.618130e+001
9.525699e+002,2.677942e+001
9.535342e+002,2.663632e+001
9.544984e+002,2.577191e+001
9.554626e+002,2.491180e+001
9.564269e+002,2.431659e+001
9.573911e+002,2.374866e+001
9.583553e+002,2.252942e+001
9.593196e+002,2.146338e+001
9.602838e+002,2.212009e+001
9.612480e+002,2.496167e+001
9.622123e+002,2.758511e+001
9.631765e+002,3.016937e+001
9.641407e+002,3.168103e+001
9.651050e+002,3.107251e+001
9.660692e+002,2.891000e+001
9.670334e+002,2.627505e+001
9.679977e+002,2.390009e+001
9.689619e+002,2.224350e+001
9.699261e+002,2.244772e+001
9.708904e+002,2.383069e+001
9.718546e+002,2.489960e+001
9.728188e+002,2.515109e+001
9.737831e+002,2.544803e+001
9.747473e+002,2.737393e+001
9.757115e+002,3.160590e+001
9.766758e+002,3.405652e+001
9.776400e+002,3.376447e+001
9.786042e+002,3.314078e+001
9.795685e+002,3.248187e+001
9.805327e+002,3.166785e+001
9.814969e+002,3.058990e+001
9.824612e+002,2.932471e+001
9.834254e+002,2.801654e+001
9.843896e+002,2.619482e+001
9.853539e+002,2.448962e+001
9.863181e+002,2.413123e+001
9.872823e+002,2.471335e+001
9.882466e+002,2.441446e+001
9.892108e+002,2.177206e+001
9.901750e+002,1.763190e+001
9.911393e+002,1.661685e+001
9.921035e+002,2.186700e+001
9.930677e+002,2.417892e+001
9.940320e+002,2.083722e+001
9.949962e+002,1.659833e+001
9.959604e+002,1.577435e+001
9.969247e+002,1.866534e+001
9.978889e+002,2.268103e+001
9.988531e+002,2.753329e+001
9.998174e+002,3.158417e+001
1.000782e+003,3.368173e+001
1.001746e+003,3.475830e+001
1.002710e+003,3.638324e+001
1.003674e+003,3.906775e+001
1.004639e+003,4.147681e+001
1.005603e+003,4.107901e+001
1.006567e+003,3.747885e+001
1.007531e+003,3.583209e+001
1.008495e+003,3.702652e+001
1.009460e+003,3.833588e+001
1.010424e+003,3.782458e+001
1.011388e+003,3.612137e+001
1.012352e+003,3.586337e+001
1.013317e+003,3.859720e+001
1.014281e+003,3.995468e+001
1.015245e+003,3.817072e+001
1.016209e+003,3.509433e+001
1.017174e+003,3.137253e+001
1.018138e+003,2.770374e+001
1.019102e+003,2.524017e+001
1.020066e+003,2.511606e+001
1.021031e+003,2.644412e+001
1.021995e+003,2.636783e+001
1.022959e+003,2.500095e+001
1.023923e+003,2.332196e+001
1.024887e+003,2.160342e+001
1.025852e+003,1.971866e+001
1.026816e+003,1.728775e+001
1.027780e+003,1.405600e+001
1.028744e+003,1.216489e+001
1.029709e+003,1.344153e+001
1.030673e+003,1.402814e+001
1.031637e+003,1.227530e+001
1.032601e+003,9.245148e+000
1.033566e+003,6.321106e+000
1.034530e+003,4.074860e+000
1.035494e+003,2.777588e+000
1.036458e+003,2.937927e+000
1.037422e+003,4.057678e+000
1.038387e+003,5.707764e+000
1.039351e+003,7.647797e+000
1.040315e+003,8.803070e+000
1.041279e+003,8.350281e+000
1.042244e+003,6.691895e+000
1.043208e+003,5.421143e+000
1.044172e+003,4.012695e+000
1.045136e+003,3.752502e+000
1.046101e+003,5.771240e+000
1.047065e+003,7.917297e+000
1.048029e+003,8.752899e+000
1.048993e+003,8.392029e+000
1.049958e+003,7.866943e+000
1.050922e+003,7.732758e+000
1.051886e+003,7.644592e+000
1.052850e+003,7.027832e+000
1.053814e+003,6.272522e+000
1.054779e+003,5.774475e+000
1.055743e+003,5.654114e+000
1.056707e+003,6.034637e+000
1.057671e+003,7.102142e+000
1.058636e+003,8.829590e+000
1.059600e+003,1.040106e+001
1.060564e+003,1.242587e+001
1.061528e+003,1.386502e+001
1.062493e+003,1.443649e+001
1.063457e+003,1.411624e+001
1.064421e+003,1.261417e+001
1.065385e+003,1.002301e+001
1.066349e+003,7.946472e+000
1.067314e+003,7.376892e+000
1.068278e+003,7.421753e+000
1.069242e+003,8.044312e+000
1.070206e+003,8.677551e+000
1.071171e+003,7.801361e+000
1.072135e+003,5.046997e+000
1.073099e+003,2.622437e+000
1.074063e+003,4.605865e+000
1.075028e+003,1.171613e+001
1.075992e+003,1.460098e+001
1.076956e+003,1.088074e+001
1.077920e+003,7.497833e+000
1.078885e+003,7.889191e+000
1.079849e+003,1.017331e+001
1.080813e+003,1.061932e+001
1.081777e+003,8.433929e+000
1.082741e+003,6.274170e+000
1.083706e+003,4.546326e+000
1.084670e+003,3.726196e+000
1.085634e+003,4.745270e+000
1.086598e+003,6.828094e+000
1.087563e+003,8.961395e+000
1.088527e+003,1.051694e+001
1.089491e+003,1.085645e+001
1.090455e+003,7.949799e+000
1.091420e+003,1.196960e+000
1.092384e+003,-4.739990e-001
1.093348e+003,5.470642e+000
1.094312e+003,1.149075e+001
1.095276e+003,1.349097e+001
1.096241e+003,1.240903e+001
1.097205e+003,1.053650e+001
1.098169e+003,7.611053e+000
1.099133e+003,4.995789e+000
1.100098e+003,2.652557e+000
1.101062e+003,1.365356e+000
1.102026e+003,1.988861e+000
1.102990e+003,4.104004e+000
1.103955e+003,7.050995e+000
1.104919e+003,1.035339e+001
1.105883e+003,1.304568e+001
1.106847e+003,1.288477e+001
1.107812e+003,9.762115e+000
1.108776e+003,7.239044e+000
1.109740e+003,5.268066e+000
1.110704e+003,4.297424e+000
1.111668e+003,5.211517e+000
1.112633e+003,7.662415e+000
1.113597e+003,9.721008e+000
1.114561e+003,1.111475e+001
1.115525e+003,1.197379e+001
1.116490e+003,1.182809e+001
1.117454e+003,1.167706e+001
1.118418e+003,1.264676e+001
1.119382e+003,1.433319e+001
1.120347e+003,1.529471e+001
1.121311e+003,1.452313e+001
1.122275e+003,1.273892e+001
1.123239e+003,1.167520e+001
1.124203e+003,1.157455e+001
1.125168e+003,1.226492e+001
1.126132e+003,1.377740e+001
1.127096e+003,1.613312e+001
1.128060e+003,2.016815e+001
1.129025e+003,2.512320e+001
1.129989e+003,2.739203e+001
1.130953e+003,2.557761e+001
1.131917e+003,2.344501e+001
1.132882e+003,2.105829e+001
1.133846e+003,1.975436e+001
1.134810e+003,2.112784e+001
1.135774e+003,2.421365e+001
1.136739e+003,2.655649e+001
1.137703e+003,2.678860e+001
1.138667e+003,2.653250e+001
1.139631e+003,2.886703e+001
1.140595e+003,3.348822e+001
1.141560e+003,3.738574e+001
1.142524e+003,4.027890e+001
1.143488e+003,4.347562e+001
1.144452e+003,4.765802e+001
1.145417e+003,5.278073e+001
1.146381e+003,5.862906e+001
1.147345e+003,6.497351e+001
1.148309e+003,7.259216e+001
1.149274e+003,8.284637e+001
1.150238e+003,9.327911e+001
1.151202e+003,1.029127e+002
1.152166e+003,1.118925e+002
1.153130e+003,1.208578e+002
1.154095e+003,1.298769e+002
1.155059e+003,1.377435e+002
1.156023e+003,1.430046e+002
1.156987e+003,1.457196e+002
1.157952e+003,1.474633e+002
1.158916e+003,1.488922e+002
1.159880e+003,1.478738e+002
1.160844e+003,1.422871e+002
1.161809e+003,1.331565e+002
1.162773e+003,1.231243e+002
1.163737e+003,1.120612e+002
1.164701e+003,1.008237e+002
1.165666e+003,8.777374e+001
1.166630e+003,7.687268e+001
1.167594e+003,7.070538e+001
1.168558e+003,6.707037e+001
1.169522e+003,6.281107e+001
1.170487e+003,5.708722e+001
1.171451e+003,5.201074e+001
1.172415e+003,5.002176e+001
1.173379e+003,5.049701e+001
1.174344e+003,5.019037e+001
1.175308e+003,4.907443e+001
1.176272e+003,4.854489e+001
1.177236e+003,5.014856e+001
1.178201e+003,5.183261e+001
1.179165e+003,5.049164e+001
1.180129e+003,4.596207e+001
1.181093e+003,4.167361e+001
1.182057e+003,3.765805e+001
1.183022e+003,3.525305e+001
1.183986e+003,3.586130e+001
1.184950e+003,3.745346e+001
1.185914e+003,3.804251e+001
1.186879e+003,3.757767e+001
1.187843e+003,3.764050e+001
1.188807e+003,3.952194e+001
1.189771e+003,4.196704e+001
1.190736e+003,4.076239e+001
1.191700e+003,3.523309e+001
1.192664e+003,3.340063e+001
1.193628e+003,3.902301e+001
1.194593e+003,4.465753e+001
1.195557e+003,4.441913e+001
1.196521e+003,3.982214e+001
1.197485e+003,3.625671e+001
1.198449e+003,3.472348e+001
1.199414e+003,3.367804e+001
1.200378e+003,3.275613e+001
1.201342e+003,3.181003e+001
1.202306e+003,3.053903e+001
1.203271e+003,2.910385e+001
1.204235e+003,2.817783e+001
1.205199e+003,2.799274e+001
1.206163e+003,2.744833e+001
1.207128e+003,2.444125e+001
1.208092e+003,1.877658e+001
1.209056e+003,1.608191e+001
1.210020e+003,1.765302e+001
1.210984e+003,1.902383e+001
1.211949e+003,1.906793e+001
1.212913e+003,1.808173e+001
1.213877e+003,1.655713e+001
1.214841e+003,1.455820e+001
1.215806e+003,1.145514e+001
1.216770e+003,5.785156e+000
1.217734e+003,8.276367e-001
1.218698e+003,-1.102631e+000
1.219663e+003,-1.379791e+000
1.220627e+003,-1.409821e+000
1.221591e+003,-1.612854e+000
1.222555e+003,-1.836639e+000
1.223520e+003,-1.894745e+000
1.224484e+003,-1.917816e+000
1.225448e+003,-2.843750e+000
1.226412e+003,-5.412689e+000
1.227376e+003,-7.303772e+000
1.228341e+003,-8.413330e+000
1.229305e+003,-9.097076e+000
1.230269e+003,-9.479614e+000
1.231233e+003,-9.604980e+000
1.232198e+003,-9.537445e+000
1.233162e+003,-9.244202e+000
1.234126e+003,-8.331787e+000
1.235090e+003,-5.742249e+000
1.236055e+003,-3.374298e+000
1.237019e+003,-3.824158e+000
1.237983e+003,-6.124359e+000
1.238947e+003,-7.228546e+000
1.239911e+003,-5.820526e+000
1.240876e+003,-4.032257e+000
1.241840e+003,-5.343567e+000
1.242804e+003,-1.000662e+001
1.243768e+003,-1.290817e+001
1.244733e+003,-1.339282e+001
1.245697e+003,-1.271295e+001
1.246661e+003,-1.002618e+001
1.247625e+003,-7.300232e+000
1.248590e+003,-6.015381e+000
1.249554e+003,-5.816284e+000
1.250518e+003,-5.439453e+000
1.251482e+003,-4.383911e+000
1.252447e+003,-3.190308e+000
1.253411e+003,-2.380615e+000
1.254375e+003,-1.731934e+000
1.255339e+003,-7.314758e-001
1.256303e+003,6.592712e-001
1.257268e+003,1.507385e+000
1.258232e+003,8.714294e-001
1.259196e+003,-4.017334e-001
1.260160e+003,-1.370239e-001
1.261125e+003,2.176941e+000
1.262089e+003,3.668488e+000
1.263053e+003,3.347382e+000
1.264017e+003,2.701477e+000
1.264982e+003,1.551178e+000
1.265946e+003,7.283630e-001
1.266910e+003,1.114929e+000
1.267874e+003,2.593750e+000
1.268839e+003,4.585724e+000
1.269803e+003,6.738220e+000
1.270767e+003,8.424927e+000
1.271731e+003,8.271759e+000
1.272695e+003,6.349701e+000
1.273660e+003,4.502350e+000
1.274624e+003,2.379486e+000
1.275588e+003,7.707214e-001
1.276552e+003,4.752808e-001
1.277517e+003,1.069672e+000
1.278481e+003,1.975037e+000
1.279445e+003,3.242798e+000
1.280409e+003,2.951935e+000
1.281374e+003,-6.012268e-001
1.282338e+003,-4.398102e+000
1.283302e+003,-7.636566e+000
1.284266e+003,-9.818909e+000
1.285230e+003,-9.989227e+000
1.286195e+003,-8.430969e+000
1.287159e+003,-6.475098e+000
1.288123e+003,-5.153015e+000
1.289087e+003,-4.522644e+000
1.290052e+003,-5.127106e+000
1.291016e+003,-7.843262e+000
1.291980e+003,-8.929932e+000
1.292944e+003,-7.418304e+000
1.293909e+003,-5.945892e+000
1.294873e+003,-5.071838e+000
1.295837e+003,-4.842896e+000
1.296801e+003,-5.667664e+000
1.297766e+003,-7.463928e+000
1.298730e+003,-9.005951e+000
1.299694e+003,-9.881439e+000
1.300658e+003,-1.002213e+001
1.301622e+003,-8.598694e+000
1.302587e+003,-6.625488e+000
1.303551e+003,-6.216705e+000
1.304515e+003,-7.493256e+000
1.305479e+003,-8.005402e+000
1.306444e+003,-5.559631e+000
1.307408e+003,-1.422272e+000
1.308372e+003,1.096497e-001
1.309336e+003,-2.046692e+000
1.310301e+003,-3.527527e+000
1.311265e+003,-3.039734e+000
1.312229e+003,-3.036469e+000
1.313193e+003,-4.825073e+000
1.314157e+003,-7.110016e+000
1.315122e+003,-8.535278e+000
1.316086e+003,-8.985565e+000
1.317050e+003,-9.110901e+000
1.318014e+003,-9.250275e+000
1.318979e+003,-9.441956e+000
1.319943e+003,-1.012711e+001
1.320907e+003,-1.102509e+001
1.321871e+003,-1.021127e+001
1.322836e+003,-7.136353e+000
1.323800e+003,-4.698181e+000
1.324764e+003,-4.866150e+000
1.325728e+003,-6.344940e+000
1.326693e+003,-7.050018e+000
1.327657e+003,-6.986786e+000
1.328621e+003,-6.805359e+000
1.329585e+003,-6.243683e+000
1.330549e+003,-5.526184e+000
1.331514e+003,-5.582306e+000
1.332478e+003,-5.544495e+000
1.333442e+003,-3.741852e+000
1.334406e+003,-7.995605e-001
1.335371e+003,6.264648e-001
1.336335e+003,-1.007385e+000
1.337299e+003,-3.908569e+000
1.338263e+003,-4.653320e+000
1.339228e+003,-2.894775e+000
1.340192e+003,-2.200134e+000
1.341156e+003,-3.554871e+000
1.342120e+003,-4.457825e+000
1.343084e+003,-4.356567e+000
1.344049e+003,-4.107239e+000
1.345013e+003,-4.424896e+000
1.345977e+003,-5.018890e+000
1.346941e+003,-4.940186e+000
1.347906e+003,-3.814148e+000
1.348870e+003,-2.700073e+000
1.349834e+003,-2.486603e+000
1.350798e+003,-3.160706e+000
1.351763e+003,-4.878418e+000
1.352727e+003,-7.287201e+000
1.353691e+003,-8.459015e+000
1.354655e+003,-7.450989e+000
1.355620e+003,-5.806244e+000
1.356584e+003,-5.559021e+000
1.357548e+003,-6.408936e+000
1.358512e+003,-5.808289e+000
1.359476e+003,-2.861115e+000
1.360441e+003,-1.092529e+000
1.361405e+003,-2.039948e+000
1.362369e+003,-3.480774e+000
1.363333e+003,-4.614410e+000
1.364298e+003,-5.417358e+000
1.365262e+003,-5.894592e+000
1.366226e+003,-6.146973e+000
1.367190e+003,-6.641205e+000
1.368155e+003,-7.832489e+000
1.369119e+003,-9.054718e+000
1.370083e+003,-8.012390e+000
1.371047e+003,-3.635895e+000
1.372011e+003,-1.327454e+000
1.372976e+003,-2.844116e+000
1.373940e+003,-4.300781e+000
1.374904e+003,-4.084930e+000
1.375868e+003,-3.038116e+000
1.376833e+003,-2.145630e+000
1.377797e+003,-1.576599e+000
1.378761e+003,-1.312317e+000
1.379725e+003,-1.414673e+000
1.380690e+003,-1.461548e+000
1.381654e+003,-6.565552e-001
1.382618e+003,3.498840e-001
1.383582e+003,4.195557e-001
1.384547e+003,-3.554077e-001
1.385511e+003,-8.175049e-001
1.386475e+003,-3.707886e-001
1.387439e+003,3.663940e-001
1.388403e+003,4.404907e-001
1.389368e+003,-1.604309e-001
1.390332e+003,-5.175171e-001
1.391296e+003,-3.153992e-001
1.392260e+003,-2.714539e-001
1.393225e+003,-6.392822e-001
1.394189e+003,-1.153229e+000
1.395153e+003,-2.444916e+000
1.396117e+003,-3.432861e+000
1.397082e+003,-1.729675e+000
1.398046e+003,2.629700e+000
1.399010e+003,6.141388e+000
1.399974e+003,5.449219e+000
1.400938e+003,1.815582e+000
1.401903e+003,-3.051147e-001
1.402867e+003,3.356934e-003
1.403831e+003,-3.821106e-001
1.404795e+003,-3.449890e+000
1.405760e+003,-4.892609e+000
1.406724e+003,-1.751648e+000
1.407688e+003,2.291504e+000
1.408652e+003,2.802185e+000
1.409617e+003,2.110291e-001
1.410581e+003,-1.731720e+000
1.411545e+003,-1.509460e+000
1.412509e+003,-6.215210e-001
1.413474e+003,-8.667908e-001
1.414438e+003,-1.313965e+000
1.415402e+003,5.145569e-001
1.416366e+003,4.203400e+000
1.417330e+003,6.253052e+000
1.418295e+003,5.074860e+000
1.419259e+003,2.706909e+000
1.420223e+003,1.156128e+000
1.421187e+003,2.936096e-001
1.422152e+003,-1.266479e-001
1.423116e+003,4.833984e-002
1.424080e+003,6.691589e-001
1.425044e+003,2.284058e+000
1.426009e+003,3.409943e+000
1.426973e+003,3.179993e+000
1.427937e+003,2.246887e+000
1.428901e+003,1.114014e+000
1.429865e+003,1.979980e-001
1.430830e+003,1.731873e-001
1.431794e+003,1.395233e+000
1.432758e+003,3.163147e+000
1.433722e+003,4.269928e+000
1.434687e+003,4.881104e+000
1.435651e+003,5.499939e+000
1.436615e+003,5.412231e+000
1.437579e+003,5.435516e+000
1.438544e+003,6.088257e+000
1.439508e+003,6.543915e+000
1.440472e+003,6.084045e+000
1.441436e+003,5.260254e+000
1.442401e+003,5.178101e+000
1.443365e+003,5.972595e+000
1.444329e+003,6.365479e+000
1.445293e+003,5.172089e+000
1.446257e+003,3.924469e+000
1.447222e+003,6.511230e+000
1.448186e+003,1.181873e+001
1.449150e+003,1.329816e+001
1.450114e+003,9.496521e+000
1.451079e+003,5.365814e+000
1.452043e+003,3.048553e+000
1.453007e+003,2.248138e+000
1.453971e+003,2.951477e+000
1.454936e+003,4.846649e+000
1.455900e+003,6.153900e+000
1.456864e+003,6.453796e+000
1.457828e+003,6.605286e+000
1.458792e+003,7.106293e+000
1.459757e+003,7.454285e+000
1.460721e+003,7.265442e+000
1.461685e+003,6.608337e+000
1.462649e+003,5.676514e+000
1.463614e+003,4.587372e+000
1.464578e+003,3.248932e+000
1.465542e+003,1.330688e+000
1.466506e+003,-6.017761e-001
1.467471e+003,-3.825684e-001
1.468435e+003,2.826324e+000
1.469399e+003,4.771393e+000
1.470363e+003,3.931885e+000
1.471328e+003,3.291565e+000
1.472292e+003,3.389587e+000
1.473256e+003,3.731506e+000
1.474220e+003,4.476959e+000
1.475184e+003,5.318573e+000
1.476149e+003,5.441833e+000
1.477113e+003,4.640228e+000
1.478077e+003,3.763824e+000
1.479041e+003,3.742676e+000
1.480006e+003,4.542053e+000
1.480970e+003,5.827057e+000
1.481934e+003,7.791595e+000
1.482898e+003,8.689392e+000
1.483863e+003,7.549622e+000
1.484827e+003,6.763580e+000
1.485791e+003,7.140686e+000
1.486755e+003,8.207062e+000
1.487719e+003,9.703033e+000
1.488684e+003,1.131555e+001
1.489648e+003,1.260483e+001
1.490612e+003,1.349762e+001
1.491576e+003,1.408810e+001
1.492541e+003,1.418835e+001
1.493505e+003,1.430588e+001
1.494469e+003,1.592117e+001
1.495433e+003,1.858624e+001
1.496398e+003,2.036014e+001
1.497362e+003,2.080469e+001
1.498326e+003,2.181317e+001
1.499290e+003,2.466992e+001
1.500255e+003,2.837009e+001
1.501219e+003,3.152863e+001
1.502183e+003,3.418307e+001
1.503147e+003,3.682916e+001
1.504111e+003,3.935284e+001
1.505076e+003,4.304269e+001
1.506040e+003,4.922885e+001
1.507004e+003,5.642822e+001
1.507968e+003,6.305423e+001
1.508933e+003,6.951532e+001
1.509897e+003,7.661688e+001
1.510861e+003,8.476077e+001
1.511825e+003,9.408371e+001
1.512790e+003,1.048593e+002
1.513754e+003,1.160574e+002
1.514718e+003,1.254244e+002
1.515682e+003,1.328374e+002
1.516646e+003,1.425860e+002
1.517611e+003,1.562879e+002
1.518575e+003,1.696412e+002
1.519539e+003,1.821584e+002
1.520503e+003,1.933980e+002
1.521468e+003,2.044673e+002
1.522432e+003,2.132703e+002
1.523396e+003,2.165589e+002
1.524360e+003,2.144056e+002
1.525325e+003,2.096868e+002
1.526289e+003,2.043605e+002
1.527253e+003,1.984802e+002
1.528217e+003,1.920627e+002
1.529182e+003,1.852430e+002
1.530146e+003,1.775483e+002
1.531110e+003,1.694695e+002
1.532074e+003,1.591725e+002
1.533039e+003,1.461175e+002
1.534003e+003,1.308922e+002
1.534967e+003,1.118233e+002
1.535931e+003,9.270795e+001
1.536896e+003,7.784134e+001
1.537860e+003,6.710135e+001
1.538824e+003,5.731082e+001
1.539788e+003,4.679959e+001
1.540752e+003,3.717191e+001
1.541717e+003,3.060989e+001
1.542681e+003,2.688293e+001
1.543645e+003,2.381464e+001
1.544609e+003,2.188696e+001
1.545573e+003,1.983435e+001
1.546538e+003,1.650586e+001
1.547502e+003,1.413837e+001
1.548466e+003,1.458929e+001
1.549430e+003,1.590115e+001
1.550395e+003,1.564005e+001
1.551359e+003,1.426297e+001
1.552323e+003,1.425369e+001
1.553287e+003,1.636212e+001
1.554252e+003,1.798758e+001
1.555216e+003,1.670346e+001
1.556180e+003,1.373160e+001
1.557144e+003,1.186102e+001
1.558109e+003,1.120493e+001
1.559073e+003,1.060794e+001
1.560037e+003,9.726624e+000
1.561001e+003,9.116455e+000
1.561966e+003,9.553009e+000
1.562930e+003,1.017670e+001
1.563894e+003,1.004376e+001
1.564858e+003,9.315033e+000
1.565823e+003,8.291779e+000
1.566787e+003,7.107880e+000
1.567751e+003,6.980499e+000
1.568715e+003,8.977905e+000
1.569679e+003,1.135715e+001
1.570644e+003,1.192215e+001
1.571608e+003,1.094595e+001
1.572572e+003,9.239746e+000
1.573536e+003,6.875793e+000
1.574500e+003,5.826691e+000
1.575465e+003,7.390656e+000
1.576429e+003,9.309448e+000
1.577393e+003,9.682983e+000
1.578357e+003,9.082611e+000
1.579322e+003,8.341034e+000
1.580286e+003,7.697876e+000
1.581250e+003,8.778839e+000
1.582214e+003,1.274326e+001
1.583179e+003,1.598016e+001
1.584143e+003,1.521109e+001
1.585107e+003,1.264026e+001
1.586071e+003,1.102020e+001
1.587036e+003,1.049857e+001
1.588000e+003,1.142648e+001
1.588964e+003,1.391306e+001
1.589928e+003,1.559613e+001
1.590893e+003,1.437164e+001
1.591857e+003,1.204691e+001
1.592821e+003,1.122403e+001
1.593785e+003,1.177393e+001
1.594750e+003,1.302640e+001
1.595714e+003,1.507263e+001
1.596678e+003,1.623190e+001
1.597642e+003,1.542337e+001
1.598606e+003,1.415350e+001
1.599571e+003,1.267844e+001
1.600535e+003,1.211136e+001
1.601499e+003,1.506473e+001
1.602463e+003,2.062357e+001
1.603427e+003,2.382693e+001
1.604392e+003,2.252805e+001
1.605356e+003,1.968784e+001
1.606320e+003,1.782010e+001
1.607284e+003,1.690228e+001
1.608249e+003,1.728720e+001
1.609213e+003,1.906021e+001
1.610177e+003,1.917386e+001
1.611141e+003,1.633109e+001
1.612106e+003,1.381488e+001
1.613070e+003,1.402063e+001
1.614034e+003,1.434338e+001
1.614998e+003,1.203464e+001
1.615963e+003,8.906647e+000
1.616927e+003,8.398224e+000
1.617891e+003,1.073471e+001
1.618855e+003,1.324368e+001
1.619820e+003,1.435733e+001
1.620784e+003,1.441501e+001
1.621748e+003,1.383548e+001
1.622712e+003,1.295831e+001
1.623677e+003,1.278235e+001
1.624641e+003,1.346069e+001
1.625605e+003,1.407114e+001
1.626569e+003,1.400146e+001
1.627533e+003,1.382724e+001
1.628498e+003,1.436432e+001
1.629462e+003,1.478241e+001
1.630426e+003,1.386868e+001
1.631390e+003,1.232407e+001
1.632354e+003,1.192212e+001
1.633319e+003,1.297318e+001
1.634283e+003,1.405051e+001
1.635247e+003,1.410629e+001
1.636211e+003,1.347742e+001
1.637176e+003,1.267395e+001
1.638140e+003,1.179550e+001
1.639104e+003,1.139621e+001
1.640068e+003,1.145389e+001
1.641033e+003,1.190591e+001
1.641997e+003,1.324713e+001
1.642961e+003,1.439801e+001
1.643925e+003,1.490027e+001
1.644890e+003,1.490326e+001
1.645854e+003,1.419876e+001
1.646818e+003,1.314090e+001
1.647782e+003,1.260669e+001
1.648747e+003,1.283057e+001
1.649711e+003,1.321426e+001
1.650675e+003,1.330582e+001
1.651639e+003,1.341998e+001
1.652604e+003,1.413010e+001
1.653568e+003,1.533316e+001
1.654532e+003,1.623550e+001
1.655496e+003,1.685822e+001
1.656460e+003,1.696405e+001
1.657425e+003,1.643829e+001
1.658389e+003,1.552951e+001
1.659353e+003,1.385199e+001
1.660317e+003,1.225464e+001
1.661281e+003,1.169101e+001
1.662246e+003,1.197418e+001
1.663210e+003,1.253445e+001
1.664174e+003,1.320062e+001
1.665138e+003,1.363321e+001
1.666103e+003,1.339087e+001
1.667067e+003,1.280670e+001
1.668031e+003,1.274988e+001
1.668995e+003,1.319156e+001
1.669960e+003,1.322690e+001
1.670924e+003,1.283395e+001
1.671888e+003,1.195468e+001
1.672852e+003,9.754425e+000
1.673817e+003,8.099457e+000
1.674781e+003,8.963470e+000
1.675745e+003,1.034665e+001
1.676709e+003,9.817963e+000
1.677674e+003,7.825623e+000
1.678638e+003,6.235535e+000
1.679602e+003,5.641998e+000
1.680566e+003,5.590149e+000
1.681531e+003,5.917236e+000
1.682495e+003,6.505554e+000
1.683459e+003,7.123901e+000
1.684423e+003,7.651245e+000
1.685387e+003,7.845947e+000
1.686352e+003,7.756989e+000
1.687316e+003,7.039703e+000
1.688280e+003,5.113495e+000
1.689244e+003,3.402985e+000
1.690208e+003,3.028595e+000
1.691173e+003,3.332550e+000
1.692137e+003,4.078461e+000
1.693101e+003,5.032959e+000
1.694065e+003,5.096924e+000
1.695030e+003,3.843475e+000
1.695994e+003,2.798431e+000
1.696958e+003,3.343170e+000
1.697922e+003,4.177917e+000
1.698887e+003,3.247162e+000
1.699851e+003,1.372589e+000
1.700815e+003,1.117371e+000
1.701779e+003,2.608643e+000
1.702744e+003,4.181824e+000
1.703708e+003,5.673645e+000
1.704672e+003,6.284607e+000
1.705636e+003,4.681244e+000
1.706601e+003,2.252258e+000
1.707565e+003,1.298737e+000
1.708529e+003,1.527405e+000
1.709493e+003,1.886536e+000
1.710458e+003,2.293213e+000
1.711422e+003,2.276794e+000
1.712386e+003,1.228088e+000
1.713350e+003,3.941956e-001
1.714314e+003,7.533264e-001
1.715279e+003,1.747986e+000
1.716243e+003,2.776245e+000
1.717207e+003,3.692444e+000
1.718171e+003,4.197327e+000
1.719135e+003,4.238464e+000
1.720100e+003,3.628662e+000
1.721064e+003,1.948029e+000
1.722028e+003,2.396851e-001
1.722992e+003,4.860840e-001
1.723957e+003,2.242767e+000
1.724921e+003,1.872864e+000
1.725885e+003,-1.402435e+000
1.726849e+003,-3.168915e+000
1.727814e+003,-1.487640e+000
1.728778e+003,5.787964e-001
1.729742e+003,2.064270e+000
1.730706e+003,2.950836e+000
1.731671e+003,2.778717e+000
1.732635e+003,1.931915e+000
1.733599e+003,1.398590e+000
1.734563e+003,1.486908e+000
1.735528e+003,2.107635e+000
1.736492e+003,3.145844e+000
1.737456e+003,3.563934e+000
1.738420e+003,1.994293e+000
1.739385e+003,-9.629822e-001
1.740349e+003,-2.753510e+000
1.741313e+003,-3.236877e+000
1.742277e+003,-2.736115e+000
1.743241e+003,3.377075e-001
1.744206e+003,2.065552e+000
1.745170e+003,8.884277e-001
1.746134e+003,-6.513977e-001
1.747098e+003,-1.323700e+000
1.748063e+003,-1.495483e+000
1.749027e+003,-1.483368e+000
1.749991e+003,-1.478058e+000
1.750955e+003,-1.817261e+000
1.751919e+003,-2.570282e+000
1.752884e+003,-3.349213e+000
1.753848e+003,-3.838745e+000
1.754812e+003,-4.010284e+000
1.755776e+003,-3.682953e+000
1.756741e+003,-2.761810e+000
1.757705e+003,-1.692871e+000
1.758669e+003,-3.587646e-001
1.759633e+003,4.756165e-001
1.760598e+003,8.076477e-001
1.761562e+003,2.814941e-001
1.762526e+003,-2.279358e+000
1.763490e+003,-4.380219e+000
1.764455e+003,-3.715576e+000
1.765419e+003,-1.670410e+000
1.766383e+003,-5.699158e-001
1.767347e+003,-7.027588e-001
1.768312e+003,-9.114990e-001
1.769276e+003,-6.807861e-001
1.770240e+003,-6.794128e-001
1.771204e+003,-1.520020e+000
1.772168e+003,-2.779785e+000
1.773133e+003,-4.033356e+000
1.774097e+003,-5.190430e+000
1.775061e+003,-5.063141e+000
1.776025e+003,-3.464264e+000
1.776990e+003,-2.050690e+000
1.777954e+003,-1.149109e+000
1.778918e+003,-6.101990e-001
1.779882e+003,-5.830688e-001
1.780846e+003,-8.989563e-001
1.781811e+003,-1.045258e+000
1.782775e+003,-1.173706e+000
1.783739e+003,-2.202454e+000
1.784703e+003,-4.392029e+000
1.785668e+003,-5.389221e+000
1.786632e+003,-3.153687e+000
1.787596e+003,-1.181458e+000
1.788560e+003,-2.616669e+000
1.789525e+003,-5.106476e+000
1.790489e+003,-5.580475e+000
1.791453e+003,-4.361206e+000
1.792417e+003,-2.658142e+000
1.793382e+003,-8.973999e-001
1.794346e+003,2.410889e-003
1.795310e+003,-4.839783e-001
1.796274e+003,-1.840851e+000
1.797239e+003,-3.605286e+000
1.798203e+003,-5.230621e+000
1.799167e+003,-5.384979e+000
1.800131e+003,-4.107788e+000
1.801095e+003,-2.847504e+000
1.802060e+003,-6.337891e-001
1.803024e+003,5.038147e-001
1.803988e+003,-6.997986e-001
1.804952e+003,-1.876465e+000
1.805917e+003,-1.416321e+000
1.806881e+003,-8.153992e-001
1.807845e+003,-1.977478e+000
1.808809e+003,-4.045959e+000
1.809773e+003,-5.153381e+000
1.810738e+003,-4.841522e+000
1.811702e+003,-3.746002e+000
1.812666e+003,-2.290161e+000
1.813630e+003,-4.078674e-001
1.814595e+003,2.311951e+000
1.815559e+003,5.081299e+000
1.816523e+003,4.175476e+000
1.817487e+003,-8.775330e-001
1.818452e+003,-3.745728e+000
1.819416e+003,-3.360229e+000
1.820380e+003,-2.683075e+000
1.821344e+003,-2.561157e+000
1.822309e+003,-2.517334e+000
1.823273e+003,-2.141968e+000
1.824237e+003,-1.623840e+000
1.825201e+003,-1.058960e+000
1.826166e+003,-6.502991e-001
1.827130e+003,-9.319763e-001
1.828094e+003,-2.010834e+000
1.829058e+003,-2.935760e+000
1.830022e+003,-2.987793e+000
1.830987e+003,-3.107697e+000
1.831951e+003,-4.569214e+000
1.832915e+003,-6.207748e+000
1.833879e+003,-6.469925e+000
1.834844e+003,-5.419144e+000
1.835808e+003,-2.643707e+000
1.836772e+003,1.436981e+000
1.837736e+003,2.713745e+000
1.838700e+003,-7.779236e-001
1.839665e+003,-4.650146e+000
1.840629e+003,-4.772202e+000
1.841593e+003,-2.767578e+000
1.842557e+003,-2.155121e+000
1.843522e+003,-2.919006e+000
1.844486e+003,-3.266785e+000
1.845450e+003,-3.038025e+000
1.846414e+003,-2.354797e+000
1.847379e+003,-7.566833e-001
1.848343e+003,2.391968e-001
1.849307e+003,-2.064209e-001
1.850271e+003,-8.432312e-001
1.851236e+003,-6.383362e-001
1.852200e+003,-1.000977e-002
1.853164e+003,4.012451e-001
1.854128e+003,3.052979e-001
1.855093e+003,-5.635376e-001
1.856057e+003,-2.072174e+000
1.857021e+003,-3.264191e+000
1.857985e+003,-3.423462e+000
1.858949e+003,-2.857239e+000
1.859914e+003,-1.611328e+000
1.860878e+003,2.664185e-002
1.861842e+003,-7.366943e-002
1.862806e+003,-2.018158e+000
1.863771e+003,-3.183960e+000
1.864735e+003,-3.064392e+000
1.865699e+003,-2.769714e+000
1.866663e+003,-2.632507e+000
1.867627e+003,-2.550781e+000
1.868592e+003,-2.935089e+000
1.869556e+003,-3.217834e+000
1.870520e+003,-1.519867e+000
1.871484e+003,1.644775e+000
1.872449e+003,2.564819e+000
1.873413e+003,2.740479e-001
1.874377e+003,-4.594421e-001
1.875341e+003,3.497406e+000
1.876306e+003,6.417786e+000
1.877270e+003,3.821381e+000
1.878234e+003,-4.077148e-002
1.879198e+003,-5.620117e-001
1.880163e+003,8.858032e-001
1.881127e+003,9.275818e-001
1.882091e+003,-4.487610e-001
1.883055e+003,-4.547424e-001
1.884020e+003,1.861359e+000
1.884984e+003,3.894806e+000
1.885948e+003,3.270599e+000
1.886912e+003,1.037628e+000
1.887876e+003,-9.159241e-001
1.888841e+003,-2.488495e+000
1.889805e+003,-2.235992e+000
1.890769e+003,3.422546e-001
1.891733e+003,2.030304e+000
1.892698e+003,2.235687e+000
1.893662e+003,1.994659e+000
1.894626e+003,1.343964e+000
1.895590e+003,8.376770e-001
1.896554e+003,1.239227e+000
1.897519e+003,1.849487e+000
1.898483e+003,1.640167e+000
1.899447e+003,7.092896e-001
1.900411e+003,-1.360474e-001
1.901376e+003,-7.146912e-001
1.902340e+003,-1.323669e+000
1.903304e+003,-2.341797e+000
1.904268e+003,-3.049911e+000
1.905233e+003,-2.617462e+000
1.906197e+003,-1.943420e+000
1.907161e+003,-2.001556e+000
1.908125e+003,-2.429810e+000
1.909090e+003,-2.851486e+000
1.910054e+003,-3.048767e+000
1.911018e+003,-2.148590e+000
1.911982e+003,-2.935791e-002
1.912947e+003,1.538727e+000
1.913911e+003,1.223785e+000
1.914875e+003,2.868347e-001
1.915839e+003,6.936951e-001
1.916803e+003,2.007355e+000
1.917768e+003,2.451050e+000
1.918732e+003,1.973175e+000
1.919696e+003,1.511627e+000
1.920660e+003,1.084900e+000
1.921625e+003,8.592529e-001
1.922589e+003,5.894775e-001
1.923553e+003,8.081055e-001
1.924517e+003,2.552551e+000
1.925481e+003,4.266815e+000
1.926446e+003,4.338928e+000
1.927410e+003,3.498260e+000
1.928374e+003,3.290588e+000
1.929338e+003,3.675720e+000
1.930303e+003,3.283691e+000
1.931267e+003,1.437927e+000
1.932231e+003,4.864502e-001
1.933195e+003,2.117218e+000
1.934160e+003,3.982819e+000
1.935124e+003,4.424103e+000
1.936088e+003,4.026245e+000
1.937052e+003,3.219421e+000
1.938017e+003,2.548370e+000
1.938981e+003,3.088776e+000
1.939945e+003,4.654419e+000
1.940909e+003,5.876312e+000
1.941874e+003,6.046204e+000
1.942838e+003,5.154480e+000
1.943802e+003,3.219208e+000
1.944766e+003,1.014923e+000
1.945730e+003,-2.882385e-001
1.946695e+003,-7.394714e-001
1.947659e+003,3.412476e-001
1.948623e+003,3.184875e+000
1.949587e+003,4.428864e+000
1.950552e+003,3.363617e+000
1.951516e+003,2.479645e+000
1.952480e+003,2.793579e+000
1.953444e+003,2.995148e+000
1.954408e+003,1.629822e+000
1.955373e+003,3.866577e-002
1.956337e+003,4.678040e-001
1.957301e+003,2.487305e+000
1.958265e+003,4.286591e+000
1.959230e+003,5.886841e+000
1.960194e+003,6.850189e+000
1.961158e+003,6.368561e+000
1.962122e+003,5.976074e+000
1.963087e+003,6.484100e+000
1.964051e+003,6.734192e+000
1.965015e+003,5.884857e+000
1.965979e+003,4.843353e+000
1.966944e+003,4.254608e+000
1.967908e+003,4.105408e+000
1.968872e+003,4.656555e+000
1.969836e+003,5.561493e+000
1.970801e+003,5.365356e+000
1.971765e+003,3.560730e+000
1.972729e+003,1.934479e+000
1.973693e+003,2.066650e+000
1.974657e+003,2.931488e+000
1.975622e+003,2.668976e+000
1.976586e+003,1.959747e+000
1.977550e+003,3.341064e+000
1.978514e+003,6.315247e+000
1.979479e+003,7.431152e+000
1.980443e+003,6.248810e+000
1.981407e+003,4.935303e+000
1.982371e+003,4.304779e+000
1.983335e+003,4.420563e+000
1.984300e+003,5.364197e+000
1.985264e+003,6.508606e+000
1.986228e+003,7.001740e+000
1.987192e+003,6.870667e+000
1.988157e+003,6.151764e+000
1.989121e+003,4.442383e+000
1.990085e+003,4.638611e+000
1.991049e+003,8.858215e+000
1.992014e+003,1.082777e+001
1.992978e+003,7.549332e+000
1.993942e+003,4.866318e+000
1.994906e+003,5.210892e+000
1.995871e+003,6.395248e+000
1.996835e+003,7.104446e+000
1.997799e+003,7.547531e+000
1.998763e+003,8.231491e+000
1.999728e+003,8.931351e+000
