5.003444e+002,1.716183e+002
5.013087e+002,1.681735e+002
5.022729e+002,1.683629e+002
5.032371e+002,1.710003e+002
5.042014e+002,1.697548e+002
5.051656e+002,1.653375e+002
5.061298e+002,1.604224e+002
5.070941e+002,1.572735e+002
5.080583e+002,1.559797e+002
5.090225e+002,1.545767e+002
5.099868e+002,1.536179e+002
5.109510e+002,1.520338e+002
5.119152e+002,1.484722e+002
5.128795e+002,1.426921e+002
5.138437e+002,1.392883e+002
5.148079e+002,1.430928e+002
5.157722e+002,1.468278e+002
5.167364e+002,1.468047e+002
5.177006e+002,1.428293e+002
5.186649e+002,1.380050e+002
5.196291e+002,1.367549e+002
5.205933e+002,1.373383e+002
5.215576e+002,1.374378e+002
5.225218e+002,1.362734e+002
5.234860e+002,1.335642e+002
5.244503e+002,1.291754e+002
5.254145e+002,1.229480e+002
5.263787e+002,1.190484e+002
5.273430e+002,1.185432e+002
5.283072e+002,1.196125e+002
5.292714e+002,1.196747e+002
5.302357e+002,1.176723e+002
5.311999e+002,1.152500e+002
5.321641e+002,1.128596e+002
5.331284e+002,1.110853e+002
5.340926e+002,1.105676e+002
5.350568e+002,1.114314e+002
5.360211e+002,1.112586e+002
5.369853e+002,1.070869e+002
5.379495e+002,1.023054e+002
5.389138e+002,9.980743e+001
5.398780e+002,1.004745e+002
5.408422e+002,1.027478e+002
5.418065e+002,1.024141e+002
5.427707e+002,9.986029e+001
5.437349e+002,9.775562e+001
5.446992e+002,9.703180e+001
5.456634e+002,9.691760e+001
5.466276e+002,9.479993e+001
5.475919e+002,8.788531e+001
5.485561e+002,8.271057e+001
5.495203e+002,7.998987e+001
5.504846e+002,7.860913e+001
5.514488e+002,7.718945e+001
5.524130e+002,7.555725e+001
5.533773e+002,7.397272e+001
5.543415e+002,7.319220e+001
5.553057e+002,7.226678e+001
5.562700e+002,6.939886e+001
5.572342e+002,6.348126e+001
5.581984e+002,5.706830e+001
5.591627e+002,5.773944e+001
5.601269e+002,6.309259e+001
5.610911e+002,6.820056e+001
5.620554e+002,7.047571e+001
5.630196e+002,6.991553e+001
5.639838e+002,6.786652e+001
5.649481e+002,6.312628e+001
5.659123e+002,5.872150e+001
5.668765e+002,5.547064e+001
5.678408e+002,5.349036e+001
5.688050e+002,5.247876e+001
5.697692e+002,5.239594e+001
5.707335e+002,5.196417e+001
5.716977e+002,5.110077e+001
5.726619e+002,4.993060e+001
5.736262e+002,4.854138e+001
5.745904e+002,4.696655e+001
5.755546e+002,4.572949e+001
5.765189e+002,4.545239e+001
5.774831e+002,4.538354e+001
5.784473e+002,4.467169e+001
5.794116e+002,4.292969e+001
5.803758e+002,4.055609e+001
5.813400e+002,3.915918e+001
5.823043e+002,3.902979e+001
5.832685e+002,3.727191e+001
5.842327e+002,3.151166e+001
5.851970e+002,2.308362e+001
5.861612e+002,1.902087e+001
5.871254e+002,2.492993e+001
5.880897e+002,2.979309e+001
5.890539e+002,3.098761e+001
5.900181e+002,2.960992e+001
5.909824e+002,2.803082e+001
5.919466e+002,2.796088e+001
5.929108e+002,2.792944e+001
5.938751e+002,2.618695e+001
5.948393e+002,2.345282e+001
5.958035e+002,2.064185e+001
5.967678e+002,1.849713e+001
5.977320e+002,1.729895e+001
5.986962e+002,1.859833e+001
5.996605e+002,2.195715e+001
6.006247e+002,2.476459e+001
6.015889e+002,2.589136e+001
6.025532e+002,2.545795e+001
6.035174e+002,2.464935e+001
6.044816e+002,2.292914e+001
6.054459e+002,2.154413e+001
6.064101e+002,2.055249e+001
6.073743e+002,1.999518e+001
6.083386e+002,2.005750e+001
6.093028e+002,2.127600e+001
6.102670e+002,2.251978e+001
6.112313e+002,2.292102e+001
6.121955e+002,2.269031e+001
6.131597e+002,2.192572e+001
6.141240e+002,2.070917e+001
6.150882e+002,1.929187e+001
6.160524e+002,1.940143e+001
6.170167e+002,2.095111e+001
6.179809e+002,2.205139e+001
6.189451e+002,2.141327e+001
6.199094e+002,1.915460e+001
6.208736e+002,1.769708e+001
6.218378e+002,1.939136e+001
6.228021e+002,1.997772e+001
6.237663e+002,1.796411e+001
6.247305e+002,1.503534e+001
6.256948e+002,1.380151e+001
6.266590e+002,1.531213e+001
6.276232e+002,1.767548e+001
6.285875e+002,2.088879e+001
6.295517e+002,2.403400e+001
6.305159e+002,2.612781e+001
6.314802e+002,2.648969e+001
6.324444e+002,2.509253e+001
6.334086e+002,2.063184e+001
6.343729e+002,1.473010e+001
6.353371e+002,1.195856e+001
6.363013e+002,1.443311e+001
6.372656e+002,2.013745e+001
6.382298e+002,2.216266e+001
6.391940e+002,1.689722e+001
6.401583e+002,1.188214e+001
6.411225e+002,6.843445e+000
6.420867e+002,3.074951e+000
6.430510e+002,2.341309e+000
6.440152e+002,5.859070e+000
6.449794e+002,8.477173e+000
6.459437e+002,7.168213e+000
6.469079e+002,4.397827e+000
6.478721e+002,1.873596e+000
6.488364e+002,4.008789e-001
6.498006e+002,-2.320557e-001
6.507648e+002,-3.454590e-001
6.517291e+002,-2.445679e-001
6.526933e+002,-4.117432e-001
6.536575e+002,-9.832764e-001
6.546218e+002,-1.679382e+000
6.555860e+002,-1.855652e+000
6.565502e+002,-5.888672e-001
6.575145e+002,-1.199707e+000
6.584787e+002,-5.926697e+000
6.594429e+002,-1.045898e+001
6.604072e+002,-1.085303e+001
6.613714e+002,-6.135620e+000
6.623356e+002,-1.719482e+000
6.632999e+002,-3.055420e-001
6.642641e+002,-2.131348e-001
6.652283e+002,-8.964233e-001
6.661926e+002,-1.783386e+000
6.671568e+002,-2.285522e+000
6.681210e+002,-1.847717e+000
6.690853e+002,-8.131104e-001
6.700495e+002,3.250122e-001
6.710137e+002,1.546753e+000
6.719780e+002,2.697754e+000
6.729422e+002,3.633911e+000
6.739064e+002,4.363464e+000
6.748707e+002,3.745117e+000
6.758349e+002,5.584717e-001
6.767991e+002,-2.318359e+000
6.777634e+002,-2.959045e+000
6.787276e+002,-1.463501e+000
6.796918e+002,-4.623413e-001
6.806561e+002,-2.237122e+000
6.816203e+002,-3.957825e+000
6.825845e+002,-4.322510e+000
6.835488e+002,-3.880676e+000
6.845130e+002,-3.798096e+000
6.854772e+002,-4.989746e+000
6.864415e+002,-6.062073e+000
6.874057e+002,-3.831543e+000
6.883699e+002,1.426392e-001
6.893342e+002,2.625061e+000
6.902984e+002,1.776978e+000
6.912626e+002,-1.622803e+000
6.922269e+002,-2.954102e+000
6.931911e+002,9.366455e-001
6.941553e+002,3.667297e+000
6.951196e+002,3.065796e+000
6.960838e+002,9.501343e-001
6.970480e+002,6.397705e-001
6.980123e+002,3.706848e+000
6.989765e+002,6.901306e+000
6.999407e+002,9.160828e+000
7.009050e+002,1.064374e+001
7.018692e+002,1.158008e+001
7.028334e+002,1.192731e+001
7.037977e+002,1.112091e+001
7.047619e+002,7.555725e+000
7.057261e+002,2.889893e+000
7.066904e+002,-1.539307e-001
7.076546e+002,-1.142273e+000
7.086188e+002,-5.142212e-001
7.095831e+002,1.248352e+000
7.105473e+002,4.956543e+000
7.115115e+002,6.302307e+000
7.124758e+002,3.794373e+000
7.134400e+002,7.055664e-001
7.144042e+002,-1.093140e+000
7.153685e+002,-1.353088e+000
7.163327e+002,-7.708740e-001
7.172969e+002,2.177734e+000
7.182612e+002,4.264099e+000
7.192254e+002,3.376892e+000
7.201896e+002,3.701172e-001
7.211539e+002,-2.920227e+000
7.221181e+002,-5.048950e+000
7.230823e+002,-5.909180e+000
7.240466e+002,-5.135071e+000
7.250108e+002,-2.825317e+000
7.259750e+002,-4.208984e-001
7.269393e+002,9.157715e-001
7.279035e+002,9.545898e-001
7.288677e+002,9.455566e-001
7.298320e+002,1.458191e+000
7.307962e+002,2.775513e+000
7.317604e+002,5.758362e+000
7.327247e+002,9.328735e+000
7.336889e+002,1.175262e+001
7.346531e+002,1.198694e+001
7.356174e+002,1.064258e+001
7.365816e+002,8.164124e+000
7.375458e+002,5.797974e+000
7.385101e+002,4.555176e+000
7.394743e+002,4.580505e+000
7.404385e+002,5.048523e+000
7.414028e+002,4.457092e+000
7.423670e+002,2.461731e+000
7.433312e+002,1.208557e+000
7.442955e+002,1.463989e+000
7.452597e+002,2.299072e+000
7.462239e+002,2.137695e+000
7.471882e+002,1.487427e-001
7.481524e+002,1.733398e-001
7.491166e+002,3.086121e+000
7.500809e+002,5.580505e+000
7.510451e+002,6.375061e+000
7.520093e+002,5.728699e+000
7.529736e+002,4.801697e+000
7.539378e+002,3.957092e+000
7.549020e+002,4.293213e+000
7.558663e+002,7.202393e+000
7.568306e+002,1.115625e+001
7.577948e+002,1.398560e+001
7.587590e+002,1.428577e+001
7.597233e+002,1.259131e+001
7.606875e+002,1.105927e+001
7.616517e+002,9.927490e+000
7.626160e+002,8.468384e+000
7.635802e+002,5.983704e+000
7.645444e+002,3.777466e+000
7.655087e+002,4.866150e+000
7.664729e+002,1.157397e+001
7.674371e+002,1.625769e+001
7.684014e+002,1.882220e+001
7.693656e+002,1.931537e+001
7.703298e+002,1.645941e+001
7.712941e+002,1.081451e+001
7.722583e+002,6.714539e+000
7.732225e+002,7.891968e+000
7.741868e+002,1.159692e+001
7.751510e+002,1.737744e+001
7.761152e+002,2.379504e+001
7.770795e+002,2.774738e+001
7.780437e+002,2.638025e+001
7.790079e+002,2.067401e+001
7.799722e+002,2.112677e+001
7.809364e+002,2.829382e+001
7.819006e+002,3.384747e+001
7.828649e+002,3.382416e+001
7.838291e+002,3.014386e+001
7.847933e+002,2.884558e+001
7.857576e+002,3.202405e+001
7.867218e+002,3.311151e+001
7.876860e+002,2.947302e+001
7.886503e+002,2.535339e+001
7.896145e+002,2.468616e+001
7.905787e+002,2.831183e+001
7.915430e+002,3.269171e+001
7.925072e+002,3.396503e+001
7.934714e+002,3.319873e+001
7.944357e+002,3.148688e+001
7.953999e+002,2.942596e+001
7.963641e+002,2.768689e+001
7.973284e+002,2.686768e+001
7.982926e+002,2.702014e+001
7.992568e+002,2.751752e+001
8.002211e+002,2.773932e+001
8.011853e+002,2.758984e+001
8.021495e+002,2.810529e+001
8.031138e+002,2.931677e+001
8.040780e+002,2.935913e+001
8.050422e+002,2.536737e+001
8.060065e+002,2.345898e+001
8.069707e+002,2.659662e+001
8.079349e+002,3.138776e+001
8.088992e+002,3.499512e+001
8.098634e+002,3.643970e+001
8.108276e+002,3.661151e+001
8.117919e+002,3.618793e+001
8.127561e+002,3.458008e+001
8.137203e+002,3.130115e+001
8.146846e+002,2.676294e+001
8.156488e+002,2.304858e+001
8.166130e+002,2.268848e+001
8.175773e+002,2.644202e+001
8.185415e+002,2.829681e+001
8.195057e+002,2.600043e+001
8.204700e+002,2.425696e+001
8.214342e+002,2.500909e+001
8.223984e+002,2.753326e+001
8.233627e+002,2.981982e+001
8.243269e+002,3.140564e+001
8.252911e+002,3.251172e+001
8.262554e+002,3.320288e+001
8.272196e+002,3.360486e+001
8.281838e+002,3.387244e+001
8.291481e+002,3.400952e+001
8.301123e+002,3.374939e+001
8.310765e+002,3.244165e+001
8.320408e+002,3.015906e+001
8.330050e+002,2.885223e+001
8.339692e+002,2.878870e+001
8.349335e+002,2.950879e+001
8.358977e+002,3.089355e+001
8.368619e+002,3.330585e+001
8.378262e+002,3.527954e+001
8.387904e+002,3.728790e+001
8.397546e+002,3.764246e+001
8.407189e+002,3.395190e+001
8.416831e+002,2.884686e+001
8.426473e+002,2.701801e+001
8.436116e+002,3.107526e+001
8.445758e+002,3.685266e+001
8.455400e+002,4.007733e+001
8.465043e+002,4.152625e+001
8.474685e+002,4.233618e+001
8.484327e+002,4.314099e+001
8.493970e+002,4.377155e+001
8.503612e+002,4.335986e+001
8.513254e+002,4.128906e+001
8.522897e+002,4.240338e+001
8.532539e+002,4.853479e+001
8.542181e+002,5.455878e+001
8.551824e+002,5.796753e+001
8.561466e+002,5.931506e+001
8.571108e+002,6.016675e+001
8.580751e+002,5.869098e+001
8.590393e+002,5.776208e+001
8.600035e+002,5.948022e+001
8.609678e+002,6.224432e+001
8.619320e+002,6.392084e+001
8.628962e+002,6.367889e+001
8.638605e+002,6.304370e+001
8.648247e+002,6.460858e+001
8.657889e+002,6.742047e+001
8.667532e+002,6.940997e+001
8.677174e+002,7.031097e+001
8.686816e+002,7.147766e+001
8.696459e+002,7.475757e+001
8.706101e+002,8.077832e+001
8.715743e+002,8.554156e+001
8.725386e+002,8.850281e+001
8.735028e+002,9.114319e+001
8.744670e+002,9.367682e+001
8.754313e+002,9.563318e+001
8.763955e+002,9.616669e+001
8.773597e+002,9.465912e+001
8.783240e+002,9.369116e+001
8.792882e+002,9.509644e+001
8.802524e+002,9.748383e+001
8.812167e+002,9.996576e+001
8.821809e+002,1.022444e+002
8.831451e+002,1.044158e+002
8.841094e+002,1.066427e+002
8.850736e+002,1.092136e+002
8.860378e+002,1.123964e+002
8.870021e+002,1.163240e+002
8.879663e+002,1.195729e+002
8.889305e+002,1.207867e+002
8.898948e+002,1.202986e+002
8.908590e+002,1.204812e+002
8.918232e+002,1.224470e+002
8.927875e+002,1.241507e+002
8.937517e+002,1.247437e+002
8.947159e+002,1.252546e+002
8.956802e+002,1.262108e+002
8.966444e+002,1.275945e+002
8.976086e+002,1.292603e+002
8.985729e+002,1.317109e+002
8.995371e+002,1.345992e+002
9.005013e+002,1.370334e+002
9.014656e+002,1.391224e+002
9.024298e+002,1.407050e+002
9.033940e+002,1.413088e+002
9.043583e+002,1.408893e+002
9.053225e+002,1.415223e+002
9.062867e+002,1.448852e+002
9.072510e+002,1.465048e+002
9.082152e+002,1.454200e+002
9.091794e+002,1.439730e+002
9.101437e+002,1.446278e+002
9.111079e+002,1.477546e+002
9.120721e+002,1.506202e+002
9.130364e+002,1.509094e+002
9.140006e+002,1.503500e+002
9.149648e+002,1.500748e+002
9.159291e+002,1.502813e+002
9.168933e+002,1.507982e+002
9.178575e+002,1.513138e+002
9.188218e+002,1.514215e+002
9.197860e+002,1.501310e+002
9.207502e+002,1.472301e+002
9.217145e+002,1.446804e+002
9.226787e+002,1.433905e+002
9.236429e+002,1.429896e+002
9.246072e+002,1.428306e+002
9.255714e+002,1.427767e+002
9.265356e+002,1.421245e+002
9.274999e+002,1.409265e+002
9.284641e+002,1.386168e+002
9.294283e+002,1.343221e+002
9.303926e+002,1.291886e+002
9.313568e+002,1.249651e+002
9.323210e+002,1.225269e+002
9.332853e+002,1.210507e+002
9.342495e+002,1.194606e+002
9.352137e+002,1.178138e+002
9.361780e+002,1.167242e+002
9.371422e+002,1.165712e+002
9.381064e+002,1.168500e+002
9.390707e+002,1.164708e+002
9.400349e+002,1.148340e+002
9.409991e+002,1.139722e+002
9.419634e+002,1.154146e+002
9.429276e+002,1.154133e+002
9.438918e+002,1.116711e+002
9.448561e+002,1.064342e+002
9.458203e+002,1.038257e+002
9.467845e+002,1.055691e+002
9.477488e+002,1.075194e+002
9.487130e+002,1.067253e+002
9.496772e+002,1.045706e+002
9.506415e+002,1.012445e+002
9.516057e+002,9.736743e+001
9.525699e+002,9.436102e+001
9.535342e+002,9.357806e+001
9.544984e+002,9.454749e+001
9.554626e+002,9.420648e+001
9.564269e+002,9.249432e+001
9.573911e+002,9.224506e+001
9.583553e+002,9.545117e+001
9.593196e+002,9.979785e+001
9.602838e+002,1.011877e+002
9.612480e+002,9.850604e+001
9.622123e+002,9.640698e+001
9.631765e+002,9.852911e+001
9.641407e+002,9.950647e+001
9.651050e+002,9.530811e+001
9.660692e+002,8.784369e+001
9.670334e+002,8.139020e+001
9.679977e+002,7.875836e+001
9.689619e+002,7.937244e+001
9.699261e+002,8.211334e+001
9.708904e+002,8.636713e+001
9.718546e+002,9.183923e+001
9.728188e+002,9.847888e+001
9.737831e+002,1.057427e+002
9.747473e+002,1.135395e+002
9.757115e+002,1.224844e+002
9.766758e+002,1.291795e+002
9.776400e+002,1.339807e+002
9.786042e+002,1.366883e+002
9.795685e+002,1.371461e+002
9.805327e+002,1.349342e+002
9.814969e+002,1.292254e+002
9.824612e+002,1.199631e+002
9.834254e+002,1.098013e+002
9.843896e+002,9.977856e+001
9.853539e+002,9.052020e+001
9.863181e+002,8.276245e+001
9.872823e+002,7.644263e+001
9.882466e+002,7.167914e+001
9.892108e+002,6.896552e+001
9.901750e+002,6.852350e+001
9.911393e+002,6.873425e+001
9.921035e+002,6.973132e+001
9.930677e+002,6.919989e+001
9.940320e+002,6.565100e+001
9.949962e+002,6.228015e+001
9.959604e+002,6.265210e+001
9.969247e+002,6.687842e+001
9.978889e+002,7.043445e+001
9.988531e+002,7.024792e+001
9.998174e+002,6.899744e+001
1.000782e+003,6.842053e+001
1.001746e+003,6.847217e+001
1.002710e+003,6.900482e+001
1.003674e+003,6.977533e+001
1.004639e+003,7.018311e+001
1.005603e+003,6.909058e+001
1.006567e+003,6.619489e+001
1.007531e+003,6.427405e+001
1.008495e+003,6.370416e+001
1.009460e+003,6.338776e+001
1.010424e+003,6.276074e+001
1.011388e+003,6.199371e+001
1.012352e+003,6.151245e+001
1.013317e+003,6.135046e+001
1.014281e+003,6.110974e+001
1.015245e+003,6.084357e+001
1.016209e+003,6.004230e+001
1.017174e+003,5.831323e+001
1.018138e+003,5.578961e+001
1.019102e+003,5.294073e+001
1.020066e+003,5.017712e+001
1.021031e+003,4.772693e+001
1.021995e+003,4.556305e+001
1.022959e+003,4.338074e+001
1.023923e+003,4.159479e+001
1.024887e+003,4.036005e+001
1.025852e+003,3.940491e+001
1.026816e+003,3.865918e+001
1.027780e+003,3.866559e+001
1.028744e+003,3.747070e+001
1.029709e+003,3.304065e+001
1.030673e+003,2.946680e+001
1.031637e+003,2.780029e+001
1.032601e+003,2.760120e+001
1.033566e+003,2.861865e+001
1.034530e+003,3.078485e+001
1.035494e+003,3.305194e+001
1.036458e+003,3.416199e+001
1.037422e+003,3.438116e+001
1.038387e+003,3.416687e+001
1.039351e+003,3.352936e+001
1.040315e+003,3.274762e+001
1.041279e+003,3.207867e+001
1.042244e+003,3.173041e+001
1.043208e+003,3.209778e+001
1.044172e+003,3.275781e+001
1.045136e+003,3.442938e+001
1.046101e+003,3.898938e+001
1.047065e+003,4.296521e+001
1.048029e+003,4.328485e+001
1.048993e+003,4.076324e+001
1.049958e+003,3.935059e+001
1.050922e+003,4.153741e+001
1.051886e+003,4.417706e+001
1.052850e+003,4.353827e+001
1.053814e+003,4.148901e+001
1.054779e+003,4.029572e+001
1.055743e+003,4.044165e+001
1.056707e+003,4.119775e+001
1.057671e+003,4.172656e+001
1.058636e+003,4.196320e+001
1.059600e+003,4.212604e+001
1.060564e+003,4.258423e+001
1.061528e+003,4.322601e+001
1.062493e+003,4.312354e+001
1.063457e+003,4.319641e+001
1.064421e+003,4.571924e+001
1.065385e+003,5.090686e+001
1.066349e+003,5.338959e+001
1.067314e+003,4.838684e+001
1.068278e+003,4.220129e+001
1.069242e+003,3.841968e+001
1.070206e+003,3.701282e+001
1.071171e+003,3.818781e+001
1.072135e+003,4.153992e+001
1.073099e+003,4.511496e+001
1.074063e+003,4.578348e+001
1.075028e+003,4.331168e+001
1.075992e+003,4.216220e+001
1.076956e+003,4.296756e+001
1.077920e+003,4.328146e+001
1.078885e+003,4.180658e+001
1.079849e+003,3.981616e+001
1.080813e+003,3.960095e+001
1.081777e+003,4.177722e+001
1.082741e+003,4.425049e+001
1.083706e+003,4.663019e+001
1.084670e+003,4.777289e+001
1.085634e+003,4.630844e+001
1.086598e+003,4.318814e+001
1.087563e+003,3.998904e+001
1.088527e+003,3.784689e+001
1.089491e+003,3.732504e+001
1.090455e+003,3.947250e+001
1.091420e+003,4.442569e+001
1.092384e+003,4.619971e+001
1.093348e+003,4.307764e+001
1.094312e+003,3.955402e+001
1.095276e+003,3.864337e+001
1.096241e+003,3.967944e+001
1.097205e+003,3.997485e+001
1.098169e+003,3.851303e+001
1.099133e+003,3.769504e+001
1.100098e+003,3.951553e+001
1.101062e+003,4.148001e+001
1.102026e+003,4.188943e+001
1.102990e+003,4.115048e+001
1.103955e+003,4.056473e+001
1.104919e+003,4.086011e+001
1.105883e+003,4.149707e+001
1.106847e+003,4.145795e+001
1.107812e+003,4.068127e+001
1.108776e+003,4.007837e+001
1.109740e+003,3.967297e+001
1.110704e+003,3.947736e+001
1.111668e+003,4.010818e+001
1.112633e+003,4.138791e+001
1.113597e+003,4.153384e+001
1.114561e+003,3.947195e+001
1.115525e+003,3.781924e+001
1.116490e+003,3.652072e+001
1.117454e+003,3.650970e+001
1.118418e+003,3.999530e+001
1.119382e+003,4.553021e+001
1.120347e+003,4.924139e+001
1.121311e+003,4.853369e+001
1.122275e+003,4.513818e+001
1.123239e+003,4.304791e+001
1.124203e+003,4.263889e+001
1.125168e+003,4.318674e+001
1.126132e+003,4.506638e+001
1.127096e+003,4.706644e+001
1.128060e+003,4.795663e+001
1.129025e+003,4.792538e+001
1.129989e+003,4.848166e+001
1.130953e+003,5.020392e+001
1.131917e+003,5.106396e+001
1.132882e+003,4.934265e+001
1.133846e+003,4.809985e+001
1.134810e+003,4.954071e+001
1.135774e+003,5.305432e+001
1.136739e+003,5.692117e+001
1.137703e+003,6.011838e+001
1.138667e+003,6.262741e+001
1.139631e+003,6.432632e+001
1.140595e+003,6.524234e+001
1.141560e+003,6.604745e+001
1.142524e+003,6.644766e+001
1.143488e+003,6.874652e+001
1.144452e+003,7.469287e+001
1.145417e+003,8.368146e+001
1.146381e+003,9.390906e+001
1.147345e+003,1.062082e+002
1.148309e+003,1.169598e+002
1.149274e+003,1.234375e+002
1.150238e+003,1.304410e+002
1.151202e+003,1.420207e+002
1.152166e+003,1.558633e+002
1.153130e+003,1.674200e+002
1.154095e+003,1.743055e+002
1.155059e+003,1.776350e+002
1.156023e+003,1.795864e+002
1.156987e+003,1.798126e+002
1.157952e+003,1.760549e+002
1.158916e+003,1.684618e+002
1.159880e+003,1.592727e+002
1.160844e+003,1.481366e+002
1.161809e+003,1.357146e+002
1.162773e+003,1.244614e+002
1.163737e+003,1.147162e+002
1.164701e+003,1.047763e+002
1.165666e+003,9.216653e+001
1.166630e+003,8.189053e+001
1.167594e+003,7.698856e+001
1.168558e+003,7.500333e+001
1.169522e+003,7.236267e+001
1.170487e+003,6.813898e+001
1.171451e+003,6.486279e+001
1.172415e+003,6.560797e+001
1.173379e+003,6.924884e+001
1.174344e+003,7.010284e+001
1.175308e+003,6.826767e+001
1.176272e+003,6.598648e+001
1.177236e+003,6.380588e+001
1.178201e+003,6.183701e+001
1.179165e+003,6.001389e+001
1.180129e+003,5.813620e+001
1.181093e+003,5.645444e+001
1.182057e+003,5.627313e+001
1.183022e+003,5.459033e+001
1.183986e+003,4.838574e+001
1.184950e+003,4.171814e+001
1.185914e+003,3.832330e+001
1.186879e+003,3.870178e+001
1.187843e+003,4.163876e+001
1.188807e+003,4.616141e+001
1.189771e+003,5.102536e+001
1.190736e+003,5.248233e+001
1.191700e+003,5.008633e+001
1.192664e+003,4.843259e+001
1.193628e+003,4.878049e+001
1.194593e+003,4.913025e+001
1.195557e+003,4.802856e+001
1.196521e+003,4.568677e+001
1.197485e+003,4.274506e+001
1.198449e+003,3.887509e+001
1.199414e+003,3.593277e+001
1.200378e+003,3.564285e+001
1.201342e+003,3.578171e+001
1.202306e+003,3.507233e+001
1.203271e+003,3.349243e+001
1.204235e+003,3.130347e+001
1.205199e+003,2.877847e+001
1.206163e+003,2.638751e+001
1.207128e+003,2.488132e+001
1.208092e+003,2.434454e+001
1.209056e+003,2.361594e+001
1.210020e+003,2.268262e+001
1.210984e+003,2.166525e+001
1.211949e+003,2.061819e+001
1.212913e+003,1.937927e+001
1.213877e+003,1.803412e+001
1.214841e+003,1.661649e+001
1.215806e+003,1.412625e+001
1.216770e+003,8.794312e+000
1.217734e+003,4.420135e+000
1.218698e+003,4.152466e+000
1.219663e+003,5.600830e+000
1.220627e+003,6.104034e+000
1.221591e+003,5.072418e+000
1.222555e+003,3.159851e+000
1.223520e+003,9.717407e-001
1.224484e+003,-1.215210e+000
1.225448e+003,-2.575653e+000
1.226412e+003,-2.925140e+000
1.227376e+003,-2.831146e+000
1.228341e+003,-1.601868e+000
1.229305e+003,-8.836365e-001
1.230269e+003,-2.073822e+000
1.231233e+003,-4.296783e+000
1.232198e+003,-5.819092e+000
1.233162e+003,-6.115021e+000
1.234126e+003,-5.177612e+000
1.235090e+003,-2.127350e+000
1.236055e+003,1.012604e+000
1.237019e+003,1.902283e+000
1.237983e+003,1.083801e+000
1.238947e+003,2.738037e-001
1.239911e+003,3.112488e-001
1.240876e+003,8.729248e-001
1.241840e+003,1.493469e+000
1.242804e+003,2.257935e+000
1.243768e+003,1.842468e+000
1.244733e+003,-2.078156e+000
1.245697e+003,-3.989471e+000
1.246661e+003,-3.117554e+000
1.247625e+003,-8.899536e-001
1.248590e+003,2.846375e+000
1.249554e+003,7.234406e+000
1.250518e+003,9.997223e+000
1.251482e+003,9.936401e+000
1.252447e+003,8.339722e+000
1.253411e+003,6.106354e+000
1.254375e+003,4.121704e+000
1.255339e+003,4.227448e+000
1.256303e+003,6.526917e+000
1.257268e+003,9.343903e+000
1.258232e+003,1.184497e+001
1.259196e+003,1.358237e+001
1.260160e+003,1.351794e+001
1.261125e+003,1.125821e+001
1.262089e+003,1.104730e+001
1.263053e+003,1.582730e+001
1.264017e+003,1.907635e+001
1.264982e+003,1.812769e+001
1.265946e+003,1.600766e+001
1.266910e+003,1.554520e+001
1.267874e+003,1.687012e+001
1.268839e+003,1.858853e+001
1.269803e+003,1.981284e+001
1.270767e+003,2.040225e+001
1.271731e+003,1.996274e+001
1.272695e+003,1.860635e+001
1.273660e+003,1.737695e+001
1.274624e+003,1.592789e+001
1.275588e+003,1.460345e+001
1.276552e+003,1.379575e+001
1.277517e+003,1.355118e+001
1.278481e+003,1.385730e+001
1.279445e+003,1.470560e+001
1.280409e+003,1.509189e+001
1.281374e+003,1.418048e+001
1.282338e+003,1.351321e+001
1.283302e+003,1.406949e+001
1.284266e+003,1.510529e+001
1.285230e+003,1.591898e+001
1.286195e+003,1.625833e+001
1.287159e+003,1.603577e+001
1.288123e+003,1.526682e+001
1.289087e+003,1.444608e+001
1.290052e+003,1.468753e+001
1.291016e+003,1.627393e+001
1.291980e+003,1.727771e+001
1.292944e+003,1.748737e+001
1.293909e+003,1.705533e+001
1.294873e+003,1.625620e+001
1.295837e+003,1.509399e+001
1.296801e+003,1.298007e+001
1.297766e+003,1.004852e+001
1.298730e+003,8.372986e+000
1.299694e+003,9.335571e+000
1.300658e+003,1.109155e+001
1.301622e+003,1.185272e+001
1.302587e+003,1.208026e+001
1.303551e+003,1.218860e+001
1.304515e+003,1.240173e+001
1.305479e+003,1.326245e+001
1.306444e+003,1.524875e+001
1.307408e+003,1.779721e+001
1.308372e+003,1.921774e+001
1.309336e+003,1.901468e+001
1.310301e+003,1.914478e+001
1.311265e+003,2.011893e+001
1.312229e+003,2.117828e+001
1.313193e+003,2.218875e+001
1.314157e+003,2.301889e+001
1.315122e+003,2.372867e+001
1.316086e+003,2.410379e+001
1.317050e+003,2.334103e+001
1.318014e+003,2.087604e+001
1.318979e+003,1.836072e+001
1.319943e+003,1.905215e+001
1.320907e+003,2.257141e+001
1.321871e+003,2.412036e+001
1.322836e+003,2.249628e+001
1.323800e+003,2.148917e+001
1.324764e+003,2.401230e+001
1.325728e+003,2.802548e+001
1.326693e+003,2.996539e+001
1.327657e+003,2.958597e+001
1.328621e+003,2.841907e+001
1.329585e+003,2.672708e+001
1.330549e+003,2.580511e+001
1.331514e+003,2.567032e+001
1.332478e+003,2.600360e+001
1.333442e+003,2.712473e+001
1.334406e+003,2.874472e+001
1.335371e+003,2.990436e+001
1.336335e+003,3.001569e+001
1.337299e+003,2.933841e+001
1.338263e+003,2.814444e+001
1.339228e+003,2.616122e+001
1.340192e+003,2.638809e+001
1.341156e+003,3.130072e+001
1.342120e+003,3.461432e+001
1.343084e+003,3.382312e+001
1.344049e+003,3.216486e+001
1.345013e+003,3.281006e+001
1.345977e+003,3.521857e+001
1.346941e+003,3.663220e+001
1.347906e+003,3.600000e+001
1.348870e+003,3.491382e+001
1.349834e+003,3.461478e+001
1.350798e+003,3.482001e+001
1.351763e+003,3.527615e+001
1.352727e+003,3.596274e+001
1.353691e+003,3.632892e+001
1.354655e+003,3.603989e+001
1.355620e+003,3.595111e+001
1.356584e+003,3.751077e+001
1.357548e+003,4.049881e+001
1.358512e+003,4.227319e+001
1.359476e+003,4.248080e+001
1.360441e+003,4.135193e+001
1.361405e+003,3.712659e+001
1.362369e+003,3.381866e+001
1.363333e+003,3.388635e+001
1.364298e+003,3.589996e+001
1.365262e+003,3.810837e+001
1.366226e+003,3.976697e+001
1.367190e+003,4.051617e+001
1.368155e+003,4.000015e+001
1.369119e+003,3.880811e+001
1.370083e+003,3.885248e+001
1.371047e+003,4.052722e+001
1.372011e+003,4.250217e+001
1.372976e+003,4.503857e+001
1.373940e+003,4.702914e+001
1.374904e+003,4.796832e+001
1.375868e+003,4.840524e+001
1.376833e+003,4.886551e+001
1.377797e+003,4.936490e+001
1.378761e+003,4.986752e+001
1.379725e+003,5.049026e+001
1.380690e+003,5.090475e+001
1.381654e+003,5.064307e+001
1.382618e+003,5.011270e+001
1.383582e+003,4.977573e+001
1.384547e+003,4.965692e+001
1.385511e+003,4.952985e+001
1.386475e+003,4.908954e+001
1.387439e+003,4.888327e+001
1.388403e+003,5.002859e+001
1.389368e+003,5.249619e+001
1.390332e+003,5.444031e+001
1.391296e+003,5.562210e+001
1.392260e+003,5.698886e+001
1.393225e+003,6.003140e+001
1.394189e+003,6.187271e+001
1.395153e+003,5.958911e+001
1.396117e+003,5.558206e+001
1.397082e+003,5.371463e+001
1.398046e+003,5.493320e+001
1.399010e+003,5.717722e+001
1.399974e+003,5.846484e+001
1.400938e+003,5.869061e+001
1.401903e+003,5.822287e+001
1.402867e+003,5.752466e+001
1.403831e+003,5.678418e+001
1.404795e+003,5.473407e+001
1.405760e+003,5.374026e+001
1.406724e+003,5.487402e+001
1.407688e+003,5.655319e+001
1.408652e+003,5.743881e+001
1.409617e+003,5.770035e+001
1.410581e+003,5.778018e+001
1.411545e+003,5.768393e+001
1.412509e+003,5.833694e+001
1.413474e+003,6.174011e+001
1.414438e+003,6.531540e+001
1.415402e+003,6.432990e+001
1.416366e+003,5.979660e+001
1.417330e+003,5.740570e+001
1.418295e+003,5.988202e+001
1.419259e+003,6.328339e+001
1.420223e+003,6.231207e+001
1.421187e+003,5.776047e+001
1.422152e+003,5.555029e+001
1.423116e+003,5.640286e+001
1.424080e+003,5.850180e+001
1.425044e+003,6.297855e+001
1.426009e+003,6.640524e+001
1.426973e+003,6.653879e+001
1.427937e+003,6.528174e+001
1.428901e+003,6.494427e+001
1.429865e+003,6.586804e+001
1.430830e+003,6.701514e+001
1.431794e+003,6.758524e+001
1.432758e+003,6.764917e+001
1.433722e+003,6.751752e+001
1.434687e+003,6.735269e+001
1.435651e+003,6.929361e+001
1.436615e+003,7.630933e+001
1.437579e+003,7.941641e+001
1.438544e+003,7.454016e+001
1.439508e+003,6.909650e+001
1.440472e+003,6.844836e+001
1.441436e+003,7.101221e+001
1.442401e+003,7.259036e+001
1.443365e+003,7.226022e+001
1.444329e+003,7.348630e+001
1.445293e+003,7.968091e+001
1.446257e+003,8.674344e+001
1.447222e+003,8.517200e+001
1.448186e+003,7.690891e+001
1.449150e+003,7.317065e+001
1.450114e+003,7.585608e+001
1.451079e+003,7.880283e+001
1.452043e+003,7.875348e+001
1.453007e+003,7.763016e+001
1.453971e+003,7.794617e+001
1.454936e+003,7.945074e+001
1.455900e+003,8.069049e+001
1.456864e+003,8.151904e+001
1.457828e+003,8.197330e+001
1.458792e+003,8.185919e+001
1.459757e+003,8.123517e+001
1.460721e+003,7.970056e+001
1.461685e+003,7.782828e+001
1.462649e+003,7.687607e+001
1.463614e+003,7.720596e+001
1.464578e+003,7.796063e+001
1.465542e+003,7.831876e+001
1.466506e+003,7.836081e+001
1.467471e+003,7.873859e+001
1.468435e+003,7.998087e+001
1.469399e+003,8.018860e+001
1.470363e+003,7.711380e+001
1.471328e+003,7.555399e+001
1.472292e+003,7.712921e+001
1.473256e+003,7.952713e+001
1.474220e+003,8.222415e+001
1.475184e+003,8.455508e+001
1.476149e+003,8.492438e+001
1.477113e+003,8.311551e+001
1.478077e+003,8.165460e+001
1.479041e+003,8.323865e+001
1.480006e+003,8.677405e+001
1.480970e+003,8.804709e+001
1.481934e+003,8.589337e+001
1.482898e+003,8.540195e+001
1.483863e+003,8.793707e+001
1.484827e+003,8.991742e+001
1.485791e+003,8.978497e+001
1.486755e+003,8.962878e+001
1.487719e+003,9.143466e+001
1.488684e+003,9.461108e+001
1.489648e+003,9.765649e+001
1.490612e+003,1.001541e+002
1.491576e+003,1.017630e+002
1.492541e+003,1.018049e+002
1.493505e+003,1.011647e+002
1.494469e+003,1.014996e+002
1.495433e+003,1.026008e+002
1.496398e+003,1.054590e+002
1.497362e+003,1.112390e+002
1.498326e+003,1.166742e+002
1.499290e+003,1.196385e+002
1.500255e+003,1.215262e+002
1.501219e+003,1.238297e+002
1.502183e+003,1.265847e+002
1.503147e+003,1.298879e+002
1.504111e+003,1.336383e+002
1.505076e+003,1.385749e+002
1.506040e+003,1.453864e+002
1.507004e+003,1.534915e+002
1.507968e+003,1.623517e+002
1.508933e+003,1.718957e+002
1.509897e+003,1.822648e+002
1.510861e+003,1.937394e+002
1.511825e+003,2.054530e+002
1.512790e+003,2.162923e+002
1.513754e+003,2.271208e+002
1.514718e+003,2.404293e+002
1.515682e+003,2.559913e+002
1.516646e+003,2.700393e+002
1.517611e+003,2.829785e+002
1.518575e+003,2.934495e+002
1.519539e+003,3.012130e+002
1.520503e+003,3.066506e+002
1.521468e+003,3.087289e+002
1.522432e+003,3.089199e+002
1.523396e+003,3.100267e+002
1.524360e+003,3.116178e+002
1.525325e+003,3.098562e+002
1.526289e+003,3.022702e+002
1.527253e+003,2.914759e+002
1.528217e+003,2.820679e+002
1.529182e+003,2.742628e+002
1.530146e+003,2.646930e+002
1.531110e+003,2.527786e+002
1.532074e+003,2.396868e+002
1.533039e+003,2.239708e+002
1.534003e+003,2.080906e+002
1.534967e+003,1.933646e+002
1.535931e+003,1.797592e+002
1.536896e+003,1.663542e+002
1.537860e+003,1.538127e+002
1.538824e+003,1.441948e+002
1.539788e+003,1.383745e+002
1.540752e+003,1.348510e+002
1.541717e+003,1.319171e+002
1.542681e+003,1.296690e+002
1.543645e+003,1.279806e+002
1.544609e+003,1.271178e+002
1.545573e+003,1.268673e+002
1.546538e+003,1.265742e+002
1.547502e+003,1.270453e+002
1.548466e+003,1.286373e+002
1.549430e+003,1.316699e+002
1.550395e+003,1.379633e+002
1.551359e+003,1.454986e+002
1.552323e+003,1.491235e+002
1.553287e+003,1.471483e+002
1.554252e+003,1.421073e+002
1.555216e+003,1.357384e+002
1.556180e+003,1.289632e+002
1.557144e+003,1.238081e+002
1.558109e+003,1.204733e+002
1.559073e+003,1.188405e+002
1.560037e+003,1.191557e+002
1.561001e+003,1.198954e+002
1.561966e+003,1.216161e+002
1.562930e+003,1.232133e+002
1.563894e+003,1.228143e+002
1.564858e+003,1.213843e+002
1.565823e+003,1.217801e+002
1.566787e+003,1.244093e+002
1.567751e+003,1.267470e+002
1.568715e+003,1.274185e+002
1.569679e+003,1.274184e+002
1.570644e+003,1.277925e+002
1.571608e+003,1.282502e+002
1.572572e+003,1.282559e+002
1.573536e+003,1.279262e+002
1.574500e+003,1.283250e+002
1.575465e+003,1.302409e+002
1.576429e+003,1.320953e+002
1.577393e+003,1.319773e+002
1.578357e+003,1.310218e+002
1.579322e+003,1.319815e+002
1.580286e+003,1.349164e+002
1.581250e+003,1.371974e+002
1.582214e+003,1.380772e+002
1.583179e+003,1.378403e+002
1.584143e+003,1.351927e+002
1.585107e+003,1.326761e+002
1.586071e+003,1.346504e+002
1.587036e+003,1.399227e+002
1.588000e+003,1.438580e+002
1.588964e+003,1.452405e+002
1.589928e+003,1.463200e+002
1.590893e+003,1.488719e+002
1.591857e+003,1.517445e+002
1.592821e+003,1.528495e+002
1.593785e+003,1.526441e+002
1.594750e+003,1.537827e+002
1.595714e+003,1.567628e+002
1.596678e+003,1.591727e+002
1.597642e+003,1.599359e+002
1.598606e+003,1.600567e+002
1.599571e+003,1.603359e+002
1.600535e+003,1.606590e+002
1.601499e+003,1.601133e+002
1.602463e+003,1.591567e+002
1.603427e+003,1.608197e+002
1.604392e+003,1.667521e+002
1.605356e+003,1.723853e+002
1.606320e+003,1.723048e+002
1.607284e+003,1.686423e+002
1.608249e+003,1.677558e+002
1.609213e+003,1.697772e+002
1.610177e+003,1.705521e+002
1.611141e+003,1.689258e+002
1.612106e+003,1.672157e+002
1.613070e+003,1.657610e+002
1.614034e+003,1.653413e+002
1.614998e+003,1.670210e+002
1.615963e+003,1.699728e+002
1.616927e+003,1.731049e+002
1.617891e+003,1.759724e+002
1.618855e+003,1.776320e+002
1.619820e+003,1.772147e+002
1.620784e+003,1.761348e+002
1.621748e+003,1.771983e+002
1.622712e+003,1.802059e+002
1.623677e+003,1.816336e+002
1.624641e+003,1.811947e+002
1.625605e+003,1.808953e+002
1.626569e+003,1.805781e+002
1.627533e+003,1.801860e+002
1.628498e+003,1.798083e+002
1.629462e+003,1.797900e+002
1.630426e+003,1.800288e+002
1.631390e+003,1.808448e+002
1.632354e+003,1.837826e+002
1.633319e+003,1.887059e+002
1.634283e+003,1.914707e+002
1.635247e+003,1.885484e+002
1.636211e+003,1.830245e+002
1.637176e+003,1.804305e+002
1.638140e+003,1.807236e+002
1.639104e+003,1.817099e+002
1.640068e+003,1.836710e+002
1.641033e+003,1.845086e+002
1.641997e+003,1.826880e+002
1.642961e+003,1.813457e+002
1.643925e+003,1.825449e+002
1.644890e+003,1.844584e+002
1.645854e+003,1.855662e+002
1.646818e+003,1.856897e+002
1.647782e+003,1.845113e+002
1.648747e+003,1.821107e+002
1.649711e+003,1.806721e+002
1.650675e+003,1.823458e+002
1.651639e+003,1.858037e+002
1.652604e+003,1.882285e+002
1.653568e+003,1.895054e+002
1.654532e+003,1.897035e+002
1.655496e+003,1.885097e+002
1.656460e+003,1.873802e+002
1.657425e+003,1.869533e+002
1.658389e+003,1.865690e+002
1.659353e+003,1.861643e+002
1.660317e+003,1.853641e+002
1.661281e+003,1.831228e+002
1.662246e+003,1.801021e+002
1.663210e+003,1.784606e+002
1.664174e+003,1.789525e+002
1.665138e+003,1.802913e+002
1.666103e+003,1.816872e+002
1.667067e+003,1.824280e+002
1.668031e+003,1.805365e+002
1.668995e+003,1.763756e+002
1.669960e+003,1.747215e+002
1.670924e+003,1.767763e+002
1.671888e+003,1.779328e+002
1.672852e+003,1.762029e+002
1.673817e+003,1.737939e+002
1.674781e+003,1.712175e+002
1.675745e+003,1.693452e+002
1.676709e+003,1.696516e+002
1.677674e+003,1.714955e+002
1.678638e+003,1.730025e+002
1.679602e+003,1.735772e+002
1.680566e+003,1.728791e+002
1.681531e+003,1.701741e+002
1.682495e+003,1.669655e+002
1.683459e+003,1.659142e+002
1.684423e+003,1.664601e+002
1.685387e+003,1.656203e+002
1.686352e+003,1.629789e+002
1.687316e+003,1.608374e+002
1.688280e+003,1.596559e+002
1.689244e+003,1.596241e+002
1.690208e+003,1.622886e+002
1.691173e+003,1.651080e+002
1.692137e+003,1.649977e+002
1.693101e+003,1.628351e+002
1.694065e+003,1.611761e+002
1.695030e+003,1.604426e+002
1.695994e+003,1.600862e+002
1.696958e+003,1.603404e+002
1.697922e+003,1.603424e+002
1.698887e+003,1.583999e+002
1.699851e+003,1.554639e+002
1.700815e+003,1.545982e+002
1.701779e+003,1.559076e+002
1.702744e+003,1.563099e+002
1.703708e+003,1.547162e+002
1.704672e+003,1.535901e+002
1.705636e+003,1.549910e+002
1.706601e+003,1.569588e+002
1.707565e+003,1.567021e+002
1.708529e+003,1.550299e+002
1.709493e+003,1.542314e+002
1.710458e+003,1.547446e+002
1.711422e+003,1.540975e+002
1.712386e+003,1.498619e+002
1.713350e+003,1.461440e+002
1.714314e+003,1.466555e+002
1.715279e+003,1.491790e+002
1.716243e+003,1.503824e+002
1.717207e+003,1.501812e+002
1.718171e+003,1.494692e+002
1.719135e+003,1.485417e+002
1.720100e+003,1.483115e+002
1.721064e+003,1.496088e+002
1.722028e+003,1.509249e+002
1.722992e+003,1.499656e+002
1.723957e+003,1.474811e+002
1.724921e+003,1.468134e+002
1.725885e+003,1.480522e+002
1.726849e+003,1.481338e+002
1.727814e+003,1.464581e+002
1.728778e+003,1.444854e+002
1.729742e+003,1.415471e+002
1.730706e+003,1.395970e+002
1.731671e+003,1.413472e+002
1.732635e+003,1.448999e+002
1.733599e+003,1.464603e+002
1.734563e+003,1.457744e+002
1.735528e+003,1.453607e+002
1.736492e+003,1.464586e+002
1.737456e+003,1.478244e+002
1.738420e+003,1.479902e+002
1.739385e+003,1.471054e+002
1.740349e+003,1.462749e+002
1.741313e+003,1.455670e+002
1.742277e+003,1.453533e+002
1.743241e+003,1.461653e+002
1.744206e+003,1.469320e+002
1.745170e+003,1.471242e+002
1.746134e+003,1.474853e+002
1.747098e+003,1.490886e+002
1.748063e+003,1.505602e+002
1.749027e+003,1.498481e+002
1.749991e+003,1.476883e+002
1.750955e+003,1.463546e+002
1.751919e+003,1.465839e+002
1.752884e+003,1.475028e+002
1.753848e+003,1.484080e+002
1.754812e+003,1.490419e+002
1.755776e+003,1.490067e+002
1.756741e+003,1.484881e+002
1.757705e+003,1.476853e+002
1.758669e+003,1.459564e+002
1.759633e+003,1.453813e+002
1.760598e+003,1.470237e+002
1.761562e+003,1.483200e+002
1.762526e+003,1.487716e+002
1.763490e+003,1.487404e+002
1.764455e+003,1.481828e+002
1.765419e+003,1.475271e+002
1.766383e+003,1.472579e+002
1.767347e+003,1.473228e+002
1.768312e+003,1.474850e+002
1.769276e+003,1.475848e+002
1.770240e+003,1.473232e+002
1.771204e+003,1.462170e+002
1.772168e+003,1.452764e+002
1.773133e+003,1.472872e+002
1.774097e+003,1.517059e+002
1.775061e+003,1.523166e+002
1.776025e+003,1.475399e+002
1.776990e+003,1.450857e+002
1.777954e+003,1.489732e+002
1.778918e+003,1.531176e+002
1.779882e+003,1.524776e+002
1.780846e+003,1.497837e+002
1.781811e+003,1.486353e+002
1.782775e+003,1.488650e+002
1.783739e+003,1.499361e+002
1.784703e+003,1.519459e+002
1.785668e+003,1.535780e+002
1.786632e+003,1.539293e+002
1.787596e+003,1.537416e+002
1.788560e+003,1.535793e+002
1.789525e+003,1.537049e+002
1.790489e+003,1.543425e+002
1.791453e+003,1.552380e+002
1.792417e+003,1.560074e+002
1.793382e+003,1.565284e+002
1.794346e+003,1.564642e+002
1.795310e+003,1.555740e+002
1.796274e+003,1.543178e+002
1.797239e+003,1.532291e+002
1.798203e+003,1.526816e+002
1.799167e+003,1.532375e+002
1.800131e+003,1.547650e+002
1.801095e+003,1.555108e+002
1.802060e+003,1.553759e+002
1.803024e+003,1.554548e+002
1.803988e+003,1.554879e+002
1.804952e+003,1.559235e+002
1.805917e+003,1.577070e+002
1.806881e+003,1.593612e+002
1.807845e+003,1.591451e+002
1.808809e+003,1.578451e+002
1.809773e+003,1.572217e+002
1.810738e+003,1.576438e+002
1.811702e+003,1.582542e+002
1.812666e+003,1.584967e+002
1.813630e+003,1.586984e+002
1.814595e+003,1.593532e+002
1.815559e+003,1.602164e+002
1.816523e+003,1.602949e+002
1.817487e+003,1.594633e+002
1.818452e+003,1.600648e+002
1.819416e+003,1.634259e+002
1.820380e+003,1.651013e+002
1.821344e+003,1.619745e+002
1.822309e+003,1.592281e+002
1.823273e+003,1.609152e+002
1.824237e+003,1.639223e+002
1.825201e+003,1.649637e+002
1.826166e+003,1.645174e+002
1.827130e+003,1.645108e+002
1.828094e+003,1.651912e+002
1.829058e+003,1.651613e+002
1.830022e+003,1.632867e+002
1.830987e+003,1.618636e+002
1.831951e+003,1.636708e+002
1.832915e+003,1.664522e+002
1.833879e+003,1.664563e+002
1.834844e+003,1.646050e+002
1.835808e+003,1.641063e+002
1.836772e+003,1.654490e+002
1.837736e+003,1.676469e+002
1.838700e+003,1.702528e+002
1.839665e+003,1.717005e+002
1.840629e+003,1.704186e+002
1.841593e+003,1.677458e+002
1.842557e+003,1.663031e+002
1.843522e+003,1.660708e+002
1.844486e+003,1.662162e+002
1.845450e+003,1.670073e+002
1.846414e+003,1.681687e+002
1.847379e+003,1.700988e+002
1.848343e+003,1.712038e+002
1.849307e+003,1.706207e+002
1.850271e+003,1.696951e+002
1.851236e+003,1.694361e+002
1.852200e+003,1.696099e+002
1.853164e+003,1.694751e+002
1.854128e+003,1.689675e+002
1.855093e+003,1.689101e+002
1.856057e+003,1.696516e+002
1.857021e+003,1.699506e+002
1.857985e+003,1.685017e+002
1.858949e+003,1.666902e+002
1.859914e+003,1.672616e+002
1.860878e+003,1.697750e+002
1.861842e+003,1.715125e+002
1.862806e+003,1.723849e+002
1.863771e+003,1.724811e+002
1.864735e+003,1.713931e+002
1.865699e+003,1.710987e+002
1.866663e+003,1.728162e+002
1.867627e+003,1.752726e+002
1.868592e+003,1.777866e+002
1.869556e+003,1.796590e+002
1.870520e+003,1.795474e+002
1.871484e+003,1.777792e+002
1.872449e+003,1.767026e+002
1.873413e+003,1.771810e+002
1.874377e+003,1.780239e+002
1.875341e+003,1.789851e+002
1.876306e+003,1.791731e+002
1.877270e+003,1.773173e+002
1.878234e+003,1.750633e+002
1.879198e+003,1.739794e+002
1.880163e+003,1.739536e+002
1.881127e+003,1.744880e+002
1.882091e+003,1.755616e+002
1.883055e+003,1.778843e+002
1.884020e+003,1.814846e+002
1.884984e+003,1.841541e+002
1.885948e+003,1.838505e+002
1.886912e+003,1.820391e+002
1.887876e+003,1.815578e+002
1.888841e+003,1.823933e+002
1.889805e+003,1.845515e+002
1.890769e+003,1.886790e+002
1.891733e+003,1.904524e+002
1.892698e+003,1.882555e+002
1.893662e+003,1.862585e+002
1.894626e+003,1.857577e+002
1.895590e+003,1.861517e+002
1.896554e+003,1.880798e+002
1.897519e+003,1.901107e+002
1.898483e+003,1.896929e+002
1.899447e+003,1.875774e+002
1.900411e+003,1.875910e+002
1.901376e+003,1.906424e+002
1.902340e+003,1.916546e+002
1.903304e+003,1.861621e+002
1.904268e+003,1.821361e+002
1.905233e+003,1.867039e+002
1.906197e+003,1.930664e+002
1.907161e+003,1.938185e+002
1.908125e+003,1.914641e+002
1.909090e+003,1.906881e+002
1.910054e+003,1.918900e+002
1.911018e+003,1.940180e+002
1.911982e+003,1.965243e+002
1.912947e+003,1.981422e+002
1.913911e+003,1.978921e+002
1.914875e+003,1.967872e+002
1.915839e+003,1.962846e+002
1.916803e+003,1.962159e+002
1.917768e+003,1.966100e+002
1.918732e+003,1.977854e+002
1.919696e+003,1.981201e+002
1.920660e+003,1.972520e+002
1.921625e+003,1.968531e+002
1.922589e+003,1.973445e+002
1.923553e+003,1.979931e+002
1.924517e+003,1.986622e+002
1.925481e+003,1.991571e+002
1.926446e+003,1.990803e+002
1.927410e+003,1.988090e+002
1.928374e+003,1.991016e+002
1.929338e+003,1.998548e+002
1.930303e+003,2.003474e+002
1.931267e+003,2.006091e+002
1.932231e+003,2.008734e+002
1.933195e+003,2.007198e+002
1.934160e+003,2.008054e+002
1.935124e+003,2.020875e+002
1.936088e+003,2.033871e+002
1.937052e+003,2.033492e+002
1.938017e+003,2.024236e+002
1.938981e+003,2.009720e+002
1.939945e+003,1.996612e+002
1.940909e+003,2.009865e+002
1.941874e+003,2.056610e+002
1.942838e+003,2.095965e+002
1.943802e+003,2.090753e+002
1.944766e+003,2.064371e+002
1.945730e+003,2.060129e+002
1.946695e+003,2.073780e+002
1.947659e+003,2.080163e+002
1.948623e+003,2.077690e+002
1.949587e+003,2.083034e+002
1.950552e+003,2.104153e+002
1.951516e+003,2.109745e+002
1.952480e+003,2.078386e+002
1.953444e+003,2.053012e+002
1.954408e+003,2.069944e+002
1.955373e+003,2.100606e+002
1.956337e+003,2.105706e+002
1.957301e+003,2.094561e+002
1.958265e+003,2.091711e+002
1.959230e+003,2.097577e+002
1.960194e+003,2.115438e+002
1.961158e+003,2.162515e+002
1.962122e+003,2.189628e+002
1.963087e+003,2.168475e+002
1.964051e+003,2.144191e+002
1.965015e+003,2.139292e+002
1.965979e+003,2.150157e+002
1.966944e+003,2.182406e+002
1.967908e+003,2.217575e+002
1.968872e+003,2.222267e+002
1.969836e+003,2.199519e+002
1.970801e+003,2.184162e+002
1.971765e+003,2.191013e+002
1.972729e+003,2.204176e+002
1.973693e+003,2.211462e+002
1.974657e+003,2.213278e+002
1.975622e+003,2.207325e+002
1.976586e+003,2.196104e+002
1.977550e+003,2.183942e+002
1.978514e+003,2.174739e+002
1.979479e+003,2.188594e+002
1.980443e+003,2.226434e+002
1.981407e+003,2.261885e+002
1.982371e+003,2.286415e+002
1.983335e+003,2.298413e+002
1.984300e+003,2.293968e+002
1.985264e+003,2.282711e+002
1.986228e+003,2.281553e+002
1.987192e+003,2.286793e+002
1.988157e+003,2.278124e+002
1.989121e+003,2.249916e+002
1.990085e+003,2.241891e+002
1.991049e+003,2.269590e+002
1.992014e+003,2.288131e+002
1.992978e+003,2.279445e+002
1.993942e+003,2.276332e+002
1.994906e+003,2.298093e+002
1.995871e+003,2.321132e+002
1.996835e+003,2.328131e+002
1.997799e+003,2.326658e+002
1.998763e+003,2.322505e+002
1.999728e+003,2.319049e+002
