5.003444e+002,3.590689e+001
5.013087e+002,3.656262e+001
5.022729e+002,3.540701e+001
5.032371e+002,3.331287e+001
5.042014e+002,3.289450e+001
5.051656e+002,3.392075e+001
5.061298e+002,3.524487e+001
5.070941e+002,3.588678e+001
5.080583e+002,3.582518e+001
5.090225e+002,3.446626e+001
5.099868e+002,3.032545e+001
5.109510e+002,2.680991e+001
5.119152e+002,2.606227e+001
5.128795e+002,2.835657e+001
5.138437e+002,3.030370e+001
5.148079e+002,3.085501e+001
5.157722e+002,3.080707e+001
5.167364e+002,2.997437e+001
5.177006e+002,2.858626e+001
5.186649e+002,2.742526e+001
5.196291e+002,2.807333e+001
5.205933e+002,2.934431e+001
5.215576e+002,2.963780e+001
5.225218e+002,2.873067e+001
5.234860e+002,2.714357e+001
5.244503e+002,2.593491e+001
5.254145e+002,2.542912e+001
5.263787e+002,2.486685e+001
5.273430e+002,2.413647e+001
5.283072e+002,2.342227e+001
5.292714e+002,2.297537e+001
5.302357e+002,2.284151e+001
5.311999e+002,2.245010e+001
5.321641e+002,2.169820e+001
5.331284e+002,2.102440e+001
5.340926e+002,2.072446e+001
5.350568e+002,2.085466e+001
5.360211e+002,2.104332e+001
5.369853e+002,2.123715e+001
5.379495e+002,2.141656e+001
5.389138e+002,2.148111e+001
5.398780e+002,2.138208e+001
5.408422e+002,2.117677e+001
5.418065e+002,2.127563e+001
5.427707e+002,2.155376e+001
5.437349e+002,2.059349e+001
5.446992e+002,1.740590e+001
5.456634e+002,1.306895e+001
5.466276e+002,1.147031e+001
5.475919e+002,1.641922e+001
5.485561e+002,1.968846e+001
5.495203e+002,2.051389e+001
5.504846e+002,1.955219e+001
5.514488e+002,1.757419e+001
5.524130e+002,1.419231e+001
5.533773e+002,1.145615e+001
5.543415e+002,1.053659e+001
5.553057e+002,1.054788e+001
5.562700e+002,1.048773e+001
5.572342e+002,9.734314e+000
5.581984e+002,8.930328e+000
5.591627e+002,1.028709e+001
5.601269e+002,1.293970e+001
5.610911e+002,1.493549e+001
5.620554e+002,1.522270e+001
5.630196e+002,1.390778e+001
5.639838e+002,1.231956e+001
5.649481e+002,9.682556e+000
5.659123e+002,7.896118e+000
5.668765e+002,7.785355e+000
5.678408e+002,8.939468e+000
5.688050e+002,1.000815e+001
5.697692e+002,1.043637e+001
5.707335e+002,1.069284e+001
5.716977e+002,1.102908e+001
5.726619e+002,1.135489e+001
5.736262e+002,1.148239e+001
5.745904e+002,1.125032e+001
5.755546e+002,1.103113e+001
5.765189e+002,1.168758e+001
5.774831e+002,1.256424e+001
5.784473e+002,1.242267e+001
5.794116e+002,1.048613e+001
5.803758e+002,7.096970e+000
5.813400e+002,5.788239e+000
5.823043e+002,6.900848e+000
5.832685e+002,7.935715e+000
5.842327e+002,8.312958e+000
5.851970e+002,8.136108e+000
5.861612e+002,7.544891e+000
5.871254e+002,5.268478e+000
5.880897e+002,3.850922e+000
5.890539e+002,4.044327e+000
5.900181e+002,5.304031e+000
5.909824e+002,6.866852e+000
5.919466e+002,8.614594e+000
5.929108e+002,9.777588e+000
5.938751e+002,9.467392e+000
5.948393e+002,8.278351e+000
5.958035e+002,7.141739e+000
5.967678e+002,6.749222e+000
5.977320e+002,6.990219e+000
5.986962e+002,6.498993e+000
5.996605e+002,5.149841e+000
6.006247e+002,3.810425e+000
6.015889e+002,2.593750e+000
6.025532e+002,1.579025e+000
6.035174e+002,1.634460e+000
6.044816e+002,4.857849e+000
6.054459e+002,6.926422e+000
6.064101e+002,6.380844e+000
6.073743e+002,4.375290e+000
6.083386e+002,3.121902e+000
6.093028e+002,4.097641e+000
6.102670e+002,5.462921e+000
6.112313e+002,5.827881e+000
6.121955e+002,5.542542e+000
6.131597e+002,4.984314e+000
6.141240e+002,4.421494e+000
6.150882e+002,3.911224e+000
6.160524e+002,3.937057e+000
6.170167e+002,4.456528e+000
6.179809e+002,4.751480e+000
6.189451e+002,4.271667e+000
6.199094e+002,3.137680e+000
6.208736e+002,2.723251e+000
6.218378e+002,4.522598e+000
6.228021e+002,5.567322e+000
6.237663e+002,5.006638e+000
6.247305e+002,3.726791e+000
6.256948e+002,3.193558e+000
6.266590e+002,4.180481e+000
6.276232e+002,5.197617e+000
6.285875e+002,5.811615e+000
6.295517e+002,5.914459e+000
6.305159e+002,5.016403e+000
6.314802e+002,2.916901e+000
6.324444e+002,3.805542e-001
6.334086e+002,1.304169e-001
6.343729e+002,1.487564e+000
6.353371e+002,2.458725e+000
6.363013e+002,2.248856e+000
6.372656e+002,1.202332e+000
6.382298e+002,6.685638e-001
6.391940e+002,1.675476e+000
6.401583e+002,1.697372e+000
6.411225e+002,-1.131744e-001
6.420867e+002,-2.267776e+000
6.430510e+002,-2.896759e+000
6.440152e+002,-1.122879e+000
6.449794e+002,4.136658e-001
6.459437e+002,2.969360e-002
6.469079e+002,-8.753510e-001
6.478721e+002,-1.156326e+000
6.488364e+002,-4.195404e-001
6.498006e+002,7.174530e-001
6.507648e+002,1.044724e+000
6.517291e+002,8.459625e-001
6.526933e+002,1.080109e+000
6.536575e+002,1.970856e+000
6.546218e+002,2.775162e+000
6.555860e+002,1.958649e+000
6.565502e+002,-2.058197e+000
6.575145e+002,-4.245972e+000
6.584787e+002,-3.617722e+000
6.594429e+002,-2.205292e+000
6.604072e+002,-1.774521e+000
6.613714e+002,-2.718628e+000
6.623356e+002,-2.878601e+000
6.632999e+002,-3.004608e-001
6.642641e+002,2.366104e+000
6.652283e+002,3.983795e+000
6.661926e+002,4.411194e+000
6.671568e+002,4.060333e+000
6.681210e+002,3.023300e+000
6.690853e+002,1.746979e+000
6.700495e+002,1.634995e+000
6.710137e+002,2.640030e+000
6.719780e+002,3.767105e+000
6.729422e+002,3.945175e+000
6.739064e+002,2.970184e+000
6.748707e+002,1.896439e+000
6.758349e+002,4.749603e-001
6.767991e+002,-7.797241e-001
6.777634e+002,-1.557831e+000
6.787276e+002,-1.814804e+000
6.796918e+002,-1.806656e+000
6.806561e+002,-1.754562e+000
6.816203e+002,-1.467773e+000
6.825845e+002,-5.592194e-001
6.835488e+002,5.771332e-001
6.845130e+002,1.342819e+000
6.854772e+002,1.305405e+000
6.864415e+002,7.760925e-001
6.874057e+002,2.907562e-001
6.883699e+002,-2.905884e-001
6.893342e+002,-1.114853e+000
6.902984e+002,-2.256775e+000
6.912626e+002,-3.595932e+000
6.922269e+002,-4.545990e+000
6.931911e+002,-5.735779e+000
6.941553e+002,-5.249191e+000
6.951196e+002,-1.257202e+000
6.960838e+002,3.769394e+000
6.970480e+002,5.609375e+000
6.980123e+002,1.934479e+000
6.989765e+002,-1.076248e+000
6.999407e+002,-4.466095e-001
7.009050e+002,1.398666e+000
7.018692e+002,2.678284e+000
7.028334e+002,2.721909e+000
7.037977e+002,2.162384e+000
7.047619e+002,2.050095e+000
7.057261e+002,2.178375e+000
7.066904e+002,1.779068e+000
7.076546e+002,7.272491e-001
7.086188e+002,-3.485260e-001
7.095831e+002,-4.010315e-001
7.105473e+002,1.031036e+000
7.115115e+002,1.856277e+000
7.124758e+002,1.696732e+000
7.134400e+002,1.371048e+000
7.144042e+002,1.741531e+000
7.153685e+002,2.815720e+000
7.163327e+002,2.909088e+000
7.172969e+002,-8.981323e-002
7.182612e+002,-3.021713e+000
7.192254e+002,-4.978561e+000
7.201896e+002,-5.854752e+000
7.211539e+002,-5.621490e+000
7.221181e+002,-4.089661e+000
7.230823e+002,-1.930130e+000
7.240466e+002,-8.242035e-001
7.250108e+002,-5.276947e-001
7.259750e+002,-8.038483e-001
7.269393e+002,-1.767059e+000
7.279035e+002,-3.334488e+000
7.288677e+002,-3.861786e+000
7.298320e+002,-1.428986e+000
7.307962e+002,1.110382e-001
7.317604e+002,-3.368530e-001
7.327247e+002,-1.448074e+000
7.336889e+002,-1.282684e+000
7.346531e+002,9.259338e-001
7.356174e+002,2.712769e+000
7.365816e+002,2.957535e+000
7.375458e+002,2.550415e+000
7.385101e+002,1.910751e+000
7.394743e+002,1.277634e+000
7.404385e+002,8.056946e-001
7.414028e+002,7.332153e-001
7.423670e+002,7.816315e-001
7.433312e+002,6.747437e-001
7.442955e+002,5.552979e-001
7.452597e+002,5.556946e-001
7.462239e+002,7.625885e-001
7.471882e+002,1.197998e+000
7.481524e+002,1.502289e+000
7.491166e+002,1.684509e+000
7.500809e+002,1.445129e+000
7.510451e+002,3.190918e-001
7.520093e+002,-1.371979e+000
7.529736e+002,-2.538162e+000
7.539378e+002,-2.321716e+000
7.549020e+002,-1.647827e+000
7.558663e+002,-1.050217e+000
7.568306e+002,-5.149841e-001
7.577948e+002,1.670837e-002
7.587590e+002,5.299835e-001
7.597233e+002,8.586273e-001
7.606875e+002,5.792084e-001
7.616517e+002,-1.381531e-001
7.626160e+002,-5.884094e-001
7.635802e+002,-6.589813e-001
7.645444e+002,-2.516632e-001
7.655087e+002,1.000046e+000
7.664729e+002,4.036011e+000
7.674371e+002,5.660950e+000
7.684014e+002,4.984497e+000
7.693656e+002,3.756729e+000
7.703298e+002,3.304916e+000
7.712941e+002,3.692810e+000
7.722583e+002,3.408508e+000
7.732225e+002,-1.264191e-001
7.741868e+002,-3.299484e+000
7.751510e+002,-2.518158e+000
7.761152e+002,1.115967e+000
7.770795e+002,4.483139e+000
7.780437e+002,4.802780e+000
7.790079e+002,2.558746e+000
7.799722e+002,2.694061e+000
7.809364e+002,5.585236e+000
7.819006e+002,7.205475e+000
7.828649e+002,5.018494e+000
7.838291e+002,4.737549e-001
7.847933e+002,-1.562302e+000
7.857576e+002,1.010635e+000
7.867218e+002,2.493256e+000
7.876860e+002,9.783783e-001
7.886503e+002,-1.018051e+000
7.896145e+002,-1.219040e+000
7.905787e+002,8.916626e-001
7.915430e+002,3.472946e+000
7.925072e+002,4.749405e+000
7.934714e+002,5.026962e+000
7.944357e+002,4.127899e+000
7.953999e+002,2.514038e+000
7.963641e+002,1.770920e+000
7.973284e+002,3.769928e+000
7.982926e+002,8.815536e+000
7.992568e+002,1.033435e+001
8.002211e+002,6.347855e+000
8.011853e+002,2.730453e+000
8.021495e+002,2.133377e+000
8.031138e+002,3.964264e+000
8.040780e+002,5.586349e+000
8.050422e+002,6.458237e+000
8.060065e+002,6.789719e+000
8.069707e+002,6.518265e+000
8.079349e+002,5.790726e+000
8.088992e+002,4.626877e+000
8.098634e+002,3.155304e+000
8.108276e+002,1.791382e+000
8.117919e+002,6.990814e-001
8.127561e+002,1.213989e-001
8.137203e+002,1.603516e+000
8.146846e+002,5.344925e+000
8.156488e+002,8.830460e+000
8.166130e+002,8.656982e+000
8.175773e+002,3.830444e+000
8.185415e+002,1.140289e+000
8.195057e+002,1.171738e+000
8.204700e+002,1.903320e+000
8.214342e+002,3.087616e+000
8.223984e+002,4.475006e+000
8.233627e+002,5.570847e+000
8.243269e+002,6.305847e+000
8.252911e+002,6.565109e+000
8.262554e+002,6.219940e+000
8.272196e+002,5.539612e+000
8.281838e+002,4.497589e+000
8.291481e+002,3.253922e+000
8.301123e+002,2.439240e+000
8.310765e+002,3.401108e+000
8.320408e+002,5.939362e+000
8.330050e+002,7.554901e+000
8.339692e+002,8.056381e+000
8.349335e+002,7.915512e+000
8.358977e+002,7.519135e+000
8.368619e+002,6.881897e+000
8.378262e+002,6.365921e+000
8.387904e+002,6.243607e+000
8.397546e+002,5.749298e+000
8.407189e+002,3.975021e+000
8.416831e+002,1.891068e+000
8.426473e+002,1.229492e+000
8.436116e+002,2.951645e+000
8.445758e+002,5.535233e+000
8.455400e+002,8.275253e+000
8.465043e+002,1.023419e+001
8.474685e+002,9.656067e+000
8.484327e+002,6.551346e+000
8.493970e+002,3.221786e+000
8.503612e+002,3.493088e+000
8.513254e+002,8.176346e+000
8.522897e+002,1.026648e+001
8.532539e+002,8.202164e+000
8.542181e+002,5.787033e+000
8.551824e+002,5.261108e+000
8.561466e+002,6.578156e+000
8.571108e+002,8.510742e+000
8.580751e+002,1.185043e+001
8.590393e+002,1.370952e+001
8.600035e+002,1.230490e+001
8.609678e+002,9.677429e+000
8.619320e+002,7.949570e+000
8.628962e+002,7.999710e+000
8.638605e+002,9.151016e+000
8.648247e+002,1.102975e+001
8.657889e+002,1.304620e+001
8.667532e+002,1.382376e+001
8.677174e+002,1.318137e+001
8.686816e+002,1.199055e+001
8.696459e+002,1.113647e+001
8.706101e+002,1.058563e+001
8.715743e+002,1.122186e+001
8.725386e+002,1.451935e+001
8.735028e+002,1.705234e+001
8.744670e+002,1.753351e+001
8.754313e+002,1.660776e+001
8.763955e+002,1.542671e+001
8.773597e+002,1.409392e+001
8.783240e+002,1.373341e+001
8.792882e+002,1.593440e+001
8.802524e+002,1.873180e+001
8.812167e+002,2.057129e+001
8.821809e+002,2.106911e+001
8.831451e+002,2.059488e+001
8.841094e+002,1.954326e+001
8.850736e+002,1.810394e+001
8.860378e+002,1.817366e+001
8.870021e+002,2.011511e+001
8.879663e+002,2.182576e+001
8.889305e+002,2.166675e+001
8.898948e+002,2.010689e+001
8.908590e+002,1.988641e+001
8.918232e+002,2.269991e+001
8.927875e+002,2.450478e+001
8.937517e+002,2.354462e+001
8.947159e+002,2.202310e+001
8.956802e+002,2.183226e+001
8.966444e+002,2.323093e+001
8.976086e+002,2.482693e+001
8.985729e+002,2.535460e+001
8.995371e+002,2.532402e+001
9.005013e+002,2.557388e+001
9.014656e+002,2.609880e+001
9.024298e+002,2.645146e+001
9.033940e+002,2.617018e+001
9.043583e+002,2.531789e+001
9.053225e+002,2.513658e+001
9.062867e+002,2.618600e+001
9.072510e+002,2.707086e+001
9.082152e+002,2.843628e+001
9.091794e+002,2.943254e+001
9.101437e+002,2.879916e+001
9.111079e+002,2.630122e+001
9.120721e+002,2.418744e+001
9.130364e+002,2.437001e+001
9.140006e+002,2.461171e+001
9.149648e+002,2.314293e+001
9.159291e+002,2.088718e+001
9.168933e+002,1.996877e+001
9.178575e+002,2.178839e+001
9.188218e+002,2.525601e+001
9.197860e+002,2.675948e+001
9.207502e+002,2.624353e+001
9.217145e+002,2.545358e+001
9.226787e+002,2.459625e+001
9.236429e+002,2.395961e+001
9.246072e+002,2.397968e+001
9.255714e+002,2.477902e+001
9.265356e+002,2.511255e+001
9.274999e+002,2.391321e+001
9.284641e+002,2.305725e+001
9.294283e+002,2.361119e+001
9.303926e+002,2.497282e+001
9.313568e+002,2.608717e+001
9.323210e+002,2.643150e+001
9.332853e+002,2.603870e+001
9.342495e+002,2.409084e+001
9.352137e+002,2.159555e+001
9.361780e+002,2.047128e+001
9.371422e+002,2.119116e+001
9.381064e+002,2.260455e+001
9.390707e+002,2.298256e+001
9.400349e+002,2.189096e+001
9.409991e+002,2.194167e+001
9.419634e+002,2.511000e+001
9.429276e+002,2.670654e+001
9.438918e+002,2.432828e+001
9.448561e+002,2.003287e+001
9.458203e+002,1.738568e+001
9.467845e+002,1.760516e+001
9.477488e+002,1.841798e+001
9.487130e+002,1.794395e+001
9.496772e+002,1.740143e+001
9.506415e+002,1.837154e+001
9.516057e+002,2.043149e+001
9.525699e+002,2.131879e+001
9.535342e+002,1.872897e+001
9.544984e+002,1.333147e+001
9.554626e+002,1.174702e+001
9.564269e+002,1.478577e+001
9.573911e+002,1.742084e+001
9.583553e+002,1.797408e+001
9.593196e+002,1.745605e+001
9.602838e+002,1.759428e+001
9.612480e+002,1.868416e+001
9.622123e+002,1.927736e+001
9.631765e+002,1.886150e+001
9.641407e+002,1.805580e+001
9.651050e+002,1.659920e+001
9.660692e+002,1.496518e+001
9.670334e+002,1.408946e+001
9.679977e+002,1.462750e+001
9.689619e+002,1.603838e+001
9.699261e+002,1.731801e+001
9.708904e+002,1.828351e+001
9.718546e+002,1.821913e+001
9.728188e+002,1.667670e+001
9.737831e+002,1.506163e+001
9.747473e+002,1.562666e+001
9.757115e+002,1.909741e+001
9.766758e+002,2.098575e+001
9.776400e+002,1.928439e+001
9.786042e+002,1.862848e+001
9.795685e+002,2.096078e+001
9.805327e+002,2.443820e+001
9.814969e+002,2.696524e+001
9.824612e+002,2.792575e+001
9.834254e+002,2.719955e+001
9.843896e+002,2.283374e+001
9.853539e+002,1.754811e+001
9.863181e+002,1.430022e+001
9.872823e+002,1.309756e+001
9.882466e+002,1.276523e+001
9.892108e+002,1.243875e+001
9.901750e+002,1.230693e+001
9.911393e+002,1.267590e+001
9.921035e+002,1.348434e+001
9.930677e+002,1.432413e+001
9.940320e+002,1.557880e+001
9.949962e+002,1.677484e+001
9.959604e+002,1.728606e+001
9.969247e+002,1.713907e+001
9.978889e+002,1.734886e+001
9.988531e+002,1.848088e+001
9.998174e+002,1.965694e+001
1.000782e+003,2.051346e+001
1.001746e+003,2.118083e+001
1.002710e+003,2.176057e+001
1.003674e+003,2.231508e+001
1.004639e+003,2.300043e+001
1.005603e+003,2.420982e+001
1.006567e+003,2.595969e+001
1.007531e+003,2.613655e+001
1.008495e+003,2.396814e+001
1.009460e+003,2.189233e+001
1.010424e+003,2.175314e+001
1.011388e+003,2.299767e+001
1.012352e+003,2.319449e+001
1.013317e+003,2.142340e+001
1.014281e+003,1.972128e+001
1.015245e+003,1.878114e+001
1.016209e+003,1.798199e+001
1.017174e+003,1.689461e+001
1.018138e+003,1.552515e+001
1.019102e+003,1.422876e+001
1.020066e+003,1.337137e+001
1.021031e+003,1.268578e+001
1.021995e+003,1.080254e+001
1.022959e+003,7.935547e+000
1.023923e+003,5.985519e+000
1.024887e+003,5.719452e+000
1.025852e+003,6.339890e+000
1.026816e+003,6.797928e+000
1.027780e+003,7.298996e+000
1.028744e+003,7.044113e+000
1.029709e+003,4.778381e+000
1.030673e+003,3.107071e+000
1.031637e+003,3.172440e+000
1.032601e+003,4.082535e+000
1.033566e+003,4.721252e+000
1.034530e+003,4.705048e+000
1.035494e+003,4.138351e+000
1.036458e+003,2.715988e+000
1.037422e+003,9.693146e-001
1.038387e+003,-3.238068e-001
1.039351e+003,-1.108307e+000
1.040315e+003,-1.184036e+000
1.041279e+003,-2.830963e-001
1.042244e+003,1.416565e+000
1.043208e+003,2.804535e+000
1.044172e+003,3.340958e+000
1.045136e+003,4.287079e+000
1.046101e+003,6.901123e+000
1.047065e+003,8.817505e+000
1.048029e+003,7.645004e+000
1.048993e+003,4.243988e+000
1.049958e+003,2.277985e+000
1.050922e+003,4.010422e+000
1.051886e+003,6.382172e+000
1.052850e+003,6.044754e+000
1.053814e+003,4.458847e+000
1.054779e+003,3.375839e+000
1.055743e+003,3.195450e+000
1.056707e+003,3.342819e+000
1.057671e+003,3.109924e+000
1.058636e+003,2.471390e+000
1.059600e+003,2.548950e+000
1.060564e+003,4.521332e+000
1.061528e+003,5.737335e+000
1.062493e+003,5.193954e+000
1.063457e+003,3.952103e+000
1.064421e+003,3.193420e+000
1.065385e+003,3.099716e+000
1.066349e+003,3.204819e+000
1.067314e+003,3.535065e+000
1.068278e+003,3.680832e+000
1.069242e+003,3.021240e+000
1.070206e+003,2.160980e+000
1.071171e+003,2.197617e+000
1.072135e+003,3.435883e+000
1.073099e+003,4.894257e+000
1.074063e+003,4.977158e+000
1.075028e+003,3.568649e+000
1.075992e+003,2.556091e+000
1.076956e+003,2.008926e+000
1.077920e+003,1.477936e+000
1.078885e+003,5.451965e-001
1.079849e+003,-2.561340e-001
1.080813e+003,2.120361e-001
1.081777e+003,2.382767e+000
1.082741e+003,4.332153e+000
1.083706e+003,5.011978e+000
1.084670e+003,5.020538e+000
1.085634e+003,4.054993e+000
1.086598e+003,2.761383e+000
1.087563e+003,2.447388e+000
1.088527e+003,3.794510e+000
1.089491e+003,5.819427e+000
1.090455e+003,6.410721e+000
1.091420e+003,5.287308e+000
1.092384e+003,4.301758e+000
1.093348e+003,3.103180e+000
1.094312e+003,2.484482e+000
1.095276e+003,3.458176e+000
1.096241e+003,5.474091e+000
1.097205e+003,6.665497e+000
1.098169e+003,6.658524e+000
1.099133e+003,6.027695e+000
1.100098e+003,4.583893e+000
1.101062e+003,3.118774e+000
1.102026e+003,1.711426e+000
1.102990e+003,7.602692e-001
1.103955e+003,1.161499e+000
1.104919e+003,3.398117e+000
1.105883e+003,6.257553e+000
1.106847e+003,7.059494e+000
1.107812e+003,5.740067e+000
1.108776e+003,5.336319e+000
1.109740e+003,6.492371e+000
1.110704e+003,7.496307e+000
1.111668e+003,6.837509e+000
1.112633e+003,5.067566e+000
1.113597e+003,4.496445e+000
1.114561e+003,6.075912e+000
1.115525e+003,6.881744e+000
1.116490e+003,5.428894e+000
1.117454e+003,3.567444e+000
1.118418e+003,2.153503e+000
1.119382e+003,1.520996e+000
1.120347e+003,1.883392e+000
1.121311e+003,3.287186e+000
1.122275e+003,5.212051e+000
1.123239e+003,7.197372e+000
1.124203e+003,9.197586e+000
1.125168e+003,9.298706e+000
1.126132e+003,6.477188e+000
1.127096e+003,4.126373e+000
1.128060e+003,5.511658e+000
1.129025e+003,9.616501e+000
1.129989e+003,1.155142e+001
1.130953e+003,9.791000e+000
1.131917e+003,8.497742e+000
1.132882e+003,9.228607e+000
1.133846e+003,1.035963e+001
1.134810e+003,1.073953e+001
1.135774e+003,1.071281e+001
1.136739e+003,1.154820e+001
1.137703e+003,1.391829e+001
1.138667e+003,1.650365e+001
1.139631e+003,1.656297e+001
1.140595e+003,1.456961e+001
1.141560e+003,1.498344e+001
1.142524e+003,1.855022e+001
1.143488e+003,2.286728e+001
1.144452e+003,2.632631e+001
1.145417e+003,2.920482e+001
1.146381e+003,3.251506e+001
1.147345e+003,3.632510e+001
1.148309e+003,4.038370e+001
1.149274e+003,4.431807e+001
1.150238e+003,4.886766e+001
1.151202e+003,5.488931e+001
1.152166e+003,6.182063e+001
1.153130e+003,6.891942e+001
1.154095e+003,7.561398e+001
1.155059e+003,8.091614e+001
1.156023e+003,8.344542e+001
1.156987e+003,8.335956e+001
1.157952e+003,8.292015e+001
1.158916e+003,8.255212e+001
1.159880e+003,8.079282e+001
1.160844e+003,7.599742e+001
1.161809e+003,6.915977e+001
1.162773e+003,6.288252e+001
1.163737e+003,5.737123e+001
1.164701e+003,5.158022e+001
1.165666e+003,4.396797e+001
1.166630e+003,3.757018e+001
1.167594e+003,3.402266e+001
1.168558e+003,3.213866e+001
1.169522e+003,3.038118e+001
1.170487e+003,2.820988e+001
1.171451e+003,2.612561e+001
1.172415e+003,2.468039e+001
1.173379e+003,2.373845e+001
1.174344e+003,2.267979e+001
1.175308e+003,2.151468e+001
1.176272e+003,2.056639e+001
1.177236e+003,2.029070e+001
1.178201e+003,2.008093e+001
1.179165e+003,1.880762e+001
1.180129e+003,1.637306e+001
1.181093e+003,1.483493e+001
1.182057e+003,1.560333e+001
1.183022e+003,1.593852e+001
1.183986e+003,1.389287e+001
1.184950e+003,1.164252e+001
1.185914e+003,1.151625e+001
1.186879e+003,1.352194e+001
1.187843e+003,1.597424e+001
1.188807e+003,1.748686e+001
1.189771e+003,1.822491e+001
1.190736e+003,1.879576e+001
1.191700e+003,1.921132e+001
1.192664e+003,1.908389e+001
1.193628e+003,1.828207e+001
1.194593e+003,1.718744e+001
1.195557e+003,1.581453e+001
1.196521e+003,1.431696e+001
1.197485e+003,1.333728e+001
1.198449e+003,1.310962e+001
1.199414e+003,1.303171e+001
1.200378e+003,1.315161e+001
1.201342e+003,1.305751e+001
1.202306e+003,1.245918e+001
1.203271e+003,1.136325e+001
1.204235e+003,9.636459e+000
1.205199e+003,7.360214e+000
1.206163e+003,5.361282e+000
1.207128e+003,5.104004e+000
1.208092e+003,6.727982e+000
1.209056e+003,7.234634e+000
1.210020e+003,6.358353e+000
1.210984e+003,5.169235e+000
1.211949e+003,3.726929e+000
1.212913e+003,2.237885e+000
1.213877e+003,1.023254e+000
1.214841e+003,1.241150e-001
1.215806e+003,-7.253113e-001
1.216770e+003,-1.829025e+000
1.217734e+003,-2.604904e+000
1.218698e+003,-2.361389e+000
1.219663e+003,-1.873383e+000
1.220627e+003,-2.125839e+000
1.221591e+003,-3.228119e+000
1.222555e+003,-4.566238e+000
1.223520e+003,-5.555710e+000
1.224484e+003,-6.276886e+000
1.225448e+003,-7.321930e+000
1.226412e+003,-9.109726e+000
1.227376e+003,-1.027292e+001
1.228341e+003,-1.098918e+001
1.229305e+003,-1.098296e+001
1.230269e+003,-9.310410e+000
1.231233e+003,-7.035751e+000
1.232198e+003,-6.399475e+000
1.233162e+003,-8.002121e+000
1.234126e+003,-9.924469e+000
1.235090e+003,-1.133531e+001
1.236055e+003,-1.196057e+001
1.237019e+003,-1.087036e+001
1.237983e+003,-8.874863e+000
1.238947e+003,-8.178482e+000
1.239911e+003,-9.636093e+000
1.240876e+003,-1.167078e+001
1.241840e+003,-1.197610e+001
1.242804e+003,-1.045782e+001
1.243768e+003,-8.919098e+000
1.244733e+003,-6.394745e+000
1.245697e+003,-5.250092e+000
1.246661e+003,-6.997467e+000
1.247625e+003,-9.150726e+000
1.248590e+003,-9.894257e+000
1.249554e+003,-9.259338e+000
1.250518e+003,-7.946945e+000
1.251482e+003,-6.221359e+000
1.252447e+003,-4.993301e+000
1.253411e+003,-5.737778e+000
1.254375e+003,-7.458862e+000
1.255339e+003,-8.069031e+000
1.256303e+003,-7.468307e+000
1.257268e+003,-6.688782e+000
1.258232e+003,-6.501740e+000
1.259196e+003,-6.439301e+000
1.260160e+003,-5.042267e+000
1.261125e+003,-1.768311e+000
1.262089e+003,-9.968567e-002
1.263053e+003,-2.339523e+000
1.264017e+003,-3.997681e+000
1.264982e+003,-3.516891e+000
1.265946e+003,-2.301682e+000
1.266910e+003,-1.536118e+000
1.267874e+003,-1.426758e+000
1.268839e+003,-1.690079e+000
1.269803e+003,-2.140762e+000
1.270767e+003,-2.682343e+000
1.271731e+003,-3.110382e+000
1.272695e+003,-3.391006e+000
1.273660e+003,-3.747101e+000
1.274624e+003,-4.326721e+000
1.275588e+003,-4.982620e+000
1.276552e+003,-5.735504e+000
1.277517e+003,-6.318115e+000
1.278481e+003,-6.131516e+000
1.279445e+003,-5.083206e+000
1.280409e+003,-4.608734e+000
1.281374e+003,-5.890564e+000
1.282338e+003,-6.824646e+000
1.283302e+003,-5.549881e+000
1.284266e+003,-3.856705e+000
1.285230e+003,-4.133041e+000
1.286195e+003,-6.385483e+000
1.287159e+003,-8.626144e+000
1.288123e+003,-9.183502e+000
1.289087e+003,-8.391235e+000
1.290052e+003,-7.388535e+000
1.291016e+003,-6.009674e+000
1.291980e+003,-5.332672e+000
1.292944e+003,-5.721146e+000
1.293909e+003,-6.417999e+000
1.294873e+003,-7.193512e+000
1.295837e+003,-7.939682e+000
1.296801e+003,-8.570663e+000
1.297766e+003,-9.068665e+000
1.298730e+003,-9.460632e+000
1.299694e+003,-9.836823e+000
1.300658e+003,-1.009294e+001
1.301622e+003,-1.021930e+001
1.302587e+003,-1.005682e+001
1.303551e+003,-9.002426e+000
1.304515e+003,-7.079620e+000
1.305479e+003,-5.797607e+000
1.306444e+003,-6.642120e+000
1.307408e+003,-8.773788e+000
1.308372e+003,-8.932907e+000
1.309336e+003,-5.877472e+000
1.310301e+003,-4.743652e+000
1.311265e+003,-7.660309e+000
1.312229e+003,-1.005766e+001
1.313193e+003,-1.042477e+001
1.314157e+003,-9.780167e+000
1.315122e+003,-9.163727e+000
1.316086e+003,-8.801315e+000
1.317050e+003,-8.251312e+000
1.318014e+003,-7.122787e+000
1.318979e+003,-6.233307e+000
1.319943e+003,-7.703644e+000
1.320907e+003,-1.098564e+001
1.321871e+003,-1.130136e+001
1.322836e+003,-7.521255e+000
1.323800e+003,-4.577438e+000
1.324764e+003,-6.158188e+000
1.325728e+003,-9.612045e+000
1.326693e+003,-1.012064e+001
1.327657e+003,-7.542175e+000
1.328621e+003,-5.840836e+000
1.329585e+003,-6.252960e+000
1.330549e+003,-6.876968e+000
1.331514e+003,-7.279922e+000
1.332478e+003,-7.344803e+000
1.333442e+003,-6.262573e+000
1.334406e+003,-4.581161e+000
1.335371e+003,-4.246918e+000
1.336335e+003,-6.378906e+000
1.337299e+003,-9.563477e+000
1.338263e+003,-1.117905e+001
1.339228e+003,-1.112909e+001
1.340192e+003,-1.033597e+001
1.341156e+003,-8.007904e+000
1.342120e+003,-6.154617e+000
1.343084e+003,-4.997040e+000
1.344049e+003,-4.624420e+000
1.345013e+003,-5.540375e+000
1.345977e+003,-7.167725e+000
1.346941e+003,-7.987045e+000
1.347906e+003,-7.434433e+000
1.348870e+003,-6.503983e+000
1.349834e+003,-6.095856e+000
1.350798e+003,-5.982971e+000
1.351763e+003,-5.572037e+000
1.352727e+003,-4.905228e+000
1.353691e+003,-4.373978e+000
1.354655e+003,-4.107880e+000
1.355620e+003,-4.014877e+000
1.356584e+003,-4.138733e+000
1.357548e+003,-4.375000e+000
1.358512e+003,-3.852570e+000
1.359476e+003,-1.967651e+000
1.360441e+003,-1.149475e+000
1.361405e+003,-2.840759e+000
1.362369e+003,-4.713379e+000
1.363333e+003,-5.498611e+000
1.364298e+003,-5.809067e+000
1.365262e+003,-6.984024e+000
1.366226e+003,-9.039978e+000
1.367190e+003,-1.020110e+001
1.368155e+003,-8.838104e+000
1.369119e+003,-6.060211e+000
1.370083e+003,-5.450699e+000
1.371047e+003,-7.821442e+000
1.372011e+003,-8.701828e+000
1.372976e+003,-7.239716e+000
1.373940e+003,-5.682678e+000
1.374904e+003,-4.621857e+000
1.375868e+003,-3.986099e+000
1.376833e+003,-3.812531e+000
1.377797e+003,-4.059677e+000
1.378761e+003,-4.478668e+000
1.379725e+003,-5.067322e+000
1.380690e+003,-5.382675e+000
1.381654e+003,-4.467804e+000
1.382618e+003,-3.205627e+000
1.383582e+003,-3.076218e+000
1.384547e+003,-3.970947e+000
1.385511e+003,-4.466080e+000
1.386475e+003,-3.829391e+000
1.387439e+003,-2.678024e+000
1.388403e+003,-1.762100e+000
1.389368e+003,-1.092804e+000
1.390332e+003,-1.163971e+000
1.391296e+003,-2.556534e+000
1.392260e+003,-3.412323e+000
1.393225e+003,-2.737503e+000
1.394189e+003,-2.130356e+000
1.395153e+003,-2.846252e+000
1.396117e+003,-4.075058e+000
1.397082e+003,-4.217957e+000
1.398046e+003,-3.059692e+000
1.399010e+003,-2.110001e+000
1.399974e+003,-2.815277e+000
1.400938e+003,-4.798019e+000
1.401903e+003,-6.714371e+000
1.402867e+003,-8.674042e+000
1.403831e+003,-8.598129e+000
1.404795e+003,-4.564011e+000
1.405760e+003,-1.385101e+000
1.406724e+003,-1.503723e+000
1.407688e+003,-3.071716e+000
1.408652e+003,-3.914246e+000
1.409617e+003,-3.801041e+000
1.410581e+003,-3.404144e+000
1.411545e+003,-2.965210e+000
1.412509e+003,-2.420044e+000
1.413474e+003,-1.448929e+000
1.414438e+003,-6.781311e-001
1.415402e+003,-1.272247e+000
1.416366e+003,-2.898056e+000
1.417330e+003,-3.858063e+000
1.418295e+003,-3.375305e+000
1.419259e+003,-2.451630e+000
1.420223e+003,-2.452606e+000
1.421187e+003,-3.189087e+000
1.422152e+003,-2.989182e+000
1.423116e+003,-1.322388e+000
1.424080e+003,-2.400208e-002
1.425044e+003,4.144745e-001
1.426009e+003,1.570129e-001
1.426973e+003,-1.556976e+000
1.427937e+003,-3.459030e+000
1.428901e+003,-3.760239e+000
1.429865e+003,-2.559494e+000
1.430830e+003,-1.609070e+000
1.431794e+003,-2.091156e+000
1.432758e+003,-3.067719e+000
1.433722e+003,-2.517288e+000
1.434687e+003,-1.438599e-001
1.435651e+003,1.600754e+000
1.436615e+003,2.229370e+000
1.437579e+003,2.359482e+000
1.438544e+003,1.957214e+000
1.439508e+003,1.232712e+000
1.440472e+003,-2.165070e-001
1.441436e+003,-1.585587e+000
1.442401e+003,-1.106781e+000
1.443365e+003,1.380890e+000
1.444329e+003,3.419586e+000
1.445293e+003,3.099548e+000
1.446257e+003,1.685776e+000
1.447222e+003,1.555267e+000
1.448186e+003,2.424789e+000
1.449150e+003,2.873505e+000
1.450114e+003,2.756989e+000
1.451079e+003,2.211029e+000
1.452043e+003,1.091583e+000
1.453007e+003,-1.520538e-001
1.453971e+003,-9.431610e-001
1.454936e+003,-1.358353e+000
1.455900e+003,-1.836868e+000
1.456864e+003,-2.561554e+000
1.457828e+003,-2.861115e+000
1.458792e+003,-2.140503e+000
1.459757e+003,-1.112427e+000
1.460721e+003,-3.543854e-001
1.461685e+003,2.608490e-001
1.462649e+003,1.352570e+000
1.463614e+003,2.984482e+000
1.464578e+003,3.892258e+000
1.465542e+003,2.774826e+000
1.466506e+003,3.513184e-001
1.467471e+003,-1.271103e+000
1.468435e+003,-2.020035e+000
1.469399e+003,-1.818909e+000
1.470363e+003,5.056000e-001
1.471328e+003,1.886963e+000
1.472292e+003,2.830963e-001
1.473256e+003,-1.339569e+000
1.474220e+003,5.419922e-002
1.475184e+003,3.022385e+000
1.476149e+003,4.111191e+000
1.477113e+003,2.360306e+000
1.478077e+003,7.269287e-002
1.479041e+003,-4.672699e-001
1.480006e+003,4.285583e-001
1.480970e+003,1.607727e+000
1.481934e+003,3.098068e+000
1.482898e+003,4.344833e+000
1.483863e+003,5.700150e+000
1.484827e+003,6.306671e+000
1.485791e+003,5.705048e+000
1.486755e+003,4.609680e+000
1.487719e+003,2.885727e+000
1.488684e+003,1.239502e+000
1.489648e+003,1.733246e+000
1.490612e+003,4.979385e+000
1.491576e+003,8.325714e+000
1.492541e+003,9.530579e+000
1.493505e+003,9.482407e+000
1.494469e+003,9.863281e+000
1.495433e+003,1.058781e+001
1.496398e+003,1.212718e+001
1.497362e+003,1.516162e+001
1.498326e+003,1.750829e+001
1.499290e+003,1.739763e+001
1.500255e+003,1.637950e+001
1.501219e+003,1.647762e+001
1.502183e+003,1.755846e+001
1.503147e+003,1.848018e+001
1.504111e+003,1.879671e+001
1.505076e+003,1.998955e+001
1.506040e+003,2.327864e+001
1.507004e+003,2.753864e+001
1.507968e+003,3.167522e+001
1.508933e+003,3.582314e+001
1.509897e+003,4.019908e+001
1.510861e+003,4.501260e+001
1.511825e+003,5.064461e+001
1.512790e+003,5.746571e+001
1.513754e+003,6.478090e+001
1.514718e+003,7.137811e+001
1.515682e+003,7.717213e+001
1.516646e+003,8.300562e+001
1.517611e+003,8.920343e+001
1.518575e+003,9.507162e+001
1.519539e+003,1.005584e+002
1.520503e+003,1.056751e+002
1.521468e+003,1.114201e+002
1.522432e+003,1.161854e+002
1.523396e+003,1.172970e+002
1.524360e+003,1.149324e+002
1.525325e+003,1.119552e+002
1.526289e+003,1.102959e+002
1.527253e+003,1.090455e+002
1.528217e+003,1.066459e+002
1.529182e+003,1.031810e+002
1.530146e+003,9.777203e+001
1.531110e+003,8.888878e+001
1.532074e+003,8.070479e+001
1.533039e+003,7.375868e+001
1.534003e+003,6.681566e+001
1.534967e+003,5.955185e+001
1.535931e+003,5.223453e+001
1.536896e+003,4.482883e+001
1.537860e+003,3.768239e+001
1.538824e+003,3.152589e+001
1.539788e+003,2.667314e+001
1.540752e+003,2.266362e+001
1.541717e+003,1.890065e+001
1.542681e+003,1.560931e+001
1.543645e+003,1.387004e+001
1.544609e+003,1.482051e+001
1.545573e+003,1.466980e+001
1.546538e+003,1.253587e+001
1.547502e+003,1.023643e+001
1.548466e+003,7.865036e+000
1.549430e+003,6.316574e+000
1.550395e+003,6.914368e+000
1.551359e+003,8.946747e+000
1.552323e+003,1.053214e+001
1.553287e+003,1.098450e+001
1.554252e+003,1.057996e+001
1.555216e+003,9.467331e+000
1.556180e+003,7.842194e+000
1.557144e+003,5.926590e+000
1.558109e+003,3.760895e+000
1.559073e+003,2.999573e+000
1.560037e+003,4.372940e+000
1.561001e+003,5.379883e+000
1.561966e+003,5.247177e+000
1.562930e+003,4.615387e+000
1.563894e+003,3.776886e+000
1.564858e+003,2.870132e+000
1.565823e+003,2.068909e+000
1.566787e+003,1.437958e+000
1.567751e+003,1.518738e+000
1.568715e+003,2.817825e+000
1.569679e+003,4.496414e+000
1.570644e+003,5.894592e+000
1.571608e+003,6.587326e+000
1.572572e+003,5.080414e+000
1.573536e+003,1.309280e+000
1.574500e+003,-8.056793e-001
1.575465e+003,7.765961e-001
1.576429e+003,3.107040e+000
1.577393e+003,3.801514e+000
1.578357e+003,3.537735e+000
1.579322e+003,3.640518e+000
1.580286e+003,4.226578e+000
1.581250e+003,5.044876e+000
1.582214e+003,6.100067e+000
1.583179e+003,7.085861e+000
1.584143e+003,7.920227e+000
1.585107e+003,8.316360e+000
1.586071e+003,7.831284e+000
1.587036e+003,6.839462e+000
1.588000e+003,6.210464e+000
1.588964e+003,6.072906e+000
1.589928e+003,6.074188e+000
1.590893e+003,5.970459e+000
1.591857e+003,5.922089e+000
1.592821e+003,6.294083e+000
1.593785e+003,6.992630e+000
1.594750e+003,7.317139e+000
1.595714e+003,7.070129e+000
1.596678e+003,6.885971e+000
1.597642e+003,6.865479e+000
1.598606e+003,7.246872e+000
1.599571e+003,8.842529e+000
1.600535e+003,1.061378e+001
1.601499e+003,1.080603e+001
1.602463e+003,9.675232e+000
1.603427e+003,9.363480e+000
1.604392e+003,1.087628e+001
1.605356e+003,1.236462e+001
1.606320e+003,1.142870e+001
1.607284e+003,9.199112e+000
1.608249e+003,9.259644e+000
1.609213e+003,1.171779e+001
1.610177e+003,1.297929e+001
1.611141e+003,1.184850e+001
1.612106e+003,1.101967e+001
1.613070e+003,1.275938e+001
1.614034e+003,1.434691e+001
1.614998e+003,1.316792e+001
1.615963e+003,1.073659e+001
1.616927e+003,9.722168e+000
1.617891e+003,1.044972e+001
1.618855e+003,1.160085e+001
1.619820e+003,1.246609e+001
1.620784e+003,1.277081e+001
1.621748e+003,1.195474e+001
1.622712e+003,1.040057e+001
1.623677e+003,9.890793e+000
1.624641e+003,1.068283e+001
1.625605e+003,1.106795e+001
1.626569e+003,9.854507e+000
1.627533e+003,9.148529e+000
1.628498e+003,1.096342e+001
1.629462e+003,1.302388e+001
1.630426e+003,1.335416e+001
1.631390e+003,1.234074e+001
1.632354e+003,1.076199e+001
1.633319e+003,9.018936e+000
1.634283e+003,8.375046e+000
1.635247e+003,1.003041e+001
1.636211e+003,1.242688e+001
1.637176e+003,1.249002e+001
1.638140e+003,1.047218e+001
1.639104e+003,9.837875e+000
1.640068e+003,1.108459e+001
1.641033e+003,1.199300e+001
1.641997e+003,1.191403e+001
1.642961e+003,1.162839e+001
1.643925e+003,1.104637e+001
1.644890e+003,1.082066e+001
1.645854e+003,1.220377e+001
1.646818e+003,1.437221e+001
1.647782e+003,1.516647e+001
1.648747e+003,1.394934e+001
1.649711e+003,1.186722e+001
1.650675e+003,9.615646e+000
1.651639e+003,7.823532e+000
1.652604e+003,8.098541e+000
1.653568e+003,1.028734e+001
1.654532e+003,1.127931e+001
1.655496e+003,1.059645e+001
1.656460e+003,9.869186e+000
1.657425e+003,9.548752e+000
1.658389e+003,9.362183e+000
1.659353e+003,9.347672e+000
1.660317e+003,9.227631e+000
1.661281e+003,8.202576e+000
1.662246e+003,6.819336e+000
1.663210e+003,7.081375e+000
1.664174e+003,9.577652e+000
1.665138e+003,1.172716e+001
1.666103e+003,1.117513e+001
1.667067e+003,9.058853e+000
1.668031e+003,7.519485e+000
1.668995e+003,6.582825e+000
1.669960e+003,6.251083e+000
1.670924e+003,6.590195e+000
1.671888e+003,7.462631e+000
1.672852e+003,9.661392e+000
1.673817e+003,1.106627e+001
1.674781e+003,9.321060e+000
1.675745e+003,6.873306e+000
1.676709e+003,6.562897e+000
1.677674e+003,7.963959e+000
1.678638e+003,9.299072e+000
1.679602e+003,9.998886e+000
1.680566e+003,9.668564e+000
1.681531e+003,7.575394e+000
1.682495e+003,4.953293e+000
1.683459e+003,3.877518e+000
1.684423e+003,4.087585e+000
1.685387e+003,4.257904e+000
1.686352e+003,4.299637e+000
1.687316e+003,4.377136e+000
1.688280e+003,4.683502e+000
1.689244e+003,4.765472e+000
1.690208e+003,4.163925e+000
1.691173e+003,3.190323e+000
1.692137e+003,1.751877e+000
1.693101e+003,3.270874e-001
1.694065e+003,4.275208e-001
1.695030e+003,2.415497e+000
1.695994e+003,4.145996e+000
1.696958e+003,4.248535e+000
1.697922e+003,3.566940e+000
1.698887e+003,2.883545e+000
1.699851e+003,2.344147e+000
1.700815e+003,2.585785e+000
1.701779e+003,3.582245e+000
1.702744e+003,3.574173e+000
1.703708e+003,1.700058e+000
1.704672e+003,4.124298e-001
1.705636e+003,2.056915e+000
1.706601e+003,4.456345e+000
1.707565e+003,4.060074e+000
1.708529e+003,1.890533e+000
1.709493e+003,1.151855e+000
1.710458e+003,2.370453e+000
1.711422e+003,3.338608e+000
1.712386e+003,3.124695e+000
1.713350e+003,2.511505e+000
1.714314e+003,1.791473e+000
1.715279e+003,1.118851e+000
1.716243e+003,7.982635e-001
1.717207e+003,8.557434e-001
1.718171e+003,1.430099e+000
1.719135e+003,2.574554e+000
1.720100e+003,3.095398e+000
1.721064e+003,1.953110e+000
1.722028e+003,3.833771e-001
1.722992e+003,3.548279e-001
1.723957e+003,1.605316e+000
1.724921e+003,2.105026e+000
1.725885e+003,1.620590e+000
1.726849e+003,1.092453e+000
1.727814e+003,1.002228e+000
1.728778e+003,7.353668e-001
1.729742e+003,-5.762024e-001
1.730706e+003,-1.699051e+000
1.731671e+003,-1.026337e+000
1.732635e+003,4.872894e-001
1.733599e+003,6.375885e-001
1.734563e+003,-6.110687e-001
1.735528e+003,-1.095367e+000
1.736492e+003,2.856903e-001
1.737456e+003,1.985947e+000
1.738420e+003,2.179291e+000
1.739385e+003,1.161072e+000
1.740349e+003,1.972504e-001
1.741313e+003,-7.702789e-001
1.742277e+003,-1.063370e+000
1.743241e+003,9.104919e-002
1.744206e+003,7.951202e-001
1.745170e+003,2.920227e-001
1.746134e+003,-1.984100e-001
1.747098e+003,2.514954e-001
1.748063e+003,8.760986e-001
1.749027e+003,5.485687e-001
1.749991e+003,-3.962250e-001
1.750955e+003,-6.882782e-001
1.751919e+003,-1.597595e-002
1.752884e+003,6.089172e-001
1.753848e+003,3.486938e-001
1.754812e+003,-4.926300e-001
1.755776e+003,-1.281052e+000
1.756741e+003,-1.947540e+000
1.757705e+003,-2.563492e+000
1.758669e+003,-3.502090e+000
1.759633e+003,-3.464035e+000
1.760598e+003,-1.735260e+000
1.761562e+003,4.180908e-002
1.762526e+003,2.361801e+000
1.763490e+003,3.721848e+000
1.764455e+003,2.275406e+000
1.765419e+003,-4.007568e-001
1.766383e+003,-1.872940e+000
1.767347e+003,-1.976028e+000
1.768312e+003,-2.026520e+000
1.769276e+003,-2.666580e+000
1.770240e+003,-3.478638e+000
1.771204e+003,-4.136642e+000
1.772168e+003,-4.330795e+000
1.773133e+003,-3.259918e+000
1.774097e+003,-1.082062e+000
1.775061e+003,5.971985e-001
1.776025e+003,1.499817e+000
1.776990e+003,2.309372e+000
1.777954e+003,3.597488e+000
1.778918e+003,4.337784e+000
1.779882e+003,3.315445e+000
1.780846e+003,1.543335e+000
1.781811e+003,5.422974e-001
1.782775e+003,7.095337e-002
1.783739e+003,-9.374847e-001
1.784703e+003,-2.722794e+000
1.785668e+003,-3.653259e+000
1.786632e+003,-2.662949e+000
1.787596e+003,-1.335083e+000
1.788560e+003,-5.845947e-001
1.789525e+003,-1.606903e-001
1.790489e+003,3.365173e-001
1.791453e+003,6.652374e-001
1.792417e+003,-2.931213e-001
1.793382e+003,-2.509842e+000
1.794346e+003,-3.483063e+000
1.795310e+003,-1.811539e+000
1.796274e+003,5.219727e-001
1.797239e+003,1.376572e+000
1.798203e+003,1.119141e+000
1.799167e+003,5.356903e-001
1.800131e+003,-6.405334e-001
1.801095e+003,-1.477905e+000
1.802060e+003,-2.022934e+000
1.803024e+003,-1.888016e+000
1.803988e+003,-4.970245e-001
1.804952e+003,8.065186e-001
1.805917e+003,1.524963e+000
1.806881e+003,1.730591e+000
1.807845e+003,1.246323e+000
1.808809e+003,5.123901e-001
1.809773e+003,5.327911e-001
1.810738e+003,1.270813e+000
1.811702e+003,1.149582e+000
1.812666e+003,-7.753754e-001
1.813630e+003,-2.639069e+000
1.814595e+003,-1.679230e+000
1.815559e+003,1.089905e+000
1.816523e+003,1.290512e+000
1.817487e+003,-1.391754e+000
1.818452e+003,-2.848404e+000
1.819416e+003,-2.544327e+000
1.820380e+003,-1.752289e+000
1.821344e+003,-4.031830e-001
1.822309e+003,6.106873e-001
1.823273e+003,7.326355e-001
1.824237e+003,4.279022e-001
1.825201e+003,-9.664917e-002
1.826166e+003,-6.862030e-001
1.827130e+003,-1.003937e+000
1.828094e+003,-1.015198e+000
1.829058e+003,-6.868439e-001
1.830022e+003,3.479614e-001
1.830987e+003,1.109528e+000
1.831951e+003,5.560303e-001
1.832915e+003,-5.913086e-001
1.833879e+003,-1.452179e+000
1.834844e+003,-1.973022e+000
1.835808e+003,-2.366547e+000
1.836772e+003,-2.548233e+000
1.837736e+003,-1.280914e+000
1.838700e+003,2.022324e+000
1.839665e+003,4.641373e+000
1.840629e+003,3.969025e+000
1.841593e+003,1.441010e+000
1.842557e+003,-8.331299e-003
1.843522e+003,-3.974609e-001
1.844486e+003,-9.220276e-001
1.845450e+003,-2.111359e+000
1.846414e+003,-2.174255e+000
1.847379e+003,2.460327e-001
1.848343e+003,1.656815e+000
1.849307e+003,8.410645e-002
1.850271e+003,-1.751923e+000
1.851236e+003,-1.942810e+000
1.852200e+003,-1.038589e+000
1.853164e+003,2.009735e-001
1.854128e+003,1.358063e+000
1.855093e+003,2.050751e+000
1.856057e+003,2.224121e+000
1.857021e+003,2.120300e+000
1.857985e+003,1.829712e+000
1.858949e+003,1.657608e+000
1.859914e+003,2.501953e+000
1.860878e+003,4.037079e+000
1.861842e+003,4.034775e+000
1.862806e+003,2.409821e+000
1.863771e+003,1.584213e+000
1.864735e+003,2.184387e+000
1.865699e+003,2.266403e+000
1.866663e+003,5.678864e-001
1.867627e+003,-9.431915e-001
1.868592e+003,-1.033325e-001
1.869556e+003,1.651627e+000
1.870520e+003,1.495987e+000
1.871484e+003,-2.278900e-001
1.872449e+003,-1.169525e+000
1.873413e+003,-8.102417e-001
1.874377e+003,3.767395e-002
1.875341e+003,1.369293e+000
1.876306e+003,2.475357e+000
1.877270e+003,2.751694e+000
1.878234e+003,2.778549e+000
1.879198e+003,3.628571e+000
1.880163e+003,4.495255e+000
1.881127e+003,3.180222e+000
1.882091e+003,2.419281e-001
1.883055e+003,-7.610168e-001
1.884020e+003,1.382446e+000
1.884984e+003,3.198471e+000
1.885948e+003,1.459412e+000
1.886912e+003,-1.648392e+000
1.887876e+003,-1.627304e+000
1.888841e+003,1.250214e+000
1.889805e+003,3.696930e+000
1.890769e+003,5.886108e+000
1.891733e+003,6.544708e+000
1.892698e+003,4.654068e+000
1.893662e+003,3.283478e+000
1.894626e+003,3.866211e+000
1.895590e+003,4.803772e+000
1.896554e+003,5.593826e+000
1.897519e+003,5.795975e+000
1.898483e+003,4.096573e+000
1.899447e+003,1.223251e+000
1.900411e+003,-6.402588e-002
1.901376e+003,7.716370e-001
1.902340e+003,2.075531e+000
1.903304e+003,3.700806e+000
1.904268e+003,4.870575e+000
1.905233e+003,4.848145e+000
1.906197e+003,4.453506e+000
1.907161e+003,4.766266e+000
1.908125e+003,5.244507e+000
1.909090e+003,4.559494e+000
1.910054e+003,2.859665e+000
1.911018e+003,1.401825e+000
1.911982e+003,6.746979e-001
1.912947e+003,4.004364e-001
1.913911e+003,3.491669e-001
1.914875e+003,5.162048e-001
1.915839e+003,8.846588e-001
1.916803e+003,1.366592e+000
1.917768e+003,1.880173e+000
1.918732e+003,2.569992e+000
1.919696e+003,2.588257e+000
1.920660e+003,1.467850e+000
1.921625e+003,1.162888e+000
1.922589e+003,2.646011e+000
1.923553e+003,4.006577e+000
1.924517e+003,4.362900e+000
1.925481e+003,4.064484e+000
1.926446e+003,2.960373e+000
1.927410e+003,1.603790e+000
1.928374e+003,1.099899e+000
1.929338e+003,1.428574e+000
1.930303e+003,1.684250e+000
1.931267e+003,1.702164e+000
1.932231e+003,1.817642e+000
1.933195e+003,2.028015e+000
1.934160e+003,2.402878e+000
1.935124e+003,3.365219e+000
1.936088e+003,4.179184e+000
1.937052e+003,3.763428e+000
1.938017e+003,2.664413e+000
1.938981e+003,2.104355e+000
1.939945e+003,2.232025e+000
1.940909e+003,2.352142e+000
1.941874e+003,2.173965e+000
1.942838e+003,2.389450e+000
1.943802e+003,3.754593e+000
1.944766e+003,5.636169e+000
1.945730e+003,6.645386e+000
1.946695e+003,6.800034e+000
1.947659e+003,6.568481e+000
1.948623e+003,5.872375e+000
1.949587e+003,5.508865e+000
1.950552e+003,5.738174e+000
1.951516e+003,5.697311e+000
1.952480e+003,4.842468e+000
1.953444e+003,4.204559e+000
1.954408e+003,4.635696e+000
1.955373e+003,5.452942e+000
1.956337e+003,5.869858e+000
1.957301e+003,6.014694e+000
1.958265e+003,6.120422e+000
1.959230e+003,6.251633e+000
1.960194e+003,5.900467e+000
1.961158e+003,3.942429e+000
1.962122e+003,2.856583e+000
1.963087e+003,4.092285e+000
1.964051e+003,5.414307e+000
1.965015e+003,5.683014e+000
1.965979e+003,5.436707e+000
1.966944e+003,4.859146e+000
1.967908e+003,4.303192e+000
1.968872e+003,4.498276e+000
1.969836e+003,5.317581e+000
1.970801e+003,5.713989e+000
1.971765e+003,5.280533e+000
1.972729e+003,4.778549e+000
1.973693e+003,4.775330e+000
1.974657e+003,5.249741e+000
1.975622e+003,6.450165e+000
1.976586e+003,7.954437e+000
1.977550e+003,8.886047e+000
1.978514e+003,9.177902e+000
1.979479e+003,8.200363e+000
1.980443e+003,5.956009e+000
1.981407e+003,4.085541e+000
1.982371e+003,3.200974e+000
1.983335e+003,3.312927e+000
1.984300e+003,4.520691e+000
1.985264e+003,6.036407e+000
1.986228e+003,6.689194e+000
1.987192e+003,6.634262e+000
1.988157e+003,6.690414e+000
1.989121e+003,6.955414e+000
1.990085e+003,6.953018e+000
1.991049e+003,6.335632e+000
1.992014e+003,6.249329e+000
1.992978e+003,7.465012e+000
1.993942e+003,8.271820e+000
1.994906e+003,7.523483e+000
1.995871e+003,6.749084e+000
1.996835e+003,7.321243e+000
1.997799e+003,8.476639e+000
1.998763e+003,8.993896e+000
1.999728e+003,8.897034e+000
