5.003444e+002,1.588241e+002
5.013087e+002,1.549801e+002
5.022729e+002,1.543383e+002
5.032371e+002,1.560247e+002
5.042014e+002,1.539412e+002
5.051656e+002,1.488550e+002
5.061298e+002,1.435974e+002
5.070941e+002,1.404977e+002
5.080583e+002,1.394662e+002
5.090225e+002,1.393411e+002
5.099868e+002,1.411816e+002
5.109510e+002,1.425084e+002
5.119152e+002,1.417112e+002
5.128795e+002,1.386262e+002
5.138437e+002,1.362743e+002
5.148079e+002,1.380986e+002
5.157722e+002,1.390399e+002
5.167364e+002,1.356187e+002
5.177006e+002,1.280012e+002
5.186649e+002,1.200176e+002
5.196291e+002,1.175817e+002
5.205933e+002,1.180477e+002
5.215576e+002,1.178759e+002
5.225218e+002,1.159829e+002
5.234860e+002,1.121614e+002
5.244503e+002,1.065624e+002
5.254145e+002,9.911560e+001
5.263787e+002,9.537524e+001
5.273430e+002,9.718018e+001
5.283072e+002,1.014119e+002
5.292714e+002,1.037174e+002
5.302357e+002,1.026727e+002
5.311999e+002,1.001865e+002
5.321641e+002,9.663245e+001
5.331284e+002,9.347485e+001
5.340926e+002,9.179248e+001
5.350568e+002,9.174744e+001
5.360211e+002,9.099475e+001
5.369853e+002,8.775085e+001
5.379495e+002,8.399854e+001
5.389138e+002,8.082349e+001
5.398780e+002,7.864990e+001
5.408422e+002,7.732043e+001
5.418065e+002,7.690356e+001
5.427707e+002,7.729443e+001
5.437349e+002,7.828101e+001
5.446992e+002,8.012292e+001
5.456634e+002,8.212903e+001
5.466276e+002,8.208655e+001
5.475919e+002,7.801904e+001
5.485561e+002,7.461658e+001
5.495203e+002,7.148352e+001
5.504846e+002,6.876575e+001
5.514488e+002,6.727808e+001
5.524130e+002,6.882190e+001
5.533773e+002,6.912354e+001
5.543415e+002,6.549939e+001
5.553057e+002,6.014258e+001
5.562700e+002,5.456812e+001
5.572342e+002,4.965405e+001
5.581984e+002,4.607288e+001
5.591627e+002,4.746289e+001
5.601269e+002,5.202612e+001
5.610911e+002,5.503540e+001
5.620554e+002,5.377356e+001
5.630196e+002,4.855042e+001
5.639838e+002,4.438196e+001
5.649481e+002,4.110840e+001
5.659123e+002,3.913770e+001
5.668765e+002,4.068652e+001
5.678408e+002,4.458154e+001
5.688050e+002,4.624146e+001
5.697692e+002,4.109766e+001
5.707335e+002,3.633618e+001
5.716977e+002,3.478662e+001
5.726619e+002,3.519360e+001
5.736262e+002,3.572485e+001
5.745904e+002,3.521216e+001
5.755546e+002,3.473840e+001
5.765189e+002,3.523877e+001
5.774831e+002,3.607178e+001
5.784473e+002,3.733313e+001
5.794116e+002,3.933521e+001
5.803758e+002,4.223120e+001
5.813400e+002,4.204138e+001
5.823043e+002,3.715881e+001
5.832685e+002,3.197534e+001
5.842327e+002,2.804333e+001
5.851970e+002,2.578357e+001
5.861612e+002,2.528430e+001
5.871254e+002,2.745911e+001
5.880897e+002,2.970959e+001
5.890539e+002,3.247400e+001
5.900181e+002,3.445239e+001
5.909824e+002,3.329529e+001
5.919466e+002,2.621045e+001
5.929108e+002,1.928552e+001
5.938751e+002,2.004956e+001
5.948393e+002,2.481030e+001
5.958035e+002,2.766541e+001
5.967678e+002,2.444470e+001
5.977320e+002,1.669824e+001
5.986962e+002,1.521667e+001
5.996605e+002,1.919800e+001
6.006247e+002,2.275549e+001
6.015889e+002,2.230566e+001
6.025532e+002,1.839417e+001
6.035174e+002,1.803418e+001
6.044816e+002,2.843347e+001
6.054459e+002,3.479053e+001
6.064101e+002,3.287427e+001
6.073743e+002,2.571680e+001
6.083386e+002,1.885535e+001
6.093028e+002,1.478918e+001
6.102670e+002,1.287500e+001
6.112313e+002,1.226721e+001
6.121955e+002,1.269836e+001
6.131597e+002,1.421277e+001
6.141240e+002,1.676233e+001
6.150882e+002,1.963782e+001
6.160524e+002,1.966589e+001
6.170167e+002,1.766821e+001
6.179809e+002,1.624133e+001
6.189451e+002,1.628113e+001
6.199094e+002,1.732446e+001
6.208736e+002,1.809009e+001
6.218378e+002,2.000330e+001
6.228021e+002,2.118835e+001
6.237663e+002,2.146338e+001
6.247305e+002,2.111975e+001
6.256948e+002,2.037183e+001
6.266590e+002,1.877454e+001
6.276232e+002,1.631323e+001
6.285875e+002,1.226123e+001
6.295517e+002,8.792114e+000
6.305159e+002,8.833008e+000
6.314802e+002,1.353662e+001
6.324444e+002,1.981921e+001
6.334086e+002,1.898389e+001
6.343729e+002,1.370374e+001
6.353371e+002,8.897705e+000
6.363013e+002,5.927002e+000
6.372656e+002,4.581665e+000
6.382298e+002,4.718872e+000
6.391940e+002,9.056274e+000
6.401583e+002,1.071082e+001
6.411225e+002,9.403320e+000
6.420867e+002,6.810913e+000
6.430510e+002,4.058838e+000
6.440152e+002,4.493408e-001
6.449794e+002,-2.201660e+000
6.459437e+002,-2.665161e+000
6.469079e+002,-2.206177e+000
6.478721e+002,-1.153809e+000
6.488364e+002,2.661133e-001
6.498006e+002,1.559082e+000
6.507648e+002,1.256104e+000
6.517291e+002,-3.194580e-001
6.526933e+002,-2.038940e+000
6.536575e+002,-3.762817e+000
6.546218e+002,-5.431641e+000
6.555860e+002,-7.004517e+000
6.565502e+002,-9.343994e+000
6.575145e+002,-9.443970e+000
6.584787e+002,-5.613281e+000
6.594429e+002,-1.119995e+000
6.604072e+002,1.744263e+000
6.613714e+002,2.686401e+000
6.623356e+002,2.231323e+000
6.632999e+002,-2.134277e+000
6.642641e+002,-6.239380e+000
6.652283e+002,-6.249023e+000
6.661926e+002,-2.620972e+000
6.671568e+002,4.245605e-001
6.681210e+002,-3.573853e+000
6.690853e+002,-1.120605e+001
6.700495e+002,-1.214368e+001
6.710137e+002,-6.529297e+000
6.719780e+002,3.883057e-001
6.729422e+002,2.956177e+000
6.739064e+002,4.272461e-002
6.748707e+002,-2.224365e+000
6.758349e+002,-4.696899e+000
6.767991e+002,-6.082642e+000
6.777634e+002,-4.166626e+000
6.787276e+002,7.420654e-001
6.796918e+002,3.869751e+000
6.806561e+002,3.968506e-001
6.816203e+002,-3.055176e+000
6.825845e+002,-2.995239e+000
6.835488e+002,-1.257324e+000
6.845130e+002,-1.684326e+000
6.854772e+002,-7.455933e+000
6.864415e+002,-1.410254e+001
6.874057e+002,-1.150122e+001
6.883699e+002,-3.173584e+000
6.893342e+002,3.968262e+000
6.902984e+002,6.298340e+000
6.912626e+002,4.464111e+000
6.922269e+002,1.731079e+000
6.931911e+002,-3.601807e+000
6.941553e+002,-5.669189e+000
6.951196e+002,-2.677979e+000
6.960838e+002,2.346558e+000
6.970480e+002,4.874512e+000
6.980123e+002,3.161377e+000
6.989765e+002,1.856445e+000
6.999407e+002,3.536255e+000
7.009050e+002,5.702881e+000
7.018692e+002,6.450439e+000
7.028334e+002,5.026978e+000
7.037977e+002,1.995850e+000
7.047619e+002,-2.387329e+000
7.057261e+002,-6.691162e+000
7.066904e+002,-8.675171e+000
7.076546e+002,-8.000732e+000
7.086188e+002,-5.915771e+000
7.095831e+002,-4.372192e+000
7.105473e+002,-3.918579e+000
7.115115e+002,-3.355713e+000
7.124758e+002,-3.033691e+000
7.134400e+002,-2.678467e+000
7.144042e+002,-1.546021e+000
7.153685e+002,5.373535e-001
7.163327e+002,2.022827e+000
7.172969e+002,1.640015e+000
7.182612e+002,1.106689e+000
7.192254e+002,8.239746e-001
7.201896e+002,6.406250e-001
7.211539e+002,3.403320e-001
7.221181e+002,-1.291504e-001
7.230823e+002,-9.724121e-001
7.240466e+002,-3.014893e+000
7.250108e+002,-5.447510e+000
7.259750e+002,-6.906738e+000
7.269393e+002,-7.162354e+000
7.279035e+002,-6.826416e+000
7.288677e+002,-5.936157e+000
7.298320e+002,-7.834473e-001
7.307962e+002,2.639038e+000
7.317604e+002,3.035889e+000
7.327247e+002,1.998047e+000
7.336889e+002,1.092529e+000
7.346531e+002,-2.978516e-001
7.356174e+002,-1.938721e+000
7.365816e+002,-1.949585e+000
7.375458e+002,-1.282593e+000
7.385101e+002,-9.183350e-001
7.394743e+002,-1.024170e+000
7.404385e+002,-8.879395e-001
7.414028e+002,4.632568e-001
7.423670e+002,1.639282e+000
7.433312e+002,1.966064e+000
7.442955e+002,2.307617e+000
7.452597e+002,2.743896e+000
7.462239e+002,2.682251e+000
7.471882e+002,1.395020e+000
7.481524e+002,1.647461e+000
7.491166e+002,3.931030e+000
7.500809e+002,5.202148e+000
7.510451e+002,3.621338e+000
7.520093e+002,4.638672e-003
7.529736e+002,-2.426392e+000
7.539378e+002,-2.872314e-001
7.549020e+002,1.987793e+000
7.558663e+002,1.955566e-001
7.568306e+002,-3.015869e+000
7.577948e+002,-3.801025e+000
7.587590e+002,-1.799316e-001
7.597233e+002,5.576660e+000
7.606875e+002,8.027954e+000
7.616517e+002,7.953735e+000
7.626160e+002,6.720947e+000
7.635802e+002,4.075684e+000
7.645444e+002,1.270996e+000
7.655087e+002,9.431152e-001
7.664729e+002,4.306519e+000
7.674371e+002,7.234253e+000
7.684014e+002,1.010413e+001
7.693656e+002,1.188721e+001
7.703298e+002,1.113708e+001
7.712941e+002,8.196777e+000
7.722583e+002,6.406738e+000
7.732225e+002,9.236572e+000
7.741868e+002,1.324268e+001
7.751510e+002,1.588428e+001
7.761152e+002,1.735498e+001
7.770795e+002,1.878760e+001
7.780437e+002,2.111279e+001
7.790079e+002,2.382495e+001
7.799722e+002,2.326440e+001
7.809364e+002,1.909045e+001
7.819006e+002,1.575830e+001
7.828649e+002,1.674268e+001
7.838291e+002,2.054651e+001
7.847933e+002,2.070935e+001
7.857576e+002,1.251831e+001
7.867218e+002,6.571533e+000
7.876860e+002,5.896484e+000
7.886503e+002,8.097168e+000
7.896145e+002,1.209680e+001
7.905787e+002,1.722119e+001
7.915430e+002,2.144897e+001
7.925072e+002,2.118115e+001
7.934714e+002,1.846423e+001
7.944357e+002,1.606079e+001
7.953999e+002,1.460132e+001
7.963641e+002,1.340637e+001
7.973284e+002,1.137048e+001
7.982926e+002,8.315674e+000
7.992568e+002,8.859253e+000
8.002211e+002,1.469556e+001
8.011853e+002,1.771240e+001
8.021495e+002,1.399976e+001
8.031138e+002,6.541748e+000
8.040780e+002,3.524780e+000
8.050422e+002,7.914551e+000
8.060065e+002,1.286523e+001
8.069707e+002,1.678870e+001
8.079349e+002,1.901587e+001
8.088992e+002,1.844043e+001
8.098634e+002,1.529382e+001
8.108276e+002,1.245837e+001
8.117919e+002,1.487976e+001
8.127561e+002,1.872266e+001
8.137203e+002,1.724426e+001
8.146846e+002,1.044897e+001
8.156488e+002,3.656860e+000
8.166130e+002,3.188843e+000
8.175773e+002,1.024500e+001
8.185415e+002,1.544531e+001
8.195057e+002,1.874341e+001
8.204700e+002,1.964282e+001
8.214342e+002,1.646399e+001
8.223984e+002,1.077515e+001
8.233627e+002,6.574219e+000
8.243269e+002,5.586426e+000
8.252911e+002,6.183472e+000
8.262554e+002,6.937012e+000
8.272196e+002,8.352783e+000
8.281838e+002,1.164453e+001
8.291481e+002,1.676733e+001
8.301123e+002,2.163672e+001
8.310765e+002,2.222485e+001
8.320408e+002,1.865076e+001
8.330050e+002,1.624805e+001
8.339692e+002,1.553723e+001
8.349335e+002,1.572571e+001
8.358977e+002,1.660303e+001
8.368619e+002,1.877673e+001
8.378262e+002,1.971045e+001
8.387904e+002,1.708704e+001
8.397546e+002,1.483386e+001
8.407189e+002,1.378784e+001
8.416831e+002,1.391235e+001
8.426473e+002,1.500256e+001
8.436116e+002,1.712842e+001
8.445758e+002,2.000659e+001
8.455400e+002,2.285767e+001
8.465043e+002,2.517981e+001
8.474685e+002,2.752490e+001
8.484327e+002,3.030835e+001
8.493970e+002,3.301245e+001
8.503612e+002,3.397668e+001
8.513254e+002,3.258691e+001
8.522897e+002,3.112830e+001
8.532539e+002,2.837891e+001
8.542181e+002,2.630078e+001
8.551824e+002,2.749951e+001
8.561466e+002,3.203101e+001
8.571108e+002,3.526282e+001
8.580751e+002,3.238892e+001
8.590393e+002,3.025024e+001
8.600035e+002,3.158801e+001
8.609678e+002,3.550623e+001
8.619320e+002,4.187134e+001
8.628962e+002,5.012354e+001
8.638605e+002,5.708704e+001
8.648247e+002,5.583099e+001
8.657889e+002,5.023889e+001
8.667532e+002,4.954529e+001
8.677174e+002,5.492804e+001
8.686816e+002,6.162122e+001
8.696459e+002,6.411157e+001
8.706101e+002,6.185577e+001
8.715743e+002,6.184729e+001
8.725386e+002,6.558655e+001
8.735028e+002,6.953790e+001
8.744670e+002,7.240527e+001
8.754313e+002,7.413318e+001
8.763955e+002,7.516547e+001
8.773597e+002,7.568237e+001
8.783240e+002,7.663220e+001
8.792882e+002,7.923395e+001
8.802524e+002,8.166821e+001
8.812167e+002,8.165143e+001
8.821809e+002,7.935992e+001
8.831451e+002,7.752307e+001
8.841094e+002,7.991437e+001
8.850736e+002,8.678925e+001
8.860378e+002,9.216968e+001
8.870021e+002,9.568878e+001
8.879663e+002,9.811102e+001
8.889305e+002,9.893542e+001
8.898948e+002,9.842950e+001
8.908590e+002,9.904626e+001
8.918232e+002,1.024681e+002
8.927875e+002,1.055779e+002
8.937517e+002,1.076460e+002
8.947159e+002,1.092767e+002
8.956802e+002,1.103167e+002
8.966444e+002,1.106160e+002
8.976086e+002,1.108827e+002
8.985729e+002,1.131669e+002
8.995371e+002,1.158628e+002
9.005013e+002,1.146488e+002
9.014656e+002,1.106374e+002
9.024298e+002,1.082771e+002
9.033940e+002,1.107233e+002
9.043583e+002,1.168362e+002
9.053225e+002,1.212830e+002
9.062867e+002,1.225760e+002
9.072510e+002,1.229808e+002
9.082152e+002,1.231222e+002
9.091794e+002,1.233542e+002
9.101437e+002,1.233286e+002
9.111079e+002,1.229014e+002
9.120721e+002,1.240893e+002
9.130364e+002,1.307481e+002
9.140006e+002,1.359199e+002
9.149648e+002,1.350958e+002
9.159291e+002,1.303551e+002
9.168933e+002,1.255217e+002
9.178575e+002,1.230447e+002
9.188218e+002,1.224183e+002
9.197860e+002,1.237726e+002
9.207502e+002,1.269944e+002
9.217145e+002,1.273894e+002
9.226787e+002,1.233722e+002
9.236429e+002,1.182598e+002
9.246072e+002,1.162626e+002
9.255714e+002,1.177086e+002
9.265356e+002,1.180165e+002
9.274999e+002,1.159418e+002
9.284641e+002,1.126423e+002
9.294283e+002,1.079638e+002
9.303926e+002,1.029067e+002
9.313568e+002,9.886682e+001
9.323210e+002,9.654901e+001
9.332853e+002,9.486963e+001
9.342495e+002,9.203912e+001
9.352137e+002,8.854962e+001
9.361780e+002,8.560168e+001
9.371422e+002,8.389899e+001
9.381064e+002,8.351654e+001
9.390707e+002,8.399988e+001
9.400349e+002,8.473956e+001
9.409991e+002,8.625916e+001
9.419634e+002,9.032007e+001
9.429276e+002,9.253387e+001
9.438918e+002,9.038403e+001
9.448561e+002,8.634570e+001
9.458203e+002,8.495099e+001
9.467845e+002,8.813464e+001
9.477488e+002,9.146741e+001
9.487130e+002,9.094562e+001
9.496772e+002,8.938843e+001
9.506415e+002,8.897876e+001
9.516057e+002,8.978107e+001
9.525699e+002,9.060010e+001
9.535342e+002,9.019983e+001
9.544984e+002,8.841803e+001
9.554626e+002,8.548767e+001
9.564269e+002,8.163147e+001
9.573911e+002,7.966620e+001
9.583553e+002,8.190186e+001
9.593196e+002,8.542279e+001
9.602838e+002,8.510187e+001
9.612480e+002,7.948083e+001
9.622123e+002,7.445490e+001
9.631765e+002,7.187042e+001
9.641407e+002,7.047144e+001
9.651050e+002,6.987811e+001
9.660692e+002,6.960254e+001
9.670334e+002,6.952417e+001
9.679977e+002,6.991998e+001
9.689619e+002,7.067163e+001
9.699261e+002,6.852563e+001
9.708904e+002,6.491571e+001
9.718546e+002,6.693359e+001
9.728188e+002,7.665796e+001
9.737831e+002,8.918573e+001
9.747473e+002,9.829822e+001
9.757115e+002,1.034286e+002
9.766758e+002,1.092964e+002
9.776400e+002,1.200894e+002
9.786042e+002,1.275121e+002
9.795685e+002,1.295309e+002
9.805327e+002,1.261595e+002
9.814969e+002,1.165428e+002
9.824612e+002,1.007263e+002
9.834254e+002,8.532642e+001
9.843896e+002,7.585205e+001
9.853539e+002,6.998236e+001
9.863181e+002,6.611353e+001
9.872823e+002,6.354596e+001
9.882466e+002,6.206683e+001
9.892108e+002,6.214587e+001
9.901750e+002,6.420624e+001
9.911393e+002,6.543518e+001
9.921035e+002,6.235181e+001
9.930677e+002,6.089447e+001
9.940320e+002,6.234644e+001
9.949962e+002,6.584204e+001
9.959604e+002,7.126569e+001
9.969247e+002,7.852698e+001
9.978889e+002,8.531665e+001
9.988531e+002,8.976898e+001
9.998174e+002,9.249231e+001
1.000782e+003,9.424841e+001
1.001746e+003,9.555756e+001
1.002710e+003,9.668457e+001
1.003674e+003,9.770850e+001
1.004639e+003,9.874689e+001
1.005603e+003,1.001929e+002
1.006567e+003,1.018701e+002
1.007531e+003,1.014573e+002
1.008495e+003,9.812524e+001
1.009460e+003,9.469458e+001
1.010424e+003,9.322784e+001
1.011388e+003,9.332300e+001
1.012352e+003,9.268048e+001
1.013317e+003,8.994672e+001
1.014281e+003,8.800439e+001
1.015245e+003,8.987335e+001
1.016209e+003,9.040967e+001
1.017174e+003,8.460071e+001
1.018138e+003,7.359430e+001
1.019102e+003,6.368323e+001
1.020066e+003,6.053198e+001
1.021031e+003,6.102850e+001
1.021995e+003,5.328137e+001
1.022959e+003,3.875757e+001
1.023923e+003,2.840741e+001
1.024887e+003,2.663721e+001
1.025852e+003,2.890991e+001
1.026816e+003,2.841510e+001
1.027780e+003,2.505579e+001
1.028744e+003,2.150806e+001
1.029709e+003,1.627960e+001
1.030673e+003,1.259753e+001
1.031637e+003,1.243005e+001
1.032601e+003,1.363928e+001
1.033566e+003,1.316144e+001
1.034530e+003,1.014435e+001
1.035494e+003,7.392395e+000
1.036458e+003,8.599426e+000
1.037422e+003,1.120575e+001
1.038387e+003,1.023572e+001
1.039351e+003,5.936218e+000
1.040315e+003,3.117432e+000
1.041279e+003,5.867371e+000
1.042244e+003,1.298676e+001
1.043208e+003,1.741528e+001
1.044172e+003,1.731824e+001
1.045136e+003,1.610205e+001
1.046101e+003,1.266028e+001
1.047065e+003,9.922668e+000
1.048029e+003,1.030701e+001
1.048993e+003,1.291852e+001
1.049958e+003,1.441333e+001
1.050922e+003,1.306842e+001
1.051886e+003,1.162396e+001
1.052850e+003,1.263361e+001
1.053814e+003,1.510071e+001
1.054779e+003,1.853082e+001
1.055743e+003,2.234576e+001
1.056707e+003,2.468079e+001
1.057671e+003,2.308301e+001
1.058636e+003,1.740094e+001
1.059600e+003,1.570178e+001
1.060564e+003,2.450623e+001
1.061528e+003,2.909253e+001
1.062493e+003,2.321552e+001
1.063457e+003,1.393268e+001
1.064421e+003,9.687256e+000
1.065385e+003,1.159131e+001
1.066349e+003,1.349561e+001
1.067314e+003,1.146912e+001
1.068278e+003,9.657959e+000
1.069242e+003,1.142114e+001
1.070206e+003,1.548975e+001
1.071171e+003,1.980945e+001
1.072135e+003,2.310876e+001
1.073099e+003,2.506024e+001
1.074063e+003,2.549023e+001
1.075028e+003,2.446234e+001
1.075992e+003,2.363544e+001
1.076956e+003,2.289600e+001
1.077920e+003,2.159686e+001
1.078885e+003,2.062836e+001
1.079849e+003,1.934332e+001
1.080813e+003,1.510577e+001
1.081777e+003,6.577515e+000
1.082741e+003,1.170898e+000
1.083706e+003,4.684631e+000
1.084670e+003,9.608093e+000
1.085634e+003,1.294440e+001
1.086598e+003,1.432690e+001
1.087563e+003,1.385352e+001
1.088527e+003,1.198181e+001
1.089491e+003,1.011102e+001
1.090455e+003,1.038391e+001
1.091420e+003,1.265686e+001
1.092384e+003,1.252130e+001
1.093348e+003,7.921997e+000
1.094312e+003,3.847839e+000
1.095276e+003,3.988220e+000
1.096241e+003,7.510315e+000
1.097205e+003,1.114783e+001
1.098169e+003,1.460223e+001
1.099133e+003,1.665680e+001
1.100098e+003,1.750311e+001
1.101062e+003,1.692218e+001
1.102026e+003,1.296906e+001
1.102990e+003,7.667664e+000
1.103955e+003,5.531982e+000
1.104919e+003,9.107910e+000
1.105883e+003,1.512842e+001
1.106847e+003,1.681860e+001
1.107812e+003,1.394598e+001
1.108776e+003,1.176733e+001
1.109740e+003,1.060443e+001
1.110704e+003,9.935791e+000
1.111668e+003,9.583374e+000
1.112633e+003,1.004181e+001
1.113597e+003,1.239697e+001
1.114561e+003,1.800568e+001
1.115525e+003,2.134888e+001
1.116490e+003,1.891205e+001
1.117454e+003,1.559412e+001
1.118418e+003,1.456226e+001
1.119382e+003,1.606134e+001
1.120347e+003,1.890796e+001
1.121311e+003,2.193219e+001
1.122275e+003,2.414197e+001
1.123239e+003,2.465118e+001
1.124203e+003,2.436371e+001
1.125168e+003,2.571448e+001
1.126132e+003,2.944202e+001
1.127096e+003,3.382092e+001
1.128060e+003,3.794971e+001
1.129025e+003,4.133264e+001
1.129989e+003,4.203058e+001
1.130953e+003,3.771313e+001
1.131917e+003,3.522034e+001
1.132882e+003,3.725909e+001
1.133846e+003,4.096155e+001
1.134810e+003,4.487183e+001
1.135774e+003,4.901544e+001
1.136739e+003,5.411658e+001
1.137703e+003,6.051733e+001
1.138667e+003,6.736224e+001
1.139631e+003,7.289441e+001
1.140595e+003,7.746802e+001
1.141560e+003,8.496198e+001
1.142524e+003,9.640808e+001
1.143488e+003,1.093379e+002
1.144452e+003,1.209133e+002
1.145417e+003,1.323868e+002
1.146381e+003,1.486802e+002
1.147345e+003,1.709971e+002
1.148309e+003,1.948739e+002
1.149274e+003,2.201894e+002
1.150238e+003,2.461787e+002
1.151202e+003,2.747313e+002
1.152166e+003,3.036786e+002
1.153130e+003,3.293643e+002
1.154095e+003,3.495172e+002
1.155059e+003,3.639440e+002
1.156023e+003,3.735388e+002
1.156987e+003,3.778065e+002
1.157952e+003,3.745629e+002
1.158916e+003,3.640811e+002
1.159880e+003,3.510984e+002
1.160844e+003,3.375628e+002
1.161809e+003,3.214407e+002
1.162773e+003,2.988889e+002
1.163737e+003,2.682497e+002
1.164701e+003,2.389873e+002
1.165666e+003,2.132498e+002
1.166630e+003,1.904584e+002
1.167594e+003,1.694622e+002
1.168558e+003,1.516138e+002
1.169522e+003,1.391091e+002
1.170487e+003,1.323915e+002
1.171451e+003,1.301783e+002
1.172415e+003,1.315193e+002
1.173379e+003,1.351953e+002
1.174344e+003,1.355096e+002
1.175308e+003,1.326687e+002
1.176272e+003,1.292318e+002
1.177236e+003,1.260817e+002
1.178201e+003,1.230547e+002
1.179165e+003,1.201272e+002
1.180129e+003,1.169175e+002
1.181093e+003,1.105579e+002
1.182057e+003,9.773254e+001
1.183022e+003,8.632623e+001
1.183986e+003,7.885828e+001
1.184950e+003,7.429907e+001
1.185914e+003,7.215778e+001
1.186879e+003,7.207935e+001
1.187843e+003,7.373145e+001
1.188807e+003,7.672406e+001
1.189771e+003,8.031030e+001
1.190736e+003,8.291199e+001
1.191700e+003,8.438336e+001
1.192664e+003,8.566760e+001
1.193628e+003,8.858423e+001
1.194593e+003,8.975043e+001
1.195557e+003,8.561243e+001
1.196521e+003,7.752319e+001
1.197485e+003,7.040009e+001
1.198449e+003,6.499792e+001
1.199414e+003,6.084930e+001
1.200378e+003,5.883429e+001
1.201342e+003,5.708264e+001
1.202306e+003,5.447955e+001
1.203271e+003,5.084778e+001
1.204235e+003,4.614612e+001
1.205199e+003,4.059338e+001
1.206163e+003,3.508221e+001
1.207128e+003,3.107971e+001
1.208092e+003,2.877490e+001
1.209056e+003,2.473737e+001
1.210020e+003,1.847687e+001
1.210984e+003,1.195044e+001
1.211949e+003,5.054626e+000
1.212913e+003,-1.655273e+000
1.213877e+003,-7.424194e+000
1.214841e+003,-1.203461e+001
1.215806e+003,-1.499854e+001
1.216770e+003,-1.482684e+001
1.217734e+003,-1.530334e+001
1.218698e+003,-1.989087e+001
1.219663e+003,-2.638770e+001
1.220627e+003,-3.228351e+001
1.221591e+003,-3.690521e+001
1.222555e+003,-4.084314e+001
1.223520e+003,-4.458801e+001
1.224484e+003,-4.754559e+001
1.225448e+003,-4.781500e+001
1.226412e+003,-4.334180e+001
1.227376e+003,-4.106714e+001
1.228341e+003,-4.259412e+001
1.229305e+003,-4.477411e+001
1.230269e+003,-4.602466e+001
1.231233e+003,-4.674274e+001
1.232198e+003,-4.803296e+001
1.233162e+003,-5.004547e+001
1.234126e+003,-5.064532e+001
1.235090e+003,-4.710559e+001
1.236055e+003,-4.324072e+001
1.237019e+003,-4.359247e+001
1.237983e+003,-4.702332e+001
1.238947e+003,-4.996686e+001
1.239911e+003,-5.068665e+001
1.240876e+003,-4.999628e+001
1.241840e+003,-4.936768e+001
1.242804e+003,-4.882825e+001
1.243768e+003,-4.737604e+001
1.244733e+003,-4.276807e+001
1.245697e+003,-4.030536e+001
1.246661e+003,-4.314612e+001
1.247625e+003,-4.669141e+001
1.248590e+003,-4.733130e+001
1.249554e+003,-4.496893e+001
1.250518e+003,-4.078119e+001
1.251482e+003,-3.528143e+001
1.252447e+003,-3.134161e+001
1.253411e+003,-3.344873e+001
1.254375e+003,-3.837543e+001
1.255339e+003,-3.968939e+001
1.256303e+003,-3.696112e+001
1.257268e+003,-3.280597e+001
1.258232e+003,-2.899420e+001
1.259196e+003,-2.540698e+001
1.260160e+003,-2.037939e+001
1.261125e+003,-1.277979e+001
1.262089e+003,-8.237549e+000
1.263053e+003,-1.205212e+001
1.264017e+003,-1.406982e+001
1.264982e+003,-9.935608e+000
1.265946e+003,-4.054932e+000
1.266910e+003,-2.897339e-001
1.267874e+003,8.978271e-001
1.268839e+003,1.078003e+000
1.269803e+003,1.307068e+000
1.270767e+003,1.122986e+000
1.271731e+003,-2.218628e-001
1.272695e+003,-2.635986e+000
1.273660e+003,-6.767883e+000
1.274624e+003,-1.419971e+001
1.275588e+003,-2.124646e+001
1.276552e+003,-2.540918e+001
1.277517e+003,-2.725635e+001
1.278481e+003,-2.813947e+001
1.279445e+003,-2.819879e+001
1.280409e+003,-2.856921e+001
1.281374e+003,-2.960498e+001
1.282338e+003,-3.091248e+001
1.283302e+003,-3.304565e+001
1.284266e+003,-3.498138e+001
1.285230e+003,-3.540106e+001
1.286195e+003,-3.435297e+001
1.287159e+003,-3.257574e+001
1.288123e+003,-3.046515e+001
1.289087e+003,-2.857703e+001
1.290052e+003,-2.970947e+001
1.291016e+003,-3.585382e+001
1.291980e+003,-3.912793e+001
1.292944e+003,-3.807581e+001
1.293909e+003,-3.717926e+001
1.294873e+003,-3.775031e+001
1.295837e+003,-3.893286e+001
1.296801e+003,-3.978687e+001
1.297766e+003,-4.015765e+001
1.298730e+003,-4.024854e+001
1.299694e+003,-4.014490e+001
1.300658e+003,-4.059222e+001
1.301622e+003,-4.282245e+001
1.302587e+003,-4.553217e+001
1.303551e+003,-4.683398e+001
1.304515e+003,-4.626147e+001
1.305479e+003,-4.451874e+001
1.306444e+003,-4.234729e+001
1.307408e+003,-3.990631e+001
1.308372e+003,-3.683649e+001
1.309336e+003,-3.239209e+001
1.310301e+003,-2.981219e+001
1.311265e+003,-2.982001e+001
1.312229e+003,-3.041388e+001
1.313193e+003,-3.158765e+001
1.314157e+003,-3.292108e+001
1.315122e+003,-3.367828e+001
1.316086e+003,-3.424432e+001
1.317050e+003,-3.648706e+001
1.318014e+003,-4.164557e+001
1.318979e+003,-4.684149e+001
1.319943e+003,-4.659540e+001
1.320907e+003,-4.141766e+001
1.321871e+003,-3.874609e+001
1.322836e+003,-4.046753e+001
1.323800e+003,-4.116272e+001
1.324764e+003,-3.601483e+001
1.325728e+003,-2.886261e+001
1.326693e+003,-2.690948e+001
1.327657e+003,-3.068896e+001
1.328621e+003,-3.462372e+001
1.329585e+003,-3.658606e+001
1.330549e+003,-3.695953e+001
1.331514e+003,-3.690326e+001
1.332478e+003,-3.689569e+001
1.333442e+003,-3.742499e+001
1.334406e+003,-3.783173e+001
1.335371e+003,-3.609174e+001
1.336335e+003,-3.115582e+001
1.337299e+003,-2.581860e+001
1.338263e+003,-2.583533e+001
1.339228e+003,-3.214185e+001
1.340192e+003,-3.475806e+001
1.341156e+003,-3.064038e+001
1.342120e+003,-2.764056e+001
1.343084e+003,-2.801373e+001
1.344049e+003,-2.969116e+001
1.345013e+003,-3.086749e+001
1.345977e+003,-3.119135e+001
1.346941e+003,-3.072107e+001
1.347906e+003,-2.944843e+001
1.348870e+003,-2.871393e+001
1.349834e+003,-3.096191e+001
1.350798e+003,-3.393927e+001
1.351763e+003,-3.175397e+001
1.352727e+003,-2.547791e+001
1.353691e+003,-2.270428e+001
1.354655e+003,-2.696790e+001
1.355620e+003,-3.256445e+001
1.356584e+003,-3.167017e+001
1.357548e+003,-2.518750e+001
1.358512e+003,-2.331171e+001
1.359476e+003,-2.962775e+001
1.360441e+003,-3.364221e+001
1.361405e+003,-2.917169e+001
1.362369e+003,-2.514740e+001
1.363333e+003,-2.693695e+001
1.364298e+003,-3.141266e+001
1.365262e+003,-3.375250e+001
1.366226e+003,-3.287378e+001
1.367190e+003,-3.106995e+001
1.368155e+003,-3.035443e+001
1.369119e+003,-3.070111e+001
1.370083e+003,-3.205920e+001
1.371047e+003,-3.474445e+001
1.372011e+003,-3.590601e+001
1.372976e+003,-3.683661e+001
1.373940e+003,-3.568567e+001
1.374904e+003,-2.909766e+001
1.375868e+003,-2.136853e+001
1.376833e+003,-1.865747e+001
1.377797e+003,-2.099847e+001
1.378761e+003,-2.338434e+001
1.379725e+003,-2.373529e+001
1.380690e+003,-2.302301e+001
1.381654e+003,-2.160242e+001
1.382618e+003,-1.983923e+001
1.383582e+003,-1.821399e+001
1.384547e+003,-1.681671e+001
1.385511e+003,-1.601154e+001
1.386475e+003,-1.635071e+001
1.387439e+003,-1.690509e+001
1.388403e+003,-1.572687e+001
1.389368e+003,-1.287622e+001
1.390332e+003,-1.172504e+001
1.391296e+003,-1.301544e+001
1.392260e+003,-1.405359e+001
1.393225e+003,-1.459692e+001
1.394189e+003,-1.461267e+001
1.395153e+003,-1.358624e+001
1.396117e+003,-1.219446e+001
1.397082e+003,-1.094318e+001
1.398046e+003,-1.018848e+001
1.399010e+003,-1.110815e+001
1.399974e+003,-1.518457e+001
1.400938e+003,-2.125781e+001
1.401903e+003,-2.406177e+001
1.402867e+003,-2.156982e+001
1.403831e+003,-1.829431e+001
1.404795e+003,-1.456622e+001
1.405760e+003,-1.083380e+001
1.406724e+003,-7.048340e+000
1.407688e+003,-5.071472e+000
1.408652e+003,-6.867676e+000
1.409617e+003,-1.138440e+001
1.410581e+003,-1.550317e+001
1.411545e+003,-1.826575e+001
1.412509e+003,-1.902106e+001
1.413474e+003,-1.614026e+001
1.414438e+003,-1.220276e+001
1.415402e+003,-1.047791e+001
1.416366e+003,-1.045630e+001
1.417330e+003,-1.099353e+001
1.418295e+003,-1.179529e+001
1.419259e+003,-1.240820e+001
1.420223e+003,-1.279688e+001
1.421187e+003,-1.309912e+001
1.422152e+003,-1.205835e+001
1.423116e+003,-8.508423e+000
1.424080e+003,-5.586548e+000
1.425044e+003,-5.676331e+000
1.426009e+003,-5.888123e+000
1.426973e+003,-4.669983e+000
1.427937e+003,-3.185547e+000
1.428901e+003,-2.853821e+000
1.429865e+003,-3.470459e+000
1.430830e+003,-3.831299e+000
1.431794e+003,-3.355835e+000
1.432758e+003,-2.601990e+000
1.433722e+003,-2.122681e+000
1.434687e+003,-1.340027e+000
1.435651e+003,1.026978e+000
1.436615e+003,4.538635e+000
1.437579e+003,7.012024e+000
1.438544e+003,7.916321e+000
1.439508e+003,8.503418e+000
1.440472e+003,1.047424e+001
1.441436e+003,1.305676e+001
1.442401e+003,1.428436e+001
1.443365e+003,1.354858e+001
1.444329e+003,1.150189e+001
1.445293e+003,8.448181e+000
1.446257e+003,5.471436e+000
1.447222e+003,4.391541e+000
1.448186e+003,4.935669e+000
1.449150e+003,6.510620e+000
1.450114e+003,9.487244e+000
1.451079e+003,1.112177e+001
1.452043e+003,9.233704e+000
1.453007e+003,6.421692e+000
1.453971e+003,6.239746e+000
1.454936e+003,8.122314e+000
1.455900e+003,8.913391e+000
1.456864e+003,8.034119e+000
1.457828e+003,6.692566e+000
1.458792e+003,4.682861e+000
1.459757e+003,2.666870e+000
1.460721e+003,9.957886e-001
1.461685e+003,-1.848145e-001
1.462649e+003,-4.464722e-001
1.463614e+003,4.620972e-001
1.464578e+003,2.280701e+000
1.465542e+003,4.879700e+000
1.466506e+003,7.345398e+000
1.467471e+003,7.299561e+000
1.468435e+003,4.690979e+000
1.469399e+003,2.625610e+000
1.470363e+003,-7.480469e-001
1.471328e+003,-1.729248e+000
1.472292e+003,1.101379e+000
1.473256e+003,4.963379e+000
1.474220e+003,1.011298e+001
1.475184e+003,1.508130e+001
1.476149e+003,1.636176e+001
1.477113e+003,1.316492e+001
1.478077e+003,9.344421e+000
1.479041e+003,9.007446e+000
1.480006e+003,1.170862e+001
1.480970e+003,1.510883e+001
1.481934e+003,1.915790e+001
1.482898e+003,2.179614e+001
1.483863e+003,2.276282e+001
1.484827e+003,2.263208e+001
1.485791e+003,2.035596e+001
1.486755e+003,1.888318e+001
1.487719e+003,2.132800e+001
1.488684e+003,2.627545e+001
1.489648e+003,2.998322e+001
1.490612e+003,3.150897e+001
1.491576e+003,3.294305e+001
1.492541e+003,3.563477e+001
1.493505e+003,3.931232e+001
1.494469e+003,4.382904e+001
1.495433e+003,4.853473e+001
1.496398e+003,5.248663e+001
1.497362e+003,5.568951e+001
1.498326e+003,6.040698e+001
1.499290e+003,6.816705e+001
1.500255e+003,7.766418e+001
1.501219e+003,8.709052e+001
1.502183e+003,9.635168e+001
1.503147e+003,1.058756e+002
1.504111e+003,1.155436e+002
1.505076e+003,1.265374e+002
1.506040e+003,1.397013e+002
1.507004e+003,1.546712e+002
1.507968e+003,1.703708e+002
1.508933e+003,1.875584e+002
1.509897e+003,2.079738e+002
1.510861e+003,2.326147e+002
1.511825e+003,2.607938e+002
1.512790e+003,2.918030e+002
1.513754e+003,3.248058e+002
1.514718e+003,3.592895e+002
1.515682e+003,3.947615e+002
1.516646e+003,4.303853e+002
1.517611e+003,4.686747e+002
1.518575e+003,5.023185e+002
1.519539e+003,5.286772e+002
1.520503e+003,5.511944e+002
1.521468e+003,5.742332e+002
1.522432e+003,5.926293e+002
1.523396e+003,5.981188e+002
1.524360e+003,5.908591e+002
1.525325e+003,5.787145e+002
1.526289e+003,5.670582e+002
1.527253e+003,5.534318e+002
1.528217e+003,5.329181e+002
1.529182e+003,5.058661e+002
1.530146e+003,4.772743e+002
1.531110e+003,4.496553e+002
1.532074e+003,4.144153e+002
1.533039e+003,3.634695e+002
1.534003e+003,3.123901e+002
1.534967e+003,2.679630e+002
1.535931e+003,2.290671e+002
1.536896e+003,1.929683e+002
1.537860e+003,1.602379e+002
1.538824e+003,1.340913e+002
1.539788e+003,1.156913e+002
1.540752e+003,1.013304e+002
1.541717e+003,8.635242e+001
1.542681e+003,7.184485e+001
1.543645e+003,6.294177e+001
1.544609e+003,6.304535e+001
1.545573e+003,6.169006e+001
1.546538e+003,5.599554e+001
1.547502e+003,5.122913e+001
1.548466e+003,4.997156e+001
1.549430e+003,5.125177e+001
1.550395e+003,5.488190e+001
1.551359e+003,5.929858e+001
1.552323e+003,6.175641e+001
1.553287e+003,6.130853e+001
1.554252e+003,5.802917e+001
1.555216e+003,5.141754e+001
1.556180e+003,4.329956e+001
1.557144e+003,3.814423e+001
1.558109e+003,3.629108e+001
1.559073e+003,3.393103e+001
1.560037e+003,2.951276e+001
1.561001e+003,2.611700e+001
1.561966e+003,2.623462e+001
1.562930e+003,2.775159e+001
1.563894e+003,2.832819e+001
1.564858e+003,2.819745e+001
1.565823e+003,2.860004e+001
1.566787e+003,2.969006e+001
1.567751e+003,3.077521e+001
1.568715e+003,3.176355e+001
1.569679e+003,3.235291e+001
1.570644e+003,3.174023e+001
1.571608e+003,2.994751e+001
1.572572e+003,2.782544e+001
1.573536e+003,2.569720e+001
1.574500e+003,2.451288e+001
1.575465e+003,2.407397e+001
1.576429e+003,2.507611e+001
1.577393e+003,2.871808e+001
1.578357e+003,3.360455e+001
1.579322e+003,3.764709e+001
1.580286e+003,4.078680e+001
1.581250e+003,4.293640e+001
1.582214e+003,4.408099e+001
1.583179e+003,4.404480e+001
1.584143e+003,4.135065e+001
1.585107e+003,3.809644e+001
1.586071e+003,3.769702e+001
1.587036e+003,4.003265e+001
1.588000e+003,4.328918e+001
1.588964e+003,4.680017e+001
1.589928e+003,4.993243e+001
1.590893e+003,5.282452e+001
1.591857e+003,5.473633e+001
1.592821e+003,5.373151e+001
1.593785e+003,5.059607e+001
1.594750e+003,4.957672e+001
1.595714e+003,5.125494e+001
1.596678e+003,5.305682e+001
1.597642e+003,5.399353e+001
1.598606e+003,5.482971e+001
1.599571e+003,5.678461e+001
1.600535e+003,5.896869e+001
1.601499e+003,5.947192e+001
1.602463e+003,5.861267e+001
1.603427e+003,5.934485e+001
1.604392e+003,6.313043e+001
1.605356e+003,6.701123e+001
1.606320e+003,6.820599e+001
1.607284e+003,6.717493e+001
1.608249e+003,6.449695e+001
1.609213e+003,6.007520e+001
1.610177e+003,5.771185e+001
1.611141e+003,5.880597e+001
1.612106e+003,6.009442e+001
1.613070e+003,6.010419e+001
1.614034e+003,5.952747e+001
1.614998e+003,5.836737e+001
1.615963e+003,5.720673e+001
1.616927e+003,5.707874e+001
1.617891e+003,5.787195e+001
1.618855e+003,5.813654e+001
1.619820e+003,5.671552e+001
1.620784e+003,5.440125e+001
1.621748e+003,5.309845e+001
1.622712e+003,5.330713e+001
1.623677e+003,5.390350e+001
1.624641e+003,5.482855e+001
1.625605e+003,5.686243e+001
1.626569e+003,5.969434e+001
1.627533e+003,6.198035e+001
1.628498e+003,6.490527e+001
1.629462e+003,6.660559e+001
1.630426e+003,6.366223e+001
1.631390e+003,5.842706e+001
1.632354e+003,5.642004e+001
1.633319e+003,5.872894e+001
1.634283e+003,6.182269e+001
1.635247e+003,6.323944e+001
1.636211e+003,6.317804e+001
1.637176e+003,6.173969e+001
1.638140e+003,5.930713e+001
1.639104e+003,5.860938e+001
1.640068e+003,6.004431e+001
1.641033e+003,6.104498e+001
1.641997e+003,6.081232e+001
1.642961e+003,6.077374e+001
1.643925e+003,6.126331e+001
1.644890e+003,6.245465e+001
1.645854e+003,6.525610e+001
1.646818e+003,6.862793e+001
1.647782e+003,7.001147e+001
1.648747e+003,6.867749e+001
1.649711e+003,6.660724e+001
1.650675e+003,6.554706e+001
1.651639e+003,6.551923e+001
1.652604e+003,6.630695e+001
1.653568e+003,6.758899e+001
1.654532e+003,6.756866e+001
1.655496e+003,6.594019e+001
1.656460e+003,6.380792e+001
1.657425e+003,6.138629e+001
1.658389e+003,5.904724e+001
1.659353e+003,5.625616e+001
1.660317e+003,5.408142e+001
1.661281e+003,5.412585e+001
1.662246e+003,5.560956e+001
1.663210e+003,5.657446e+001
1.664174e+003,5.650781e+001
1.665138e+003,5.565302e+001
1.666103e+003,5.407434e+001
1.667067e+003,5.143817e+001
1.668031e+003,4.625330e+001
1.668995e+003,3.907318e+001
1.669960e+003,3.670013e+001
1.670924e+003,4.099872e+001
1.671888e+003,4.486847e+001
1.672852e+003,4.596777e+001
1.673817e+003,4.583594e+001
1.674781e+003,4.491602e+001
1.675745e+003,4.369348e+001
1.676709e+003,4.299243e+001
1.677674e+003,4.242126e+001
1.678638e+003,4.051471e+001
1.679602e+003,3.685876e+001
1.680566e+003,3.292413e+001
1.681531e+003,2.948450e+001
1.682495e+003,2.753711e+001
1.683459e+003,2.933105e+001
1.684423e+003,3.376935e+001
1.685387e+003,3.537085e+001
1.686352e+003,3.357159e+001
1.687316e+003,3.065564e+001
1.688280e+003,2.589282e+001
1.689244e+003,2.287482e+001
1.690208e+003,2.635706e+001
1.691173e+003,3.134814e+001
1.692137e+003,3.239063e+001
1.693101e+003,3.068335e+001
1.694065e+003,2.979254e+001
1.695030e+003,3.019592e+001
1.695994e+003,3.015985e+001
1.696958e+003,2.873077e+001
1.697922e+003,2.668634e+001
1.698887e+003,2.448260e+001
1.699851e+003,2.263800e+001
1.700815e+003,2.291083e+001
1.701779e+003,2.514642e+001
1.702744e+003,2.569720e+001
1.703708e+003,2.356824e+001
1.704672e+003,2.103290e+001
1.705636e+003,1.856921e+001
1.706601e+003,1.652899e+001
1.707565e+003,1.688922e+001
1.708529e+003,1.900293e+001
1.709493e+003,1.980109e+001
1.710458e+003,1.881372e+001
1.711422e+003,1.695367e+001
1.712386e+003,1.343665e+001
1.713350e+003,1.127405e+001
1.714314e+003,1.353748e+001
1.715279e+003,1.751636e+001
1.716243e+003,1.936188e+001
1.717207e+003,1.898035e+001
1.718171e+003,1.703369e+001
1.719135e+003,1.381073e+001
1.720100e+003,1.215295e+001
1.721064e+003,1.433765e+001
1.722028e+003,1.718225e+001
1.722992e+003,1.605042e+001
1.723957e+003,1.235175e+001
1.724921e+003,1.175494e+001
1.725885e+003,1.406628e+001
1.726849e+003,1.540527e+001
1.727814e+003,1.620935e+001
1.728778e+003,1.621490e+001
1.729742e+003,1.481403e+001
1.730706e+003,1.267883e+001
1.731671e+003,8.889893e+000
1.732635e+003,4.612854e+000
1.733599e+003,3.679749e+000
1.734563e+003,6.501953e+000
1.735528e+003,8.847412e+000
1.736492e+003,8.288940e+000
1.737456e+003,7.080139e+000
1.738420e+003,7.857178e+000
1.739385e+003,9.963623e+000
1.740349e+003,1.254236e+001
1.741313e+003,1.674744e+001
1.742277e+003,1.716675e+001
1.743241e+003,9.907532e+000
1.744206e+003,5.935425e+000
1.745170e+003,9.539185e+000
1.746134e+003,1.288519e+001
1.747098e+003,1.072083e+001
1.748063e+003,6.588501e+000
1.749027e+003,5.016174e+000
1.749991e+003,5.631897e+000
1.750955e+003,5.198975e+000
1.751919e+003,2.769653e+000
1.752884e+003,7.695313e-001
1.753848e+003,1.221863e+000
1.754812e+003,2.948364e+000
1.755776e+003,3.955383e+000
1.756741e+003,4.636597e+000
1.757705e+003,5.109070e+000
1.758669e+003,4.686829e+000
1.759633e+003,5.063416e+000
1.760598e+003,8.019470e+000
1.761562e+003,8.715454e+000
1.762526e+003,2.848145e+000
1.763490e+003,-1.973389e+000
1.764455e+003,2.063416e+000
1.765419e+003,9.603027e+000
1.766383e+003,1.103937e+001
1.767347e+003,5.990356e+000
1.768312e+003,1.359863e+000
1.769276e+003,2.579956e-001
1.770240e+003,7.207642e-001
1.771204e+003,1.512146e+000
1.772168e+003,2.941162e+000
1.773133e+003,5.107239e+000
1.774097e+003,7.828857e+000
1.775061e+003,9.344604e+000
1.776025e+003,8.946838e+000
1.776990e+003,7.905823e+000
1.777954e+003,6.959412e+000
1.778918e+003,6.233704e+000
1.779882e+003,5.170593e+000
1.780846e+003,4.069519e+000
1.781811e+003,3.432495e+000
1.782775e+003,3.599670e+000
1.783739e+003,6.078491e+000
1.784703e+003,1.163458e+001
1.785668e+003,1.471576e+001
1.786632e+003,1.022601e+001
1.787596e+003,5.256531e+000
1.788560e+003,6.196899e+000
1.789525e+003,1.008545e+001
1.790489e+003,1.313086e+001
1.791453e+003,1.450018e+001
1.792417e+003,1.255499e+001
1.793382e+003,7.566650e+000
1.794346e+003,4.882996e+000
1.795310e+003,7.466553e+000
1.796274e+003,1.070917e+001
1.797239e+003,9.382141e+000
1.798203e+003,5.745483e+000
1.799167e+003,5.605957e+000
1.800131e+003,9.015259e+000
1.801095e+003,9.224426e+000
1.802060e+003,4.078979e+000
1.803024e+003,1.217102e+000
1.803988e+003,2.051514e+000
1.804952e+003,3.834045e+000
1.805917e+003,6.045959e+000
1.806881e+003,7.892639e+000
1.807845e+003,8.834595e+000
1.808809e+003,9.107605e+000
1.809773e+003,8.721313e+000
1.810738e+003,8.047791e+000
1.811702e+003,8.830383e+000
1.812666e+003,1.202899e+001
1.813630e+003,1.475580e+001
1.814595e+003,1.283252e+001
1.815559e+003,7.466309e+000
1.816523e+003,4.015564e+000
1.817487e+003,2.677856e+000
1.818452e+003,2.390015e+000
1.819416e+003,3.491821e+000
1.820380e+003,5.795471e+000
1.821344e+003,9.993591e+000
1.822309e+003,1.344519e+001
1.823273e+003,1.495844e+001
1.824237e+003,1.538947e+001
1.825201e+003,1.489691e+001
1.826166e+003,1.372955e+001
1.827130e+003,1.237225e+001
1.828094e+003,1.081012e+001
1.829058e+003,1.040540e+001
1.830022e+003,1.302081e+001
1.830987e+003,1.513660e+001
1.831951e+003,1.348907e+001
1.832915e+003,9.849487e+000
1.833879e+003,5.514832e+000
1.834844e+003,1.578979e+000
1.835808e+003,1.658752e+000
1.836772e+003,5.813232e+000
1.837736e+003,8.703125e+000
1.838700e+003,7.754150e+000
1.839665e+003,6.069763e+000
1.840629e+003,6.640991e+000
1.841593e+003,8.739258e+000
1.842557e+003,1.078589e+001
1.843522e+003,1.272888e+001
1.844486e+003,1.229333e+001
1.845450e+003,7.000488e+000
1.846414e+003,5.281982e+000
1.847379e+003,9.580566e+000
1.848343e+003,1.262823e+001
1.849307e+003,1.199402e+001
1.850271e+003,1.023407e+001
1.851236e+003,9.015930e+000
1.852200e+003,8.436707e+000
1.853164e+003,7.765869e+000
1.854128e+003,6.774231e+000
1.855093e+003,5.985474e+000
1.856057e+003,6.040588e+000
1.857021e+003,7.579041e+000
1.857985e+003,1.117316e+001
1.858949e+003,1.490979e+001
1.859914e+003,1.494464e+001
1.860878e+003,1.232324e+001
1.861842e+003,1.268188e+001
1.862806e+003,1.598511e+001
1.863771e+003,1.847064e+001
1.864735e+003,1.957458e+001
1.865699e+003,1.836279e+001
1.866663e+003,1.289807e+001
1.867627e+003,8.783936e+000
1.868592e+003,1.236914e+001
1.869556e+003,1.885858e+001
1.870520e+003,1.926349e+001
1.871484e+003,1.459778e+001
1.872449e+003,1.205481e+001
1.873413e+003,1.393561e+001
1.874377e+003,1.659302e+001
1.875341e+003,1.817102e+001
1.876306e+003,1.920746e+001
1.877270e+003,1.943658e+001
1.878234e+003,1.948425e+001
1.879198e+003,2.045227e+001
1.880163e+003,2.180249e+001
1.881127e+003,2.272797e+001
1.882091e+003,2.296478e+001
1.883055e+003,2.213068e+001
1.884020e+003,2.009198e+001
1.884984e+003,1.711670e+001
1.885948e+003,1.335370e+001
1.886912e+003,1.046069e+001
1.887876e+003,1.236359e+001
1.888841e+003,1.851556e+001
1.889805e+003,2.102618e+001
1.890769e+003,1.883923e+001
1.891733e+003,1.901331e+001
1.892698e+003,2.353143e+001
1.893662e+003,2.627692e+001
1.894626e+003,2.394403e+001
1.895590e+003,2.119049e+001
1.896554e+003,2.174756e+001
1.897519e+003,2.371460e+001
1.898483e+003,2.424139e+001
1.899447e+003,2.351703e+001
1.900411e+003,2.387366e+001
1.901376e+003,2.589331e+001
1.902340e+003,2.808350e+001
1.903304e+003,3.025348e+001
1.904268e+003,3.171399e+001
1.905233e+003,3.229486e+001
1.906197e+003,3.207129e+001
1.907161e+003,3.116974e+001
1.908125e+003,2.967432e+001
1.909090e+003,2.624640e+001
1.910054e+003,2.175818e+001
1.911018e+003,2.066058e+001
1.911982e+003,2.418665e+001
1.912947e+003,2.788947e+001
1.913911e+003,2.838263e+001
1.914875e+003,2.777960e+001
1.915839e+003,2.923120e+001
1.916803e+003,3.201630e+001
1.917768e+003,3.451007e+001
1.918732e+003,3.739709e+001
1.919696e+003,3.717535e+001
1.920660e+003,3.232050e+001
1.921625e+003,2.945154e+001
1.922589e+003,3.107867e+001
1.923553e+003,3.253442e+001
1.924517e+003,3.009326e+001
1.925481e+003,2.770416e+001
1.926446e+003,3.008575e+001
1.927410e+003,3.460211e+001
1.928374e+003,3.520471e+001
1.929338e+003,3.164954e+001
1.930303e+003,3.014844e+001
1.931267e+003,3.389948e+001
1.932231e+003,3.661200e+001
1.933195e+003,3.278491e+001
1.934160e+003,2.915698e+001
1.935124e+003,3.223792e+001
1.936088e+003,3.675287e+001
1.937052e+003,3.611121e+001
1.938017e+003,3.222821e+001
1.938981e+003,2.987830e+001
1.939945e+003,2.976178e+001
1.940909e+003,2.997382e+001
1.941874e+003,2.950140e+001
1.942838e+003,2.875775e+001
1.943802e+003,2.846851e+001
1.944766e+003,2.884174e+001
1.945730e+003,2.923376e+001
1.946695e+003,2.957263e+001
1.947659e+003,3.231348e+001
1.948623e+003,3.779706e+001
1.949587e+003,4.035095e+001
1.950552e+003,3.895074e+001
1.951516e+003,3.732953e+001
1.952480e+003,3.656024e+001
1.953444e+003,3.613452e+001
1.954408e+003,3.582025e+001
1.955373e+003,3.500659e+001
1.956337e+003,3.286084e+001
1.957301e+003,3.036377e+001
1.958265e+003,2.933228e+001
1.959230e+003,2.990521e+001
1.960194e+003,3.168732e+001
1.961158e+003,3.519202e+001
1.962122e+003,3.759546e+001
1.963087e+003,3.777991e+001
1.964051e+003,3.737811e+001
1.965015e+003,3.729071e+001
1.965979e+003,3.789923e+001
1.966944e+003,3.951031e+001
1.967908e+003,4.124146e+001
1.968872e+003,4.208771e+001
1.969836e+003,4.194122e+001
1.970801e+003,4.079352e+001
1.971765e+003,3.881268e+001
1.972729e+003,3.759918e+001
1.973693e+003,3.869019e+001
1.974657e+003,4.055811e+001
1.975622e+003,4.055200e+001
1.976586e+003,3.935608e+001
1.977550e+003,3.937463e+001
1.978514e+003,4.059937e+001
1.979479e+003,4.161682e+001
1.980443e+003,4.218317e+001
1.981407e+003,4.390802e+001
1.982371e+003,4.766962e+001
1.983335e+003,5.072888e+001
1.984300e+003,5.069849e+001
1.985264e+003,4.886145e+001
1.986228e+003,4.732257e+001
1.987192e+003,4.614050e+001
1.988157e+003,4.575330e+001
1.989121e+003,4.657440e+001
1.990085e+003,4.698199e+001
1.991049e+003,4.748999e+001
1.992014e+003,4.702521e+001
1.992978e+003,4.275165e+001
1.993942e+003,4.073193e+001
1.994906e+003,4.501147e+001
1.995871e+003,5.024011e+001
1.996835e+003,5.255121e+001
1.997799e+003,5.357166e+001
1.998763e+003,5.627386e+001
1.999728e+003,5.979376e+001
