5.003444e+002,2.324646e+002
5.013087e+002,2.324418e+002
5.022729e+002,2.300129e+002
5.032371e+002,2.262981e+002
5.042014e+002,2.216633e+002
5.051656e+002,2.144097e+002
5.061298e+002,2.076204e+002
5.070941e+002,2.051387e+002
5.080583e+002,2.092153e+002
5.090225e+002,2.107870e+002
5.099868e+002,2.077781e+002
5.109510e+002,2.026204e+002
5.119152e+002,1.961488e+002
5.128795e+002,1.887357e+002
5.138437e+002,1.832441e+002
5.148079e+002,1.847179e+002
5.157722e+002,1.885229e+002
5.167364e+002,1.908671e+002
5.177006e+002,1.899063e+002
5.186649e+002,1.860341e+002
5.196291e+002,1.808796e+002
5.205933e+002,1.755837e+002
5.215576e+002,1.721652e+002
5.225218e+002,1.709290e+002
5.234860e+002,1.705596e+002
5.244503e+002,1.679435e+002
5.254145e+002,1.610096e+002
5.263787e+002,1.567421e+002
5.273430e+002,1.573497e+002
5.283072e+002,1.604563e+002
5.292714e+002,1.620958e+002
5.302357e+002,1.597529e+002
5.311999e+002,1.548588e+002
5.321641e+002,1.481102e+002
5.331284e+002,1.413793e+002
5.340926e+002,1.366521e+002
5.350568e+002,1.351785e+002
5.360211e+002,1.352760e+002
5.369853e+002,1.332974e+002
5.379495e+002,1.302852e+002
5.389138e+002,1.278983e+002
5.398780e+002,1.273174e+002
5.408422e+002,1.285771e+002
5.418065e+002,1.272332e+002
5.427707e+002,1.189600e+002
5.437349e+002,1.132384e+002
5.446992e+002,1.148663e+002
5.456634e+002,1.224214e+002
5.466276e+002,1.271113e+002
5.475919e+002,1.225710e+002
5.485561e+002,1.177719e+002
5.495203e+002,1.149402e+002
5.504846e+002,1.137052e+002
5.514488e+002,1.130273e+002
5.524130e+002,1.128854e+002
5.533773e+002,1.124336e+002
5.543415e+002,1.090121e+002
5.553057e+002,1.033325e+002
5.562700e+002,9.766321e+001
5.572342e+002,9.428943e+001
5.581984e+002,9.308435e+001
5.591627e+002,9.317261e+001
5.601269e+002,9.672974e+001
5.610911e+002,9.990491e+001
5.620554e+002,9.968237e+001
5.630196e+002,9.532910e+001
5.639838e+002,9.080103e+001
5.649481e+002,8.724756e+001
5.659123e+002,8.351074e+001
5.668765e+002,7.939014e+001
5.678408e+002,7.548438e+001
5.688050e+002,7.289014e+001
5.697692e+002,7.196643e+001
5.707335e+002,7.099670e+001
5.716977e+002,6.983850e+001
5.726619e+002,6.887756e+001
5.736262e+002,6.837219e+001
5.745904e+002,6.827502e+001
5.755546e+002,6.857678e+001
5.765189e+002,6.822742e+001
5.774831e+002,6.618677e+001
5.784473e+002,6.388025e+001
5.794116e+002,6.354895e+001
5.803758e+002,6.699231e+001
5.813400e+002,6.775403e+001
5.823043e+002,6.181995e+001
5.832685e+002,5.558569e+001
5.842327e+002,5.291125e+001
5.851970e+002,5.457959e+001
5.861612e+002,5.759106e+001
5.871254e+002,5.991760e+001
5.880897e+002,6.099573e+001
5.890539e+002,5.975562e+001
5.900181e+002,5.668433e+001
5.909824e+002,5.346680e+001
5.919466e+002,5.269495e+001
5.929108e+002,5.422693e+001
5.938751e+002,5.359583e+001
5.948393e+002,5.059106e+001
5.958035e+002,4.698645e+001
5.967678e+002,4.498035e+001
5.977320e+002,4.573816e+001
5.986962e+002,4.583435e+001
5.996605e+002,4.289294e+001
6.006247e+002,4.009070e+001
6.015889e+002,3.958801e+001
6.025532e+002,4.168567e+001
6.035174e+002,4.376160e+001
6.044816e+002,4.455640e+001
6.054459e+002,4.467847e+001
6.064101e+002,4.348059e+001
6.073743e+002,4.154163e+001
6.083386e+002,4.057068e+001
6.093028e+002,4.338379e+001
6.102670e+002,4.880762e+001
6.112313e+002,5.055103e+001
6.121955e+002,4.829504e+001
6.131597e+002,4.438721e+001
6.141240e+002,4.135095e+001
6.150882e+002,3.900049e+001
6.160524e+002,3.830212e+001
6.170167e+002,4.154492e+001
6.179809e+002,4.444360e+001
6.189451e+002,4.352466e+001
6.199094e+002,3.838306e+001
6.208736e+002,3.417139e+001
6.218378e+002,3.654602e+001
6.228021e+002,3.923645e+001
6.237663e+002,3.943982e+001
6.247305e+002,3.752026e+001
6.256948e+002,3.533130e+001
6.266590e+002,3.434656e+001
6.276232e+002,3.415881e+001
6.285875e+002,3.526990e+001
6.295517e+002,3.776685e+001
6.305159e+002,3.977563e+001
6.314802e+002,3.904785e+001
6.324444e+002,3.460327e+001
6.334086e+002,3.141187e+001
6.343729e+002,3.206543e+001
6.353371e+002,3.233618e+001
6.363013e+002,2.921545e+001
6.372656e+002,2.302673e+001
6.382298e+002,1.878333e+001
6.391940e+002,2.160547e+001
6.401583e+002,2.292517e+001
6.411225e+002,1.950708e+001
6.420867e+002,1.365430e+001
6.430510e+002,9.077271e+000
6.440152e+002,8.186279e+000
6.449794e+002,9.067139e+000
6.459437e+002,9.478516e+000
6.469079e+002,9.500366e+000
6.478721e+002,9.306519e+000
6.488364e+002,9.233398e+000
6.498006e+002,9.604980e+000
6.507648e+002,9.021118e+000
6.517291e+002,6.064087e+000
6.526933e+002,3.716919e+000
6.536575e+002,2.692627e+000
6.546218e+002,2.771484e+000
6.555860e+002,3.267700e+000
6.565502e+002,3.803467e+000
6.575145e+002,5.051392e+000
6.584787e+002,8.604614e+000
6.594429e+002,1.251624e+001
6.604072e+002,1.411743e+001
6.613714e+002,1.175732e+001
6.623356e+002,8.091187e+000
6.632999e+002,7.700439e+000
6.642641e+002,8.701660e+000
6.652283e+002,9.239258e+000
6.661926e+002,8.854370e+000
6.671568e+002,7.934448e+000
6.681210e+002,6.183472e+000
6.690853e+002,1.439941e+000
6.700495e+002,-9.216309e-001
6.710137e+002,4.738770e-001
6.719780e+002,4.080200e+000
6.729422e+002,7.857788e+000
6.739064e+002,1.190027e+001
6.748707e+002,1.411267e+001
6.758349e+002,1.353943e+001
6.767991e+002,1.179504e+001
6.777634e+002,1.033887e+001
6.787276e+002,9.920044e+000
6.796918e+002,1.014111e+001
6.806561e+002,9.263306e+000
6.816203e+002,7.642578e+000
6.825845e+002,6.832520e+000
6.835488e+002,7.056396e+000
6.845130e+002,7.680542e+000
6.854772e+002,7.715820e+000
6.864415e+002,7.649170e+000
6.874057e+002,8.085083e+000
6.883699e+002,7.419067e+000
6.893342e+002,6.497681e+000
6.902984e+002,6.040405e+000
6.912626e+002,6.346680e+000
6.922269e+002,7.814941e+000
6.931911e+002,1.422168e+001
6.941553e+002,1.972205e+001
6.951196e+002,2.040808e+001
6.960838e+002,1.724854e+001
6.970480e+002,1.425977e+001
6.980123e+002,1.553284e+001
6.989765e+002,1.834619e+001
6.999407e+002,1.663867e+001
7.009050e+002,1.170947e+001
7.018692e+002,7.260498e+000
7.028334e+002,6.019897e+000
7.037977e+002,7.637817e+000
7.047619e+002,8.664795e+000
7.057261e+002,1.071753e+001
7.066904e+002,1.125635e+001
7.076546e+002,8.329956e+000
7.086188e+002,3.479370e+000
7.095831e+002,6.018066e-001
7.105473e+002,3.790283e-001
7.115115e+002,1.459717e+000
7.124758e+002,4.750488e+000
7.134400e+002,7.921753e+000
7.144042e+002,8.809204e+000
7.153685e+002,6.794189e+000
7.163327e+002,3.890259e+000
7.172969e+002,2.614868e+000
7.182612e+002,2.635132e+000
7.192254e+002,3.694946e+000
7.201896e+002,5.265869e+000
7.211539e+002,6.245483e+000
7.221181e+002,5.075195e+000
7.230823e+002,8.505859e-001
7.240466e+002,-1.000244e+000
7.250108e+002,7.763672e-001
7.259750e+002,4.570068e+000
7.269393e+002,9.612915e+000
7.279035e+002,1.522522e+001
7.288677e+002,1.747021e+001
7.298320e+002,1.281067e+001
7.307962e+002,9.130615e+000
7.317604e+002,1.026709e+001
7.327247e+002,1.470630e+001
7.336889e+002,1.805786e+001
7.346531e+002,1.604529e+001
7.356174e+002,9.326050e+000
7.365816e+002,2.916260e+000
7.375458e+002,-1.546875e+000
7.385101e+002,-2.608398e+000
7.394743e+002,6.916504e-001
7.404385e+002,7.515869e+000
7.414028e+002,1.166248e+001
7.423670e+002,8.584961e+000
7.433312e+002,4.982422e+000
7.442955e+002,2.154907e+000
7.452597e+002,8.531494e-001
7.462239e+002,1.825806e+000
7.471882e+002,5.902954e+000
7.481524e+002,8.889648e+000
7.491166e+002,5.525146e+000
7.500809e+002,1.349731e+000
7.510451e+002,2.006714e+000
7.520093e+002,8.155884e+000
7.529736e+002,1.469751e+001
7.539378e+002,1.436304e+001
7.549020e+002,9.909058e+000
7.558663e+002,7.975464e+000
7.568306e+002,8.799927e+000
7.577948e+002,1.036072e+001
7.587590e+002,1.001050e+001
7.597233e+002,6.365601e+000
7.606875e+002,3.848999e+000
7.616517e+002,2.728394e+000
7.626160e+002,3.445557e+000
7.635802e+002,7.802002e+000
7.645444e+002,1.447205e+001
7.655087e+002,1.929346e+001
7.664729e+002,1.978442e+001
7.674371e+002,1.868738e+001
7.684014e+002,1.755029e+001
7.693656e+002,1.624902e+001
7.703298e+002,1.436646e+001
7.712941e+002,1.190735e+001
7.722583e+002,9.791748e+000
7.732225e+002,1.005408e+001
7.741868e+002,1.229285e+001
7.751510e+002,1.556140e+001
7.761152e+002,2.052905e+001
7.770795e+002,2.560608e+001
7.780437e+002,2.742346e+001
7.790079e+002,2.342517e+001
7.799722e+002,2.121838e+001
7.809364e+002,2.254700e+001
7.819006e+002,2.414600e+001
7.828649e+002,2.466516e+001
7.838291e+002,2.434058e+001
7.847933e+002,2.424109e+001
7.857576e+002,2.455164e+001
7.867218e+002,2.411365e+001
7.876860e+002,2.293213e+001
7.886503e+002,2.172009e+001
7.896145e+002,2.094055e+001
7.905787e+002,2.076611e+001
7.915430e+002,2.121765e+001
7.925072e+002,2.258716e+001
7.934714e+002,2.377002e+001
7.944357e+002,2.367957e+001
7.953999e+002,2.283459e+001
7.963641e+002,2.181946e+001
7.973284e+002,2.041663e+001
7.982926e+002,1.693384e+001
7.992568e+002,1.681531e+001
8.002211e+002,2.300757e+001
8.011853e+002,2.828210e+001
8.021495e+002,2.868555e+001
8.031138e+002,2.486804e+001
8.040780e+002,2.096790e+001
8.050422e+002,1.805884e+001
8.060065e+002,1.671021e+001
8.069707e+002,2.021265e+001
8.079349e+002,2.731299e+001
8.088992e+002,3.328198e+001
8.098634e+002,3.427332e+001
8.108276e+002,3.111035e+001
8.117919e+002,3.071924e+001
8.127561e+002,3.452844e+001
8.137203e+002,3.522180e+001
8.146846e+002,3.111597e+001
8.156488e+002,2.479126e+001
8.166130e+002,1.964856e+001
8.175773e+002,1.538123e+001
8.185415e+002,1.382495e+001
8.195057e+002,1.586450e+001
8.204700e+002,1.906860e+001
8.214342e+002,2.252429e+001
8.223984e+002,2.569653e+001
8.233627e+002,2.801318e+001
8.243269e+002,2.873083e+001
8.252911e+002,2.840527e+001
8.262554e+002,2.816772e+001
8.272196e+002,2.794995e+001
8.281838e+002,2.816223e+001
8.291481e+002,2.929346e+001
8.301123e+002,3.122510e+001
8.310765e+002,3.173987e+001
8.320408e+002,2.896619e+001
8.330050e+002,2.636743e+001
8.339692e+002,2.456824e+001
8.349335e+002,2.337683e+001
8.358977e+002,2.270947e+001
8.368619e+002,2.286743e+001
8.378262e+002,2.361462e+001
8.387904e+002,2.386597e+001
8.397546e+002,2.401025e+001
8.407189e+002,2.479919e+001
8.416831e+002,2.644824e+001
8.426473e+002,2.859692e+001
8.436116e+002,3.060681e+001
8.445758e+002,3.262256e+001
8.455400e+002,3.518201e+001
8.465043e+002,3.719360e+001
8.474685e+002,3.824280e+001
8.484327e+002,3.909668e+001
8.493970e+002,4.057495e+001
8.503612e+002,4.248376e+001
8.513254e+002,4.477478e+001
8.522897e+002,4.598206e+001
8.532539e+002,4.442834e+001
8.542181e+002,4.239563e+001
8.551824e+002,4.260205e+001
8.561466e+002,4.613818e+001
8.571108e+002,5.122986e+001
8.580751e+002,5.490100e+001
8.590393e+002,5.684521e+001
8.600035e+002,5.901392e+001
8.609678e+002,6.185120e+001
8.619320e+002,6.384656e+001
8.628962e+002,6.303223e+001
8.638605e+002,5.934131e+001
8.648247e+002,5.994800e+001
8.657889e+002,6.908032e+001
8.667532e+002,7.517310e+001
8.677174e+002,7.379480e+001
8.686816e+002,6.878882e+001
8.696459e+002,6.670813e+001
8.706101e+002,6.973438e+001
8.715743e+002,7.395361e+001
8.725386e+002,7.814124e+001
8.735028e+002,8.196948e+001
8.744670e+002,8.427930e+001
8.754313e+002,8.510974e+001
8.763955e+002,8.582373e+001
8.773597e+002,8.823596e+001
8.783240e+002,9.254651e+001
8.792882e+002,9.765442e+001
8.802524e+002,1.031146e+002
8.812167e+002,1.058346e+002
8.821809e+002,1.028739e+002
8.831451e+002,9.610522e+001
8.841094e+002,9.424438e+001
8.850736e+002,1.017050e+002
8.860378e+002,1.088243e+002
8.870021e+002,1.145023e+002
8.879663e+002,1.189897e+002
8.889305e+002,1.222491e+002
8.898948e+002,1.241550e+002
8.908590e+002,1.246851e+002
8.918232e+002,1.233420e+002
8.927875e+002,1.225140e+002
8.937517e+002,1.238110e+002
8.947159e+002,1.268439e+002
8.956802e+002,1.307209e+002
8.966444e+002,1.344988e+002
8.976086e+002,1.375221e+002
8.985729e+002,1.395948e+002
8.995371e+002,1.420623e+002
9.005013e+002,1.441862e+002
9.014656e+002,1.468290e+002
9.024298e+002,1.493866e+002
9.033940e+002,1.500194e+002
9.043583e+002,1.476400e+002
9.053225e+002,1.460554e+002
9.062867e+002,1.474349e+002
9.072510e+002,1.487209e+002
9.082152e+002,1.501707e+002
9.091794e+002,1.516786e+002
9.101437e+002,1.523263e+002
9.111079e+002,1.511935e+002
9.120721e+002,1.492316e+002
9.130364e+002,1.498196e+002
9.140006e+002,1.514478e+002
9.149648e+002,1.506340e+002
9.159291e+002,1.469626e+002
9.168933e+002,1.429667e+002
9.178575e+002,1.415511e+002
9.188218e+002,1.426222e+002
9.197860e+002,1.434973e+002
9.207502e+002,1.442395e+002
9.217145e+002,1.441852e+002
9.226787e+002,1.435222e+002
9.236429e+002,1.429734e+002
9.246072e+002,1.434480e+002
9.255714e+002,1.452489e+002
9.265356e+002,1.457122e+002
9.274999e+002,1.402972e+002
9.284641e+002,1.329333e+002
9.294283e+002,1.289063e+002
9.303926e+002,1.293951e+002
9.313568e+002,1.310491e+002
9.323210e+002,1.287704e+002
9.332853e+002,1.216201e+002
9.342495e+002,1.169916e+002
9.352137e+002,1.157448e+002
9.361780e+002,1.147039e+002
9.371422e+002,1.136989e+002
9.381064e+002,1.130414e+002
9.390707e+002,1.121107e+002
9.400349e+002,1.094164e+002
9.409991e+002,1.078308e+002
9.419634e+002,1.104902e+002
9.429276e+002,1.130431e+002
9.438918e+002,1.119165e+002
9.448561e+002,1.076904e+002
9.458203e+002,1.041045e+002
9.467845e+002,1.047810e+002
9.477488e+002,1.082704e+002
9.487130e+002,1.072867e+002
9.496772e+002,1.021637e+002
9.506415e+002,9.877869e+001
9.516057e+002,1.002833e+002
9.525699e+002,1.042410e+002
9.535342e+002,1.049270e+002
9.544984e+002,1.007119e+002
9.554626e+002,9.624817e+001
9.564269e+002,9.219702e+001
9.573911e+002,8.989453e+001
9.583553e+002,8.974304e+001
9.593196e+002,9.142529e+001
9.602838e+002,9.524805e+001
9.612480e+002,1.024185e+002
9.622123e+002,1.083361e+002
9.631765e+002,1.039523e+002
9.641407e+002,9.435535e+001
9.651050e+002,8.834412e+001
9.660692e+002,8.846252e+001
9.670334e+002,9.086316e+001
9.679977e+002,8.960376e+001
9.689619e+002,8.391699e+001
9.699261e+002,8.349487e+001
9.708904e+002,8.968054e+001
9.718546e+002,9.653516e+001
9.728188e+002,1.004600e+002
9.737831e+002,1.036431e+002
9.747473e+002,1.117813e+002
9.757115e+002,1.281013e+002
9.766758e+002,1.440758e+002
9.776400e+002,1.558844e+002
9.786042e+002,1.637787e+002
9.795685e+002,1.673969e+002
9.805327e+002,1.659655e+002
9.814969e+002,1.579276e+002
9.824612e+002,1.423251e+002
9.834254e+002,1.218024e+002
9.843896e+002,1.066141e+002
9.853539e+002,9.540710e+001
9.863181e+002,8.605908e+001
9.872823e+002,7.816357e+001
9.882466e+002,7.130762e+001
9.892108e+002,6.544470e+001
9.901750e+002,6.133240e+001
9.911393e+002,6.056299e+001
9.921035e+002,6.383020e+001
9.930677e+002,6.737439e+001
9.940320e+002,7.169556e+001
9.949962e+002,7.625671e+001
9.959604e+002,7.955066e+001
9.969247e+002,8.068237e+001
9.978889e+002,8.100745e+001
9.988531e+002,8.290588e+001
9.998174e+002,8.517151e+001
1.000782e+003,8.647559e+001
1.001746e+003,8.736462e+001
1.002710e+003,8.813928e+001
1.003674e+003,8.895288e+001
1.004639e+003,8.977686e+001
1.005603e+003,8.989343e+001
1.006567e+003,8.754565e+001
1.007531e+003,8.613098e+001
1.008495e+003,8.753687e+001
1.009460e+003,8.933240e+001
1.010424e+003,8.963245e+001
1.011388e+003,8.809497e+001
1.012352e+003,8.499353e+001
1.013317e+003,7.914673e+001
1.014281e+003,7.280261e+001
1.015245e+003,7.019055e+001
1.016209e+003,6.998694e+001
1.017174e+003,6.930249e+001
1.018138e+003,6.699805e+001
1.019102e+003,6.323853e+001
1.020066e+003,5.786707e+001
1.021031e+003,5.121411e+001
1.021995e+003,4.403613e+001
1.022959e+003,3.259924e+001
1.023923e+003,2.293628e+001
1.024887e+003,1.889575e+001
1.025852e+003,1.871375e+001
1.026816e+003,1.786816e+001
1.027780e+003,1.486438e+001
1.028744e+003,1.223987e+001
1.029709e+003,1.260107e+001
1.030673e+003,1.359216e+001
1.031637e+003,1.257861e+001
1.032601e+003,9.312988e+000
1.033566e+003,5.727417e+000
1.034530e+003,4.111816e+000
1.035494e+003,4.787109e+000
1.036458e+003,5.199585e+000
1.037422e+003,4.075928e+000
1.038387e+003,3.469604e+000
1.039351e+003,3.403198e+000
1.040315e+003,3.974731e+000
1.041279e+003,5.812012e+000
1.042244e+003,9.140137e+000
1.043208e+003,1.228271e+001
1.044172e+003,1.378491e+001
1.045136e+003,1.480640e+001
1.046101e+003,1.653223e+001
1.047065e+003,1.847156e+001
1.048029e+003,1.972864e+001
1.048993e+003,1.990430e+001
1.049958e+003,1.942957e+001
1.050922e+003,1.923145e+001
1.051886e+003,1.955896e+001
1.052850e+003,1.827039e+001
1.053814e+003,1.420044e+001
1.054779e+003,1.184863e+001
1.055743e+003,1.383472e+001
1.056707e+003,1.834143e+001
1.057671e+003,2.142395e+001
1.058636e+003,2.245715e+001
1.059600e+003,2.285840e+001
1.060564e+003,2.373926e+001
1.061528e+003,2.469409e+001
1.062493e+003,2.543652e+001
1.063457e+003,2.512878e+001
1.064421e+003,2.262048e+001
1.065385e+003,1.749573e+001
1.066349e+003,1.128003e+001
1.067314e+003,6.327759e+000
1.068278e+003,3.146362e+000
1.069242e+003,3.703979e+000
1.070206e+003,9.451416e+000
1.071171e+003,1.589966e+001
1.072135e+003,1.878247e+001
1.073099e+003,1.809424e+001
1.074063e+003,1.727588e+001
1.075028e+003,1.669739e+001
1.075992e+003,1.633545e+001
1.076956e+003,1.586353e+001
1.077920e+003,1.510950e+001
1.078885e+003,1.492480e+001
1.079849e+003,1.526575e+001
1.080813e+003,1.475293e+001
1.081777e+003,1.200488e+001
1.082741e+003,8.423218e+000
1.083706e+003,6.825806e+000
1.084670e+003,6.080566e+000
1.085634e+003,5.428345e+000
1.086598e+003,4.717896e+000
1.087563e+003,4.145020e+000
1.088527e+003,4.799805e+000
1.089491e+003,7.675415e+000
1.090455e+003,9.434814e+000
1.091420e+003,7.283569e+000
1.092384e+003,5.700928e+000
1.093348e+003,4.995605e+000
1.094312e+003,5.119873e+000
1.095276e+003,7.500000e+000
1.096241e+003,1.181946e+001
1.097205e+003,1.443335e+001
1.098169e+003,1.156616e+001
1.099133e+003,5.365234e+000
1.100098e+003,4.776611e-001
1.101062e+003,-2.589355e+000
1.102026e+003,-2.570435e+000
1.102990e+003,1.449341e+000
1.103955e+003,6.855957e+000
1.104919e+003,9.285156e+000
1.105883e+003,7.686523e+000
1.106847e+003,6.855957e+000
1.107812e+003,7.722412e+000
1.108776e+003,7.842285e+000
1.109740e+003,5.598999e+000
1.110704e+003,3.160767e+000
1.111668e+003,3.482666e+000
1.112633e+003,7.263672e+000
1.113597e+003,1.241663e+001
1.114561e+003,1.727063e+001
1.115525e+003,2.060815e+001
1.116490e+003,2.199170e+001
1.117454e+003,2.206787e+001
1.118418e+003,2.127747e+001
1.119382e+003,1.991589e+001
1.120347e+003,1.903845e+001
1.121311e+003,1.970789e+001
1.122275e+003,2.103369e+001
1.123239e+003,2.189966e+001
1.124203e+003,2.378540e+001
1.125168e+003,2.569873e+001
1.126132e+003,2.754504e+001
1.127096e+003,2.946204e+001
1.128060e+003,3.086499e+001
1.129025e+003,3.166919e+001
1.129989e+003,3.351086e+001
1.130953e+003,3.828735e+001
1.131917e+003,4.379468e+001
1.132882e+003,4.725134e+001
1.133846e+003,4.908398e+001
1.134810e+003,4.939087e+001
1.135774e+003,4.813696e+001
1.136739e+003,4.712195e+001
1.137703e+003,4.891467e+001
1.138667e+003,5.341406e+001
1.139631e+003,5.947510e+001
1.140595e+003,6.877380e+001
1.141560e+003,7.730981e+001
1.142524e+003,8.333008e+001
1.143488e+003,8.989160e+001
1.144452e+003,9.949084e+001
1.145417e+003,1.124537e+002
1.146381e+003,1.278818e+002
1.147345e+003,1.455820e+002
1.148309e+003,1.645764e+002
1.149274e+003,1.843558e+002
1.150238e+003,2.051764e+002
1.151202e+003,2.278500e+002
1.152166e+003,2.529460e+002
1.153130e+003,2.773025e+002
1.154095e+003,2.964542e+002
1.155059e+003,3.091156e+002
1.156023e+003,3.158420e+002
1.156987e+003,3.174551e+002
1.157952e+003,3.139371e+002
1.158916e+003,3.055087e+002
1.159880e+003,2.937076e+002
1.160844e+003,2.774951e+002
1.161809e+003,2.569670e+002
1.162773e+003,2.343976e+002
1.163737e+003,2.107954e+002
1.164701e+003,1.879374e+002
1.165666e+003,1.679580e+002
1.166630e+003,1.507008e+002
1.167594e+003,1.364291e+002
1.168558e+003,1.250264e+002
1.169522e+003,1.147847e+002
1.170487e+003,1.033568e+002
1.171451e+003,9.180420e+001
1.172415e+003,8.780994e+001
1.173379e+003,9.683569e+001
1.174344e+003,1.021903e+002
1.175308e+003,1.020826e+002
1.176272e+003,9.969861e+001
1.177236e+003,9.668835e+001
1.178201e+003,9.304834e+001
1.179165e+003,8.730896e+001
1.180129e+003,7.845435e+001
1.181093e+003,6.932971e+001
1.182057e+003,6.384644e+001
1.183022e+003,6.113672e+001
1.183986e+003,5.899915e+001
1.184950e+003,5.733411e+001
1.185914e+003,5.509827e+001
1.186879e+003,5.103308e+001
1.187843e+003,4.709619e+001
1.188807e+003,4.851392e+001
1.189771e+003,5.708496e+001
1.190736e+003,6.243762e+001
1.191700e+003,6.179895e+001
1.192664e+003,6.006628e+001
1.193628e+003,5.938416e+001
1.194593e+003,5.860315e+001
1.195557e+003,5.562390e+001
1.196521e+003,5.009155e+001
1.197485e+003,4.394604e+001
1.198449e+003,3.907458e+001
1.199414e+003,3.506323e+001
1.200378e+003,2.976172e+001
1.201342e+003,2.349084e+001
1.202306e+003,1.914014e+001
1.203271e+003,1.802271e+001
1.204235e+003,1.731543e+001
1.205199e+003,1.340149e+001
1.206163e+003,6.552856e+000
1.207128e+003,1.899536e+000
1.208092e+003,1.796753e+000
1.209056e+003,7.911377e-001
1.210020e+003,-2.891479e+000
1.210984e+003,-7.442871e+000
1.211949e+003,-1.199805e+001
1.212913e+003,-1.634143e+001
1.213877e+003,-2.002979e+001
1.214841e+003,-2.272229e+001
1.215806e+003,-2.563513e+001
1.216770e+003,-3.212366e+001
1.217734e+003,-4.162793e+001
1.218698e+003,-4.494250e+001
1.219663e+003,-4.023132e+001
1.220627e+003,-3.686963e+001
1.221591e+003,-4.096240e+001
1.222555e+003,-4.909784e+001
1.223520e+003,-5.433850e+001
1.224484e+003,-5.581421e+001
1.225448e+003,-5.640826e+001
1.226412e+003,-5.729303e+001
1.227376e+003,-5.723224e+001
1.228341e+003,-5.499261e+001
1.229305e+003,-5.218860e+001
1.230269e+003,-5.041370e+001
1.231233e+003,-5.019452e+001
1.232198e+003,-5.154950e+001
1.233162e+003,-5.442920e+001
1.234126e+003,-5.769318e+001
1.235090e+003,-5.800360e+001
1.236055e+003,-5.529468e+001
1.237019e+003,-5.400500e+001
1.237983e+003,-5.522516e+001
1.238947e+003,-5.745728e+001
1.239911e+003,-5.969244e+001
1.240876e+003,-6.157581e+001
1.241840e+003,-6.290271e+001
1.242804e+003,-6.373364e+001
1.243768e+003,-6.325757e+001
1.244733e+003,-5.900494e+001
1.245697e+003,-5.508844e+001
1.246661e+003,-5.562744e+001
1.247625e+003,-5.908508e+001
1.248590e+003,-6.129718e+001
1.249554e+003,-5.998944e+001
1.250518e+003,-5.613232e+001
1.251482e+003,-5.179034e+001
1.252447e+003,-4.760651e+001
1.253411e+003,-4.665503e+001
1.254375e+003,-5.250671e+001
1.255339e+003,-5.439789e+001
1.256303e+003,-4.803345e+001
1.257268e+003,-3.966211e+001
1.258232e+003,-3.463672e+001
1.259196e+003,-3.318848e+001
1.260160e+003,-3.292041e+001
1.261125e+003,-3.268030e+001
1.262089e+003,-3.194714e+001
1.263053e+003,-3.072803e+001
1.264017e+003,-2.965369e+001
1.264982e+003,-2.868750e+001
1.265946e+003,-2.749219e+001
1.266910e+003,-2.576953e+001
1.267874e+003,-2.333508e+001
1.268839e+003,-2.138684e+001
1.269803e+003,-2.254810e+001
1.270767e+003,-2.756616e+001
1.271731e+003,-3.105981e+001
1.272695e+003,-3.148145e+001
1.273660e+003,-3.201013e+001
1.274624e+003,-3.451575e+001
1.275588e+003,-3.758203e+001
1.276552e+003,-3.892261e+001
1.277517e+003,-3.852307e+001
1.278481e+003,-3.862305e+001
1.279445e+003,-4.085370e+001
1.280409e+003,-4.400531e+001
1.281374e+003,-4.590649e+001
1.282338e+003,-4.644067e+001
1.283302e+003,-4.596356e+001
1.284266e+003,-4.444678e+001
1.285230e+003,-4.344263e+001
1.286195e+003,-4.341888e+001
1.287159e+003,-4.480566e+001
1.288123e+003,-4.907111e+001
1.289087e+003,-5.633862e+001
1.290052e+003,-6.038190e+001
1.291016e+003,-5.857135e+001
1.291980e+003,-5.593915e+001
1.292944e+003,-5.397284e+001
1.293909e+003,-5.304913e+001
1.294873e+003,-5.323047e+001
1.295837e+003,-5.394714e+001
1.296801e+003,-5.458228e+001
1.297766e+003,-5.489246e+001
1.298730e+003,-5.469080e+001
1.299694e+003,-5.326886e+001
1.300658e+003,-5.073798e+001
1.301622e+003,-5.051282e+001
1.302587e+003,-5.453943e+001
1.303551e+003,-5.697931e+001
1.304515e+003,-5.455353e+001
1.305479e+003,-4.985431e+001
1.306444e+003,-4.625995e+001
1.307408e+003,-4.435815e+001
1.308372e+003,-4.335559e+001
1.309336e+003,-4.275214e+001
1.310301e+003,-4.315808e+001
1.311265e+003,-4.643262e+001
1.312229e+003,-4.992908e+001
1.313193e+003,-4.998218e+001
1.314157e+003,-4.680908e+001
1.315122e+003,-4.372919e+001
1.316086e+003,-4.319366e+001
1.317050e+003,-4.494495e+001
1.318014e+003,-4.796741e+001
1.318979e+003,-5.253125e+001
1.319943e+003,-5.338165e+001
1.320907e+003,-4.620813e+001
1.321871e+003,-4.097339e+001
1.322836e+003,-4.185254e+001
1.323800e+003,-4.452460e+001
1.324764e+003,-4.488617e+001
1.325728e+003,-4.312939e+001
1.326693e+003,-4.198096e+001
1.327657e+003,-4.286200e+001
1.328621e+003,-4.447650e+001
1.329585e+003,-4.469830e+001
1.330549e+003,-4.284308e+001
1.331514e+003,-4.152911e+001
1.332478e+003,-4.231696e+001
1.333442e+003,-4.267627e+001
1.334406e+003,-3.947797e+001
1.335371e+003,-3.592566e+001
1.336335e+003,-3.763336e+001
1.337299e+003,-4.392462e+001
1.338263e+003,-4.696497e+001
1.339228e+003,-4.396167e+001
1.340192e+003,-4.049744e+001
1.341156e+003,-3.874323e+001
1.342120e+003,-3.800140e+001
1.343084e+003,-3.883221e+001
1.344049e+003,-4.059363e+001
1.345013e+003,-4.107184e+001
1.345977e+003,-3.906665e+001
1.346941e+003,-3.637457e+001
1.347906e+003,-3.617444e+001
1.348870e+003,-3.850146e+001
1.349834e+003,-3.935999e+001
1.350798e+003,-3.758917e+001
1.351763e+003,-3.700745e+001
1.352727e+003,-3.818530e+001
1.353691e+003,-3.981995e+001
1.354655e+003,-4.136517e+001
1.355620e+003,-4.250232e+001
1.356584e+003,-4.274609e+001
1.357548e+003,-4.194427e+001
1.358512e+003,-4.085596e+001
1.359476e+003,-4.051996e+001
1.360441e+003,-4.054688e+001
1.361405e+003,-3.902771e+001
1.362369e+003,-3.657941e+001
1.363333e+003,-3.578015e+001
1.364298e+003,-3.724097e+001
1.365262e+003,-3.837994e+001
1.366226e+003,-3.679034e+001
1.367190e+003,-3.356403e+001
1.368155e+003,-3.193494e+001
1.369119e+003,-3.216870e+001
1.370083e+003,-3.206146e+001
1.371047e+003,-3.034430e+001
1.372011e+003,-2.895013e+001
1.372976e+003,-2.909650e+001
1.373940e+003,-3.031311e+001
1.374904e+003,-3.276978e+001
1.375868e+003,-3.535010e+001
1.376833e+003,-3.511725e+001
1.377797e+003,-3.064862e+001
1.378761e+003,-2.561346e+001
1.379725e+003,-2.659320e+001
1.380690e+003,-3.389099e+001
1.381654e+003,-3.678021e+001
1.382618e+003,-3.313525e+001
1.383582e+003,-2.885132e+001
1.384547e+003,-2.324506e+001
1.385511e+003,-1.882800e+001
1.386475e+003,-1.899329e+001
1.387439e+003,-2.226569e+001
1.388403e+003,-2.395392e+001
1.389368e+003,-2.267126e+001
1.390332e+003,-2.119647e+001
1.391296e+003,-2.136902e+001
1.392260e+003,-2.213403e+001
1.393225e+003,-2.218689e+001
1.394189e+003,-2.224121e+001
1.395153e+003,-2.364771e+001
1.396117e+003,-2.664496e+001
1.397082e+003,-2.907727e+001
1.398046e+003,-2.900702e+001
1.399010e+003,-2.685394e+001
1.399974e+003,-2.391498e+001
1.400938e+003,-2.016339e+001
1.401903e+003,-1.934540e+001
1.402867e+003,-2.321106e+001
1.403831e+003,-2.542828e+001
1.404795e+003,-2.421442e+001
1.405760e+003,-2.171735e+001
1.406724e+003,-2.025970e+001
1.407688e+003,-2.036249e+001
1.408652e+003,-2.054309e+001
1.409617e+003,-1.923853e+001
1.410581e+003,-1.699683e+001
1.411545e+003,-1.615515e+001
1.412509e+003,-1.695068e+001
1.413474e+003,-1.685669e+001
1.414438e+003,-1.677173e+001
1.415402e+003,-1.700299e+001
1.416366e+003,-1.607349e+001
1.417330e+003,-1.539941e+001
1.418295e+003,-1.695105e+001
1.419259e+003,-1.922125e+001
1.420223e+003,-1.920526e+001
1.421187e+003,-1.661816e+001
1.422152e+003,-1.408533e+001
1.423116e+003,-1.303772e+001
1.424080e+003,-1.178943e+001
1.425044e+003,-7.467407e+000
1.426009e+003,-2.633423e+000
1.426973e+003,-2.925171e+000
1.427937e+003,-9.287842e+000
1.428901e+003,-1.438696e+001
1.429865e+003,-1.246472e+001
1.430830e+003,-7.478271e+000
1.431794e+003,-7.107422e+000
1.432758e+003,-1.118958e+001
1.433722e+003,-1.110071e+001
1.434687e+003,-1.879395e+000
1.435651e+003,6.013184e+000
1.436615e+003,3.835815e+000
1.437579e+003,-1.187256e+000
1.438544e+003,-3.939209e+000
1.439508e+003,-4.304932e+000
1.440472e+003,-3.247925e+000
1.441436e+003,-1.096313e+000
1.442401e+003,1.762451e+000
1.443365e+003,4.679932e+000
1.444329e+003,6.947876e+000
1.445293e+003,7.000122e+000
1.446257e+003,3.830566e+000
1.447222e+003,2.499146e+000
1.448186e+003,4.264526e+000
1.449150e+003,5.390625e+000
1.450114e+003,4.660034e+000
1.451079e+003,2.978027e+000
1.452043e+003,1.004028e+000
1.453007e+003,-6.228027e-001
1.453971e+003,-1.200317e+000
1.454936e+003,-6.820068e-001
1.455900e+003,1.723633e-001
1.456864e+003,8.765869e-001
1.457828e+003,1.812134e+000
1.458792e+003,2.901855e+000
1.459757e+003,3.553833e+000
1.460721e+003,3.430420e+000
1.461685e+003,1.654175e+000
1.462649e+003,3.121338e-001
1.463614e+003,1.521851e+000
1.464578e+003,3.782471e+000
1.465542e+003,4.485718e+000
1.466506e+003,3.320557e+000
1.467471e+003,1.293213e+000
1.468435e+003,-1.194824e+000
1.469399e+003,-2.179077e+000
1.470363e+003,-3.662109e-004
1.471328e+003,2.857422e+000
1.472292e+003,4.552734e+000
1.473256e+003,4.794434e+000
1.474220e+003,2.617310e+000
1.475184e+003,-2.259766e+000
1.476149e+003,-5.997559e+000
1.477113e+003,-4.237793e+000
1.478077e+003,1.152100e+000
1.479041e+003,3.947876e+000
1.480006e+003,4.125488e+000
1.480970e+003,4.429199e+000
1.481934e+003,4.166138e+000
1.482898e+003,4.448486e+000
1.483863e+003,6.409668e+000
1.484827e+003,8.805908e+000
1.485791e+003,1.027234e+001
1.486755e+003,1.152759e+001
1.487719e+003,1.477148e+001
1.488684e+003,2.040161e+001
1.489648e+003,2.528601e+001
1.490612e+003,2.592065e+001
1.491576e+003,2.358350e+001
1.492541e+003,2.337585e+001
1.493505e+003,2.523853e+001
1.494469e+003,2.783923e+001
1.495433e+003,2.917566e+001
1.496398e+003,3.225366e+001
1.497362e+003,4.112720e+001
1.498326e+003,5.130298e+001
1.499290e+003,5.700159e+001
1.500255e+003,5.964441e+001
1.501219e+003,6.468896e+001
1.502183e+003,7.435925e+001
1.503147e+003,8.641968e+001
1.504111e+003,9.874670e+001
1.505076e+003,1.116348e+002
1.506040e+003,1.256315e+002
1.507004e+003,1.405583e+002
1.507968e+003,1.559873e+002
1.508933e+003,1.709956e+002
1.509897e+003,1.878823e+002
1.510861e+003,2.086345e+002
1.511825e+003,2.325326e+002
1.512790e+003,2.582761e+002
1.513754e+003,2.849921e+002
1.514718e+003,3.125203e+002
1.515682e+003,3.406161e+002
1.516646e+003,3.683975e+002
1.517611e+003,3.958815e+002
1.518575e+003,4.229447e+002
1.519539e+003,4.508330e+002
1.520503e+003,4.783641e+002
1.521468e+003,4.963803e+002
1.522432e+003,5.015106e+002
1.523396e+003,5.003092e+002
1.524360e+003,4.946440e+002
1.525325e+003,4.862107e+002
1.526289e+003,4.794628e+002
1.527253e+003,4.733161e+002
1.528217e+003,4.585112e+002
1.529182e+003,4.324534e+002
1.530146e+003,4.042871e+002
1.531110e+003,3.785961e+002
1.532074e+003,3.514405e+002
1.533039e+003,3.186736e+002
1.534003e+003,2.814608e+002
1.534967e+003,2.420979e+002
1.535931e+003,2.025164e+002
1.536896e+003,1.681115e+002
1.537860e+003,1.424955e+002
1.538824e+003,1.229505e+002
1.539788e+003,1.046975e+002
1.540752e+003,8.718799e+001
1.541717e+003,7.290039e+001
1.542681e+003,6.293481e+001
1.543645e+003,5.565204e+001
1.544609e+003,5.257660e+001
1.545573e+003,5.042517e+001
1.546538e+003,4.589124e+001
1.547502e+003,4.157922e+001
1.548466e+003,4.201733e+001
1.549430e+003,4.692450e+001
1.550395e+003,5.248248e+001
1.551359e+003,5.636218e+001
1.552323e+003,5.799463e+001
1.553287e+003,5.653516e+001
1.554252e+003,5.230664e+001
1.555216e+003,4.864496e+001
1.556180e+003,4.605768e+001
1.557144e+003,4.338599e+001
1.558109e+003,4.069299e+001
1.559073e+003,3.782239e+001
1.560037e+003,3.349756e+001
1.561001e+003,2.901654e+001
1.561966e+003,2.549005e+001
1.562930e+003,2.400598e+001
1.563894e+003,2.588208e+001
1.564858e+003,3.062915e+001
1.565823e+003,3.534937e+001
1.566787e+003,3.765680e+001
1.567751e+003,3.791571e+001
1.568715e+003,3.670844e+001
1.569679e+003,3.355054e+001
1.570644e+003,3.271106e+001
1.571608e+003,3.531726e+001
1.572572e+003,3.768481e+001
1.573536e+003,4.032635e+001
1.574500e+003,4.260498e+001
1.575465e+003,4.381812e+001
1.576429e+003,4.413855e+001
1.577393e+003,4.371924e+001
1.578357e+003,4.255762e+001
1.579322e+003,4.026935e+001
1.580286e+003,3.701147e+001
1.581250e+003,3.585974e+001
1.582214e+003,4.134302e+001
1.583179e+003,5.217053e+001
1.584143e+003,5.818005e+001
1.585107e+003,5.704608e+001
1.586071e+003,5.524451e+001
1.587036e+003,5.226099e+001
1.588000e+003,5.128735e+001
1.588964e+003,5.446802e+001
1.589928e+003,5.856580e+001
1.590893e+003,6.001910e+001
1.591857e+003,5.955096e+001
1.592821e+003,6.029663e+001
1.593785e+003,6.330237e+001
1.594750e+003,6.661462e+001
1.595714e+003,6.844458e+001
1.596678e+003,6.852679e+001
1.597642e+003,6.632526e+001
1.598606e+003,6.180798e+001
1.599571e+003,6.170508e+001
1.600535e+003,6.828735e+001
1.601499e+003,7.502832e+001
1.602463e+003,8.183929e+001
1.603427e+003,8.650470e+001
1.604392e+003,8.661719e+001
1.605356e+003,8.404602e+001
1.606320e+003,8.125537e+001
1.607284e+003,7.908337e+001
1.608249e+003,7.896320e+001
1.609213e+003,8.174872e+001
1.610177e+003,8.443176e+001
1.611141e+003,8.328040e+001
1.612106e+003,7.990283e+001
1.613070e+003,8.042078e+001
1.614034e+003,8.495343e+001
1.614998e+003,8.624152e+001
1.615963e+003,8.144934e+001
1.616927e+003,7.721484e+001
1.617891e+003,7.553394e+001
1.618855e+003,7.577332e+001
1.619820e+003,7.870099e+001
1.620784e+003,8.221991e+001
1.621748e+003,8.116980e+001
1.622712e+003,7.574927e+001
1.623677e+003,7.401489e+001
1.624641e+003,8.100977e+001
1.625605e+003,9.005151e+001
1.626569e+003,9.125946e+001
1.627533e+003,8.606982e+001
1.628498e+003,8.563562e+001
1.629462e+003,9.141418e+001
1.630426e+003,9.521191e+001
1.631390e+003,9.441699e+001
1.632354e+003,9.251532e+001
1.633319e+003,9.074365e+001
1.634283e+003,8.904993e+001
1.635247e+003,8.724939e+001
1.636211e+003,8.547571e+001
1.637176e+003,8.428271e+001
1.638140e+003,8.401996e+001
1.639104e+003,8.531055e+001
1.640068e+003,8.888354e+001
1.641033e+003,9.274561e+001
1.641997e+003,9.374268e+001
1.642961e+003,9.267700e+001
1.643925e+003,9.371527e+001
1.644890e+003,9.782617e+001
1.645854e+003,9.938098e+001
1.646818e+003,9.377063e+001
1.647782e+003,8.800684e+001
1.648747e+003,8.715149e+001
1.649711e+003,8.872394e+001
1.650675e+003,8.973169e+001
1.651639e+003,9.004590e+001
1.652604e+003,8.941675e+001
1.653568e+003,8.744299e+001
1.654532e+003,8.524341e+001
1.655496e+003,8.361420e+001
1.656460e+003,8.285425e+001
1.657425e+003,8.430957e+001
1.658389e+003,8.776477e+001
1.659353e+003,8.875989e+001
1.660317e+003,8.633875e+001
1.661281e+003,8.393854e+001
1.662246e+003,8.255402e+001
1.663210e+003,8.113647e+001
1.664174e+003,7.942090e+001
1.665138e+003,7.744617e+001
1.666103e+003,7.437500e+001
1.667067e+003,7.054254e+001
1.668031e+003,6.834955e+001
1.668995e+003,6.872839e+001
1.669960e+003,6.905225e+001
1.670924e+003,6.710828e+001
1.671888e+003,6.444727e+001
1.672852e+003,6.365997e+001
1.673817e+003,6.425104e+001
1.674781e+003,6.326221e+001
1.675745e+003,5.970898e+001
1.676709e+003,5.821777e+001
1.677674e+003,6.216858e+001
1.678638e+003,6.531122e+001
1.679602e+003,6.387677e+001
1.680566e+003,5.978650e+001
1.681531e+003,5.424451e+001
1.682495e+003,4.890503e+001
1.683459e+003,4.752051e+001
1.684423e+003,5.071027e+001
1.685387e+003,5.407050e+001
1.686352e+003,5.456372e+001
1.687316e+003,5.372961e+001
1.688280e+003,5.380151e+001
1.689244e+003,5.449683e+001
1.690208e+003,5.392316e+001
1.691173e+003,5.145148e+001
1.692137e+003,4.920459e+001
1.693101e+003,4.746802e+001
1.694065e+003,4.709558e+001
1.695030e+003,4.910608e+001
1.695994e+003,5.078271e+001
1.696958e+003,4.891107e+001
1.697922e+003,4.517993e+001
1.698887e+003,4.425793e+001
1.699851e+003,4.672559e+001
1.700815e+003,4.757251e+001
1.701779e+003,4.330176e+001
1.702744e+003,3.749286e+001
1.703708e+003,3.608545e+001
1.704672e+003,3.878870e+001
1.705636e+003,3.891516e+001
1.706601e+003,3.310608e+001
1.707565e+003,3.009125e+001
1.708529e+003,3.263409e+001
1.709493e+003,3.481653e+001
1.710458e+003,3.508459e+001
1.711422e+003,3.422021e+001
1.712386e+003,3.260022e+001
1.713350e+003,3.103540e+001
1.714314e+003,3.003748e+001
1.715279e+003,2.928070e+001
1.716243e+003,2.832074e+001
1.717207e+003,2.729218e+001
1.718171e+003,2.654785e+001
1.719135e+003,2.613824e+001
1.720100e+003,2.574194e+001
1.721064e+003,2.434961e+001
1.722028e+003,2.113696e+001
1.722992e+003,1.957861e+001
1.723957e+003,2.184387e+001
1.724921e+003,2.375378e+001
1.725885e+003,2.349341e+001
1.726849e+003,2.216766e+001
1.727814e+003,2.068695e+001
1.728778e+003,2.003870e+001
1.729742e+003,2.114966e+001
1.730706e+003,2.297430e+001
1.731671e+003,2.301886e+001
1.732635e+003,2.017163e+001
1.733599e+003,1.629901e+001
1.734563e+003,1.388458e+001
1.735528e+003,1.318237e+001
1.736492e+003,1.320361e+001
1.737456e+003,1.367920e+001
1.738420e+003,1.312317e+001
1.739385e+003,1.026355e+001
1.740349e+003,8.438965e+000
1.741313e+003,9.405823e+000
1.742277e+003,1.106024e+001
1.743241e+003,1.332574e+001
1.744206e+003,1.536566e+001
1.745170e+003,1.580170e+001
1.746134e+003,1.504480e+001
1.747098e+003,1.438788e+001
1.748063e+003,1.407184e+001
1.749027e+003,1.359436e+001
1.749991e+003,1.266382e+001
1.750955e+003,1.232544e+001
1.751919e+003,1.436517e+001
1.752884e+003,1.721509e+001
1.753848e+003,1.657410e+001
1.754812e+003,1.264331e+001
1.755776e+003,1.028253e+001
1.756741e+003,1.102100e+001
1.757705e+003,1.295398e+001
1.758669e+003,1.529089e+001
1.759633e+003,1.686365e+001
1.760598e+003,1.616693e+001
1.761562e+003,1.386749e+001
1.762526e+003,1.176825e+001
1.763490e+003,1.039886e+001
1.764455e+003,1.028955e+001
1.765419e+003,1.210828e+001
1.766383e+003,1.431488e+001
1.767347e+003,1.571265e+001
1.768312e+003,1.646283e+001
1.769276e+003,1.626788e+001
1.770240e+003,1.551996e+001
1.771204e+003,1.637219e+001
1.772168e+003,1.882452e+001
1.773133e+003,1.926685e+001
1.774097e+003,1.621838e+001
1.775061e+003,1.242645e+001
1.776025e+003,9.706482e+000
1.776990e+003,8.536560e+000
1.777954e+003,1.120483e+001
1.778918e+003,1.808691e+001
1.779882e+003,2.167767e+001
1.780846e+003,1.922150e+001
1.781811e+003,1.654327e+001
1.782775e+003,1.352777e+001
1.783739e+003,1.169745e+001
1.784703e+003,1.231482e+001
1.785668e+003,1.347516e+001
1.786632e+003,1.333655e+001
1.787596e+003,1.224701e+001
1.788560e+003,1.123022e+001
1.789525e+003,1.103375e+001
1.790489e+003,1.236884e+001
1.791453e+003,1.522205e+001
1.792417e+003,1.789606e+001
1.793382e+003,1.839886e+001
1.794346e+003,1.729547e+001
1.795310e+003,1.726569e+001
1.796274e+003,1.879486e+001
1.797239e+003,1.748999e+001
1.798203e+003,1.188721e+001
1.799167e+003,9.908203e+000
1.800131e+003,1.482062e+001
1.801095e+003,1.837378e+001
1.802060e+003,1.653174e+001
1.803024e+003,1.426361e+001
1.803988e+003,1.544391e+001
1.804952e+003,1.832019e+001
1.805917e+003,2.019012e+001
1.806881e+003,2.046033e+001
1.807845e+003,1.867322e+001
1.808809e+003,1.423199e+001
1.809773e+003,1.127643e+001
1.810738e+003,1.523895e+001
1.811702e+003,2.170026e+001
1.812666e+003,2.232587e+001
1.813630e+003,1.879559e+001
1.814595e+003,1.809937e+001
1.815559e+003,2.084131e+001
1.816523e+003,2.325549e+001
1.817487e+003,2.432831e+001
1.818452e+003,2.385284e+001
1.819416e+003,2.111652e+001
1.820380e+003,1.793561e+001
1.821344e+003,1.729791e+001
1.822309e+003,1.849133e+001
1.823273e+003,1.814478e+001
1.824237e+003,1.628259e+001
1.825201e+003,1.512482e+001
1.826166e+003,1.430072e+001
1.827130e+003,1.447736e+001
1.828094e+003,1.692041e+001
1.829058e+003,1.893890e+001
1.830022e+003,1.780328e+001
1.830987e+003,1.561090e+001
1.831951e+003,1.613947e+001
1.832915e+003,1.888049e+001
1.833879e+003,1.993597e+001
1.834844e+003,1.802277e+001
1.835808e+003,1.622791e+001
1.836772e+003,1.721899e+001
1.837736e+003,1.959100e+001
1.838700e+003,2.043494e+001
1.839665e+003,1.962115e+001
1.840629e+003,1.913928e+001
1.841593e+003,1.929016e+001
1.842557e+003,1.932379e+001
1.843522e+003,1.932910e+001
1.844486e+003,1.904272e+001
1.845450e+003,1.745990e+001
1.846414e+003,1.732080e+001
1.847379e+003,2.100006e+001
1.848343e+003,2.522314e+001
1.849307e+003,2.675116e+001
1.850271e+003,2.611688e+001
1.851236e+003,2.414673e+001
1.852200e+003,2.085651e+001
1.853164e+003,1.928015e+001
1.854128e+003,2.197900e+001
1.855093e+003,2.467023e+001
1.856057e+003,2.281958e+001
1.857021e+003,1.949066e+001
1.857985e+003,2.006708e+001
1.858949e+003,2.359668e+001
1.859914e+003,2.540149e+001
1.860878e+003,2.471777e+001
1.861842e+003,2.446881e+001
1.862806e+003,2.600757e+001
1.863771e+003,2.726532e+001
1.864735e+003,2.591058e+001
1.865699e+003,2.298871e+001
1.866663e+003,2.189655e+001
1.867627e+003,2.339185e+001
1.868592e+003,2.570581e+001
1.869556e+003,2.913727e+001
1.870520e+003,3.016278e+001
1.871484e+003,2.747504e+001
1.872449e+003,2.477814e+001
1.873413e+003,2.491888e+001
1.874377e+003,2.621710e+001
1.875341e+003,2.533765e+001
1.876306e+003,2.368329e+001
1.877270e+003,2.453479e+001
1.878234e+003,2.747803e+001
1.879198e+003,2.965106e+001
1.880163e+003,3.014087e+001
1.881127e+003,3.032416e+001
1.882091e+003,3.144403e+001
1.883055e+003,3.266394e+001
1.884020e+003,3.237964e+001
1.884984e+003,3.094745e+001
1.885948e+003,2.956360e+001
1.886912e+003,2.829492e+001
1.887876e+003,2.775055e+001
1.888841e+003,2.813049e+001
1.889805e+003,2.902588e+001
1.890769e+003,3.043976e+001
1.891733e+003,3.145160e+001
1.892698e+003,3.048560e+001
1.893662e+003,2.866547e+001
1.894626e+003,2.973773e+001
1.895590e+003,3.398730e+001
1.896554e+003,3.615228e+001
1.897519e+003,3.556281e+001
1.898483e+003,3.565686e+001
1.899447e+003,3.642023e+001
1.900411e+003,3.693933e+001
1.901376e+003,3.732159e+001
1.902340e+003,3.741254e+001
1.903304e+003,3.694232e+001
1.904268e+003,3.598956e+001
1.905233e+003,3.443365e+001
1.906197e+003,3.300079e+001
1.907161e+003,3.306744e+001
1.908125e+003,3.498785e+001
1.909090e+003,3.793268e+001
1.910054e+003,4.112103e+001
1.911018e+003,4.322192e+001
1.911982e+003,4.261279e+001
1.912947e+003,4.056854e+001
1.913911e+003,3.988348e+001
1.914875e+003,4.045001e+001
1.915839e+003,4.175909e+001
1.916803e+003,4.346191e+001
1.917768e+003,4.430298e+001
1.918732e+003,4.439038e+001
1.919696e+003,4.292340e+001
1.920660e+003,3.813293e+001
1.921625e+003,3.386456e+001
1.922589e+003,3.598511e+001
1.923553e+003,4.252264e+001
1.924517e+003,4.578809e+001
1.925481e+003,4.565698e+001
1.926446e+003,4.576062e+001
1.927410e+003,4.541467e+001
1.928374e+003,4.637836e+001
1.929338e+003,5.048047e+001
1.930303e+003,5.354980e+001
1.931267e+003,5.329059e+001
1.932231e+003,5.237860e+001
1.933195e+003,5.319794e+001
1.934160e+003,5.443958e+001
1.935124e+003,5.297888e+001
1.936088e+003,4.912488e+001
1.937052e+003,4.731476e+001
1.938017e+003,4.992566e+001
1.938981e+003,5.306860e+001
1.939945e+003,5.263300e+001
1.940909e+003,5.009601e+001
1.941874e+003,4.715594e+001
1.942838e+003,4.446332e+001
1.943802e+003,4.607495e+001
1.944766e+003,5.169507e+001
1.945730e+003,5.311621e+001
1.946695e+003,4.840961e+001
1.947659e+003,4.461182e+001
1.948623e+003,4.484607e+001
1.949587e+003,4.662708e+001
1.950552e+003,4.823248e+001
1.951516e+003,4.998352e+001
1.952480e+003,5.190869e+001
1.953444e+003,5.373608e+001
1.954408e+003,5.444812e+001
1.955373e+003,5.297870e+001
1.956337e+003,5.187518e+001
1.957301e+003,5.174347e+001
1.958265e+003,5.286444e+001
1.959230e+003,5.696832e+001
1.960194e+003,6.045453e+001
1.961158e+003,6.031628e+001
1.962122e+003,5.837396e+001
1.963087e+003,5.619305e+001
1.964051e+003,5.468628e+001
1.965015e+003,5.538959e+001
1.965979e+003,5.819464e+001
1.966944e+003,6.001398e+001
1.967908e+003,5.900800e+001
1.968872e+003,5.779504e+001
1.969836e+003,5.906927e+001
1.970801e+003,6.058331e+001
1.971765e+003,5.956335e+001
1.972729e+003,5.773975e+001
1.973693e+003,5.814624e+001
1.974657e+003,5.999487e+001
1.975622e+003,6.018103e+001
1.976586e+003,5.839825e+001
1.977550e+003,5.717987e+001
1.978514e+003,5.778748e+001
1.979479e+003,5.981525e+001
1.980443e+003,6.297583e+001
1.981407e+003,6.546716e+001
1.982371e+003,6.354163e+001
1.983335e+003,5.837939e+001
1.984300e+003,5.775653e+001
1.985264e+003,6.212634e+001
1.986228e+003,6.460089e+001
1.987192e+003,6.403278e+001
1.988157e+003,6.465900e+001
1.989121e+003,6.944415e+001
1.990085e+003,7.206152e+001
1.991049e+003,6.714941e+001
1.992014e+003,6.088605e+001
1.992978e+003,5.988580e+001
1.993942e+003,6.220483e+001
1.994906e+003,6.404169e+001
1.995871e+003,6.540387e+001
1.996835e+003,6.664429e+001
1.997799e+003,6.820026e+001
1.998763e+003,6.974927e+001
1.999728e+003,7.026770e+001
