5.003444e+002,3.283844e+001
5.013087e+002,3.273618e+001
5.022729e+002,3.335539e+001
5.032371e+002,3.413483e+001
5.042014e+002,3.229803e+001
5.051656e+002,2.837743e+001
5.061298e+002,2.507797e+001
5.070941e+002,2.496619e+001
5.080583e+002,2.884380e+001
5.090225e+002,3.091338e+001
5.099868e+002,3.089728e+001
5.109510e+002,3.005211e+001
5.119152e+002,2.855782e+001
5.128795e+002,2.636063e+001
5.138437e+002,2.515492e+001
5.148079e+002,2.662123e+001
5.157722e+002,2.824719e+001
5.167364e+002,2.912659e+001
5.177006e+002,2.900157e+001
5.186649e+002,2.809644e+001
5.196291e+002,2.615085e+001
5.205933e+002,2.423747e+001
5.215576e+002,2.337024e+001
5.225218e+002,2.352737e+001
5.234860e+002,2.434111e+001
5.244503e+002,2.537488e+001
5.254145e+002,2.702255e+001
5.263787e+002,2.743217e+001
5.273430e+002,2.566675e+001
5.283072e+002,2.330011e+001
5.292714e+002,2.255070e+001
5.302357e+002,2.423170e+001
5.311999e+002,2.538742e+001
5.321641e+002,2.622633e+001
5.331284e+002,2.648839e+001
5.340926e+002,2.571896e+001
5.350568e+002,2.361497e+001
5.360211e+002,2.104848e+001
5.369853e+002,1.798077e+001
5.379495e+002,1.562567e+001
5.389138e+002,1.557112e+001
5.398780e+002,1.813058e+001
5.408422e+002,2.192941e+001
5.418065e+002,2.330812e+001
5.427707e+002,2.253433e+001
5.437349e+002,2.078891e+001
5.446992e+002,1.794591e+001
5.456634e+002,1.452446e+001
5.466276e+002,1.239789e+001
5.475919e+002,1.263802e+001
5.485561e+002,1.323795e+001
5.495203e+002,1.475743e+001
5.504846e+002,1.625975e+001
5.514488e+002,1.638503e+001
5.524130e+002,1.425494e+001
5.533773e+002,1.175604e+001
5.543415e+002,9.229111e+000
5.553057e+002,7.242462e+000
5.562700e+002,6.640335e+000
5.572342e+002,7.897903e+000
5.581984e+002,9.909927e+000
5.591627e+002,1.011285e+001
5.601269e+002,9.164108e+000
5.610911e+002,7.870468e+000
5.620554e+002,6.520187e+000
5.630196e+002,5.201324e+000
5.639838e+002,5.312164e+000
5.649481e+002,8.662964e+000
5.659123e+002,1.083290e+001
5.668765e+002,1.065201e+001
5.678408e+002,8.945038e+000
5.688050e+002,7.803009e+000
5.697692e+002,7.665817e+000
5.707335e+002,7.844406e+000
5.716977e+002,8.335602e+000
5.726619e+002,9.022354e+000
5.736262e+002,9.939758e+000
5.745904e+002,1.125543e+001
5.755546e+002,1.228397e+001
5.765189e+002,1.149355e+001
5.774831e+002,9.607635e+000
5.784473e+002,8.098846e+000
5.794116e+002,8.029236e+000
5.803758e+002,9.327484e+000
5.813400e+002,9.879410e+000
5.823043e+002,9.477142e+000
5.832685e+002,8.636520e+000
5.842327e+002,7.304230e+000
5.851970e+002,5.728226e+000
5.861612e+002,4.945084e+000
5.871254e+002,6.245285e+000
5.880897e+002,6.855698e+000
5.890539e+002,5.427841e+000
5.900181e+002,3.032654e+000
5.909824e+002,1.584335e+000
5.919466e+002,2.572052e+000
5.929108e+002,4.426041e+000
5.938751e+002,5.646255e+000
5.948393e+002,6.291733e+000
5.958035e+002,6.387482e+000
5.967678e+002,5.984711e+000
5.977320e+002,5.210922e+000
5.986962e+002,4.550751e+000
5.996605e+002,3.840256e+000
6.006247e+002,3.105759e+000
6.015889e+002,2.320999e+000
6.025532e+002,1.519547e+000
6.035174e+002,9.148102e-001
6.044816e+002,3.312225e-001
6.054459e+002,2.608643e-001
6.064101e+002,1.337341e+000
6.073743e+002,2.878281e+000
6.083386e+002,3.577835e+000
6.093028e+002,2.302292e+000
6.102670e+002,1.088409e+000
6.112313e+002,1.136520e+000
6.121955e+002,2.240707e+000
6.131597e+002,4.699631e+000
6.141240e+002,8.619308e+000
6.150882e+002,1.291217e+001
6.160524e+002,1.189822e+001
6.170167e+002,6.628616e+000
6.179809e+002,2.188980e+000
6.189451e+002,1.027969e+000
6.199094e+002,2.600525e+000
6.208736e+002,3.202576e+000
6.218378e+002,1.123398e+000
6.228021e+002,3.687286e-001
6.237663e+002,2.441055e+000
6.247305e+002,5.804489e+000
6.256948e+002,7.863068e+000
6.266590e+002,7.150223e+000
6.276232e+002,5.664948e+000
6.285875e+002,4.784973e+000
6.295517e+002,4.188187e+000
6.305159e+002,3.283691e+000
6.314802e+002,1.772110e+000
6.324444e+002,2.031097e-001
6.334086e+002,9.881134e-001
6.343729e+002,3.372650e+000
6.353371e+002,4.974335e+000
6.363013e+002,4.867279e+000
6.372656e+002,3.398315e+000
6.382298e+002,1.905792e+000
6.391940e+002,8.932495e-002
6.401583e+002,-1.404144e+000
6.411225e+002,-2.329758e+000
6.420867e+002,-2.778671e+000
6.430510e+002,-2.893555e+000
6.440152e+002,-2.713089e+000
6.449794e+002,-2.661560e+000
6.459437e+002,-2.890564e+000
6.469079e+002,-3.329437e+000
6.478721e+002,-4.021973e+000
6.488364e+002,-4.886948e+000
6.498006e+002,-5.622910e+000
6.507648e+002,-5.742249e+000
6.517291e+002,-5.395309e+000
6.526933e+002,-4.808472e+000
6.536575e+002,-4.027267e+000
6.546218e+002,-2.981918e+000
6.555860e+002,-1.395737e+000
6.565502e+002,1.930878e+000
6.575145e+002,2.768448e+000
6.584787e+002,-4.863586e-001
6.594429e+002,-4.566177e+000
6.604072e+002,-7.047531e+000
6.613714e+002,-7.539230e+000
6.623356e+002,-7.195267e+000
6.632999e+002,-5.748825e+000
6.642641e+002,-4.497986e+000
6.652283e+002,-4.283325e+000
6.661926e+002,-4.913620e+000
6.671568e+002,-5.449356e+000
6.681210e+002,-4.823578e+000
6.690853e+002,-3.366730e+000
6.700495e+002,-1.764542e+000
6.710137e+002,-8.235168e-002
6.719780e+002,1.143204e+000
6.729422e+002,1.274933e+000
6.739064e+002,7.644653e-003
6.748707e+002,-8.887939e-001
6.758349e+002,-1.526550e+000
6.767991e+002,-1.859543e+000
6.777634e+002,-1.595871e+000
6.787276e+002,-7.441406e-001
6.796918e+002,1.021423e-001
6.806561e+002,9.971313e-001
6.816203e+002,1.196747e+000
6.825845e+002,-4.738159e-001
6.835488e+002,-2.839600e+000
6.845130e+002,-3.781540e+000
6.854772e+002,-1.512848e+000
6.864415e+002,2.126526e+000
6.874057e+002,2.469421e+000
6.883699e+002,4.223175e-001
6.893342e+002,-1.470428e+000
6.902984e+002,-1.728439e+000
6.912626e+002,-6.219788e-001
6.922269e+002,-3.342438e-001
6.931911e+002,-1.105377e+000
6.941553e+002,-2.032486e+000
6.951196e+002,-3.808060e+000
6.960838e+002,-5.700699e+000
6.970480e+002,-6.373932e+000
6.980123e+002,-5.147751e+000
6.989765e+002,-3.438446e+000
6.999407e+002,-1.087677e+000
7.009050e+002,8.284149e-001
7.018692e+002,1.071976e+000
7.028334e+002,-5.895996e-001
7.037977e+002,-2.843674e+000
7.047619e+002,-3.574554e+000
7.057261e+002,-3.163635e+000
7.066904e+002,-2.376465e+000
7.076546e+002,-1.342392e+000
7.086188e+002,-4.788208e-001
7.095831e+002,-5.288544e-001
7.105473e+002,-2.122986e+000
7.115115e+002,-2.822586e+000
7.124758e+002,-2.282272e+000
7.134400e+002,-1.488571e+000
7.144042e+002,-7.597351e-001
7.153685e+002,-1.035309e-001
7.163327e+002,7.281494e-002
7.172969e+002,-1.346100e+000
7.182612e+002,-2.393860e+000
7.192254e+002,-1.761917e+000
7.201896e+002,-1.989441e-001
7.211539e+002,6.198883e-001
7.221181e+002,-8.044739e-001
7.230823e+002,-3.383499e+000
7.240466e+002,-4.059662e+000
7.250108e+002,-3.131393e+000
7.259750e+002,-1.941422e+000
7.269393e+002,-1.340332e+000
7.279035e+002,-1.416779e+000
7.288677e+002,-1.753693e+000
7.298320e+002,-2.209793e+000
7.307962e+002,-2.579147e+000
7.317604e+002,-3.303268e+000
7.327247e+002,-3.721115e+000
7.336889e+002,-2.617523e+000
7.346531e+002,8.472137e-001
7.356174e+002,3.091507e+000
7.365816e+002,1.491348e+000
7.375458e+002,-9.549713e-001
7.385101e+002,-1.978989e+000
7.394743e+002,-1.044601e+000
7.404385e+002,6.651306e-001
7.414028e+002,1.442612e+000
7.423670e+002,1.086105e+000
7.433312e+002,2.615204e-001
7.442955e+002,-8.296814e-001
7.452597e+002,-1.907074e+000
7.462239e+002,-2.907120e+000
7.471882e+002,-4.118591e+000
7.481524e+002,-4.116241e+000
7.491166e+002,-2.171616e+000
7.500809e+002,-4.578247e-001
7.510451e+002,2.521210e-001
7.520093e+002,5.821228e-002
7.529736e+002,-4.983978e-001
7.539378e+002,-1.398773e+000
7.549020e+002,-1.873810e+000
7.558663e+002,-1.290848e+000
7.568306e+002,-1.536713e-001
7.577948e+002,9.252625e-001
7.587590e+002,1.504318e+000
7.597233e+002,1.493912e+000
7.606875e+002,6.636505e-001
7.616517e+002,-7.745667e-001
7.626160e+002,-2.055084e+000
7.635802e+002,-3.100998e+000
7.645444e+002,-3.705994e+000
7.655087e+002,-3.320618e+000
7.664729e+002,-1.180176e+000
7.674371e+002,1.655579e-001
7.684014e+002,-2.856750e-001
7.693656e+002,-7.041016e-001
7.703298e+002,6.977692e-001
7.712941e+002,3.842102e+000
7.722583e+002,5.901886e+000
7.732225e+002,3.302704e+000
7.741868e+002,1.932220e-001
7.751510e+002,3.538361e-001
7.761152e+002,2.885132e+000
7.770795e+002,4.892609e+000
7.780437e+002,3.781860e+000
7.790079e+002,1.234283e-001
7.799722e+002,-3.049164e-001
7.809364e+002,2.760590e+000
7.819006e+002,5.126266e+000
7.828649e+002,4.863190e+000
7.838291e+002,2.824005e+000
7.847933e+002,1.707565e+000
7.857576e+002,2.261780e+000
7.867218e+002,2.186279e+000
7.876860e+002,6.838837e-001
7.886503e+002,-9.831696e-001
7.896145e+002,-1.847595e+000
7.905787e+002,-1.638992e+000
7.915430e+002,-7.537537e-001
7.925072e+002,8.232574e-001
7.934714e+002,2.354294e+000
7.944357e+002,3.192245e+000
7.953999e+002,3.383072e+000
7.963641e+002,3.236023e+000
7.973284e+002,3.042374e+000
7.982926e+002,2.822083e+000
7.992568e+002,2.088318e+000
8.002211e+002,-2.291107e-001
8.011853e+002,-1.800293e+000
8.021495e+002,-1.090759e+000
8.031138e+002,1.470963e+000
8.040780e+002,3.807205e+000
8.050422e+002,5.644058e+000
8.060065e+002,6.533661e+000
8.069707e+002,5.727631e+000
8.079349e+002,4.277191e+000
8.088992e+002,3.332123e+000
8.098634e+002,3.311554e+000
8.108276e+002,3.498627e+000
8.117919e+002,2.507233e+000
8.127561e+002,7.794647e-001
8.137203e+002,-2.971497e-001
8.146846e+002,-4.282074e-001
8.156488e+002,-5.584717e-002
8.166130e+002,1.850281e-001
8.175773e+002,1.845551e-001
8.185415e+002,5.085144e-001
8.195057e+002,1.558792e+000
8.204700e+002,2.145554e+000
8.214342e+002,1.255981e+000
8.223984e+002,-3.897400e-001
8.233627e+002,-7.388000e-001
8.243269e+002,1.661835e+000
8.252911e+002,4.058395e+000
8.262554e+002,4.626389e+000
8.272196e+002,4.465851e+000
8.281838e+002,4.895157e+000
8.291481e+002,6.258194e+000
8.301123e+002,7.522263e+000
8.310765e+002,6.620483e+000
8.320408e+002,3.757339e+000
8.330050e+002,2.349533e+000
8.339692e+002,2.934937e+000
8.349335e+002,3.979095e+000
8.358977e+002,3.735855e+000
8.368619e+002,1.934372e+000
8.378262e+002,1.461136e+000
8.387904e+002,4.041138e+000
8.397546e+002,5.832794e+000
8.407189e+002,5.419876e+000
8.416831e+002,3.713135e+000
8.426473e+002,2.224045e+000
8.436116e+002,1.504684e+000
8.445758e+002,1.766388e+000
8.455400e+002,3.560852e+000
8.465043e+002,5.900391e+000
8.474685e+002,8.198074e+000
8.484327e+002,1.021439e+001
8.493970e+002,1.151469e+001
8.503612e+002,1.110822e+001
8.513254e+002,8.485764e+000
8.522897e+002,7.498215e+000
8.532539e+002,9.227127e+000
8.542181e+002,1.080101e+001
8.551824e+002,1.019987e+001
8.561466e+002,7.914337e+000
8.571108e+002,7.069809e+000
8.580751e+002,9.627640e+000
8.590393e+002,1.123828e+001
8.600035e+002,9.654465e+000
8.609678e+002,7.115448e+000
8.619320e+002,6.295929e+000
8.628962e+002,8.187073e+000
8.638605e+002,1.106497e+001
8.648247e+002,1.254094e+001
8.657889e+002,1.295877e+001
8.667532e+002,1.301387e+001
8.677174e+002,1.279265e+001
8.686816e+002,1.234050e+001
8.696459e+002,1.160336e+001
8.706101e+002,1.046532e+001
8.715743e+002,1.056950e+001
8.725386e+002,1.317163e+001
8.735028e+002,1.532646e+001
8.744670e+002,1.564626e+001
8.754313e+002,1.498697e+001
8.763955e+002,1.533615e+001
8.773597e+002,1.779793e+001
8.783240e+002,1.995027e+001
8.792882e+002,1.914288e+001
8.802524e+002,1.772511e+001
8.812167e+002,1.811839e+001
8.821809e+002,2.051733e+001
8.831451e+002,2.314133e+001
8.841094e+002,2.366876e+001
8.850736e+002,2.226071e+001
8.860378e+002,2.159398e+001
8.870021e+002,2.172066e+001
8.879663e+002,2.196448e+001
8.889305e+002,2.196907e+001
8.898948e+002,2.171486e+001
8.908590e+002,2.127612e+001
8.918232e+002,2.037292e+001
8.927875e+002,2.004105e+001
8.937517e+002,2.110211e+001
8.947159e+002,2.232278e+001
8.956802e+002,2.211330e+001
8.966444e+002,2.037277e+001
8.976086e+002,1.922435e+001
8.985729e+002,2.172914e+001
8.995371e+002,2.558737e+001
9.005013e+002,2.630876e+001
9.014656e+002,2.442976e+001
9.024298e+002,2.284001e+001
9.033940e+002,2.368568e+001
9.043583e+002,2.651012e+001
9.053225e+002,2.848143e+001
9.062867e+002,2.951874e+001
9.072510e+002,2.938637e+001
9.082152e+002,2.727295e+001
9.091794e+002,2.481839e+001
9.101437e+002,2.359053e+001
9.111079e+002,2.382884e+001
9.120721e+002,2.449629e+001
9.130364e+002,2.516226e+001
9.140006e+002,2.572334e+001
9.149648e+002,2.606006e+001
9.159291e+002,2.643704e+001
9.168933e+002,2.734860e+001
9.178575e+002,2.905888e+001
9.188218e+002,3.111261e+001
9.197860e+002,3.223302e+001
9.207502e+002,3.242514e+001
9.217145e+002,3.120662e+001
9.226787e+002,2.789616e+001
9.236429e+002,2.399263e+001
9.246072e+002,2.124811e+001
9.255714e+002,1.955554e+001
9.265356e+002,1.904140e+001
9.274999e+002,2.119398e+001
9.284641e+002,2.280551e+001
9.294283e+002,2.214154e+001
9.303926e+002,2.038622e+001
9.313568e+002,2.005901e+001
9.323210e+002,2.257018e+001
9.332853e+002,2.548059e+001
9.342495e+002,2.393919e+001
9.352137e+002,2.028123e+001
9.361780e+002,1.814226e+001
9.371422e+002,1.840477e+001
9.381064e+002,1.974695e+001
9.390707e+002,2.029724e+001
9.400349e+002,1.978207e+001
9.409991e+002,1.937880e+001
9.419634e+002,1.834715e+001
9.429276e+002,1.825848e+001
9.438918e+002,2.072618e+001
9.448561e+002,2.406664e+001
9.458203e+002,2.522760e+001
9.467845e+002,2.304393e+001
9.477488e+002,2.056609e+001
9.487130e+002,1.970572e+001
9.496772e+002,1.971588e+001
9.506415e+002,2.059135e+001
9.516057e+002,2.192102e+001
9.525699e+002,2.268347e+001
9.535342e+002,2.184135e+001
9.544984e+002,1.960553e+001
9.554626e+002,1.829979e+001
9.564269e+002,1.822067e+001
9.573911e+002,1.827040e+001
9.583553e+002,1.815109e+001
9.593196e+002,1.792305e+001
9.602838e+002,1.776302e+001
9.612480e+002,1.773260e+001
9.622123e+002,1.731697e+001
9.631765e+002,1.557518e+001
9.641407e+002,1.429349e+001
9.651050e+002,1.463121e+001
9.660692e+002,1.598775e+001
9.670334e+002,1.715671e+001
9.679977e+002,1.747092e+001
9.689619e+002,1.724840e+001
9.699261e+002,1.644160e+001
9.708904e+002,1.529005e+001
9.718546e+002,1.500179e+001
9.728188e+002,1.588602e+001
9.737831e+002,1.726717e+001
9.747473e+002,1.814529e+001
9.757115e+002,1.825931e+001
9.766758e+002,1.958888e+001
9.776400e+002,2.402487e+001
9.786042e+002,2.758922e+001
9.795685e+002,2.926335e+001
9.805327e+002,2.935880e+001
9.814969e+002,2.829089e+001
9.824612e+002,2.627110e+001
9.834254e+002,2.398558e+001
9.843896e+002,2.166121e+001
9.853539e+002,1.945113e+001
9.863181e+002,1.762320e+001
9.872823e+002,1.608241e+001
9.882466e+002,1.453419e+001
9.892108e+002,1.282909e+001
9.901750e+002,1.130956e+001
9.911393e+002,1.128827e+001
9.921035e+002,1.403897e+001
9.930677e+002,1.550583e+001
9.940320e+002,1.449623e+001
9.949962e+002,1.320334e+001
9.959604e+002,1.361813e+001
9.969247e+002,1.588489e+001
9.978889e+002,1.878903e+001
9.988531e+002,2.226117e+001
9.998174e+002,2.522141e+001
1.000782e+003,2.729904e+001
1.001746e+003,2.861652e+001
1.002710e+003,2.910555e+001
1.003674e+003,2.883928e+001
1.004639e+003,2.836400e+001
1.005603e+003,2.869377e+001
1.006567e+003,2.987651e+001
1.007531e+003,3.061514e+001
1.008495e+003,3.108620e+001
1.009460e+003,3.089101e+001
1.010424e+003,2.934138e+001
1.011388e+003,2.691058e+001
1.012352e+003,2.551248e+001
1.013317e+003,2.591936e+001
1.014281e+003,2.609157e+001
1.015245e+003,2.513701e+001
1.016209e+003,2.386449e+001
1.017174e+003,2.330768e+001
1.018138e+003,2.317422e+001
1.019102e+003,2.182561e+001
1.020066e+003,1.770557e+001
1.021031e+003,1.239012e+001
1.021995e+003,1.048962e+001
1.022959e+003,1.119379e+001
1.023923e+003,1.197525e+001
1.024887e+003,1.222003e+001
1.025852e+003,1.175711e+001
1.026816e+003,1.006905e+001
1.027780e+003,6.765244e+000
1.028744e+003,4.590591e+000
1.029709e+003,4.597961e+000
1.030673e+003,4.685562e+000
1.031637e+003,4.290192e+000
1.032601e+003,3.507080e+000
1.033566e+003,2.503540e+000
1.034530e+003,1.390717e+000
1.035494e+003,4.572601e-001
1.036458e+003,-2.268066e-001
1.037422e+003,-4.137268e-001
1.038387e+003,6.428986e-001
1.039351e+003,2.754044e+000
1.040315e+003,4.642288e+000
1.041279e+003,5.433456e+000
1.042244e+003,5.288788e+000
1.043208e+003,4.659637e+000
1.044172e+003,2.605743e+000
1.045136e+003,1.503693e+000
1.046101e+003,1.695328e+000
1.047065e+003,2.585632e+000
1.048029e+003,4.427292e+000
1.048993e+003,6.652832e+000
1.049958e+003,7.434525e+000
1.050922e+003,5.422836e+000
1.051886e+003,3.243088e+000
1.052850e+003,4.212250e+000
1.053814e+003,6.306763e+000
1.054779e+003,6.568710e+000
1.055743e+003,4.545181e+000
1.056707e+003,2.393143e+000
1.057671e+003,2.779297e+000
1.058636e+003,5.699570e+000
1.059600e+003,7.434082e+000
1.060564e+003,7.158554e+000
1.061528e+003,7.290451e+000
1.062493e+003,8.685181e+000
1.063457e+003,1.002914e+001
1.064421e+003,9.547134e+000
1.065385e+003,7.158630e+000
1.066349e+003,5.577881e+000
1.067314e+003,7.155655e+000
1.068278e+003,8.786911e+000
1.069242e+003,8.017609e+000
1.070206e+003,5.965088e+000
1.071171e+003,4.299957e+000
1.072135e+003,3.731720e+000
1.073099e+003,3.890717e+000
1.074063e+003,4.298126e+000
1.075028e+003,5.049149e+000
1.075992e+003,5.388535e+000
1.076956e+003,5.140350e+000
1.077920e+003,4.672470e+000
1.078885e+003,4.100830e+000
1.079849e+003,3.571640e+000
1.080813e+003,3.277771e+000
1.081777e+003,3.285980e+000
1.082741e+003,3.417542e+000
1.083706e+003,3.273788e+000
1.084670e+003,3.261597e+000
1.085634e+003,3.935837e+000
1.086598e+003,4.873627e+000
1.087563e+003,5.281860e+000
1.088527e+003,4.790283e+000
1.089491e+003,3.803284e+000
1.090455e+003,2.828949e+000
1.091420e+003,1.765198e+000
1.092384e+003,1.786774e+000
1.093348e+003,3.570923e+000
1.094312e+003,5.010208e+000
1.095276e+003,4.653366e+000
1.096241e+003,3.168152e+000
1.097205e+003,2.434982e+000
1.098169e+003,2.862152e+000
1.099133e+003,3.187180e+000
1.100098e+003,3.006485e+000
1.101062e+003,2.634018e+000
1.102026e+003,1.954636e+000
1.102990e+003,1.290756e+000
1.103955e+003,1.351013e+000
1.104919e+003,2.518936e+000
1.105883e+003,4.042648e+000
1.106847e+003,4.280014e+000
1.107812e+003,3.186737e+000
1.108776e+003,2.706085e+000
1.109740e+003,3.190063e+000
1.110704e+003,3.728745e+000
1.111668e+003,3.597672e+000
1.112633e+003,3.095139e+000
1.113597e+003,3.286087e+000
1.114561e+003,4.582489e+000
1.115525e+003,5.586151e+000
1.116490e+003,5.835068e+000
1.117454e+003,5.705109e+000
1.118418e+003,5.262451e+000
1.119382e+003,4.801727e+000
1.120347e+003,4.663818e+000
1.121311e+003,4.963791e+000
1.122275e+003,5.569061e+000
1.123239e+003,6.739044e+000
1.124203e+003,8.511826e+000
1.125168e+003,9.391205e+000
1.126132e+003,8.829956e+000
1.127096e+003,8.616928e+000
1.128060e+003,1.055809e+001
1.129025e+003,1.400386e+001
1.129989e+003,1.599806e+001
1.130953e+003,1.591432e+001
1.131917e+003,1.515063e+001
1.132882e+003,1.322601e+001
1.133846e+003,1.178191e+001
1.134810e+003,1.209627e+001
1.135774e+003,1.373001e+001
1.136739e+003,1.537436e+001
1.137703e+003,1.628851e+001
1.138667e+003,1.717038e+001
1.139631e+003,1.948788e+001
1.140595e+003,2.299422e+001
1.141560e+003,2.557317e+001
1.142524e+003,2.691316e+001
1.143488e+003,2.846727e+001
1.144452e+003,3.111720e+001
1.145417e+003,3.471404e+001
1.146381e+003,3.871913e+001
1.147345e+003,4.301668e+001
1.148309e+003,4.791385e+001
1.149274e+003,5.346819e+001
1.150238e+003,5.970924e+001
1.151202e+003,6.721762e+001
1.152166e+003,7.543399e+001
1.153130e+003,8.362544e+001
1.154095e+003,9.123431e+001
1.155059e+003,9.750055e+001
1.156023e+003,1.016340e+002
1.156987e+003,1.034756e+002
1.157952e+003,1.029307e+002
1.158916e+003,9.994826e+001
1.159880e+003,9.640091e+001
1.160844e+003,9.337552e+001
1.161809e+003,8.997243e+001
1.162773e+003,8.418237e+001
1.163737e+003,7.531503e+001
1.164701e+003,6.723363e+001
1.165666e+003,6.098767e+001
1.166630e+003,5.586258e+001
1.167594e+003,5.264430e+001
1.168558e+003,4.990193e+001
1.169522e+003,4.504196e+001
1.170487e+003,3.782693e+001
1.171451e+003,3.192688e+001
1.172415e+003,3.183585e+001
1.173379e+003,3.602362e+001
1.174344e+003,3.600963e+001
1.175308e+003,3.164771e+001
1.176272e+003,2.817967e+001
1.177236e+003,2.816763e+001
1.178201e+003,2.927174e+001
1.179165e+003,2.815332e+001
1.180129e+003,2.468840e+001
1.181093e+003,2.197794e+001
1.182057e+003,2.091498e+001
1.183022e+003,2.048445e+001
1.183986e+003,2.048447e+001
1.184950e+003,2.072842e+001
1.185914e+003,2.112892e+001
1.186879e+003,2.165436e+001
1.187843e+003,2.231314e+001
1.188807e+003,2.308846e+001
1.189771e+003,2.376619e+001
1.190736e+003,2.376384e+001
1.191700e+003,2.298105e+001
1.192664e+003,2.241833e+001
1.193628e+003,2.251485e+001
1.194593e+003,2.253505e+001
1.195557e+003,2.180794e+001
1.196521e+003,2.053113e+001
1.197485e+003,1.956223e+001
1.198449e+003,1.929118e+001
1.199414e+003,1.856116e+001
1.200378e+003,1.557925e+001
1.201342e+003,1.313148e+001
1.202306e+003,1.352495e+001
1.203271e+003,1.573953e+001
1.204235e+003,1.766879e+001
1.205199e+003,1.819627e+001
1.206163e+003,1.751611e+001
1.207128e+003,1.584517e+001
1.208092e+003,1.314212e+001
1.209056e+003,1.027432e+001
1.210020e+003,6.420074e+000
1.210984e+003,3.987350e+000
1.211949e+003,4.804977e+000
1.212913e+003,6.647736e+000
1.213877e+003,6.801498e+000
1.214841e+003,5.107880e+000
1.215806e+003,2.522568e+000
1.216770e+003,-1.685501e+000
1.217734e+003,-4.973770e+000
1.218698e+003,-4.940887e+000
1.219663e+003,-3.661392e+000
1.220627e+003,-3.653976e+000
1.221591e+003,-5.321136e+000
1.222555e+003,-7.520020e+000
1.223520e+003,-9.195831e+000
1.224484e+003,-1.034955e+001
1.225448e+003,-1.122423e+001
1.226412e+003,-1.200014e+001
1.227376e+003,-1.201064e+001
1.228341e+003,-1.096266e+001
1.229305e+003,-9.591263e+000
1.230269e+003,-7.598007e+000
1.231233e+003,-5.768753e+000
1.232198e+003,-5.984985e+000
1.233162e+003,-8.807587e+000
1.234126e+003,-1.127641e+001
1.235090e+003,-1.086925e+001
1.236055e+003,-9.580811e+000
1.237019e+003,-9.758530e+000
1.237983e+003,-1.089317e+001
1.238947e+003,-1.114925e+001
1.239911e+003,-9.731415e+000
1.240876e+003,-8.173920e+000
1.241840e+003,-9.010666e+000
1.242804e+003,-1.244171e+001
1.243768e+003,-1.443263e+001
1.244733e+003,-1.422026e+001
1.245697e+003,-1.338992e+001
1.246661e+003,-1.153291e+001
1.247625e+003,-9.754196e+000
1.248590e+003,-8.747681e+000
1.249554e+003,-8.419220e+000
1.250518e+003,-8.514481e+000
1.251482e+003,-9.029404e+000
1.252447e+003,-9.464111e+000
1.253411e+003,-9.107300e+000
1.254375e+003,-8.107056e+000
1.255339e+003,-6.745438e+000
1.256303e+003,-5.027725e+000
1.257268e+003,-3.460144e+000
1.258232e+003,-2.289825e+000
1.259196e+003,-1.748001e+000
1.260160e+003,-2.428131e+000
1.261125e+003,-4.577698e+000
1.262089e+003,-5.768127e+000
1.263053e+003,-5.384293e+000
1.264017e+003,-4.609985e+000
1.264982e+003,-3.294281e+000
1.265946e+003,-1.953903e+000
1.266910e+003,-8.498230e-001
1.267874e+003,-1.725006e-001
1.268839e+003,-3.098755e-001
1.269803e+003,-1.531021e+000
1.270767e+003,-3.185852e+000
1.271731e+003,-3.980286e+000
1.272695e+003,-3.878265e+000
1.273660e+003,-3.922745e+000
1.274624e+003,-4.273758e+000
1.275588e+003,-4.861069e+000
1.276552e+003,-5.932571e+000
1.277517e+003,-6.918900e+000
1.278481e+003,-6.589767e+000
1.279445e+003,-4.779526e+000
1.280409e+003,-3.608948e+000
1.281374e+003,-3.998123e+000
1.282338e+003,-4.866684e+000
1.283302e+003,-5.929474e+000
1.284266e+003,-6.968857e+000
1.285230e+003,-7.835907e+000
1.286195e+003,-8.457565e+000
1.287159e+003,-8.660614e+000
1.288123e+003,-8.253586e+000
1.289087e+003,-7.486801e+000
1.290052e+003,-7.361969e+000
1.291016e+003,-8.353073e+000
1.291980e+003,-8.508545e+000
1.292944e+003,-6.944412e+000
1.293909e+003,-5.939972e+000
1.294873e+003,-7.146423e+000
1.295837e+003,-8.824158e+000
1.296801e+003,-7.757645e+000
1.297766e+003,-3.904694e+000
1.298730e+003,-2.184998e+000
1.299694e+003,-6.087296e+000
1.300658e+003,-1.158197e+001
1.301622e+003,-1.513336e+001
1.302587e+003,-1.677519e+001
1.303551e+003,-1.562711e+001
1.304515e+003,-1.185158e+001
1.305479e+003,-8.411804e+000
1.306444e+003,-7.854050e+000
1.307408e+003,-9.327148e+000
1.308372e+003,-9.808868e+000
1.309336e+003,-8.936859e+000
1.310301e+003,-8.203140e+000
1.311265e+003,-7.825058e+000
1.312229e+003,-7.298462e+000
1.313193e+003,-6.086227e+000
1.314157e+003,-4.964020e+000
1.315122e+003,-4.679245e+000
1.316086e+003,-5.381607e+000
1.317050e+003,-7.038254e+000
1.318014e+003,-9.679047e+000
1.318979e+003,-1.239946e+001
1.319943e+003,-1.370482e+001
1.320907e+003,-1.357971e+001
1.321871e+003,-1.272632e+001
1.322836e+003,-1.112157e+001
1.323800e+003,-9.423904e+000
1.324764e+003,-7.700119e+000
1.325728e+003,-6.201385e+000
1.326693e+003,-5.282578e+000
1.327657e+003,-5.004395e+000
1.328621e+003,-5.986084e+000
1.329585e+003,-9.677628e+000
1.330549e+003,-1.186319e+001
1.331514e+003,-9.430725e+000
1.332478e+003,-5.886795e+000
1.333442e+003,-4.387878e+000
1.334406e+003,-4.960526e+000
1.335371e+003,-6.267670e+000
1.336335e+003,-7.429550e+000
1.337299e+003,-7.985626e+000
1.338263e+003,-6.969559e+000
1.339228e+003,-4.060898e+000
1.340192e+003,-2.568298e+000
1.341156e+003,-3.215164e+000
1.342120e+003,-4.100616e+000
1.343084e+003,-5.315704e+000
1.344049e+003,-6.542007e+000
1.345013e+003,-7.487366e+000
1.345977e+003,-8.074036e+000
1.346941e+003,-8.341522e+000
1.347906e+003,-8.320190e+000
1.348870e+003,-7.868668e+000
1.349834e+003,-6.398346e+000
1.350798e+003,-4.877228e+000
1.351763e+003,-5.296646e+000
1.352727e+003,-7.263382e+000
1.353691e+003,-8.679047e+000
1.354655e+003,-8.874420e+000
1.355620e+003,-7.936157e+000
1.356584e+003,-5.148743e+000
1.357548e+003,-8.929901e-001
1.358512e+003,8.060150e-001
1.359476e+003,-1.359604e+000
1.360441e+003,-3.376709e+000
1.361405e+003,-3.756973e+000
1.362369e+003,-4.152069e+000
1.363333e+003,-5.747772e+000
1.364298e+003,-7.683243e+000
1.365262e+003,-8.730820e+000
1.366226e+003,-8.583969e+000
1.367190e+003,-7.680298e+000
1.368155e+003,-6.393707e+000
1.369119e+003,-4.854935e+000
1.370083e+003,-3.366821e+000
1.371047e+003,-1.493912e+000
1.372011e+003,-1.719894e+000
1.372976e+003,-6.532257e+000
1.373940e+003,-1.028734e+001
1.374904e+003,-1.054471e+001
1.375868e+003,-8.779694e+000
1.376833e+003,-6.171112e+000
1.377797e+003,-3.256973e+000
1.378761e+003,-1.816544e+000
1.379725e+003,-2.864868e+000
1.380690e+003,-4.655060e+000
1.381654e+003,-5.867783e+000
1.382618e+003,-6.409042e+000
1.383582e+003,-5.990997e+000
1.384547e+003,-4.685852e+000
1.385511e+003,-2.847244e+000
1.386475e+003,-4.286957e-001
1.387439e+003,1.488525e+000
1.388403e+003,8.212738e-001
1.389368e+003,-2.429794e+000
1.390332e+003,-4.545074e+000
1.391296e+003,-5.128983e+000
1.392260e+003,-4.982971e+000
1.393225e+003,-3.670258e+000
1.394189e+003,-2.483017e+000
1.395153e+003,-2.401291e+000
1.396117e+003,-2.820679e+000
1.397082e+003,-2.529694e+000
1.398046e+003,-1.358551e+000
1.399010e+003,-4.418640e-001
1.399974e+003,-8.894043e-001
1.400938e+003,-2.462936e+000
1.401903e+003,-4.189835e+000
1.402867e+003,-6.120911e+000
1.403831e+003,-6.416656e+000
1.404795e+003,-3.956238e+000
1.405760e+003,-1.707870e+000
1.406724e+003,-7.221375e-001
1.407688e+003,-7.910004e-001
1.408652e+003,-2.034103e+000
1.409617e+003,-3.909195e+000
1.410581e+003,-4.482666e+000
1.411545e+003,-2.835373e+000
1.412509e+003,-5.520477e-001
1.413474e+003,1.549240e+000
1.414438e+003,2.609131e+000
1.415402e+003,7.718353e-001
1.416366e+003,-3.328430e+000
1.417330e+003,-6.400192e+000
1.418295e+003,-7.137558e+000
1.419259e+003,-6.528915e+000
1.420223e+003,-5.350998e+000
1.421187e+003,-3.824081e+000
1.422152e+003,-3.000229e+000
1.423116e+003,-2.983414e+000
1.424080e+003,-3.013535e+000
1.425044e+003,-3.441071e+000
1.426009e+003,-3.462616e+000
1.426973e+003,-2.299103e+000
1.427937e+003,-8.137665e-001
1.428901e+003,4.508972e-002
1.429865e+003,2.018280e-001
1.430830e+003,3.121948e-002
1.431794e+003,-2.505188e-001
1.432758e+003,-5.769653e-001
1.433722e+003,-6.945343e-001
1.434687e+003,-4.612885e-001
1.435651e+003,1.075439e-001
1.436615e+003,1.478317e+000
1.437579e+003,1.784302e+000
1.438544e+003,-1.147766e-001
1.439508e+003,-2.034500e+000
1.440472e+003,-2.540314e+000
1.441436e+003,-1.862274e+000
1.442401e+003,-6.379700e-001
1.443365e+003,8.867798e-001
1.444329e+003,2.726624e+000
1.445293e+003,5.161179e+000
1.446257e+003,7.289093e+000
1.447222e+003,6.956360e+000
1.448186e+003,4.593872e+000
1.449150e+003,2.512161e+000
1.450114e+003,8.131866e-001
1.451079e+003,-3.893127e-001
1.452043e+003,-7.451782e-001
1.453007e+003,-6.322021e-001
1.453971e+003,-5.020599e-001
1.454936e+003,-4.471283e-001
1.455900e+003,-8.622131e-001
1.456864e+003,-2.017258e+000
1.457828e+003,-2.789078e+000
1.458792e+003,-2.322571e+000
1.459757e+003,-1.505615e+000
1.460721e+003,-8.382874e-001
1.461685e+003,-4.355927e-001
1.462649e+003,-4.974976e-001
1.463614e+003,-9.923706e-001
1.464578e+003,-1.534485e+000
1.465542e+003,-1.875946e+000
1.466506e+003,-1.978058e+000
1.467471e+003,-1.387833e+000
1.468435e+003,3.837280e-001
1.469399e+003,9.419861e-001
1.470363e+003,-1.914307e+000
1.471328e+003,-3.229980e+000
1.472292e+003,-5.046692e-001
1.473256e+003,2.531433e+000
1.474220e+003,3.581665e+000
1.475184e+003,2.928741e+000
1.476149e+003,1.052643e+000
1.477113e+003,-1.522995e+000
1.478077e+003,-3.302307e+000
1.479041e+003,-2.711395e+000
1.480006e+003,-3.415985e-001
1.480970e+003,1.691818e+000
1.481934e+003,3.381378e+000
1.482898e+003,4.180511e+000
1.483863e+003,3.678894e+000
1.484827e+003,2.925827e+000
1.485791e+003,1.453033e+000
1.486755e+003,6.506805e-001
1.487719e+003,2.418503e+000
1.488684e+003,5.739380e+000
1.489648e+003,7.743134e+000
1.490612e+003,7.595322e+000
1.491576e+003,7.163284e+000
1.492541e+003,7.893600e+000
1.493505e+003,9.323975e+000
1.494469e+003,1.050699e+001
1.495433e+003,1.139833e+001
1.496398e+003,1.248697e+001
1.497362e+003,1.411340e+001
1.498326e+003,1.559117e+001
1.499290e+003,1.617615e+001
1.500255e+003,1.664755e+001
1.501219e+003,1.792294e+001
1.502183e+003,1.997923e+001
1.503147e+003,2.278406e+001
1.504111e+003,2.647356e+001
1.505076e+003,3.013506e+001
1.506040e+003,3.290373e+001
1.507004e+003,3.584769e+001
1.507968e+003,4.015158e+001
1.508933e+003,4.535735e+001
1.509897e+003,5.032536e+001
1.510861e+003,5.506934e+001
1.511825e+003,6.093045e+001
1.512790e+003,6.873515e+001
1.513754e+003,7.806876e+001
1.514718e+003,8.889902e+001
1.515682e+003,1.010876e+002
1.516646e+003,1.113559e+002
1.517611e+003,1.190324e+002
1.518575e+003,1.260791e+002
1.519539e+003,1.334125e+002
1.520503e+003,1.401910e+002
1.521468e+003,1.465587e+002
1.522432e+003,1.516783e+002
1.523396e+003,1.544608e+002
1.524360e+003,1.548060e+002
1.525325e+003,1.534582e+002
1.526289e+003,1.509396e+002
1.527253e+003,1.471100e+002
1.528217e+003,1.415683e+002
1.529182e+003,1.343969e+002
1.530146e+003,1.267210e+002
1.531110e+003,1.187514e+002
1.532074e+003,1.095728e+002
1.533039e+003,9.843100e+001
1.534003e+003,8.655040e+001
1.534967e+003,7.356567e+001
1.535931e+003,6.120975e+001
1.536896e+003,5.161839e+001
1.537860e+003,4.450706e+001
1.538824e+003,3.756070e+001
1.539788e+003,2.963959e+001
1.540752e+003,2.272375e+001
1.541717e+003,1.959914e+001
1.542681e+003,1.962164e+001
1.543645e+003,1.814238e+001
1.544609e+003,1.393414e+001
1.545573e+003,1.175563e+001
1.546538e+003,1.276320e+001
1.547502e+003,1.389766e+001
1.548466e+003,1.450180e+001
1.549430e+003,1.462639e+001
1.550395e+003,1.389398e+001
1.551359e+003,1.267976e+001
1.552323e+003,1.229247e+001
1.553287e+003,1.311261e+001
1.554252e+003,1.357777e+001
1.555216e+003,1.225066e+001
1.556180e+003,9.777740e+000
1.557144e+003,7.419968e+000
1.558109e+003,5.242630e+000
1.559073e+003,4.383087e+000
1.560037e+003,5.659637e+000
1.561001e+003,6.226685e+000
1.561966e+003,4.173874e+000
1.562930e+003,2.219788e+000
1.563894e+003,3.297852e+000
1.564858e+003,6.245453e+000
1.565823e+003,8.195587e+000
1.566787e+003,8.563690e+000
1.567751e+003,8.150986e+000
1.568715e+003,7.247894e+000
1.569679e+003,6.337540e+000
1.570644e+003,6.020401e+000
1.571608e+003,6.063599e+000
1.572572e+003,5.951096e+000
1.573536e+003,5.733093e+000
1.574500e+003,5.658768e+000
1.575465e+003,5.811722e+000
1.576429e+003,6.043869e+000
1.577393e+003,6.373688e+000
1.578357e+003,6.573685e+000
1.579322e+003,5.993927e+000
1.580286e+003,4.747635e+000
1.581250e+003,4.339050e+000
1.582214e+003,5.348709e+000
1.583179e+003,6.828613e+000
1.584143e+003,8.474350e+000
1.585107e+003,9.742844e+000
1.586071e+003,1.006619e+001
1.587036e+003,9.691376e+000
1.588000e+003,8.619736e+000
1.588964e+003,6.637909e+000
1.589928e+003,6.092270e+000
1.590893e+003,1.002736e+001
1.591857e+003,1.486426e+001
1.592821e+003,1.421748e+001
1.593785e+003,9.310394e+000
1.594750e+003,7.574997e+000
1.595714e+003,1.040485e+001
1.596678e+003,1.277628e+001
1.597642e+003,1.224243e+001
1.598606e+003,1.133540e+001
1.599571e+003,1.236443e+001
1.600535e+003,1.414516e+001
1.601499e+003,1.520840e+001
1.602463e+003,1.545518e+001
1.603427e+003,1.530127e+001
1.604392e+003,1.489310e+001
1.605356e+003,1.438547e+001
1.606320e+003,1.401904e+001
1.607284e+003,1.365788e+001
1.608249e+003,1.274257e+001
1.609213e+003,1.124605e+001
1.610177e+003,1.016251e+001
1.611141e+003,9.625061e+000
1.612106e+003,9.591751e+000
1.613070e+003,1.047453e+001
1.614034e+003,1.145206e+001
1.614998e+003,1.199823e+001
1.615963e+003,1.220807e+001
1.616927e+003,1.205064e+001
1.617891e+003,1.164131e+001
1.618855e+003,1.181302e+001
1.619820e+003,1.319133e+001
1.620784e+003,1.438701e+001
1.621748e+003,1.303151e+001
1.622712e+003,9.865570e+000
1.623677e+003,9.023956e+000
1.624641e+003,1.111314e+001
1.625605e+003,1.209456e+001
1.626569e+003,9.933456e+000
1.627533e+003,8.024139e+000
1.628498e+003,8.745132e+000
1.629462e+003,9.987839e+000
1.630426e+003,9.562897e+000
1.631390e+003,8.273712e+000
1.632354e+003,8.474106e+000
1.633319e+003,1.052737e+001
1.634283e+003,1.198235e+001
1.635247e+003,1.077921e+001
1.636211e+003,8.652786e+000
1.637176e+003,9.147079e+000
1.638140e+003,1.205894e+001
1.639104e+003,1.341557e+001
1.640068e+003,1.259846e+001
1.641033e+003,1.202206e+001
1.641997e+003,1.261830e+001
1.642961e+003,1.317897e+001
1.643925e+003,1.299695e+001
1.644890e+003,1.256339e+001
1.645854e+003,1.225655e+001
1.646818e+003,1.210753e+001
1.647782e+003,1.215137e+001
1.648747e+003,1.236050e+001
1.649711e+003,1.239296e+001
1.650675e+003,1.190271e+001
1.651639e+003,1.139630e+001
1.652604e+003,1.198860e+001
1.653568e+003,1.356902e+001
1.654532e+003,1.453676e+001
1.655496e+003,1.480000e+001
1.656460e+003,1.446082e+001
1.657425e+003,1.295789e+001
1.658389e+003,1.173277e+001
1.659353e+003,1.212398e+001
1.660317e+003,1.273016e+001
1.661281e+003,1.170287e+001
1.662246e+003,9.524338e+000
1.663210e+003,8.026642e+000
1.664174e+003,7.845200e+000
1.665138e+003,8.346710e+000
1.666103e+003,9.207169e+000
1.667067e+003,9.922409e+000
1.668031e+003,9.217697e+000
1.668995e+003,7.270187e+000
1.669960e+003,6.503311e+000
1.670924e+003,7.528793e+000
1.671888e+003,7.910034e+000
1.672852e+003,5.998077e+000
1.673817e+003,4.476730e+000
1.674781e+003,5.969879e+000
1.675745e+003,8.021652e+000
1.676709e+003,7.404953e+000
1.677674e+003,4.927216e+000
1.678638e+003,3.999954e+000
1.679602e+003,5.664352e+000
1.680566e+003,7.003204e+000
1.681531e+003,5.353180e+000
1.682495e+003,2.726044e+000
1.683459e+003,2.880188e+000
1.684423e+003,5.185455e+000
1.685387e+003,5.753250e+000
1.686352e+003,4.040421e+000
1.687316e+003,2.472626e+000
1.688280e+003,1.454941e+000
1.689244e+003,1.437347e+000
1.690208e+003,3.904190e+000
1.691173e+003,6.721603e+000
1.692137e+003,7.352692e+000
1.693101e+003,6.389786e+000
1.694065e+003,5.979736e+000
1.695030e+003,6.595673e+000
1.695994e+003,6.422089e+000
1.696958e+003,3.585693e+000
1.697922e+003,4.267120e-001
1.698887e+003,-5.792236e-002
1.699851e+003,1.524124e+000
1.700815e+003,3.802429e+000
1.701779e+003,6.526718e+000
1.702744e+003,7.217072e+000
1.703708e+003,4.716904e+000
1.704672e+003,2.011383e+000
1.705636e+003,1.113022e+000
1.706601e+003,1.098145e+000
1.707565e+003,7.745056e-001
1.708529e+003,3.468628e-001
1.709493e+003,3.674469e-001
1.710458e+003,9.628906e-001
1.711422e+003,1.245758e+000
1.712386e+003,3.831482e-001
1.713350e+003,-2.095184e-001
1.714314e+003,1.034378e+000
1.715279e+003,2.873032e+000
1.716243e+003,3.010300e+000
1.717207e+003,1.744568e+000
1.718171e+003,1.422195e+000
1.719135e+003,2.709274e+000
1.720100e+003,3.927002e+000
1.721064e+003,3.881073e+000
1.722028e+003,3.331985e+000
1.722992e+003,3.659027e+000
1.723957e+003,4.595764e+000
1.724921e+003,3.988022e+000
1.725885e+003,1.444489e+000
1.726849e+003,-9.963379e-001
1.727814e+003,-3.414063e+000
1.728778e+003,-4.810791e+000
1.729742e+003,-4.614502e+000
1.730706e+003,-3.405899e+000
1.731671e+003,-8.686523e-001
1.732635e+003,1.738525e+000
1.733599e+003,1.705093e+000
1.734563e+003,-8.245697e-001
1.735528e+003,-2.465576e+000
1.736492e+003,-1.481766e+000
1.737456e+003,-1.068115e-003
1.738420e+003,-6.216278e-001
1.739385e+003,-2.636917e+000
1.740349e+003,-3.151138e+000
1.741313e+003,-1.793716e+000
1.742277e+003,-4.579926e-001
1.743241e+003,1.545883e+000
1.744206e+003,2.617493e+000
1.745170e+003,1.737564e+000
1.746134e+003,7.215118e-001
1.747098e+003,6.781311e-001
1.748063e+003,9.419708e-001
1.749027e+003,7.100372e-001
1.749991e+003,2.746582e-002
1.750955e+003,-8.695984e-001
1.751919e+003,-1.772491e+000
1.752884e+003,-2.035690e+000
1.753848e+003,-1.103668e+000
1.754812e+003,2.763824e-001
1.755776e+003,6.696472e-001
1.756741e+003,1.770020e-001
1.757705e+003,-6.362762e-001
1.758669e+003,-2.211075e+000
1.759633e+003,-3.013824e+000
1.760598e+003,-2.451920e+000
1.761562e+003,-1.851578e+000
1.762526e+003,-1.259903e+000
1.763490e+003,-9.476471e-001
1.764455e+003,-1.469254e+000
1.765419e+003,-2.180466e+000
1.766383e+003,-1.915955e+000
1.767347e+003,-8.339691e-001
1.768312e+003,-3.276215e-001
1.769276e+003,-1.087891e+000
1.770240e+003,-2.184723e+000
1.771204e+003,-2.603546e+000
1.772168e+003,-2.457870e+000
1.773133e+003,-2.059906e+000
1.774097e+003,-1.469269e+000
1.775061e+003,-1.365982e+000
1.776025e+003,-2.011658e+000
1.776990e+003,-2.305435e+000
1.777954e+003,-1.523254e+000
1.778918e+003,-8.209076e-001
1.779882e+003,-1.479416e+000
1.780846e+003,-2.490692e+000
1.781811e+003,-2.231445e+000
1.782775e+003,-1.075821e+000
1.783739e+003,-3.180389e-001
1.784703e+003,-1.136475e-001
1.785668e+003,-2.136993e-001
1.786632e+003,-7.193909e-001
1.787596e+003,-1.448502e+000
1.788560e+003,-2.534943e+000
1.789525e+003,-3.340927e+000
1.790489e+003,-2.904251e+000
1.791453e+003,-1.563553e+000
1.792417e+003,-1.357880e-001
1.793382e+003,1.095810e+000
1.794346e+003,1.412903e+000
1.795310e+003,3.522644e-001
1.796274e+003,-8.466949e-001
1.797239e+003,-5.960541e-001
1.798203e+003,5.515442e-001
1.799167e+003,4.214630e-001
1.800131e+003,-1.440598e+000
1.801095e+003,-2.815430e+000
1.802060e+003,-3.771027e+000
1.803024e+003,-3.834457e+000
1.803988e+003,-1.966614e+000
1.804952e+003,-5.479279e-001
1.805917e+003,-1.281937e+000
1.806881e+003,-2.520157e+000
1.807845e+003,-2.330460e+000
1.808809e+003,-1.283768e+000
1.809773e+003,-1.060181e+000
1.810738e+003,-1.918320e+000
1.811702e+003,-2.725159e+000
1.812666e+003,-2.775940e+000
1.813630e+003,-2.366745e+000
1.814595e+003,-1.809891e+000
1.815559e+003,-1.259583e+000
1.816523e+003,-1.323959e+000
1.817487e+003,-2.048294e+000
1.818452e+003,-2.625214e+000
1.819416e+003,-2.924210e+000
1.820380e+003,-3.118011e+000
1.821344e+003,-3.546524e+000
1.822309e+003,-3.636917e+000
1.823273e+003,-2.577759e+000
1.824237e+003,-1.280060e+000
1.825201e+003,-7.152405e-001
1.826166e+003,-7.667389e-001
1.827130e+003,-1.020813e+000
1.828094e+003,-1.419510e+000
1.829058e+003,-1.710709e+000
1.830022e+003,-1.583786e+000
1.830987e+003,-1.566864e+000
1.831951e+003,-1.948410e+000
1.832915e+003,-2.806641e+000
1.833879e+003,-4.995605e+000
1.834844e+003,-7.663803e+000
1.835808e+003,-7.925201e+000
1.836772e+003,-5.597519e+000
1.837736e+003,-3.618835e+000
1.838700e+003,-3.315857e+000
1.839665e+003,-3.412552e+000
1.840629e+003,-2.679443e+000
1.841593e+003,-1.621323e+000
1.842557e+003,-1.404724e+000
1.843522e+003,-2.021393e+000
1.844486e+003,-2.462891e+000
1.845450e+003,-2.762650e+000
1.846414e+003,-2.574646e+000
1.847379e+003,-1.548431e+000
1.848343e+003,-8.121948e-001
1.849307e+003,-7.863464e-001
1.850271e+003,-9.629974e-001
1.851236e+003,-7.533569e-001
1.852200e+003,-5.582123e-001
1.853164e+003,-1.401840e+000
1.854128e+003,-2.981003e+000
1.855093e+003,-3.671112e+000
1.856057e+003,-2.913132e+000
1.857021e+003,-2.292526e+000
1.857985e+003,-3.295975e+000
1.858949e+003,-4.684860e+000
1.859914e+003,-3.976654e+000
1.860878e+003,-1.634094e+000
1.861842e+003,-4.850006e-001
1.862806e+003,-6.029968e-001
1.863771e+003,-7.336426e-001
1.864735e+003,-6.842041e-001
1.865699e+003,-7.861176e-001
1.866663e+003,-1.165466e+000
1.867627e+003,-1.643219e+000
1.868592e+003,-2.584335e+000
1.869556e+003,-3.342957e+000
1.870520e+003,-2.053146e+000
1.871484e+003,8.253479e-001
1.872449e+003,2.236176e+000
1.873413e+003,1.922089e+000
1.874377e+003,1.049500e+000
1.875341e+003,-1.032852e+000
1.876306e+003,-2.775864e+000
1.877270e+003,-3.266495e+000
1.878234e+003,-3.156281e+000
1.879198e+003,-2.949692e+000
1.880163e+003,-2.654892e+000
1.881127e+003,-2.117416e+000
1.882091e+003,-1.364380e+000
1.883055e+003,-5.054016e-001
1.884020e+003,3.467560e-001
1.884984e+003,7.296600e-001
1.885948e+003,2.040558e-001
1.886912e+003,-7.035980e-001
1.887876e+003,-9.470673e-001
1.888841e+003,-5.490723e-001
1.889805e+003,1.540527e-001
1.890769e+003,1.236725e+000
1.891733e+003,2.296661e+000
1.892698e+003,3.547119e+000
1.893662e+003,3.964874e+000
1.894626e+003,2.741882e+000
1.895590e+003,1.249207e+000
1.896554e+003,2.081757e-001
1.897519e+003,-3.373871e-001
1.898483e+003,-3.335571e-002
1.899447e+003,6.801758e-001
1.900411e+003,4.132538e-001
1.901376e+003,-1.107239e+000
1.902340e+003,-2.120667e+000
1.903304e+003,-1.772018e+000
1.904268e+003,-1.104309e+000
1.905233e+003,-7.330780e-001
1.906197e+003,-3.037872e-001
1.907161e+003,7.610474e-001
1.908125e+003,2.082336e+000
1.909090e+003,2.887497e+000
1.910054e+003,3.111237e+000
1.911018e+003,3.088318e+000
1.911982e+003,3.018600e+000
1.912947e+003,3.043671e+000
1.913911e+003,3.242203e+000
1.914875e+003,3.587265e+000
1.915839e+003,4.085236e+000
1.916803e+003,4.484131e+000
1.917768e+003,3.590210e+000
1.918732e+003,1.050797e+000
1.919696e+003,4.295349e-002
1.920660e+003,1.339005e+000
1.921625e+003,2.187393e+000
1.922589e+003,1.320770e+000
1.923553e+003,8.903961e-001
1.924517e+003,2.850647e+000
1.925481e+003,5.022568e+000
1.926446e+003,5.638397e+000
1.927410e+003,5.036118e+000
1.928374e+003,3.480621e+000
1.929338e+003,1.141037e+000
1.930303e+003,-2.014465e-001
1.931267e+003,1.034088e-001
1.932231e+003,1.166428e+000
1.933195e+003,3.396225e+000
1.934160e+003,5.123108e+000
1.935124e+003,4.825974e+000
1.936088e+003,3.538986e+000
1.937052e+003,2.215836e+000
1.938017e+003,1.245117e+000
1.938981e+003,1.271988e+000
1.939945e+003,2.097900e+000
1.940909e+003,2.587845e+000
1.941874e+003,2.206085e+000
1.942838e+003,1.299728e+000
1.943802e+003,1.937103e-001
1.944766e+003,-4.905243e-001
1.945730e+003,5.674591e-001
1.946695e+003,2.996078e+000
1.947659e+003,4.082047e+000
1.948623e+003,3.671310e+000
1.949587e+003,3.511719e+000
1.950552e+003,3.986649e+000
1.951516e+003,3.995926e+000
1.952480e+003,2.760071e+000
1.953444e+003,1.857620e+000
1.954408e+003,2.499756e+000
1.955373e+003,3.865311e+000
1.956337e+003,5.220734e+000
1.957301e+003,6.489746e+000
1.958265e+003,7.050095e+000
1.959230e+003,6.833466e+000
1.960194e+003,6.459244e+000
1.961158e+003,5.580841e+000
1.962122e+003,4.919388e+000
1.963087e+003,4.897842e+000
1.964051e+003,4.900955e+000
1.965015e+003,4.530472e+000
1.965979e+003,4.213409e+000
1.966944e+003,4.286133e+000
1.967908e+003,4.644974e+000
1.968872e+003,5.329956e+000
1.969836e+003,6.124100e+000
1.970801e+003,6.173874e+000
1.971765e+003,5.203659e+000
1.972729e+003,4.510880e+000
1.973693e+003,5.342392e+000
1.974657e+003,6.562317e+000
1.975622e+003,6.032211e+000
1.976586e+003,4.646194e+000
1.977550e+003,5.307419e+000
1.978514e+003,7.621429e+000
1.979479e+003,8.841476e+000
1.980443e+003,8.574081e+000
1.981407e+003,7.923767e+000
1.982371e+003,7.310867e+000
1.983335e+003,6.795258e+000
1.984300e+003,6.385117e+000
1.985264e+003,5.969070e+000
1.986228e+003,5.419983e+000
1.987192e+003,4.787109e+000
1.988157e+003,4.315445e+000
1.989121e+003,3.943542e+000
1.990085e+003,4.264938e+000
1.991049e+003,5.732834e+000
1.992014e+003,7.083939e+000
1.992978e+003,8.552902e+000
1.993942e+003,9.250626e+000
1.994906e+003,8.300125e+000
1.995871e+003,7.081253e+000
1.996835e+003,6.279221e+000
1.997799e+003,6.097473e+000
1.998763e+003,7.074722e+000
1.999728e+003,8.823639e+000
