5.003444e+002,3.707263e+001
5.013087e+002,3.778162e+001
5.022729e+002,3.607053e+001
5.032371e+002,3.308099e+001
5.042014e+002,3.250232e+001
5.051656e+002,3.395279e+001
5.061298e+002,3.529965e+001
5.070941e+002,3.450095e+001
5.080583e+002,3.090091e+001
5.090225e+002,2.835275e+001
5.099868e+002,2.651859e+001
5.109510e+002,2.562425e+001
5.119152e+002,2.632762e+001
5.128795e+002,2.879219e+001
5.138437e+002,3.039534e+001
5.148079e+002,2.962486e+001
5.157722e+002,2.847182e+001
5.167364e+002,2.714030e+001
5.177006e+002,2.597557e+001
5.186649e+002,2.577339e+001
5.196291e+002,2.926587e+001
5.205933e+002,3.334488e+001
5.215576e+002,3.375723e+001
5.225218e+002,3.023340e+001
5.234860e+002,2.482594e+001
5.244503e+002,2.130588e+001
5.254145e+002,2.051385e+001
5.263787e+002,2.031963e+001
5.273430e+002,2.120122e+001
5.283072e+002,2.235963e+001
5.292714e+002,2.255753e+001
5.302357e+002,2.094521e+001
5.311999e+002,1.970613e+001
5.321641e+002,1.922922e+001
5.331284e+002,1.935158e+001
5.340926e+002,2.017488e+001
5.350568e+002,2.174600e+001
5.360211e+002,2.275420e+001
5.369853e+002,2.151799e+001
5.379495e+002,1.978160e+001
5.389138e+002,1.903864e+001
5.398780e+002,1.977148e+001
5.408422e+002,2.121828e+001
5.418065e+002,2.130690e+001
5.427707e+002,2.021846e+001
5.437349e+002,1.894669e+001
5.446992e+002,1.751477e+001
5.456634e+002,1.616435e+001
5.466276e+002,1.582434e+001
5.475919e+002,1.828722e+001
5.485561e+002,1.964946e+001
5.495203e+002,1.911713e+001
5.504846e+002,1.751244e+001
5.514488e+002,1.599948e+001
5.524130e+002,1.493011e+001
5.533773e+002,1.434750e+001
5.543415e+002,1.449403e+001
5.553057e+002,1.488026e+001
5.562700e+002,1.489825e+001
5.572342e+002,1.416402e+001
5.581984e+002,1.313969e+001
5.591627e+002,1.321191e+001
5.601269e+002,1.403378e+001
5.610911e+002,1.484164e+001
5.620554e+002,1.523824e+001
5.630196e+002,1.513280e+001
5.639838e+002,1.412320e+001
5.649481e+002,1.104625e+001
5.659123e+002,8.768890e+000
5.668765e+002,8.549652e+000
5.678408e+002,9.692734e+000
5.688050e+002,9.852127e+000
5.697692e+002,6.656601e+000
5.707335e+002,4.622375e+000
5.716977e+002,6.123093e+000
5.726619e+002,9.289383e+000
5.736262e+002,1.170883e+001
5.745904e+002,1.179860e+001
5.755546e+002,1.040585e+001
5.765189e+002,8.519958e+000
5.774831e+002,6.333939e+000
5.784473e+002,4.295364e+000
5.794116e+002,2.778702e+000
5.803758e+002,1.862320e+000
5.813400e+002,1.574356e+000
5.823043e+002,1.763641e+000
5.832685e+002,2.159241e+000
5.842327e+002,2.997574e+000
5.851970e+002,4.255707e+000
5.861612e+002,5.209732e+000
5.871254e+002,5.415680e+000
5.880897e+002,5.447052e+000
5.890539e+002,5.196136e+000
5.900181e+002,4.804840e+000
5.909824e+002,4.515778e+000
5.919466e+002,4.548859e+000
5.929108e+002,4.732758e+000
5.938751e+002,5.238190e+000
5.948393e+002,5.652115e+000
5.958035e+002,5.067078e+000
5.967678e+002,2.874496e+000
5.977320e+002,-4.133911e-001
5.986962e+002,-7.057495e-001
5.996605e+002,1.869797e+000
6.006247e+002,3.947586e+000
6.015889e+002,3.460083e+000
6.025532e+002,6.888580e-001
6.035174e+002,-3.946075e-001
6.044816e+002,2.472015e+000
6.054459e+002,4.761490e+000
6.064101e+002,5.863831e+000
6.073743e+002,5.934372e+000
6.083386e+002,5.216125e+000
6.093028e+002,3.245514e+000
6.102670e+002,1.835007e+000
6.112313e+002,3.000214e+000
6.121955e+002,5.180511e+000
6.131597e+002,6.025070e+000
6.141240e+002,3.977554e+000
6.150882e+002,1.942291e-001
6.160524e+002,5.602722e-001
6.170167e+002,4.372772e+000
6.179809e+002,6.970444e+000
6.189451e+002,5.719772e+000
6.199094e+002,1.204483e+000
6.208736e+002,-1.547821e+000
6.218378e+002,-5.626831e-001
6.228021e+002,3.729095e-001
6.237663e+002,8.366547e-001
6.247305e+002,1.133530e+000
6.256948e+002,1.988708e+000
6.266590e+002,4.239380e+000
6.276232e+002,5.308670e+000
6.285875e+002,2.882401e+000
6.295517e+002,-6.125336e-001
6.305159e+002,-2.599274e+000
6.314802e+002,-1.748886e+000
6.324444e+002,6.874542e-001
6.334086e+002,1.595062e+000
6.343729e+002,1.516296e+000
6.353371e+002,1.478394e+000
6.363013e+002,1.884521e+000
6.372656e+002,2.401428e+000
6.382298e+002,1.908432e+000
6.391940e+002,-1.404572e+000
6.401583e+002,-3.398270e+000
6.411225e+002,-3.088058e+000
6.420867e+002,-1.663284e+000
6.430510e+002,-6.120300e-001
6.440152e+002,-5.198822e-001
6.449794e+002,-5.472717e-001
6.459437e+002,4.031372e-002
6.469079e+002,5.475159e-001
6.478721e+002,3.654022e-001
6.488364e+002,-6.343842e-001
6.498006e+002,-1.943451e+000
6.507648e+002,-2.995544e+000
6.517291e+002,-3.685471e+000
6.526933e+002,-3.369324e+000
6.536575e+002,-1.867767e+000
6.546218e+002,5.461121e-002
6.555860e+002,9.209747e-001
6.565502e+002,3.431702e-002
6.575145e+002,-5.725861e-001
6.584787e+002,-9.704437e-001
6.594429e+002,-1.064499e+000
6.604072e+002,-4.864960e-001
6.613714e+002,9.558716e-001
6.623356e+002,1.670715e+000
6.632999e+002,-1.704712e-001
6.642641e+002,-2.170425e+000
6.652283e+002,-2.985764e+000
6.661926e+002,-2.494659e+000
6.671568e+002,-1.409805e+000
6.681210e+002,-4.380951e-001
6.690853e+002,1.939850e-001
6.700495e+002,-6.237793e-002
6.710137e+002,-1.114777e+000
6.719780e+002,-1.810776e+000
6.729422e+002,-7.725525e-001
6.739064e+002,2.603729e+000
6.748707e+002,3.605133e+000
6.758349e+002,6.755676e-001
6.767991e+002,-2.144104e+000
6.777634e+002,-2.938858e+000
6.787276e+002,-1.837158e+000
6.796918e+002,-7.539368e-001
6.806561e+002,-9.001923e-001
6.816203e+002,-8.107300e-001
6.825845e+002,6.004944e-001
6.835488e+002,2.545441e+000
6.845130e+002,3.750427e+000
6.854772e+002,3.278961e+000
6.864415e+002,1.697037e+000
6.874057e+002,-3.955536e-001
6.883699e+002,-2.755234e+000
6.893342e+002,-4.171402e+000
6.902984e+002,-3.848236e+000
6.912626e+002,-2.057526e+000
6.922269e+002,-9.595947e-001
6.931911e+002,-1.112152e+000
6.941553e+002,-8.268738e-001
6.951196e+002,4.071655e-001
6.960838e+002,1.800919e+000
6.970480e+002,2.136810e+000
6.980123e+002,8.917542e-001
6.989765e+002,-6.045990e-001
6.999407e+002,-2.519562e+000
7.009050e+002,-3.965027e+000
7.018692e+002,-4.025284e+000
7.028334e+002,-2.520157e+000
7.037977e+002,-2.977600e-001
7.047619e+002,1.778473e+000
7.057261e+002,3.548111e+000
7.066904e+002,4.373199e+000
7.076546e+002,4.129608e+000
7.086188e+002,3.206863e+000
7.095831e+002,2.160507e+000
7.105473e+002,7.493896e-001
7.115115e+002,-1.668701e-001
7.124758e+002,-5.133362e-001
7.134400e+002,-6.455231e-001
7.144042e+002,-5.776215e-001
7.153685e+002,-2.939453e-001
7.163327e+002,-2.184296e-001
7.172969e+002,-6.949005e-001
7.182612e+002,-1.279861e+000
7.192254e+002,-2.386108e+000
7.201896e+002,-3.487595e+000
7.211539e+002,-3.364319e+000
7.221181e+002,-7.478027e-001
7.230823e+002,2.868866e+000
7.240466e+002,3.426361e+000
7.250108e+002,1.630142e+000
7.259750e+002,-6.686707e-001
7.269393e+002,-2.646088e+000
7.279035e+002,-4.377319e+000
7.288677e+002,-5.427673e+000
7.298320e+002,-4.667236e+000
7.307962e+002,-4.089737e+000
7.317604e+002,-4.317123e+000
7.327247e+002,-4.566284e+000
7.336889e+002,-3.541504e+000
7.346531e+002,-5.254059e-001
7.356174e+002,1.561111e+000
7.365816e+002,8.234711e-001
7.375458e+002,-6.581879e-001
7.385101e+002,-1.244125e+000
7.394743e+002,-6.009369e-001
7.404385e+002,1.660309e-001
7.414028e+002,-9.865875e-001
7.423670e+002,-3.629089e+000
7.433312e+002,-4.399124e+000
7.442955e+002,-2.747925e+000
7.452597e+002,-2.686462e-001
7.462239e+002,1.118530e+000
7.471882e+002,9.798584e-001
7.481524e+002,1.317154e+000
7.491166e+002,2.350143e+000
7.500809e+002,3.150177e+000
7.510451e+002,3.186890e+000
7.520093e+002,2.677567e+000
7.529736e+002,2.541412e+000
7.539378e+002,3.895172e+000
7.549020e+002,4.930084e+000
7.558663e+002,4.028412e+000
7.568306e+002,2.263947e+000
7.577948e+002,1.043381e+000
7.587590e+002,1.172256e+000
7.597233e+002,2.193192e+000
7.606875e+002,3.362244e+000
7.616517e+002,4.703781e+000
7.626160e+002,5.034866e+000
7.635802e+002,3.616669e+000
7.645444e+002,1.515961e+000
7.655087e+002,1.043747e+000
7.664729e+002,3.209000e+000
7.674371e+002,4.772400e+000
7.684014e+002,5.674942e+000
7.693656e+002,5.903839e+000
7.703298e+002,5.077408e+000
7.712941e+002,3.359894e+000
7.722583e+002,2.031952e+000
7.732225e+002,2.344055e+000
7.741868e+002,3.149506e+000
7.751510e+002,3.895065e+000
7.761152e+002,4.357300e+000
7.770795e+002,4.044785e+000
7.780437e+002,2.482559e+000
7.790079e+002,-3.425598e-002
7.799722e+002,-1.291199e-001
7.809364e+002,2.474075e+000
7.819006e+002,4.221100e+000
7.828649e+002,3.325195e+000
7.838291e+002,6.677856e-001
7.847933e+002,-9.672699e-001
7.857576e+002,-9.318542e-001
7.867218e+002,-1.170258e+000
7.876860e+002,-2.467255e+000
7.886503e+002,-3.602356e+000
7.896145e+002,-3.397736e+000
7.905787e+002,-1.619400e+000
7.915430e+002,5.747986e-001
7.925072e+002,2.061142e+000
7.934714e+002,2.955566e+000
7.944357e+002,3.452911e+000
7.953999e+002,3.683899e+000
7.963641e+002,3.730301e+000
7.973284e+002,3.612122e+000
7.982926e+002,3.301880e+000
7.992568e+002,3.512177e+000
8.002211e+002,4.658203e+000
8.011853e+002,4.975555e+000
8.021495e+002,3.327881e+000
8.031138e+002,6.045074e-001
8.040780e+002,-5.138702e-001
8.050422e+002,1.136856e+000
8.060065e+002,3.036865e+000
8.069707e+002,4.872025e+000
8.079349e+002,6.075287e+000
8.088992e+002,5.751328e+000
8.098634e+002,3.840805e+000
8.108276e+002,1.914093e+000
8.117919e+002,2.494995e+000
8.127561e+002,4.295410e+000
8.137203e+002,5.062531e+000
8.146846e+002,4.684341e+000
8.156488e+002,4.094986e+000
8.166130e+002,4.414169e+000
8.175773e+002,5.916168e+000
8.185415e+002,6.406097e+000
8.195057e+002,4.995560e+000
8.204700e+002,3.633286e+000
8.214342e+002,2.789993e+000
8.223984e+002,2.502289e+000
8.233627e+002,2.849335e+000
8.243269e+002,4.224350e+000
8.252911e+002,5.648895e+000
8.262554e+002,6.773956e+000
8.272196e+002,7.507401e+000
8.281838e+002,7.552628e+000
8.291481e+002,6.911438e+000
8.301123e+002,6.113358e+000
8.310765e+002,6.246277e+000
8.320408e+002,7.096695e+000
8.330050e+002,6.620895e+000
8.339692e+002,4.326019e+000
8.349335e+002,2.017700e+000
8.358977e+002,1.825378e+000
8.368619e+002,4.205750e+000
8.378262e+002,5.852249e+000
8.387904e+002,6.289825e+000
8.397546e+002,6.199600e+000
8.407189e+002,5.220535e+000
8.416831e+002,3.968338e+000
8.426473e+002,3.517242e+000
8.436116e+002,4.506790e+000
8.445758e+002,5.787857e+000
8.455400e+002,6.029770e+000
8.465043e+002,5.635223e+000
8.474685e+002,5.054001e+000
8.484327e+002,4.581345e+000
8.493970e+002,4.438324e+000
8.503612e+002,4.867706e+000
8.513254e+002,5.966064e+000
8.522897e+002,6.395279e+000
8.532539e+002,5.768616e+000
8.542181e+002,4.909729e+000
8.551824e+002,4.072723e+000
8.561466e+002,3.494736e+000
8.571108e+002,4.214737e+000
8.580751e+002,7.575562e+000
8.590393e+002,1.013176e+001
8.600035e+002,1.063844e+001
8.609678e+002,1.011049e+001
8.619320e+002,9.429688e+000
8.628962e+002,9.027847e+000
8.638605e+002,9.210892e+000
8.648247e+002,1.126308e+001
8.657889e+002,1.396361e+001
8.667532e+002,1.425804e+001
8.677174e+002,1.175937e+001
8.686816e+002,8.955292e+000
8.696459e+002,8.824753e+000
8.706101e+002,1.187305e+001
8.715743e+002,1.437448e+001
8.725386e+002,1.690416e+001
8.735028e+002,1.829762e+001
8.744670e+002,1.739191e+001
8.754313e+002,1.515211e+001
8.763955e+002,1.335329e+001
8.773597e+002,1.251860e+001
8.783240e+002,1.265002e+001
8.792882e+002,1.438275e+001
8.802524e+002,1.641603e+001
8.812167e+002,1.757269e+001
8.821809e+002,1.768575e+001
8.831451e+002,1.745621e+001
8.841094e+002,1.783128e+001
8.850736e+002,1.884891e+001
8.860378e+002,1.915109e+001
8.870021e+002,1.830533e+001
8.879663e+002,1.798810e+001
8.889305e+002,1.963802e+001
8.898948e+002,2.267627e+001
8.908590e+002,2.420560e+001
8.918232e+002,2.297798e+001
8.927875e+002,2.216724e+001
8.937517e+002,2.242789e+001
8.947159e+002,2.333398e+001
8.956802e+002,2.490373e+001
8.966444e+002,2.679593e+001
8.976086e+002,2.778122e+001
8.985729e+002,2.621306e+001
8.995371e+002,2.357347e+001
9.005013e+002,2.203879e+001
9.014656e+002,2.170720e+001
9.024298e+002,2.244777e+001
9.033940e+002,2.421576e+001
9.043583e+002,2.669196e+001
9.053225e+002,2.814214e+001
9.062867e+002,2.799512e+001
9.072510e+002,2.719380e+001
9.082152e+002,2.523717e+001
9.091794e+002,2.326976e+001
9.101437e+002,2.243742e+001
9.111079e+002,2.291586e+001
9.120721e+002,2.368854e+001
9.130364e+002,2.423517e+001
9.140006e+002,2.462914e+001
9.149648e+002,2.488457e+001
9.159291e+002,2.520393e+001
9.168933e+002,2.594658e+001
9.178575e+002,2.728552e+001
9.188218e+002,2.878719e+001
9.197860e+002,2.905782e+001
9.207502e+002,2.803979e+001
9.217145e+002,2.673564e+001
9.226787e+002,2.505972e+001
9.236429e+002,2.372009e+001
9.246072e+002,2.382970e+001
9.255714e+002,2.569679e+001
9.265356e+002,2.685275e+001
9.274999e+002,2.646750e+001
9.284641e+002,2.566701e+001
9.294283e+002,2.474205e+001
9.303926e+002,2.379047e+001
9.313568e+002,2.282454e+001
9.323210e+002,2.183899e+001
9.332853e+002,2.081483e+001
9.342495e+002,1.924167e+001
9.352137e+002,1.769113e+001
9.361780e+002,1.766158e+001
9.371422e+002,1.952257e+001
9.381064e+002,2.178975e+001
9.390707e+002,2.222450e+001
9.400349e+002,2.024020e+001
9.409991e+002,1.953088e+001
9.419634e+002,2.217465e+001
9.429276e+002,2.322229e+001
9.438918e+002,1.980992e+001
9.448561e+002,1.454303e+001
9.458203e+002,1.206779e+001
9.467845e+002,1.411624e+001
9.477488e+002,1.683626e+001
9.487130e+002,1.760062e+001
9.496772e+002,1.757104e+001
9.506415e+002,1.744872e+001
9.516057e+002,1.738434e+001
9.525699e+002,1.723279e+001
9.535342e+002,1.682648e+001
9.544984e+002,1.618124e+001
9.554626e+002,1.591307e+001
9.564269e+002,1.625063e+001
9.573911e+002,1.664241e+001
9.583553e+002,1.700299e+001
9.593196e+002,1.723067e+001
9.602838e+002,1.691701e+001
9.612480e+002,1.562534e+001
9.622123e+002,1.545091e+001
9.631765e+002,1.844272e+001
9.641407e+002,2.131055e+001
9.651050e+002,2.267740e+001
9.660692e+002,2.256358e+001
9.670334e+002,2.135974e+001
9.679977e+002,1.934415e+001
9.689619e+002,1.720752e+001
9.699261e+002,1.624257e+001
9.708904e+002,1.608548e+001
9.718546e+002,1.623152e+001
9.728188e+002,1.655698e+001
9.737831e+002,1.698195e+001
9.747473e+002,1.744098e+001
9.757115e+002,1.795439e+001
9.766758e+002,1.863699e+001
9.776400e+002,1.936790e+001
9.786042e+002,2.062506e+001
9.795685e+002,2.317844e+001
9.805327e+002,2.586768e+001
9.814969e+002,2.741589e+001
9.824612e+002,2.747913e+001
9.834254e+002,2.630476e+001
9.843896e+002,2.273898e+001
9.853539e+002,1.863103e+001
9.863181e+002,1.604134e+001
9.872823e+002,1.493011e+001
9.882466e+002,1.440726e+001
9.892108e+002,1.385268e+001
9.901750e+002,1.349141e+001
9.911393e+002,1.375523e+001
9.921035e+002,1.483183e+001
9.930677e+002,1.555125e+001
9.940320e+002,1.595889e+001
9.949962e+002,1.617641e+001
9.959604e+002,1.627605e+001
9.969247e+002,1.629204e+001
9.978889e+002,1.619893e+001
9.988531e+002,1.525027e+001
9.998174e+002,1.479117e+001
1.000782e+003,1.614742e+001
1.001746e+003,1.849121e+001
1.002710e+003,2.072955e+001
1.003674e+003,2.226877e+001
1.004639e+003,2.299516e+001
1.005603e+003,2.258057e+001
1.006567e+003,2.084735e+001
1.007531e+003,2.038522e+001
1.008495e+003,2.181923e+001
1.009460e+003,2.324736e+001
1.010424e+003,2.397371e+001
1.011388e+003,2.389330e+001
1.012352e+003,2.217384e+001
1.013317e+003,1.738666e+001
1.014281e+003,1.351375e+001
1.015245e+003,1.147437e+001
1.016209e+003,1.067296e+001
1.017174e+003,1.152271e+001
1.018138e+003,1.334998e+001
1.019102e+003,1.428358e+001
1.020066e+003,1.268198e+001
1.021031e+003,9.717316e+000
1.021995e+003,8.726364e+000
1.022959e+003,9.166641e+000
1.023923e+003,9.130997e+000
1.024887e+003,7.807739e+000
1.025852e+003,6.007523e+000
1.026816e+003,5.187347e+000
1.027780e+003,5.764786e+000
1.028744e+003,5.797470e+000
1.029709e+003,4.751587e+000
1.030673e+003,3.552429e+000
1.031637e+003,1.879074e+000
1.032601e+003,3.832397e-001
1.033566e+003,1.817474e-001
1.034530e+003,1.653641e+000
1.035494e+003,3.488754e+000
1.036458e+003,4.333801e+000
1.037422e+003,4.419769e+000
1.038387e+003,4.166000e+000
1.039351e+003,3.580780e+000
1.040315e+003,2.595001e+000
1.041279e+003,1.047775e+000
1.042244e+003,-6.695862e-001
1.043208e+003,-7.239838e-001
1.044172e+003,2.562790e+000
1.045136e+003,4.382996e+000
1.046101e+003,3.921158e+000
1.047065e+003,2.909225e+000
1.048029e+003,2.139969e+000
1.048993e+003,1.729584e+000
1.049958e+003,1.806000e+000
1.050922e+003,2.708389e+000
1.051886e+003,3.601303e+000
1.052850e+003,3.283600e+000
1.053814e+003,2.558624e+000
1.054779e+003,2.669083e+000
1.055743e+003,3.745834e+000
1.056707e+003,4.669388e+000
1.057671e+003,4.030991e+000
1.058636e+003,1.792328e+000
1.059600e+003,8.021240e-001
1.060564e+003,2.048248e+000
1.061528e+003,3.327194e+000
1.062493e+003,4.754669e+000
1.063457e+003,5.602402e+000
1.064421e+003,4.754150e+000
1.065385e+003,2.195587e+000
1.066349e+003,7.186890e-002
1.067314e+003,-4.290466e-001
1.068278e+003,-2.222595e-001
1.069242e+003,1.761475e-001
1.070206e+003,7.711945e-001
1.071171e+003,1.638901e+000
1.072135e+003,2.723953e+000
1.073099e+003,3.815964e+000
1.074063e+003,4.688431e+000
1.075028e+003,5.418884e+000
1.075992e+003,5.122269e+000
1.076956e+003,3.210220e+000
1.077920e+003,1.269638e+000
1.078885e+003,-3.978729e-001
1.079849e+003,-1.472000e+000
1.080813e+003,-1.206818e+000
1.081777e+003,7.778168e-001
1.082741e+003,2.637543e+000
1.083706e+003,3.459015e+000
1.084670e+003,3.612885e+000
1.085634e+003,2.851563e+000
1.086598e+003,1.633301e+000
1.087563e+003,7.198639e-001
1.088527e+003,5.942841e-001
1.089491e+003,1.151657e+000
1.090455e+003,2.123047e+000
1.091420e+003,3.474335e+000
1.092384e+003,3.956604e+000
1.093348e+003,3.075180e+000
1.094312e+003,2.078018e+000
1.095276e+003,1.831390e+000
1.096241e+003,2.160309e+000
1.097205e+003,2.392456e+000
1.098169e+003,2.493698e+000
1.099133e+003,2.082962e+000
1.100098e+003,5.787811e-001
1.101062e+003,-9.234314e-001
1.102026e+003,-2.042236e+000
1.102990e+003,-2.527344e+000
1.103955e+003,-1.919495e+000
1.104919e+003,7.324219e-003
1.105883e+003,2.404510e+000
1.106847e+003,3.491165e+000
1.107812e+003,3.196213e+000
1.108776e+003,2.994644e+000
1.109740e+003,3.005356e+000
1.110704e+003,2.995300e+000
1.111668e+003,2.776627e+000
1.112633e+003,2.520157e+000
1.113597e+003,2.728470e+000
1.114561e+003,3.665833e+000
1.115525e+003,4.314117e+000
1.116490e+003,4.609604e+000
1.117454e+003,4.325989e+000
1.118418e+003,2.962540e+000
1.119382e+003,1.038055e+000
1.120347e+003,-5.840302e-001
1.121311e+003,-1.462204e+000
1.122275e+003,-1.530792e+000
1.123239e+003,1.779633e-001
1.124203e+003,3.504532e+000
1.125168e+003,4.538712e+000
1.126132e+003,2.003937e+000
1.127096e+003,-1.507263e-001
1.128060e+003,1.711258e+000
1.129025e+003,6.538345e+000
1.129989e+003,9.316132e+000
1.130953e+003,8.608337e+000
1.131917e+003,8.250412e+000
1.132882e+003,1.023198e+001
1.133846e+003,1.202634e+001
1.134810e+003,1.128082e+001
1.135774e+003,9.147781e+000
1.136739e+003,8.968781e+000
1.137703e+003,1.254556e+001
1.138667e+003,1.687460e+001
1.139631e+003,1.586949e+001
1.140595e+003,1.048036e+001
1.141560e+003,9.823380e+000
1.142524e+003,1.562511e+001
1.143488e+003,2.176208e+001
1.144452e+003,2.320140e+001
1.145417e+003,2.159398e+001
1.146381e+003,2.323123e+001
1.147345e+003,2.944818e+001
1.148309e+003,3.572093e+001
1.149274e+003,4.113480e+001
1.150238e+003,4.622218e+001
1.151202e+003,5.120453e+001
1.152166e+003,5.619522e+001
1.153130e+003,6.142618e+001
1.154095e+003,6.683134e+001
1.155059e+003,7.149855e+001
1.156023e+003,7.419737e+001
1.156987e+003,7.512889e+001
1.157952e+003,7.618993e+001
1.158916e+003,7.779872e+001
1.159880e+003,7.854494e+001
1.160844e+003,7.760036e+001
1.161809e+003,7.490985e+001
1.162773e+003,7.055188e+001
1.163737e+003,6.432498e+001
1.164701e+003,5.742822e+001
1.165666e+003,4.855222e+001
1.166630e+003,4.094144e+001
1.167594e+003,3.614278e+001
1.168558e+003,3.317448e+001
1.169522e+003,3.073698e+001
1.170487e+003,2.837038e+001
1.171451e+003,2.657921e+001
1.172415e+003,2.601869e+001
1.173379e+003,2.632791e+001
1.174344e+003,2.553806e+001
1.175308e+003,2.358058e+001
1.176272e+003,2.234888e+001
1.177236e+003,2.304457e+001
1.178201e+003,2.438281e+001
1.179165e+003,2.476711e+001
1.180129e+003,2.411343e+001
1.181093e+003,2.264334e+001
1.182057e+003,1.941112e+001
1.183022e+003,1.699213e+001
1.183986e+003,1.670647e+001
1.184950e+003,1.732135e+001
1.185914e+003,1.795302e+001
1.186879e+003,1.829961e+001
1.187843e+003,1.818130e+001
1.188807e+003,1.739400e+001
1.189771e+003,1.630977e+001
1.190736e+003,1.633551e+001
1.191700e+003,1.763417e+001
1.192664e+003,1.819543e+001
1.193628e+003,1.784569e+001
1.194593e+003,1.687973e+001
1.195557e+003,1.490343e+001
1.196521e+003,1.240352e+001
1.197485e+003,1.143465e+001
1.198449e+003,1.297697e+001
1.199414e+003,1.397453e+001
1.200378e+003,1.266335e+001
1.201342e+003,1.072856e+001
1.202306e+003,8.722229e+000
1.203271e+003,6.942978e+000
1.204235e+003,5.651108e+000
1.205199e+003,5.017853e+000
1.206163e+003,5.202499e+000
1.207128e+003,6.615295e+000
1.208092e+003,9.389587e+000
1.209056e+003,9.913849e+000
1.210020e+003,7.258011e+000
1.210984e+003,4.692673e+000
1.211949e+003,3.172638e+000
1.212913e+003,2.166946e+000
1.213877e+003,1.169693e+000
1.214841e+003,1.485748e-001
1.215806e+003,-1.137177e+000
1.216770e+003,-2.929901e+000
1.217734e+003,-4.851334e+000
1.218698e+003,-7.572678e+000
1.219663e+003,-9.845825e+000
1.220627e+003,-9.330292e+000
1.221591e+003,-6.265228e+000
1.222555e+003,-3.746964e+000
1.223520e+003,-4.669159e+000
1.224484e+003,-8.173599e+000
1.225448e+003,-1.035504e+001
1.226412e+003,-1.078288e+001
1.227376e+003,-1.067458e+001
1.228341e+003,-9.604019e+000
1.229305e+003,-8.570099e+000
1.230269e+003,-7.964996e+000
1.231233e+003,-7.834824e+000
1.232198e+003,-8.370651e+000
1.233162e+003,-9.627548e+000
1.234126e+003,-1.058218e+001
1.235090e+003,-1.054591e+001
1.236055e+003,-9.902557e+000
1.237019e+003,-8.627518e+000
1.237983e+003,-7.175140e+000
1.238947e+003,-6.639053e+000
1.239911e+003,-7.415512e+000
1.240876e+003,-8.808655e+000
1.241840e+003,-9.897888e+000
1.242804e+003,-1.067561e+001
1.243768e+003,-1.118069e+001
1.244733e+003,-1.165627e+001
1.245697e+003,-1.144006e+001
1.246661e+003,-1.035544e+001
1.247625e+003,-8.869202e+000
1.248590e+003,-6.421173e+000
1.249554e+003,-3.774933e+000
1.250518e+003,-3.453247e+000
1.251482e+003,-6.860672e+000
1.252447e+003,-1.068143e+001
1.253411e+003,-1.033034e+001
1.254375e+003,-7.666611e+000
1.255339e+003,-6.929062e+000
1.256303e+003,-8.183578e+000
1.257268e+003,-9.270691e+000
1.258232e+003,-9.132401e+000
1.259196e+003,-8.127182e+000
1.260160e+003,-6.584335e+000
1.261125e+003,-4.217926e+000
1.262089e+003,-2.582581e+000
1.263053e+003,-2.505875e+000
1.264017e+003,-2.592453e+000
1.264982e+003,-2.631943e+000
1.265946e+003,-2.522751e+000
1.266910e+003,-2.101288e+000
1.267874e+003,-1.454514e+000
1.268839e+003,-7.570801e-001
1.269803e+003,-1.069641e-001
1.270767e+003,1.432800e-001
1.271731e+003,-9.137726e-001
1.272695e+003,-3.165085e+000
1.273660e+003,-4.550186e+000
1.274624e+003,-5.076370e+000
1.275588e+003,-5.016357e+000
1.276552e+003,-3.652313e+000
1.277517e+003,-1.976364e+000
1.278481e+003,-2.261749e+000
1.279445e+003,-4.821213e+000
1.280409e+003,-7.067047e+000
1.281374e+003,-8.564514e+000
1.282338e+003,-8.915283e+000
1.283302e+003,-6.773788e+000
1.284266e+003,-4.217148e+000
1.285230e+003,-3.750778e+000
1.286195e+003,-5.546204e+000
1.287159e+003,-8.000183e+000
1.288123e+003,-9.757172e+000
1.289087e+003,-1.088440e+001
1.290052e+003,-1.181564e+001
1.291016e+003,-1.293376e+001
1.291980e+003,-1.250266e+001
1.292944e+003,-9.259598e+000
1.293909e+003,-6.423157e+000
1.294873e+003,-4.898636e+000
1.295837e+003,-4.511734e+000
1.296801e+003,-5.529755e+000
1.297766e+003,-7.781464e+000
1.298730e+003,-9.382599e+000
1.299694e+003,-9.160934e+000
1.300658e+003,-8.409927e+000
1.301622e+003,-8.509705e+000
1.302587e+003,-9.016647e+000
1.303551e+003,-9.345184e+000
1.304515e+003,-9.339783e+000
1.305479e+003,-8.992081e+000
1.306444e+003,-8.253571e+000
1.307408e+003,-7.381042e+000
1.308372e+003,-7.288483e+000
1.309336e+003,-8.642807e+000
1.310301e+003,-8.707809e+000
1.311265e+003,-5.086441e+000
1.312229e+003,-2.881958e+000
1.313193e+003,-4.783554e+000
1.314157e+003,-8.092636e+000
1.315122e+003,-1.016211e+001
1.316086e+003,-1.056372e+001
1.317050e+003,-1.012094e+001
1.318014e+003,-9.277771e+000
1.318979e+003,-8.211807e+000
1.319943e+003,-7.157822e+000
1.320907e+003,-6.163605e+000
1.321871e+003,-5.836792e+000
1.322836e+003,-6.371246e+000
1.323800e+003,-7.439575e+000
1.324764e+003,-9.397415e+000
1.325728e+003,-1.147597e+001
1.326693e+003,-1.232043e+001
1.327657e+003,-1.192891e+001
1.328621e+003,-1.136919e+001
1.329585e+003,-1.078711e+001
1.330549e+003,-9.718292e+000
1.331514e+003,-7.350677e+000
1.332478e+003,-5.278442e+000
1.333442e+003,-5.215729e+000
1.334406e+003,-6.848480e+000
1.335371e+003,-8.789948e+000
1.336335e+003,-1.015849e+001
1.337299e+003,-1.087041e+001
1.338263e+003,-1.076183e+001
1.339228e+003,-9.736221e+000
1.340192e+003,-8.738861e+000
1.341156e+003,-7.169983e+000
1.342120e+003,-6.497589e+000
1.343084e+003,-8.283432e+000
1.344049e+003,-1.001007e+001
1.345013e+003,-9.037003e+000
1.345977e+003,-6.080215e+000
1.346941e+003,-3.851990e+000
1.347906e+003,-3.333160e+000
1.348870e+003,-3.522339e+000
1.349834e+003,-3.517792e+000
1.350798e+003,-3.734314e+000
1.351763e+003,-5.200272e+000
1.352727e+003,-7.559967e+000
1.353691e+003,-8.837067e+000
1.354655e+003,-8.183105e+000
1.355620e+003,-6.667297e+000
1.356584e+003,-5.116928e+000
1.357548e+003,-3.625717e+000
1.358512e+003,-3.560699e+000
1.359476e+003,-5.858597e+000
1.360441e+003,-7.597885e+000
1.361405e+003,-7.947052e+000
1.362369e+003,-7.589478e+000
1.363333e+003,-5.875565e+000
1.364298e+003,-4.114944e+000
1.365262e+003,-4.551483e+000
1.366226e+003,-7.244904e+000
1.367190e+003,-9.597412e+000
1.368155e+003,-9.273132e+000
1.369119e+003,-7.171326e+000
1.370083e+003,-6.095673e+000
1.371047e+003,-6.290680e+000
1.372011e+003,-6.353973e+000
1.372976e+003,-6.421417e+000
1.373940e+003,-6.400055e+000
1.374904e+003,-6.201920e+000
1.375868e+003,-5.846573e+000
1.376833e+003,-5.165039e+000
1.377797e+003,-4.318253e+000
1.378761e+003,-4.358994e+000
1.379725e+003,-6.095978e+000
1.380690e+003,-7.570511e+000
1.381654e+003,-6.042358e+000
1.382618e+003,-3.292908e+000
1.383582e+003,-1.600815e+000
1.384547e+003,-1.108963e+000
1.385511e+003,-1.415955e+000
1.386475e+003,-2.474503e+000
1.387439e+003,-3.892960e+000
1.388403e+003,-5.243195e+000
1.389368e+003,-6.531647e+000
1.390332e+003,-6.876053e+000
1.391296e+003,-5.809372e+000
1.392260e+003,-4.524307e+000
1.393225e+003,-2.859451e+000
1.394189e+003,-1.575775e+000
1.395153e+003,-1.138794e+000
1.396117e+003,-1.355576e+000
1.397082e+003,-2.154663e+000
1.398046e+003,-3.266159e+000
1.399010e+003,-3.729340e+000
1.399974e+003,-2.646683e+000
1.400938e+003,-1.164993e+000
1.401903e+003,-2.842148e+000
1.402867e+003,-8.834900e+000
1.403831e+003,-1.145079e+001
1.404795e+003,-8.723419e+000
1.405760e+003,-5.710373e+000
1.406724e+003,-4.225388e+000
1.407688e+003,-3.613724e+000
1.408652e+003,-2.737823e+000
1.409617e+003,-1.602661e+000
1.410581e+003,-1.483566e+000
1.411545e+003,-3.115051e+000
1.412509e+003,-4.656006e+000
1.413474e+003,-4.225845e+000
1.414438e+003,-2.766846e+000
1.415402e+003,-1.345428e+000
1.416366e+003,-4.281616e-002
1.417330e+003,3.945770e-001
1.418295e+003,-4.621887e-001
1.419259e+003,-1.745773e+000
1.420223e+003,-2.925446e+000
1.421187e+003,-3.862030e+000
1.422152e+003,-2.928528e+000
1.423116e+003,9.426727e-001
1.424080e+003,3.626282e+000
1.425044e+003,3.055847e+000
1.426009e+003,1.833115e+000
1.426973e+003,8.304443e-001
1.427937e+003,-1.437073e-001
1.428901e+003,-1.583755e+000
1.429865e+003,-3.281693e+000
1.430830e+003,-4.316986e+000
1.431794e+003,-4.146042e+000
1.432758e+003,-3.418411e+000
1.433722e+003,-3.324448e+000
1.434687e+003,-3.819534e+000
1.435651e+003,-3.610474e+000
1.436615e+003,-2.271317e+000
1.437579e+003,-1.534531e+000
1.438544e+003,-2.191284e+000
1.439508e+003,-2.751801e+000
1.440472e+003,-1.768112e+000
1.441436e+003,7.843018e-003
1.442401e+003,8.440399e-001
1.443365e+003,3.701019e-001
1.444329e+003,-1.529083e-001
1.445293e+003,2.540894e-001
1.446257e+003,1.134216e+000
1.447222e+003,1.803528e+000
1.448186e+003,2.153961e+000
1.449150e+003,1.330093e+000
1.450114e+003,-1.222382e+000
1.451079e+003,-3.132294e+000
1.452043e+003,-2.725464e+000
1.453007e+003,-1.198502e+000
1.453971e+003,6.382751e-002
1.454936e+003,9.182281e-001
1.455900e+003,6.244965e-001
1.456864e+003,-1.422668e+000
1.457828e+003,-2.835068e+000
1.458792e+003,-1.456772e+000
1.459757e+003,3.007050e-001
1.460721e+003,8.946228e-002
1.461685e+003,-1.157669e+000
1.462649e+003,-1.121429e+000
1.463614e+003,7.093048e-001
1.464578e+003,2.433289e+000
1.465542e+003,2.296524e+000
1.466506e+003,8.355408e-001
1.467471e+003,-4.149323e-001
1.468435e+003,-1.485138e+000
1.469399e+003,-1.613281e+000
1.470363e+003,1.022797e-001
1.471328e+003,1.301559e+000
1.472292e+003,7.506409e-001
1.473256e+003,7.553101e-003
1.474220e+003,7.393036e-001
1.475184e+003,2.221970e+000
1.476149e+003,2.558487e+000
1.477113e+003,1.233597e+000
1.478077e+003,-2.858429e-001
1.479041e+003,-4.856415e-001
1.480006e+003,2.311249e-001
1.480970e+003,2.843323e-001
1.481934e+003,-8.418427e-001
1.482898e+003,-8.116302e-001
1.483863e+003,1.662720e+000
1.484827e+003,3.304184e+000
1.485791e+003,2.781998e+000
1.486755e+003,1.645325e+000
1.487719e+003,8.272858e-001
1.488684e+003,5.852966e-001
1.489648e+003,1.611557e+000
1.490612e+003,4.097153e+000
1.491576e+003,6.113007e+000
1.492541e+003,5.703659e+000
1.493505e+003,4.349777e+000
1.494469e+003,5.644684e+000
1.495433e+003,9.004227e+000
1.496398e+003,1.161653e+001
1.497362e+003,1.320525e+001
1.498326e+003,1.443474e+001
1.499290e+003,1.561182e+001
1.500255e+003,1.660536e+001
1.501219e+003,1.708821e+001
1.502183e+003,1.712939e+001
1.503147e+003,1.707973e+001
1.504111e+003,1.677014e+001
1.505076e+003,1.771469e+001
1.506040e+003,2.175708e+001
1.507004e+003,2.648370e+001
1.507968e+003,2.850269e+001
1.508933e+003,2.961821e+001
1.509897e+003,3.406018e+001
1.510861e+003,4.259264e+001
1.511825e+003,5.155226e+001
1.512790e+003,5.835609e+001
1.513754e+003,6.378601e+001
1.514718e+003,6.922882e+001
1.515682e+003,7.459689e+001
1.516646e+003,8.085287e+001
1.517611e+003,8.907391e+001
1.518575e+003,9.606915e+001
1.519539e+003,9.936893e+001
1.520503e+003,1.029321e+002
1.521468e+003,1.106105e+002
1.522432e+003,1.188315e+002
1.523396e+003,1.221014e+002
1.524360e+003,1.202404e+002
1.525325e+003,1.176123e+002
1.526289e+003,1.171385e+002
1.527253e+003,1.173503e+002
1.528217e+003,1.156002e+002
1.529182e+003,1.119569e+002
1.530146e+003,1.074473e+002
1.531110e+003,1.024124e+002
1.532074e+003,9.557007e+001
1.533039e+003,8.545255e+001
1.534003e+003,7.490414e+001
1.534967e+003,6.502469e+001
1.535931e+003,5.591129e+001
1.536896e+003,4.721114e+001
1.537860e+003,3.921265e+001
1.538824e+003,3.306242e+001
1.539788e+003,2.914975e+001
1.540752e+003,2.544771e+001
1.541717e+003,1.910191e+001
1.542681e+003,1.112779e+001
1.543645e+003,7.604630e+000
1.544609e+003,1.102448e+001
1.545573e+003,1.298000e+001
1.546538e+003,1.235313e+001
1.547502e+003,1.149284e+001
1.548466e+003,1.104550e+001
1.549430e+003,1.118854e+001
1.550395e+003,1.267513e+001
1.551359e+003,1.467001e+001
1.552323e+003,1.470432e+001
1.553287e+003,1.208418e+001
1.554252e+003,9.574539e+000
1.555216e+003,9.771484e+000
1.556180e+003,1.117043e+001
1.557144e+003,9.907471e+000
1.558109e+003,5.923492e+000
1.559073e+003,4.174530e+000
1.560037e+003,5.704407e+000
1.561001e+003,7.140045e+000
1.561966e+003,7.362411e+000
1.562930e+003,7.327911e+000
1.563894e+003,8.173553e+000
1.564858e+003,9.283279e+000
1.565823e+003,8.947235e+000
1.566787e+003,6.910355e+000
1.567751e+003,4.755890e+000
1.568715e+003,3.187256e+000
1.569679e+003,2.590790e+000
1.570644e+003,4.250916e+000
1.571608e+003,6.922058e+000
1.572572e+003,6.696991e+000
1.573536e+003,3.441040e+000
1.574500e+003,1.770401e+000
1.575465e+003,3.964981e+000
1.576429e+003,6.864975e+000
1.577393e+003,8.108032e+000
1.578357e+003,8.134888e+000
1.579322e+003,7.582672e+000
1.580286e+003,6.633026e+000
1.581250e+003,6.296082e+000
1.582214e+003,6.969345e+000
1.583179e+003,7.981720e+000
1.584143e+003,9.204910e+000
1.585107e+003,1.005165e+001
1.586071e+003,9.460114e+000
1.587036e+003,8.118698e+000
1.588000e+003,8.015961e+000
1.588964e+003,9.582397e+000
1.589928e+003,1.104085e+001
1.590893e+003,1.117183e+001
1.591857e+003,1.061993e+001
1.592821e+003,1.033229e+001
1.593785e+003,1.025589e+001
1.594750e+003,9.835892e+000
1.595714e+003,8.821960e+000
1.596678e+003,8.420319e+000
1.597642e+003,9.724609e+000
1.598606e+003,1.090022e+001
1.599571e+003,1.008359e+001
1.600535e+003,8.581177e+000
1.601499e+003,7.940323e+000
1.602463e+003,8.221115e+000
1.603427e+003,9.071640e+000
1.604392e+003,1.043854e+001
1.605356e+003,1.169185e+001
1.606320e+003,1.218335e+001
1.607284e+003,1.208728e+001
1.608249e+003,1.181630e+001
1.609213e+003,1.136308e+001
1.610177e+003,1.100510e+001
1.611141e+003,1.076117e+001
1.612106e+003,1.069180e+001
1.613070e+003,1.116322e+001
1.614034e+003,1.148280e+001
1.614998e+003,1.079309e+001
1.615963e+003,9.754944e+000
1.616927e+003,9.526459e+000
1.617891e+003,1.021225e+001
1.618855e+003,1.111974e+001
1.619820e+003,1.185338e+001
1.620784e+003,1.223709e+001
1.621748e+003,1.204404e+001
1.622712e+003,1.152441e+001
1.623677e+003,1.144556e+001
1.624641e+003,1.192744e+001
1.625605e+003,1.227443e+001
1.626569e+003,1.230376e+001
1.627533e+003,1.171523e+001
1.628498e+003,9.579300e+000
1.629462e+003,7.703308e+000
1.630426e+003,7.937088e+000
1.631390e+003,9.534195e+000
1.632354e+003,1.083806e+001
1.633319e+003,1.137589e+001
1.634283e+003,1.136176e+001
1.635247e+003,1.081537e+001
1.636211e+003,1.017957e+001
1.637176e+003,1.040849e+001
1.638140e+003,1.147551e+001
1.639104e+003,1.236449e+001
1.640068e+003,1.308861e+001
1.641033e+003,1.325668e+001
1.641997e+003,1.215620e+001
1.642961e+003,1.146370e+001
1.643925e+003,1.246063e+001
1.644890e+003,1.383952e+001
1.645854e+003,1.427005e+001
1.646818e+003,1.393202e+001
1.647782e+003,1.372971e+001
1.648747e+003,1.390015e+001
1.649711e+003,1.367537e+001
1.650675e+003,1.230699e+001
1.651639e+003,1.058351e+001
1.652604e+003,1.009914e+001
1.653568e+003,1.075331e+001
1.654532e+003,1.126842e+001
1.655496e+003,1.152762e+001
1.656460e+003,1.187164e+001
1.657425e+003,1.286420e+001
1.658389e+003,1.338872e+001
1.659353e+003,1.228250e+001
1.660317e+003,1.084984e+001
1.661281e+003,1.062393e+001
1.662246e+003,1.129269e+001
1.663210e+003,1.157639e+001
1.664174e+003,1.110161e+001
1.665138e+003,1.062187e+001
1.666103e+003,1.068205e+001
1.667067e+003,1.116516e+001
1.668031e+003,1.239864e+001
1.668995e+003,1.422997e+001
1.669960e+003,1.373495e+001
1.670924e+003,1.002019e+001
1.671888e+003,7.020920e+000
1.672852e+003,6.088440e+000
1.673817e+003,5.842697e+000
1.674781e+003,5.300659e+000
1.675745e+003,4.985291e+000
1.676709e+003,5.742737e+000
1.677674e+003,7.228851e+000
1.678638e+003,8.394135e+000
1.679602e+003,8.902649e+000
1.680566e+003,8.737473e+000
1.681531e+003,7.631409e+000
1.682495e+003,6.307205e+000
1.683459e+003,6.070389e+000
1.684423e+003,6.650726e+000
1.685387e+003,6.580917e+000
1.686352e+003,5.668762e+000
1.687316e+003,4.821930e+000
1.688280e+003,3.904404e+000
1.689244e+003,3.915649e+000
1.690208e+003,7.365738e+000
1.691173e+003,1.086307e+001
1.692137e+003,9.675430e+000
1.693101e+003,5.374420e+000
1.694065e+003,3.537338e+000
1.695030e+003,5.529373e+000
1.695994e+003,7.073227e+000
1.696958e+003,5.096497e+000
1.697922e+003,1.973480e+000
1.698887e+003,2.897339e-001
1.699851e+003,-4.051208e-002
1.700815e+003,1.083069e+000
1.701779e+003,3.556580e+000
1.702744e+003,5.151093e+000
1.703708e+003,5.133575e+000
1.704672e+003,4.685944e+000
1.705636e+003,4.492340e+000
1.706601e+003,4.232681e+000
1.707565e+003,3.381302e+000
1.708529e+003,2.267838e+000
1.709493e+003,1.830551e+000
1.710458e+003,2.237991e+000
1.711422e+003,2.579346e+000
1.712386e+003,2.196930e+000
1.713350e+003,2.103912e+000
1.714314e+003,3.655426e+000
1.715279e+003,5.555069e+000
1.716243e+003,5.528671e+000
1.717207e+003,3.784851e+000
1.718171e+003,1.947876e+000
1.719135e+003,4.902191e-001
1.720100e+003,-1.018066e-001
1.721064e+003,7.267456e-001
1.722028e+003,1.783691e+000
1.722992e+003,1.169922e+000
1.723957e+003,-5.567627e-001
1.724921e+003,-4.570007e-001
1.725885e+003,1.803467e+000
1.726849e+003,2.675415e+000
1.727814e+003,3.488159e-001
1.728778e+003,-1.412643e+000
1.729742e+003,-5.398254e-001
1.730706e+003,1.139084e+000
1.731671e+003,2.127151e+000
1.732635e+003,2.224930e+000
1.733599e+003,1.064392e+000
1.734563e+003,-8.928833e-001
1.735528e+003,-1.500122e+000
1.736492e+003,3.233337e-001
1.737456e+003,2.748962e+000
1.738420e+003,3.675720e+000
1.739385e+003,3.264450e+000
1.740349e+003,2.273758e+000
1.741313e+003,4.634247e-001
1.742277e+003,-3.370972e-001
1.743241e+003,1.100266e+000
1.744206e+003,1.711075e+000
1.745170e+003,4.772644e-001
1.746134e+003,-1.031830e+000
1.747098e+003,-2.431213e+000
1.748063e+003,-3.298004e+000
1.749027e+003,-2.929337e+000
1.749991e+003,-1.693756e+000
1.750955e+003,-5.046234e-001
1.751919e+003,2.170563e-001
1.752884e+003,2.629700e-001
1.753848e+003,-5.695496e-001
1.754812e+003,-1.441528e+000
1.755776e+003,-4.001770e-001
1.756741e+003,2.530426e+000
1.757705e+003,3.835419e+000
1.758669e+003,2.833878e+000
1.759633e+003,1.966934e+000
1.760598e+003,1.138947e+000
1.761562e+003,8.296661e-001
1.762526e+003,2.425919e+000
1.763490e+003,3.490417e+000
1.764455e+003,1.457916e+000
1.765419e+003,-1.803329e+000
1.766383e+003,-3.231293e+000
1.767347e+003,-2.714645e+000
1.768312e+003,-2.307404e+000
1.769276e+003,-3.010010e+000
1.770240e+003,-3.681442e+000
1.771204e+003,-2.843369e+000
1.772168e+003,-1.161819e+000
1.773133e+003,-2.741547e-001
1.774097e+003,-1.480255e-001
1.775061e+003,-6.865082e-001
1.776025e+003,-2.186447e+000
1.776990e+003,-2.634308e+000
1.777954e+003,-7.580109e-001
1.778918e+003,1.288406e+000
1.779882e+003,2.194534e+000
1.780846e+003,2.021439e+000
1.781811e+003,3.250122e-001
1.782775e+003,-2.182877e+000
1.783739e+003,-3.096176e+000
1.784703e+003,-1.941833e+000
1.785668e+003,-4.832153e-001
1.786632e+003,9.115753e-001
1.787596e+003,1.699341e+000
1.788560e+003,1.468384e+000
1.789525e+003,6.365204e-001
1.790489e+003,-9.097595e-001
1.791453e+003,-2.617004e+000
1.792417e+003,-2.584717e+000
1.793382e+003,-5.947723e-001
1.794346e+003,1.214157e+000
1.795310e+003,1.686783e+000
1.796274e+003,1.859863e+000
1.797239e+003,3.157516e+000
1.798203e+003,4.893570e+000
1.799167e+003,4.286301e+000
1.800131e+003,4.900665e-001
1.801095e+003,-1.217957e+000
1.802060e+003,1.235397e+000
1.803024e+003,2.606247e+000
1.803988e+003,1.521759e+000
1.804952e+003,2.098389e-001
1.805917e+003,-1.731262e-001
1.806881e+003,-3.690948e-001
1.807845e+003,-1.728592e+000
1.808809e+003,-3.301208e+000
1.809773e+003,-2.678192e+000
1.810738e+003,2.068634e-001
1.811702e+003,2.767380e+000
1.812666e+003,3.368835e+000
1.813630e+003,2.691803e+000
1.814595e+003,1.438309e+000
1.815559e+003,-7.278442e-002
1.816523e+003,-8.058167e-002
1.817487e+003,1.703827e+000
1.818452e+003,1.739838e+000
1.819416e+003,-1.074982e+000
1.820380e+003,-2.597778e+000
1.821344e+003,-6.464081e-001
1.822309e+003,1.155762e+000
1.823273e+003,-5.349731e-002
1.824237e+003,-1.739319e+000
1.825201e+003,-1.315292e+000
1.826166e+003,7.087250e-001
1.827130e+003,3.165100e+000
1.828094e+003,5.732727e+000
1.829058e+003,6.586334e+000
1.830022e+003,4.124588e+000
1.830987e+003,1.418533e+000
1.831951e+003,1.360382e+000
1.832915e+003,2.349228e+000
1.833879e+003,1.734848e+000
1.834844e+003,1.615753e-001
1.835808e+003,3.244019e-002
1.836772e+003,1.612213e+000
1.837736e+003,3.523483e+000
1.838700e+003,5.179611e+000
1.839665e+003,5.507355e+000
1.840629e+003,3.208817e+000
1.841593e+003,4.180908e-003
1.842557e+003,-3.049011e-001
1.843522e+003,2.218140e+000
1.844486e+003,2.928345e+000
1.845450e+003,3.858185e-001
1.846414e+003,-9.852295e-001
1.847379e+003,-4.225616e-001
1.848343e+003,-2.671814e-002
1.849307e+003,-8.652954e-001
1.850271e+003,-1.502197e+000
1.851236e+003,-3.540649e-001
1.852200e+003,1.396606e+000
1.853164e+003,1.929993e+000
1.854128e+003,1.200241e+000
1.855093e+003,1.222687e-001
1.856057e+003,-7.711029e-001
1.857021e+003,-1.085983e+000
1.857985e+003,-5.071869e-001
1.858949e+003,5.935516e-001
1.859914e+003,1.926910e+000
1.860878e+003,3.309540e+000
1.861842e+003,3.210175e+000
1.862806e+003,1.535889e+000
1.863771e+003,1.278961e+000
1.864735e+003,3.396912e+000
1.865699e+003,4.481705e+000
1.866663e+003,2.409607e+000
1.867627e+003,2.781219e-001
1.868592e+003,1.301514e+000
1.869556e+003,3.596939e+000
1.870520e+003,3.306137e+000
1.871484e+003,9.583588e-001
1.872449e+003,4.597778e-001
1.873413e+003,3.213562e+000
1.874377e+003,4.824081e+000
1.875341e+003,2.291519e+000
1.876306e+003,1.525116e-001
1.877270e+003,1.226013e+000
1.878234e+003,3.418594e+000
1.879198e+003,5.341629e+000
1.880163e+003,6.455353e+000
1.881127e+003,5.676849e+000
1.882091e+003,3.493225e+000
1.883055e+003,2.012039e+000
1.884020e+003,2.076645e+000
1.884984e+003,2.695374e+000
1.885948e+003,2.989151e+000
1.886912e+003,2.973495e+000
1.887876e+003,2.593170e+000
1.888841e+003,1.933456e+000
1.889805e+003,1.999252e+000
1.890769e+003,2.918732e+000
1.891733e+003,3.970337e+000
1.892698e+003,5.445526e+000
1.893662e+003,5.978592e+000
1.894626e+003,4.587585e+000
1.895590e+003,2.860168e+000
1.896554e+003,1.701263e+000
1.897519e+003,1.030685e+000
1.898483e+003,5.387421e-001
1.899447e+003,3.331451e-001
1.900411e+003,1.302460e+000
1.901376e+003,3.725037e+000
1.902340e+003,5.434769e+000
1.903304e+003,5.288651e+000
1.904268e+003,4.731628e+000
1.905233e+003,4.678741e+000
1.906197e+003,4.673904e+000
1.907161e+003,3.904282e+000
1.908125e+003,3.044220e+000
1.909090e+003,3.581238e+000
1.910054e+003,5.170807e+000
1.911018e+003,6.119629e+000
1.911982e+003,5.894760e+000
1.912947e+003,5.028305e+000
1.913911e+003,3.882187e+000
1.914875e+003,2.986938e+000
1.915839e+003,3.219849e+000
1.916803e+003,4.228043e+000
1.917768e+003,4.397018e+000
1.918732e+003,3.493042e+000
1.919696e+003,3.845978e+000
1.920660e+003,6.334641e+000
1.921625e+003,7.754105e+000
1.922589e+003,6.628403e+000
1.923553e+003,5.481232e+000
1.924517e+003,5.936447e+000
1.925481e+003,6.696609e+000
1.926446e+003,6.597305e+000
1.927410e+003,5.994781e+000
1.928374e+003,5.485016e+000
1.929338e+003,5.103134e+000
1.930303e+003,5.117020e+000
1.931267e+003,5.950760e+000
1.932231e+003,6.466782e+000
1.933195e+003,5.823502e+000
1.934160e+003,4.889526e+000
1.935124e+003,3.998489e+000
1.936088e+003,3.365417e+000
1.937052e+003,3.403885e+000
1.938017e+003,3.967804e+000
1.938981e+003,4.798950e+000
1.939945e+003,5.663300e+000
1.940909e+003,6.103210e+000
1.941874e+003,5.896957e+000
1.942838e+003,5.126755e+000
1.943802e+003,3.866882e+000
1.944766e+003,2.858459e+000
1.945730e+003,3.549332e+000
1.946695e+003,5.658844e+000
1.947659e+003,7.531311e+000
1.948623e+003,9.230942e+000
1.949587e+003,9.543335e+000
1.950552e+003,7.918625e+000
1.951516e+003,6.891190e+000
1.952480e+003,7.637894e+000
1.953444e+003,8.419769e+000
1.954408e+003,7.857727e+000
1.955373e+003,6.726852e+000
1.956337e+003,5.943680e+000
1.957301e+003,5.686966e+000
1.958265e+003,6.656021e+000
1.959230e+003,9.197540e+000
1.960194e+003,1.015854e+001
1.961158e+003,6.934250e+000
1.962122e+003,5.135239e+000
1.963087e+003,7.881500e+000
1.964051e+003,1.041309e+001
1.965015e+003,9.590363e+000
1.965979e+003,7.762039e+000
1.966944e+003,7.081070e+000
1.967908e+003,7.333969e+000
1.968872e+003,7.812622e+000
1.969836e+003,8.293488e+000
1.970801e+003,8.765274e+000
1.971765e+003,9.211334e+000
1.972729e+003,9.371933e+000
1.973693e+003,8.984192e+000
1.974657e+003,8.298294e+000
1.975622e+003,7.272293e+000
1.976586e+003,6.329498e+000
1.977550e+003,7.388611e+000
1.978514e+003,9.867966e+000
1.979479e+003,9.629700e+000
1.980443e+003,6.290176e+000
1.981407e+003,4.711609e+000
1.982371e+003,6.823334e+000
1.983335e+003,9.199249e+000
1.984300e+003,9.216049e+000
1.985264e+003,8.035339e+000
1.986228e+003,7.400955e+000
1.987192e+003,7.284912e+000
1.988157e+003,7.594452e+000
1.989121e+003,8.485291e+000
1.990085e+003,9.196991e+000
1.991049e+003,1.005418e+001
1.992014e+003,1.016299e+001
1.992978e+003,8.013611e+000
1.993942e+003,6.933334e+000
1.994906e+003,9.456070e+000
1.995871e+003,1.200742e+001
1.996835e+003,1.150270e+001
1.997799e+003,9.697052e+000
1.998763e+003,9.199600e+000
1.999728e+003,9.888977e+000
