5.003444e+002,2.247985e+002
5.013087e+002,2.232669e+002
5.022729e+002,2.178206e+002
5.032371e+002,2.109042e+002
5.042014e+002,2.086324e+002
5.051656e+002,2.104034e+002
5.061298e+002,2.126932e+002
5.070941e+002,2.121608e+002
5.080583e+002,2.078494e+002
5.090225e+002,2.039208e+002
5.099868e+002,2.004653e+002
5.109510e+002,1.971102e+002
5.119152e+002,1.935313e+002
5.128795e+002,1.897029e+002
5.138437e+002,1.867369e+002
5.148079e+002,1.853953e+002
5.157722e+002,1.849012e+002
5.167364e+002,1.856386e+002
5.177006e+002,1.869075e+002
5.186649e+002,1.868004e+002
5.196291e+002,1.822601e+002
5.205933e+002,1.767032e+002
5.215576e+002,1.731759e+002
5.225218e+002,1.714826e+002
5.234860e+002,1.702159e+002
5.244503e+002,1.674295e+002
5.254145e+002,1.632841e+002
5.263787e+002,1.602955e+002
5.273430e+002,1.587540e+002
5.283072e+002,1.581506e+002
5.292714e+002,1.577668e+002
5.302357e+002,1.573016e+002
5.311999e+002,1.556194e+002
5.321641e+002,1.523712e+002
5.331284e+002,1.495865e+002
5.340926e+002,1.495029e+002
5.350568e+002,1.529433e+002
5.360211e+002,1.541421e+002
5.369853e+002,1.459520e+002
5.379495e+002,1.355432e+002
5.389138e+002,1.284354e+002
5.398780e+002,1.266737e+002
5.408422e+002,1.283395e+002
5.418065e+002,1.290442e+002
5.427707e+002,1.288351e+002
5.437349e+002,1.275616e+002
5.446992e+002,1.247536e+002
5.456634e+002,1.209163e+002
5.466276e+002,1.180474e+002
5.475919e+002,1.178981e+002
5.485561e+002,1.170494e+002
5.495203e+002,1.145890e+002
5.504846e+002,1.111577e+002
5.514488e+002,1.078082e+002
5.524130e+002,1.050068e+002
5.533773e+002,1.030933e+002
5.543415e+002,1.025123e+002
5.553057e+002,1.024992e+002
5.562700e+002,1.021207e+002
5.572342e+002,1.007333e+002
5.581984e+002,9.879633e+001
5.591627e+002,9.815509e+001
5.601269e+002,9.853979e+001
5.610911e+002,9.866565e+001
5.620554e+002,9.770947e+001
5.630196e+002,9.554260e+001
5.639838e+002,9.290216e+001
5.649481e+002,9.025885e+001
5.659123e+002,8.656842e+001
5.668765e+002,8.105920e+001
5.678408e+002,7.506580e+001
5.688050e+002,7.163696e+001
5.697692e+002,7.263037e+001
5.707335e+002,7.315790e+001
5.716977e+002,7.197778e+001
5.726619e+002,6.982800e+001
5.736262e+002,6.773694e+001
5.745904e+002,6.643805e+001
5.755546e+002,6.580914e+001
5.765189e+002,6.507440e+001
5.774831e+002,6.395258e+001
5.784473e+002,6.265051e+001
5.794116e+002,6.154456e+001
5.803758e+002,6.095465e+001
5.813400e+002,6.033545e+001
5.823043e+002,5.892792e+001
5.832685e+002,5.729449e+001
5.842327e+002,5.591431e+001
5.851970e+002,5.517377e+001
5.861612e+002,5.533466e+001
5.871254e+002,5.763495e+001
5.880897e+002,5.864984e+001
5.890539e+002,5.640509e+001
5.900181e+002,5.237994e+001
5.909824e+002,4.931476e+001
5.919466e+002,4.944330e+001
5.929108e+002,5.046893e+001
5.938751e+002,4.972601e+001
5.948393e+002,4.794977e+001
5.958035e+002,4.630933e+001
5.967678e+002,4.573096e+001
5.977320e+002,4.625366e+001
5.986962e+002,4.663354e+001
5.996605e+002,4.636011e+001
6.006247e+002,4.547845e+001
6.015889e+002,4.367932e+001
6.025532e+002,4.114294e+001
6.035174e+002,3.953247e+001
6.044816e+002,4.018317e+001
6.054459e+002,4.057599e+001
6.064101e+002,4.043384e+001
6.073743e+002,3.972150e+001
6.083386e+002,3.845880e+001
6.093028e+002,3.651709e+001
6.102670e+002,3.461481e+001
6.112313e+002,3.248053e+001
6.121955e+002,3.079095e+001
6.131597e+002,3.088263e+001
6.141240e+002,3.357574e+001
6.150882e+002,3.764441e+001
6.160524e+002,3.736633e+001
6.170167e+002,3.379541e+001
6.179809e+002,3.125262e+001
6.189451e+002,3.164948e+001
6.199094e+002,3.431696e+001
6.208736e+002,3.600775e+001
6.218378e+002,3.831012e+001
6.228021e+002,3.856592e+001
6.237663e+002,3.399432e+001
6.247305e+002,2.803680e+001
6.256948e+002,2.667450e+001
6.266590e+002,3.426538e+001
6.276232e+002,4.058655e+001
6.285875e+002,3.936890e+001
6.295517e+002,3.476080e+001
6.305159e+002,3.057025e+001
6.314802e+002,2.880420e+001
6.324444e+002,2.833862e+001
6.334086e+002,2.675012e+001
6.343729e+002,2.484106e+001
6.353371e+002,2.389069e+001
6.363013e+002,2.438733e+001
6.372656e+002,2.566315e+001
6.382298e+002,2.575403e+001
6.391940e+002,2.322717e+001
6.401583e+002,2.088586e+001
6.411225e+002,1.964740e+001
6.420867e+002,1.922827e+001
6.430510e+002,1.892432e+001
6.440152e+002,1.814844e+001
6.449794e+002,1.700836e+001
6.459437e+002,1.633966e+001
6.469079e+002,1.500726e+001
6.478721e+002,1.125494e+001
6.488364e+002,5.112610e+000
6.498006e+002,-4.940796e-001
6.507648e+002,3.790283e-001
6.517291e+002,5.399658e+000
6.526933e+002,9.734924e+000
6.536575e+002,1.251495e+001
6.546218e+002,1.373315e+001
6.555860e+002,1.335254e+001
6.565502e+002,1.036554e+001
6.575145e+002,7.547058e+000
6.584787e+002,4.057007e+000
6.594429e+002,1.416443e+000
6.604072e+002,1.345154e+000
6.613714e+002,4.389709e+000
6.623356e+002,6.992981e+000
6.632999e+002,6.411987e+000
6.642641e+002,5.215759e+000
6.652283e+002,5.459900e+000
6.661926e+002,7.155457e+000
6.671568e+002,8.522400e+000
6.681210e+002,6.716125e+000
6.690853e+002,3.019104e+000
6.700495e+002,1.404175e+000
6.710137e+002,1.940002e+000
6.719780e+002,3.864380e+000
6.729422e+002,6.507446e+000
6.739064e+002,1.010681e+001
6.748707e+002,1.156000e+001
6.758349e+002,1.034912e+001
6.767991e+002,8.128906e+000
6.777634e+002,5.144653e+000
6.787276e+002,2.049622e+000
6.796918e+002,9.329224e-001
6.806561e+002,3.899048e+000
6.816203e+002,6.677490e+000
6.825845e+002,7.775085e+000
6.835488e+002,7.549988e+000
6.845130e+002,6.864685e+000
6.854772e+002,6.444702e+000
6.864415e+002,6.250244e+000
6.874057e+002,4.726563e+000
6.883699e+002,2.106873e+000
6.893342e+002,6.668701e-001
6.902984e+002,1.968384e+000
6.912626e+002,5.557922e+000
6.922269e+002,7.239441e+000
6.931911e+002,5.844482e+000
6.941553e+002,5.533630e+000
6.951196e+002,6.252075e+000
6.960838e+002,7.477112e+000
6.970480e+002,9.035583e+000
6.980123e+002,1.173828e+001
6.989765e+002,1.317749e+001
6.999407e+002,1.144385e+001
7.009050e+002,8.880249e+000
7.018692e+002,7.403870e+000
7.028334e+002,7.544739e+000
7.037977e+002,8.045593e+000
7.047619e+002,7.097595e+000
7.057261e+002,5.625366e+000
7.066904e+002,5.016785e+000
7.076546e+002,5.454407e+000
7.086188e+002,5.698303e+000
7.095831e+002,3.513184e+000
7.105473e+002,-3.262146e+000
7.115115e+002,-6.049744e+000
7.124758e+002,-2.336975e+000
7.134400e+002,1.674133e+000
7.144042e+002,1.837708e+000
7.153685e+002,-1.694885e+000
7.163327e+002,-3.567017e+000
7.172969e+002,1.379089e+000
7.182612e+002,6.123169e+000
7.192254e+002,7.284180e+000
7.201896e+002,5.686157e+000
7.211539e+002,3.852173e+000
7.221181e+002,3.997620e+000
7.230823e+002,5.033386e+000
7.240466e+002,3.415283e+000
7.250108e+002,2.569580e-001
7.259750e+002,-1.356750e+000
7.269393e+002,1.302490e-001
7.279035e+002,3.775818e+000
7.288677e+002,5.867188e+000
7.298320e+002,7.105286e+000
7.307962e+002,7.746094e+000
7.317604e+002,7.190918e+000
7.327247e+002,6.401733e+000
7.336889e+002,6.531372e+000
7.346531e+002,7.588745e+000
7.356174e+002,7.321960e+000
7.365816e+002,4.995789e+000
7.375458e+002,2.465210e+000
7.385101e+002,1.067444e+000
7.394743e+002,1.092102e+000
7.404385e+002,1.713379e+000
7.414028e+002,1.378235e+000
7.423670e+002,-4.514160e-001
7.433312e+002,-1.439026e+000
7.442955e+002,-6.142578e-001
7.452597e+002,1.019348e+000
7.462239e+002,1.693176e+000
7.471882e+002,4.438477e-001
7.481524e+002,1.588806e+000
7.491166e+002,6.806274e+000
7.500809e+002,1.067749e+001
7.510451e+002,1.105969e+001
7.520093e+002,8.391663e+000
7.529736e+002,4.489502e+000
7.539378e+002,-9.166260e-001
7.549020e+002,-4.176208e+000
7.558663e+002,-2.372070e+000
7.568306e+002,2.219360e+000
7.577948e+002,6.564392e+000
7.587590e+002,8.637024e+000
7.597233e+002,8.791748e+000
7.606875e+002,8.918823e+000
7.616517e+002,9.344604e+000
7.626160e+002,9.424377e+000
7.635802e+002,8.946350e+000
7.645444e+002,8.301208e+000
7.655087e+002,8.162354e+000
7.664729e+002,8.501160e+000
7.674371e+002,9.152649e+000
7.684014e+002,9.946594e+000
7.693656e+002,1.099542e+001
7.703298e+002,1.278577e+001
7.712941e+002,1.526978e+001
7.722583e+002,1.733118e+001
7.732225e+002,1.808124e+001
7.741868e+002,1.797455e+001
7.751510e+002,1.687518e+001
7.761152e+002,1.528760e+001
7.770795e+002,1.402814e+001
7.780437e+002,1.374994e+001
7.790079e+002,1.429102e+001
7.799722e+002,1.581970e+001
7.809364e+002,1.844556e+001
7.819006e+002,2.056543e+001
7.828649e+002,2.149786e+001
7.838291e+002,2.194727e+001
7.847933e+002,2.369232e+001
7.857576e+002,2.801514e+001
7.867218e+002,2.981714e+001
7.876860e+002,2.755994e+001
7.886503e+002,2.426111e+001
7.896145e+002,2.210907e+001
7.905787e+002,2.175568e+001
7.915430e+002,2.252991e+001
7.925072e+002,2.380432e+001
7.934714e+002,2.497345e+001
7.944357e+002,2.630273e+001
7.953999e+002,2.790894e+001
7.963641e+002,2.918945e+001
7.973284e+002,2.923242e+001
7.982926e+002,2.794312e+001
7.992568e+002,2.735919e+001
8.002211e+002,2.688086e+001
8.011853e+002,2.571002e+001
8.021495e+002,2.431445e+001
8.031138e+002,2.336853e+001
8.040780e+002,2.292249e+001
8.050422e+002,2.179291e+001
8.060065e+002,2.181537e+001
8.069707e+002,2.358899e+001
8.079349e+002,2.599054e+001
8.088992e+002,2.854669e+001
8.098634e+002,3.111456e+001
8.108276e+002,3.323865e+001
8.117919e+002,3.355396e+001
8.127561e+002,3.184851e+001
8.137203e+002,2.908386e+001
8.146846e+002,2.593445e+001
8.156488e+002,2.332983e+001
8.166130e+002,2.209308e+001
8.175773e+002,2.228223e+001
8.185415e+002,2.264923e+001
8.195057e+002,2.222888e+001
8.204700e+002,2.217725e+001
8.214342e+002,2.333197e+001
8.223984e+002,2.517841e+001
8.233627e+002,2.626501e+001
8.243269e+002,2.579987e+001
8.252911e+002,2.555066e+001
8.262554e+002,2.715881e+001
8.272196e+002,2.901904e+001
8.281838e+002,2.911224e+001
8.291481e+002,2.689215e+001
8.301123e+002,2.382251e+001
8.310765e+002,2.253076e+001
8.320408e+002,2.279529e+001
8.330050e+002,2.273389e+001
8.339692e+002,2.243622e+001
8.349335e+002,2.168262e+001
8.358977e+002,1.976593e+001
8.368619e+002,1.640771e+001
8.378262e+002,1.609625e+001
8.387904e+002,2.316205e+001
8.397546e+002,2.759625e+001
8.407189e+002,2.448199e+001
8.416831e+002,1.773615e+001
8.426473e+002,1.435321e+001
8.436116e+002,1.779260e+001
8.445758e+002,2.409003e+001
8.455400e+002,2.980420e+001
8.465043e+002,3.430505e+001
8.474685e+002,3.741803e+001
8.484327e+002,3.945770e+001
8.493970e+002,4.076233e+001
8.503612e+002,4.125739e+001
8.513254e+002,4.059271e+001
8.522897e+002,3.938300e+001
8.532539e+002,3.684473e+001
8.542181e+002,3.420575e+001
8.551824e+002,3.188330e+001
8.561466e+002,3.062152e+001
8.571108e+002,3.279578e+001
8.580751e+002,4.022955e+001
8.590393e+002,4.719098e+001
8.600035e+002,5.265442e+001
8.609678e+002,5.712415e+001
8.619320e+002,6.119598e+001
8.628962e+002,6.503345e+001
8.638605e+002,6.821466e+001
8.648247e+002,6.985107e+001
8.657889e+002,7.031940e+001
8.667532e+002,7.038965e+001
8.677174e+002,7.016376e+001
8.686816e+002,7.028693e+001
8.696459e+002,7.165991e+001
8.706101e+002,7.467798e+001
8.715743e+002,7.800952e+001
8.725386e+002,8.290271e+001
8.735028e+002,8.665039e+001
8.744670e+002,8.755994e+001
8.754313e+002,8.637219e+001
8.763955e+002,8.437964e+001
8.773597e+002,8.135980e+001
8.783240e+002,8.094495e+001
8.792882e+002,8.823218e+001
8.802524e+002,9.692334e+001
8.812167e+002,1.014543e+002
8.821809e+002,1.009191e+002
8.831451e+002,9.796570e+001
8.841094e+002,9.588470e+001
8.850736e+002,9.526050e+001
8.860378e+002,9.822052e+001
8.870021e+002,1.055837e+002
8.879663e+002,1.120819e+002
8.889305e+002,1.140988e+002
8.898948e+002,1.123451e+002
8.908590e+002,1.111417e+002
8.918232e+002,1.106004e+002
8.927875e+002,1.120081e+002
8.937517e+002,1.169377e+002
8.947159e+002,1.227328e+002
8.956802e+002,1.268300e+002
8.966444e+002,1.284922e+002
8.976086e+002,1.290568e+002
8.985729e+002,1.297856e+002
8.995371e+002,1.315033e+002
9.005013e+002,1.358903e+002
9.014656e+002,1.423636e+002
9.024298e+002,1.470030e+002
9.033940e+002,1.462244e+002
9.043583e+002,1.405953e+002
9.053225e+002,1.379459e+002
9.062867e+002,1.415066e+002
9.072510e+002,1.432818e+002
9.082152e+002,1.418599e+002
9.091794e+002,1.405423e+002
9.101437e+002,1.432861e+002
9.111079e+002,1.507164e+002
9.120721e+002,1.569042e+002
9.130364e+002,1.567257e+002
9.140006e+002,1.546156e+002
9.149648e+002,1.528516e+002
9.159291e+002,1.519634e+002
9.168933e+002,1.519672e+002
9.178575e+002,1.526071e+002
9.188218e+002,1.531774e+002
9.197860e+002,1.521062e+002
9.207502e+002,1.492188e+002
9.217145e+002,1.447741e+002
9.226787e+002,1.379649e+002
9.236429e+002,1.315942e+002
9.246072e+002,1.297375e+002
9.255714e+002,1.332129e+002
9.265356e+002,1.347543e+002
9.274999e+002,1.312501e+002
9.284641e+002,1.273027e+002
9.294283e+002,1.246231e+002
9.303926e+002,1.229800e+002
9.313568e+002,1.215373e+002
9.323210e+002,1.198541e+002
9.332853e+002,1.177847e+002
9.342495e+002,1.144943e+002
9.352137e+002,1.106807e+002
9.361780e+002,1.081443e+002
9.371422e+002,1.076055e+002
9.381064e+002,1.079873e+002
9.390707e+002,1.071874e+002
9.400349e+002,1.041370e+002
9.409991e+002,1.037017e+002
9.419634e+002,1.092279e+002
9.429276e+002,1.124976e+002
9.438918e+002,1.101235e+002
9.448561e+002,1.047459e+002
9.458203e+002,1.008646e+002
9.467845e+002,9.998724e+001
9.477488e+002,1.000013e+002
9.487130e+002,9.889435e+001
9.496772e+002,9.806281e+001
9.506415e+002,9.927783e+001
9.516057e+002,1.021096e+002
9.525699e+002,1.044258e+002
9.535342e+002,1.040750e+002
9.544984e+002,1.011673e+002
9.554626e+002,9.809113e+001
9.564269e+002,9.534729e+001
9.573911e+002,9.343585e+001
9.583553e+002,9.299048e+001
9.593196e+002,9.294415e+001
9.602838e+002,9.142792e+001
9.612480e+002,8.776019e+001
9.622123e+002,8.446198e+001
9.631765e+002,8.290735e+001
9.641407e+002,8.155005e+001
9.651050e+002,7.854791e+001
9.660692e+002,7.498175e+001
9.670334e+002,7.408942e+001
9.679977e+002,7.825464e+001
9.689619e+002,8.443011e+001
9.699261e+002,8.399811e+001
9.708904e+002,7.890369e+001
9.718546e+002,7.523956e+001
9.728188e+002,7.393329e+001
9.737831e+002,7.513013e+001
9.747473e+002,8.001923e+001
9.757115e+002,8.989056e+001
9.766758e+002,9.730371e+001
9.776400e+002,1.022528e+002
9.786042e+002,1.055258e+002
9.795685e+002,1.075736e+002
9.805327e+002,1.071772e+002
9.814969e+002,1.023148e+002
9.824612e+002,9.259418e+001
9.834254e+002,8.218585e+001
9.843896e+002,7.351526e+001
9.853539e+002,6.656793e+001
9.863181e+002,6.196643e+001
9.872823e+002,5.922034e+001
9.882466e+002,5.743848e+001
9.892108e+002,5.638873e+001
9.901750e+002,5.650323e+001
9.911393e+002,5.629578e+001
9.921035e+002,5.282806e+001
9.930677e+002,5.137653e+001
9.940320e+002,5.416119e+001
9.949962e+002,5.840802e+001
9.959604e+002,6.176038e+001
9.969247e+002,6.409930e+001
9.978889e+002,6.617987e+001
9.988531e+002,6.726306e+001
9.998174e+002,6.809186e+001
1.000782e+003,6.996490e+001
1.001746e+003,7.237219e+001
1.002710e+003,7.439008e+001
1.003674e+003,7.550677e+001
1.004639e+003,7.586444e+001
1.005603e+003,7.582062e+001
1.006567e+003,7.513782e+001
1.007531e+003,7.255267e+001
1.008495e+003,6.701318e+001
1.009460e+003,6.189838e+001
1.010424e+003,5.951062e+001
1.011388e+003,5.941223e+001
1.012352e+003,5.961658e+001
1.013317e+003,6.032098e+001
1.014281e+003,5.977893e+001
1.015245e+003,5.748669e+001
1.016209e+003,5.369220e+001
1.017174e+003,4.782123e+001
1.018138e+003,4.068604e+001
1.019102e+003,3.447540e+001
1.020066e+003,3.121851e+001
1.021031e+003,2.994727e+001
1.021995e+003,2.648352e+001
1.022959e+003,2.100293e+001
1.023923e+003,1.717731e+001
1.024887e+003,1.663074e+001
1.025852e+003,1.732745e+001
1.026816e+003,1.610669e+001
1.027780e+003,1.278101e+001
1.028744e+003,1.010858e+001
1.029709e+003,7.723389e+000
1.030673e+003,6.468201e+000
1.031637e+003,7.638733e+000
1.032601e+003,9.405396e+000
1.033566e+003,9.031189e+000
1.034530e+003,5.768433e+000
1.035494e+003,2.595337e+000
1.036458e+003,2.804321e+000
1.037422e+003,4.931091e+000
1.038387e+003,7.320374e+000
1.039351e+003,9.494446e+000
1.040315e+003,9.677551e+000
1.041279e+003,6.279663e+000
1.042244e+003,6.702881e-001
1.043208e+003,-1.083862e+000
1.044172e+003,3.705933e+000
1.045136e+003,7.082153e+000
1.046101e+003,8.807129e+000
1.047065e+003,9.682312e+000
1.048029e+003,9.483337e+000
1.048993e+003,8.611328e+000
1.049958e+003,8.693848e+000
1.050922e+003,1.116785e+001
1.051886e+003,1.382471e+001
1.052850e+003,1.387854e+001
1.053814e+003,1.282312e+001
1.054779e+003,1.282043e+001
1.055743e+003,1.410748e+001
1.056707e+003,1.487231e+001
1.057671e+003,1.280682e+001
1.058636e+003,7.793884e+000
1.059600e+003,5.544312e+000
1.060564e+003,8.558167e+000
1.061528e+003,1.164093e+001
1.062493e+003,1.418542e+001
1.063457e+003,1.561792e+001
1.064421e+003,1.521161e+001
1.065385e+003,1.312701e+001
1.066349e+003,1.138202e+001
1.067314e+003,1.186237e+001
1.068278e+003,1.191742e+001
1.069242e+003,8.844604e+000
1.070206e+003,4.617249e+000
1.071171e+003,2.164734e+000
1.072135e+003,2.529358e+000
1.073099e+003,4.380554e+000
1.074063e+003,5.821411e+000
1.075028e+003,6.927673e+000
1.075992e+003,9.223389e+000
1.076956e+003,1.390173e+001
1.077920e+003,1.694025e+001
1.078885e+003,1.687115e+001
1.079849e+003,1.483636e+001
1.080813e+003,1.202032e+001
1.081777e+003,8.147095e+000
1.082741e+003,6.300232e+000
1.083706e+003,1.003851e+001
1.084670e+003,1.367542e+001
1.085634e+003,1.400842e+001
1.086598e+003,1.179413e+001
1.087563e+003,8.972412e+000
1.088527e+003,6.911133e+000
1.089491e+003,5.846069e+000
1.090455e+003,5.678772e+000
1.091420e+003,6.183899e+000
1.092384e+003,6.578796e+000
1.093348e+003,6.988098e+000
1.094312e+003,6.453491e+000
1.095276e+003,3.735718e+000
1.096241e+003,1.812744e-001
1.097205e+003,-4.194946e-001
1.098169e+003,3.356995e+000
1.099133e+003,6.197815e+000
1.100098e+003,5.487488e+000
1.101062e+003,4.269470e+000
1.102026e+003,4.794250e+000
1.102990e+003,6.443176e+000
1.103955e+003,6.952209e+000
1.104919e+003,4.887512e+000
1.105883e+003,1.601990e+000
1.106847e+003,5.157471e-002
1.107812e+003,3.172607e-001
1.108776e+003,2.206909e+000
1.109740e+003,6.892578e+000
1.110704e+003,1.078424e+001
1.111668e+003,1.097980e+001
1.112633e+003,8.649109e+000
1.113597e+003,7.853088e+000
1.114561e+003,9.476990e+000
1.115525e+003,1.055164e+001
1.116490e+003,9.290833e+000
1.117454e+003,7.964294e+000
1.118418e+003,8.411682e+000
1.119382e+003,1.054419e+001
1.120347e+003,1.341467e+001
1.121311e+003,1.609021e+001
1.122275e+003,1.724493e+001
1.123239e+003,1.410138e+001
1.124203e+003,7.962830e+000
1.125168e+003,8.094849e+000
1.126132e+003,1.764636e+001
1.127096e+003,2.742206e+001
1.128060e+003,2.985107e+001
1.129025e+003,2.620074e+001
1.129989e+003,2.285211e+001
1.130953e+003,1.912573e+001
1.131917e+003,1.791962e+001
1.132882e+003,2.151294e+001
1.133846e+003,2.628949e+001
1.134810e+003,3.054419e+001
1.135774e+003,3.411652e+001
1.136739e+003,3.732745e+001
1.137703e+003,4.033386e+001
1.138667e+003,4.312317e+001
1.139631e+003,4.538550e+001
1.140595e+003,4.740497e+001
1.141560e+003,5.177094e+001
1.142524e+003,5.912183e+001
1.143488e+003,6.821698e+001
1.144452e+003,7.736725e+001
1.145417e+003,8.740411e+001
1.146381e+003,1.019312e+002
1.147345e+003,1.228081e+002
1.148309e+003,1.430399e+002
1.149274e+003,1.609360e+002
1.150238e+003,1.782307e+002
1.151202e+003,1.971466e+002
1.152166e+003,2.162133e+002
1.153130e+003,2.329700e+002
1.154095e+003,2.457204e+002
1.155059e+003,2.531649e+002
1.156023e+003,2.538441e+002
1.156987e+003,2.480369e+002
1.157952e+003,2.393814e+002
1.158916e+003,2.286533e+002
1.159880e+003,2.155696e+002
1.160844e+003,1.976332e+002
1.161809e+003,1.764980e+002
1.162773e+003,1.574325e+002
1.163737e+003,1.411468e+002
1.164701e+003,1.239806e+002
1.165666e+003,1.000258e+002
1.166630e+003,8.100946e+001
1.167594e+003,7.453583e+001
1.168558e+003,7.419336e+001
1.169522e+003,7.097052e+001
1.170487e+003,6.234552e+001
1.171451e+003,5.360974e+001
1.172415e+003,5.081042e+001
1.173379e+003,5.252771e+001
1.174344e+003,5.143988e+001
1.175308e+003,4.753516e+001
1.176272e+003,4.447833e+001
1.177236e+003,4.495239e+001
1.178201e+003,4.596368e+001
1.179165e+003,4.275238e+001
1.180129e+003,3.495691e+001
1.181093e+003,2.837012e+001
1.182057e+003,2.447791e+001
1.183022e+003,2.203961e+001
1.183986e+003,2.108789e+001
1.184950e+003,2.084705e+001
1.185914e+003,2.015289e+001
1.186879e+003,1.944318e+001
1.187843e+003,2.110443e+001
1.188807e+003,2.708722e+001
1.189771e+003,3.479639e+001
1.190736e+003,3.646021e+001
1.191700e+003,3.133032e+001
1.192664e+003,2.702374e+001
1.193628e+003,2.492987e+001
1.194593e+003,2.328900e+001
1.195557e+003,2.092206e+001
1.196521e+003,1.786267e+001
1.197485e+003,1.412012e+001
1.198449e+003,9.107544e+000
1.199414e+003,5.561523e+000
1.200378e+003,7.121094e+000
1.201342e+003,8.431335e+000
1.202306e+003,4.787476e+000
1.203271e+003,-1.863464e+000
1.204235e+003,-6.734619e+000
1.205199e+003,-7.440369e+000
1.206163e+003,-5.801636e+000
1.207128e+003,-4.762085e+000
1.208092e+003,-4.263733e+000
1.209056e+003,-6.254089e+000
1.210020e+003,-1.177075e+001
1.210984e+003,-1.712415e+001
1.211949e+003,-2.069385e+001
1.212913e+003,-2.408228e+001
1.213877e+003,-2.994818e+001
1.214841e+003,-3.820013e+001
1.215806e+003,-4.417023e+001
1.216770e+003,-4.495746e+001
1.217734e+003,-4.489789e+001
1.218698e+003,-4.755713e+001
1.219663e+003,-5.126935e+001
1.220627e+003,-5.387451e+001
1.221591e+003,-5.502985e+001
1.222555e+003,-5.583252e+001
1.223520e+003,-5.723413e+001
1.224484e+003,-5.889844e+001
1.225448e+003,-5.994366e+001
1.226412e+003,-6.023590e+001
1.227376e+003,-6.030450e+001
1.228341e+003,-6.110486e+001
1.229305e+003,-6.089709e+001
1.230269e+003,-5.702930e+001
1.231233e+003,-5.199548e+001
1.232198e+003,-5.137531e+001
1.233162e+003,-5.667328e+001
1.234126e+003,-6.167987e+001
1.235090e+003,-6.188019e+001
1.236055e+003,-6.012225e+001
1.237019e+003,-5.897583e+001
1.237983e+003,-5.862646e+001
1.238947e+003,-5.893793e+001
1.239911e+003,-5.967249e+001
1.240876e+003,-6.075220e+001
1.241840e+003,-6.237970e+001
1.242804e+003,-6.460980e+001
1.243768e+003,-6.597485e+001
1.244733e+003,-6.715613e+001
1.245697e+003,-6.627295e+001
1.246661e+003,-6.168793e+001
1.247625e+003,-5.699921e+001
1.248590e+003,-5.447644e+001
1.249554e+003,-5.381104e+001
1.250518e+003,-5.389032e+001
1.251482e+003,-5.447076e+001
1.252447e+003,-5.534210e+001
1.253411e+003,-5.634479e+001
1.254375e+003,-5.681537e+001
1.255339e+003,-5.569135e+001
1.256303e+003,-5.279657e+001
1.257268e+003,-4.867023e+001
1.258232e+003,-4.320374e+001
1.259196e+003,-3.811920e+001
1.260160e+003,-3.690686e+001
1.261125e+003,-4.012280e+001
1.262089e+003,-4.171686e+001
1.263053e+003,-4.016125e+001
1.264017e+003,-3.873090e+001
1.264982e+003,-3.770569e+001
1.265946e+003,-3.723584e+001
1.266910e+003,-3.778040e+001
1.267874e+003,-3.901306e+001
1.268839e+003,-3.977667e+001
1.269803e+003,-3.926587e+001
1.270767e+003,-3.831793e+001
1.271731e+003,-3.852673e+001
1.272695e+003,-3.973828e+001
1.273660e+003,-4.100348e+001
1.274624e+003,-4.296472e+001
1.275588e+003,-4.472577e+001
1.276552e+003,-4.519495e+001
1.277517e+003,-4.478949e+001
1.278481e+003,-4.471802e+001
1.279445e+003,-4.518646e+001
1.280409e+003,-4.563037e+001
1.281374e+003,-4.593207e+001
1.282338e+003,-4.595966e+001
1.283302e+003,-4.562231e+001
1.284266e+003,-4.511603e+001
1.285230e+003,-4.451575e+001
1.286195e+003,-4.400134e+001
1.287159e+003,-4.379810e+001
1.288123e+003,-4.394537e+001
1.289087e+003,-4.434631e+001
1.290052e+003,-4.545691e+001
1.291016e+003,-4.812250e+001
1.291980e+003,-4.933606e+001
1.292944e+003,-4.794891e+001
1.293909e+003,-4.734888e+001
1.294873e+003,-4.889630e+001
1.295837e+003,-5.138306e+001
1.296801e+003,-5.361676e+001
1.297766e+003,-5.530396e+001
1.298730e+003,-5.583960e+001
1.299694e+003,-5.474646e+001
1.300658e+003,-5.317926e+001
1.301622e+003,-5.178046e+001
1.302587e+003,-5.071844e+001
1.303551e+003,-5.091888e+001
1.304515e+003,-5.222754e+001
1.305479e+003,-5.258612e+001
1.306444e+003,-5.018707e+001
1.307408e+003,-4.636707e+001
1.308372e+003,-4.559375e+001
1.309336e+003,-4.973248e+001
1.310301e+003,-5.120105e+001
1.311265e+003,-4.600665e+001
1.312229e+003,-4.224683e+001
1.313193e+003,-4.308850e+001
1.314157e+003,-4.614569e+001
1.315122e+003,-4.969012e+001
1.316086e+003,-5.285211e+001
1.317050e+003,-5.421893e+001
1.318014e+003,-5.255865e+001
1.318979e+003,-4.974744e+001
1.319943e+003,-4.965759e+001
1.320907e+003,-5.173309e+001
1.321871e+003,-5.219360e+001
1.322836e+003,-5.114288e+001
1.323800e+003,-4.923090e+001
1.324764e+003,-4.505225e+001
1.325728e+003,-4.097333e+001
1.326693e+003,-4.259106e+001
1.327657e+003,-5.037109e+001
1.328621e+003,-5.441437e+001
1.329585e+003,-4.890839e+001
1.330549e+003,-4.273810e+001
1.331514e+003,-4.144580e+001
1.332478e+003,-4.245221e+001
1.333442e+003,-4.358051e+001
1.334406e+003,-4.413312e+001
1.335371e+003,-4.391431e+001
1.336335e+003,-4.285193e+001
1.337299e+003,-4.138098e+001
1.338263e+003,-4.044647e+001
1.339228e+003,-4.010651e+001
1.340192e+003,-3.961005e+001
1.341156e+003,-3.867920e+001
1.342120e+003,-3.803943e+001
1.343084e+003,-3.873260e+001
1.344049e+003,-3.953406e+001
1.345013e+003,-3.899585e+001
1.345977e+003,-3.721729e+001
1.346941e+003,-3.514948e+001
1.347906e+003,-3.311566e+001
1.348870e+003,-3.149280e+001
1.349834e+003,-3.066400e+001
1.350798e+003,-3.079822e+001
1.351763e+003,-3.187628e+001
1.352727e+003,-3.365778e+001
1.353691e+003,-3.541388e+001
1.354655e+003,-3.698956e+001
1.355620e+003,-3.793799e+001
1.356584e+003,-3.724921e+001
1.357548e+003,-3.508795e+001
1.358512e+003,-3.412238e+001
1.359476e+003,-3.547540e+001
1.360441e+003,-3.652325e+001
1.361405e+003,-3.588177e+001
1.362369e+003,-3.519403e+001
1.363333e+003,-3.551013e+001
1.364298e+003,-3.613654e+001
1.365262e+003,-3.554565e+001
1.366226e+003,-3.377740e+001
1.367190e+003,-3.305414e+001
1.368155e+003,-3.541510e+001
1.369119e+003,-3.954004e+001
1.370083e+003,-4.120044e+001
1.371047e+003,-3.977197e+001
1.372011e+003,-3.720654e+001
1.372976e+003,-3.182361e+001
1.373940e+003,-2.830548e+001
1.374904e+003,-2.974927e+001
1.375868e+003,-3.279608e+001
1.376833e+003,-3.309222e+001
1.377797e+003,-3.068695e+001
1.378761e+003,-2.891138e+001
1.379725e+003,-2.925690e+001
1.380690e+003,-2.998859e+001
1.381654e+003,-2.891095e+001
1.382618e+003,-2.716797e+001
1.383582e+003,-2.653107e+001
1.384547e+003,-2.697083e+001
1.385511e+003,-2.750232e+001
1.386475e+003,-2.792206e+001
1.387439e+003,-2.779272e+001
1.388403e+003,-2.560034e+001
1.389368e+003,-2.139771e+001
1.390332e+003,-2.031567e+001
1.391296e+003,-2.437665e+001
1.392260e+003,-2.727582e+001
1.393225e+003,-2.737097e+001
1.394189e+003,-2.649841e+001
1.395153e+003,-2.538409e+001
1.396117e+003,-2.409406e+001
1.397082e+003,-2.203131e+001
1.398046e+003,-1.933960e+001
1.399010e+003,-1.758600e+001
1.399974e+003,-1.846039e+001
1.400938e+003,-2.153961e+001
1.401903e+003,-2.449744e+001
1.402867e+003,-2.675189e+001
1.403831e+003,-2.664862e+001
1.404795e+003,-2.247662e+001
1.405760e+003,-1.924060e+001
1.406724e+003,-2.010284e+001
1.407688e+003,-2.295313e+001
1.408652e+003,-2.503442e+001
1.409617e+003,-2.567139e+001
1.410581e+003,-2.475342e+001
1.411545e+003,-2.187537e+001
1.412509e+003,-1.950867e+001
1.413474e+003,-2.154565e+001
1.414438e+003,-2.524493e+001
1.415402e+003,-2.439185e+001
1.416366e+003,-1.956396e+001
1.417330e+003,-1.700806e+001
1.418295e+003,-1.964380e+001
1.419259e+003,-2.341101e+001
1.420223e+003,-2.340131e+001
1.421187e+003,-2.056836e+001
1.422152e+003,-1.999634e+001
1.423116e+003,-2.272778e+001
1.424080e+003,-2.328351e+001
1.425044e+003,-1.831891e+001
1.426009e+003,-1.355170e+001
1.426973e+003,-1.146198e+001
1.427937e+003,-1.084119e+001
1.428901e+003,-9.978882e+000
1.429865e+003,-8.614380e+000
1.430830e+003,-7.790649e+000
1.431794e+003,-8.339783e+000
1.432758e+003,-9.769226e+000
1.433722e+003,-1.077612e+001
1.434687e+003,-1.099219e+001
1.435651e+003,-8.770935e+000
1.436615e+003,-2.830811e+000
1.437579e+003,1.216187e+000
1.438544e+003,2.029602e+000
1.439508e+003,1.991089e+000
1.440472e+003,3.699097e+000
1.441436e+003,5.834290e+000
1.442401e+003,4.691528e+000
1.443365e+003,-3.420410e-001
1.444329e+003,-4.912537e+000
1.445293e+003,-5.548279e+000
1.446257e+003,-4.169861e+000
1.447222e+003,-4.933105e+000
1.448186e+003,-7.247925e+000
1.449150e+003,-7.166626e+000
1.450114e+003,-3.734985e+000
1.451079e+003,-9.502563e-001
1.452043e+003,-1.118347e+000
1.453007e+003,-2.395264e+000
1.453971e+003,-2.196655e+000
1.454936e+003,-9.736938e-001
1.455900e+003,-1.673889e+000
1.456864e+003,-5.567383e+000
1.457828e+003,-8.405273e+000
1.458792e+003,-7.069031e+000
1.459757e+003,-4.686646e+000
1.460721e+003,-3.434387e+000
1.461685e+003,-3.191956e+000
1.462649e+003,-3.486206e+000
1.463614e+003,-3.984985e+000
1.464578e+003,-4.319092e+000
1.465542e+003,-4.311218e+000
1.466506e+003,-4.108521e+000
1.467471e+003,-3.712402e+000
1.468435e+003,-2.717712e+000
1.469399e+003,-1.515442e+000
1.470363e+003,-1.391968e+000
1.471328e+003,-3.570557e-002
1.472292e+003,4.742798e+000
1.473256e+003,8.594543e+000
1.474220e+003,8.119690e+000
1.475184e+003,5.188660e+000
1.476149e+003,3.392395e+000
1.477113e+003,3.651062e+000
1.478077e+003,4.013428e+000
1.479041e+003,2.861145e+000
1.480006e+003,1.047546e+000
1.480970e+003,6.787720e-001
1.481934e+003,1.594299e+000
1.482898e+003,3.195984e+000
1.483863e+003,5.851868e+000
1.484827e+003,8.414368e+000
1.485791e+003,1.099243e+001
1.486755e+003,1.359009e+001
1.487719e+003,1.599976e+001
1.488684e+003,1.806311e+001
1.489648e+003,1.974738e+001
1.490612e+003,2.122949e+001
1.491576e+003,2.292676e+001
1.492541e+003,2.504102e+001
1.493505e+003,2.734766e+001
1.494469e+003,2.903125e+001
1.495433e+003,3.001184e+001
1.496398e+003,3.266248e+001
1.497362e+003,3.818536e+001
1.498326e+003,4.435492e+001
1.499290e+003,5.005420e+001
1.500255e+003,5.559235e+001
1.501219e+003,6.073419e+001
1.502183e+003,6.573407e+001
1.503147e+003,7.278400e+001
1.504111e+003,8.273663e+001
1.505076e+003,9.267047e+001
1.506040e+003,9.943640e+001
1.507004e+003,1.072775e+002
1.507968e+003,1.207137e+002
1.508933e+003,1.380805e+002
1.509897e+003,1.565512e+002
1.510861e+003,1.759341e+002
1.511825e+003,1.954189e+002
1.512790e+003,2.137686e+002
1.513754e+003,2.318479e+002
1.514718e+003,2.520900e+002
1.515682e+003,2.741546e+002
1.516646e+003,2.960652e+002
1.517611e+003,3.196453e+002
1.518575e+003,3.394351e+002
1.519539e+003,3.546581e+002
1.520503e+003,3.653925e+002
1.521468e+003,3.701633e+002
1.522432e+003,3.707324e+002
1.523396e+003,3.697960e+002
1.524360e+003,3.673936e+002
1.525325e+003,3.612494e+002
1.526289e+003,3.499770e+002
1.527253e+003,3.350982e+002
1.528217e+003,3.189564e+002
1.529182e+003,3.018312e+002
1.530146e+003,2.840799e+002
1.531110e+003,2.663782e+002
1.532074e+003,2.460143e+002
1.533039e+003,2.205999e+002
1.534003e+003,1.938522e+002
1.534967e+003,1.663167e+002
1.535931e+003,1.404619e+002
1.536896e+003,1.182469e+002
1.537860e+003,1.001492e+002
1.538824e+003,8.618585e+001
1.539788e+003,7.602936e+001
1.540752e+003,6.810358e+001
1.541717e+003,6.063788e+001
1.542681e+003,5.391589e+001
1.543645e+003,4.845026e+001
1.544609e+003,4.451361e+001
1.545573e+003,4.241876e+001
1.546538e+003,4.201184e+001
1.547502e+003,4.251453e+001
1.548466e+003,4.438409e+001
1.549430e+003,4.736737e+001
1.550395e+003,5.202826e+001
1.551359e+003,5.699774e+001
1.552323e+003,5.911670e+001
1.553287e+003,5.741919e+001
1.554252e+003,5.397961e+001
1.555216e+003,5.048749e+001
1.556180e+003,4.660474e+001
1.557144e+003,4.101080e+001
1.558109e+003,3.381793e+001
1.559073e+003,2.996716e+001
1.560037e+003,3.093915e+001
1.561001e+003,3.114178e+001
1.561966e+003,2.846667e+001
1.562930e+003,2.551172e+001
1.563894e+003,2.375134e+001
1.564858e+003,2.337189e+001
1.565823e+003,2.515839e+001
1.566787e+003,2.907410e+001
1.567751e+003,3.333130e+001
1.568715e+003,3.740839e+001
1.569679e+003,4.042950e+001
1.570644e+003,4.054724e+001
1.571608e+003,3.847266e+001
1.572572e+003,3.710760e+001
1.573536e+003,3.678674e+001
1.574500e+003,3.638470e+001
1.575465e+003,3.472742e+001
1.576429e+003,3.386792e+001
1.577393e+003,3.602692e+001
1.578357e+003,3.966711e+001
1.579322e+003,4.207953e+001
1.580286e+003,4.323657e+001
1.581250e+003,4.437415e+001
1.582214e+003,4.601630e+001
1.583179e+003,4.705054e+001
1.584143e+003,4.582269e+001
1.585107e+003,4.390698e+001
1.586071e+003,4.388055e+001
1.587036e+003,4.567200e+001
1.588000e+003,4.786780e+001
1.588964e+003,4.992102e+001
1.589928e+003,5.202509e+001
1.590893e+003,5.516632e+001
1.591857e+003,5.773016e+001
1.592821e+003,5.608807e+001
1.593785e+003,5.139410e+001
1.594750e+003,5.035614e+001
1.595714e+003,5.414105e+001
1.596678e+003,5.812756e+001
1.597642e+003,6.061578e+001
1.598606e+003,6.264746e+001
1.599571e+003,6.588104e+001
1.600535e+003,6.896021e+001
1.601499e+003,6.950452e+001
1.602463e+003,6.777295e+001
1.603427e+003,6.612787e+001
1.604392e+003,6.544403e+001
1.605356e+003,6.593805e+001
1.606320e+003,6.851312e+001
1.607284e+003,7.224286e+001
1.608249e+003,7.439392e+001
1.609213e+003,7.491528e+001
1.610177e+003,7.507910e+001
1.611141e+003,7.470636e+001
1.612106e+003,7.498462e+001
1.613070e+003,7.748950e+001
1.614034e+003,7.985315e+001
1.614998e+003,8.012616e+001
1.615963e+003,7.919269e+001
1.616927e+003,7.812030e+001
1.617891e+003,7.727069e+001
1.618855e+003,7.778375e+001
1.619820e+003,8.053741e+001
1.620784e+003,8.278754e+001
1.621748e+003,8.011395e+001
1.622712e+003,7.420038e+001
1.623677e+003,7.289227e+001
1.624641e+003,7.710730e+001
1.625605e+003,8.116901e+001
1.626569e+003,8.342932e+001
1.627533e+003,8.422064e+001
1.628498e+003,8.317676e+001
1.629462e+003,8.214563e+001
1.630426e+003,8.252142e+001
1.631390e+003,8.402570e+001
1.632354e+003,8.659155e+001
1.633319e+003,8.978668e+001
1.634283e+003,9.086395e+001
1.635247e+003,8.733374e+001
1.636211e+003,8.172571e+001
1.637176e+003,7.825159e+001
1.638140e+003,7.709241e+001
1.639104e+003,7.901154e+001
1.640068e+003,8.515967e+001
1.641033e+003,8.934601e+001
1.641997e+003,8.928662e+001
1.642961e+003,8.840033e+001
1.643925e+003,8.894000e+001
1.644890e+003,8.908228e+001
1.645854e+003,8.574060e+001
1.646818e+003,8.051703e+001
1.647782e+003,7.808252e+001
1.648747e+003,7.971490e+001
1.649711e+003,8.229602e+001
1.650675e+003,8.357593e+001
1.651639e+003,8.416357e+001
1.652604e+003,8.503925e+001
1.653568e+003,8.595337e+001
1.654532e+003,8.524744e+001
1.655496e+003,8.250165e+001
1.656460e+003,7.931335e+001
1.657425e+003,7.522290e+001
1.658389e+003,7.236060e+001
1.659353e+003,7.270074e+001
1.660317e+003,7.403870e+001
1.661281e+003,7.372766e+001
1.662246e+003,7.217029e+001
1.663210e+003,7.167999e+001
1.664174e+003,7.309113e+001
1.665138e+003,7.460883e+001
1.666103e+003,7.465192e+001
1.667067e+003,7.345764e+001
1.668031e+003,7.145435e+001
1.668995e+003,6.882257e+001
1.669960e+003,6.671619e+001
1.670924e+003,6.521161e+001
1.671888e+003,6.481000e+001
1.672852e+003,6.646393e+001
1.673817e+003,6.770398e+001
1.674781e+003,6.676721e+001
1.675745e+003,6.474023e+001
1.676709e+003,6.253687e+001
1.677674e+003,6.030188e+001
1.678638e+003,5.800574e+001
1.679602e+003,5.567261e+001
1.680566e+003,5.368945e+001
1.681531e+003,5.239215e+001
1.682495e+003,5.203418e+001
1.683459e+003,5.332721e+001
1.684423e+003,5.561517e+001
1.685387e+003,5.561493e+001
1.686352e+003,5.280750e+001
1.687316e+003,5.064624e+001
1.688280e+003,5.054919e+001
1.689244e+003,5.070093e+001
1.690208e+003,4.956628e+001
1.691173e+003,4.792517e+001
1.692137e+003,4.664069e+001
1.693101e+003,4.596417e+001
1.694065e+003,4.596490e+001
1.695030e+003,4.641327e+001
1.695994e+003,4.604932e+001
1.696958e+003,4.369855e+001
1.697922e+003,4.100769e+001
1.698887e+003,4.025208e+001
1.699851e+003,4.087598e+001
1.700815e+003,4.105591e+001
1.701779e+003,4.045789e+001
1.702744e+003,3.867889e+001
1.703708e+003,3.546161e+001
1.704672e+003,3.314984e+001
1.705636e+003,3.332336e+001
1.706601e+003,3.455273e+001
1.707565e+003,3.607251e+001
1.708529e+003,3.753174e+001
1.709493e+003,3.640363e+001
1.710458e+003,3.196637e+001
1.711422e+003,2.857440e+001
1.712386e+003,2.881543e+001
1.713350e+003,3.027118e+001
1.714314e+003,3.108002e+001
1.715279e+003,3.119562e+001
1.716243e+003,3.081262e+001
1.717207e+003,3.001477e+001
1.718171e+003,2.858307e+001
1.719135e+003,2.653156e+001
1.720100e+003,2.575806e+001
1.721064e+003,2.786646e+001
1.722028e+003,3.040601e+001
1.722992e+003,3.010620e+001
1.723957e+003,2.769489e+001
1.724921e+003,2.539618e+001
1.725885e+003,2.258972e+001
1.726849e+003,2.012695e+001
1.727814e+003,1.852142e+001
1.728778e+003,1.796051e+001
1.729742e+003,1.860040e+001
1.730706e+003,2.001532e+001
1.731671e+003,2.255133e+001
1.732635e+003,2.465082e+001
1.733599e+003,2.342474e+001
1.734563e+003,1.927405e+001
1.735528e+003,1.551648e+001
1.736492e+003,1.375787e+001
1.737456e+003,1.440948e+001
1.738420e+003,1.846155e+001
1.739385e+003,2.396906e+001
1.740349e+003,2.444318e+001
1.741313e+003,1.864624e+001
1.742277e+003,1.534198e+001
1.743241e+003,1.680664e+001
1.744206e+003,1.755151e+001
1.745170e+003,1.548114e+001
1.746134e+003,1.383301e+001
1.747098e+003,1.509869e+001
1.748063e+003,1.717535e+001
1.749027e+003,1.747046e+001
1.749991e+003,1.634552e+001
1.750955e+003,1.569055e+001
1.751919e+003,1.601996e+001
1.752884e+003,1.617627e+001
1.753848e+003,1.520148e+001
1.754812e+003,1.338153e+001
1.755776e+003,1.126593e+001
1.756741e+003,9.204773e+000
1.757705e+003,1.009485e+001
1.758669e+003,1.546069e+001
1.759633e+003,1.851385e+001
1.760598e+003,1.708521e+001
1.761562e+003,1.487830e+001
1.762526e+003,1.254523e+001
1.763490e+003,1.089117e+001
1.764455e+003,1.014099e+001
1.765419e+003,1.067542e+001
1.766383e+003,1.380518e+001
1.767347e+003,1.858759e+001
1.768312e+003,2.109857e+001
1.769276e+003,1.936511e+001
1.770240e+003,1.655341e+001
1.771204e+003,1.649994e+001
1.772168e+003,1.811139e+001
1.773133e+003,1.815839e+001
1.774097e+003,1.676868e+001
1.775061e+003,1.499683e+001
1.776025e+003,1.231854e+001
1.776990e+003,1.179541e+001
1.777954e+003,1.609595e+001
1.778918e+003,2.018695e+001
1.779882e+003,2.022607e+001
1.780846e+003,1.754559e+001
1.781811e+003,1.264185e+001
1.782775e+003,7.106506e+000
1.783739e+003,6.588745e+000
1.784703e+003,1.242200e+001
1.785668e+003,1.810767e+001
1.786632e+003,2.210388e+001
1.787596e+003,2.286139e+001
1.788560e+003,1.654395e+001
1.789525e+003,9.052917e+000
1.790489e+003,9.347046e+000
1.791453e+003,1.520850e+001
1.792417e+003,1.855560e+001
1.793382e+003,1.783508e+001
1.794346e+003,1.706262e+001
1.795310e+003,1.836737e+001
1.796274e+003,1.974194e+001
1.797239e+003,1.898083e+001
1.798203e+003,1.717987e+001
1.799167e+003,1.661597e+001
1.800131e+003,1.677545e+001
1.801095e+003,1.714813e+001
1.802060e+003,1.879089e+001
1.803024e+003,2.016071e+001
1.803988e+003,2.073334e+001
1.804952e+003,2.102032e+001
1.805917e+003,2.137421e+001
1.806881e+003,2.144513e+001
1.807845e+003,2.117059e+001
1.808809e+003,2.042786e+001
1.809773e+003,1.816034e+001
1.810738e+003,1.484198e+001
1.811702e+003,1.366290e+001
1.812666e+003,1.652374e+001
1.813630e+003,2.080310e+001
1.814595e+003,2.318488e+001
1.815559e+003,2.368701e+001
1.816523e+003,2.201477e+001
1.817487e+003,1.778412e+001
1.818452e+003,1.709912e+001
1.819416e+003,2.236383e+001
1.820380e+003,2.581964e+001
1.821344e+003,2.402686e+001
1.822309e+003,2.121582e+001
1.823273e+003,1.969464e+001
1.824237e+003,1.899677e+001
1.825201e+003,1.853973e+001
1.826166e+003,1.824158e+001
1.827130e+003,1.812903e+001
1.828094e+003,1.810754e+001
1.829058e+003,1.849670e+001
1.830022e+003,1.987659e+001
1.830987e+003,2.131946e+001
1.831951e+003,2.224640e+001
1.832915e+003,2.264429e+001
1.833879e+003,2.199243e+001
1.834844e+003,2.083179e+001
1.835808e+003,2.083655e+001
1.836772e+003,2.223267e+001
1.837736e+003,2.422821e+001
1.838700e+003,2.639221e+001
1.839665e+003,2.720764e+001
1.840629e+003,2.496606e+001
1.841593e+003,2.200238e+001
1.842557e+003,2.345404e+001
1.843522e+003,2.920905e+001
1.844486e+003,3.177582e+001
1.845450e+003,2.998346e+001
1.846414e+003,2.791101e+001
1.847379e+003,2.292200e+001
1.848343e+003,2.028070e+001
1.849307e+003,2.387750e+001
1.850271e+003,2.823248e+001
1.851236e+003,2.971771e+001
1.852200e+003,2.955432e+001
1.853164e+003,2.958478e+001
1.854128e+003,2.956384e+001
1.855093e+003,2.803503e+001
1.856057e+003,2.493579e+001
1.857021e+003,2.243469e+001
1.857985e+003,2.218256e+001
1.858949e+003,2.323737e+001
1.859914e+003,2.420496e+001
1.860878e+003,2.522937e+001
1.861842e+003,2.690027e+001
1.862806e+003,2.914661e+001
1.863771e+003,3.024573e+001
1.864735e+003,2.970807e+001
1.865699e+003,2.811273e+001
1.866663e+003,2.495374e+001
1.867627e+003,2.283496e+001
1.868592e+003,2.444769e+001
1.869556e+003,2.779767e+001
1.870520e+003,3.007947e+001
1.871484e+003,3.120410e+001
1.872449e+003,3.038641e+001
1.873413e+003,2.746643e+001
1.874377e+003,2.644684e+001
1.875341e+003,2.903265e+001
1.876306e+003,3.151923e+001
1.877270e+003,3.096448e+001
1.878234e+003,3.006488e+001
1.879198e+003,3.256451e+001
1.880163e+003,3.654077e+001
1.881127e+003,3.798651e+001
1.882091e+003,3.683032e+001
1.883055e+003,3.578094e+001
1.884020e+003,3.591095e+001
1.884984e+003,3.557349e+001
1.885948e+003,3.319672e+001
1.886912e+003,3.066846e+001
1.887876e+003,3.221558e+001
1.888841e+003,3.737573e+001
1.889805e+003,3.975555e+001
1.890769e+003,3.878699e+001
1.891733e+003,3.813116e+001
1.892698e+003,3.814636e+001
1.893662e+003,3.779077e+001
1.894626e+003,3.616302e+001
1.895590e+003,3.503387e+001
1.896554e+003,3.613794e+001
1.897519e+003,3.833710e+001
1.898483e+003,4.089893e+001
1.899447e+003,4.285840e+001
1.900411e+003,4.139923e+001
1.901376e+003,3.587146e+001
1.902340e+003,3.251337e+001
1.903304e+003,3.455170e+001
1.904268e+003,3.777960e+001
1.905233e+003,4.110156e+001
1.906197e+003,4.323743e+001
1.907161e+003,4.172174e+001
1.908125e+003,3.875977e+001
1.909090e+003,3.825873e+001
1.910054e+003,3.997083e+001
1.911018e+003,4.137250e+001
1.911982e+003,4.171674e+001
1.912947e+003,4.173083e+001
1.913911e+003,4.185974e+001
1.914875e+003,4.256366e+001
1.915839e+003,4.466101e+001
1.916803e+003,4.733026e+001
1.917768e+003,4.719305e+001
1.918732e+003,4.372095e+001
1.919696e+003,4.251782e+001
1.920660e+003,4.489410e+001
1.921625e+003,4.652814e+001
1.922589e+003,4.574835e+001
1.923553e+003,4.485382e+001
1.924517e+003,4.521021e+001
1.925481e+003,4.591449e+001
1.926446e+003,4.590442e+001
1.927410e+003,4.579834e+001
1.928374e+003,4.727240e+001
1.929338e+003,4.999481e+001
1.930303e+003,5.052545e+001
1.931267e+003,4.717596e+001
1.932231e+003,4.580469e+001
1.933195e+003,5.026703e+001
1.934160e+003,5.548071e+001
1.935124e+003,5.914935e+001
1.936088e+003,6.018103e+001
1.937052e+003,5.584546e+001
1.938017e+003,4.901837e+001
1.938981e+003,4.554974e+001
1.939945e+003,4.600800e+001
1.940909e+003,4.723840e+001
1.941874e+003,4.762445e+001
1.942838e+003,4.750690e+001
1.943802e+003,4.737787e+001
1.944766e+003,4.824976e+001
1.945730e+003,5.222516e+001
1.946695e+003,5.833783e+001
1.947659e+003,5.962805e+001
1.948623e+003,5.541705e+001
1.949587e+003,5.349670e+001
1.950552e+003,5.552704e+001
1.951516e+003,5.699542e+001
1.952480e+003,5.601337e+001
1.953444e+003,5.495056e+001
1.954408e+003,5.539172e+001
1.955373e+003,5.634454e+001
1.956337e+003,5.723932e+001
1.957301e+003,5.807135e+001
1.958265e+003,5.725092e+001
1.959230e+003,5.440448e+001
1.960194e+003,5.325842e+001
1.961158e+003,5.579138e+001
1.962122e+003,5.677753e+001
1.963087e+003,5.299316e+001
1.964051e+003,4.979041e+001
1.965015e+003,5.026965e+001
1.965979e+003,5.333960e+001
1.966944e+003,6.020172e+001
1.967908e+003,6.690710e+001
1.968872e+003,6.533734e+001
1.969836e+003,5.697034e+001
1.970801e+003,5.294379e+001
1.971765e+003,5.773639e+001
1.972729e+003,6.349231e+001
1.973693e+003,6.353168e+001
1.974657e+003,6.094641e+001
1.975622e+003,5.928424e+001
1.976586e+003,5.881445e+001
1.977550e+003,6.166119e+001
1.978514e+003,6.701532e+001
1.979479e+003,6.922070e+001
1.980443e+003,6.759589e+001
1.981407e+003,6.725244e+001
1.982371e+003,7.033417e+001
1.983335e+003,7.246832e+001
1.984300e+003,6.996442e+001
1.985264e+003,6.559674e+001
1.986228e+003,6.379272e+001
1.987192e+003,6.412408e+001
1.988157e+003,6.442236e+001
1.989121e+003,6.466248e+001
1.990085e+003,6.568658e+001
1.991049e+003,6.836792e+001
1.992014e+003,7.043317e+001
1.992978e+003,7.136560e+001
1.993942e+003,7.161884e+001
1.994906e+003,7.011865e+001
1.995871e+003,6.927789e+001
1.996835e+003,7.239630e+001
1.997799e+003,7.658594e+001
1.998763e+003,7.677545e+001
1.999728e+003,7.359912e+001
