5.003444e+002,3.600470e+001
5.013087e+002,3.626347e+001
5.022729e+002,3.701122e+001
5.032371e+002,3.810724e+001
5.042014e+002,3.875513e+001
5.051656e+002,3.899818e+001
5.061298e+002,3.858395e+001
5.070941e+002,3.710791e+001
5.080583e+002,3.406062e+001
5.090225e+002,3.256264e+001
5.099868e+002,3.301035e+001
5.109510e+002,3.399789e+001
5.119152e+002,3.517444e+001
5.128795e+002,3.658099e+001
5.138437e+002,3.714403e+001
5.148079e+002,3.585284e+001
5.157722e+002,3.432574e+001
5.167364e+002,3.302461e+001
5.177006e+002,3.205759e+001
5.186649e+002,3.130040e+001
5.196291e+002,3.089502e+001
5.205933e+002,3.072917e+001
5.215576e+002,3.034822e+001
5.225218e+002,2.967278e+001
5.234860e+002,2.904008e+001
5.244503e+002,2.924947e+001
5.254145e+002,3.090877e+001
5.263787e+002,3.129700e+001
5.273430e+002,2.974962e+001
5.283072e+002,2.739310e+001
5.292714e+002,2.562015e+001
5.302357e+002,2.420981e+001
5.311999e+002,2.364775e+001
5.321641e+002,2.487373e+001
5.331284e+002,2.642928e+001
5.340926e+002,2.714786e+001
5.350568e+002,2.651379e+001
5.360211e+002,2.518260e+001
5.369853e+002,2.337109e+001
5.379495e+002,2.172269e+001
5.389138e+002,2.101180e+001
5.398780e+002,2.137428e+001
5.408422e+002,2.208221e+001
5.418065e+002,2.073950e+001
5.427707e+002,1.773904e+001
5.437349e+002,1.608722e+001
5.446992e+002,1.681000e+001
5.456634e+002,1.922565e+001
5.466276e+002,2.100302e+001
5.475919e+002,2.236209e+001
5.485561e+002,2.263101e+001
5.495203e+002,2.063333e+001
5.504846e+002,1.781900e+001
5.514488e+002,1.650873e+001
5.524130e+002,1.843207e+001
5.533773e+002,2.000667e+001
5.543415e+002,1.900203e+001
5.553057e+002,1.697482e+001
5.562700e+002,1.556071e+001
5.572342e+002,1.573488e+001
5.581984e+002,1.657355e+001
5.591627e+002,1.560240e+001
5.601269e+002,1.365814e+001
5.610911e+002,1.237170e+001
5.620554e+002,1.257565e+001
5.630196e+002,1.403090e+001
5.639838e+002,1.505452e+001
5.649481e+002,1.520432e+001
5.659123e+002,1.558060e+001
5.668765e+002,1.748972e+001
5.678408e+002,1.999875e+001
5.688050e+002,1.996835e+001
5.697692e+002,1.349481e+001
5.707335e+002,8.331207e+000
5.716977e+002,7.547836e+000
5.726619e+002,9.251083e+000
5.736262e+002,1.077774e+001
5.745904e+002,1.029706e+001
5.755546e+002,9.311569e+000
5.765189e+002,1.060315e+001
5.774831e+002,1.293652e+001
5.784473e+002,1.415150e+001
5.794116e+002,1.284100e+001
5.803758e+002,9.391266e+000
5.813400e+002,7.729477e+000
5.823043e+002,8.093216e+000
5.832685e+002,8.434372e+000
5.842327e+002,8.235199e+000
5.851970e+002,7.631546e+000
5.861612e+002,6.977325e+000
5.871254e+002,5.922501e+000
5.880897e+002,5.068008e+000
5.890539e+002,4.288391e+000
5.900181e+002,3.762634e+000
5.909824e+002,3.939468e+000
5.919466e+002,5.503769e+000
5.929108e+002,7.058273e+000
5.938751e+002,6.902451e+000
5.948393e+002,5.814331e+000
5.958035e+002,5.115784e+000
5.967678e+002,5.772552e+000
5.977320e+002,7.489822e+000
5.986962e+002,7.222870e+000
5.996605e+002,4.817825e+000
6.006247e+002,2.686707e+000
6.015889e+002,2.118835e+000
6.025532e+002,3.005173e+000
6.035174e+002,3.435928e+000
6.044816e+002,2.222656e+000
6.054459e+002,1.932480e+000
6.064101e+002,3.582382e+000
6.073743e+002,6.297226e+000
6.083386e+002,8.664902e+000
6.093028e+002,1.034660e+001
6.102670e+002,1.061029e+001
6.112313e+002,7.799179e+000
6.121955e+002,3.974579e+000
6.131597e+002,2.122910e+000
6.141240e+002,4.225830e+000
6.150882e+002,8.901962e+000
6.160524e+002,1.005067e+001
6.170167e+002,8.372482e+000
6.179809e+002,6.691803e+000
6.189451e+002,6.284561e+000
6.199094e+002,6.870148e+000
6.208736e+002,6.732254e+000
6.218378e+002,4.651688e+000
6.228021e+002,3.521423e+000
6.237663e+002,4.332169e+000
6.247305e+002,6.097900e+000
6.256948e+002,7.145752e+000
6.266590e+002,6.539886e+000
6.276232e+002,5.478516e+000
6.285875e+002,4.656250e+000
6.295517e+002,4.113144e+000
6.305159e+002,3.898758e+000
6.314802e+002,3.990860e+000
6.324444e+002,4.218994e+000
6.334086e+002,4.473984e+000
6.343729e+002,4.754852e+000
6.353371e+002,4.517197e+000
6.363013e+002,3.430923e+000
6.372656e+002,1.777130e+000
6.382298e+002,6.638489e-001
6.391940e+002,5.346375e-001
6.401583e+002,3.608551e-001
6.411225e+002,6.109467e-001
6.420867e+002,8.223419e-001
6.430510e+002,1.565094e-001
6.440152e+002,-2.087646e+000
6.449794e+002,-3.985306e+000
6.459437e+002,-4.513718e+000
6.469079e+002,-4.400574e+000
6.478721e+002,-3.857880e+000
6.488364e+002,-3.093964e+000
6.498006e+002,-2.573059e+000
6.507648e+002,-3.889954e+000
6.517291e+002,-6.037872e+000
6.526933e+002,-6.075821e+000
6.536575e+002,-3.346939e+000
6.546218e+002,6.245422e-001
6.555860e+002,2.950668e+000
6.565502e+002,2.917084e+000
6.575145e+002,2.351547e+000
6.584787e+002,8.235474e-001
6.594429e+002,-8.003998e-001
6.604072e+002,-1.828568e+000
6.613714e+002,-2.128387e+000
6.623356e+002,-2.243530e+000
6.632999e+002,-2.450836e+000
6.642641e+002,-2.682098e+000
6.652283e+002,-3.038483e+000
6.661926e+002,-3.312622e+000
6.671568e+002,-3.020874e+000
6.681210e+002,-1.500122e+000
6.690853e+002,8.516693e-001
6.700495e+002,3.293869e+000
6.710137e+002,5.729797e+000
6.719780e+002,7.298050e+000
6.729422e+002,6.969482e+000
6.739064e+002,4.251495e+000
6.748707e+002,2.247757e+000
6.758349e+002,1.635178e+000
6.767991e+002,7.184143e-001
6.777634e+002,-1.752441e+000
6.787276e+002,-5.332245e+000
6.796918e+002,-7.322632e+000
6.806561e+002,-5.327789e+000
6.816203e+002,-3.207550e+000
6.825845e+002,-2.463120e+000
6.835488e+002,-2.626587e+000
6.845130e+002,-2.679932e+000
6.854772e+002,-1.813843e+000
6.864415e+002,-5.307770e-001
6.874057e+002,-2.517548e-001
6.883699e+002,-7.651367e-001
6.893342e+002,-1.218689e+000
6.902984e+002,-1.071136e+000
6.912626e+002,-4.643707e-001
6.922269e+002,-6.358490e-001
6.931911e+002,-2.542633e+000
6.941553e+002,-3.581589e+000
6.951196e+002,-3.454498e+000
6.960838e+002,-2.587570e+000
6.970480e+002,-1.417160e+000
6.980123e+002,3.460999e-001
6.989765e+002,1.562958e+000
6.999407e+002,1.641006e+000
7.009050e+002,1.207260e+000
7.018692e+002,6.819000e-001
7.028334e+002,2.241669e-001
7.037977e+002,-3.021393e-001
7.047619e+002,-1.281769e+000
7.057261e+002,-2.251541e+000
7.066904e+002,-2.305450e+000
7.076546e+002,-1.303299e+000
7.086188e+002,2.008057e-001
7.095831e+002,1.393677e+000
7.105473e+002,2.394867e+000
7.115115e+002,2.249115e+000
7.124758e+002,2.491455e-001
7.134400e+002,-2.006989e+000
7.144042e+002,-3.638184e+000
7.153685e+002,-4.547104e+000
7.163327e+002,-5.053802e+000
7.172969e+002,-5.066681e+000
7.182612e+002,-4.838333e+000
7.192254e+002,-4.569611e+000
7.201896e+002,-4.183838e+000
7.211539e+002,-3.362442e+000
7.221181e+002,-1.731842e+000
7.230823e+002,1.609497e-001
7.240466e+002,9.761353e-001
7.250108e+002,9.690399e-001
7.259750e+002,4.613953e-001
7.269393e+002,-5.606384e-001
7.279035e+002,-2.096481e+000
7.288677e+002,-3.165390e+000
7.298320e+002,-3.760406e+000
7.307962e+002,-3.313522e+000
7.317604e+002,-4.644318e-001
7.327247e+002,2.966766e+000
7.336889e+002,4.032516e+000
7.346531e+002,1.055130e+000
7.356174e+002,-1.844757e+000
7.365816e+002,-1.989441e+000
7.375458e+002,-1.049500e+000
7.385101e+002,1.385498e-002
7.394743e+002,7.595062e-001
7.404385e+002,1.081741e+000
7.414028e+002,5.649719e-001
7.423670e+002,-7.418518e-001
7.433312e+002,-1.464508e+000
7.442955e+002,-1.318954e+000
7.452597e+002,-6.498871e-001
7.462239e+002,1.193085e-001
7.471882e+002,9.768066e-001
7.481524e+002,1.728348e+000
7.491166e+002,2.286423e+000
7.500809e+002,2.539551e+000
7.510451e+002,2.537003e+000
7.520093e+002,2.217331e+000
7.529736e+002,1.239517e+000
7.539378e+002,-1.342377e+000
7.549020e+002,-2.991241e+000
7.558663e+002,-1.222046e+000
7.568306e+002,1.985001e+000
7.577948e+002,3.554291e+000
7.587590e+002,1.728287e+000
7.597233e+002,-1.851517e+000
7.606875e+002,-1.461472e+000
7.616517e+002,2.414032e+000
7.626160e+002,5.047562e+000
7.635802e+002,5.003738e+000
7.645444e+002,3.401688e+000
7.655087e+002,2.463333e+000
7.664729e+002,2.305283e+000
7.674371e+002,2.599609e+000
7.684014e+002,4.095108e+000
7.693656e+002,5.238541e+000
7.703298e+002,4.685013e+000
7.712941e+002,2.485916e+000
7.722583e+002,5.402069e-001
7.732225e+002,4.714355e-001
7.741868e+002,1.010132e+000
7.751510e+002,1.179138e+000
7.761152e+002,1.080124e+000
7.770795e+002,1.185593e+000
7.780437e+002,1.902863e+000
7.790079e+002,3.086136e+000
7.799722e+002,3.795166e+000
7.809364e+002,4.106400e+000
7.819006e+002,3.997711e+000
7.828649e+002,3.177078e+000
7.838291e+002,2.027847e+000
7.847933e+002,1.657639e+000
7.857576e+002,2.236816e+000
7.867218e+002,3.143265e+000
7.876860e+002,5.403000e+000
7.886503e+002,7.325287e+000
7.896145e+002,6.885864e+000
7.905787e+002,3.793701e+000
7.915430e+002,9.125824e-001
7.925072e+002,1.948975e+000
7.934714e+002,4.362488e+000
7.944357e+002,5.801392e+000
7.953999e+002,6.056305e+000
7.963641e+002,5.435547e+000
7.973284e+002,4.148880e+000
7.982926e+002,2.078766e+000
7.992568e+002,2.091583e+000
8.002211e+002,5.401306e+000
8.011853e+002,7.678329e+000
8.021495e+002,6.903183e+000
8.031138e+002,4.083511e+000
8.040780e+002,2.271927e+000
8.050422e+002,1.863724e+000
8.060065e+002,2.609207e+000
8.069707e+002,5.528122e+000
8.079349e+002,8.577393e+000
8.088992e+002,9.694153e+000
8.098634e+002,8.285385e+000
8.108276e+002,5.785400e+000
8.117919e+002,3.554855e+000
8.127561e+002,1.731506e+000
8.137203e+002,1.167496e+000
8.146846e+002,2.056534e+000
8.156488e+002,3.653412e+000
8.166130e+002,5.072861e+000
8.175773e+002,6.427383e+000
8.185415e+002,6.658051e+000
8.195057e+002,5.028992e+000
8.204700e+002,3.215088e+000
8.214342e+002,1.105026e+000
8.223984e+002,-7.478180e-001
8.233627e+002,-7.819214e-001
8.243269e+002,2.566666e+000
8.252911e+002,5.872452e+000
8.262554e+002,7.235687e+000
8.272196e+002,7.494812e+000
8.281838e+002,7.263855e+000
8.291481e+002,6.897614e+000
8.301123e+002,6.603653e+000
8.310765e+002,6.826843e+000
8.320408e+002,7.472290e+000
8.330050e+002,7.831451e+000
8.339692e+002,7.997269e+000
8.349335e+002,7.579620e+000
8.358977e+002,5.745499e+000
8.368619e+002,2.120148e+000
8.378262e+002,3.505554e-001
8.387904e+002,2.338837e+000
8.397546e+002,3.924225e+000
8.407189e+002,3.826675e+000
8.416831e+002,2.720337e+000
8.426473e+002,1.844620e+000
8.436116e+002,1.713394e+000
8.445758e+002,2.166595e+000
8.455400e+002,3.295929e+000
8.465043e+002,4.487274e+000
8.474685e+002,5.148041e+000
8.484327e+002,5.223267e+000
8.493970e+002,5.076752e+000
8.503612e+002,5.163834e+000
8.513254e+002,5.460648e+000
8.522897e+002,5.916229e+000
8.532539e+002,6.623230e+000
8.542181e+002,7.202728e+000
8.551824e+002,7.515656e+000
8.561466e+002,7.702057e+000
8.571108e+002,7.986511e+000
8.580751e+002,7.932526e+000
8.590393e+002,8.084442e+000
8.600035e+002,8.986053e+000
8.609678e+002,1.018015e+001
8.619320e+002,1.104549e+001
8.628962e+002,1.134430e+001
8.638605e+002,1.157661e+001
8.648247e+002,1.272446e+001
8.657889e+002,1.428136e+001
8.667532e+002,1.519148e+001
8.677174e+002,1.531393e+001
8.686816e+002,1.500475e+001
8.696459e+002,1.456613e+001
8.706101e+002,1.391174e+001
8.715743e+002,1.434190e+001
8.725386e+002,1.752817e+001
8.735028e+002,1.962251e+001
8.744670e+002,1.884587e+001
8.754313e+002,1.634241e+001
8.763955e+002,1.431088e+001
8.773597e+002,1.344867e+001
8.783240e+002,1.341734e+001
8.792882e+002,1.432729e+001
8.802524e+002,1.549501e+001
8.812167e+002,1.612663e+001
8.821809e+002,1.624817e+001
8.831451e+002,1.685329e+001
8.841094e+002,1.940399e+001
8.850736e+002,2.374681e+001
8.860378e+002,2.515823e+001
8.870021e+002,2.295332e+001
8.879663e+002,2.051700e+001
8.889305e+002,1.949167e+001
8.898948e+002,1.967461e+001
8.908590e+002,2.033279e+001
8.918232e+002,2.226994e+001
8.927875e+002,2.342418e+001
8.937517e+002,2.271883e+001
8.947159e+002,2.163467e+001
8.956802e+002,2.131291e+001
8.966444e+002,2.194301e+001
8.976086e+002,2.289827e+001
8.985729e+002,2.376962e+001
8.995371e+002,2.464243e+001
9.005013e+002,2.562698e+001
9.014656e+002,2.670720e+001
9.024298e+002,2.759702e+001
9.033940e+002,2.799593e+001
9.043583e+002,2.786328e+001
9.053225e+002,2.761671e+001
9.062867e+002,2.691554e+001
9.072510e+002,2.639293e+001
9.082152e+002,2.623895e+001
9.091794e+002,2.641550e+001
9.101437e+002,2.695123e+001
9.111079e+002,2.784433e+001
9.120721e+002,2.865527e+001
9.130364e+002,2.931563e+001
9.140006e+002,2.938972e+001
9.149648e+002,2.811365e+001
9.159291e+002,2.624232e+001
9.168933e+002,2.518848e+001
9.178575e+002,2.587491e+001
9.188218e+002,2.770381e+001
9.197860e+002,2.888232e+001
9.207502e+002,2.936676e+001
9.217145e+002,2.960155e+001
9.226787e+002,2.993672e+001
9.236429e+002,3.007573e+001
9.246072e+002,2.929459e+001
9.255714e+002,2.720714e+001
9.265356e+002,2.576715e+001
9.274999e+002,2.621475e+001
9.284641e+002,2.625545e+001
9.294283e+002,2.464616e+001
9.303926e+002,2.224681e+001
9.313568e+002,2.062665e+001
9.323210e+002,2.059982e+001
9.332853e+002,2.135962e+001
9.342495e+002,2.190863e+001
9.352137e+002,2.228033e+001
9.361780e+002,2.274014e+001
9.371422e+002,2.341122e+001
9.381064e+002,2.370856e+001
9.390707e+002,2.255400e+001
9.400349e+002,1.936880e+001
9.409991e+002,1.788068e+001
9.419634e+002,1.955089e+001
9.429276e+002,2.074289e+001
9.438918e+002,2.025061e+001
9.448561e+002,1.881636e+001
9.458203e+002,1.765512e+001
9.467845e+002,1.708653e+001
9.477488e+002,1.703590e+001
9.487130e+002,1.761475e+001
9.496772e+002,1.850253e+001
9.506415e+002,1.978178e+001
9.516057e+002,2.120796e+001
9.525699e+002,2.205687e+001
9.535342e+002,2.158574e+001
9.544984e+002,1.998415e+001
9.554626e+002,1.930280e+001
9.564269e+002,1.968460e+001
9.573911e+002,2.060716e+001
9.583553e+002,2.270451e+001
9.593196e+002,2.486653e+001
9.602838e+002,2.497484e+001
9.612480e+002,2.230313e+001
9.622123e+002,2.014938e+001
9.631765e+002,1.979143e+001
9.641407e+002,1.988623e+001
9.651050e+002,2.016602e+001
9.660692e+002,2.028108e+001
9.670334e+002,1.969818e+001
9.679977e+002,1.812230e+001
9.689619e+002,1.636240e+001
9.699261e+002,1.619539e+001
9.708904e+002,1.703542e+001
9.718546e+002,1.749272e+001
9.728188e+002,1.713028e+001
9.737831e+002,1.666316e+001
9.747473e+002,1.710703e+001
9.757115e+002,1.865175e+001
9.766758e+002,2.031664e+001
9.776400e+002,2.290900e+001
9.786042e+002,2.481683e+001
9.795685e+002,2.542499e+001
9.805327e+002,2.505356e+001
9.814969e+002,2.411853e+001
9.824612e+002,2.282384e+001
9.834254e+002,2.152554e+001
9.843896e+002,2.046024e+001
9.853539e+002,1.943408e+001
9.863181e+002,1.817053e+001
9.872823e+002,1.667947e+001
9.882466e+002,1.532352e+001
9.892108e+002,1.452290e+001
9.901750e+002,1.436964e+001
9.911393e+002,1.446959e+001
9.921035e+002,1.485706e+001
9.930677e+002,1.480672e+001
9.940320e+002,1.387437e+001
9.949962e+002,1.303101e+001
9.959604e+002,1.323598e+001
9.969247e+002,1.454715e+001
9.978889e+002,1.610599e+001
9.988531e+002,1.749812e+001
9.998174e+002,1.874370e+001
1.000782e+003,2.029514e+001
1.001746e+003,2.175446e+001
1.002710e+003,2.237547e+001
1.003674e+003,2.189122e+001
1.004639e+003,2.080788e+001
1.005603e+003,1.990965e+001
1.006567e+003,1.918898e+001
1.007531e+003,2.017293e+001
1.008495e+003,2.401770e+001
1.009460e+003,2.725528e+001
1.010424e+003,2.761415e+001
1.011388e+003,2.569374e+001
1.012352e+003,2.365292e+001
1.013317e+003,2.117838e+001
1.014281e+003,1.966888e+001
1.015245e+003,2.059521e+001
1.016209e+003,2.143176e+001
1.017174e+003,1.977528e+001
1.018138e+003,1.606781e+001
1.019102e+003,1.309778e+001
1.020066e+003,1.334486e+001
1.021031e+003,1.534550e+001
1.021995e+003,1.431993e+001
1.022959e+003,1.082635e+001
1.023923e+003,7.802017e+000
1.024887e+003,6.121765e+000
1.025852e+003,5.428680e+000
1.026816e+003,5.472244e+000
1.027780e+003,6.698135e+000
1.028744e+003,6.926468e+000
1.029709e+003,5.032120e+000
1.030673e+003,3.212158e+000
1.031637e+003,1.908310e+000
1.032601e+003,1.086044e+000
1.033566e+003,8.793945e-001
1.034530e+003,1.320648e+000
1.035494e+003,1.577606e+000
1.036458e+003,2.617645e-001
1.037422e+003,-1.624741e+000
1.038387e+003,-2.105591e+000
1.039351e+003,-1.311615e+000
1.040315e+003,-8.931580e-001
1.041279e+003,-2.212112e+000
1.042244e+003,-4.612152e+000
1.043208e+003,-4.919296e+000
1.044172e+003,-1.159470e+000
1.045136e+003,1.136658e+000
1.046101e+003,8.121796e-001
1.047065e+003,2.192383e-001
1.048029e+003,9.190216e-001
1.048993e+003,2.672668e+000
1.049958e+003,4.253876e+000
1.050922e+003,5.272705e+000
1.051886e+003,5.667084e+000
1.052850e+003,4.720932e+000
1.053814e+003,3.451965e+000
1.054779e+003,3.546112e+000
1.055743e+003,5.148941e+000
1.056707e+003,6.565689e+000
1.057671e+003,5.661987e+000
1.058636e+003,2.395920e+000
1.059600e+003,9.962769e-001
1.060564e+003,3.673767e+000
1.061528e+003,5.168091e+000
1.062493e+003,3.390961e+000
1.063457e+003,8.294067e-001
1.064421e+003,7.128448e-001
1.065385e+003,3.373795e+000
1.066349e+003,5.274033e+000
1.067314e+003,4.148193e+000
1.068278e+003,2.236404e+000
1.069242e+003,6.086121e-001
1.070206e+003,-4.320374e-001
1.071171e+003,-4.805450e-001
1.072135e+003,5.367889e-001
1.073099e+003,2.258469e+000
1.074063e+003,4.241394e+000
1.075028e+003,6.640686e+000
1.075992e+003,7.318146e+000
1.076956e+003,5.372955e+000
1.077920e+003,3.400543e+000
1.078885e+003,2.291809e+000
1.079849e+003,1.924011e+000
1.080813e+003,2.128754e+000
1.081777e+003,3.016220e+000
1.082741e+003,3.838409e+000
1.083706e+003,4.024933e+000
1.084670e+003,3.989929e+000
1.085634e+003,4.036972e+000
1.086598e+003,4.021088e+000
1.087563e+003,3.542023e+000
1.088527e+003,2.471970e+000
1.089491e+003,1.321518e+000
1.090455e+003,9.555359e-001
1.091420e+003,1.399017e+000
1.092384e+003,1.883545e+000
1.093348e+003,2.207489e+000
1.094312e+003,2.776077e+000
1.095276e+003,4.834839e+000
1.096241e+003,7.418320e+000
1.097205e+003,6.805786e+000
1.098169e+003,8.892059e-001
1.099133e+003,-3.566666e+000
1.100098e+003,-3.005051e+000
1.101062e+003,-1.189224e+000
1.102026e+003,3.500366e-002
1.102990e+003,4.851837e-001
1.103955e+003,5.996094e-001
1.104919e+003,6.288300e-001
1.105883e+003,3.741302e-001
1.106847e+003,-8.440247e-001
1.107812e+003,-2.980820e+000
1.108776e+003,-2.971039e+000
1.109740e+003,3.017273e-001
1.110704e+003,3.680023e+000
1.111668e+003,4.943756e+000
1.112633e+003,4.545135e+000
1.113597e+003,4.122467e+000
1.114561e+003,3.754227e+000
1.115525e+003,3.305649e+000
1.116490e+003,2.114944e+000
1.117454e+003,1.376572e+000
1.118418e+003,2.373428e+000
1.119382e+003,4.585663e+000
1.120347e+003,6.502151e+000
1.121311e+003,7.119278e+000
1.122275e+003,6.822708e+000
1.123239e+003,6.660614e+000
1.124203e+003,6.695404e+000
1.125168e+003,6.059372e+000
1.126132e+003,4.299393e+000
1.127096e+003,2.966537e+000
1.128060e+003,3.478729e+000
1.129025e+003,5.394974e+000
1.129989e+003,6.719879e+000
1.130953e+003,6.902191e+000
1.131917e+003,7.369293e+000
1.132882e+003,8.906998e+000
1.133846e+003,1.049718e+001
1.134810e+003,1.140927e+001
1.135774e+003,1.187561e+001
1.136739e+003,1.259315e+001
1.137703e+003,1.394197e+001
1.138667e+003,1.554065e+001
1.139631e+003,1.675569e+001
1.140595e+003,1.759543e+001
1.141560e+003,1.835097e+001
1.142524e+003,1.887221e+001
1.143488e+003,2.018733e+001
1.144452e+003,2.322386e+001
1.145417e+003,2.758266e+001
1.146381e+003,3.181964e+001
1.147345e+003,3.579689e+001
1.148309e+003,3.981847e+001
1.149274e+003,4.383456e+001
1.150238e+003,4.813992e+001
1.151202e+003,5.304211e+001
1.152166e+003,5.842299e+001
1.153130e+003,6.408603e+001
1.154095e+003,6.980801e+001
1.155059e+003,7.527676e+001
1.156023e+003,8.067426e+001
1.156987e+003,8.540295e+001
1.157952e+003,8.585628e+001
1.158916e+003,8.154688e+001
1.159880e+003,7.699016e+001
1.160844e+003,7.515088e+001
1.161809e+003,7.413075e+001
1.162773e+003,6.953922e+001
1.163737e+003,6.041447e+001
1.164701e+003,5.204703e+001
1.165666e+003,4.610312e+001
1.166630e+003,4.099712e+001
1.167594e+003,3.618538e+001
1.168558e+003,3.182249e+001
1.169522e+003,2.812279e+001
1.170487e+003,2.520699e+001
1.171451e+003,2.335904e+001
1.172415e+003,2.303632e+001
1.173379e+003,2.382063e+001
1.174344e+003,2.347282e+001
1.175308e+003,2.195628e+001
1.176272e+003,2.085916e+001
1.177236e+003,2.147168e+001
1.178201e+003,2.222276e+001
1.179165e+003,2.042340e+001
1.180129e+003,1.594905e+001
1.181093e+003,1.328891e+001
1.182057e+003,1.454523e+001
1.183022e+003,1.614174e+001
1.183986e+003,1.705144e+001
1.184950e+003,1.742445e+001
1.185914e+003,1.743834e+001
1.186879e+003,1.714854e+001
1.187843e+003,1.634596e+001
1.188807e+003,1.479832e+001
1.189771e+003,1.300252e+001
1.190736e+003,1.274002e+001
1.191700e+003,1.420734e+001
1.192664e+003,1.508275e+001
1.193628e+003,1.465930e+001
1.194593e+003,1.439821e+001
1.195557e+003,1.598567e+001
1.196521e+003,1.858340e+001
1.197485e+003,1.913701e+001
1.198449e+003,1.678310e+001
1.199414e+003,1.372694e+001
1.200378e+003,9.619873e+000
1.201342e+003,6.375580e+000
1.202306e+003,5.595535e+000
1.203271e+003,6.586075e+000
1.204235e+003,7.967911e+000
1.205199e+003,8.977524e+000
1.206163e+003,9.592651e+000
1.207128e+003,9.755051e+000
1.208092e+003,9.463882e+000
1.209056e+003,8.424667e+000
1.210020e+003,6.086731e+000
1.210984e+003,4.237137e+000
1.211949e+003,3.752075e+000
1.212913e+003,3.752441e+000
1.213877e+003,3.257813e+000
1.214841e+003,2.207962e+000
1.215806e+003,6.190491e-001
1.216770e+003,-2.167847e+000
1.217734e+003,-4.463486e+000
1.218698e+003,-4.514481e+000
1.219663e+003,-3.920685e+000
1.220627e+003,-4.904282e+000
1.221591e+003,-7.599121e+000
1.222555e+003,-1.024301e+001
1.223520e+003,-1.117517e+001
1.224484e+003,-1.076067e+001
1.225448e+003,-1.095197e+001
1.226412e+003,-1.243501e+001
1.227376e+003,-1.296950e+001
1.228341e+003,-1.195729e+001
1.229305e+003,-1.076978e+001
1.230269e+003,-9.845169e+000
1.231233e+003,-9.366211e+000
1.232198e+003,-9.709808e+000
1.233162e+003,-1.097217e+001
1.234126e+003,-1.232169e+001
1.235090e+003,-1.325308e+001
1.236055e+003,-1.401300e+001
1.237019e+003,-1.523181e+001
1.237983e+003,-1.650563e+001
1.238947e+003,-1.649083e+001
1.239911e+003,-1.460976e+001
1.240876e+003,-1.216110e+001
1.241840e+003,-1.119644e+001
1.242804e+003,-1.183263e+001
1.243768e+003,-1.171094e+001
1.244733e+003,-9.117538e+000
1.245697e+003,-8.116333e+000
1.246661e+003,-1.071716e+001
1.247625e+003,-1.363353e+001
1.248590e+003,-1.441840e+001
1.249554e+003,-1.320102e+001
1.250518e+003,-1.103835e+001
1.251482e+003,-8.300858e+000
1.252447e+003,-6.336349e+000
1.253411e+003,-7.365997e+000
1.254375e+003,-9.939911e+000
1.255339e+003,-1.110530e+001
1.256303e+003,-1.070583e+001
1.257268e+003,-9.561981e+000
1.258232e+003,-7.939926e+000
1.259196e+003,-6.322220e+000
1.260160e+003,-5.703598e+000
1.261125e+003,-6.249573e+000
1.262089e+003,-6.287933e+000
1.263053e+003,-4.877853e+000
1.264017e+003,-4.107574e+000
1.264982e+003,-4.660889e+000
1.265946e+003,-5.852783e+000
1.266910e+003,-7.762711e+000
1.267874e+003,-9.705444e+000
1.268839e+003,-9.606003e+000
1.269803e+003,-6.022629e+000
1.270767e+003,-1.528824e+000
1.271731e+003,-1.589111e+000
1.272695e+003,-5.976135e+000
1.273660e+003,-7.615479e+000
1.274624e+003,-5.325577e+000
1.275588e+003,-3.364105e+000
1.276552e+003,-4.351868e+000
1.277517e+003,-6.866547e+000
1.278481e+003,-8.389328e+000
1.279445e+003,-8.769211e+000
1.280409e+003,-8.830734e+000
1.281374e+003,-8.454620e+000
1.282338e+003,-8.292465e+000
1.283302e+003,-8.987732e+000
1.284266e+003,-9.893280e+000
1.285230e+003,-1.031334e+001
1.286195e+003,-1.013654e+001
1.287159e+003,-9.522369e+000
1.288123e+003,-8.561905e+000
1.289087e+003,-7.507675e+000
1.290052e+003,-7.316223e+000
1.291016e+003,-8.353348e+000
1.291980e+003,-9.246613e+000
1.292944e+003,-1.011674e+001
1.293909e+003,-1.085287e+001
1.294873e+003,-1.150497e+001
1.295837e+003,-1.181967e+001
1.296801e+003,-1.127962e+001
1.297766e+003,-9.905426e+000
1.298730e+003,-8.657028e+000
1.299694e+003,-8.004730e+000
1.300658e+003,-7.868347e+000
1.301622e+003,-8.296768e+000
1.302587e+003,-8.997650e+000
1.303551e+003,-9.470474e+000
1.304515e+003,-9.641113e+000
1.305479e+003,-1.005170e+001
1.306444e+003,-1.131261e+001
1.307408e+003,-1.301343e+001
1.308372e+003,-1.358122e+001
1.309336e+003,-1.269533e+001
1.310301e+003,-1.165825e+001
1.311265e+003,-1.025504e+001
1.312229e+003,-8.968353e+000
1.313193e+003,-7.931564e+000
1.314157e+003,-7.132385e+000
1.315122e+003,-6.551895e+000
1.316086e+003,-6.210251e+000
1.317050e+003,-6.061508e+000
1.318014e+003,-6.016144e+000
1.318979e+003,-6.351639e+000
1.319943e+003,-8.009766e+000
1.320907e+003,-1.066264e+001
1.321871e+003,-1.172118e+001
1.322836e+003,-1.085112e+001
1.323800e+003,-9.621796e+000
1.324764e+003,-8.539047e+000
1.325728e+003,-7.743851e+000
1.326693e+003,-7.600601e+000
1.327657e+003,-8.171356e+000
1.328621e+003,-8.875916e+000
1.329585e+003,-9.579910e+000
1.330549e+003,-9.902786e+000
1.331514e+003,-9.634796e+000
1.332478e+003,-9.310562e+000
1.333442e+003,-9.541626e+000
1.334406e+003,-1.012074e+001
1.335371e+003,-1.021054e+001
1.336335e+003,-9.332520e+000
1.337299e+003,-8.104752e+000
1.338263e+003,-7.759903e+000
1.339228e+003,-8.436722e+000
1.340192e+003,-8.651550e+000
1.341156e+003,-7.662766e+000
1.342120e+003,-7.337280e+000
1.343084e+003,-8.610138e+000
1.344049e+003,-1.018060e+001
1.345013e+003,-1.105940e+001
1.345977e+003,-1.117798e+001
1.346941e+003,-1.069710e+001
1.347906e+003,-9.648285e+000
1.348870e+003,-8.524994e+000
1.349834e+003,-7.718689e+000
1.350798e+003,-7.262222e+000
1.351763e+003,-7.199509e+000
1.352727e+003,-7.416885e+000
1.353691e+003,-7.306274e+000
1.354655e+003,-6.512299e+000
1.355620e+003,-5.756775e+000
1.356584e+003,-6.144592e+000
1.357548e+003,-7.448151e+000
1.358512e+003,-7.662857e+000
1.359476e+003,-6.073517e+000
1.360441e+003,-5.393890e+000
1.361405e+003,-7.776154e+000
1.362369e+003,-9.540009e+000
1.363333e+003,-7.689789e+000
1.364298e+003,-4.641251e+000
1.365262e+003,-4.281754e+000
1.366226e+003,-7.157837e+000
1.367190e+003,-1.029010e+001
1.368155e+003,-1.102101e+001
1.369119e+003,-1.006387e+001
1.370083e+003,-9.643356e+000
1.371047e+003,-9.988678e+000
1.372011e+003,-9.640625e+000
1.372976e+003,-8.059464e+000
1.373940e+003,-6.706116e+000
1.374904e+003,-5.893234e+000
1.375868e+003,-5.669052e+000
1.376833e+003,-6.485321e+000
1.377797e+003,-8.151840e+000
1.378761e+003,-9.281189e+000
1.379725e+003,-9.213882e+000
1.380690e+003,-8.606781e+000
1.381654e+003,-7.578751e+000
1.382618e+003,-6.680252e+000
1.383582e+003,-7.184586e+000
1.384547e+003,-8.846344e+000
1.385511e+003,-9.567123e+000
1.386475e+003,-8.194824e+000
1.387439e+003,-5.874619e+000
1.388403e+003,-4.087860e+000
1.389368e+003,-2.845612e+000
1.390332e+003,-2.566727e+000
1.391296e+003,-3.619003e+000
1.392260e+003,-4.837448e+000
1.393225e+003,-6.653458e+000
1.394189e+003,-7.861298e+000
1.395153e+003,-7.431412e+000
1.396117e+003,-6.073273e+000
1.397082e+003,-4.746552e+000
1.398046e+003,-3.814148e+000
1.399010e+003,-3.203445e+000
1.399974e+003,-2.897552e+000
1.400938e+003,-3.059967e+000
1.401903e+003,-4.040344e+000
1.402867e+003,-6.050797e+000
1.403831e+003,-6.801575e+000
1.404795e+003,-5.319855e+000
1.405760e+003,-4.157669e+000
1.406724e+003,-4.756989e+000
1.407688e+003,-6.004608e+000
1.408652e+003,-6.475891e+000
1.409617e+003,-6.051682e+000
1.410581e+003,-5.236801e+000
1.411545e+003,-4.087143e+000
1.412509e+003,-3.405579e+000
1.413474e+003,-4.785263e+000
1.414438e+003,-6.736221e+000
1.415402e+003,-6.055893e+000
1.416366e+003,-3.180695e+000
1.417330e+003,-1.602676e+000
1.418295e+003,-2.903229e+000
1.419259e+003,-5.067566e+000
1.420223e+003,-5.835480e+000
1.421187e+003,-5.474396e+000
1.422152e+003,-5.309570e+000
1.423116e+003,-5.252579e+000
1.424080e+003,-5.492645e+000
1.425044e+003,-7.106018e+000
1.426009e+003,-8.053864e+000
1.426973e+003,-7.224396e+000
1.427937e+003,-5.412735e+000
1.428901e+003,-3.070831e+000
1.429865e+003,-6.752167e-001
1.430830e+003,7.670441e-001
1.431794e+003,5.785522e-001
1.432758e+003,-6.026611e-001
1.433722e+003,-1.448944e+000
1.434687e+003,-1.852234e+000
1.435651e+003,-1.789139e+000
1.436615e+003,-1.209320e+000
1.437579e+003,-7.973480e-001
1.438544e+003,-9.030609e-001
1.439508e+003,-8.231354e-001
1.440472e+003,3.435516e-001
1.441436e+003,1.993820e+000
1.442401e+003,2.873734e+000
1.443365e+003,2.679398e+000
1.444329e+003,2.034363e+000
1.445293e+003,1.353714e+000
1.446257e+003,7.105408e-001
1.447222e+003,1.304016e-001
1.448186e+003,-3.567047e-001
1.449150e+003,-3.979340e-001
1.450114e+003,1.371460e-001
1.451079e+003,5.934906e-001
1.452043e+003,7.339935e-001
1.453007e+003,6.555481e-001
1.453971e+003,3.812561e-001
1.454936e+003,-9.953308e-002
1.455900e+003,-8.218384e-001
1.456864e+003,-2.104218e+000
1.457828e+003,-2.337646e+000
1.458792e+003,1.147995e+000
1.459757e+003,4.365891e+000
1.460721e+003,2.995453e+000
1.461685e+003,-8.681641e-001
1.462649e+003,-2.584793e+000
1.463614e+003,-1.020706e+000
1.464578e+003,1.248230e+000
1.465542e+003,2.088837e+000
1.466506e+003,1.594482e+000
1.467471e+003,-3.415222e-001
1.468435e+003,-4.388641e+000
1.469399e+003,-6.026459e+000
1.470363e+003,-3.070465e+000
1.471328e+003,-5.970917e-001
1.472292e+003,2.195435e-001
1.473256e+003,9.747314e-002
1.474220e+003,-7.893066e-001
1.475184e+003,-1.864716e+000
1.476149e+003,-2.393082e+000
1.477113e+003,-2.192017e+000
1.478077e+003,-1.656082e+000
1.479041e+003,-1.104538e+000
1.480006e+003,-3.742523e-001
1.480970e+003,9.600677e-001
1.481934e+003,3.216812e+000
1.482898e+003,4.261337e+000
1.483863e+003,3.118698e+000
1.484827e+003,2.236069e+000
1.485791e+003,2.551086e+000
1.486755e+003,3.269989e+000
1.487719e+003,3.797150e+000
1.488684e+003,3.977036e+000
1.489648e+003,3.358078e+000
1.490612e+003,1.916153e+000
1.491576e+003,1.620026e+000
1.492541e+003,4.463516e+000
1.493505e+003,8.715149e+000
1.494469e+003,1.054312e+001
1.495433e+003,1.023596e+001
1.496398e+003,9.743576e+000
1.497362e+003,9.164017e+000
1.498326e+003,9.242386e+000
1.499290e+003,1.050163e+001
1.500255e+003,1.251073e+001
1.501219e+003,1.485544e+001
1.502183e+003,1.741536e+001
1.503147e+003,1.971768e+001
1.504111e+003,2.157948e+001
1.505076e+003,2.355862e+001
1.506040e+003,2.571414e+001
1.507004e+003,2.849786e+001
1.507968e+003,3.281590e+001
1.508933e+003,3.788370e+001
1.509897e+003,4.179996e+001
1.510861e+003,4.444348e+001
1.511825e+003,4.797180e+001
1.512790e+003,5.402983e+001
1.513754e+003,6.133342e+001
1.514718e+003,6.741196e+001
1.515682e+003,7.219223e+001
1.516646e+003,7.786444e+001
1.517611e+003,8.504387e+001
1.518575e+003,9.226875e+001
1.519539e+003,1.004036e+002
1.520503e+003,1.072615e+002
1.521468e+003,1.114191e+002
1.522432e+003,1.136310e+002
1.523396e+003,1.148658e+002
1.524360e+003,1.153873e+002
1.525325e+003,1.153869e+002
1.526289e+003,1.150106e+002
1.527253e+003,1.132585e+002
1.528217e+003,1.079109e+002
1.529182e+003,9.897258e+001
1.530146e+003,9.249092e+001
1.531110e+003,9.064175e+001
1.532074e+003,8.700499e+001
1.533039e+003,8.045412e+001
1.534003e+003,7.258760e+001
1.534967e+003,6.336012e+001
1.535931e+003,5.408131e+001
1.536896e+003,4.603174e+001
1.537860e+003,3.928746e+001
1.538824e+003,3.301878e+001
1.539788e+003,2.679781e+001
1.540752e+003,2.139980e+001
1.541717e+003,1.793663e+001
1.542681e+003,1.616742e+001
1.543645e+003,1.412465e+001
1.544609e+003,1.153815e+001
1.545573e+003,9.664444e+000
1.546538e+003,8.684540e+000
1.547502e+003,7.907150e+000
1.548466e+003,7.061523e+000
1.549430e+003,6.527039e+000
1.550395e+003,6.742035e+000
1.551359e+003,7.504150e+000
1.552323e+003,8.316223e+000
1.553287e+003,8.997879e+000
1.554252e+003,9.588516e+000
1.555216e+003,1.015338e+001
1.556180e+003,1.052766e+001
1.557144e+003,1.041701e+001
1.558109e+003,9.822662e+000
1.559073e+003,8.141479e+000
1.560037e+003,4.066391e+000
1.561001e+003,1.403275e+000
1.561966e+003,2.784637e+000
1.562930e+003,5.010773e+000
1.563894e+003,4.778595e+000
1.564858e+003,3.003937e+000
1.565823e+003,2.311783e+000
1.566787e+003,3.175827e+000
1.567751e+003,4.338242e+000
1.568715e+003,5.192505e+000
1.569679e+003,5.895508e+000
1.570644e+003,6.738220e+000
1.571608e+003,7.441452e+000
1.572572e+003,7.258896e+000
1.573536e+003,6.198364e+000
1.574500e+003,5.426483e+000
1.575465e+003,5.143219e+000
1.576429e+003,5.472992e+000
1.577393e+003,7.206573e+000
1.578357e+003,9.279037e+000
1.579322e+003,9.347061e+000
1.580286e+003,7.453476e+000
1.581250e+003,6.033127e+000
1.582214e+003,5.932983e+000
1.583179e+003,5.964661e+000
1.584143e+003,4.820236e+000
1.585107e+003,3.671509e+000
1.586071e+003,4.577515e+000
1.587036e+003,6.896149e+000
1.588000e+003,8.286697e+000
1.588964e+003,8.159851e+000
1.589928e+003,7.632080e+000
1.590893e+003,7.092468e+000
1.591857e+003,6.926468e+000
1.592821e+003,8.129181e+000
1.593785e+003,1.036559e+001
1.594750e+003,1.151497e+001
1.595714e+003,1.115393e+001
1.596678e+003,1.049181e+001
1.597642e+003,9.665939e+000
1.598606e+003,9.223068e+000
1.599571e+003,9.964722e+000
1.600535e+003,1.114784e+001
1.601499e+003,1.169296e+001
1.602463e+003,1.164883e+001
1.603427e+003,1.194514e+001
1.604392e+003,1.304832e+001
1.605356e+003,1.393350e+001
1.606320e+003,1.333659e+001
1.607284e+003,1.180428e+001
1.608249e+003,1.061362e+001
1.609213e+003,9.740845e+000
1.610177e+003,1.058617e+001
1.611141e+003,1.462651e+001
1.612106e+003,1.728180e+001
1.613070e+003,1.451515e+001
1.614034e+003,1.118918e+001
1.614998e+003,1.115538e+001
1.615963e+003,1.286932e+001
1.616927e+003,1.346782e+001
1.617891e+003,1.254823e+001
1.618855e+003,1.146107e+001
1.619820e+003,1.090527e+001
1.620784e+003,1.079813e+001
1.621748e+003,1.148811e+001
1.622712e+003,1.284195e+001
1.623677e+003,1.317154e+001
1.624641e+003,1.227612e+001
1.625605e+003,1.153242e+001
1.626569e+003,1.106145e+001
1.627533e+003,1.065137e+001
1.628498e+003,1.019608e+001
1.629462e+003,9.934525e+000
1.630426e+003,1.020567e+001
1.631390e+003,1.075703e+001
1.632354e+003,1.097162e+001
1.633319e+003,1.074403e+001
1.634283e+003,1.075197e+001
1.635247e+003,1.162863e+001
1.636211e+003,1.256432e+001
1.637176e+003,1.174251e+001
1.638140e+003,9.395584e+000
1.639104e+003,8.674194e+000
1.640068e+003,1.002524e+001
1.641033e+003,1.149493e+001
1.641997e+003,1.305240e+001
1.642961e+003,1.407562e+001
1.643925e+003,1.400015e+001
1.644890e+003,1.350497e+001
1.645854e+003,1.289250e+001
1.646818e+003,1.247859e+001
1.647782e+003,1.318755e+001
1.648747e+003,1.515424e+001
1.649711e+003,1.649786e+001
1.650675e+003,1.550089e+001
1.651639e+003,1.343938e+001
1.652604e+003,1.306071e+001
1.653568e+003,1.422911e+001
1.654532e+003,1.422142e+001
1.655496e+003,1.241948e+001
1.656460e+003,1.120872e+001
1.657425e+003,1.191980e+001
1.658389e+003,1.254982e+001
1.659353e+003,1.182855e+001
1.660317e+003,1.061159e+001
1.661281e+003,9.669708e+000
1.662246e+003,9.055283e+000
1.663210e+003,8.694855e+000
1.664174e+003,8.577759e+000
1.665138e+003,8.526276e+000
1.666103e+003,8.276932e+000
1.667067e+003,8.071121e+000
1.668031e+003,8.718552e+000
1.668995e+003,1.012085e+001
1.669960e+003,1.037390e+001
1.670924e+003,8.952499e+000
1.671888e+003,8.182571e+000
1.672852e+003,9.307892e+000
1.673817e+003,1.039462e+001
1.674781e+003,9.810684e+000
1.675745e+003,8.834717e+000
1.676709e+003,9.009171e+000
1.677674e+003,1.004675e+001
1.678638e+003,1.089861e+001
1.679602e+003,1.122530e+001
1.680566e+003,1.053697e+001
1.681531e+003,7.899719e+000
1.682495e+003,4.868607e+000
1.683459e+003,4.229218e+000
1.684423e+003,5.568497e+000
1.685387e+003,6.647583e+000
1.686352e+003,7.347153e+000
1.687316e+003,7.350677e+000
1.688280e+003,6.210449e+000
1.689244e+003,4.995605e+000
1.690208e+003,4.059097e+000
1.691173e+003,3.745956e+000
1.692137e+003,5.311310e+000
1.693101e+003,7.929230e+000
1.694065e+003,8.479507e+000
1.695030e+003,6.054611e+000
1.695994e+003,3.810944e+000
1.696958e+003,3.998489e+000
1.697922e+003,5.068085e+000
1.698887e+003,4.916275e+000
1.699851e+003,4.099792e+000
1.700815e+003,4.638046e+000
1.701779e+003,6.602386e+000
1.702744e+003,7.090164e+000
1.703708e+003,4.852081e+000
1.704672e+003,2.703339e+000
1.705636e+003,2.712448e+000
1.706601e+003,3.704010e+000
1.707565e+003,4.477844e+000
1.708529e+003,4.898804e+000
1.709493e+003,4.016846e+000
1.710458e+003,1.518555e+000
1.711422e+003,-4.365997e-001
1.712386e+003,-6.999969e-001
1.713350e+003,-3.202057e-001
1.714314e+003,-7.522583e-002
1.715279e+003,9.529114e-002
1.716243e+003,4.293060e-001
1.717207e+003,8.788757e-001
1.718171e+003,9.705811e-001
1.719135e+003,5.888977e-001
1.720100e+003,7.585602e-001
1.721064e+003,2.330231e+000
1.722028e+003,4.192505e+000
1.722992e+003,4.915634e+000
1.723957e+003,4.637253e+000
1.724921e+003,3.555084e+000
1.725885e+003,1.258484e+000
1.726849e+003,-6.338501e-002
1.727814e+003,9.135284e-001
1.728778e+003,1.853271e+000
1.729742e+003,1.634186e+000
1.730706e+003,9.882813e-001
1.731671e+003,5.787659e-001
1.732635e+003,1.994324e-001
1.733599e+003,-7.471771e-001
1.734563e+003,-2.118271e+000
1.735528e+003,-2.918198e+000
1.736492e+003,-2.657928e+000
1.737456e+003,-1.686218e+000
1.738420e+003,-2.649078e-001
1.739385e+003,1.151123e+000
1.740349e+003,1.011200e+000
1.741313e+003,-1.052368e+000
1.742277e+003,-2.531036e+000
1.743241e+003,-3.246185e+000
1.744206e+003,-3.592087e+000
1.745170e+003,-3.458298e+000
1.746134e+003,-3.219955e+000
1.747098e+003,-2.925568e+000
1.748063e+003,-2.764069e+000
1.749027e+003,-3.198349e+000
1.749991e+003,-3.872513e+000
1.750955e+003,-3.731277e+000
1.751919e+003,-2.572601e+000
1.752884e+003,-1.524673e+000
1.753848e+003,-1.529999e+000
1.754812e+003,-2.038589e+000
1.755776e+003,-1.817780e+000
1.756741e+003,-8.539734e-001
1.757705e+003,-9.376678e-001
1.758669e+003,-2.918732e+000
1.759633e+003,-3.583832e+000
1.760598e+003,-1.254791e+000
1.761562e+003,3.485413e-001
1.762526e+003,-4.214478e-001
1.763490e+003,-1.582245e+000
1.764455e+003,-1.676086e+000
1.765419e+003,-1.224152e+000
1.766383e+003,-1.315216e+000
1.767347e+003,-1.999710e+000
1.768312e+003,-2.495743e+000
1.769276e+003,-2.456833e+000
1.770240e+003,-2.077408e+000
1.771204e+003,-1.346039e+000
1.772168e+003,-4.175262e-001
1.773133e+003,3.804169e-001
1.774097e+003,9.800873e-001
1.775061e+003,4.649048e-001
1.776025e+003,-1.557755e+000
1.776990e+003,-2.963593e+000
1.777954e+003,-2.879181e+000
1.778918e+003,-2.155426e+000
1.779882e+003,-9.794159e-001
1.780846e+003,2.105713e-002
1.781811e+003,-1.209564e-001
1.782775e+003,-1.038315e+000
1.783739e+003,-1.538086e+000
1.784703e+003,-1.394684e+000
1.785668e+003,-1.276550e+000
1.786632e+003,-1.698608e+000
1.787596e+003,-2.076630e+000
1.788560e+003,-1.738876e+000
1.789525e+003,-1.090302e+000
1.790489e+003,-6.878357e-001
1.791453e+003,-6.198425e-001
1.792417e+003,-1.208588e+000
1.793382e+003,-2.336685e+000
1.794346e+003,-2.229721e+000
1.795310e+003,1.858826e-001
1.796274e+003,2.353531e+000
1.797239e+003,1.245453e+000
1.798203e+003,-2.019119e+000
1.799167e+003,-4.236816e+000
1.800131e+003,-5.545059e+000
1.801095e+003,-5.858887e+000
1.802060e+003,-4.182236e+000
1.803024e+003,-2.941177e+000
1.803988e+003,-2.854370e+000
1.804952e+003,-2.742477e+000
1.805917e+003,-1.576340e+000
1.806881e+003,-5.209198e-001
1.807845e+003,-1.006790e+000
1.808809e+003,-2.425232e+000
1.809773e+003,-3.573776e+000
1.810738e+003,-4.009842e+000
1.811702e+003,-3.536133e+000
1.812666e+003,-2.067245e+000
1.813630e+003,-3.690948e-001
1.814595e+003,5.925598e-001
1.815559e+003,8.210449e-001
1.816523e+003,2.316132e-001
1.817487e+003,-1.265717e+000
1.818452e+003,-2.350662e+000
1.819416e+003,-2.905670e+000
1.820380e+003,-3.023666e+000
1.821344e+003,-2.754105e+000
1.822309e+003,-2.151184e+000
1.823273e+003,-8.545227e-001
1.824237e+003,5.377350e-001
1.825201e+003,1.601837e+000
1.826166e+003,2.148773e+000
1.827130e+003,1.503265e+000
1.828094e+003,-4.056091e-001
1.829058e+003,-1.600052e+000
1.830022e+003,-9.302979e-001
1.830987e+003,3.825226e-001
1.831951e+003,1.938126e+000
1.832915e+003,3.084869e+000
1.833879e+003,2.488037e+000
1.834844e+003,7.019196e-001
1.835808e+003,-6.292267e-001
1.836772e+003,-1.195618e+000
1.837736e+003,-1.031174e+000
1.838700e+003,-1.303253e-001
1.839665e+003,1.596222e-001
1.840629e+003,-1.609406e+000
1.841593e+003,-4.078506e+000
1.842557e+003,-4.414902e+000
1.843522e+003,-2.644623e+000
1.844486e+003,-4.274445e-001
1.845450e+003,3.788971e+000
1.846414e+003,5.525360e+000
1.847379e+003,2.478470e+000
1.848343e+003,-9.498596e-002
1.849307e+003,-2.948608e-001
1.850271e+003,1.820526e-001
1.851236e+003,3.024139e-001
1.852200e+003,2.077179e-001
1.853164e+003,7.218933e-002
1.854128e+003,-2.760315e-002
1.855093e+003,2.711639e-001
1.856057e+003,1.056183e+000
1.857021e+003,1.410126e+000
1.857985e+003,4.335632e-001
1.858949e+003,-9.809723e-001
1.859914e+003,-1.306473e+000
1.860878e+003,-6.514893e-001
1.861842e+003,4.297180e-001
1.862806e+003,1.927032e+000
1.863771e+003,2.858353e+000
1.864735e+003,2.903931e+000
1.865699e+003,3.036667e+000
1.866663e+003,4.010483e+000
1.867627e+003,4.678146e+000
1.868592e+003,3.632629e+000
1.869556e+003,1.723572e+000
1.870520e+003,6.451111e-001
1.871484e+003,2.988434e-001
1.872449e+003,-3.921509e-003
1.873413e+003,-3.791809e-001
1.874377e+003,2.301788e-001
1.875341e+003,3.407852e+000
1.876306e+003,5.659180e+000
1.877270e+003,4.565186e+000
1.878234e+003,2.119644e+000
1.879198e+003,-3.770905e-001
1.880163e+003,-2.272202e+000
1.881127e+003,-2.682343e+000
1.882091e+003,-1.677216e+000
1.883055e+003,1.669312e-001
1.884020e+003,2.454391e+000
1.884984e+003,4.390610e+000
1.885948e+003,5.262955e+000
1.886912e+003,5.338272e+000
1.887876e+003,5.119797e+000
1.888841e+003,4.622543e+000
1.889805e+003,3.794327e+000
1.890769e+003,2.380600e+000
1.891733e+003,2.118286e+000
1.892698e+003,3.696625e+000
1.893662e+003,5.029709e+000
1.894626e+003,5.614975e+000
1.895590e+003,5.532364e+000
1.896554e+003,4.143204e+000
1.897519e+003,2.688660e+000
1.898483e+003,2.754425e+000
1.899447e+003,3.958496e+000
1.900411e+003,5.262527e+000
1.901376e+003,6.598190e+000
1.902340e+003,6.664810e+000
1.903304e+003,3.697815e+000
1.904268e+003,1.332977e+000
1.905233e+003,2.912399e+000
1.906197e+003,5.145416e+000
1.907161e+003,4.002502e+000
1.908125e+003,1.356964e+000
1.909090e+003,1.101898e+000
1.910054e+003,3.016266e+000
1.911018e+003,4.100403e+000
1.911982e+003,3.481842e+000
1.912947e+003,3.138733e+000
1.913911e+003,4.509460e+000
1.914875e+003,6.190720e+000
1.915839e+003,5.885117e+000
1.916803e+003,4.040207e+000
1.917768e+003,3.152451e+000
1.918732e+003,3.318054e+000
1.919696e+003,4.273056e+000
1.920660e+003,6.732635e+000
1.921625e+003,7.974197e+000
1.922589e+003,6.652267e+000
1.923553e+003,5.159119e+000
1.924517e+003,4.769775e+000
1.925481e+003,4.753555e+000
1.926446e+003,4.540955e+000
1.927410e+003,4.214066e+000
1.928374e+003,3.835144e+000
1.929338e+003,3.416290e+000
1.930303e+003,3.401321e+000
1.931267e+003,4.168579e+000
1.932231e+003,4.815887e+000
1.933195e+003,4.465500e+000
1.934160e+003,4.268234e+000
1.935124e+003,5.610184e+000
1.936088e+003,7.099548e+000
1.937052e+003,6.789108e+000
1.938017e+003,5.414810e+000
1.938981e+003,5.027756e+000
1.939945e+003,5.653244e+000
1.940909e+003,5.202789e+000
1.941874e+003,2.895447e+000
1.942838e+003,1.135010e+000
1.943802e+003,2.272858e+000
1.944766e+003,4.888474e+000
1.945730e+003,6.053879e+000
1.946695e+003,5.870056e+000
1.947659e+003,5.328339e+000
1.948623e+003,4.295929e+000
1.949587e+003,4.455856e+000
1.950552e+003,6.561798e+000
1.951516e+003,7.544724e+000
1.952480e+003,5.828430e+000
1.953444e+003,3.933640e+000
1.954408e+003,3.399506e+000
1.955373e+003,3.781387e+000
1.956337e+003,5.089081e+000
1.957301e+003,6.899078e+000
1.958265e+003,7.295319e+000
1.959230e+003,6.034256e+000
1.960194e+003,5.175659e+000
1.961158e+003,5.119766e+000
1.962122e+003,5.080811e+000
1.963087e+003,4.844360e+000
1.964051e+003,4.631653e+000
1.965015e+003,4.747208e+000
1.965979e+003,4.913712e+000
1.966944e+003,4.687103e+000
1.967908e+003,4.240189e+000
1.968872e+003,3.765869e+000
1.969836e+003,3.535583e+000
1.970801e+003,4.406708e+000
1.971765e+003,6.626389e+000
1.972729e+003,8.370483e+000
1.973693e+003,7.945557e+000
1.974657e+003,6.657639e+000
1.975622e+003,6.243393e+000
1.976586e+003,6.537552e+000
1.977550e+003,7.193558e+000
1.978514e+003,8.224915e+000
1.979479e+003,1.006805e+001
1.980443e+003,1.262340e+001
1.981407e+003,1.346288e+001
1.982371e+003,1.163507e+001
1.983335e+003,9.340179e+000
1.984300e+003,8.093994e+000
1.985264e+003,7.706604e+000
1.986228e+003,8.027939e+000
1.987192e+003,8.917755e+000
1.988157e+003,9.675827e+000
1.989121e+003,1.036230e+001
1.990085e+003,1.074673e+001
1.991049e+003,1.102054e+001
1.992014e+003,1.068056e+001
1.992978e+003,8.962067e+000
1.993942e+003,7.507477e+000
1.994906e+003,6.560852e+000
1.995871e+003,6.390884e+000
1.996835e+003,8.022034e+000
1.997799e+003,1.011128e+001
1.998763e+003,1.048952e+001
1.999728e+003,9.391006e+000
