5.003444e+002,1.675891e+002
5.013087e+002,1.606243e+002
5.022729e+002,1.557761e+002
5.032371e+002,1.536512e+002
5.042014e+002,1.524637e+002
5.051656e+002,1.523003e+002
5.061298e+002,1.534022e+002
5.070941e+002,1.562161e+002
5.080583e+002,1.614834e+002
5.090225e+002,1.612115e+002
5.099868e+002,1.525702e+002
5.109510e+002,1.432555e+002
5.119152e+002,1.368588e+002
5.128795e+002,1.336853e+002
5.138437e+002,1.322086e+002
5.148079e+002,1.336951e+002
5.157722e+002,1.354294e+002
5.167364e+002,1.362909e+002
5.177006e+002,1.358163e+002
5.186649e+002,1.341099e+002
5.196291e+002,1.312906e+002
5.205933e+002,1.286849e+002
5.215576e+002,1.268732e+002
5.225218e+002,1.253444e+002
5.234860e+002,1.232545e+002
5.244503e+002,1.196951e+002
5.254145e+002,1.147817e+002
5.263787e+002,1.129044e+002
5.273430e+002,1.158466e+002
5.283072e+002,1.206056e+002
5.292714e+002,1.229336e+002
5.302357e+002,1.212517e+002
5.311999e+002,1.177634e+002
5.321641e+002,1.135060e+002
5.331284e+002,1.090466e+002
5.340926e+002,1.035881e+002
5.350568e+002,9.624976e+001
5.360211e+002,9.055054e+001
5.369853e+002,9.307568e+001
5.379495e+002,9.801501e+001
5.389138e+002,1.002166e+002
5.398780e+002,9.766907e+001
5.408422e+002,9.229016e+001
5.418065e+002,8.950537e+001
5.427707e+002,8.894531e+001
5.437349e+002,8.840637e+001
5.446992e+002,8.737109e+001
5.456634e+002,8.575769e+001
5.466276e+002,8.349170e+001
5.475919e+002,7.956714e+001
5.485561e+002,7.682922e+001
5.495203e+002,7.544482e+001
5.504846e+002,7.473010e+001
5.514488e+002,7.420142e+001
5.524130e+002,7.465649e+001
5.533773e+002,7.406396e+001
5.543415e+002,7.052783e+001
5.553057e+002,6.613757e+001
5.562700e+002,6.275293e+001
5.572342e+002,6.142981e+001
5.581984e+002,6.157922e+001
5.591627e+002,6.304944e+001
5.601269e+002,6.553809e+001
5.610911e+002,6.775122e+001
5.620554e+002,6.892334e+001
5.630196e+002,6.863745e+001
5.639838e+002,6.520483e+001
5.649481e+002,5.463562e+001
5.659123e+002,4.678735e+001
5.668765e+002,4.547424e+001
5.678408e+002,4.901624e+001
5.688050e+002,5.151843e+001
5.697692e+002,4.928101e+001
5.707335e+002,4.704602e+001
5.716977e+002,4.759021e+001
5.726619e+002,4.910437e+001
5.736262e+002,4.883655e+001
5.745904e+002,4.471985e+001
5.755546e+002,3.961719e+001
5.765189e+002,3.729175e+001
5.774831e+002,3.644727e+001
5.784473e+002,3.581909e+001
5.794116e+002,3.482800e+001
5.803758e+002,3.393640e+001
5.813400e+002,3.358557e+001
5.823043e+002,3.334875e+001
5.832685e+002,3.209753e+001
5.842327e+002,2.885925e+001
5.851970e+002,2.468286e+001
5.861612e+002,2.375024e+001
5.871254e+002,2.916699e+001
5.880897e+002,3.444116e+001
5.890539e+002,3.934033e+001
5.900181e+002,4.272205e+001
5.909824e+002,4.295642e+001
5.919466e+002,3.831128e+001
5.929108e+002,3.226538e+001
5.938751e+002,2.810522e+001
5.948393e+002,2.543823e+001
5.958035e+002,2.396509e+001
5.967678e+002,2.351782e+001
5.977320e+002,2.418164e+001
5.986962e+002,2.448462e+001
5.996605e+002,2.358252e+001
6.006247e+002,2.313330e+001
6.015889e+002,2.447729e+001
6.025532e+002,2.748840e+001
6.035174e+002,2.917896e+001
6.044816e+002,2.916687e+001
6.054459e+002,2.822107e+001
6.064101e+002,2.488489e+001
6.073743e+002,2.084680e+001
6.083386e+002,1.956567e+001
6.093028e+002,2.472473e+001
6.102670e+002,2.946960e+001
6.112313e+002,2.741675e+001
6.121955e+002,2.198828e+001
6.131597e+002,1.756726e+001
6.141240e+002,1.713794e+001
6.150882e+002,1.964294e+001
6.160524e+002,2.140698e+001
6.170167e+002,2.285889e+001
6.179809e+002,2.390466e+001
6.189451e+002,2.409619e+001
6.199094e+002,2.322046e+001
6.208736e+002,2.198853e+001
6.218378e+002,2.127490e+001
6.228021e+002,2.045337e+001
6.237663e+002,1.946326e+001
6.247305e+002,1.854028e+001
6.256948e+002,1.789844e+001
6.266590e+002,1.738574e+001
6.276232e+002,1.605615e+001
6.285875e+002,1.277161e+001
6.295517e+002,9.739380e+000
6.305159e+002,9.976807e+000
6.314802e+002,1.466394e+001
6.324444e+002,2.056116e+001
6.334086e+002,1.710608e+001
6.343729e+002,8.151855e+000
6.353371e+002,3.508179e+000
6.363013e+002,7.196289e+000
6.372656e+002,1.626233e+001
6.382298e+002,2.064917e+001
6.391940e+002,1.566492e+001
6.401583e+002,1.105005e+001
6.411225e+002,7.792603e+000
6.420867e+002,5.825928e+000
6.430510e+002,4.622803e+000
6.440152e+002,3.624146e+000
6.449794e+002,2.651123e+000
6.459437e+002,1.577515e+000
6.469079e+002,5.518799e-001
6.478721e+002,1.488037e-001
6.488364e+002,5.413818e-001
6.498006e+002,1.102661e+000
6.507648e+002,1.562500e-001
6.517291e+002,-1.962769e+000
6.526933e+002,-4.141602e+000
6.536575e+002,-6.260864e+000
6.546218e+002,-8.028076e+000
6.555860e+002,-8.833008e+000
6.565502e+002,-8.254395e+000
6.575145e+002,-7.631592e+000
6.584787e+002,-6.963135e+000
6.594429e+002,-6.168457e+000
6.604072e+002,-4.808838e+000
6.613714e+002,-2.630371e+000
6.623356e+002,-1.613281e+000
6.632999e+002,-4.927124e+000
6.642641e+002,-8.515625e+000
6.652283e+002,-9.575806e+000
6.661926e+002,-7.904663e+000
6.671568e+002,-5.330200e+000
6.681210e+002,-4.324341e+000
6.690853e+002,-4.518433e+000
6.700495e+002,-4.185303e+000
6.710137e+002,-3.240601e+000
6.719780e+002,-1.577393e+000
6.729422e+002,1.094116e+000
6.739064e+002,5.220337e+000
6.748707e+002,5.806885e+000
6.758349e+002,-1.813965e-001
6.767991e+002,-5.406250e+000
6.777634e+002,-5.686279e+000
6.787276e+002,-1.244507e+000
6.796918e+002,3.038452e+000
6.806561e+002,5.240112e+000
6.816203e+002,5.754272e+000
6.825845e+002,4.436157e+000
6.835488e+002,1.694092e+000
6.845130e+002,-2.440796e+000
6.854772e+002,-8.187012e+000
6.864415e+002,-1.298572e+001
6.874057e+002,-1.123157e+001
6.883699e+002,-5.631958e+000
6.893342e+002,-1.251709e+000
6.902984e+002,-7.244873e-001
6.912626e+002,-3.457275e+000
6.922269e+002,-6.606567e+000
6.931911e+002,-1.173657e+001
6.941553e+002,-1.325061e+001
6.951196e+002,-9.303955e+000
6.960838e+002,-3.007446e+000
6.970480e+002,1.311279e+000
6.980123e+002,2.806885e+000
6.989765e+002,2.836548e+000
6.999407e+002,7.384033e-001
7.009050e+002,-1.503662e+000
7.018692e+002,-1.849976e+000
7.028334e+002,4.443359e-002
7.037977e+002,2.017090e+000
7.047619e+002,5.621338e-001
7.057261e+002,-2.572510e+000
7.066904e+002,-4.974365e+000
7.076546e+002,-6.291748e+000
7.086188e+002,-6.684937e+000
7.095831e+002,-6.444580e+000
7.105473e+002,-6.088135e+000
7.115115e+002,-4.125366e+000
7.124758e+002,1.737183e+000
7.134400e+002,6.279663e+000
7.144042e+002,5.772583e+000
7.153685e+002,4.753418e-001
7.163327e+002,-3.893799e+000
7.172969e+002,-3.804565e+000
7.182612e+002,-2.901611e+000
7.192254e+002,-2.434204e+000
7.201896e+002,-2.653076e+000
7.211539e+002,-3.669189e+000
7.221181e+002,-5.708130e+000
7.230823e+002,-7.679932e+000
7.240466e+002,-5.525757e+000
7.250108e+002,-8.789063e-003
7.259750e+002,3.188599e+000
7.269393e+002,-3.703613e-001
7.279035e+002,-1.004053e+001
7.288677e+002,-1.518738e+001
7.298320e+002,-9.401367e+000
7.307962e+002,-4.346191e+000
7.317604e+002,-9.532471e-001
7.327247e+002,1.556274e+000
7.336889e+002,4.109985e+000
7.346531e+002,6.562622e+000
7.356174e+002,6.193726e+000
7.365816e+002,7.979736e-001
7.375458e+002,-4.841309e+000
7.385101e+002,-6.811890e+000
7.394743e+002,-4.424316e+000
7.404385e+002,-4.309082e-001
7.414028e+002,6.901855e-001
7.423670e+002,-1.485474e+000
7.433312e+002,-2.477905e+000
7.442955e+002,-9.545898e-001
7.452597e+002,1.490601e+000
7.462239e+002,2.425903e+000
7.471882e+002,9.140625e-001
7.481524e+002,7.056885e-001
7.491166e+002,2.694458e+000
7.500809e+002,3.037598e+000
7.510451e+002,-1.193848e+000
7.520093e+002,-8.479736e+000
7.529736e+002,-1.334985e+001
7.539378e+002,-1.154260e+001
7.549020e+002,-7.515747e+000
7.558663e+002,-3.682251e+000
7.568306e+002,-1.979980e-001
7.577948e+002,2.864502e+000
7.587590e+002,5.211670e+000
7.597233e+002,6.194946e+000
7.606875e+002,4.315186e+000
7.616517e+002,4.320068e-001
7.626160e+002,-1.960571e+000
7.635802e+002,-1.543091e+000
7.645444e+002,6.685791e-001
7.655087e+002,2.516357e+000
7.664729e+002,3.933716e+000
7.674371e+002,4.555786e+000
7.684014e+002,2.982422e+000
7.693656e+002,1.859741e+000
7.703298e+002,3.548706e+000
7.712941e+002,8.094849e+000
7.722583e+002,1.247424e+001
7.732225e+002,1.448633e+001
7.741868e+002,1.525879e+001
7.751510e+002,1.485901e+001
7.761152e+002,1.404858e+001
7.770795e+002,1.460925e+001
7.780437e+002,1.808093e+001
7.790079e+002,2.347180e+001
7.799722e+002,2.220300e+001
7.809364e+002,1.359375e+001
7.819006e+002,6.821045e+000
7.828649e+002,6.791626e+000
7.838291e+002,1.189526e+001
7.847933e+002,1.581970e+001
7.857576e+002,1.748328e+001
7.867218e+002,1.731213e+001
7.876860e+002,1.540918e+001
7.886503e+002,1.318494e+001
7.896145e+002,1.138293e+001
7.905787e+002,1.030505e+001
7.915430e+002,1.040332e+001
7.925072e+002,1.325403e+001
7.934714e+002,1.577087e+001
7.944357e+002,1.417334e+001
7.953999e+002,9.394775e+000
7.963641e+002,5.557495e+000
7.973284e+002,7.135742e+000
7.982926e+002,1.451587e+001
7.992568e+002,2.073572e+001
8.002211e+002,2.685986e+001
8.011853e+002,2.819690e+001
8.021495e+002,2.119714e+001
8.031138e+002,9.388794e+000
8.040780e+002,2.775513e+000
8.050422e+002,4.615479e+000
8.060065e+002,7.970825e+000
8.069707e+002,1.120752e+001
8.079349e+002,1.348950e+001
8.088992e+002,1.376416e+001
8.098634e+002,1.219006e+001
8.108276e+002,1.114124e+001
8.117919e+002,1.470117e+001
8.127561e+002,1.941870e+001
8.137203e+002,1.994800e+001
8.146846e+002,1.637634e+001
8.156488e+002,1.182288e+001
8.166130e+002,9.679443e+000
8.175773e+002,1.025867e+001
8.185415e+002,1.027393e+001
8.195057e+002,8.027588e+000
8.204700e+002,6.242554e+000
8.214342e+002,5.524292e+000
8.223984e+002,6.011108e+000
8.233627e+002,8.258423e+000
8.243269e+002,1.389685e+001
8.252911e+002,1.894678e+001
8.262554e+002,2.093140e+001
8.272196e+002,2.132031e+001
8.281838e+002,2.152539e+001
8.291481e+002,2.204675e+001
8.301123e+002,2.223291e+001
8.310765e+002,2.066528e+001
8.320408e+002,1.746423e+001
8.330050e+002,1.614685e+001
8.339692e+002,1.757117e+001
8.349335e+002,1.932227e+001
8.358977e+002,1.865430e+001
8.368619e+002,1.528027e+001
8.378262e+002,1.429663e+001
8.387904e+002,1.778833e+001
8.397546e+002,2.043884e+001
8.407189e+002,1.988977e+001
8.416831e+002,1.799219e+001
8.426473e+002,1.857532e+001
8.436116e+002,2.404895e+001
8.445758e+002,2.968335e+001
8.455400e+002,2.750256e+001
8.465043e+002,2.272693e+001
8.474685e+002,2.342822e+001
8.484327e+002,3.151953e+001
8.493970e+002,4.146313e+001
8.503612e+002,4.302112e+001
8.513254e+002,3.402429e+001
8.522897e+002,2.916284e+001
8.532539e+002,2.972729e+001
8.542181e+002,3.131213e+001
8.551824e+002,3.167969e+001
8.561466e+002,3.173987e+001
8.571108e+002,3.431250e+001
8.580751e+002,4.122595e+001
8.590393e+002,4.591211e+001
8.600035e+002,4.486719e+001
8.609678e+002,4.239343e+001
8.619320e+002,4.390393e+001
8.628962e+002,5.121472e+001
8.638605e+002,5.969629e+001
8.648247e+002,6.180701e+001
8.657889e+002,5.990930e+001
8.667532e+002,5.931921e+001
8.677174e+002,6.071472e+001
8.686816e+002,6.252844e+001
8.696459e+002,6.291125e+001
8.706101e+002,6.172058e+001
8.715743e+002,6.276648e+001
8.725386e+002,6.877637e+001
8.735028e+002,7.349438e+001
8.744670e+002,7.363354e+001
8.754313e+002,7.093872e+001
8.763955e+002,6.915552e+001
8.773597e+002,6.963806e+001
8.783240e+002,7.195825e+001
8.792882e+002,7.716553e+001
8.802524e+002,8.240540e+001
8.812167e+002,8.505481e+001
8.821809e+002,8.479346e+001
8.831451e+002,8.313220e+001
8.841094e+002,8.201526e+001
8.850736e+002,8.199353e+001
8.860378e+002,8.383240e+001
8.870021e+002,8.748767e+001
8.879663e+002,9.141321e+001
8.889305e+002,9.452332e+001
8.898948e+002,9.680859e+001
8.908590e+002,9.932300e+001
8.918232e+002,1.039414e+002
8.927875e+002,1.066198e+002
8.937517e+002,1.047247e+002
8.947159e+002,1.021417e+002
8.956802e+002,1.019329e+002
8.966444e+002,1.042975e+002
8.976086e+002,1.066946e+002
8.985729e+002,1.067476e+002
8.995371e+002,1.065444e+002
9.005013e+002,1.093397e+002
9.014656e+002,1.148652e+002
9.024298e+002,1.202611e+002
9.033940e+002,1.229242e+002
9.043583e+002,1.227906e+002
9.053225e+002,1.233184e+002
9.062867e+002,1.246935e+002
9.072510e+002,1.256475e+002
9.082152e+002,1.269395e+002
9.091794e+002,1.286510e+002
9.101437e+002,1.310513e+002
9.111079e+002,1.341367e+002
9.120721e+002,1.360823e+002
9.130364e+002,1.335181e+002
9.140006e+002,1.303099e+002
9.149648e+002,1.296322e+002
9.159291e+002,1.309275e+002
9.168933e+002,1.317936e+002
9.178575e+002,1.302875e+002
9.188218e+002,1.270963e+002
9.197860e+002,1.259092e+002
9.207502e+002,1.265403e+002
9.217145e+002,1.256001e+002
9.226787e+002,1.226420e+002
9.236429e+002,1.191449e+002
9.246072e+002,1.168385e+002
9.255714e+002,1.157820e+002
9.265356e+002,1.129995e+002
9.274999e+002,1.040863e+002
9.284641e+002,9.711975e+001
9.294283e+002,9.658606e+001
9.303926e+002,1.001118e+002
9.313568e+002,1.032644e+002
9.323210e+002,1.037866e+002
9.332853e+002,1.023673e+002
9.342495e+002,9.936877e+001
9.352137e+002,9.518542e+001
9.361780e+002,9.034094e+001
9.371422e+002,8.544531e+001
9.381064e+002,8.186975e+001
9.390707e+002,8.100757e+001
9.400349e+002,8.262878e+001
9.409991e+002,8.420728e+001
9.419634e+002,8.624878e+001
9.429276e+002,8.732275e+001
9.438918e+002,8.719849e+001
9.448561e+002,8.606665e+001
9.458203e+002,8.396692e+001
9.467845e+002,8.078455e+001
9.477488e+002,7.824658e+001
9.487130e+002,7.690344e+001
9.496772e+002,7.696655e+001
9.506415e+002,8.011731e+001
9.516057e+002,8.532019e+001
9.525699e+002,8.883044e+001
9.535342e+002,8.684253e+001
9.544984e+002,8.002014e+001
9.554626e+002,7.612280e+001
9.564269e+002,7.582361e+001
9.573911e+002,7.778687e+001
9.583553e+002,8.349561e+001
9.593196e+002,9.012891e+001
9.602838e+002,9.277197e+001
9.612480e+002,9.013342e+001
9.622123e+002,8.724500e+001
9.631765e+002,8.577307e+001
9.641407e+002,8.459113e+001
9.651050e+002,8.288013e+001
9.660692e+002,8.065887e+001
9.670334e+002,7.849609e+001
9.679977e+002,7.706927e+001
9.689619e+002,7.673376e+001
9.699261e+002,7.705414e+001
9.708904e+002,7.764758e+001
9.718546e+002,7.899146e+001
9.728188e+002,8.082837e+001
9.737831e+002,8.386316e+001
9.747473e+002,8.960260e+001
9.757115e+002,9.881335e+001
9.766758e+002,1.077585e+002
9.776400e+002,1.207344e+002
9.786042e+002,1.291898e+002
9.795685e+002,1.303141e+002
9.805327e+002,1.251151e+002
9.814969e+002,1.134974e+002
9.824612e+002,9.574402e+001
9.834254e+002,8.007318e+001
9.843896e+002,7.589050e+001
9.853539e+002,7.645416e+001
9.863181e+002,7.561060e+001
9.872823e+002,7.240082e+001
9.882466e+002,6.736536e+001
9.892108e+002,6.138257e+001
9.901750e+002,5.590356e+001
9.911393e+002,5.594019e+001
9.921035e+002,6.503827e+001
9.930677e+002,7.072839e+001
9.940320e+002,7.034711e+001
9.949962e+002,6.926392e+001
9.959604e+002,7.285846e+001
9.969247e+002,8.143042e+001
9.978889e+002,8.971564e+001
9.988531e+002,9.468689e+001
9.998174e+002,9.748865e+001
1.000782e+003,9.923456e+001
1.001746e+003,1.003691e+002
1.002710e+003,1.007811e+002
1.003674e+003,1.005094e+002
1.004639e+003,1.003718e+002
1.005603e+003,1.020508e+002
1.006567e+003,1.055402e+002
1.007531e+003,1.066622e+002
1.008495e+003,1.045933e+002
1.009460e+003,1.021864e+002
1.010424e+003,1.009766e+002
1.011388e+003,1.010162e+002
1.012352e+003,1.023619e+002
1.013317e+003,1.064682e+002
1.014281e+003,1.079878e+002
1.015245e+003,1.052170e+002
1.016209e+003,9.953186e+001
1.017174e+003,9.067554e+001
1.018138e+003,7.996936e+001
1.019102e+003,7.046680e+001
1.020066e+003,6.497772e+001
1.021031e+003,6.219128e+001
1.021995e+003,5.690045e+001
1.022959e+003,4.914954e+001
1.023923e+003,4.220160e+001
1.024887e+003,3.727588e+001
1.025852e+003,3.309320e+001
1.026816e+003,2.740784e+001
1.027780e+003,1.979224e+001
1.028744e+003,1.495898e+001
1.029709e+003,1.516223e+001
1.030673e+003,1.565594e+001
1.031637e+003,1.494385e+001
1.032601e+003,1.338129e+001
1.033566e+003,1.163684e+001
1.034530e+003,1.015143e+001
1.035494e+003,9.659180e+000
1.036458e+003,1.171655e+001
1.037422e+003,1.431921e+001
1.038387e+003,1.369434e+001
1.039351e+003,9.992432e+000
1.040315e+003,6.667725e+000
1.041279e+003,6.470276e+000
1.042244e+003,9.142578e+000
1.043208e+003,1.246442e+001
1.044172e+003,1.759241e+001
1.045136e+003,1.993683e+001
1.046101e+003,1.748279e+001
1.047065e+003,1.488745e+001
1.048029e+003,1.566803e+001
1.048993e+003,1.882166e+001
1.049958e+003,2.012738e+001
1.050922e+003,1.726855e+001
1.051886e+003,1.393634e+001
1.052850e+003,1.385083e+001
1.053814e+003,1.539325e+001
1.054779e+003,1.687585e+001
1.055743e+003,1.766760e+001
1.056707e+003,1.749878e+001
1.057671e+003,1.598193e+001
1.058636e+003,1.298712e+001
1.059600e+003,1.131079e+001
1.060564e+003,1.202484e+001
1.061528e+003,1.384167e+001
1.062493e+003,1.710773e+001
1.063457e+003,1.999622e+001
1.064421e+003,2.078320e+001
1.065385e+003,1.952661e+001
1.066349e+003,1.767053e+001
1.067314e+003,1.541791e+001
1.068278e+003,1.345215e+001
1.069242e+003,1.204468e+001
1.070206e+003,1.155554e+001
1.071171e+003,1.250195e+001
1.072135e+003,1.472766e+001
1.073099e+003,1.717725e+001
1.074063e+003,1.854041e+001
1.075028e+003,1.896326e+001
1.075992e+003,1.883197e+001
1.076956e+003,1.768494e+001
1.077920e+003,1.595978e+001
1.078885e+003,1.352338e+001
1.079849e+003,1.148004e+001
1.080813e+003,1.210309e+001
1.081777e+003,1.648511e+001
1.082741e+003,1.966089e+001
1.083706e+003,1.636169e+001
1.084670e+003,1.235394e+001
1.085634e+003,1.106622e+001
1.086598e+003,1.153967e+001
1.087563e+003,1.161627e+001
1.088527e+003,1.030994e+001
1.089491e+003,8.286804e+000
1.090455e+003,5.676147e+000
1.091420e+003,1.924805e+000
1.092384e+003,2.115906e+000
1.093348e+003,8.514648e+000
1.094312e+003,1.382996e+001
1.095276e+003,1.308972e+001
1.096241e+003,8.719849e+000
1.097205e+003,7.500854e+000
1.098169e+003,1.124658e+001
1.099133e+003,1.377295e+001
1.100098e+003,1.178809e+001
1.101062e+003,9.372742e+000
1.102026e+003,9.202393e+000
1.102990e+003,1.083081e+001
1.103955e+003,1.211017e+001
1.104919e+003,1.165460e+001
1.105883e+003,1.073291e+001
1.106847e+003,1.281860e+001
1.107812e+003,1.781824e+001
1.108776e+003,1.996100e+001
1.109740e+003,1.783307e+001
1.110704e+003,1.530664e+001
1.111668e+003,1.592175e+001
1.112633e+003,1.919946e+001
1.113597e+003,2.142786e+001
1.114561e+003,2.145410e+001
1.115525e+003,2.117004e+001
1.116490e+003,2.041675e+001
1.117454e+003,2.013098e+001
1.118418e+003,2.176624e+001
1.119382e+003,2.498328e+001
1.120347e+003,2.821045e+001
1.121311e+003,3.004083e+001
1.122275e+003,3.022449e+001
1.123239e+003,2.967145e+001
1.124203e+003,2.905286e+001
1.125168e+003,2.763910e+001
1.126132e+003,2.458801e+001
1.127096e+003,2.326978e+001
1.128060e+003,2.661426e+001
1.129025e+003,3.354858e+001
1.129989e+003,4.016858e+001
1.130953e+003,4.688855e+001
1.131917e+003,5.100739e+001
1.132882e+003,5.008496e+001
1.133846e+003,4.894244e+001
1.134810e+003,5.021716e+001
1.135774e+003,5.389716e+001
1.136739e+003,5.899646e+001
1.137703e+003,6.488293e+001
1.138667e+003,7.121191e+001
1.139631e+003,7.704846e+001
1.140595e+003,8.280975e+001
1.141560e+003,9.240808e+001
1.142524e+003,1.070899e+002
1.143488e+003,1.234481e+002
1.144452e+003,1.387872e+002
1.145417e+003,1.537422e+002
1.146381e+003,1.706016e+002
1.147345e+003,1.892052e+002
1.148309e+003,2.099061e+002
1.149274e+003,2.328032e+002
1.150238e+003,2.581167e+002
1.151202e+003,2.897081e+002
1.152166e+003,3.234933e+002
1.153130e+003,3.521862e+002
1.154095e+003,3.719414e+002
1.155059e+003,3.849975e+002
1.156023e+003,3.959915e+002
1.156987e+003,4.039111e+002
1.157952e+003,4.021849e+002
1.158916e+003,3.908450e+002
1.159880e+003,3.764832e+002
1.160844e+003,3.616353e+002
1.161809e+003,3.443990e+002
1.162773e+003,3.215532e+002
1.163737e+003,2.918598e+002
1.164701e+003,2.624489e+002
1.165666e+003,2.326979e+002
1.166630e+003,2.070236e+002
1.167594e+003,1.872224e+002
1.168558e+003,1.723531e+002
1.169522e+003,1.615178e+002
1.170487e+003,1.541662e+002
1.171451e+003,1.502070e+002
1.172415e+003,1.499365e+002
1.173379e+003,1.521125e+002
1.174344e+003,1.506185e+002
1.175308e+003,1.454885e+002
1.176272e+003,1.411818e+002
1.177236e+003,1.406396e+002
1.178201e+003,1.408412e+002
1.179165e+003,1.370357e+002
1.180129e+003,1.287493e+002
1.181093e+003,1.212520e+002
1.182057e+003,1.181281e+002
1.183022e+003,1.125548e+002
1.183986e+003,9.759509e+001
1.184950e+003,8.241785e+001
1.185914e+003,7.671344e+001
1.186879e+003,8.060571e+001
1.187843e+003,8.736713e+001
1.188807e+003,9.142151e+001
1.189771e+003,9.321686e+001
1.190736e+003,9.487512e+001
1.191700e+003,9.651996e+001
1.192664e+003,9.543323e+001
1.193628e+003,8.914294e+001
1.194593e+003,8.368536e+001
1.195557e+003,8.514771e+001
1.196521e+003,9.083441e+001
1.197485e+003,9.092053e+001
1.198449e+003,8.237238e+001
1.199414e+003,7.355774e+001
1.200378e+003,6.806403e+001
1.201342e+003,6.381396e+001
1.202306e+003,6.003906e+001
1.203271e+003,5.608044e+001
1.204235e+003,5.100806e+001
1.205199e+003,4.461371e+001
1.206163e+003,3.817639e+001
1.207128e+003,3.383130e+001
1.208092e+003,3.180994e+001
1.209056e+003,2.786646e+001
1.210020e+003,2.211859e+001
1.210984e+003,1.485730e+001
1.211949e+003,4.174438e+000
1.212913e+003,-7.012329e+000
1.213877e+003,-1.435767e+001
1.214841e+003,-1.754376e+001
1.215806e+003,-2.042047e+001
1.216770e+003,-2.448553e+001
1.217734e+003,-2.882458e+001
1.218698e+003,-3.419940e+001
1.219663e+003,-3.910529e+001
1.220627e+003,-4.070398e+001
1.221591e+003,-3.921130e+001
1.222555e+003,-3.826752e+001
1.223520e+003,-4.123059e+001
1.224484e+003,-4.675952e+001
1.225448e+003,-4.940839e+001
1.226412e+003,-4.794128e+001
1.227376e+003,-4.628198e+001
1.228341e+003,-4.303577e+001
1.229305e+003,-4.149414e+001
1.230269e+003,-4.438965e+001
1.231233e+003,-5.005341e+001
1.232198e+003,-5.573407e+001
1.233162e+003,-6.070288e+001
1.234126e+003,-6.197888e+001
1.235090e+003,-5.457367e+001
1.236055e+003,-4.573199e+001
1.237019e+003,-4.348834e+001
1.237983e+003,-4.633594e+001
1.238947e+003,-4.959888e+001
1.239911e+003,-5.105249e+001
1.240876e+003,-5.116656e+001
1.241840e+003,-5.075226e+001
1.242804e+003,-4.971918e+001
1.243768e+003,-4.928241e+001
1.244733e+003,-5.166681e+001
1.245697e+003,-5.146552e+001
1.246661e+003,-4.649280e+001
1.247625e+003,-4.132562e+001
1.248590e+003,-3.884467e+001
1.249554e+003,-3.863153e+001
1.250518e+003,-3.952686e+001
1.251482e+003,-4.146588e+001
1.252447e+003,-4.277527e+001
1.253411e+003,-4.017499e+001
1.254375e+003,-3.531445e+001
1.255339e+003,-3.236646e+001
1.256303e+003,-3.122021e+001
1.257268e+003,-2.958661e+001
1.258232e+003,-2.635822e+001
1.259196e+003,-2.281519e+001
1.260160e+003,-2.105878e+001
1.261125e+003,-2.114771e+001
1.262089e+003,-1.988788e+001
1.263053e+003,-1.667767e+001
1.264017e+003,-1.333948e+001
1.264982e+003,-9.533020e+000
1.265946e+003,-5.969666e+000
1.266910e+003,-3.012634e+000
1.267874e+003,-9.303589e-001
1.268839e+003,-1.220703e-003
1.269803e+003,-3.812866e-001
1.270767e+003,-2.127502e+000
1.271731e+003,-5.647461e+000
1.272695e+003,-1.066376e+001
1.273660e+003,-1.489673e+001
1.274624e+003,-1.887708e+001
1.275588e+003,-2.261584e+001
1.276552e+003,-2.593439e+001
1.277517e+003,-2.823236e+001
1.278481e+003,-2.848474e+001
1.279445e+003,-2.658783e+001
1.280409e+003,-2.576447e+001
1.281374e+003,-2.828851e+001
1.282338e+003,-3.024762e+001
1.283302e+003,-2.850262e+001
1.284266e+003,-2.594574e+001
1.285230e+003,-2.587970e+001
1.286195e+003,-2.877399e+001
1.287159e+003,-3.315247e+001
1.288123e+003,-3.761029e+001
1.289087e+003,-4.149579e+001
1.290052e+003,-4.371008e+001
1.291016e+003,-4.422638e+001
1.291980e+003,-4.432361e+001
1.292944e+003,-4.397101e+001
1.293909e+003,-4.412360e+001
1.294873e+003,-4.529596e+001
1.295837e+003,-4.635730e+001
1.296801e+003,-4.530493e+001
1.297766e+003,-4.215930e+001
1.298730e+003,-4.069659e+001
1.299694e+003,-4.441241e+001
1.300658e+003,-4.842670e+001
1.301622e+003,-4.511090e+001
1.302587e+003,-3.888843e+001
1.303551e+003,-3.795087e+001
1.304515e+003,-4.309265e+001
1.305479e+003,-4.754211e+001
1.306444e+003,-4.574799e+001
1.307408e+003,-4.010132e+001
1.308372e+003,-3.835120e+001
1.309336e+003,-4.249109e+001
1.310301e+003,-4.448602e+001
1.311265e+003,-4.072864e+001
1.312229e+003,-3.826227e+001
1.313193e+003,-3.978217e+001
1.314157e+003,-4.338513e+001
1.315122e+003,-4.839209e+001
1.316086e+003,-5.359821e+001
1.317050e+003,-5.556909e+001
1.318014e+003,-5.157904e+001
1.318979e+003,-4.524011e+001
1.319943e+003,-4.378870e+001
1.320907e+003,-4.627704e+001
1.321871e+003,-4.545435e+001
1.322836e+003,-4.057794e+001
1.323800e+003,-3.630304e+001
1.324764e+003,-3.540533e+001
1.325728e+003,-3.628870e+001
1.326693e+003,-3.637891e+001
1.327657e+003,-3.583856e+001
1.328621e+003,-3.619434e+001
1.329585e+003,-3.707434e+001
1.330549e+003,-3.755273e+001
1.331514e+003,-3.887823e+001
1.332478e+003,-4.032788e+001
1.333442e+003,-4.077295e+001
1.334406e+003,-4.000171e+001
1.335371e+003,-3.821313e+001
1.336335e+003,-3.561877e+001
1.337299e+003,-3.301697e+001
1.338263e+003,-3.209100e+001
1.339228e+003,-3.295477e+001
1.340192e+003,-3.428918e+001
1.341156e+003,-3.746173e+001
1.342120e+003,-3.913647e+001
1.343084e+003,-3.821033e+001
1.344049e+003,-3.701471e+001
1.345013e+003,-3.738763e+001
1.345977e+003,-3.851367e+001
1.346941e+003,-3.805603e+001
1.347906e+003,-3.513586e+001
1.348870e+003,-3.174750e+001
1.349834e+003,-2.913568e+001
1.350798e+003,-2.822601e+001
1.351763e+003,-3.085077e+001
1.352727e+003,-3.611908e+001
1.353691e+003,-3.954425e+001
1.354655e+003,-3.930762e+001
1.355620e+003,-3.723297e+001
1.356584e+003,-3.489868e+001
1.357548e+003,-3.226538e+001
1.358512e+003,-3.040826e+001
1.359476e+003,-2.994434e+001
1.360441e+003,-3.041956e+001
1.361405e+003,-3.191931e+001
1.362369e+003,-3.356769e+001
1.363333e+003,-3.576752e+001
1.364298e+003,-3.741315e+001
1.365262e+003,-3.660883e+001
1.366226e+003,-3.331073e+001
1.367190e+003,-2.945514e+001
1.368155e+003,-2.672388e+001
1.369119e+003,-2.535638e+001
1.370083e+003,-2.625800e+001
1.371047e+003,-3.028333e+001
1.372011e+003,-3.167322e+001
1.372976e+003,-2.906891e+001
1.373940e+003,-2.680048e+001
1.374904e+003,-2.644165e+001
1.375868e+003,-2.687024e+001
1.376833e+003,-2.731641e+001
1.377797e+003,-2.756238e+001
1.378761e+003,-2.603888e+001
1.379725e+003,-2.102124e+001
1.380690e+003,-1.703400e+001
1.381654e+003,-2.062134e+001
1.382618e+003,-2.705621e+001
1.383582e+003,-3.005414e+001
1.384547e+003,-2.947186e+001
1.385511e+003,-2.804498e+001
1.386475e+003,-2.734070e+001
1.387439e+003,-2.649530e+001
1.388403e+003,-2.333435e+001
1.389368e+003,-1.792535e+001
1.390332e+003,-1.576941e+001
1.391296e+003,-1.910114e+001
1.392260e+003,-2.078229e+001
1.393225e+003,-1.729498e+001
1.394189e+003,-1.417078e+001
1.395153e+003,-1.469897e+001
1.396117e+003,-1.758136e+001
1.397082e+003,-2.095514e+001
1.398046e+003,-2.376385e+001
1.399010e+003,-2.513629e+001
1.399974e+003,-2.447742e+001
1.400938e+003,-2.312885e+001
1.401903e+003,-2.390015e+001
1.402867e+003,-2.639697e+001
1.403831e+003,-2.683191e+001
1.404795e+003,-2.484375e+001
1.405760e+003,-2.260638e+001
1.406724e+003,-2.115222e+001
1.407688e+003,-2.122034e+001
1.408652e+003,-2.349127e+001
1.409617e+003,-2.690210e+001
1.410581e+003,-2.863550e+001
1.411545e+003,-2.750372e+001
1.412509e+003,-2.501709e+001
1.413474e+003,-2.260535e+001
1.414438e+003,-2.054938e+001
1.415402e+003,-1.800537e+001
1.416366e+003,-1.483209e+001
1.417330e+003,-1.250549e+001
1.418295e+003,-1.149158e+001
1.419259e+003,-1.186652e+001
1.420223e+003,-1.529401e+001
1.421187e+003,-2.109589e+001
1.422152e+003,-2.276270e+001
1.423116e+003,-1.853217e+001
1.424080e+003,-1.372607e+001
1.425044e+003,-9.250488e+000
1.426009e+003,-6.041687e+000
1.426973e+003,-4.629822e+000
1.427937e+003,-4.709961e+000
1.428901e+003,-6.235229e+000
1.429865e+003,-8.554260e+000
1.430830e+003,-1.059705e+001
1.431794e+003,-1.185986e+001
1.432758e+003,-1.245270e+001
1.433722e+003,-1.200854e+001
1.434687e+003,-9.870728e+000
1.435651e+003,-5.891052e+000
1.436615e+003,-7.219238e-001
1.437579e+003,3.992065e+000
1.438544e+003,9.882019e+000
1.439508e+003,1.388196e+001
1.440472e+003,1.352740e+001
1.441436e+003,1.056702e+001
1.442401e+003,7.588196e+000
1.443365e+003,5.247498e+000
1.444329e+003,3.727356e+000
1.445293e+003,3.426636e+000
1.446257e+003,3.935303e+000
1.447222e+003,4.286438e+000
1.448186e+003,4.446472e+000
1.449150e+003,4.575256e+000
1.450114e+003,4.507141e+000
1.451079e+003,4.444397e+000
1.452043e+003,5.753662e+000
1.453007e+003,6.902405e+000
1.453971e+003,4.353638e+000
1.454936e+003,-1.351990e+000
1.455900e+003,-4.204529e+000
1.456864e+003,-2.033325e+000
1.457828e+003,7.339478e-001
1.458792e+003,1.434631e+000
1.459757e+003,1.160095e+000
1.460721e+003,9.788208e-001
1.461685e+003,4.877319e-001
1.462649e+003,-1.528442e+000
1.463614e+003,-4.972961e+000
1.464578e+003,-7.627441e+000
1.465542e+003,-7.663452e+000
1.466506e+003,-5.895996e+000
1.467471e+003,-3.838074e+000
1.468435e+003,-5.827026e-001
1.469399e+003,1.250488e+000
1.470363e+003,-5.806274e-001
1.471328e+003,-2.084778e+000
1.472292e+003,-3.057373e+000
1.473256e+003,-3.725891e+000
1.474220e+003,-3.361206e+000
1.475184e+003,-2.056824e+000
1.476149e+003,-7.028809e-001
1.477113e+003,2.074585e-001
1.478077e+003,1.419800e+000
1.479041e+003,4.090515e+000
1.480006e+003,7.772034e+000
1.480970e+003,9.879089e+000
1.481934e+003,9.483704e+000
1.482898e+003,9.124939e+000
1.483863e+003,7.709900e+000
1.484827e+003,7.623230e+000
1.485791e+003,1.060706e+001
1.486755e+003,1.502838e+001
1.487719e+003,1.971954e+001
1.488684e+003,2.395514e+001
1.489648e+003,2.656311e+001
1.490612e+003,2.750006e+001
1.491576e+003,2.933289e+001
1.492541e+003,3.427832e+001
1.493505e+003,4.062433e+001
1.494469e+003,4.440271e+001
1.495433e+003,4.564667e+001
1.496398e+003,4.781970e+001
1.497362e+003,5.205420e+001
1.498326e+003,5.753058e+001
1.499290e+003,6.370801e+001
1.500255e+003,7.079034e+001
1.501219e+003,7.880872e+001
1.502183e+003,8.767828e+001
1.503147e+003,9.743311e+001
1.504111e+003,1.078040e+002
1.505076e+003,1.205404e+002
1.506040e+003,1.379584e+002
1.507004e+003,1.571516e+002
1.507968e+003,1.736960e+002
1.508933e+003,1.900914e+002
1.509897e+003,2.117122e+002
1.510861e+003,2.402366e+002
1.511825e+003,2.733293e+002
1.512790e+003,3.096801e+002
1.513754e+003,3.474105e+002
1.514718e+003,3.833752e+002
1.515682e+003,4.170945e+002
1.516646e+003,4.527175e+002
1.517611e+003,4.932647e+002
1.518575e+003,5.306077e+002
1.519539e+003,5.644781e+002
1.520503e+003,5.931589e+002
1.521468e+003,6.160925e+002
1.522432e+003,6.325067e+002
1.523396e+003,6.420450e+002
1.524360e+003,6.441891e+002
1.525325e+003,6.376882e+002
1.526289e+003,6.218585e+002
1.527253e+003,5.992872e+002
1.528217e+003,5.741509e+002
1.529182e+003,5.468939e+002
1.530146e+003,5.162551e+002
1.531110e+003,4.819028e+002
1.532074e+003,4.434701e+002
1.533039e+003,3.987094e+002
1.534003e+003,3.507974e+002
1.534967e+003,2.987137e+002
1.535931e+003,2.479823e+002
1.536896e+003,2.028253e+002
1.537860e+003,1.648575e+002
1.538824e+003,1.351929e+002
1.539788e+003,1.139103e+002
1.540752e+003,9.829236e+001
1.541717e+003,8.527161e+001
1.542681e+003,7.500110e+001
1.543645e+003,6.653571e+001
1.544609e+003,6.041754e+001
1.545573e+003,5.645740e+001
1.546538e+003,5.465448e+001
1.547502e+003,5.347052e+001
1.548466e+003,5.275140e+001
1.549430e+003,5.334137e+001
1.550395e+003,5.701971e+001
1.551359e+003,6.201300e+001
1.552323e+003,6.418640e+001
1.553287e+003,6.215619e+001
1.554252e+003,5.707391e+001
1.555216e+003,4.938062e+001
1.556180e+003,4.059583e+001
1.557144e+003,3.429053e+001
1.558109e+003,3.079993e+001
1.559073e+003,2.833002e+001
1.560037e+003,2.682617e+001
1.561001e+003,2.476617e+001
1.561966e+003,2.171497e+001
1.562930e+003,1.918689e+001
1.563894e+003,1.811981e+001
1.564858e+003,1.815552e+001
1.565823e+003,1.888025e+001
1.566787e+003,2.007953e+001
1.567751e+003,2.095160e+001
1.568715e+003,2.110303e+001
1.569679e+003,2.121552e+001
1.570644e+003,2.177325e+001
1.571608e+003,2.251776e+001
1.572572e+003,2.379541e+001
1.573536e+003,2.595300e+001
1.574500e+003,2.786285e+001
1.575465e+003,2.872198e+001
1.576429e+003,2.950604e+001
1.577393e+003,3.081250e+001
1.578357e+003,3.233221e+001
1.579322e+003,3.399512e+001
1.580286e+003,3.588281e+001
1.581250e+003,3.737012e+001
1.582214e+003,3.823413e+001
1.583179e+003,3.870673e+001
1.584143e+003,3.854535e+001
1.585107e+003,3.792163e+001
1.586071e+003,3.737854e+001
1.587036e+003,3.759747e+001
1.588000e+003,3.954199e+001
1.588964e+003,4.325262e+001
1.589928e+003,4.539569e+001
1.590893e+003,4.225372e+001
1.591857e+003,3.795605e+001
1.592821e+003,3.998077e+001
1.593785e+003,4.695239e+001
1.594750e+003,4.933966e+001
1.595714e+003,4.463245e+001
1.596678e+003,4.293073e+001
1.597642e+003,5.048224e+001
1.598606e+003,5.913196e+001
1.599571e+003,6.259711e+001
1.600535e+003,6.342163e+001
1.601499e+003,6.437390e+001
1.602463e+003,6.557275e+001
1.603427e+003,6.643823e+001
1.604392e+003,6.677228e+001
1.605356e+003,6.676190e+001
1.606320e+003,6.680243e+001
1.607284e+003,6.663367e+001
1.608249e+003,6.513477e+001
1.609213e+003,6.225018e+001
1.610177e+003,6.005225e+001
1.611141e+003,5.903290e+001
1.612106e+003,5.837848e+001
1.613070e+003,5.784973e+001
1.614034e+003,5.730786e+001
1.614998e+003,5.620306e+001
1.615963e+003,5.524884e+001
1.616927e+003,5.606213e+001
1.617891e+003,5.840063e+001
1.618855e+003,5.934930e+001
1.619820e+003,5.671893e+001
1.620784e+003,5.276581e+001
1.621748e+003,5.176550e+001
1.622712e+003,5.380090e+001
1.623677e+003,5.503247e+001
1.624641e+003,5.520105e+001
1.625605e+003,5.640131e+001
1.626569e+003,5.900372e+001
1.627533e+003,6.029895e+001
1.628498e+003,5.869141e+001
1.629462e+003,5.667877e+001
1.630426e+003,5.580298e+001
1.631390e+003,5.611865e+001
1.632354e+003,5.802069e+001
1.633319e+003,6.124579e+001
1.634283e+003,6.342737e+001
1.635247e+003,6.253619e+001
1.636211e+003,6.017072e+001
1.637176e+003,5.958063e+001
1.638140e+003,6.082892e+001
1.639104e+003,6.165399e+001
1.640068e+003,6.203467e+001
1.641033e+003,6.077032e+001
1.641997e+003,5.538837e+001
1.642961e+003,5.194336e+001
1.643925e+003,5.478119e+001
1.644890e+003,5.958270e+001
1.645854e+003,6.210736e+001
1.646818e+003,6.271515e+001
1.647782e+003,6.384821e+001
1.648747e+003,6.613647e+001
1.649711e+003,6.762091e+001
1.650675e+003,6.678485e+001
1.651639e+003,6.489276e+001
1.652604e+003,6.381415e+001
1.653568e+003,6.327087e+001
1.654532e+003,6.327832e+001
1.655496e+003,6.451135e+001
1.656460e+003,6.387396e+001
1.657425e+003,5.928546e+001
1.658389e+003,5.463300e+001
1.659353e+003,5.188818e+001
1.660317e+003,5.014697e+001
1.661281e+003,4.862427e+001
1.662246e+003,4.702521e+001
1.663210e+003,4.506256e+001
1.664174e+003,4.284235e+001
1.665138e+003,4.131757e+001
1.666103e+003,4.131219e+001
1.667067e+003,4.182941e+001
1.668031e+003,4.108093e+001
1.668995e+003,3.927667e+001
1.669960e+003,3.762451e+001
1.670924e+003,3.609717e+001
1.671888e+003,3.585010e+001
1.672852e+003,3.774451e+001
1.673817e+003,3.977118e+001
1.674781e+003,4.110321e+001
1.675745e+003,4.150500e+001
1.676709e+003,4.062872e+001
1.677674e+003,3.854822e+001
1.678638e+003,3.519006e+001
1.679602e+003,3.059058e+001
1.680566e+003,2.651874e+001
1.681531e+003,2.467438e+001
1.682495e+003,2.433453e+001
1.683459e+003,2.364453e+001
1.684423e+003,2.257544e+001
1.685387e+003,2.305286e+001
1.686352e+003,2.573950e+001
1.687316e+003,2.701190e+001
1.688280e+003,2.462958e+001
1.689244e+003,2.259668e+001
1.690208e+003,2.511121e+001
1.691173e+003,2.844012e+001
1.692137e+003,2.851483e+001
1.693101e+003,2.633453e+001
1.694065e+003,2.432800e+001
1.695030e+003,2.264081e+001
1.695994e+003,2.164124e+001
1.696958e+003,2.253760e+001
1.697922e+003,2.354346e+001
1.698887e+003,2.160382e+001
1.699851e+003,1.818146e+001
1.700815e+003,1.794122e+001
1.701779e+003,2.096655e+001
1.702744e+003,2.240509e+001
1.703708e+003,2.095465e+001
1.704672e+003,1.890308e+001
1.705636e+003,1.709949e+001
1.706601e+003,1.512665e+001
1.707565e+003,1.243030e+001
1.708529e+003,9.995850e+000
1.709493e+003,1.086584e+001
1.710458e+003,1.590228e+001
1.711422e+003,1.859723e+001
1.712386e+003,1.456323e+001
1.713350e+003,1.005396e+001
1.714314e+003,1.022363e+001
1.715279e+003,1.225232e+001
1.716243e+003,1.203101e+001
1.717207e+003,9.520691e+000
1.718171e+003,5.652100e+000
1.719135e+003,7.912598e-001
1.720100e+003,-2.284851e+000
1.721064e+003,-1.560669e+000
1.722028e+003,7.816162e-001
1.722992e+003,2.185425e+000
1.723957e+003,3.237366e+000
1.724921e+003,4.864319e+000
1.725885e+003,6.701721e+000
1.726849e+003,6.632019e+000
1.727814e+003,3.132690e+000
1.728778e+003,9.421387e-001
1.729742e+003,3.080933e+000
1.730706e+003,6.216309e+000
1.731671e+003,6.752869e+000
1.732635e+003,4.990967e+000
1.733599e+003,2.784058e+000
1.734563e+003,1.127869e+000
1.735528e+003,5.559082e-001
1.736492e+003,1.134094e+000
1.737456e+003,1.955994e+000
1.738420e+003,2.021667e+000
1.739385e+003,1.031616e+000
1.740349e+003,-8.663940e-001
1.741313e+003,-3.568604e+000
1.742277e+003,-6.009155e+000
1.743241e+003,-8.955994e+000
1.744206e+003,-9.775879e+000
1.745170e+003,-6.604126e+000
1.746134e+003,-3.463501e+000
1.747098e+003,-2.439087e+000
1.748063e+003,-2.801697e+000
1.749027e+003,-4.047424e+000
1.749991e+003,-5.507568e+000
1.750955e+003,-6.049133e+000
1.751919e+003,-5.541016e+000
1.752884e+003,-5.379639e+000
1.753848e+003,-6.737854e+000
1.754812e+003,-8.811279e+000
1.755776e+003,-9.666077e+000
1.756741e+003,-8.957703e+000
1.757705e+003,-7.917297e+000
1.758669e+003,-6.831970e+000
1.759633e+003,-5.596924e+000
1.760598e+003,-3.415771e+000
1.761562e+003,-2.958801e+000
1.762526e+003,-6.530640e+000
1.763490e+003,-9.685913e+000
1.764455e+003,-8.268921e+000
1.765419e+003,-4.748413e+000
1.766383e+003,-3.846558e+000
1.767347e+003,-5.811768e+000
1.768312e+003,-6.880127e+000
1.769276e+003,-5.373962e+000
1.770240e+003,-3.900940e+000
1.771204e+003,-4.992554e+000
1.772168e+003,-6.900940e+000
1.773133e+003,-6.034973e+000
1.774097e+003,-2.822021e+000
1.775061e+003,-1.532715e+000
1.776025e+003,-3.199280e+000
1.776990e+003,-5.765930e+000
1.777954e+003,-9.015808e+000
1.778918e+003,-1.046643e+001
1.779882e+003,-7.072388e+000
1.780846e+003,-2.695923e+000
1.781811e+003,-2.268921e+000
1.782775e+003,-4.727417e+000
1.783739e+003,-7.237488e+000
1.784703e+003,-9.405212e+000
1.785668e+003,-9.896484e+000
1.786632e+003,-7.535522e+000
1.787596e+003,-5.241821e+000
1.788560e+003,-4.898010e+000
1.789525e+003,-4.937012e+000
1.790489e+003,-3.079163e+000
1.791453e+003,-4.864502e-001
1.792417e+003,-1.150574e+000
1.793382e+003,-5.403931e+000
1.794346e+003,-8.025146e+000
1.795310e+003,-6.198914e+000
1.796274e+003,-3.259399e+000
1.797239e+003,-2.729065e+000
1.798203e+003,-3.390625e+000
1.799167e+003,-2.980347e+000
1.800131e+003,-2.114624e+000
1.801095e+003,-2.276917e+000
1.802060e+003,-3.103760e+000
1.803024e+003,-3.725098e+000
1.803988e+003,-5.012451e+000
1.804952e+003,-5.528870e+000
1.805917e+003,-4.175415e+000
1.806881e+003,-2.109802e+000
1.807845e+003,1.977539e-002
1.808809e+003,1.995483e+000
1.809773e+003,3.784973e+000
1.810738e+003,5.184814e+000
1.811702e+003,5.341980e+000
1.812666e+003,3.730591e+000
1.813630e+003,1.835938e+000
1.814595e+003,1.763428e+000
1.815559e+003,2.830994e+000
1.816523e+003,2.649231e+000
1.817487e+003,1.168945e+000
1.818452e+003,2.643433e-001
1.819416e+003,6.042480e-001
1.820380e+003,1.043457e+000
1.821344e+003,8.068237e-001
1.822309e+003,3.742676e-001
1.823273e+003,4.470215e-001
1.824237e+003,7.691650e-001
1.825201e+003,6.504517e-001
1.826166e+003,2.203369e-001
1.827130e+003,2.054443e-001
1.828094e+003,5.646362e-001
1.829058e+003,7.121582e-001
1.830022e+003,8.681641e-001
1.830987e+003,4.237671e-001
1.831951e+003,-1.925293e+000
1.832915e+003,-4.585754e+000
1.833879e+003,-4.831848e+000
1.834844e+003,-3.476807e+000
1.835808e+003,-3.801697e+000
1.836772e+003,-5.903503e+000
1.837736e+003,-5.803955e+000
1.838700e+003,-1.894531e+000
1.839665e+003,2.414978e+000
1.840629e+003,4.454224e+000
1.841593e+003,4.290283e+000
1.842557e+003,1.157471e+000
1.843522e+003,-4.877197e+000
1.844486e+003,-7.084167e+000
1.845450e+003,-1.765442e+000
1.846414e+003,1.359802e+000
1.847379e+003,-6.902466e-001
1.848343e+003,-2.252197e+000
1.849307e+003,-2.304077e-001
1.850271e+003,1.820923e+000
1.851236e+003,1.244568e+000
1.852200e+003,-4.837646e-001
1.853164e+003,-1.942383e+000
1.854128e+003,-3.017273e+000
1.855093e+003,-3.307068e+000
1.856057e+003,-2.445862e+000
1.857021e+003,-1.533508e+000
1.857985e+003,-1.820496e+000
1.858949e+003,-2.407104e+000
1.859914e+003,-1.415833e+000
1.860878e+003,9.617920e-001
1.861842e+003,2.913025e+000
1.862806e+003,4.259766e+000
1.863771e+003,6.079651e+000
1.864735e+003,8.705627e+000
1.865699e+003,1.012079e+001
1.866663e+003,9.181152e+000
1.867627e+003,8.087708e+000
1.868592e+003,8.682922e+000
1.869556e+003,9.645691e+000
1.870520e+003,9.464600e+000
1.871484e+003,8.103577e+000
1.872449e+003,5.159119e+000
1.873413e+003,7.390137e-001
1.874377e+003,-9.933472e-001
1.875341e+003,1.253418e+000
1.876306e+003,4.198181e+000
1.877270e+003,6.403320e+000
1.878234e+003,7.937500e+000
1.879198e+003,9.155029e+000
1.880163e+003,9.976624e+000
1.881127e+003,1.023096e+001
1.882091e+003,9.945435e+000
1.883055e+003,8.864441e+000
1.884020e+003,7.010864e+000
1.884984e+003,5.787354e+000
1.885948e+003,6.548950e+000
1.886912e+003,7.964294e+000
1.887876e+003,7.078613e+000
1.888841e+003,4.326660e+000
1.889805e+003,5.017456e+000
1.890769e+003,1.015533e+001
1.891733e+003,1.319672e+001
1.892698e+003,1.237073e+001
1.893662e+003,1.144434e+001
1.894626e+003,1.213464e+001
1.895590e+003,1.280267e+001
1.896554e+003,1.210925e+001
1.897519e+003,1.136108e+001
1.898483e+003,1.178467e+001
1.899447e+003,1.285449e+001
1.900411e+003,1.383850e+001
1.901376e+003,1.476428e+001
1.902340e+003,1.585590e+001
1.903304e+003,1.772632e+001
1.904268e+003,1.878363e+001
1.905233e+003,1.777673e+001
1.906197e+003,1.609033e+001
1.907161e+003,1.486139e+001
1.908125e+003,1.433063e+001
1.909090e+003,1.409943e+001
1.910054e+003,1.422296e+001
1.911018e+003,1.656250e+001
1.911982e+003,2.136359e+001
1.912947e+003,2.417883e+001
1.913911e+003,2.162048e+001
1.914875e+003,1.744440e+001
1.915839e+003,1.751038e+001
1.916803e+003,2.042975e+001
1.917768e+003,2.046393e+001
1.918732e+003,1.712823e+001
1.919696e+003,1.643927e+001
1.920660e+003,2.055841e+001
1.921625e+003,2.186383e+001
1.922589e+003,1.528558e+001
1.923553e+003,1.060358e+001
1.924517e+003,1.573444e+001
1.925481e+003,2.265485e+001
1.926446e+003,2.468048e+001
1.927410e+003,2.330298e+001
1.928374e+003,2.050189e+001
1.929338e+003,1.663666e+001
1.930303e+003,1.583521e+001
1.931267e+003,2.115344e+001
1.932231e+003,2.518738e+001
1.933195e+003,2.294305e+001
1.934160e+003,1.932458e+001
1.935124e+003,1.810187e+001
1.936088e+003,1.712396e+001
1.937052e+003,1.268634e+001
1.938017e+003,7.301819e+000
1.938981e+003,6.799683e+000
1.939945e+003,1.129401e+001
1.940909e+003,1.671613e+001
1.941874e+003,2.079138e+001
1.942838e+003,2.229266e+001
1.943802e+003,2.025336e+001
1.944766e+003,1.741779e+001
1.945730e+003,1.883099e+001
1.946695e+003,2.350989e+001
1.947659e+003,2.560583e+001
1.948623e+003,2.479333e+001
1.949587e+003,2.388293e+001
1.950552e+003,2.339917e+001
1.951516e+003,2.272949e+001
1.952480e+003,2.121698e+001
1.953444e+003,2.040161e+001
1.954408e+003,2.155640e+001
1.955373e+003,2.328229e+001
1.956337e+003,2.455042e+001
1.957301e+003,2.556830e+001
1.958265e+003,2.506116e+001
1.959230e+003,2.267639e+001
1.960194e+003,2.213806e+001
1.961158e+003,2.507385e+001
1.962122e+003,2.675177e+001
1.963087e+003,2.524323e+001
1.964051e+003,2.327521e+001
1.965015e+003,2.196729e+001
1.965979e+003,2.212872e+001
1.966944e+003,2.542493e+001
1.967908e+003,2.946094e+001
1.968872e+003,2.974475e+001
1.969836e+003,2.670306e+001
1.970801e+003,2.494342e+001
1.971765e+003,2.646259e+001
1.972729e+003,2.946637e+001
1.973693e+003,3.289044e+001
1.974657e+003,3.547565e+001
1.975622e+003,3.433722e+001
1.976586e+003,3.093665e+001
1.977550e+003,2.999622e+001
1.978514e+003,3.123309e+001
1.979479e+003,3.118677e+001
1.980443e+003,2.940234e+001
1.981407e+003,2.921283e+001
1.982371e+003,3.212402e+001
1.983335e+003,3.507037e+001
1.984300e+003,3.556329e+001
1.985264e+003,3.416443e+001
1.986228e+003,3.176477e+001
1.987192e+003,2.875037e+001
1.988157e+003,2.717517e+001
1.989121e+003,2.718561e+001
1.990085e+003,2.893774e+001
1.991049e+003,3.457245e+001
1.992014e+003,3.810785e+001
1.992978e+003,3.696338e+001
1.993942e+003,3.568640e+001
1.994906e+003,3.578137e+001
1.995871e+003,3.636993e+001
1.996835e+003,3.729095e+001
1.997799e+003,3.828516e+001
1.998763e+003,3.858386e+001
1.999728e+003,3.819366e+001
