5.003444e+002,2.255102e+002
5.013087e+002,2.244231e+002
5.022729e+002,2.218611e+002
5.032371e+002,2.184058e+002
5.042014e+002,2.134176e+002
5.051656e+002,2.073811e+002
5.061298e+002,2.021360e+002
5.070941e+002,1.992347e+002
5.080583e+002,1.987434e+002
5.090225e+002,1.984511e+002
5.099868e+002,1.995984e+002
5.109510e+002,1.996399e+002
5.119152e+002,1.966392e+002
5.128795e+002,1.903423e+002
5.138437e+002,1.851980e+002
5.148079e+002,1.841924e+002
5.157722e+002,1.836074e+002
5.167364e+002,1.810079e+002
5.177006e+002,1.764269e+002
5.186649e+002,1.725537e+002
5.196291e+002,1.754084e+002
5.205933e+002,1.802591e+002
5.215576e+002,1.799172e+002
5.225218e+002,1.736494e+002
5.234860e+002,1.648412e+002
5.244503e+002,1.602426e+002
5.254145e+002,1.623695e+002
5.263787e+002,1.633187e+002
5.273430e+002,1.627756e+002
5.283072e+002,1.612979e+002
5.292714e+002,1.591478e+002
5.302357e+002,1.545190e+002
5.311999e+002,1.512614e+002
5.321641e+002,1.524996e+002
5.331284e+002,1.545148e+002
5.340926e+002,1.538396e+002
5.350568e+002,1.487335e+002
5.360211e+002,1.423284e+002
5.369853e+002,1.375598e+002
5.379495e+002,1.342371e+002
5.389138e+002,1.322619e+002
5.398780e+002,1.313950e+002
5.408422e+002,1.313496e+002
5.418065e+002,1.322570e+002
5.427707e+002,1.338068e+002
5.437349e+002,1.329923e+002
5.446992e+002,1.280478e+002
5.456634e+002,1.206040e+002
5.466276e+002,1.167036e+002
5.475919e+002,1.222980e+002
5.485561e+002,1.246315e+002
5.495203e+002,1.212694e+002
5.504846e+002,1.145611e+002
5.514488e+002,1.077739e+002
5.524130e+002,1.015642e+002
5.533773e+002,9.758282e+001
5.543415e+002,9.696313e+001
5.553057e+002,9.813440e+001
5.562700e+002,9.998260e+001
5.572342e+002,1.017035e+002
5.581984e+002,1.022897e+002
5.591627e+002,9.855988e+001
5.601269e+002,9.266650e+001
5.610911e+002,8.852209e+001
5.620554e+002,8.808490e+001
5.630196e+002,9.056793e+001
5.639838e+002,9.093506e+001
5.649481e+002,8.812335e+001
5.659123e+002,8.486945e+001
5.668765e+002,8.201379e+001
5.678408e+002,7.983002e+001
5.688050e+002,7.813776e+001
5.697692e+002,7.612830e+001
5.707335e+002,7.384454e+001
5.716977e+002,7.098663e+001
5.726619e+002,6.843817e+001
5.736262e+002,6.755487e+001
5.745904e+002,6.957819e+001
5.755546e+002,7.283685e+001
5.765189e+002,7.489539e+001
5.774831e+002,7.523059e+001
5.784473e+002,7.305981e+001
5.794116e+002,6.812787e+001
5.803758e+002,6.119537e+001
5.813400e+002,5.727740e+001
5.823043e+002,5.590698e+001
5.832685e+002,5.512659e+001
5.842327e+002,5.559552e+001
5.851970e+002,5.730872e+001
5.861612e+002,5.772314e+001
5.871254e+002,5.368463e+001
5.880897e+002,5.051563e+001
5.890539e+002,4.900049e+001
5.900181e+002,4.874573e+001
5.909824e+002,4.919781e+001
5.919466e+002,5.045691e+001
5.929108e+002,5.201093e+001
5.938751e+002,5.439069e+001
5.948393e+002,5.638507e+001
5.958035e+002,5.566534e+001
5.967678e+002,5.068085e+001
5.977320e+002,4.260455e+001
5.986962e+002,3.892212e+001
5.996605e+002,3.874750e+001
6.006247e+002,3.913361e+001
6.015889e+002,3.869574e+001
6.025532e+002,3.762848e+001
6.035174e+002,3.777679e+001
6.044816e+002,4.183673e+001
6.054459e+002,4.437897e+001
6.064101e+002,4.388269e+001
6.073743e+002,4.138428e+001
6.083386e+002,3.875305e+001
6.093028e+002,3.667212e+001
6.102670e+002,3.568329e+001
6.112313e+002,3.630365e+001
6.121955e+002,3.771027e+001
6.131597e+002,3.882483e+001
6.141240e+002,3.889636e+001
6.150882e+002,3.818188e+001
6.160524e+002,3.824542e+001
6.170167e+002,3.921582e+001
6.179809e+002,4.028278e+001
6.189451e+002,4.087201e+001
6.199094e+002,4.072321e+001
6.208736e+002,3.993365e+001
6.218378e+002,3.831677e+001
6.228021e+002,3.745697e+001
6.237663e+002,3.854651e+001
6.247305e+002,4.039691e+001
6.256948e+002,4.056458e+001
6.266590e+002,3.663416e+001
6.276232e+002,3.295056e+001
6.285875e+002,3.424658e+001
6.295517e+002,3.694757e+001
6.305159e+002,3.643701e+001
6.314802e+002,3.025891e+001
6.324444e+002,2.125769e+001
6.334086e+002,1.867169e+001
6.343729e+002,2.089575e+001
6.353371e+002,2.306451e+001
6.363013e+002,2.325171e+001
6.372656e+002,2.204163e+001
6.382298e+002,2.207867e+001
6.391940e+002,2.654742e+001
6.401583e+002,2.733636e+001
6.411225e+002,2.245166e+001
6.420867e+002,1.600354e+001
6.430510e+002,1.267731e+001
6.440152e+002,1.408459e+001
6.449794e+002,1.517975e+001
6.459437e+002,1.283777e+001
6.469079e+002,9.572266e+000
6.478721e+002,7.305725e+000
6.488364e+002,6.892944e+000
6.498006e+002,7.889709e+000
6.507648e+002,9.975769e+000
6.517291e+002,1.232697e+001
6.526933e+002,1.303357e+001
6.536575e+002,1.161346e+001
6.546218e+002,9.229370e+000
6.555860e+002,8.165161e+000
6.565502e+002,9.225952e+000
6.575145e+002,9.848022e+000
6.584787e+002,1.081732e+001
6.594429e+002,1.091589e+001
6.604072e+002,8.325073e+000
6.613714e+002,2.360657e+000
6.623356e+002,-1.632324e+000
6.632999e+002,-3.403320e-001
6.642641e+002,2.132080e+000
6.652283e+002,5.271545e+000
6.661926e+002,8.379333e+000
6.671568e+002,1.000854e+001
6.681210e+002,7.175842e+000
6.690853e+002,1.976257e+000
6.700495e+002,1.049988e+000
6.710137e+002,4.299622e+000
6.719780e+002,8.190735e+000
6.729422e+002,8.764404e+000
6.739064e+002,4.873108e+000
6.748707e+002,3.316406e+000
6.758349e+002,5.227783e+000
6.767991e+002,7.186035e+000
6.777634e+002,8.469910e+000
6.787276e+002,9.363708e+000
6.796918e+002,9.913818e+000
6.806561e+002,8.784546e+000
6.816203e+002,7.721008e+000
6.825845e+002,7.875305e+000
6.835488e+002,8.517273e+000
6.845130e+002,8.220032e+000
6.854772e+002,5.853760e+000
6.864415e+002,3.288696e+000
6.874057e+002,4.149109e+000
6.883699e+002,6.881470e+000
6.893342e+002,9.151978e+000
6.902984e+002,9.843628e+000
6.912626e+002,9.246216e+000
6.922269e+002,8.244873e+000
6.931911e+002,6.403931e+000
6.941553e+002,6.368225e+000
6.951196e+002,9.234009e+000
6.960838e+002,1.279620e+001
6.970480e+002,1.363947e+001
6.980123e+002,9.992249e+000
6.989765e+002,7.112610e+000
6.999407e+002,7.526855e+000
7.009050e+002,8.968079e+000
7.018692e+002,9.970276e+000
7.028334e+002,9.806641e+000
7.037977e+002,8.380371e+000
7.047619e+002,5.110535e+000
7.057261e+002,1.284973e+000
7.066904e+002,-1.678406e+000
7.076546e+002,-3.558960e+000
7.086188e+002,-3.650513e+000
7.095831e+002,-5.251465e-001
7.105473e+002,7.562622e+000
7.115115e+002,1.220697e+001
7.124758e+002,1.233679e+001
7.134400e+002,1.060156e+001
7.144042e+002,8.286255e+000
7.153685e+002,5.738708e+000
7.163327e+002,3.612183e+000
7.172969e+002,2.286926e+000
7.182612e+002,1.563965e+000
7.192254e+002,1.312256e+000
7.201896e+002,1.346130e+000
7.211539e+002,1.513794e+000
7.221181e+002,1.758118e+000
7.230823e+002,2.157349e+000
7.240466e+002,3.415222e+000
7.250108e+002,5.599060e+000
7.259750e+002,6.887451e+000
7.269393e+002,5.540283e+000
7.279035e+002,1.470032e+000
7.288677e+002,-1.453613e+000
7.298320e+002,-1.085510e+000
7.307962e+002,6.097412e-002
7.317604e+002,2.604736e+000
7.327247e+002,5.681213e+000
7.336889e+002,7.622681e+000
7.346531e+002,6.998413e+000
7.356174e+002,5.202881e+000
7.365816e+002,3.231140e+000
7.375458e+002,2.287231e+000
7.385101e+002,4.094238e+000
7.394743e+002,8.486389e+000
7.404385e+002,1.284894e+001
7.414028e+002,1.236035e+001
7.423670e+002,7.332214e+000
7.433312e+002,5.336487e+000
7.442955e+002,7.987000e+000
7.452597e+002,1.159436e+001
7.462239e+002,1.084064e+001
7.471882e+002,3.261292e+000
7.481524e+002,1.234924e+000
7.491166e+002,8.115723e+000
7.500809e+002,1.412067e+001
7.510451e+002,1.554645e+001
7.520093e+002,1.302838e+001
7.529736e+002,9.824768e+000
7.539378e+002,7.718811e+000
7.549020e+002,6.189392e+000
7.558663e+002,4.444580e+000
7.568306e+002,2.913818e+000
7.577948e+002,2.004150e+000
7.587590e+002,1.805664e+000
7.597233e+002,1.993591e+000
7.606875e+002,3.012634e+000
7.616517e+002,5.111206e+000
7.626160e+002,7.235291e+000
7.635802e+002,9.496399e+000
7.645444e+002,1.149451e+001
7.655087e+002,1.198224e+001
7.664729e+002,9.389832e+000
7.674371e+002,8.425720e+000
7.684014e+002,9.489868e+000
7.693656e+002,1.166473e+001
7.703298e+002,1.537994e+001
7.712941e+002,2.030652e+001
7.722583e+002,2.387463e+001
7.732225e+002,2.353949e+001
7.741868e+002,2.141827e+001
7.751510e+002,1.785461e+001
7.761152e+002,1.402271e+001
7.770795e+002,1.225897e+001
7.780437e+002,1.460229e+001
7.790079e+002,2.013593e+001
7.799722e+002,2.180090e+001
7.809364e+002,1.944751e+001
7.819006e+002,1.703619e+001
7.828649e+002,1.592834e+001
7.838291e+002,1.640692e+001
7.847933e+002,1.896082e+001
7.857576e+002,2.601105e+001
7.867218e+002,2.905725e+001
7.876860e+002,2.449329e+001
7.886503e+002,1.851892e+001
7.896145e+002,1.647772e+001
7.905787e+002,1.963928e+001
7.915430e+002,2.408838e+001
7.925072e+002,2.582813e+001
7.934714e+002,2.539386e+001
7.944357e+002,2.320880e+001
7.953999e+002,2.012878e+001
7.963641e+002,1.776971e+001
7.973284e+002,1.775549e+001
7.982926e+002,2.023340e+001
7.992568e+002,2.282037e+001
8.002211e+002,2.505469e+001
8.011853e+002,2.583417e+001
8.021495e+002,2.502478e+001
8.031138e+002,2.387030e+001
8.040780e+002,2.457861e+001
8.050422e+002,2.835693e+001
8.060065e+002,3.097845e+001
8.069707e+002,3.035980e+001
8.079349e+002,2.791632e+001
8.088992e+002,2.452997e+001
8.098634e+002,2.106732e+001
8.108276e+002,1.927008e+001
8.117919e+002,2.257690e+001
8.127561e+002,2.771094e+001
8.137203e+002,2.967474e+001
8.146846e+002,2.848444e+001
8.156488e+002,2.634979e+001
8.166130e+002,2.558160e+001
8.175773e+002,2.634448e+001
8.185415e+002,2.650568e+001
8.195057e+002,2.478406e+001
8.204700e+002,2.313635e+001
8.214342e+002,2.232605e+001
8.223984e+002,2.212323e+001
8.233627e+002,2.178583e+001
8.243269e+002,2.092969e+001
8.252911e+002,2.070612e+001
8.262554e+002,2.137878e+001
8.272196e+002,2.289148e+001
8.281838e+002,2.566254e+001
8.291481e+002,2.949939e+001
8.301123e+002,3.318579e+001
8.310765e+002,3.455481e+001
8.320408e+002,3.340228e+001
8.330050e+002,3.128735e+001
8.339692e+002,2.820551e+001
8.349335e+002,2.486969e+001
8.358977e+002,2.185291e+001
8.368619e+002,1.923724e+001
8.378262e+002,1.862103e+001
8.387904e+002,2.106244e+001
8.397546e+002,2.345477e+001
8.407189e+002,2.518030e+001
8.416831e+002,2.642249e+001
8.426473e+002,2.780212e+001
8.436116e+002,2.981409e+001
8.445758e+002,3.142126e+001
8.455400e+002,3.052631e+001
8.465043e+002,2.803644e+001
8.474685e+002,2.529413e+001
8.484327e+002,2.324701e+001
8.493970e+002,2.241394e+001
8.503612e+002,2.303705e+001
8.513254e+002,2.514240e+001
8.522897e+002,2.702551e+001
8.532539e+002,2.750330e+001
8.542181e+002,2.855908e+001
8.551824e+002,3.266644e+001
8.561466e+002,3.986011e+001
8.571108e+002,4.600208e+001
8.580751e+002,4.781079e+001
8.590393e+002,4.889386e+001
8.600035e+002,5.058911e+001
8.609678e+002,5.305676e+001
8.619320e+002,5.670386e+001
8.628962e+002,6.144543e+001
8.638605e+002,6.573712e+001
8.648247e+002,6.665790e+001
8.657889e+002,6.545813e+001
8.667532e+002,6.500220e+001
8.677174e+002,6.565894e+001
8.686816e+002,6.682336e+001
8.696459e+002,6.800549e+001
8.706101e+002,6.953180e+001
8.715743e+002,7.075073e+001
8.725386e+002,6.893646e+001
8.735028e+002,7.030334e+001
8.744670e+002,7.900824e+001
8.754313e+002,9.061230e+001
8.763955e+002,9.699872e+001
8.773597e+002,9.473560e+001
8.783240e+002,9.090015e+001
8.792882e+002,8.856824e+001
8.802524e+002,8.801624e+001
8.812167e+002,9.076508e+001
8.821809e+002,9.636938e+001
8.831451e+002,1.023030e+002
8.841094e+002,1.052971e+002
8.850736e+002,1.058762e+002
8.860378e+002,1.086553e+002
8.870021e+002,1.144159e+002
8.879663e+002,1.184024e+002
8.889305e+002,1.161253e+002
8.898948e+002,1.090446e+002
8.908590e+002,1.057538e+002
8.918232e+002,1.093614e+002
8.927875e+002,1.138434e+002
8.937517e+002,1.180389e+002
8.947159e+002,1.223835e+002
8.956802e+002,1.274693e+002
8.966444e+002,1.328335e+002
8.976086e+002,1.367728e+002
8.985729e+002,1.380441e+002
8.995371e+002,1.373100e+002
9.005013e+002,1.337212e+002
9.014656e+002,1.286255e+002
9.024298e+002,1.273410e+002
9.033940e+002,1.341371e+002
9.043583e+002,1.470205e+002
9.053225e+002,1.534728e+002
9.062867e+002,1.454379e+002
9.072510e+002,1.402621e+002
9.082152e+002,1.408716e+002
9.091794e+002,1.440459e+002
9.101437e+002,1.470597e+002
9.111079e+002,1.494521e+002
9.120721e+002,1.503291e+002
9.130364e+002,1.470007e+002
9.140006e+002,1.427401e+002
9.149648e+002,1.388907e+002
9.159291e+002,1.364877e+002
9.168933e+002,1.369999e+002
9.178575e+002,1.411099e+002
9.188218e+002,1.468176e+002
9.197860e+002,1.475370e+002
9.207502e+002,1.428956e+002
9.217145e+002,1.396384e+002
9.226787e+002,1.410855e+002
9.236429e+002,1.437921e+002
9.246072e+002,1.417380e+002
9.255714e+002,1.329687e+002
9.265356e+002,1.275983e+002
9.274999e+002,1.313648e+002
9.284641e+002,1.338395e+002
9.294283e+002,1.305607e+002
9.303926e+002,1.240154e+002
9.313568e+002,1.189091e+002
9.323210e+002,1.176320e+002
9.332853e+002,1.181635e+002
9.342495e+002,1.180981e+002
9.352137e+002,1.173467e+002
9.361780e+002,1.161501e+002
9.371422e+002,1.149519e+002
9.381064e+002,1.135269e+002
9.390707e+002,1.107897e+002
9.400349e+002,1.055685e+002
9.409991e+002,1.031442e+002
9.419634e+002,1.053517e+002
9.429276e+002,1.073036e+002
9.438918e+002,1.079025e+002
9.448561e+002,1.076150e+002
9.458203e+002,1.073054e+002
9.467845e+002,1.073641e+002
9.477488e+002,1.075299e+002
9.487130e+002,1.074755e+002
9.496772e+002,1.072930e+002
9.506415e+002,1.071450e+002
9.516057e+002,1.069411e+002
9.525699e+002,1.065122e+002
9.535342e+002,1.056578e+002
9.544984e+002,1.039801e+002
9.554626e+002,9.897467e+001
9.564269e+002,8.993170e+001
9.573911e+002,8.467426e+001
9.583553e+002,8.714282e+001
9.593196e+002,9.347662e+001
9.602838e+002,9.768390e+001
9.612480e+002,9.915015e+001
9.622123e+002,9.924689e+001
9.631765e+002,9.831140e+001
9.641407e+002,9.660382e+001
9.651050e+002,9.315198e+001
9.660692e+002,8.876373e+001
9.670334e+002,8.535974e+001
9.679977e+002,8.444519e+001
9.689619e+002,8.529865e+001
9.699261e+002,8.460022e+001
9.708904e+002,8.305756e+001
9.718546e+002,8.489850e+001
9.728188e+002,9.125818e+001
9.737831e+002,9.942511e+001
9.747473e+002,1.059445e+002
9.757115e+002,1.104501e+002
9.766758e+002,1.163375e+002
9.776400e+002,1.274540e+002
9.786042e+002,1.361549e+002
9.795685e+002,1.408321e+002
9.805327e+002,1.411443e+002
9.814969e+002,1.369745e+002
9.824612e+002,1.286138e+002
9.834254e+002,1.176537e+002
9.843896e+002,1.009377e+002
9.853539e+002,8.432727e+001
9.863181e+002,7.561353e+001
9.872823e+002,7.385602e+001
9.882466e+002,7.310559e+001
9.892108e+002,6.882349e+001
9.901750e+002,6.249799e+001
9.911393e+002,6.001868e+001
9.921035e+002,6.307953e+001
9.930677e+002,6.452374e+001
9.940320e+002,6.362122e+001
9.949962e+002,6.241162e+001
9.959604e+002,6.234308e+001
9.969247e+002,6.369006e+001
9.978889e+002,6.691510e+001
9.988531e+002,7.307642e+001
9.998174e+002,7.866144e+001
1.000782e+003,8.217682e+001
1.001746e+003,8.440436e+001
1.002710e+003,8.643982e+001
1.003674e+003,8.862982e+001
1.004639e+003,9.023157e+001
1.005603e+003,8.991504e+001
1.006567e+003,8.725049e+001
1.007531e+003,8.450372e+001
1.008495e+003,8.160773e+001
1.009460e+003,7.892194e+001
1.010424e+003,7.737604e+001
1.011388e+003,7.653351e+001
1.012352e+003,7.371887e+001
1.013317e+003,6.618109e+001
1.014281e+003,6.115668e+001
1.015245e+003,6.348315e+001
1.016209e+003,6.587811e+001
1.017174e+003,6.249713e+001
1.018138e+003,5.379401e+001
1.019102e+003,4.448547e+001
1.020066e+003,3.834229e+001
1.021031e+003,3.522906e+001
1.021995e+003,3.483240e+001
1.022959e+003,3.606451e+001
1.023923e+003,3.581793e+001
1.024887e+003,3.274207e+001
1.025852e+003,2.809967e+001
1.026816e+003,2.413403e+001
1.027780e+003,2.149438e+001
1.028744e+003,1.834448e+001
1.029709e+003,1.271777e+001
1.030673e+003,8.474182e+000
1.031637e+003,7.869263e+000
1.032601e+003,8.586304e+000
1.033566e+003,6.924988e+000
1.034530e+003,1.845825e+000
1.035494e+003,-2.496399e+000
1.036458e+003,-1.465027e+000
1.037422e+003,3.035522e+000
1.038387e+003,9.141907e+000
1.039351e+003,1.605914e+001
1.040315e+003,2.025134e+001
1.041279e+003,1.886346e+001
1.042244e+003,1.348242e+001
1.043208e+003,1.096698e+001
1.044172e+003,1.247766e+001
1.045136e+003,1.420142e+001
1.046101e+003,1.730249e+001
1.047065e+003,1.983337e+001
1.048029e+003,2.014191e+001
1.048993e+003,1.848700e+001
1.049958e+003,1.655176e+001
1.050922e+003,1.531018e+001
1.051886e+003,1.434167e+001
1.052850e+003,1.275751e+001
1.053814e+003,1.115125e+001
1.054779e+003,1.016650e+001
1.055743e+003,9.942017e+000
1.056707e+003,1.066608e+001
1.057671e+003,1.272443e+001
1.058636e+003,1.603082e+001
1.059600e+003,1.722888e+001
1.060564e+003,1.430151e+001
1.061528e+003,1.354724e+001
1.062493e+003,1.687970e+001
1.063457e+003,2.111780e+001
1.064421e+003,2.366266e+001
1.065385e+003,2.433923e+001
1.066349e+003,2.249146e+001
1.067314e+003,1.512903e+001
1.068278e+003,8.337769e+000
1.069242e+003,6.589539e+000
1.070206e+003,8.404297e+000
1.071171e+003,1.152185e+001
1.072135e+003,1.453931e+001
1.073099e+003,1.689087e+001
1.074063e+003,1.797089e+001
1.075028e+003,1.784735e+001
1.075992e+003,1.776648e+001
1.076956e+003,1.798517e+001
1.077920e+003,1.707703e+001
1.078885e+003,1.407837e+001
1.079849e+003,1.043848e+001
1.080813e+003,8.497498e+000
1.081777e+003,8.788940e+000
1.082741e+003,9.983765e+000
1.083706e+003,1.201813e+001
1.084670e+003,1.326727e+001
1.085634e+003,1.246136e+001
1.086598e+003,1.021484e+001
1.087563e+003,7.598755e+000
1.088527e+003,5.558289e+000
1.089491e+003,5.010864e+000
1.090455e+003,7.418701e+000
1.091420e+003,1.280878e+001
1.092384e+003,1.523523e+001
1.093348e+003,1.298767e+001
1.094312e+003,1.026910e+001
1.095276e+003,1.030481e+001
1.096241e+003,1.229950e+001
1.097205e+003,1.295013e+001
1.098169e+003,1.132410e+001
1.099133e+003,8.790771e+000
1.100098e+003,4.441101e+000
1.101062e+003,1.151184e+000
1.102026e+003,1.577637e+000
1.102990e+003,4.604858e+000
1.103955e+003,7.231018e+000
1.104919e+003,7.541565e+000
1.105883e+003,6.475281e+000
1.106847e+003,6.153870e+000
1.107812e+003,6.574951e+000
1.108776e+003,7.885681e+000
1.109740e+003,1.079926e+001
1.110704e+003,1.316321e+001
1.111668e+003,1.336365e+001
1.112633e+003,1.224103e+001
1.113597e+003,1.231012e+001
1.114561e+003,1.430475e+001
1.115525e+003,1.529431e+001
1.116490e+003,1.324902e+001
1.117454e+003,1.100146e+001
1.118418e+003,1.082062e+001
1.119382e+003,1.255811e+001
1.120347e+003,1.440973e+001
1.121311e+003,1.490125e+001
1.122275e+003,1.474390e+001
1.123239e+003,1.732220e+001
1.124203e+003,2.273938e+001
1.125168e+003,2.454932e+001
1.126132e+003,2.100043e+001
1.127096e+003,1.757019e+001
1.128060e+003,1.864014e+001
1.129025e+003,2.305310e+001
1.129989e+003,2.586145e+001
1.130953e+003,2.523474e+001
1.131917e+003,2.605670e+001
1.132882e+003,3.188672e+001
1.133846e+003,3.758624e+001
1.134810e+003,3.897858e+001
1.135774e+003,3.776477e+001
1.136739e+003,3.857404e+001
1.137703e+003,4.394397e+001
1.138667e+003,5.138129e+001
1.139631e+003,5.666174e+001
1.140595e+003,5.995898e+001
1.141560e+003,6.387842e+001
1.142524e+003,6.827679e+001
1.143488e+003,7.560950e+001
1.144452e+003,8.867853e+001
1.145417e+003,1.058771e+002
1.146381e+003,1.208275e+002
1.147345e+003,1.310654e+002
1.148309e+003,1.449277e+002
1.149274e+003,1.674043e+002
1.150238e+003,1.911522e+002
1.151202e+003,2.130974e+002
1.152166e+003,2.337973e+002
1.153130e+003,2.559740e+002
1.154095e+003,2.800354e+002
1.155059e+003,3.006229e+002
1.156023e+003,3.110245e+002
1.156987e+003,3.111606e+002
1.157952e+003,3.049505e+002
1.158916e+003,2.929154e+002
1.159880e+003,2.773435e+002
1.160844e+003,2.566093e+002
1.161809e+003,2.323231e+002
1.162773e+003,2.096765e+002
1.163737e+003,1.891130e+002
1.164701e+003,1.684883e+002
1.165666e+003,1.456229e+002
1.166630e+003,1.250613e+002
1.167594e+003,1.080465e+002
1.168558e+003,9.446417e+001
1.169522e+003,8.461469e+001
1.170487e+003,7.819690e+001
1.171451e+003,7.375641e+001
1.172415e+003,6.958081e+001
1.173379e+003,6.578864e+001
1.174344e+003,6.436554e+001
1.175308e+003,6.579559e+001
1.176272e+003,6.501196e+001
1.177236e+003,5.816455e+001
1.178201e+003,5.030914e+001
1.179165e+003,4.856299e+001
1.180129e+003,5.269019e+001
1.181093e+003,5.404095e+001
1.182057e+003,4.946301e+001
1.183022e+003,4.436401e+001
1.183986e+003,4.004980e+001
1.184950e+003,3.680420e+001
1.185914e+003,3.508929e+001
1.186879e+003,3.486975e+001
1.187843e+003,3.576746e+001
1.188807e+003,3.736951e+001
1.189771e+003,3.914008e+001
1.190736e+003,3.999683e+001
1.191700e+003,3.981946e+001
1.192664e+003,3.933215e+001
1.193628e+003,3.915253e+001
1.194593e+003,3.851776e+001
1.195557e+003,3.647058e+001
1.196521e+003,3.334839e+001
1.197485e+003,3.068018e+001
1.198449e+003,2.904370e+001
1.199414e+003,2.701648e+001
1.200378e+003,2.382532e+001
1.201342e+003,2.023041e+001
1.202306e+003,1.556866e+001
1.203271e+003,1.080396e+001
1.204235e+003,8.270935e+000
1.205199e+003,8.965759e+000
1.206163e+003,1.076349e+001
1.207128e+003,9.949219e+000
1.208092e+003,6.401550e+000
1.209056e+003,3.376953e+000
1.210020e+003,1.750183e+000
1.210984e+003,-1.035522e+000
1.211949e+003,-6.266541e+000
1.212913e+003,-1.290698e+001
1.213877e+003,-1.994299e+001
1.214841e+003,-2.709467e+001
1.215806e+003,-3.299298e+001
1.216770e+003,-3.749841e+001
1.217734e+003,-4.005194e+001
1.218698e+003,-3.895239e+001
1.219663e+003,-3.720587e+001
1.220627e+003,-3.878693e+001
1.221591e+003,-4.400800e+001
1.222555e+003,-5.027362e+001
1.223520e+003,-5.518610e+001
1.224484e+003,-5.840295e+001
1.225448e+003,-5.910089e+001
1.226412e+003,-5.533990e+001
1.227376e+003,-5.364063e+001
1.228341e+003,-5.611108e+001
1.229305e+003,-5.849420e+001
1.230269e+003,-5.815466e+001
1.231233e+003,-5.623193e+001
1.232198e+003,-5.497723e+001
1.233162e+003,-5.477856e+001
1.234126e+003,-5.483490e+001
1.235090e+003,-5.447595e+001
1.236055e+003,-5.486755e+001
1.237019e+003,-5.803772e+001
1.237983e+003,-6.291205e+001
1.238947e+003,-6.613861e+001
1.239911e+003,-6.613983e+001
1.240876e+003,-6.478302e+001
1.241840e+003,-6.535291e+001
1.242804e+003,-6.812048e+001
1.243768e+003,-6.749652e+001
1.244733e+003,-5.896112e+001
1.245697e+003,-5.293970e+001
1.246661e+003,-5.172711e+001
1.247625e+003,-5.265179e+001
1.248590e+003,-5.448511e+001
1.249554e+003,-5.608771e+001
1.250518e+003,-5.554260e+001
1.251482e+003,-5.203522e+001
1.252447e+003,-4.832288e+001
1.253411e+003,-4.752454e+001
1.254375e+003,-4.836865e+001
1.255339e+003,-4.869092e+001
1.256303e+003,-4.818597e+001
1.257268e+003,-4.686761e+001
1.258232e+003,-4.495703e+001
1.259196e+003,-4.293231e+001
1.260160e+003,-4.096503e+001
1.261125e+003,-3.859534e+001
1.262089e+003,-3.688300e+001
1.263053e+003,-3.726678e+001
1.264017e+003,-3.749457e+001
1.264982e+003,-3.652820e+001
1.265946e+003,-3.524371e+001
1.266910e+003,-3.423419e+001
1.267874e+003,-3.376086e+001
1.268839e+003,-3.416553e+001
1.269803e+003,-3.567236e+001
1.270767e+003,-3.749847e+001
1.271731e+003,-3.788025e+001
1.272695e+003,-3.672491e+001
1.273660e+003,-3.676624e+001
1.274624e+003,-3.902515e+001
1.275588e+003,-4.167340e+001
1.276552e+003,-4.351990e+001
1.277517e+003,-4.450580e+001
1.278481e+003,-4.501758e+001
1.279445e+003,-4.521631e+001
1.280409e+003,-4.482874e+001
1.281374e+003,-4.313141e+001
1.282338e+003,-4.155499e+001
1.283302e+003,-4.117627e+001
1.284266e+003,-4.121729e+001
1.285230e+003,-4.005188e+001
1.286195e+003,-3.816144e+001
1.287159e+003,-3.848022e+001
1.288123e+003,-4.327899e+001
1.289087e+003,-5.022192e+001
1.290052e+003,-5.282416e+001
1.291016e+003,-4.974408e+001
1.291980e+003,-4.808246e+001
1.292944e+003,-4.896692e+001
1.293909e+003,-5.036993e+001
1.294873e+003,-5.127045e+001
1.295837e+003,-5.175507e+001
1.296801e+003,-5.224030e+001
1.297766e+003,-5.273444e+001
1.298730e+003,-5.272552e+001
1.299694e+003,-5.203003e+001
1.300658e+003,-5.117761e+001
1.301622e+003,-5.023419e+001
1.302587e+003,-4.937103e+001
1.303551e+003,-4.922992e+001
1.304515e+003,-4.971613e+001
1.305479e+003,-4.992120e+001
1.306444e+003,-4.918884e+001
1.307408e+003,-4.814575e+001
1.308372e+003,-4.852576e+001
1.309336e+003,-5.116089e+001
1.310301e+003,-5.273267e+001
1.311265e+003,-5.126953e+001
1.312229e+003,-5.053766e+001
1.313193e+003,-5.323541e+001
1.314157e+003,-5.630646e+001
1.315122e+003,-5.616815e+001
1.316086e+003,-5.292761e+001
1.317050e+003,-4.924054e+001
1.318014e+003,-4.657782e+001
1.318979e+003,-4.496277e+001
1.319943e+003,-4.499554e+001
1.320907e+003,-4.634332e+001
1.321871e+003,-4.736658e+001
1.322836e+003,-4.856470e+001
1.323800e+003,-4.933893e+001
1.324764e+003,-4.912061e+001
1.325728e+003,-4.825391e+001
1.326693e+003,-4.744208e+001
1.327657e+003,-4.691925e+001
1.328621e+003,-4.651135e+001
1.329585e+003,-4.461383e+001
1.330549e+003,-4.328778e+001
1.331514e+003,-4.592139e+001
1.332478e+003,-4.941003e+001
1.333442e+003,-5.013678e+001
1.334406e+003,-4.821436e+001
1.335371e+003,-4.594177e+001
1.336335e+003,-4.478308e+001
1.337299e+003,-4.470337e+001
1.338263e+003,-4.597711e+001
1.339228e+003,-4.904120e+001
1.340192e+003,-4.909485e+001
1.341156e+003,-4.370782e+001
1.342120e+003,-3.914380e+001
1.343084e+003,-3.641742e+001
1.344049e+003,-3.540771e+001
1.345013e+003,-3.600787e+001
1.345977e+003,-3.768317e+001
1.346941e+003,-4.004065e+001
1.347906e+003,-4.309644e+001
1.348870e+003,-4.508673e+001
1.349834e+003,-4.400159e+001
1.350798e+003,-4.134808e+001
1.351763e+003,-3.946069e+001
1.352727e+003,-3.825891e+001
1.353691e+003,-3.779834e+001
1.354655e+003,-3.812610e+001
1.355620e+003,-3.890155e+001
1.356584e+003,-3.989948e+001
1.357548e+003,-4.090961e+001
1.358512e+003,-4.101752e+001
1.359476e+003,-3.997168e+001
1.360441e+003,-3.999756e+001
1.361405e+003,-4.268335e+001
1.362369e+003,-4.500793e+001
1.363333e+003,-4.483160e+001
1.364298e+003,-4.364197e+001
1.365262e+003,-4.432263e+001
1.366226e+003,-4.696509e+001
1.367190e+003,-4.794220e+001
1.368155e+003,-4.392316e+001
1.369119e+003,-3.722736e+001
1.370083e+003,-3.535303e+001
1.371047e+003,-4.003741e+001
1.372011e+003,-4.118256e+001
1.372976e+003,-3.621161e+001
1.373940e+003,-3.214728e+001
1.374904e+003,-3.175201e+001
1.375868e+003,-3.318665e+001
1.376833e+003,-3.492877e+001
1.377797e+003,-3.658783e+001
1.378761e+003,-3.684363e+001
1.379725e+003,-3.476428e+001
1.380690e+003,-3.194934e+001
1.381654e+003,-2.942352e+001
1.382618e+003,-2.733777e+001
1.383582e+003,-2.628473e+001
1.384547e+003,-2.613611e+001
1.385511e+003,-2.583160e+001
1.386475e+003,-2.492865e+001
1.387439e+003,-2.400116e+001
1.388403e+003,-2.406573e+001
1.389368e+003,-2.515765e+001
1.390332e+003,-2.502661e+001
1.391296e+003,-2.194434e+001
1.392260e+003,-2.052484e+001
1.393225e+003,-2.313977e+001
1.394189e+003,-2.624335e+001
1.395153e+003,-2.791241e+001
1.396117e+003,-2.866742e+001
1.397082e+003,-2.998297e+001
1.398046e+003,-3.183105e+001
1.399010e+003,-3.201593e+001
1.399974e+003,-2.864191e+001
1.400938e+003,-2.388190e+001
1.401903e+003,-2.350427e+001
1.402867e+003,-2.796619e+001
1.403831e+003,-3.009064e+001
1.404795e+003,-2.985376e+001
1.405760e+003,-2.848920e+001
1.406724e+003,-2.551904e+001
1.407688e+003,-2.359003e+001
1.408652e+003,-2.606482e+001
1.409617e+003,-3.173376e+001
1.410581e+003,-3.558875e+001
1.411545e+003,-3.575464e+001
1.412509e+003,-3.322461e+001
1.413474e+003,-2.722522e+001
1.414438e+003,-2.089502e+001
1.415402e+003,-1.880231e+001
1.416366e+003,-2.025714e+001
1.417330e+003,-2.279517e+001
1.418295e+003,-2.592523e+001
1.419259e+003,-2.805109e+001
1.420223e+003,-2.711163e+001
1.421187e+003,-2.379779e+001
1.422152e+003,-2.084296e+001
1.423116e+003,-1.789014e+001
1.424080e+003,-1.513531e+001
1.425044e+003,-1.231775e+001
1.426009e+003,-1.096112e+001
1.426973e+003,-1.355084e+001
1.427937e+003,-1.691156e+001
1.428901e+003,-1.643042e+001
1.429865e+003,-1.228375e+001
1.430830e+003,-8.644226e+000
1.431794e+003,-8.460938e+000
1.432758e+003,-1.061121e+001
1.433722e+003,-1.245569e+001
1.434687e+003,-1.346350e+001
1.435651e+003,-1.335229e+001
1.436615e+003,-1.438049e+001
1.437579e+003,-1.364752e+001
1.438544e+003,-8.352478e+000
1.439508e+003,-3.453552e+000
1.440472e+003,-2.198486e+000
1.441436e+003,-3.268799e+000
1.442401e+003,-4.313293e+000
1.443365e+003,-4.800232e+000
1.444329e+003,-5.304382e+000
1.445293e+003,-6.249512e+000
1.446257e+003,-6.899109e+000
1.447222e+003,-5.360657e+000
1.448186e+003,-2.369324e+000
1.449150e+003,-2.170959e+000
1.450114e+003,-6.089417e+000
1.451079e+003,-9.429504e+000
1.452043e+003,-8.714539e+000
1.453007e+003,-6.308289e+000
1.453971e+003,-5.788513e+000
1.454936e+003,-7.121643e+000
1.455900e+003,-8.357849e+000
1.456864e+003,-8.918823e+000
1.457828e+003,-9.212708e+000
1.458792e+003,-9.979858e+000
1.459757e+003,-1.061902e+001
1.460721e+003,-1.047766e+001
1.461685e+003,-9.852600e+000
1.462649e+003,-8.926636e+000
1.463614e+003,-7.749084e+000
1.464578e+003,-7.477051e+000
1.465542e+003,-9.591675e+000
1.466506e+003,-1.303198e+001
1.467471e+003,-1.406824e+001
1.468435e+003,-1.178064e+001
1.469399e+003,-9.387512e+000
1.470363e+003,-7.779297e+000
1.471328e+003,-6.000793e+000
1.472292e+003,-3.793518e+000
1.473256e+003,-2.194397e+000
1.474220e+003,-1.365723e+000
1.475184e+003,-9.831543e-001
1.476149e+003,-1.225342e+000
1.477113e+003,-2.119995e+000
1.478077e+003,-2.476135e+000
1.479041e+003,-7.470703e-001
1.480006e+003,2.366577e+000
1.480970e+003,3.568787e+000
1.481934e+003,1.618286e+000
1.482898e+003,1.198059e+000
1.483863e+003,3.429016e+000
1.484827e+003,5.244934e+000
1.485791e+003,6.041260e+000
1.486755e+003,6.603760e+000
1.487719e+003,7.499756e+000
1.488684e+003,8.356262e+000
1.489648e+003,7.679626e+000
1.490612e+003,5.359680e+000
1.491576e+003,5.937805e+000
1.492541e+003,1.384033e+001
1.493505e+003,2.526129e+001
1.494469e+003,3.200153e+001
1.495433e+003,3.436176e+001
1.496398e+003,3.625342e+001
1.497362e+003,3.845087e+001
1.498326e+003,4.133862e+001
1.499290e+003,4.460962e+001
1.500255e+003,4.888983e+001
1.501219e+003,5.515253e+001
1.502183e+003,6.305902e+001
1.503147e+003,7.098810e+001
1.504111e+003,7.824957e+001
1.505076e+003,8.731232e+001
1.506040e+003,1.006789e+002
1.507004e+003,1.156136e+002
1.507968e+003,1.293195e+002
1.508933e+003,1.424299e+002
1.509897e+003,1.559318e+002
1.510861e+003,1.707300e+002
1.511825e+003,1.883569e+002
1.512790e+003,2.092874e+002
1.513754e+003,2.333030e+002
1.514718e+003,2.622706e+002
1.515682e+003,2.957457e+002
1.516646e+003,3.234628e+002
1.517611e+003,3.431799e+002
1.518575e+003,3.618575e+002
1.519539e+003,3.840033e+002
1.520503e+003,4.040424e+002
1.521468e+003,4.191663e+002
1.522432e+003,4.298457e+002
1.523396e+003,4.377334e+002
1.524360e+003,4.424034e+002
1.525325e+003,4.415077e+002
1.526289e+003,4.335911e+002
1.527253e+003,4.198332e+002
1.528217e+003,4.018610e+002
1.529182e+003,3.799847e+002
1.530146e+003,3.560021e+002
1.531110e+003,3.276693e+002
1.532074e+003,3.006481e+002
1.533039e+003,2.764286e+002
1.534003e+003,2.503344e+002
1.534967e+003,2.208688e+002
1.535931e+003,1.897391e+002
1.536896e+003,1.556484e+002
1.537860e+003,1.217978e+002
1.538824e+003,9.642383e+001
1.539788e+003,8.323907e+001
1.540752e+003,7.613403e+001
1.541717e+003,6.759039e+001
1.542681e+003,5.821759e+001
1.543645e+003,5.045880e+001
1.544609e+003,4.505469e+001
1.545573e+003,4.076910e+001
1.546538e+003,3.783600e+001
1.547502e+003,3.446674e+001
1.548466e+003,2.809283e+001
1.549430e+003,2.357031e+001
1.550395e+003,2.722473e+001
1.551359e+003,3.646063e+001
1.552323e+003,4.385461e+001
1.553287e+003,4.672028e+001
1.554252e+003,4.627380e+001
1.555216e+003,4.321423e+001
1.556180e+003,3.826355e+001
1.557144e+003,3.275354e+001
1.558109e+003,2.685175e+001
1.559073e+003,2.246973e+001
1.560037e+003,1.942883e+001
1.561001e+003,1.704083e+001
1.561966e+003,1.567969e+001
1.562930e+003,1.543134e+001
1.563894e+003,1.654749e+001
1.564858e+003,1.826099e+001
1.565823e+003,1.896655e+001
1.566787e+003,1.835510e+001
1.567751e+003,1.756909e+001
1.568715e+003,1.717822e+001
1.569679e+003,1.765552e+001
1.570644e+003,2.005573e+001
1.571608e+003,2.318591e+001
1.572572e+003,2.407806e+001
1.573536e+003,2.284686e+001
1.574500e+003,2.281781e+001
1.575465e+003,2.571790e+001
1.576429e+003,2.876801e+001
1.577393e+003,2.945709e+001
1.578357e+003,2.856671e+001
1.579322e+003,2.720392e+001
1.580286e+003,2.584106e+001
1.581250e+003,2.755603e+001
1.582214e+003,3.426862e+001
1.583179e+003,4.050555e+001
1.584143e+003,4.212262e+001
1.585107e+003,4.065588e+001
1.586071e+003,3.796204e+001
1.587036e+003,3.509174e+001
1.588000e+003,3.402167e+001
1.588964e+003,3.493274e+001
1.589928e+003,3.633661e+001
1.590893e+003,3.771301e+001
1.591857e+003,3.874658e+001
1.592821e+003,3.826239e+001
1.593785e+003,3.689233e+001
1.594750e+003,3.824725e+001
1.595714e+003,4.303265e+001
1.596678e+003,4.756207e+001
1.597642e+003,5.074731e+001
1.598606e+003,5.275531e+001
1.599571e+003,5.345001e+001
1.600535e+003,5.358411e+001
1.601499e+003,5.345679e+001
1.602463e+003,5.336646e+001
1.603427e+003,5.522925e+001
1.604392e+003,6.023602e+001
1.605356e+003,6.435242e+001
1.606320e+003,6.253729e+001
1.607284e+003,5.703931e+001
1.608249e+003,5.408936e+001
1.609213e+003,5.375824e+001
1.610177e+003,5.467163e+001
1.611141e+003,5.762158e+001
1.612106e+003,5.928558e+001
1.613070e+003,5.561761e+001
1.614034e+003,5.225549e+001
1.614998e+003,5.431036e+001
1.615963e+003,5.913477e+001
1.616927e+003,6.208948e+001
1.617891e+003,6.234991e+001
1.618855e+003,6.126947e+001
1.619820e+003,5.918872e+001
1.620784e+003,5.716766e+001
1.621748e+003,5.797546e+001
1.622712e+003,6.153967e+001
1.623677e+003,6.382703e+001
1.624641e+003,6.476904e+001
1.625605e+003,6.482446e+001
1.626569e+003,6.182501e+001
1.627533e+003,5.963287e+001
1.628498e+003,6.115961e+001
1.629462e+003,6.424487e+001
1.630426e+003,6.799902e+001
1.631390e+003,7.138989e+001
1.632354e+003,7.226587e+001
1.633319e+003,7.038214e+001
1.634283e+003,6.866583e+001
1.635247e+003,6.937585e+001
1.636211e+003,7.092395e+001
1.637176e+003,7.067419e+001
1.638140e+003,6.890607e+001
1.639104e+003,6.670630e+001
1.640068e+003,6.328955e+001
1.641033e+003,6.187354e+001
1.641997e+003,6.503851e+001
1.642961e+003,6.826324e+001
1.643925e+003,6.874774e+001
1.644890e+003,6.857446e+001
1.645854e+003,7.027588e+001
1.646818e+003,7.291010e+001
1.647782e+003,7.334344e+001
1.648747e+003,7.076459e+001
1.649711e+003,6.837085e+001
1.650675e+003,6.906097e+001
1.651639e+003,7.185706e+001
1.652604e+003,7.490381e+001
1.653568e+003,7.789038e+001
1.654532e+003,7.775781e+001
1.655496e+003,7.351196e+001
1.656460e+003,6.917621e+001
1.657425e+003,6.607880e+001
1.658389e+003,6.322107e+001
1.659353e+003,5.983405e+001
1.660317e+003,5.646588e+001
1.661281e+003,5.289539e+001
1.662246e+003,4.980591e+001
1.663210e+003,4.963562e+001
1.664174e+003,5.318774e+001
1.665138e+003,5.714087e+001
1.666103e+003,5.864929e+001
1.667067e+003,5.830365e+001
1.668031e+003,5.748846e+001
1.668995e+003,5.629626e+001
1.669960e+003,5.438812e+001
1.670924e+003,5.155389e+001
1.671888e+003,4.927032e+001
1.672852e+003,4.748779e+001
1.673817e+003,4.666772e+001
1.674781e+003,4.779956e+001
1.675745e+003,4.938483e+001
1.676709e+003,5.012854e+001
1.677674e+003,4.979309e+001
1.678638e+003,4.797736e+001
1.679602e+003,4.459320e+001
1.680566e+003,4.087549e+001
1.681531e+003,3.773926e+001
1.682495e+003,3.540717e+001
1.683459e+003,3.380292e+001
1.684423e+003,3.272742e+001
1.685387e+003,3.281262e+001
1.686352e+003,3.460370e+001
1.687316e+003,3.436774e+001
1.688280e+003,2.927539e+001
1.689244e+003,2.494592e+001
1.690208e+003,2.694922e+001
1.691173e+003,3.076660e+001
1.692137e+003,3.178259e+001
1.693101e+003,3.073950e+001
1.694065e+003,2.972430e+001
1.695030e+003,2.888593e+001
1.695994e+003,2.788538e+001
1.696958e+003,2.637787e+001
1.697922e+003,2.520050e+001
1.698887e+003,2.602118e+001
1.699851e+003,2.801978e+001
1.700815e+003,2.818280e+001
1.701779e+003,2.610693e+001
1.702744e+003,2.365320e+001
1.703708e+003,2.160291e+001
1.704672e+003,2.025311e+001
1.705636e+003,1.929224e+001
1.706601e+003,1.864838e+001
1.707565e+003,1.942029e+001
1.708529e+003,2.118427e+001
1.709493e+003,2.158295e+001
1.710458e+003,2.016956e+001
1.711422e+003,1.851178e+001
1.712386e+003,1.770374e+001
1.713350e+003,1.693500e+001
1.714314e+003,1.458521e+001
1.715279e+003,1.169281e+001
1.716243e+003,1.011578e+001
1.717207e+003,1.005994e+001
1.718171e+003,1.207025e+001
1.719135e+003,1.636798e+001
1.720100e+003,1.881067e+001
1.721064e+003,1.597461e+001
1.722028e+003,1.122162e+001
1.722992e+003,9.607788e+000
1.723957e+003,1.101270e+001
1.724921e+003,1.272308e+001
1.725885e+003,1.446368e+001
1.726849e+003,1.429578e+001
1.727814e+003,1.080182e+001
1.728778e+003,8.254456e+000
1.729742e+003,9.308716e+000
1.730706e+003,1.110809e+001
1.731671e+003,1.024805e+001
1.732635e+003,7.439575e+000
1.733599e+003,5.423462e+000
1.734563e+003,4.980286e+000
1.735528e+003,4.927673e+000
1.736492e+003,4.465332e+000
1.737456e+003,4.007507e+000
1.738420e+003,4.084351e+000
1.739385e+003,4.259033e+000
1.740349e+003,4.085449e+000
1.741313e+003,4.044861e+000
1.742277e+003,2.589050e+000
1.743241e+003,-1.828308e+000
1.744206e+003,-4.545715e+000
1.745170e+003,-4.362000e+000
1.746134e+003,-3.450745e+000
1.747098e+003,-2.751831e+000
1.748063e+003,-2.229370e+000
1.749027e+003,-1.777710e+000
1.749991e+003,-1.241943e+000
1.750955e+003,-4.592285e-001
1.751919e+003,5.463867e-001
1.752884e+003,1.755798e+000
1.753848e+003,3.178040e+000
1.754812e+003,4.105835e+000
1.755776e+003,3.316406e+000
1.756741e+003,1.168762e+000
1.757705e+003,-1.562500e+000
1.758669e+003,-6.552490e+000
1.759633e+003,-7.971802e+000
1.760598e+003,-1.796814e+000
1.761562e+003,2.495239e+000
1.762526e+003,6.622925e-001
1.763490e+003,-1.820984e+000
1.764455e+003,-1.186646e+000
1.765419e+003,1.567322e+000
1.766383e+003,5.234009e+000
1.767347e+003,8.629395e+000
1.768312e+003,9.025635e+000
1.769276e+003,4.978760e+000
1.770240e+003,-1.849976e-001
1.771204e+003,-2.768677e+000
1.772168e+003,-3.181580e+000
1.773133e+003,-2.971619e+000
1.774097e+003,-2.195374e+000
1.775061e+003,-1.325012e+000
1.776025e+003,-8.210449e-001
1.776990e+003,2.194214e-001
1.777954e+003,3.016785e+000
1.778918e+003,5.624268e+000
1.779882e+003,6.321350e+000
1.780846e+003,5.585999e+000
1.781811e+003,3.833374e+000
1.782775e+003,1.726257e+000
1.783739e+003,1.437805e+000
1.784703e+003,3.581421e+000
1.785668e+003,5.319763e+000
1.786632e+003,4.441711e+000
1.787596e+003,3.310364e+000
1.788560e+003,4.500305e+000
1.789525e+003,6.840088e+000
1.790489e+003,8.688782e+000
1.791453e+003,9.504395e+000
1.792417e+003,8.137024e+000
1.793382e+003,4.721436e+000
1.794346e+003,2.500183e+000
1.795310e+003,3.239624e+000
1.796274e+003,4.197693e+000
1.797239e+003,2.127502e+000
1.798203e+003,-9.642334e-001
1.799167e+003,4.147949e-001
1.800131e+003,6.839783e+000
1.801095e+003,8.598083e+000
1.802060e+003,2.260254e+000
1.803024e+003,-1.373840e+000
1.803988e+003,6.958008e-003
1.804952e+003,2.182434e+000
1.805917e+003,3.704346e+000
1.806881e+003,4.577209e+000
1.807845e+003,5.228699e+000
1.808809e+003,5.506531e+000
1.809773e+003,4.528625e+000
1.810738e+003,2.456482e+000
1.811702e+003,7.127075e-001
1.812666e+003,1.860352e-001
1.813630e+003,1.379822e+000
1.814595e+003,5.561523e+000
1.815559e+003,1.117047e+001
1.816523e+003,1.142560e+001
1.817487e+003,5.711731e+000
1.818452e+003,2.621277e+000
1.819416e+003,3.269043e+000
1.820380e+003,5.654724e+000
1.821344e+003,1.095062e+001
1.822309e+003,1.467755e+001
1.823273e+003,1.379144e+001
1.824237e+003,1.101569e+001
1.825201e+003,8.281921e+000
1.826166e+003,5.748779e+000
1.827130e+003,3.141663e+000
1.828094e+003,3.729858e-001
1.829058e+003,1.195679e-001
1.830022e+003,5.470520e+000
1.830987e+003,1.043048e+001
1.831951e+003,9.010925e+000
1.832915e+003,4.947754e+000
1.833879e+003,3.525513e+000
1.834844e+003,4.199768e+000
1.835808e+003,4.345459e+000
1.836772e+003,3.720215e+000
1.837736e+003,4.174500e+000
1.838700e+003,6.371643e+000
1.839665e+003,9.035034e+000
1.840629e+003,1.143866e+001
1.841593e+003,1.290967e+001
1.842557e+003,1.137781e+001
1.843522e+003,6.893311e+000
1.844486e+003,4.701721e+000
1.845450e+003,6.767273e+000
1.846414e+003,8.294983e+000
1.847379e+003,7.713074e+000
1.848343e+003,7.564392e+000
1.849307e+003,9.939087e+000
1.850271e+003,1.200458e+001
1.851236e+003,1.190961e+001
1.852200e+003,1.044824e+001
1.853164e+003,7.594116e+000
1.854128e+003,4.106323e+000
1.855093e+003,2.611572e+000
1.856057e+003,4.201111e+000
1.857021e+003,6.708313e+000
1.857985e+003,8.262817e+000
1.858949e+003,8.823486e+000
1.859914e+003,7.952942e+000
1.860878e+003,6.170349e+000
1.861842e+003,6.066467e+000
1.862806e+003,7.577332e+000
1.863771e+003,8.524536e+000
1.864735e+003,8.162170e+000
1.865699e+003,8.363708e+000
1.866663e+003,1.051624e+001
1.867627e+003,1.305176e+001
1.868592e+003,1.454260e+001
1.869556e+003,1.484967e+001
1.870520e+003,1.427338e+001
1.871484e+003,1.284802e+001
1.872449e+003,1.083649e+001
1.873413e+003,8.750732e+000
1.874377e+003,8.227722e+000
1.875341e+003,9.244141e+000
1.876306e+003,1.079370e+001
1.877270e+003,1.231891e+001
1.878234e+003,1.392480e+001
1.879198e+003,1.670093e+001
1.880163e+003,1.943774e+001
1.881127e+003,1.957062e+001
1.882091e+003,1.740625e+001
1.883055e+003,1.555579e+001
1.884020e+003,1.505573e+001
1.884984e+003,1.451978e+001
1.885948e+003,1.265063e+001
1.886912e+003,1.069891e+001
1.887876e+003,1.144995e+001
1.888841e+003,1.463928e+001
1.889805e+003,1.615924e+001
1.890769e+003,1.533093e+001
1.891733e+003,1.691193e+001
1.892698e+003,2.317291e+001
1.893662e+003,2.662079e+001
1.894626e+003,2.326862e+001
1.895590e+003,1.852966e+001
1.896554e+003,1.503729e+001
1.897519e+003,1.334918e+001
1.898483e+003,1.467468e+001
1.899447e+003,1.785968e+001
1.900411e+003,2.008313e+001
1.901376e+003,2.099274e+001
1.902340e+003,2.147742e+001
1.903304e+003,2.212769e+001
1.904268e+003,2.189117e+001
1.905233e+003,1.918146e+001
1.906197e+003,1.644122e+001
1.907161e+003,1.643243e+001
1.908125e+003,1.827246e+001
1.909090e+003,2.004297e+001
1.910054e+003,2.129089e+001
1.911018e+003,2.258929e+001
1.911982e+003,2.419934e+001
1.912947e+003,2.517377e+001
1.913911e+003,2.471515e+001
1.914875e+003,2.418268e+001
1.915839e+003,2.577545e+001
1.916803e+003,2.847815e+001
1.917768e+003,2.796368e+001
1.918732e+003,2.348004e+001
1.919696e+003,2.260974e+001
1.920660e+003,2.713556e+001
1.921625e+003,3.121704e+001
1.922589e+003,3.422791e+001
1.923553e+003,3.507721e+001
1.924517e+003,3.074438e+001
1.925481e+003,2.624658e+001
1.926446e+003,2.625531e+001
1.927410e+003,2.922131e+001
1.928374e+003,3.272870e+001
1.929338e+003,3.605170e+001
1.930303e+003,3.639417e+001
1.931267e+003,3.250500e+001
1.932231e+003,2.919269e+001
1.933195e+003,2.799811e+001
1.934160e+003,2.802429e+001
1.935124e+003,2.932147e+001
1.936088e+003,3.070056e+001
1.937052e+003,3.161731e+001
1.938017e+003,3.173083e+001
1.938981e+003,2.941052e+001
1.939945e+003,2.521802e+001
1.940909e+003,2.246112e+001
1.941874e+003,2.256226e+001
1.942838e+003,2.435114e+001
1.943802e+003,2.715662e+001
1.944766e+003,3.032465e+001
1.945730e+003,3.174353e+001
1.946695e+003,3.141046e+001
1.947659e+003,3.133673e+001
1.948623e+003,3.148590e+001
1.949587e+003,3.106390e+001
1.950552e+003,2.976617e+001
1.951516e+003,2.981561e+001
1.952480e+003,3.300525e+001
1.953444e+003,3.531183e+001
1.954408e+003,3.259351e+001
1.955373e+003,2.834393e+001
1.956337e+003,2.836774e+001
1.957301e+003,3.167267e+001
1.958265e+003,3.326062e+001
1.959230e+003,3.276697e+001
1.960194e+003,3.321216e+001
1.961158e+003,3.567743e+001
1.962122e+003,3.689398e+001
1.963087e+003,3.495306e+001
1.964051e+003,3.304462e+001
1.965015e+003,3.324146e+001
1.965979e+003,3.479315e+001
1.966944e+003,3.748883e+001
1.967908e+003,3.988184e+001
1.968872e+003,3.919922e+001
1.969836e+003,3.620367e+001
1.970801e+003,3.547284e+001
1.971765e+003,3.881171e+001
1.972729e+003,4.233960e+001
1.973693e+003,4.275092e+001
1.974657e+003,4.154016e+001
1.975622e+003,4.044843e+001
1.976586e+003,3.942792e+001
1.977550e+003,3.877173e+001
1.978514e+003,3.856012e+001
1.979479e+003,3.849219e+001
1.980443e+003,3.845123e+001
1.981407e+003,3.853345e+001
1.982371e+003,3.890125e+001
1.983335e+003,3.977734e+001
1.984300e+003,4.118512e+001
1.985264e+003,4.261115e+001
1.986228e+003,4.346204e+001
1.987192e+003,4.388641e+001
1.988157e+003,4.470862e+001
1.989121e+003,4.611591e+001
1.990085e+003,4.777533e+001
1.991049e+003,5.101544e+001
1.992014e+003,5.220746e+001
1.992978e+003,4.724823e+001
1.993942e+003,4.482404e+001
1.994906e+003,5.177667e+001
1.995871e+003,5.833972e+001
1.996835e+003,5.572772e+001
1.997799e+003,4.938452e+001
1.998763e+003,4.717291e+001
1.999728e+003,4.877673e+001
