5.003444e+002,1.806260e+002
5.013087e+002,1.752410e+002
5.022729e+002,1.709501e+002
5.032371e+002,1.681335e+002
5.042014e+002,1.644932e+002
5.051656e+002,1.604332e+002
5.061298e+002,1.576455e+002
5.070941e+002,1.577317e+002
5.080583e+002,1.612408e+002
5.090225e+002,1.621416e+002
5.099868e+002,1.603094e+002
5.109510e+002,1.569857e+002
5.119152e+002,1.519938e+002
5.128795e+002,1.452120e+002
5.138437e+002,1.402419e+002
5.148079e+002,1.395371e+002
5.157722e+002,1.400496e+002
5.167364e+002,1.411187e+002
5.177006e+002,1.419788e+002
5.186649e+002,1.415677e+002
5.196291e+002,1.381217e+002
5.205933e+002,1.343807e+002
5.215576e+002,1.328818e+002
5.225218e+002,1.331212e+002
5.234860e+002,1.330691e+002
5.244503e+002,1.296980e+002
5.254145e+002,1.225177e+002
5.263787e+002,1.176888e+002
5.273430e+002,1.155154e+002
5.283072e+002,1.154294e+002
5.292714e+002,1.169956e+002
5.302357e+002,1.213688e+002
5.311999e+002,1.223256e+002
5.321641e+002,1.188772e+002
5.331284e+002,1.142764e+002
5.340926e+002,1.105288e+002
5.350568e+002,1.080271e+002
5.360211e+002,1.054238e+002
5.369853e+002,1.025920e+002
5.379495e+002,9.982056e+001
5.389138e+002,9.651965e+001
5.398780e+002,9.261462e+001
5.408422e+002,8.906165e+001
5.418065e+002,8.989856e+001
5.427707e+002,9.428918e+001
5.437349e+002,9.588879e+001
5.446992e+002,9.225781e+001
5.456634e+002,8.499475e+001
5.466276e+002,7.998376e+001
5.475919e+002,8.000415e+001
5.485561e+002,7.967932e+001
5.495203e+002,7.858459e+001
5.504846e+002,7.656787e+001
5.514488e+002,7.337317e+001
5.524130e+002,6.823389e+001
5.533773e+002,6.464063e+001
5.543415e+002,6.425488e+001
5.553057e+002,6.587756e+001
5.562700e+002,6.903882e+001
5.572342e+002,7.330261e+001
5.581984e+002,7.665088e+001
5.591627e+002,7.316150e+001
5.601269e+002,6.594849e+001
5.610911e+002,6.082813e+001
5.620554e+002,6.078052e+001
5.630196e+002,6.471033e+001
5.639838e+002,6.491443e+001
5.649481e+002,5.845435e+001
5.659123e+002,5.267603e+001
5.668765e+002,4.934985e+001
5.678408e+002,4.842651e+001
5.688050e+002,4.878088e+001
5.697692e+002,4.974524e+001
5.707335e+002,5.070386e+001
5.716977e+002,5.305811e+001
5.726619e+002,5.529810e+001
5.736262e+002,5.507825e+001
5.745904e+002,5.046167e+001
5.755546e+002,4.484290e+001
5.765189e+002,4.349268e+001
5.774831e+002,4.414465e+001
5.784473e+002,4.334937e+001
5.794116e+002,3.906714e+001
5.803758e+002,3.225793e+001
5.813400e+002,3.013037e+001
5.823043e+002,3.275232e+001
5.832685e+002,3.548474e+001
5.842327e+002,3.795654e+001
5.851970e+002,4.041565e+001
5.861612e+002,4.173364e+001
5.871254e+002,3.980200e+001
5.880897e+002,3.773853e+001
5.890539e+002,3.516455e+001
5.900181e+002,3.266931e+001
5.909824e+002,3.138354e+001
5.919466e+002,3.262573e+001
5.929108e+002,3.468848e+001
5.938751e+002,3.604382e+001
5.948393e+002,3.663550e+001
5.958035e+002,3.627844e+001
5.967678e+002,3.495227e+001
5.977320e+002,3.310474e+001
5.986962e+002,3.221179e+001
5.996605e+002,3.149841e+001
6.006247e+002,3.076074e+001
6.015889e+002,3.060974e+001
6.025532e+002,3.093872e+001
6.035174e+002,2.909119e+001
6.044816e+002,2.042676e+001
6.054459e+002,1.490381e+001
6.064101e+002,1.608667e+001
6.073743e+002,2.099390e+001
6.083386e+002,2.417053e+001
6.093028e+002,2.242603e+001
6.102670e+002,1.946008e+001
6.112313e+002,1.732312e+001
6.121955e+002,1.616321e+001
6.131597e+002,1.616052e+001
6.141240e+002,1.741650e+001
6.150882e+002,1.972083e+001
6.160524e+002,2.360095e+001
6.170167e+002,2.904309e+001
6.179809e+002,3.287500e+001
6.189451e+002,3.301611e+001
6.199094e+002,2.962366e+001
6.208736e+002,2.628906e+001
6.218378e+002,2.389294e+001
6.228021e+002,2.187634e+001
6.237663e+002,1.993652e+001
6.247305e+002,1.862097e+001
6.256948e+002,1.891785e+001
6.266590e+002,2.178894e+001
6.276232e+002,2.332703e+001
6.285875e+002,2.142493e+001
6.295517e+002,1.813867e+001
6.305159e+002,1.480481e+001
6.314802e+002,1.214233e+001
6.324444e+002,1.041980e+001
6.334086e+002,1.277478e+001
6.343729e+002,1.816626e+001
6.353371e+002,2.248206e+001
6.363013e+002,2.410730e+001
6.372656e+002,2.333679e+001
6.382298e+002,2.177161e+001
6.391940e+002,1.994678e+001
6.401583e+002,1.570471e+001
6.411225e+002,6.813843e+000
6.420867e+002,-2.107544e+000
6.430510e+002,-5.481567e+000
6.440152e+002,-8.520508e-001
6.449794e+002,3.772339e+000
6.459437e+002,4.527832e+000
6.469079e+002,3.463013e+000
6.478721e+002,2.136963e+000
6.488364e+002,1.284912e+000
6.498006e+002,5.239258e-001
6.507648e+002,-1.935669e+000
6.517291e+002,-5.139771e+000
6.526933e+002,-5.880127e+000
6.536575e+002,-3.490479e+000
6.546218e+002,6.127930e-001
6.555860e+002,3.924072e+000
6.565502e+002,7.119019e+000
6.575145e+002,7.099121e+000
6.584787e+002,1.550903e+000
6.594429e+002,-4.813354e+000
6.604072e+002,-8.130005e+000
6.613714e+002,-7.606934e+000
6.623356e+002,-6.798706e+000
6.632999e+002,-8.634766e+000
6.642641e+002,-1.038098e+001
6.652283e+002,-9.472290e+000
6.661926e+002,-6.052856e+000
6.671568e+002,-2.595581e+000
6.681210e+002,-2.848511e+000
6.690853e+002,-5.277710e+000
6.700495e+002,-4.627930e+000
6.710137e+002,-9.593506e-001
6.719780e+002,2.978027e+000
6.729422e+002,4.082153e+000
6.739064e+002,1.358643e+000
6.748707e+002,3.098145e-001
6.758349e+002,1.603027e+000
6.767991e+002,2.991699e+000
6.777634e+002,4.418823e+000
6.787276e+002,6.108887e+000
6.796918e+002,7.290283e+000
6.806561e+002,6.347046e+000
6.816203e+002,5.027222e+000
6.825845e+002,4.361694e+000
6.835488e+002,3.786133e+000
6.845130e+002,1.898193e+000
6.854772e+002,-2.534180e+000
6.864415e+002,-6.757690e+000
6.874057e+002,-5.064331e+000
6.883699e+002,1.812744e-001
6.893342e+002,5.225098e+000
6.902984e+002,8.347900e+000
6.912626e+002,9.521973e+000
6.922269e+002,7.280884e+000
6.931911e+002,-2.280151e+000
6.941553e+002,-8.156006e+000
6.951196e+002,-9.107666e+000
6.960838e+002,-7.130127e+000
6.970480e+002,-4.581543e+000
6.980123e+002,-1.115845e+000
6.989765e+002,1.639038e+000
6.999407e+002,2.707642e+000
7.009050e+002,3.032349e+000
7.018692e+002,3.298462e+000
7.028334e+002,3.671021e+000
7.037977e+002,3.706421e+000
7.047619e+002,2.969482e+000
7.057261e+002,2.043457e+000
7.066904e+002,8.669434e-001
7.076546e+002,-6.011963e-001
7.086188e+002,-1.599731e+000
7.095831e+002,-8.784180e-001
7.105473e+002,1.873047e+000
7.115115e+002,4.530273e+000
7.124758e+002,8.822266e+000
7.134400e+002,1.107214e+001
7.144042e+002,8.002075e+000
7.153685e+002,-1.599121e-002
7.163327e+002,-6.186523e+000
7.172969e+002,-6.209473e+000
7.182612e+002,-4.487549e+000
7.192254e+002,-1.496948e+000
7.201896e+002,1.465576e+000
7.211539e+002,2.465332e+000
7.221181e+002,-3.017578e-001
7.230823e+002,-5.004639e+000
7.240466e+002,-6.777222e+000
7.250108e+002,-5.663696e+000
7.259750e+002,-2.984375e+000
7.269393e+002,2.210693e-001
7.279035e+002,3.142578e+000
7.288677e+002,4.230469e+000
7.298320e+002,3.572754e+000
7.307962e+002,3.333618e+000
7.317604e+002,3.762817e+000
7.327247e+002,4.790894e+000
7.336889e+002,5.812622e+000
7.346531e+002,5.721069e+000
7.356174e+002,5.022217e+000
7.365816e+002,6.200317e+000
7.375458e+002,7.578369e+000
7.385101e+002,7.442871e+000
7.394743e+002,5.543091e+000
7.404385e+002,3.144897e+000
7.414028e+002,1.752563e+000
7.423670e+002,2.592773e-001
7.433312e+002,-8.352051e-001
7.442955e+002,-5.112305e-001
7.452597e+002,5.306396e-001
7.462239e+002,6.875000e-001
7.471882e+002,-1.170288e+000
7.481524e+002,-3.295898e-003
7.491166e+002,5.994507e+000
7.500809e+002,1.066064e+001
7.510451e+002,1.152625e+001
7.520093e+002,9.125122e+000
7.529736e+002,5.907349e+000
7.539378e+002,3.181763e+000
7.549020e+002,1.187378e+000
7.558663e+002,-4.167480e-001
7.568306e+002,-1.395264e+000
7.577948e+002,-1.622314e+000
7.587590e+002,-1.205811e+000
7.597233e+002,-4.335938e-001
7.606875e+002,1.653442e+000
7.616517e+002,5.243042e+000
7.626160e+002,7.728638e+000
7.635802e+002,8.215576e+000
7.645444e+002,7.740967e+000
7.655087e+002,8.394043e+000
7.664729e+002,1.094751e+001
7.674371e+002,1.246741e+001
7.684014e+002,1.226050e+001
7.693656e+002,1.153027e+001
7.703298e+002,1.090698e+001
7.712941e+002,1.064087e+001
7.722583e+002,1.095752e+001
7.732225e+002,1.249329e+001
7.741868e+002,1.417944e+001
7.751510e+002,1.510583e+001
7.761152e+002,1.549207e+001
7.770795e+002,1.595935e+001
7.780437e+002,1.697937e+001
7.790079e+002,1.823779e+001
7.799722e+002,1.820862e+001
7.809364e+002,1.672888e+001
7.819006e+002,1.558765e+001
7.828649e+002,1.638794e+001
7.838291e+002,1.869458e+001
7.847933e+002,2.001770e+001
7.857576e+002,1.911072e+001
7.867218e+002,1.714832e+001
7.876860e+002,1.428198e+001
7.886503e+002,1.181531e+001
7.896145e+002,1.065527e+001
7.905787e+002,1.104932e+001
7.915430e+002,1.267126e+001
7.925072e+002,1.573010e+001
7.934714e+002,1.842834e+001
7.944357e+002,1.944165e+001
7.953999e+002,1.914343e+001
7.963641e+002,1.839392e+001
7.973284e+002,1.786157e+001
7.982926e+002,1.752136e+001
7.992568e+002,1.849414e+001
8.002211e+002,2.127637e+001
8.011853e+002,2.162244e+001
8.021495e+002,1.762573e+001
8.031138e+002,1.148755e+001
8.040780e+002,8.461914e+000
8.050422e+002,1.031616e+001
8.060065e+002,1.230090e+001
8.069707e+002,1.145251e+001
8.079349e+002,1.003149e+001
8.088992e+002,1.111731e+001
8.098634e+002,1.576599e+001
8.108276e+002,2.134106e+001
8.117919e+002,2.330029e+001
8.127561e+002,2.209485e+001
8.137203e+002,2.066101e+001
8.146846e+002,1.998596e+001
8.156488e+002,1.978857e+001
8.166130e+002,1.927234e+001
8.175773e+002,1.815808e+001
8.185415e+002,1.731067e+001
8.195057e+002,1.522241e+001
8.204700e+002,1.398608e+001
8.214342e+002,1.519495e+001
8.223984e+002,1.782886e+001
8.233627e+002,1.899072e+001
8.243269e+002,1.692249e+001
8.252911e+002,1.538416e+001
8.262554e+002,1.653320e+001
8.272196e+002,1.902148e+001
8.281838e+002,2.158130e+001
8.291481e+002,2.362585e+001
8.301123e+002,2.544727e+001
8.310765e+002,2.792529e+001
8.320408e+002,3.043005e+001
8.330050e+002,2.932898e+001
8.339692e+002,2.373975e+001
8.349335e+002,1.719836e+001
8.358977e+002,1.351990e+001
8.368619e+002,1.339453e+001
8.378262e+002,1.354980e+001
8.387904e+002,1.296667e+001
8.397546e+002,1.272192e+001
8.407189e+002,1.292969e+001
8.416831e+002,1.382007e+001
8.426473e+002,1.612646e+001
8.436116e+002,2.069019e+001
8.445758e+002,2.493799e+001
8.455400e+002,2.469788e+001
8.465043e+002,2.208508e+001
8.474685e+002,2.007776e+001
8.484327e+002,2.001196e+001
8.493970e+002,2.137610e+001
8.503612e+002,2.254224e+001
8.513254e+002,2.311292e+001
8.522897e+002,2.460083e+001
8.532539e+002,2.725684e+001
8.542181e+002,2.958606e+001
8.551824e+002,3.100098e+001
8.561466e+002,3.228967e+001
8.571108e+002,3.511255e+001
8.580751e+002,3.882129e+001
8.590393e+002,4.249902e+001
8.600035e+002,4.749792e+001
8.609678e+002,5.253833e+001
8.619320e+002,5.568823e+001
8.628962e+002,5.623096e+001
8.638605e+002,5.607581e+001
8.648247e+002,5.887952e+001
8.657889e+002,6.281152e+001
8.667532e+002,6.350000e+001
8.677174e+002,6.039270e+001
8.686816e+002,5.728577e+001
8.696459e+002,5.913757e+001
8.706101e+002,6.739270e+001
8.715743e+002,7.206128e+001
8.725386e+002,6.968433e+001
8.735028e+002,6.861584e+001
8.744670e+002,7.116138e+001
8.754313e+002,7.548962e+001
8.763955e+002,7.845642e+001
8.773597e+002,7.898816e+001
8.783240e+002,7.958691e+001
8.792882e+002,8.193237e+001
8.802524e+002,8.470996e+001
8.812167e+002,8.736499e+001
8.821809e+002,8.947510e+001
8.831451e+002,9.020972e+001
8.841094e+002,8.830847e+001
8.850736e+002,8.460083e+001
8.860378e+002,8.656494e+001
8.870021e+002,9.560327e+001
8.879663e+002,1.033167e+002
8.889305e+002,1.031868e+002
8.898948e+002,9.698181e+001
8.908590e+002,9.501550e+001
8.918232e+002,1.013116e+002
8.927875e+002,1.076359e+002
8.937517e+002,1.129030e+002
8.947159e+002,1.170641e+002
8.956802e+002,1.193745e+002
8.966444e+002,1.196105e+002
8.976086e+002,1.188917e+002
8.985729e+002,1.189941e+002
8.995371e+002,1.195439e+002
9.005013e+002,1.184404e+002
9.014656e+002,1.164862e+002
9.024298e+002,1.166113e+002
9.033940e+002,1.209874e+002
9.043583e+002,1.282668e+002
9.053225e+002,1.315253e+002
9.062867e+002,1.240380e+002
9.072510e+002,1.203867e+002
9.082152e+002,1.251344e+002
9.091794e+002,1.324159e+002
9.101437e+002,1.364822e+002
9.111079e+002,1.363561e+002
9.120721e+002,1.345760e+002
9.130364e+002,1.294684e+002
9.140006e+002,1.247336e+002
9.149648e+002,1.234186e+002
9.159291e+002,1.250546e+002
9.168933e+002,1.279617e+002
9.178575e+002,1.306244e+002
9.188218e+002,1.323630e+002
9.197860e+002,1.312745e+002
9.207502e+002,1.269882e+002
9.217145e+002,1.237815e+002
9.226787e+002,1.240969e+002
9.236429e+002,1.257321e+002
9.246072e+002,1.248945e+002
9.255714e+002,1.204788e+002
9.265356e+002,1.169526e+002
9.274999e+002,1.151769e+002
9.284641e+002,1.137175e+002
9.294283e+002,1.128945e+002
9.303926e+002,1.123292e+002
9.313568e+002,1.113107e+002
9.323210e+002,1.094116e+002
9.332853e+002,1.069393e+002
9.342495e+002,1.048635e+002
9.352137e+002,1.023079e+002
9.361780e+002,9.734692e+001
9.371422e+002,9.011597e+001
9.381064e+002,8.421851e+001
9.390707e+002,8.447925e+001
9.400349e+002,9.185693e+001
9.409991e+002,9.434326e+001
9.419634e+002,8.736743e+001
9.429276e+002,8.174890e+001
9.438918e+002,8.128711e+001
9.448561e+002,8.386646e+001
9.458203e+002,8.597351e+001
9.467845e+002,8.690967e+001
9.477488e+002,8.707214e+001
9.487130e+002,8.539307e+001
9.496772e+002,8.376715e+001
9.506415e+002,8.410583e+001
9.516057e+002,8.617316e+001
9.525699e+002,8.815820e+001
9.535342e+002,8.819983e+001
9.544984e+002,8.636444e+001
9.554626e+002,8.533301e+001
9.564269e+002,8.611786e+001
9.573911e+002,8.699536e+001
9.583553e+002,8.729529e+001
9.593196e+002,8.714252e+001
9.602838e+002,8.666711e+001
9.612480e+002,8.549640e+001
9.622123e+002,8.472083e+001
9.631765e+002,8.567938e+001
9.641407e+002,8.650055e+001
9.651050e+002,8.619763e+001
9.660692e+002,8.463617e+001
9.670334e+002,8.179309e+001
9.679977e+002,7.791144e+001
9.689619e+002,7.491699e+001
9.699261e+002,7.712427e+001
9.708904e+002,8.232233e+001
9.718546e+002,8.508044e+001
9.728188e+002,8.328644e+001
9.737831e+002,8.154065e+001
9.747473e+002,8.762476e+001
9.757115e+002,1.043737e+002
9.766758e+002,1.145212e+002
9.776400e+002,1.128715e+002
9.786042e+002,1.119309e+002
9.795685e+002,1.168376e+002
9.805327e+002,1.222620e+002
9.814969e+002,1.203641e+002
9.824612e+002,1.088849e+002
9.834254e+002,9.593799e+001
9.843896e+002,8.793115e+001
9.853539e+002,8.265924e+001
9.863181e+002,7.907922e+001
9.872823e+002,7.615033e+001
9.882466e+002,7.176929e+001
9.892108e+002,6.462592e+001
9.901750e+002,5.630670e+001
9.911393e+002,5.282898e+001
9.921035e+002,5.567267e+001
9.930677e+002,5.804175e+001
9.940320e+002,6.034576e+001
9.949962e+002,6.277808e+001
9.959604e+002,6.503772e+001
9.969247e+002,6.731488e+001
9.978889e+002,7.134985e+001
9.988531e+002,7.884515e+001
9.998174e+002,8.542224e+001
1.000782e+003,8.888477e+001
1.001746e+003,9.060284e+001
1.002710e+003,9.225452e+001
1.003674e+003,9.455096e+001
1.004639e+003,9.706750e+001
1.005603e+003,9.907739e+001
1.006567e+003,1.003171e+002
1.007531e+003,1.020536e+002
1.008495e+003,1.049651e+002
1.009460e+003,1.072662e+002
1.010424e+003,1.082218e+002
1.011388e+003,1.079872e+002
1.012352e+003,1.064478e+002
1.013317e+003,1.025878e+002
1.014281e+003,9.861841e+001
1.015245e+003,9.576147e+001
1.016209e+003,9.212805e+001
1.017174e+003,8.577112e+001
1.018138e+003,7.734735e+001
1.019102e+003,6.966541e+001
1.020066e+003,6.529779e+001
1.021031e+003,6.316064e+001
1.021995e+003,5.883167e+001
1.022959e+003,5.224811e+001
1.023923e+003,4.580737e+001
1.024887e+003,4.022968e+001
1.025852e+003,3.498413e+001
1.026816e+003,2.915137e+001
1.027780e+003,2.264545e+001
1.028744e+003,1.821765e+001
1.029709e+003,1.762738e+001
1.030673e+003,1.702283e+001
1.031637e+003,1.533130e+001
1.032601e+003,1.256543e+001
1.033566e+003,8.516418e+000
1.034530e+003,3.379761e+000
1.035494e+003,-4.786377e-001
1.036458e+003,-4.389038e-001
1.037422e+003,2.285522e+000
1.038387e+003,6.815857e+000
1.039351e+003,1.246198e+001
1.040315e+003,1.607568e+001
1.041279e+003,1.522760e+001
1.042244e+003,1.123108e+001
1.043208e+003,9.441772e+000
1.044172e+003,1.074933e+001
1.045136e+003,1.179327e+001
1.046101e+003,1.326923e+001
1.047065e+003,1.429077e+001
1.048029e+003,1.357642e+001
1.048993e+003,1.155725e+001
1.049958e+003,1.056250e+001
1.050922e+003,1.253693e+001
1.051886e+003,1.457922e+001
1.052850e+003,1.202454e+001
1.053814e+003,8.279968e+000
1.054779e+003,8.385437e+000
1.055743e+003,1.299811e+001
1.056707e+003,1.841089e+001
1.057671e+003,2.011798e+001
1.058636e+003,1.797363e+001
1.059600e+003,1.773792e+001
1.060564e+003,2.298065e+001
1.061528e+003,2.632776e+001
1.062493e+003,2.447650e+001
1.063457e+003,2.068933e+001
1.064421e+003,1.944617e+001
1.065385e+003,2.139459e+001
1.066349e+003,2.202405e+001
1.067314e+003,1.827423e+001
1.068278e+003,1.337469e+001
1.069242e+003,8.407410e+000
1.070206e+003,4.618774e+000
1.071171e+003,3.809570e+000
1.072135e+003,6.330872e+000
1.073099e+003,1.061401e+001
1.074063e+003,1.461511e+001
1.075028e+003,1.867242e+001
1.075992e+003,1.997656e+001
1.076956e+003,1.684283e+001
1.077920e+003,1.341656e+001
1.078885e+003,1.176831e+001
1.079849e+003,1.138727e+001
1.080813e+003,1.095929e+001
1.081777e+003,1.036188e+001
1.082741e+003,9.990784e+000
1.083706e+003,8.277649e+000
1.084670e+003,7.280945e+000
1.085634e+003,9.395508e+000
1.086598e+003,1.297565e+001
1.087563e+003,1.493085e+001
1.088527e+003,1.384009e+001
1.089491e+003,1.137067e+001
1.090455e+003,9.907715e+000
1.091420e+003,9.136780e+000
1.092384e+003,8.323242e+000
1.093348e+003,6.990540e+000
1.094312e+003,5.625977e+000
1.095276e+003,4.723938e+000
1.096241e+003,4.670166e+000
1.097205e+003,6.014832e+000
1.098169e+003,9.390442e+000
1.099133e+003,1.117151e+001
1.100098e+003,9.156006e+000
1.101062e+003,6.573303e+000
1.102026e+003,5.076843e+000
1.102990e+003,4.827820e+000
1.103955e+003,5.342041e+000
1.104919e+003,6.205566e+000
1.105883e+003,7.346680e+000
1.106847e+003,9.132263e+000
1.107812e+003,1.144476e+001
1.108776e+003,1.248590e+001
1.109740e+003,1.163062e+001
1.110704e+003,1.066998e+001
1.111668e+003,1.135034e+001
1.112633e+003,1.368341e+001
1.113597e+003,1.653784e+001
1.114561e+003,2.070856e+001
1.115525e+003,2.199121e+001
1.116490e+003,1.591229e+001
1.117454e+003,9.822449e+000
1.118418e+003,8.869690e+000
1.119382e+003,1.269946e+001
1.120347e+003,1.857336e+001
1.121311e+003,2.435400e+001
1.122275e+003,2.851337e+001
1.123239e+003,2.893823e+001
1.124203e+003,2.659906e+001
1.125168e+003,2.523157e+001
1.126132e+003,2.522791e+001
1.127096e+003,2.633795e+001
1.128060e+003,2.835815e+001
1.129025e+003,3.094867e+001
1.129989e+003,3.332983e+001
1.130953e+003,3.482471e+001
1.131917e+003,3.702808e+001
1.132882e+003,4.136023e+001
1.133846e+003,4.592316e+001
1.134810e+003,4.937463e+001
1.135774e+003,5.218109e+001
1.136739e+003,5.535010e+001
1.137703e+003,5.943250e+001
1.138667e+003,6.471503e+001
1.139631e+003,7.224353e+001
1.140595e+003,8.165912e+001
1.141560e+003,9.028687e+001
1.142524e+003,9.772461e+001
1.143488e+003,1.070455e+002
1.144452e+003,1.201211e+002
1.145417e+003,1.365195e+002
1.146381e+003,1.548126e+002
1.147345e+003,1.749714e+002
1.148309e+003,1.965366e+002
1.149274e+003,2.210476e+002
1.150238e+003,2.457006e+002
1.151202e+003,2.692355e+002
1.152166e+003,2.923555e+002
1.153130e+003,3.175137e+002
1.154095e+003,3.448623e+002
1.155059e+003,3.684271e+002
1.156023e+003,3.802095e+002
1.156987e+003,3.809715e+002
1.157952e+003,3.802054e+002
1.158916e+003,3.798317e+002
1.159880e+003,3.739579e+002
1.160844e+003,3.566064e+002
1.161809e+003,3.305081e+002
1.162773e+003,3.027950e+002
1.163737e+003,2.729076e+002
1.164701e+003,2.444669e+002
1.165666e+003,2.182733e+002
1.166630e+003,1.947399e+002
1.167594e+003,1.736051e+002
1.168558e+003,1.552968e+002
1.169522e+003,1.401131e+002
1.170487e+003,1.283596e+002
1.171451e+003,1.213990e+002
1.172415e+003,1.213007e+002
1.173379e+003,1.262898e+002
1.174344e+003,1.276856e+002
1.175308e+003,1.256981e+002
1.176272e+003,1.230381e+002
1.177236e+003,1.208406e+002
1.178201e+003,1.185632e+002
1.179165e+003,1.156516e+002
1.180129e+003,1.117145e+002
1.181093e+003,1.043012e+002
1.182057e+003,8.900549e+001
1.183022e+003,7.668048e+001
1.183986e+003,7.205859e+001
1.184950e+003,7.141309e+001
1.185914e+003,7.184015e+001
1.186879e+003,7.264844e+001
1.187843e+003,7.452142e+001
1.188807e+003,7.789648e+001
1.189771e+003,8.179126e+001
1.190736e+003,8.384650e+001
1.191700e+003,8.382605e+001
1.192664e+003,8.355914e+001
1.193628e+003,8.378149e+001
1.194593e+003,8.371558e+001
1.195557e+003,8.287250e+001
1.196521e+003,8.111072e+001
1.197485e+003,7.830634e+001
1.198449e+003,7.472693e+001
1.199414e+003,6.949817e+001
1.200378e+003,6.004181e+001
1.201342e+003,5.089148e+001
1.202306e+003,4.474432e+001
1.203271e+003,4.094580e+001
1.204235e+003,3.787708e+001
1.205199e+003,3.476770e+001
1.206163e+003,3.190173e+001
1.207128e+003,2.967401e+001
1.208092e+003,2.819720e+001
1.209056e+003,2.589606e+001
1.210020e+003,2.299799e+001
1.210984e+003,1.915698e+001
1.211949e+003,1.439056e+001
1.212913e+003,8.308716e+000
1.213877e+003,-5.328979e-001
1.214841e+003,-1.184344e+001
1.215806e+003,-2.002966e+001
1.216770e+003,-2.174664e+001
1.217734e+003,-2.181830e+001
1.218698e+003,-2.303815e+001
1.219663e+003,-2.559119e+001
1.220627e+003,-3.031348e+001
1.221591e+003,-3.673651e+001
1.222555e+003,-4.268280e+001
1.223520e+003,-4.603198e+001
1.224484e+003,-4.705615e+001
1.225448e+003,-4.810010e+001
1.226412e+003,-4.985114e+001
1.227376e+003,-5.015717e+001
1.228341e+003,-4.739368e+001
1.229305e+003,-4.540515e+001
1.230269e+003,-4.710352e+001
1.231233e+003,-5.088770e+001
1.232198e+003,-5.323480e+001
1.233162e+003,-5.299060e+001
1.234126e+003,-5.163947e+001
1.235090e+003,-4.950275e+001
1.236055e+003,-4.821936e+001
1.237019e+003,-5.090607e+001
1.237983e+003,-5.578619e+001
1.238947e+003,-5.723822e+001
1.239911e+003,-5.273480e+001
1.240876e+003,-4.623895e+001
1.241840e+003,-4.390552e+001
1.242804e+003,-4.592639e+001
1.243768e+003,-4.790302e+001
1.244733e+003,-5.161542e+001
1.245697e+003,-5.262744e+001
1.246661e+003,-4.833124e+001
1.247625e+003,-4.418964e+001
1.248590e+003,-4.485309e+001
1.249554e+003,-4.869916e+001
1.250518e+003,-5.049390e+001
1.251482e+003,-4.805267e+001
1.252447e+003,-4.447736e+001
1.253411e+003,-4.347870e+001
1.254375e+003,-4.317560e+001
1.255339e+003,-3.918805e+001
1.256303e+003,-3.137396e+001
1.257268e+003,-2.504053e+001
1.258232e+003,-2.408374e+001
1.259196e+003,-2.634448e+001
1.260160e+003,-2.670032e+001
1.261125e+003,-2.440179e+001
1.262089e+003,-2.200574e+001
1.263053e+003,-2.053577e+001
1.264017e+003,-1.898462e+001
1.264982e+003,-1.711304e+001
1.265946e+003,-1.468488e+001
1.266910e+003,-1.048871e+001
1.267874e+003,-5.450562e+000
1.268839e+003,-2.526428e+000
1.269803e+003,-3.676575e+000
1.270767e+003,-7.281860e+000
1.271731e+003,-1.043359e+001
1.272695e+003,-1.288660e+001
1.273660e+003,-1.505994e+001
1.274624e+003,-1.768677e+001
1.275588e+003,-2.022211e+001
1.276552e+003,-2.060675e+001
1.277517e+003,-2.058002e+001
1.278481e+003,-2.513312e+001
1.279445e+003,-3.520813e+001
1.280409e+003,-4.237653e+001
1.281374e+003,-4.261957e+001
1.282338e+003,-4.074103e+001
1.283302e+003,-3.796844e+001
1.284266e+003,-3.556549e+001
1.285230e+003,-3.531580e+001
1.286195e+003,-3.710510e+001
1.287159e+003,-3.887292e+001
1.288123e+003,-3.872247e+001
1.289087e+003,-3.714447e+001
1.290052e+003,-3.653790e+001
1.291016e+003,-3.734418e+001
1.291980e+003,-3.917780e+001
1.292944e+003,-4.417017e+001
1.293909e+003,-4.821954e+001
1.294873e+003,-4.874225e+001
1.295837e+003,-4.723364e+001
1.296801e+003,-4.568878e+001
1.297766e+003,-4.446814e+001
1.298730e+003,-4.356958e+001
1.299694e+003,-4.315540e+001
1.300658e+003,-4.354547e+001
1.301622e+003,-4.587646e+001
1.302587e+003,-4.846393e+001
1.303551e+003,-4.822192e+001
1.304515e+003,-4.471967e+001
1.305479e+003,-4.103650e+001
1.306444e+003,-3.997955e+001
1.307408e+003,-4.085193e+001
1.308372e+003,-4.054523e+001
1.309336e+003,-3.853412e+001
1.310301e+003,-3.708893e+001
1.311265e+003,-3.469464e+001
1.312229e+003,-3.433173e+001
1.313193e+003,-3.988770e+001
1.314157e+003,-4.614087e+001
1.315122e+003,-4.669360e+001
1.316086e+003,-4.196759e+001
1.317050e+003,-3.790399e+001
1.318014e+003,-3.820715e+001
1.318979e+003,-4.069159e+001
1.319943e+003,-4.201874e+001
1.320907e+003,-4.207104e+001
1.321871e+003,-4.211890e+001
1.322836e+003,-4.310938e+001
1.323800e+003,-4.314758e+001
1.324764e+003,-3.986011e+001
1.325728e+003,-3.550403e+001
1.326693e+003,-3.467706e+001
1.327657e+003,-3.782910e+001
1.328621e+003,-4.010522e+001
1.329585e+003,-3.900085e+001
1.330549e+003,-3.617371e+001
1.331514e+003,-3.291522e+001
1.332478e+003,-3.029956e+001
1.333442e+003,-2.883990e+001
1.334406e+003,-2.839673e+001
1.335371e+003,-2.886493e+001
1.336335e+003,-3.015692e+001
1.337299e+003,-3.189148e+001
1.338263e+003,-3.362628e+001
1.339228e+003,-3.555658e+001
1.340192e+003,-3.538446e+001
1.341156e+003,-3.028717e+001
1.342120e+003,-2.741180e+001
1.343084e+003,-2.969238e+001
1.344049e+003,-3.367578e+001
1.345013e+003,-3.673895e+001
1.345977e+003,-3.832935e+001
1.346941e+003,-3.796313e+001
1.347906e+003,-3.533618e+001
1.348870e+003,-3.383997e+001
1.349834e+003,-3.873096e+001
1.350798e+003,-4.544739e+001
1.351763e+003,-4.331885e+001
1.352727e+003,-3.403735e+001
1.353691e+003,-2.892834e+001
1.354655e+003,-3.285211e+001
1.355620e+003,-3.926508e+001
1.356584e+003,-4.025745e+001
1.357548e+003,-3.633362e+001
1.358512e+003,-3.340833e+001
1.359476e+003,-3.244684e+001
1.360441e+003,-3.210303e+001
1.361405e+003,-3.126605e+001
1.362369e+003,-3.125208e+001
1.363333e+003,-3.407330e+001
1.364298e+003,-3.744086e+001
1.365262e+003,-3.738538e+001
1.366226e+003,-3.367120e+001
1.367190e+003,-3.067139e+001
1.368155e+003,-3.236310e+001
1.369119e+003,-3.661993e+001
1.370083e+003,-3.644025e+001
1.371047e+003,-2.985284e+001
1.372011e+003,-2.611053e+001
1.372976e+003,-2.717859e+001
1.373940e+003,-2.936469e+001
1.374904e+003,-3.191309e+001
1.375868e+003,-3.404565e+001
1.376833e+003,-3.526270e+001
1.377797e+003,-3.548083e+001
1.378761e+003,-3.384637e+001
1.379725e+003,-2.933539e+001
1.380690e+003,-2.455237e+001
1.381654e+003,-2.220941e+001
1.382618e+003,-2.107343e+001
1.383582e+003,-1.966418e+001
1.384547e+003,-1.792773e+001
1.385511e+003,-1.624335e+001
1.386475e+003,-1.482074e+001
1.387439e+003,-1.429260e+001
1.388403e+003,-1.580432e+001
1.389368e+003,-1.939777e+001
1.390332e+003,-2.279419e+001
1.391296e+003,-2.664331e+001
1.392260e+003,-2.808521e+001
1.393225e+003,-2.470679e+001
1.394189e+003,-2.119165e+001
1.395153e+003,-1.982526e+001
1.396117e+003,-2.021753e+001
1.397082e+003,-2.177380e+001
1.398046e+003,-2.385376e+001
1.399010e+003,-2.552747e+001
1.399974e+003,-2.623798e+001
1.400938e+003,-2.638446e+001
1.401903e+003,-2.552826e+001
1.402867e+003,-2.187732e+001
1.403831e+003,-1.938074e+001
1.404795e+003,-1.973016e+001
1.405760e+003,-2.010266e+001
1.406724e+003,-2.057800e+001
1.407688e+003,-2.145038e+001
1.408652e+003,-2.214935e+001
1.409617e+003,-2.218176e+001
1.410581e+003,-2.177679e+001
1.411545e+003,-2.109393e+001
1.412509e+003,-1.970087e+001
1.413474e+003,-1.644916e+001
1.414438e+003,-1.357111e+001
1.415402e+003,-1.443719e+001
1.416366e+003,-1.804407e+001
1.417330e+003,-2.052856e+001
1.418295e+003,-2.039081e+001
1.419259e+003,-1.860999e+001
1.420223e+003,-1.578583e+001
1.421187e+003,-1.260364e+001
1.422152e+003,-1.169165e+001
1.423116e+003,-1.322906e+001
1.424080e+003,-1.480420e+001
1.425044e+003,-1.824683e+001
1.426009e+003,-1.979651e+001
1.426973e+003,-1.608429e+001
1.427937e+003,-1.069958e+001
1.428901e+003,-7.475098e+000
1.429865e+003,-6.785156e+000
1.430830e+003,-7.490295e+000
1.431794e+003,-8.970276e+000
1.432758e+003,-1.016431e+001
1.433722e+003,-8.103149e+000
1.434687e+003,-1.585022e+000
1.435651e+003,2.008423e+000
1.436615e+003,-2.859192e+000
1.437579e+003,-5.668945e+000
1.438544e+003,-4.178650e+000
1.439508e+003,-1.302002e+000
1.440472e+003,2.639404e+000
1.441436e+003,6.567688e+000
1.442401e+003,8.349548e+000
1.443365e+003,7.416077e+000
1.444329e+003,4.733582e+000
1.445293e+003,4.834595e-001
1.446257e+003,-2.971924e+000
1.447222e+003,2.579956e-001
1.448186e+003,8.413818e+000
1.449150e+003,1.168799e+001
1.450114e+003,8.118164e+000
1.451079e+003,3.649963e+000
1.452043e+003,1.190979e+000
1.453007e+003,2.427368e-001
1.453971e+003,1.074219e-002
1.454936e+003,2.086792e-001
1.455900e+003,5.346069e-001
1.456864e+003,1.408936e+000
1.457828e+003,1.605896e+000
1.458792e+003,-1.800781e+000
1.459757e+003,-4.758850e+000
1.460721e+003,-2.219116e+000
1.461685e+003,2.883240e+000
1.462649e+003,4.173035e+000
1.463614e+003,4.177246e-001
1.464578e+003,-3.973083e+000
1.465542e+003,-5.324768e+000
1.466506e+003,-4.732178e+000
1.467471e+003,-5.131042e+000
1.468435e+003,-6.682190e+000
1.469399e+003,-5.515686e+000
1.470363e+003,5.990601e-001
1.471328e+003,5.384338e+000
1.472292e+003,6.737000e+000
1.473256e+003,6.085754e+000
1.474220e+003,4.138916e+000
1.475184e+003,2.276855e+000
1.476149e+003,2.092712e+000
1.477113e+003,3.669556e+000
1.478077e+003,5.558167e+000
1.479041e+003,6.735413e+000
1.480006e+003,7.864746e+000
1.480970e+003,1.016010e+001
1.481934e+003,1.362762e+001
1.482898e+003,1.595105e+001
1.483863e+003,1.678644e+001
1.484827e+003,1.686981e+001
1.485791e+003,1.602948e+001
1.486755e+003,1.564642e+001
1.487719e+003,1.663934e+001
1.488684e+003,1.865601e+001
1.489648e+003,2.103839e+001
1.490612e+003,2.381750e+001
1.491576e+003,2.756970e+001
1.492541e+003,3.274750e+001
1.493505e+003,3.861572e+001
1.494469e+003,4.385052e+001
1.495433e+003,4.799561e+001
1.496398e+003,5.110516e+001
1.497362e+003,5.327966e+001
1.498326e+003,5.678528e+001
1.499290e+003,6.316046e+001
1.500255e+003,7.108270e+001
1.501219e+003,7.837537e+001
1.502183e+003,8.519714e+001
1.503147e+003,9.351941e+001
1.504111e+003,1.037594e+002
1.505076e+003,1.156116e+002
1.506040e+003,1.298282e+002
1.507004e+003,1.448655e+002
1.507968e+003,1.571545e+002
1.508933e+003,1.695836e+002
1.509897e+003,1.888682e+002
1.510861e+003,2.167129e+002
1.511825e+003,2.478882e+002
1.512790e+003,2.784432e+002
1.513754e+003,3.090192e+002
1.514718e+003,3.418493e+002
1.515682e+003,3.764446e+002
1.516646e+003,4.106028e+002
1.517611e+003,4.450774e+002
1.518575e+003,4.783374e+002
1.519539e+003,5.143907e+002
1.520503e+003,5.454226e+002
1.521468e+003,5.675628e+002
1.522432e+003,5.814358e+002
1.523396e+003,5.879243e+002
1.524360e+003,5.875316e+002
1.525325e+003,5.807990e+002
1.526289e+003,5.682427e+002
1.527253e+003,5.515417e+002
1.528217e+003,5.335211e+002
1.529182e+003,5.146293e+002
1.530146e+003,4.915127e+002
1.531110e+003,4.639636e+002
1.532074e+003,4.312832e+002
1.533039e+003,3.900185e+002
1.534003e+003,3.460505e+002
1.534967e+003,3.011760e+002
1.535931e+003,2.576046e+002
1.536896e+003,2.154969e+002
1.537860e+003,1.766711e+002
1.538824e+003,1.448837e+002
1.539788e+003,1.216820e+002
1.540752e+003,1.045733e+002
1.541717e+003,9.092163e+001
1.542681e+003,8.046429e+001
1.543645e+003,6.942554e+001
1.544609e+003,5.660120e+001
1.545573e+003,4.810223e+001
1.546538e+003,4.542413e+001
1.547502e+003,4.348206e+001
1.548466e+003,3.984125e+001
1.549430e+003,3.781360e+001
1.550395e+003,4.209430e+001
1.551359e+003,5.026270e+001
1.552323e+003,5.583020e+001
1.553287e+003,5.650848e+001
1.554252e+003,5.370667e+001
1.555216e+003,4.826630e+001
1.556180e+003,4.090857e+001
1.557144e+003,3.255792e+001
1.558109e+003,2.343011e+001
1.559073e+003,1.882599e+001
1.560037e+003,2.044855e+001
1.561001e+003,2.159741e+001
1.561966e+003,1.985400e+001
1.562930e+003,1.829730e+001
1.563894e+003,1.997235e+001
1.564858e+003,2.342267e+001
1.565823e+003,2.518469e+001
1.566787e+003,2.456805e+001
1.567751e+003,2.322388e+001
1.568715e+003,2.191144e+001
1.569679e+003,2.143311e+001
1.570644e+003,2.348785e+001
1.571608e+003,2.638361e+001
1.572572e+003,2.568610e+001
1.573536e+003,2.149396e+001
1.574500e+003,1.884406e+001
1.575465e+003,1.941272e+001
1.576429e+003,2.153027e+001
1.577393e+003,2.442126e+001
1.578357e+003,2.736725e+001
1.579322e+003,2.909338e+001
1.580286e+003,2.978595e+001
1.581250e+003,3.110522e+001
1.582214e+003,3.366217e+001
1.583179e+003,3.654321e+001
1.584143e+003,3.966486e+001
1.585107e+003,4.164044e+001
1.586071e+003,4.096582e+001
1.587036e+003,3.880878e+001
1.588000e+003,3.665497e+001
1.588964e+003,3.431653e+001
1.589928e+003,3.383838e+001
1.590893e+003,3.761133e+001
1.591857e+003,4.318665e+001
1.592821e+003,4.737732e+001
1.593785e+003,5.024463e+001
1.594750e+003,5.127740e+001
1.595714e+003,4.980182e+001
1.596678e+003,4.886469e+001
1.597642e+003,4.965118e+001
1.598606e+003,5.155591e+001
1.599571e+003,5.552411e+001
1.600535e+003,5.971362e+001
1.601499e+003,6.109418e+001
1.602463e+003,5.987891e+001
1.603427e+003,5.883032e+001
1.604392e+003,5.909039e+001
1.605356e+003,5.993073e+001
1.606320e+003,6.112994e+001
1.607284e+003,6.222205e+001
1.608249e+003,6.143549e+001
1.609213e+003,5.868982e+001
1.610177e+003,5.674359e+001
1.611141e+003,5.612140e+001
1.612106e+003,5.619122e+001
1.613070e+003,5.798907e+001
1.614034e+003,5.899908e+001
1.614998e+003,5.594513e+001
1.615963e+003,5.146161e+001
1.616927e+003,5.028394e+001
1.617891e+003,5.271973e+001
1.618855e+003,5.523206e+001
1.619820e+003,5.555518e+001
1.620784e+003,5.435742e+001
1.621748e+003,5.327649e+001
1.622712e+003,5.291296e+001
1.623677e+003,5.268109e+001
1.624641e+003,5.254047e+001
1.625605e+003,5.315338e+001
1.626569e+003,5.398846e+001
1.627533e+003,5.421967e+001
1.628498e+003,5.339447e+001
1.629462e+003,5.299005e+001
1.630426e+003,5.490948e+001
1.631390e+003,5.783765e+001
1.632354e+003,5.855627e+001
1.633319e+003,5.650073e+001
1.634283e+003,5.467841e+001
1.635247e+003,5.526331e+001
1.636211e+003,5.718573e+001
1.637176e+003,5.896350e+001
1.638140e+003,6.080139e+001
1.639104e+003,6.284894e+001
1.640068e+003,6.544800e+001
1.641033e+003,6.589795e+001
1.641997e+003,6.137292e+001
1.642961e+003,5.816919e+001
1.643925e+003,6.073212e+001
1.644890e+003,6.480286e+001
1.645854e+003,6.618268e+001
1.646818e+003,6.524133e+001
1.647782e+003,6.394446e+001
1.648747e+003,6.296185e+001
1.649711e+003,6.262299e+001
1.650675e+003,6.374353e+001
1.651639e+003,6.544135e+001
1.652604e+003,6.504840e+001
1.653568e+003,6.238959e+001
1.654532e+003,5.994836e+001
1.655496e+003,5.773926e+001
1.656460e+003,5.619141e+001
1.657425e+003,5.569098e+001
1.658389e+003,5.597229e+001
1.659353e+003,5.857751e+001
1.660317e+003,6.051227e+001
1.661281e+003,5.693750e+001
1.662246e+003,4.977820e+001
1.663210e+003,4.589966e+001
1.664174e+003,4.761945e+001
1.665138e+003,5.052625e+001
1.666103e+003,5.091882e+001
1.667067e+003,4.940076e+001
1.668031e+003,4.737616e+001
1.668995e+003,4.497675e+001
1.669960e+003,4.189471e+001
1.670924e+003,3.760815e+001
1.671888e+003,3.548834e+001
1.672852e+003,3.756683e+001
1.673817e+003,4.011212e+001
1.674781e+003,4.164801e+001
1.675745e+003,4.168134e+001
1.676709e+003,3.821399e+001
1.677674e+003,3.277148e+001
1.678638e+003,3.034290e+001
1.679602e+003,3.246887e+001
1.680566e+003,3.484802e+001
1.681531e+003,3.429584e+001
1.682495e+003,3.247803e+001
1.683459e+003,3.175610e+001
1.684423e+003,3.166815e+001
1.685387e+003,3.101959e+001
1.686352e+003,2.985059e+001
1.687316e+003,2.823932e+001
1.688280e+003,2.594391e+001
1.689244e+003,2.365277e+001
1.690208e+003,2.079755e+001
1.691173e+003,1.874976e+001
1.692137e+003,2.050031e+001
1.693101e+003,2.491058e+001
1.694065e+003,2.683582e+001
1.695030e+003,2.453107e+001
1.695994e+003,2.197418e+001
1.696958e+003,2.232123e+001
1.697922e+003,2.330640e+001
1.698887e+003,2.157861e+001
1.699851e+003,1.835614e+001
1.700815e+003,1.718347e+001
1.701779e+003,1.810864e+001
1.702744e+003,1.863501e+001
1.703708e+003,1.844073e+001
1.704672e+003,1.799554e+001
1.705636e+003,1.675854e+001
1.706601e+003,1.504645e+001
1.707565e+003,1.423462e+001
1.708529e+003,1.430408e+001
1.709493e+003,1.394336e+001
1.710458e+003,1.276801e+001
1.711422e+003,1.269604e+001
1.712386e+003,1.639117e+001
1.713350e+003,1.993726e+001
1.714314e+003,1.942767e+001
1.715279e+003,1.634534e+001
1.716243e+003,1.262799e+001
1.717207e+003,9.119934e+000
1.718171e+003,8.784973e+000
1.719135e+003,1.252893e+001
1.720100e+003,1.551056e+001
1.721064e+003,1.422705e+001
1.722028e+003,1.066876e+001
1.722992e+003,7.597412e+000
1.723957e+003,5.589355e+000
1.724921e+003,5.495422e+000
1.725885e+003,7.023438e+000
1.726849e+003,7.190674e+000
1.727814e+003,5.460449e+000
1.728778e+003,4.077454e+000
1.729742e+003,3.548279e+000
1.730706e+003,3.871216e+000
1.731671e+003,5.089600e+000
1.732635e+003,6.280090e+000
1.733599e+003,6.657104e+000
1.734563e+003,6.518555e+000
1.735528e+003,6.235596e+000
1.736492e+003,5.804932e+000
1.737456e+003,5.602905e+000
1.738420e+003,6.201599e+000
1.739385e+003,6.822144e+000
1.740349e+003,5.880859e+000
1.741313e+003,3.397827e+000
1.742277e+003,9.606934e-001
1.743241e+003,-1.390259e+000
1.744206e+003,-3.028381e+000
1.745170e+003,-4.996765e+000
1.746134e+003,-5.411316e+000
1.747098e+003,-1.709412e+000
1.748063e+003,2.892639e+000
1.749027e+003,4.787109e+000
1.749991e+003,4.268738e+000
1.750955e+003,3.219360e+000
1.751919e+003,2.372131e+000
1.752884e+003,1.660889e+000
1.753848e+003,1.037354e+000
1.754812e+003,2.992554e-001
1.755776e+003,-7.377930e-001
1.756741e+003,-1.651367e+000
1.757705e+003,-1.340698e+000
1.758669e+003,1.315308e-001
1.759633e+003,1.976807e+000
1.760598e+003,5.129761e+000
1.761562e+003,6.435425e+000
1.762526e+003,4.439148e+000
1.763490e+003,1.728638e+000
1.764455e+003,-3.257446e-001
1.765419e+003,-1.527283e+000
1.766383e+003,-1.885376e+000
1.767347e+003,-1.800964e+000
1.768312e+003,-2.080200e+000
1.769276e+003,-3.242065e+000
1.770240e+003,-4.340027e+000
1.771204e+003,-3.534546e+000
1.772168e+003,-1.479797e+000
1.773133e+003,-9.822998e-001
1.774097e+003,-1.791016e+000
1.775061e+003,-6.620483e-001
1.776025e+003,2.788757e+000
1.776990e+003,3.925354e+000
1.777954e+003,6.583862e-001
1.778918e+003,-2.506348e+000
1.779882e+003,-2.470886e+000
1.780846e+003,-1.229492e+000
1.781811e+003,-9.828491e-001
1.782775e+003,-1.336487e+000
1.783739e+003,-1.305420e+000
1.784703e+003,-5.828857e-001
1.785668e+003,3.204346e-001
1.786632e+003,8.488159e-001
1.787596e+003,8.619995e-001
1.788560e+003,1.120667e+000
1.789525e+003,1.364136e+000
1.790489e+003,2.164307e-001
1.791453e+003,-2.011169e+000
1.792417e+003,-3.658875e+000
1.793382e+003,-4.325500e+000
1.794346e+003,-4.611328e+000
1.795310e+003,-4.930298e+000
1.796274e+003,-4.430542e+000
1.797239e+003,-1.358337e+000
1.798203e+003,3.059937e+000
1.799167e+003,2.686218e+000
1.800131e+003,-4.788452e+000
1.801095e+003,-7.777710e+000
1.802060e+003,-1.679077e+000
1.803024e+003,2.826538e+000
1.803988e+003,3.807434e+000
1.804952e+003,3.499268e+000
1.805917e+003,1.818726e+000
1.806881e+003,2.929077e-001
1.807845e+003,1.415833e+000
1.808809e+003,3.756470e+000
1.809773e+003,3.378235e+000
1.810738e+003,8.496094e-002
1.811702e+003,-1.777954e+000
1.812666e+003,4.165039e-001
1.813630e+003,3.808044e+000
1.814595e+003,4.417297e+000
1.815559e+003,3.067749e+000
1.816523e+003,4.124573e+000
1.817487e+003,8.127686e+000
1.818452e+003,9.442017e+000
1.819416e+003,7.291931e+000
1.820380e+003,5.174805e+000
1.821344e+003,3.647156e+000
1.822309e+003,2.003784e+000
1.823273e+003,-8.878784e-001
1.824237e+003,-2.918213e+000
1.825201e+003,-1.567505e+000
1.826166e+003,1.976563e+000
1.827130e+003,4.976318e+000
1.828094e+003,6.754333e+000
1.829058e+003,7.210205e+000
1.830022e+003,6.450012e+000
1.830987e+003,4.772217e+000
1.831951e+003,1.427490e+000
1.832915e+003,-1.946716e+000
1.833879e+003,-2.766724e+000
1.834844e+003,-1.618958e+000
1.835808e+003,-3.516235e-001
1.836772e+003,6.948853e-001
1.837736e+003,1.208801e+000
1.838700e+003,8.076172e-001
1.839665e+003,6.823730e-001
1.840629e+003,2.360718e+000
1.841593e+003,4.552734e+000
1.842557e+003,3.901428e+000
1.843522e+003,4.509277e-001
1.844486e+003,-6.975708e-001
1.845450e+003,3.071045e+000
1.846414e+003,5.203125e+000
1.847379e+003,3.295105e+000
1.848343e+003,1.609497e+000
1.849307e+003,2.184570e+000
1.850271e+003,3.070068e+000
1.851236e+003,3.010681e+000
1.852200e+003,2.655518e+000
1.853164e+003,2.497925e+000
1.854128e+003,2.288574e+000
1.855093e+003,1.839600e+000
1.856057e+003,1.507446e+000
1.857021e+003,1.978577e+000
1.857985e+003,3.733704e+000
1.858949e+003,5.587219e+000
1.859914e+003,5.278381e+000
1.860878e+003,3.444336e+000
1.861842e+003,3.147522e+000
1.862806e+003,4.292114e+000
1.863771e+003,5.259338e+000
1.864735e+003,5.664246e+000
1.865699e+003,5.424683e+000
1.866663e+003,4.187195e+000
1.867627e+003,3.708313e+000
1.868592e+003,5.573792e+000
1.869556e+003,8.388855e+000
1.870520e+003,1.057440e+001
1.871484e+003,1.202228e+001
1.872449e+003,1.211005e+001
1.873413e+003,1.144537e+001
1.874377e+003,1.187378e+001
1.875341e+003,1.348865e+001
1.876306e+003,1.469440e+001
1.877270e+003,1.426294e+001
1.878234e+003,1.308667e+001
1.879198e+003,1.197681e+001
1.880163e+003,1.120178e+001
1.881127e+003,1.078729e+001
1.882091e+003,1.103741e+001
1.883055e+003,1.351031e+001
1.884020e+003,1.830664e+001
1.884984e+003,2.089178e+001
1.885948e+003,1.703796e+001
1.886912e+003,1.020087e+001
1.887876e+003,7.142151e+000
1.888841e+003,7.770569e+000
1.889805e+003,1.125787e+001
1.890769e+003,1.882098e+001
1.891733e+003,2.233514e+001
1.892698e+003,1.875055e+001
1.893662e+003,1.588611e+001
1.894626e+003,1.768677e+001
1.895590e+003,1.955737e+001
1.896554e+003,1.708691e+001
1.897519e+003,1.426929e+001
1.898483e+003,1.665717e+001
1.899447e+003,2.219562e+001
1.900411e+003,2.450763e+001
1.901376e+003,2.259210e+001
1.902340e+003,1.988391e+001
1.903304e+003,1.653607e+001
1.904268e+003,1.431219e+001
1.905233e+003,1.517090e+001
1.906197e+003,1.716046e+001
1.907161e+003,1.849750e+001
1.908125e+003,1.953931e+001
1.909090e+003,2.111816e+001
1.910054e+003,2.269958e+001
1.911018e+003,2.265985e+001
1.911982e+003,2.084662e+001
1.912947e+003,1.887067e+001
1.913911e+003,1.777722e+001
1.914875e+003,1.813239e+001
1.915839e+003,2.098218e+001
1.916803e+003,2.514038e+001
1.917768e+003,2.591180e+001
1.918732e+003,2.284711e+001
1.919696e+003,2.132263e+001
1.920660e+003,2.173065e+001
1.921625e+003,2.374377e+001
1.922589e+003,2.897400e+001
1.923553e+003,3.245282e+001
1.924517e+003,2.996960e+001
1.925481e+003,2.611121e+001
1.926446e+003,2.507184e+001
1.927410e+003,2.555334e+001
1.928374e+003,2.411871e+001
1.929338e+003,2.062463e+001
1.930303e+003,1.946478e+001
1.931267e+003,2.294812e+001
1.932231e+003,2.704962e+001
1.933195e+003,3.047552e+001
1.934160e+003,3.237524e+001
1.935124e+003,3.166321e+001
1.936088e+003,2.920868e+001
1.937052e+003,2.537469e+001
1.938017e+003,2.168207e+001
1.938981e+003,2.087341e+001
1.939945e+003,2.279688e+001
1.940909e+003,2.493237e+001
1.941874e+003,2.593073e+001
1.942838e+003,2.594684e+001
1.943802e+003,2.545276e+001
1.944766e+003,2.504150e+001
1.945730e+003,2.495587e+001
1.946695e+003,2.494812e+001
1.947659e+003,2.568903e+001
1.948623e+003,2.723291e+001
1.949587e+003,2.756305e+001
1.950552e+003,2.649719e+001
1.951516e+003,2.503357e+001
1.952480e+003,2.324304e+001
1.953444e+003,2.151825e+001
1.954408e+003,1.895166e+001
1.955373e+003,1.725055e+001
1.956337e+003,2.109619e+001
1.957301e+003,2.861877e+001
1.958265e+003,3.077063e+001
1.959230e+003,2.642523e+001
1.960194e+003,2.530389e+001
1.961158e+003,3.094141e+001
1.962122e+003,3.506299e+001
1.963087e+003,3.572668e+001
1.964051e+003,3.436243e+001
1.965015e+003,2.942676e+001
1.965979e+003,2.574799e+001
1.966944e+003,2.959906e+001
1.967908e+003,3.680750e+001
1.968872e+003,3.947198e+001
1.969836e+003,3.713336e+001
1.970801e+003,3.450818e+001
1.971765e+003,3.375323e+001
1.972729e+003,3.411151e+001
1.973693e+003,3.511517e+001
1.974657e+003,3.619324e+001
1.975622e+003,3.583685e+001
1.976586e+003,3.481506e+001
1.977550e+003,3.617419e+001
1.978514e+003,3.956635e+001
1.979479e+003,4.197815e+001
1.980443e+003,4.284955e+001
1.981407e+003,4.256201e+001
1.982371e+003,4.137097e+001
1.983335e+003,4.014545e+001
1.984300e+003,3.925842e+001
1.985264e+003,3.846216e+001
1.986228e+003,3.759918e+001
1.987192e+003,3.686475e+001
1.988157e+003,3.743451e+001
1.989121e+003,3.986591e+001
1.990085e+003,4.170117e+001
1.991049e+003,4.408887e+001
1.992014e+003,4.404346e+001
1.992978e+003,3.768524e+001
1.993942e+003,3.317950e+001
1.994906e+003,3.466553e+001
1.995871e+003,3.759155e+001
1.996835e+003,3.888226e+001
1.997799e+003,3.963300e+001
1.998763e+003,4.143616e+001
1.999728e+003,4.398187e+001
