5.003444e+002,3.055867e+001
5.013087e+002,3.064986e+001
5.022729e+002,2.994527e+001
5.032371e+002,2.878038e+001
5.042014e+002,2.766626e+001
5.051656e+002,2.667484e+001
5.061298e+002,2.626212e+001
5.070941e+002,2.695909e+001
5.080583e+002,2.918292e+001
5.090225e+002,2.948399e+001
5.099868e+002,2.693317e+001
5.109510e+002,2.410519e+001
5.119152e+002,2.212364e+001
5.128795e+002,2.106485e+001
5.138437e+002,2.075528e+001
5.148079e+002,2.228993e+001
5.157722e+002,2.356795e+001
5.167364e+002,2.349762e+001
5.177006e+002,2.202759e+001
5.186649e+002,2.003754e+001
5.196291e+002,1.822203e+001
5.205933e+002,1.706973e+001
5.215576e+002,1.713460e+001
5.225218e+002,1.827322e+001
5.234860e+002,1.996254e+001
5.244503e+002,2.147861e+001
5.254145e+002,2.306062e+001
5.263787e+002,2.329877e+001
5.273430e+002,2.118224e+001
5.283072e+002,1.840773e+001
5.292714e+002,1.750412e+001
5.302357e+002,1.987427e+001
5.311999e+002,2.056195e+001
5.321641e+002,1.799144e+001
5.331284e+002,1.488588e+001
5.340926e+002,1.346703e+001
5.350568e+002,1.457816e+001
5.360211e+002,1.580525e+001
5.369853e+002,1.461029e+001
5.379495e+002,1.289940e+001
5.389138e+002,1.237968e+001
5.398780e+002,1.358073e+001
5.408422e+002,1.553908e+001
5.418065e+002,1.541855e+001
5.427707e+002,1.355611e+001
5.437349e+002,1.228352e+001
5.446992e+002,1.223882e+001
5.456634e+002,1.312392e+001
5.466276e+002,1.396065e+001
5.475919e+002,1.552934e+001
5.485561e+002,1.600630e+001
5.495203e+002,1.444586e+001
5.504846e+002,1.195081e+001
5.514488e+002,1.019267e+001
5.524130e+002,1.012807e+001
5.533773e+002,1.021040e+001
5.543415e+002,9.304504e+000
5.553057e+002,8.225906e+000
5.562700e+002,7.869019e+000
5.572342e+002,8.757614e+000
5.581984e+002,1.027647e+001
5.591627e+002,1.119937e+001
5.601269e+002,1.173676e+001
5.610911e+002,1.209294e+001
5.620554e+002,1.234929e+001
5.630196e+002,1.239174e+001
5.639838e+002,1.159216e+001
5.649481e+002,9.039871e+000
5.659123e+002,6.989090e+000
5.668765e+002,6.130905e+000
5.678408e+002,6.224014e+000
5.688050e+002,6.364868e+000
5.697692e+002,5.985779e+000
5.707335e+002,5.775665e+000
5.716977e+002,6.435074e+000
5.726619e+002,7.321701e+000
5.736262e+002,7.449509e+000
5.745904e+002,6.022125e+000
5.755546e+002,4.263412e+000
5.765189e+002,3.995911e+000
5.774831e+002,4.615555e+000
5.784473e+002,5.347168e+000
5.794116e+002,5.715851e+000
5.803758e+002,5.824402e+000
5.813400e+002,5.807404e+000
5.823043e+002,5.525620e+000
5.832685e+002,5.032852e+000
5.842327e+002,4.285919e+000
5.851970e+002,3.450821e+000
5.861612e+002,3.069153e+000
5.871254e+002,3.391495e+000
5.880897e+002,3.847458e+000
5.890539e+002,4.473679e+000
5.900181e+002,5.062164e+000
5.909824e+002,5.374130e+000
5.919466e+002,5.316742e+000
5.929108e+002,4.884766e+000
5.938751e+002,3.914124e+000
5.948393e+002,2.721283e+000
5.958035e+002,1.805893e+000
5.967678e+002,1.546631e+000
5.977320e+002,1.918808e+000
5.986962e+002,2.471893e+000
5.996605e+002,3.091125e+000
6.006247e+002,3.495377e+000
6.015889e+002,3.474625e+000
6.025532e+002,3.080811e+000
6.035174e+002,2.868408e+000
6.044816e+002,2.998169e+000
6.054459e+002,3.210922e+000
6.064101e+002,3.622635e+000
6.073743e+002,4.056259e+000
6.083386e+002,4.231094e+000
6.093028e+002,3.990692e+000
6.102670e+002,3.523697e+000
6.112313e+002,2.557327e+000
6.121955e+002,1.609146e+000
6.131597e+002,1.583221e+000
6.141240e+002,3.054077e+000
6.150882e+002,5.354874e+000
6.160524e+002,5.349197e+000
6.170167e+002,3.522629e+000
6.179809e+002,1.967300e+000
6.189451e+002,1.624023e+000
6.199094e+002,2.261078e+000
6.208736e+002,2.553787e+000
6.218378e+002,2.313080e+000
6.228021e+002,2.182907e+000
6.237663e+002,2.139160e+000
6.247305e+002,2.301056e+000
6.256948e+002,2.974915e+000
6.266590e+002,4.686722e+000
6.276232e+002,5.580750e+000
6.285875e+002,4.126038e+000
6.295517e+002,1.903900e+000
6.305159e+002,5.098419e-001
6.314802e+002,7.735901e-001
6.324444e+002,2.023972e+000
6.334086e+002,3.090485e+000
6.343729e+002,3.969421e+000
6.353371e+002,3.839859e+000
6.363013e+002,2.200165e+000
6.372656e+002,-4.737854e-001
6.382298e+002,-2.372498e+000
6.391940e+002,-2.739975e+000
6.401583e+002,-3.318848e+000
6.411225e+002,-4.327148e+000
6.420867e+002,-5.212936e+000
6.430510e+002,-5.320999e+000
6.440152e+002,-4.367996e+000
6.449794e+002,-3.447952e+000
6.459437e+002,-3.365479e+000
6.469079e+002,-3.383865e+000
6.478721e+002,-2.628662e+000
6.488364e+002,-9.182892e-001
6.498006e+002,8.345032e-001
6.507648e+002,6.715088e-001
6.517291e+002,-7.924347e-001
6.526933e+002,-2.090057e+000
6.536575e+002,-2.975616e+000
6.546218e+002,-3.456802e+000
6.555860e+002,-3.511673e+000
6.565502e+002,-2.768784e+000
6.575145e+002,-2.447647e+000
6.584787e+002,-2.443924e+000
6.594429e+002,-2.847839e+000
6.604072e+002,-4.191772e+000
6.613714e+002,-6.762314e+000
6.623356e+002,-8.042206e+000
6.632999e+002,-5.493103e+000
6.642641e+002,-2.685410e+000
6.652283e+002,-1.196442e+000
6.661926e+002,-1.207352e+000
6.671568e+002,-2.054733e+000
6.681210e+002,-3.303329e+000
6.690853e+002,-4.698975e+000
6.700495e+002,-5.693207e+000
6.710137e+002,-6.226547e+000
6.719780e+002,-5.857590e+000
6.729422e+002,-3.960373e+000
6.739064e+002,-5.224609e-002
6.748707e+002,2.045670e+000
6.758349e+002,1.718033e+000
6.767991e+002,8.429565e-001
6.777634e+002,1.773682e-001
6.787276e+002,-2.092438e-001
6.796918e+002,-5.890808e-001
6.806561e+002,-9.090881e-001
6.816203e+002,-1.715942e+000
6.825845e+002,-4.011353e+000
6.835488e+002,-6.764420e+000
6.845130e+002,-8.191223e+000
6.854772e+002,-6.822769e+000
6.864415e+002,-3.952774e+000
6.874057e+002,-2.783173e+000
6.883699e+002,-2.915955e+000
6.893342e+002,-3.031570e+000
6.902984e+002,-2.320068e+000
6.912626e+002,-9.980621e-001
6.922269e+002,-8.277740e-001
6.931911e+002,-3.258743e+000
6.941553e+002,-4.497742e+000
6.951196e+002,-3.630707e+000
6.960838e+002,-1.833557e+000
6.970480e+002,-1.043472e+000
6.980123e+002,-2.258301e+000
6.989765e+002,-2.710571e+000
6.999407e+002,-2.967224e-001
7.009050e+002,2.466629e+000
7.018692e+002,3.357788e+000
7.028334e+002,1.743484e+000
7.037977e+002,-8.515320e-001
7.047619e+002,-2.057724e+000
7.057261e+002,-2.273743e+000
7.066904e+002,-2.553925e+000
7.076546e+002,-3.062424e+000
7.086188e+002,-3.398743e+000
7.095831e+002,-2.897110e+000
7.105473e+002,-1.275497e+000
7.115115e+002,1.584320e-001
7.124758e+002,1.516968e+000
7.134400e+002,2.557266e+000
7.144042e+002,3.155197e+000
7.153685e+002,3.357407e+000
7.163327e+002,3.383148e+000
7.172969e+002,3.617905e+000
7.182612e+002,3.385925e+000
7.192254e+002,1.922653e+000
7.201896e+002,-2.873383e-001
7.211539e+002,-2.319382e+000
7.221181e+002,-3.423462e+000
7.230823e+002,-3.667465e+000
7.240466e+002,-3.185608e+000
7.250108e+002,-2.066071e+000
7.259750e+002,-1.009628e+000
7.269393e+002,-5.174103e-001
7.279035e+002,-6.670380e-001
7.288677e+002,-1.049011e+000
7.298320e+002,-1.747635e+000
7.307962e+002,-2.069397e+000
7.317604e+002,-2.045456e+000
7.327247e+002,-1.557053e+000
7.336889e+002,-2.191315e-001
7.346531e+002,2.410812e+000
7.356174e+002,3.853210e+000
7.365816e+002,2.311646e+000
7.375458e+002,1.762390e-002
7.385101e+002,-1.660294e+000
7.394743e+002,-2.200211e+000
7.404385e+002,-1.677475e+000
7.414028e+002,2.842102e-001
7.423670e+002,2.785553e+000
7.433312e+002,2.850006e+000
7.442955e+002,2.683105e-001
7.452597e+002,-2.861633e+000
7.462239e+002,-4.226669e+000
7.471882e+002,-3.367905e+000
7.481524e+002,-2.884705e+000
7.491166e+002,-3.528137e+000
7.500809e+002,-3.975143e+000
7.510451e+002,-3.623627e+000
7.520093e+002,-2.622330e+000
7.529736e+002,-1.539307e+000
7.539378e+002,-1.949158e-001
7.549020e+002,7.424011e-001
7.558663e+002,5.882874e-001
7.568306e+002,-9.811401e-002
7.577948e+002,-6.203918e-001
7.587590e+002,-5.955200e-001
7.597233e+002,-2.700958e-001
7.606875e+002,-3.007507e-002
7.616517e+002,2.084808e-001
7.626160e+002,1.875153e-001
7.635802e+002,-3.056641e-001
7.645444e+002,-8.938446e-001
7.655087e+002,-6.983643e-001
7.664729e+002,1.008469e+000
7.674371e+002,1.762589e+000
7.684014e+002,8.395691e-001
7.693656e+002,-3.865509e-001
7.703298e+002,-1.321991e+000
7.712941e+002,-1.749054e+000
7.722583e+002,-1.274277e+000
7.732225e+002,1.273651e+000
7.741868e+002,4.028763e+000
7.751510e+002,5.753510e+000
7.761152e+002,6.413361e+000
7.770795e+002,6.108124e+000
7.780437e+002,4.887299e+000
7.790079e+002,2.923920e+000
7.799722e+002,2.132416e+000
7.809364e+002,2.543182e+000
7.819006e+002,2.966370e+000
7.828649e+002,3.045593e+000
7.838291e+002,2.927307e+000
7.847933e+002,2.962631e+000
7.857576e+002,3.507507e+000
7.867218e+002,3.127853e+000
7.876860e+002,4.262695e-001
7.886503e+002,-2.127579e+000
7.896145e+002,-2.033829e+000
7.905787e+002,1.171021e+000
7.915430e+002,4.748703e+000
7.925072e+002,5.722366e+000
7.934714e+002,5.171127e+000
7.944357e+002,4.111282e+000
7.953999e+002,2.844940e+000
7.963641e+002,1.475311e+000
7.973284e+002,1.068115e-002
7.982926e+002,-1.619781e+000
7.992568e+002,-1.459396e+000
8.002211e+002,1.407288e+000
8.011853e+002,3.483902e+000
8.021495e+002,3.217331e+000
8.031138e+002,1.427826e+000
8.040780e+002,5.286255e-001
8.050422e+002,1.087112e+000
8.060065e+002,2.074280e+000
8.069707e+002,3.552200e+000
8.079349e+002,4.844543e+000
8.088992e+002,5.114624e+000
8.098634e+002,4.237411e+000
8.108276e+002,3.329895e+000
8.117919e+002,4.305710e+000
8.127561e+002,5.971542e+000
8.137203e+002,6.113739e+000
8.146846e+002,4.637772e+000
8.156488e+002,2.868729e+000
8.166130e+002,2.350632e+000
8.175773e+002,3.273544e+000
8.185415e+002,4.119934e+000
8.195057e+002,5.411148e+000
8.204700e+002,5.821854e+000
8.214342e+002,4.023132e+000
8.223984e+002,1.013565e+000
8.233627e+002,-4.122772e-001
8.243269e+002,1.593445e+000
8.252911e+002,3.607849e+000
8.262554e+002,2.940918e+000
8.272196e+002,1.596146e+000
8.281838e+002,2.019470e+000
8.291481e+002,4.837891e+000
8.301123e+002,8.150574e+000
8.310765e+002,8.332458e+000
8.320408e+002,5.674072e+000
8.330050e+002,5.100266e+000
8.339692e+002,7.580460e+000
8.349335e+002,1.002786e+001
8.358977e+002,8.657883e+000
8.368619e+002,2.660385e+000
8.378262e+002,-5.875549e-001
8.387904e+002,1.106735e+000
8.397546e+002,3.093079e+000
8.407189e+002,4.620422e+000
8.416831e+002,5.614716e+000
8.426473e+002,6.337128e+000
8.436116e+002,7.034698e+000
8.445758e+002,6.948532e+000
8.455400e+002,3.435745e+000
8.465043e+002,-6.415863e-001
8.474685e+002,-1.034592e+000
8.484327e+002,3.079956e+000
8.493970e+002,8.554718e+000
8.503612e+002,9.872543e+000
8.513254e+002,6.022430e+000
8.522897e+002,4.607773e+000
8.532539e+002,6.856552e+000
8.542181e+002,9.433975e+000
8.551824e+002,1.053966e+001
8.561466e+002,1.044766e+001
8.571108e+002,1.045544e+001
8.580751e+002,1.051859e+001
8.590393e+002,1.048000e+001
8.600035e+002,1.045650e+001
8.609678e+002,1.044650e+001
8.619320e+002,1.015891e+001
8.628962e+002,9.548325e+000
8.638605e+002,9.450150e+000
8.648247e+002,1.208038e+001
8.657889e+002,1.584436e+001
8.667532e+002,1.705327e+001
8.677174e+002,1.522929e+001
8.686816e+002,1.246535e+001
8.696459e+002,1.110236e+001
8.706101e+002,1.134286e+001
8.715743e+002,1.210950e+001
8.725386e+002,1.413435e+001
8.735028e+002,1.574019e+001
8.744670e+002,1.605560e+001
8.754313e+002,1.559827e+001
8.763955e+002,1.540405e+001
8.773597e+002,1.579712e+001
8.783240e+002,1.679271e+001
8.792882e+002,1.917393e+001
8.802524e+002,2.148689e+001
8.812167e+002,2.214648e+001
8.821809e+002,2.108798e+001
8.831451e+002,1.968307e+001
8.841094e+002,1.979121e+001
8.850736e+002,2.138100e+001
8.860378e+002,2.146367e+001
8.870021e+002,1.949687e+001
8.879663e+002,1.785265e+001
8.889305e+002,1.775256e+001
8.898948e+002,1.898714e+001
8.908590e+002,2.080305e+001
8.918232e+002,2.422031e+001
8.927875e+002,2.659680e+001
8.937517e+002,2.731334e+001
8.947159e+002,2.699190e+001
8.956802e+002,2.571457e+001
8.966444e+002,2.366020e+001
8.976086e+002,2.152971e+001
8.985729e+002,1.990959e+001
8.995371e+002,1.916667e+001
9.005013e+002,1.981360e+001
9.014656e+002,2.168767e+001
9.024298e+002,2.387401e+001
9.033940e+002,2.566696e+001
9.043583e+002,2.693901e+001
9.053225e+002,2.747575e+001
9.062867e+002,2.610451e+001
9.072510e+002,2.533519e+001
9.082152e+002,2.604483e+001
9.091794e+002,2.711197e+001
9.101437e+002,2.714580e+001
9.111079e+002,2.589815e+001
9.120721e+002,2.516455e+001
9.130364e+002,2.700414e+001
9.140006e+002,2.856178e+001
9.149648e+002,2.774841e+001
9.159291e+002,2.550900e+001
9.168933e+002,2.382253e+001
9.178575e+002,2.402231e+001
9.188218e+002,2.564896e+001
9.197860e+002,2.784233e+001
9.207502e+002,3.068443e+001
9.217145e+002,3.104715e+001
9.226787e+002,2.701288e+001
9.236429e+002,2.177829e+001
9.246072e+002,1.990788e+001
9.255714e+002,2.215965e+001
9.265356e+002,2.320352e+001
9.274999e+002,2.062910e+001
9.284641e+002,1.829263e+001
9.294283e+002,1.775519e+001
9.303926e+002,1.844997e+001
9.313568e+002,1.916154e+001
9.323210e+002,1.927325e+001
9.332853e+002,1.899403e+001
9.342495e+002,1.832913e+001
9.352137e+002,1.754585e+001
9.361780e+002,1.719766e+001
9.371422e+002,1.749268e+001
9.381064e+002,1.836093e+001
9.390707e+002,1.971808e+001
9.400349e+002,2.168527e+001
9.409991e+002,2.240524e+001
9.419634e+002,2.155554e+001
9.429276e+002,2.002319e+001
9.438918e+002,1.700760e+001
9.448561e+002,1.382368e+001
9.458203e+002,1.289267e+001
9.467845e+002,1.529222e+001
9.477488e+002,1.805728e+001
9.487130e+002,1.925116e+001
9.496772e+002,1.961832e+001
9.506415e+002,1.941566e+001
9.516057e+002,1.885892e+001
9.525699e+002,1.818539e+001
9.535342e+002,1.759123e+001
9.544984e+002,1.711110e+001
9.554626e+002,1.774753e+001
9.564269e+002,2.012329e+001
9.573911e+002,2.150578e+001
9.583553e+002,2.044829e+001
9.593196e+002,1.821187e+001
9.602838e+002,1.676732e+001
9.612480e+002,1.618794e+001
9.622123e+002,1.627052e+001
9.631765e+002,1.786429e+001
9.641407e+002,1.927139e+001
9.651050e+002,1.932773e+001
9.660692e+002,1.851614e+001
9.670334e+002,1.832742e+001
9.679977e+002,1.979643e+001
9.689619e+002,2.164455e+001
9.699261e+002,2.007175e+001
9.708904e+002,1.623714e+001
9.718546e+002,1.368132e+001
9.728188e+002,1.317471e+001
9.737831e+002,1.389577e+001
9.747473e+002,1.484380e+001
9.757115e+002,1.600842e+001
9.766758e+002,1.771483e+001
9.776400e+002,2.191348e+001
9.786042e+002,2.446660e+001
9.795685e+002,2.331270e+001
9.805327e+002,2.022281e+001
9.814969e+002,1.753069e+001
9.824612e+002,1.608432e+001
9.834254e+002,1.537311e+001
9.843896e+002,1.490613e+001
9.853539e+002,1.473610e+001
9.863181e+002,1.523120e+001
9.872823e+002,1.615208e+001
9.882466e+002,1.682005e+001
9.892108e+002,1.679155e+001
9.901750e+002,1.623155e+001
9.911393e+002,1.512511e+001
9.921035e+002,1.199265e+001
9.930677e+002,1.013371e+001
9.940320e+002,1.007280e+001
9.949962e+002,1.125288e+001
9.959604e+002,1.380995e+001
9.969247e+002,1.760655e+001
9.978889e+002,2.030402e+001
9.988531e+002,1.955717e+001
9.998174e+002,1.856575e+001
1.000782e+003,1.946907e+001
1.001746e+003,2.155682e+001
1.002710e+003,2.383527e+001
1.003674e+003,2.573665e+001
1.004639e+003,2.709969e+001
1.005603e+003,2.762340e+001
1.006567e+003,2.715945e+001
1.007531e+003,2.644548e+001
1.008495e+003,2.568866e+001
1.009460e+003,2.436687e+001
1.010424e+003,2.143872e+001
1.011388e+003,1.761996e+001
1.012352e+003,1.599464e+001
1.013317e+003,1.826346e+001
1.014281e+003,1.987881e+001
1.015245e+003,1.902269e+001
1.016209e+003,1.739412e+001
1.017174e+003,1.615782e+001
1.018138e+003,1.546881e+001
1.019102e+003,1.486401e+001
1.020066e+003,1.402028e+001
1.021031e+003,1.299188e+001
1.021995e+003,1.149861e+001
1.022959e+003,9.561417e+000
1.023923e+003,7.985565e+000
1.024887e+003,6.940704e+000
1.025852e+003,6.480225e+000
1.026816e+003,6.971725e+000
1.027780e+003,8.872025e+000
1.028744e+003,9.982758e+000
1.029709e+003,9.668365e+000
1.030673e+003,9.062180e+000
1.031637e+003,8.278809e+000
1.032601e+003,7.412720e+000
1.033566e+003,6.560150e+000
1.034530e+003,5.789352e+000
1.035494e+003,5.181778e+000
1.036458e+003,4.922165e+000
1.037422e+003,4.719696e+000
1.038387e+003,3.877808e+000
1.039351e+003,2.487427e+000
1.040315e+003,1.667282e+000
1.041279e+003,2.399170e+000
1.042244e+003,4.315933e+000
1.043208e+003,5.353882e+000
1.044172e+003,4.783371e+000
1.045136e+003,4.268188e+000
1.046101e+003,3.841049e+000
1.047065e+003,3.589920e+000
1.048029e+003,3.753586e+000
1.048993e+003,4.118744e+000
1.049958e+003,3.956436e+000
1.050922e+003,2.725677e+000
1.051886e+003,1.597260e+000
1.052850e+003,1.858292e+000
1.053814e+003,2.825699e+000
1.054779e+003,3.615906e+000
1.055743e+003,4.046280e+000
1.056707e+003,4.654831e+000
1.057671e+003,6.174286e+000
1.058636e+003,8.591446e+000
1.059600e+003,9.456650e+000
1.060564e+003,7.731979e+000
1.061528e+003,6.349564e+000
1.062493e+003,5.546249e+000
1.063457e+003,5.130035e+000
1.064421e+003,5.315811e+000
1.065385e+003,6.118073e+000
1.066349e+003,6.112885e+000
1.067314e+003,3.797424e+000
1.068278e+003,1.378815e+000
1.069242e+003,-9.056091e-002
1.070206e+003,-3.972473e-001
1.071171e+003,1.206818e+000
1.072135e+003,4.683701e+000
1.073099e+003,8.237778e+000
1.074063e+003,8.820236e+000
1.075028e+003,6.088303e+000
1.075992e+003,5.210953e+000
1.076956e+003,7.552109e+000
1.077920e+003,8.965439e+000
1.078885e+003,7.351730e+000
1.079849e+003,4.194443e+000
1.080813e+003,2.055801e+000
1.081777e+003,1.355606e+000
1.082741e+003,1.324005e+000
1.083706e+003,1.888107e+000
1.084670e+003,2.562698e+000
1.085634e+003,3.253006e+000
1.086598e+003,3.823349e+000
1.087563e+003,4.244278e+000
1.088527e+003,4.506485e+000
1.089491e+003,4.305252e+000
1.090455e+003,2.595535e+000
1.091420e+003,-9.329681e-001
1.092384e+003,-1.553955e+000
1.093348e+003,2.398682e+000
1.094312e+003,5.994339e+000
1.095276e+003,6.063461e+000
1.096241e+003,3.728104e+000
1.097205e+003,2.220810e+000
1.098169e+003,2.097229e+000
1.099133e+003,1.982468e+000
1.100098e+003,1.291458e+000
1.101062e+003,6.038513e-001
1.102026e+003,9.918213e-003
1.102990e+003,-2.288666e-001
1.103955e+003,4.669037e-001
1.104919e+003,2.401611e+000
1.105883e+003,4.745789e+000
1.106847e+003,5.805786e+000
1.107812e+003,5.490997e+000
1.108776e+003,4.739197e+000
1.109740e+003,3.266449e+000
1.110704e+003,2.026550e+000
1.111668e+003,2.007568e+000
1.112633e+003,2.964035e+000
1.113597e+003,3.424973e+000
1.114561e+003,2.740448e+000
1.115525e+003,2.575165e+000
1.116490e+003,3.462891e+000
1.117454e+003,4.873947e+000
1.118418e+003,7.260849e+000
1.119382e+003,9.946869e+000
1.120347e+003,1.132251e+001
1.121311e+003,1.032170e+001
1.122275e+003,7.973862e+000
1.123239e+003,6.581100e+000
1.124203e+003,6.239090e+000
1.125168e+003,5.894684e+000
1.126132e+003,5.310928e+000
1.127096e+003,5.253021e+000
1.128060e+003,6.765823e+000
1.129025e+003,9.318863e+000
1.129989e+003,1.035019e+001
1.130953e+003,8.660019e+000
1.131917e+003,7.708572e+000
1.132882e+003,8.784210e+000
1.133846e+003,1.048819e+001
1.134810e+003,1.267783e+001
1.135774e+003,1.470338e+001
1.136739e+003,1.513907e+001
1.137703e+003,1.323047e+001
1.138667e+003,1.080753e+001
1.139631e+003,1.121762e+001
1.140595e+003,1.423956e+001
1.141560e+003,1.712907e+001
1.142524e+003,1.974461e+001
1.143488e+003,2.265092e+001
1.144452e+003,2.641226e+001
1.145417e+003,3.073668e+001
1.146381e+003,3.432997e+001
1.147345e+003,3.633812e+001
1.148309e+003,3.980255e+001
1.149274e+003,4.661804e+001
1.150238e+003,5.387878e+001
1.151202e+003,6.068658e+001
1.152166e+003,6.679060e+001
1.153130e+003,7.198927e+001
1.154095e+003,7.611987e+001
1.155059e+003,7.935602e+001
1.156023e+003,8.243889e+001
1.156987e+003,8.492703e+001
1.157952e+003,8.420483e+001
1.158916e+003,8.018495e+001
1.159880e+003,7.490126e+001
1.160844e+003,6.846927e+001
1.161809e+003,6.137564e+001
1.162773e+003,5.518982e+001
1.163737e+003,5.015671e+001
1.164701e+003,4.497528e+001
1.165666e+003,3.834834e+001
1.166630e+003,3.272981e+001
1.167594e+003,2.949962e+001
1.168558e+003,2.760910e+001
1.169522e+003,2.542381e+001
1.170487e+003,2.257320e+001
1.171451e+003,2.048344e+001
1.172415e+003,2.092465e+001
1.173379e+003,2.321159e+001
1.174344e+003,2.379419e+001
1.175308e+003,2.271442e+001
1.176272e+003,2.133319e+001
1.177236e+003,1.975778e+001
1.178201e+003,1.841278e+001
1.179165e+003,1.801706e+001
1.180129e+003,1.850992e+001
1.181093e+003,1.825356e+001
1.182057e+003,1.639700e+001
1.183022e+003,1.462199e+001
1.183986e+003,1.355534e+001
1.184950e+003,1.286707e+001
1.185914e+003,1.198187e+001
1.186879e+003,1.110320e+001
1.187843e+003,1.131563e+001
1.188807e+003,1.351198e+001
1.189771e+003,1.677074e+001
1.190736e+003,1.840665e+001
1.191700e+003,1.823538e+001
1.192664e+003,1.804471e+001
1.193628e+003,1.831410e+001
1.194593e+003,1.829584e+001
1.195557e+003,1.729509e+001
1.196521e+003,1.552997e+001
1.197485e+003,1.366655e+001
1.198449e+003,1.152290e+001
1.199414e+003,1.026042e+001
1.200378e+003,1.134665e+001
1.201342e+003,1.263751e+001
1.202306e+003,1.277809e+001
1.203271e+003,1.196965e+001
1.204235e+003,1.092421e+001
1.205199e+003,1.005176e+001
1.206163e+003,9.334854e+000
1.207128e+003,8.743607e+000
1.208092e+003,8.306030e+000
1.209056e+003,7.464172e+000
1.210020e+003,5.952362e+000
1.210984e+003,4.653107e+000
1.211949e+003,4.103882e+000
1.212913e+003,3.674347e+000
1.213877e+003,2.598083e+000
1.214841e+003,8.538513e-001
1.215806e+003,-1.178589e+000
1.216770e+003,-3.724487e+000
1.217734e+003,-5.983734e+000
1.218698e+003,-7.562729e+000
1.219663e+003,-8.616058e+000
1.220627e+003,-9.253601e+000
1.221591e+003,-9.537781e+000
1.222555e+003,-9.561218e+000
1.223520e+003,-9.391602e+000
1.224484e+003,-8.955719e+000
1.225448e+003,-8.065460e+000
1.226412e+003,-5.992599e+000
1.227376e+003,-5.298340e+000
1.228341e+003,-7.754257e+000
1.229305e+003,-9.627365e+000
1.230269e+003,-8.056763e+000
1.231233e+003,-4.709229e+000
1.232198e+003,-3.249817e+000
1.233162e+003,-4.661758e+000
1.234126e+003,-6.107346e+000
1.235090e+003,-5.268463e+000
1.236055e+003,-3.900146e+000
1.237019e+003,-3.896057e+000
1.237983e+003,-4.962692e+000
1.238947e+003,-6.034317e+000
1.239911e+003,-6.621201e+000
1.240876e+003,-7.321381e+000
1.241840e+003,-9.341660e+000
1.242804e+003,-1.287653e+001
1.243768e+003,-1.408609e+001
1.244733e+003,-1.053934e+001
1.245697e+003,-7.755005e+000
1.246661e+003,-6.258072e+000
1.247625e+003,-5.713013e+000
1.248590e+003,-5.904984e+000
1.249554e+003,-6.676025e+000
1.250518e+003,-8.251068e+000
1.251482e+003,-1.093665e+001
1.252447e+003,-1.297792e+001
1.253411e+003,-1.150038e+001
1.254375e+003,-8.050339e+000
1.255339e+003,-6.077194e+000
1.256303e+003,-5.650604e+000
1.257268e+003,-5.269699e+000
1.258232e+003,-4.016068e+000
1.259196e+003,-2.636124e+000
1.260160e+003,-2.816406e+000
1.261125e+003,-4.932495e+000
1.262089e+003,-5.690689e+000
1.263053e+003,-3.352341e+000
1.264017e+003,-1.546997e+000
1.264982e+003,-1.625977e+000
1.265946e+003,-2.166153e+000
1.266910e+003,-1.429001e+000
1.267874e+003,2.893219e-001
1.268839e+003,1.072647e+000
1.269803e+003,-3.559723e-001
1.270767e+003,-2.929459e+000
1.271731e+003,-4.773499e+000
1.272695e+003,-5.770905e+000
1.273660e+003,-5.779678e+000
1.274624e+003,-4.511398e+000
1.275588e+003,-3.431763e+000
1.276552e+003,-3.163925e+000
1.277517e+003,-3.501862e+000
1.278481e+003,-4.443558e+000
1.279445e+003,-6.117462e+000
1.280409e+003,-6.968155e+000
1.281374e+003,-5.665619e+000
1.282338e+003,-4.512817e+000
1.283302e+003,-5.159378e+000
1.284266e+003,-6.340210e+000
1.285230e+003,-6.307541e+000
1.286195e+003,-5.107727e+000
1.287159e+003,-4.390747e+000
1.288123e+003,-5.478882e+000
1.289087e+003,-7.665833e+000
1.290052e+003,-8.984177e+000
1.291016e+003,-9.350128e+000
1.291980e+003,-9.273666e+000
1.292944e+003,-8.587631e+000
1.293909e+003,-7.888657e+000
1.294873e+003,-7.045212e+000
1.295837e+003,-6.372742e+000
1.296801e+003,-6.516678e+000
1.297766e+003,-7.481354e+000
1.298730e+003,-8.289108e+000
1.299694e+003,-8.348526e+000
1.300658e+003,-8.363846e+000
1.301622e+003,-9.557266e+000
1.302587e+003,-1.099290e+001
1.303551e+003,-1.098663e+001
1.304515e+003,-9.317093e+000
1.305479e+003,-7.284805e+000
1.306444e+003,-5.868530e+000
1.307408e+003,-5.109634e+000
1.308372e+003,-5.225647e+000
1.309336e+003,-6.844803e+000
1.310301e+003,-7.396835e+000
1.311265e+003,-5.066803e+000
1.312229e+003,-3.665970e+000
1.313193e+003,-4.830215e+000
1.314157e+003,-7.168137e+000
1.315122e+003,-9.720978e+000
1.316086e+003,-1.193034e+001
1.317050e+003,-1.288750e+001
1.318014e+003,-1.187395e+001
1.318979e+003,-9.939499e+000
1.319943e+003,-9.070511e+000
1.320907e+003,-9.060242e+000
1.321871e+003,-8.252319e+000
1.322836e+003,-6.376968e+000
1.323800e+003,-4.872681e+000
1.324764e+003,-4.283249e+000
1.325728e+003,-4.608704e+000
1.326693e+003,-6.471161e+000
1.327657e+003,-9.975479e+000
1.328621e+003,-1.188191e+001
1.329585e+003,-1.043279e+001
1.330549e+003,-8.222610e+000
1.331514e+003,-6.349945e+000
1.332478e+003,-5.040421e+000
1.333442e+003,-4.677032e+000
1.334406e+003,-4.985992e+000
1.335371e+003,-5.235107e+000
1.336335e+003,-4.980911e+000
1.337299e+003,-4.416977e+000
1.338263e+003,-3.892288e+000
1.339228e+003,-3.323227e+000
1.340192e+003,-3.577911e+000
1.341156e+003,-5.770767e+000
1.342120e+003,-7.109329e+000
1.343084e+003,-6.820755e+000
1.344049e+003,-6.040527e+000
1.345013e+003,-5.133911e+000
1.345977e+003,-4.451233e+000
1.346941e+003,-5.240250e+000
1.347906e+003,-8.097031e+000
1.348870e+003,-1.022276e+001
1.349834e+003,-8.237335e+000
1.350798e+003,-4.513260e+000
1.351763e+003,-3.825195e+000
1.352727e+003,-5.645950e+000
1.353691e+003,-6.805573e+000
1.354655e+003,-6.012466e+000
1.355620e+003,-4.670425e+000
1.356584e+003,-4.512970e+000
1.357548e+003,-5.340042e+000
1.358512e+003,-5.502808e+000
1.359476e+003,-4.547989e+000
1.360441e+003,-4.313568e+000
1.361405e+003,-6.253647e+000
1.362369e+003,-7.836670e+000
1.363333e+003,-7.575607e+000
1.364298e+003,-6.283752e+000
1.365262e+003,-5.074081e+000
1.366226e+003,-4.317047e+000
1.367190e+003,-3.815247e+000
1.368155e+003,-3.390045e+000
1.369119e+003,-3.106918e+000
1.370083e+003,-3.159485e+000
1.371047e+003,-3.552292e+000
1.372011e+003,-4.148392e+000
1.372976e+003,-5.524033e+000
1.373940e+003,-6.540527e+000
1.374904e+003,-6.804749e+000
1.375868e+003,-6.389954e+000
1.376833e+003,-4.895660e+000
1.377797e+003,-2.659561e+000
1.378761e+003,-1.767273e+000
1.379725e+003,-3.451935e+000
1.380690e+003,-5.494644e+000
1.381654e+003,-5.462387e+000
1.382618e+003,-4.385132e+000
1.383582e+003,-3.530182e+000
1.384547e+003,-3.000000e+000
1.385511e+003,-2.681335e+000
1.386475e+003,-2.587219e+000
1.387439e+003,-2.604401e+000
1.388403e+003,-2.494690e+000
1.389368e+003,-2.268967e+000
1.390332e+003,-2.302521e+000
1.391296e+003,-2.749466e+000
1.392260e+003,-3.034821e+000
1.393225e+003,-2.756042e+000
1.394189e+003,-2.629395e+000
1.395153e+003,-3.391373e+000
1.396117e+003,-4.426498e+000
1.397082e+003,-4.516953e+000
1.398046e+003,-3.533203e+000
1.399010e+003,-2.872604e+000
1.399974e+003,-3.914673e+000
1.400938e+003,-5.918930e+000
1.401903e+003,-6.185104e+000
1.402867e+003,-3.917770e+000
1.403831e+003,-2.140015e+000
1.404795e+003,-1.132233e+000
1.405760e+003,-4.284973e-001
1.406724e+003,1.158600e-001
1.407688e+003,1.336517e-001
1.408652e+003,-9.526825e-001
1.409617e+003,-2.797272e+000
1.410581e+003,-4.107452e+000
1.411545e+003,-4.386917e+000
1.412509e+003,-3.973923e+000
1.413474e+003,-2.906357e+000
1.414438e+003,-1.667847e+000
1.415402e+003,-7.645111e-001
1.416366e+003,-1.631470e-001
1.417330e+003,-6.582642e-002
1.418295e+003,-6.409302e-001
1.419259e+003,-1.398880e+000
1.420223e+003,-1.893082e+000
1.421187e+003,-2.181549e+000
1.422152e+003,-2.181747e+000
1.423116e+003,-1.603439e+000
1.424080e+003,-1.350494e+000
1.425044e+003,-2.373108e+000
1.426009e+003,-3.191803e+000
1.426973e+003,-2.935028e+000
1.427937e+003,-2.296295e+000
1.428901e+003,-2.266220e+000
1.429865e+003,-2.727951e+000
1.430830e+003,-2.627411e+000
1.431794e+003,-1.323914e+000
1.432758e+003,5.264587e-001
1.433722e+003,1.757721e+000
1.434687e+003,2.489334e+000
1.435651e+003,2.959000e+000
1.436615e+003,2.750854e+000
1.437579e+003,2.255219e+000
1.438544e+003,1.289429e+000
1.439508e+003,3.538055e-001
1.440472e+003,-2.833099e-001
1.441436e+003,-5.076141e-001
1.442401e+003,4.760742e-002
1.443365e+003,1.284271e+000
1.444329e+003,1.876190e+000
1.445293e+003,7.233887e-001
1.446257e+003,-1.176392e+000
1.447222e+003,-2.169601e+000
1.448186e+003,-2.315231e+000
1.449150e+003,-1.547348e+000
1.450114e+003,4.322662e-001
1.451079e+003,2.009552e+000
1.452043e+003,2.165588e+000
1.453007e+003,1.724808e+000
1.453971e+003,1.908478e+000
1.454936e+003,2.528214e+000
1.455900e+003,2.180847e+000
1.456864e+003,2.829132e-001
1.457828e+003,-1.388840e+000
1.458792e+003,-1.753616e+000
1.459757e+003,-1.625900e+000
1.460721e+003,-1.516357e+000
1.461685e+003,-1.462448e+000
1.462649e+003,-1.533539e+000
1.463614e+003,-1.666901e+000
1.464578e+003,-1.456589e+000
1.465542e+003,-5.135956e-001
1.466506e+003,8.414459e-001
1.467471e+003,1.838364e+000
1.468435e+003,2.624878e+000
1.469399e+003,2.863205e+000
1.470363e+003,1.611862e+000
1.471328e+003,9.010315e-001
1.472292e+003,1.587067e+000
1.473256e+003,2.371994e+000
1.474220e+003,2.471512e+000
1.475184e+003,2.091934e+000
1.476149e+003,1.482819e+000
1.477113e+003,8.335419e-001
1.478077e+003,8.376465e-001
1.479041e+003,2.314575e+000
1.480006e+003,4.464005e+000
1.480970e+003,4.275223e+000
1.481934e+003,6.428375e-001
1.482898e+003,-1.013626e+000
1.483863e+003,7.303162e-001
1.484827e+003,2.175552e+000
1.485791e+003,2.157562e+000
1.486755e+003,1.771439e+000
1.487719e+003,1.599274e+000
1.488684e+003,1.894882e+000
1.489648e+003,3.360962e+000
1.490612e+003,6.213318e+000
1.491576e+003,9.063354e+000
1.492541e+003,1.081305e+001
1.493505e+003,1.167720e+001
1.494469e+003,1.182372e+001
1.495433e+003,1.131784e+001
1.496398e+003,1.118832e+001
1.497362e+003,1.161179e+001
1.498326e+003,1.274542e+001
1.499290e+003,1.527354e+001
1.500255e+003,1.809735e+001
1.501219e+003,1.949092e+001
1.502183e+003,1.967444e+001
1.503147e+003,2.008931e+001
1.504111e+003,2.084937e+001
1.505076e+003,2.293681e+001
1.506040e+003,2.772931e+001
1.507004e+003,3.333766e+001
1.507968e+003,3.799477e+001
1.508933e+003,4.196201e+001
1.509897e+003,4.567726e+001
1.510861e+003,4.941557e+001
1.511825e+003,5.362830e+001
1.512790e+003,5.855638e+001
1.513754e+003,6.393503e+001
1.514718e+003,6.922853e+001
1.515682e+003,7.435437e+001
1.516646e+003,8.082013e+001
1.517611e+003,8.990501e+001
1.518575e+003,9.780867e+001
1.519539e+003,1.038611e+002
1.520503e+003,1.080807e+002
1.521468e+003,1.097608e+002
1.522432e+003,1.098436e+002
1.523396e+003,1.095994e+002
1.524360e+003,1.091727e+002
1.525325e+003,1.078833e+002
1.526289e+003,1.053131e+002
1.527253e+003,1.017797e+002
1.528217e+003,9.773058e+001
1.529182e+003,9.323761e+001
1.530146e+003,8.882062e+001
1.531110e+003,8.528128e+001
1.532074e+003,8.007332e+001
1.533039e+003,7.274820e+001
1.534003e+003,6.381244e+001
1.534967e+003,5.170726e+001
1.535931e+003,3.973128e+001
1.536896e+003,3.134196e+001
1.537860e+003,2.671748e+001
1.538824e+003,2.469025e+001
1.539788e+003,2.436937e+001
1.540752e+003,2.376239e+001
1.541717e+003,2.017946e+001
1.542681e+003,1.436395e+001
1.543645e+003,1.071854e+001
1.544609e+003,1.026010e+001
1.545573e+003,9.805588e+000
1.546538e+003,8.910126e+000
1.547502e+003,8.323807e+000
1.548466e+003,8.821793e+000
1.549430e+003,9.593979e+000
1.550395e+003,9.596466e+000
1.551359e+003,9.012939e+000
1.552323e+003,8.992142e+000
1.553287e+003,9.860046e+000
1.554252e+003,1.002779e+001
1.555216e+003,7.871307e+000
1.556180e+003,4.669449e+000
1.557144e+003,3.568848e+000
1.558109e+003,4.699631e+000
1.559073e+003,5.103500e+000
1.560037e+003,4.198395e+000
1.561001e+003,3.363770e+000
1.561966e+003,2.930054e+000
1.562930e+003,3.124756e+000
1.563894e+003,4.466095e+000
1.564858e+003,6.407928e+000
1.565823e+003,7.866013e+000
1.566787e+003,8.579285e+000
1.567751e+003,8.379013e+000
1.568715e+003,7.005157e+000
1.569679e+003,5.278641e+000
1.570644e+003,4.021606e+000
1.571608e+003,3.187759e+000
1.572572e+003,2.703339e+000
1.573536e+003,2.627823e+000
1.574500e+003,3.193939e+000
1.575465e+003,4.937515e+000
1.576429e+003,6.543961e+000
1.577393e+003,6.852966e+000
1.578357e+003,6.255096e+000
1.579322e+003,5.153641e+000
1.580286e+003,3.769226e+000
1.581250e+003,3.899460e+000
1.582214e+003,6.471313e+000
1.583179e+003,9.237778e+000
1.584143e+003,1.072264e+001
1.585107e+003,1.122437e+001
1.586071e+003,1.136288e+001
1.587036e+003,1.117059e+001
1.588000e+003,1.014589e+001
1.588964e+003,8.019669e+000
1.589928e+003,6.436142e+000
1.590893e+003,6.918167e+000
1.591857e+003,8.171341e+000
1.592821e+003,8.029999e+000
1.593785e+003,6.846970e+000
1.594750e+003,6.623871e+000
1.595714e+003,7.647934e+000
1.596678e+003,9.107361e+000
1.597642e+003,1.121567e+001
1.598606e+003,1.288562e+001
1.599571e+003,1.320998e+001
1.600535e+003,1.271896e+001
1.601499e+003,1.169901e+001
1.602463e+003,1.038928e+001
1.603427e+003,9.748352e+000
1.604392e+003,1.023549e+001
1.605356e+003,1.094031e+001
1.606320e+003,1.105077e+001
1.607284e+003,1.064131e+001
1.608249e+003,9.699127e+000
1.609213e+003,8.192017e+000
1.610177e+003,7.385773e+000
1.611141e+003,7.769501e+000
1.612106e+003,8.169678e+000
1.613070e+003,8.013443e+000
1.614034e+003,7.648895e+000
1.614998e+003,6.999130e+000
1.615963e+003,6.454697e+000
1.616927e+003,6.793030e+000
1.617891e+003,7.986069e+000
1.618855e+003,9.096939e+000
1.619820e+003,9.552963e+000
1.620784e+003,9.475647e+000
1.621748e+003,8.823212e+000
1.622712e+003,7.961136e+000
1.623677e+003,8.787979e+000
1.624641e+003,1.183931e+001
1.625605e+003,1.350183e+001
1.626569e+003,1.213292e+001
1.627533e+003,1.023692e+001
1.628498e+003,8.842102e+000
1.629462e+003,7.842819e+000
1.630426e+003,6.710648e+000
1.631390e+003,5.969559e+000
1.632354e+003,7.148376e+000
1.633319e+003,1.036989e+001
1.634283e+003,1.346719e+001
1.635247e+003,1.490373e+001
1.636211e+003,1.505081e+001
1.637176e+003,1.458858e+001
1.638140e+003,1.355463e+001
1.639104e+003,1.139781e+001
1.640068e+003,7.145477e+000
1.641033e+003,5.393738e+000
1.641997e+003,9.544022e+000
1.642961e+003,1.328777e+001
1.643925e+003,1.333440e+001
1.644890e+003,1.165671e+001
1.645854e+003,9.185898e+000
1.646818e+003,6.839432e+000
1.647782e+003,6.748413e+000
1.648747e+003,9.343048e+000
1.649711e+003,1.151208e+001
1.650675e+003,1.048679e+001
1.651639e+003,8.038132e+000
1.652604e+003,8.093658e+000
1.653568e+003,1.045987e+001
1.654532e+003,1.070439e+001
1.655496e+003,7.643311e+000
1.656460e+003,5.969162e+000
1.657425e+003,8.285065e+000
1.658389e+003,1.063753e+001
1.659353e+003,1.079744e+001
1.660317e+003,9.968903e+000
1.661281e+003,9.061432e+000
1.662246e+003,8.353806e+000
1.663210e+003,8.336823e+000
1.664174e+003,9.169281e+000
1.665138e+003,1.009033e+001
1.666103e+003,1.046968e+001
1.667067e+003,1.038951e+001
1.668031e+003,1.000635e+001
1.668995e+003,9.364227e+000
1.669960e+003,8.743164e+000
1.670924e+003,8.178955e+000
1.671888e+003,7.667603e+000
1.672852e+003,6.992294e+000
1.673817e+003,6.588837e+000
1.674781e+003,6.886932e+000
1.675745e+003,7.447159e+000
1.676709e+003,7.888794e+000
1.677674e+003,8.146362e+000
1.678638e+003,8.242844e+000
1.679602e+003,8.182175e+000
1.680566e+003,7.643814e+000
1.681531e+003,6.142349e+000
1.682495e+003,4.451813e+000
1.683459e+003,3.991379e+000
1.684423e+003,4.471100e+000
1.685387e+003,4.193619e+000
1.686352e+003,2.878204e+000
1.687316e+003,2.209213e+000
1.688280e+003,3.015442e+000
1.689244e+003,4.026611e+000
1.690208e+003,4.203812e+000
1.691173e+003,4.113693e+000
1.692137e+003,4.409897e+000
1.693101e+003,5.070724e+000
1.694065e+003,5.738922e+000
1.695030e+003,6.248642e+000
1.695994e+003,6.778442e+000
1.696958e+003,8.019897e+000
1.697922e+003,8.715134e+000
1.698887e+003,6.586044e+000
1.699851e+003,2.757523e+000
1.700815e+003,7.651978e-001
1.701779e+003,8.406372e-001
1.702744e+003,6.672668e-001
1.703708e+003,-5.240936e-001
1.704672e+003,-1.491745e+000
1.705636e+003,-1.188141e+000
1.706601e+003,-5.514984e-001
1.707565e+003,-1.324066e+000
1.708529e+003,-2.755676e+000
1.709493e+003,-2.181854e+000
1.710458e+003,1.012787e+000
1.711422e+003,3.085358e+000
1.712386e+003,1.413895e+000
1.713350e+003,-4.670563e-001
1.714314e+003,8.912201e-001
1.715279e+003,3.377640e+000
1.716243e+003,3.213028e+000
1.717207e+003,7.309113e-001
1.718171e+003,-1.173157e+000
1.719135e+003,-1.679626e+000
1.720100e+003,-1.254654e+000
1.721064e+003,-9.826660e-003
1.722028e+003,1.350952e+000
1.722992e+003,1.860199e+000
1.723957e+003,1.741150e+000
1.724921e+003,1.831558e+000
1.725885e+003,2.085449e+000
1.726849e+003,1.918045e+000
1.727814e+003,1.130768e+000
1.728778e+003,3.699951e-001
1.729742e+003,-1.092072e-001
1.730706e+003,-4.830780e-001
1.731671e+003,-9.206848e-001
1.732635e+003,-1.551697e+000
1.733599e+003,-2.634720e+000
1.734563e+003,-3.954544e+000
1.735528e+003,-4.504028e+000
1.736492e+003,-3.799011e+000
1.737456e+003,-2.980804e+000
1.738420e+003,-3.522064e+000
1.739385e+003,-4.779816e+000
1.740349e+003,-3.978638e+000
1.741313e+003,-2.535553e-001
1.742277e+003,1.417450e+000
1.743241e+003,-3.854675e-001
1.744206e+003,-1.725388e+000
1.745170e+003,-2.350311e+000
1.746134e+003,-2.220337e+000
1.747098e+003,-5.135193e-001
1.748063e+003,1.343521e+000
1.749027e+003,1.576630e+000
1.749991e+003,5.349274e-001
1.750955e+003,-5.319214e-001
1.751919e+003,-1.060181e+000
1.752884e+003,-7.246704e-001
1.753848e+003,7.764130e-001
1.754812e+003,2.464523e+000
1.755776e+003,2.291092e+000
1.756741e+003,4.089508e-001
1.757705e+003,-5.339508e-001
1.758669e+003,-3.285370e-001
1.759633e+003,1.341248e-002
1.760598e+003,4.950714e-001
1.761562e+003,8.331757e-001
1.762526e+003,9.786835e-001
1.763490e+003,1.076279e+000
1.764455e+003,1.328812e+000
1.765419e+003,1.574936e+000
1.766383e+003,1.512344e+000
1.767347e+003,1.079697e+000
1.768312e+003,3.384857e-001
1.769276e+003,-7.186127e-001
1.770240e+003,-1.621262e+000
1.771204e+003,-1.653870e+000
1.772168e+003,-1.164368e+000
1.773133e+003,-1.177902e+000
1.774097e+003,-1.635071e+000
1.775061e+003,-1.926590e+000
1.776025e+003,-2.088318e+000
1.776990e+003,-1.969299e+000
1.777954e+003,-1.241272e+000
1.778918e+003,-5.715790e-001
1.779882e+003,-8.067017e-001
1.780846e+003,-1.223602e+000
1.781811e+003,-4.111328e-001
1.782775e+003,1.128082e+000
1.783739e+003,1.471054e+000
1.784703e+003,2.527161e-001
1.785668e+003,-6.564636e-001
1.786632e+003,-3.542328e-001
1.787596e+003,1.047821e-001
1.788560e+003,1.284790e-001
1.789525e+003,-6.442261e-002
1.790489e+003,-3.930206e-001
1.791453e+003,-7.949829e-001
1.792417e+003,-1.016037e+000
1.793382e+003,-1.008606e+000
1.794346e+003,-9.402924e-001
1.795310e+003,-9.030304e-001
1.796274e+003,-1.001251e+000
1.797239e+003,-1.382614e+000
1.798203e+003,-1.715073e+000
1.799167e+003,-1.144287e+000
1.800131e+003,4.349976e-001
1.801095e+003,1.031387e+000
1.802060e+003,3.851166e-001
1.803024e+003,-4.034882e-001
1.803988e+003,-1.738861e+000
1.804952e+003,-2.688660e+000
1.805917e+003,-2.406952e+000
1.806881e+003,-1.876480e+000
1.807845e+003,-2.257645e+000
1.808809e+003,-3.088959e+000
1.809773e+003,-3.238922e+000
1.810738e+003,-2.508102e+000
1.811702e+003,-1.537720e+000
1.812666e+003,-7.444916e-001
1.813630e+003,-3.105164e-002
1.814595e+003,8.345795e-001
1.815559e+003,1.578232e+000
1.816523e+003,9.820251e-001
1.817487e+003,-1.084595e+000
1.818452e+003,-2.889725e+000
1.819416e+003,-4.727142e+000
1.820380e+003,-4.873810e+000
1.821344e+003,-1.314636e+000
1.822309e+003,1.666443e+000
1.823273e+003,1.253510e+000
1.824237e+003,-5.613403e-001
1.825201e+003,-2.409225e+000
1.826166e+003,-3.942764e+000
1.827130e+003,-4.443939e+000
1.828094e+003,-3.844772e+000
1.829058e+003,-2.984482e+000
1.830022e+003,-1.927917e+000
1.830987e+003,-1.295395e+000
1.831951e+003,-1.884705e+000
1.832915e+003,-2.999954e+000
1.833879e+003,-4.145538e+000
1.834844e+003,-4.862885e+000
1.835808e+003,-3.165100e+000
1.836772e+003,7.684174e-001
1.837736e+003,2.415070e+000
1.838700e+003,-3.197479e-001
1.839665e+003,-3.629547e+000
1.840629e+003,-4.039688e+000
1.841593e+003,-2.575485e+000
1.842557e+003,-1.322632e+000
1.843522e+003,-2.912598e-001
1.844486e+003,1.034546e-001
1.845450e+003,-4.649200e-001
1.846414e+003,-8.537750e-001
1.847379e+003,-1.242584e+000
1.848343e+003,-1.469345e+000
1.849307e+003,-1.337891e+000
1.850271e+003,-1.092056e+000
1.851236e+003,-7.961884e-001
1.852200e+003,-4.909668e-001
1.853164e+003,-4.911194e-001
1.854128e+003,-6.442719e-001
1.855093e+003,5.436707e-002
1.856057e+003,1.845413e+000
1.857021e+003,2.818329e+000
1.857985e+003,1.165909e+000
1.858949e+003,-1.430099e+000
1.859914e+003,-1.806381e+000
1.860878e+003,-4.390259e-001
1.861842e+003,-4.695740e-001
1.862806e+003,-1.999100e+000
1.863771e+003,-1.923691e+000
1.864735e+003,7.789459e-001
1.865699e+003,2.531509e+000
1.866663e+003,1.508865e+000
1.867627e+003,-2.719879e-001
1.868592e+003,-1.381958e+000
1.869556e+003,-2.010117e+000
1.870520e+003,-2.387238e+000
1.871484e+003,-2.513596e+000
1.872449e+003,-2.287430e+000
1.873413e+003,-1.412598e+000
1.874377e+003,-3.883820e-001
1.875341e+003,6.058502e-001
1.876306e+003,1.376480e+000
1.877270e+003,1.816666e+000
1.878234e+003,1.934494e+000
1.879198e+003,1.425873e+000
1.880163e+003,8.122406e-001
1.881127e+003,1.290985e+000
1.882091e+003,2.646362e+000
1.883055e+003,3.292496e+000
1.884020e+003,2.616058e+000
1.884984e+003,1.637421e+000
1.885948e+003,1.285019e+000
1.886912e+003,1.294083e+000
1.887876e+003,1.124954e+000
1.888841e+003,8.239899e-001
1.889805e+003,9.529114e-001
1.890769e+003,1.681381e+000
1.891733e+003,1.884430e+000
1.892698e+003,1.165146e+000
1.893662e+003,4.621735e-001
1.894626e+003,-3.892517e-002
1.895590e+003,-1.964111e-001
1.896554e+003,5.030823e-001
1.897519e+003,1.379974e+000
1.898483e+003,1.469864e+000
1.899447e+003,8.961792e-001
1.900411e+003,3.401947e-001
1.901376e+003,-8.187866e-002
1.902340e+003,-8.628845e-002
1.903304e+003,6.016846e-001
1.904268e+003,1.433868e+000
1.905233e+003,2.447632e+000
1.906197e+003,3.157990e+000
1.907161e+003,2.771896e+000
1.908125e+003,1.896332e+000
1.909090e+003,1.560150e+000
1.910054e+003,1.765762e+000
1.911018e+003,2.073898e+000
1.911982e+003,2.332993e+000
1.912947e+003,2.460617e+000
1.913911e+003,2.373123e+000
1.914875e+003,2.308426e+000
1.915839e+003,2.586578e+000
1.916803e+003,3.169418e+000
1.917768e+003,4.417404e+000
1.918732e+003,6.736008e+000
1.919696e+003,7.258347e+000
1.920660e+003,5.048721e+000
1.921625e+003,3.824005e+000
1.922589e+003,5.275238e+000
1.923553e+003,6.275620e+000
1.924517e+003,4.600006e+000
1.925481e+003,2.304031e+000
1.926446e+003,9.762268e-001
1.927410e+003,4.218445e-001
1.928374e+003,1.269989e-001
1.929338e+003,3.375244e-002
1.930303e+003,5.381775e-001
1.931267e+003,2.076523e+000
1.932231e+003,3.520386e+000
1.933195e+003,4.610291e+000
1.934160e+003,4.981964e+000
1.935124e+003,3.583160e+000
1.936088e+003,1.904953e+000
1.937052e+003,2.200607e+000
1.938017e+003,3.676392e+000
1.938981e+003,4.297470e+000
1.939945e+003,3.694794e+000
1.940909e+003,2.301025e+000
1.941874e+003,4.567413e-001
1.942838e+003,-7.390747e-001
1.943802e+003,-1.706238e-001
1.944766e+003,1.486526e+000
1.945730e+003,2.875198e+000
1.946695e+003,3.893784e+000
1.947659e+003,3.925415e+000
1.948623e+003,2.800629e+000
1.949587e+003,2.530487e+000
1.950552e+003,3.693848e+000
1.951516e+003,4.325897e+000
1.952480e+003,3.492661e+000
1.953444e+003,2.567215e+000
1.954408e+003,2.335968e+000
1.955373e+003,2.608276e+000
1.956337e+003,3.607346e+000
1.957301e+003,5.026749e+000
1.958265e+003,5.307053e+000
1.959230e+003,4.220490e+000
1.960194e+003,3.769470e+000
1.961158e+003,4.356552e+000
1.962122e+003,5.136154e+000
1.963087e+003,6.311935e+000
1.964051e+003,7.158295e+000
1.965015e+003,6.911469e+000
1.965979e+003,6.590225e+000
1.966944e+003,7.613464e+000
1.967908e+003,9.030869e+000
1.968872e+003,8.761520e+000
1.969836e+003,6.951370e+000
1.970801e+003,5.742630e+000
1.971765e+003,6.013062e+000
1.972729e+003,6.413773e+000
1.973693e+003,5.731400e+000
1.974657e+003,4.743408e+000
1.975622e+003,4.602234e+000
1.976586e+003,5.021683e+000
1.977550e+003,5.420349e+000
1.978514e+003,5.766922e+000
1.979479e+003,5.652084e+000
1.980443e+003,5.071182e+000
1.981407e+003,5.425964e+000
1.982371e+003,7.343811e+000
1.983335e+003,8.793839e+000
1.984300e+003,8.089066e+000
1.985264e+003,6.604050e+000
1.986228e+003,6.536530e+000
1.987192e+003,7.560867e+000
1.988157e+003,8.009689e+000
1.989121e+003,7.866882e+000
1.990085e+003,7.334305e+000
1.991049e+003,5.822021e+000
1.992014e+003,5.211700e+000
1.992978e+003,6.463058e+000
1.993942e+003,7.553085e+000
1.994906e+003,7.649567e+000
1.995871e+003,7.498917e+000
1.996835e+003,7.515503e+000
1.997799e+003,7.760498e+000
1.998763e+003,8.590179e+000
1.999728e+003,9.644958e+000
