5.003444e+002,4.004594e+001
5.013087e+002,3.988792e+001
5.022729e+002,3.933749e+001
5.032371e+002,3.854535e+001
5.042014e+002,3.736856e+001
5.051656e+002,3.594057e+001
5.061298e+002,3.488908e+001
5.070941e+002,3.480017e+001
5.080583e+002,3.584241e+001
5.090225e+002,3.645341e+001
5.099868e+002,3.658626e+001
5.109510e+002,3.649472e+001
5.119152e+002,3.634439e+001
5.128795e+002,3.616617e+001
5.138437e+002,3.571059e+001
5.148079e+002,3.494963e+001
5.157722e+002,3.392880e+001
5.167364e+002,3.239661e+001
5.177006e+002,3.042116e+001
5.186649e+002,2.842392e+001
5.196291e+002,2.699020e+001
5.205933e+002,2.612262e+001
5.215576e+002,2.557332e+001
5.225218e+002,2.523738e+001
5.234860e+002,2.523056e+001
5.244503e+002,2.595981e+001
5.254145e+002,2.795688e+001
5.263787e+002,2.912245e+001
5.273430e+002,2.921783e+001
5.283072e+002,2.866235e+001
5.292714e+002,2.787531e+001
5.302357e+002,2.638947e+001
5.311999e+002,2.525719e+001
5.321641e+002,2.507080e+001
5.331284e+002,2.518719e+001
5.340926e+002,2.516299e+001
5.350568e+002,2.478661e+001
5.360211e+002,2.379993e+001
5.369853e+002,2.090263e+001
5.379495e+002,1.821173e+001
5.389138e+002,1.808331e+001
5.398780e+002,2.110002e+001
5.408422e+002,2.551007e+001
5.418065e+002,2.636220e+001
5.427707e+002,2.414006e+001
5.437349e+002,2.167073e+001
5.446992e+002,1.941937e+001
5.456634e+002,1.750795e+001
5.466276e+002,1.640353e+001
5.475919e+002,1.654744e+001
5.485561e+002,1.729376e+001
5.495203e+002,1.955338e+001
5.504846e+002,2.197379e+001
5.514488e+002,2.249765e+001
5.524130e+002,1.965843e+001
5.533773e+002,1.670926e+001
5.543415e+002,1.523068e+001
5.553057e+002,1.460115e+001
5.562700e+002,1.422435e+001
5.572342e+002,1.371207e+001
5.581984e+002,1.315428e+001
5.591627e+002,1.287262e+001
5.601269e+002,1.286333e+001
5.610911e+002,1.300334e+001
5.620554e+002,1.319231e+001
5.630196e+002,1.338063e+001
5.639838e+002,1.361011e+001
5.649481e+002,1.416414e+001
5.659123e+002,1.437250e+001
5.668765e+002,1.438843e+001
5.678408e+002,1.417850e+001
5.688050e+002,1.335822e+001
5.697692e+002,1.096332e+001
5.707335e+002,8.681305e+000
5.716977e+002,6.551636e+000
5.726619e+002,5.082352e+000
5.736262e+002,5.122955e+000
5.745904e+002,7.515915e+000
5.755546e+002,1.067050e+001
5.765189e+002,1.235368e+001
5.774831e+002,1.269257e+001
5.784473e+002,1.162633e+001
5.794116e+002,9.186234e+000
5.803758e+002,5.716339e+000
5.813400e+002,4.810516e+000
5.823043e+002,7.083237e+000
5.832685e+002,8.888229e+000
5.842327e+002,8.692551e+000
5.851970e+002,6.972290e+000
5.861612e+002,6.302933e+000
5.871254e+002,8.457031e+000
5.880897e+002,9.902039e+000
5.890539e+002,9.370834e+000
5.900181e+002,7.718979e+000
5.909824e+002,6.528503e+000
5.919466e+002,6.987854e+000
5.929108e+002,7.900986e+000
5.938751e+002,7.857986e+000
5.948393e+002,7.287827e+000
5.958035e+002,6.985275e+000
5.967678e+002,7.532883e+000
5.977320e+002,8.718384e+000
5.986962e+002,8.018814e+000
5.996605e+002,5.217819e+000
6.006247e+002,2.942520e+000
6.015889e+002,2.783386e+000
6.025532e+002,4.565903e+000
6.035174e+002,5.402542e+000
6.044816e+002,4.368301e+000
6.054459e+002,3.323761e+000
6.064101e+002,2.009964e+000
6.073743e+002,9.294586e-001
6.083386e+002,1.077637e+000
6.093028e+002,3.640015e+000
6.102670e+002,6.287720e+000
6.112313e+002,7.362183e+000
6.121955e+002,7.319733e+000
6.131597e+002,6.589050e+000
6.141240e+002,5.486282e+000
6.150882e+002,4.213425e+000
6.160524e+002,3.923584e+000
6.170167e+002,4.499680e+000
6.179809e+002,4.856064e+000
6.189451e+002,4.273605e+000
6.199094e+002,2.889481e+000
6.208736e+002,2.248917e+000
6.218378e+002,3.457947e+000
6.228021e+002,4.470078e+000
6.237663e+002,5.158554e+000
6.247305e+002,5.578720e+000
6.256948e+002,5.805527e+000
6.266590e+002,5.779388e+000
6.276232e+002,5.376236e+000
6.285875e+002,4.579071e+000
6.295517e+002,3.656082e+000
6.305159e+002,2.821167e+000
6.314802e+002,2.158417e+000
6.324444e+002,1.561310e+000
6.334086e+002,7.319489e-001
6.343729e+002,-8.493042e-002
6.353371e+002,-1.781769e-001
6.363013e+002,8.463287e-001
6.372656e+002,2.466949e+000
6.382298e+002,2.905624e+000
6.391940e+002,7.767944e-001
6.401583e+002,-9.218140e-001
6.411225e+002,-1.767273e+000
6.420867e+002,-2.103989e+000
6.430510e+002,-2.430878e+000
6.440152e+002,-2.993317e+000
6.449794e+002,-3.575256e+000
6.459437e+002,-4.460815e+000
6.469079e+002,-5.062912e+000
6.478721e+002,-4.554886e+000
6.488364e+002,-2.800110e+000
6.498006e+002,-7.718353e-001
6.507648e+002,-3.392639e-001
6.517291e+002,-1.093597e+000
6.526933e+002,-2.267868e+000
6.536575e+002,-3.797394e+000
6.546218e+002,-5.033066e+000
6.555860e+002,-4.630005e+000
6.565502e+002,-1.220444e+000
6.575145e+002,8.667145e-001
6.584787e+002,1.734146e+000
6.594429e+002,1.451935e+000
6.604072e+002,-4.347534e-001
6.613714e+002,-4.222168e+000
6.623356e+002,-7.279373e+000
6.632999e+002,-8.245651e+000
6.642641e+002,-8.448990e+000
6.652283e+002,-8.128723e+000
6.661926e+002,-7.487625e+000
6.671568e+002,-6.796875e+000
6.681210e+002,-6.499847e+000
6.690853e+002,-6.436996e+000
6.700495e+002,-6.063690e+000
6.710137e+002,-5.366699e+000
6.719780e+002,-4.463394e+000
6.729422e+002,-3.460739e+000
6.739064e+002,-2.359177e+000
6.748707e+002,-1.489090e+000
6.758349e+002,-6.881409e-001
6.767991e+002,-2.639465e-001
6.777634e+002,-4.706421e-001
6.787276e+002,-1.113205e+000
6.796918e+002,-1.339081e+000
6.806561e+002,-1.577759e-001
6.816203e+002,4.519348e-001
6.825845e+002,-7.294922e-001
6.835488e+002,-2.900726e+000
6.845130e+002,-4.755753e+000
6.854772e+002,-5.317749e+000
6.864415e+002,-4.869736e+000
6.874057e+002,-4.252289e+000
6.883699e+002,-3.606430e+000
6.893342e+002,-2.846939e+000
6.902984e+002,-1.842590e+000
6.912626e+002,-7.062378e-001
6.922269e+002,-4.744263e-001
6.931911e+002,-2.060471e+000
6.941553e+002,-2.953232e+000
6.951196e+002,-2.700378e+000
6.960838e+002,-1.954422e+000
6.970480e+002,-1.730484e+000
6.980123e+002,-2.498459e+000
6.989765e+002,-2.917969e+000
6.999407e+002,-2.229828e+000
7.009050e+002,-1.246597e+000
7.018692e+002,-5.308228e-001
7.028334e+002,-3.277283e-001
7.037977e+002,-5.799866e-001
7.047619e+002,-1.511688e+000
7.057261e+002,-2.553986e+000
7.066904e+002,-2.522537e+000
7.076546e+002,-1.236282e+000
7.086188e+002,4.516602e-001
7.095831e+002,1.181442e+000
7.105473e+002,5.576782e-001
7.115115e+002,-1.286163e-001
7.124758e+002,-1.240433e+000
7.134400e+002,-2.138000e+000
7.144042e+002,-2.204941e+000
7.153685e+002,-1.412643e+000
7.163327e+002,-8.118286e-001
7.172969e+002,-1.337051e+000
7.182612e+002,-1.689407e+000
7.192254e+002,-1.084015e+000
7.201896e+002,4.602051e-002
7.211539e+002,7.784271e-001
7.221181e+002,3.284760e-001
7.230823e+002,-8.871460e-001
7.240466e+002,-2.084732e+000
7.250108e+002,-3.028992e+000
7.259750e+002,-2.598877e+000
7.269393e+002,1.026611e-001
7.279035e+002,4.409500e+000
7.288677e+002,5.822449e+000
7.298320e+002,6.814117e-001
7.307962e+002,-2.333527e+000
7.317604e+002,-1.064423e+000
7.327247e+002,2.031738e+000
7.336889e+002,3.248535e+000
7.346531e+002,8.954315e-001
7.356174e+002,-1.509201e+000
7.365816e+002,-1.436066e+000
7.375458e+002,-6.003265e-001
7.385101e+002,-3.062439e-001
7.394743e+002,-8.877869e-001
7.404385e+002,-1.733658e+000
7.414028e+002,-2.027817e+000
7.423670e+002,-2.018860e+000
7.433312e+002,-1.755051e+000
7.442955e+002,-9.948273e-001
7.452597e+002,-2.645721e-001
7.462239e+002,-3.650360e-001
7.471882e+002,-1.690125e+000
7.481524e+002,-2.376373e+000
7.491166e+002,-2.641968e+000
7.500809e+002,-2.517380e+000
7.510451e+002,-1.814560e+000
7.520093e+002,-6.807404e-001
7.529736e+002,4.939423e-001
7.539378e+002,1.970520e+000
7.549020e+002,3.013000e+000
7.558663e+002,2.877914e+000
7.568306e+002,2.167465e+000
7.577948e+002,1.767349e+000
7.587590e+002,2.133087e+000
7.597233e+002,2.683243e+000
7.606875e+002,1.545959e+000
7.616517e+002,-9.272156e-001
7.626160e+002,-2.323593e+000
7.635802e+002,-1.684433e+000
7.645444e+002,6.076050e-002
7.655087e+002,8.577728e-001
7.664729e+002,-1.573486e-001
7.674371e+002,-2.855530e-001
7.684014e+002,1.252167e+000
7.693656e+002,2.970581e+000
7.703298e+002,3.955017e+000
7.712941e+002,4.119186e+000
7.722583e+002,4.104279e+000
7.732225e+002,4.511383e+000
7.741868e+002,4.725830e+000
7.751510e+002,3.937439e+000
7.761152e+002,2.545761e+000
7.770795e+002,1.512253e+000
7.780437e+002,1.675232e+000
7.790079e+002,2.836716e+000
7.799722e+002,3.665726e+000
7.809364e+002,4.200104e+000
7.819006e+002,4.480820e+000
7.828649e+002,4.580093e+000
7.838291e+002,4.563171e+000
7.847933e+002,4.513092e+000
7.857576e+002,4.788300e+000
7.867218e+002,3.872635e+000
7.876860e+002,2.347870e-001
7.886503e+002,-3.388489e+000
7.896145e+002,-4.466660e+000
7.905787e+002,-2.459854e+000
7.915430e+002,3.558960e-001
7.925072e+002,1.765060e+000
7.934714e+002,2.268311e+000
7.944357e+002,2.261459e+000
7.953999e+002,2.013245e+000
7.963641e+002,1.996384e+000
7.973284e+002,2.715454e+000
7.982926e+002,4.227814e+000
7.992568e+002,5.426758e+000
8.002211e+002,6.319687e+000
8.011853e+002,6.506454e+000
8.021495e+002,5.823059e+000
8.031138e+002,4.636261e+000
8.040780e+002,3.636658e+000
8.050422e+002,2.505890e+000
8.060065e+002,2.014740e+000
8.069707e+002,2.871902e+000
8.079349e+002,3.960876e+000
8.088992e+002,4.170197e+000
8.098634e+002,3.203735e+000
8.108276e+002,1.885544e+000
8.117919e+002,1.045471e+000
8.127561e+002,5.743256e-001
8.137203e+002,8.564911e-001
8.146846e+002,2.036652e+000
8.156488e+002,3.487915e+000
8.166130e+002,4.437241e+000
8.175773e+002,4.948654e+000
8.185415e+002,4.252045e+000
8.195057e+002,2.973175e-001
8.204700e+002,-2.394470e+000
8.214342e+002,-1.161285e+000
8.223984e+002,2.496872e+000
8.233627e+002,4.359985e+000
8.243269e+002,2.109940e+000
8.252911e+002,-2.393951e-001
8.262554e+002,-4.789734e-001
8.272196e+002,4.358978e-001
8.281838e+002,1.765259e+000
8.291481e+002,3.087204e+000
8.301123e+002,4.207062e+000
8.310765e+002,4.699448e+000
8.320408e+002,4.576294e+000
8.330050e+002,4.724289e+000
8.339692e+002,5.357208e+000
8.349335e+002,5.837265e+000
8.358977e+002,5.375610e+000
8.368619e+002,3.831467e+000
8.378262e+002,2.917999e+000
8.387904e+002,2.533264e+000
8.397546e+002,2.768982e+000
8.407189e+002,4.529266e+000
8.416831e+002,6.747742e+000
8.426473e+002,7.366943e+000
8.436116e+002,5.103745e+000
8.445758e+002,2.755783e+000
8.455400e+002,3.566910e+000
8.465043e+002,5.583237e+000
8.474685e+002,7.050034e+000
8.484327e+002,7.453506e+000
8.493970e+002,6.964874e+000
8.503612e+002,5.613174e+000
8.513254e+002,3.005508e+000
8.522897e+002,2.584335e+000
8.532539e+002,5.575211e+000
8.542181e+002,8.695724e+000
8.551824e+002,1.012067e+001
8.561466e+002,1.014754e+001
8.571108e+002,1.032585e+001
8.580751e+002,1.122954e+001
8.590393e+002,1.123332e+001
8.600035e+002,8.969345e+000
8.609678e+002,6.239761e+000
8.619320e+002,5.021973e+000
8.628962e+002,6.079758e+000
8.638605e+002,8.441895e+000
8.648247e+002,1.143913e+001
8.657889e+002,1.436725e+001
8.667532e+002,1.547270e+001
8.677174e+002,1.452538e+001
8.686816e+002,1.294316e+001
8.696459e+002,1.236513e+001
8.706101e+002,1.301236e+001
8.715743e+002,1.355650e+001
8.725386e+002,1.419974e+001
8.735028e+002,1.453603e+001
8.744670e+002,1.376028e+001
8.754313e+002,1.259183e+001
8.763955e+002,1.268129e+001
8.773597e+002,1.503833e+001
8.783240e+002,1.728531e+001
8.792882e+002,1.773509e+001
8.802524e+002,1.720300e+001
8.812167e+002,1.575053e+001
8.821809e+002,1.384962e+001
8.831451e+002,1.265521e+001
8.841094e+002,1.372324e+001
8.850736e+002,1.713838e+001
8.860378e+002,2.103935e+001
8.870021e+002,2.587274e+001
8.879663e+002,2.948109e+001
8.889305e+002,3.016020e+001
8.898948e+002,2.839305e+001
8.908590e+002,2.684314e+001
8.918232e+002,2.586037e+001
8.927875e+002,2.502138e+001
8.937517e+002,2.384247e+001
8.947159e+002,2.302377e+001
8.956802e+002,2.336377e+001
8.966444e+002,2.479102e+001
8.976086e+002,2.613251e+001
8.985729e+002,2.630042e+001
8.995371e+002,2.579057e+001
9.005013e+002,2.480989e+001
9.014656e+002,2.375581e+001
9.024298e+002,2.427577e+001
9.033940e+002,2.778828e+001
9.043583e+002,3.357555e+001
9.053225e+002,3.668135e+001
9.062867e+002,3.461310e+001
9.072510e+002,3.263113e+001
9.082152e+002,3.116312e+001
9.091794e+002,2.990262e+001
9.101437e+002,2.801776e+001
9.111079e+002,2.534058e+001
9.120721e+002,2.421350e+001
9.130364e+002,2.815047e+001
9.140006e+002,3.203563e+001
9.149648e+002,3.285159e+001
9.159291e+002,3.136780e+001
9.168933e+002,2.930171e+001
9.178575e+002,2.784253e+001
9.188218e+002,2.714487e+001
9.197860e+002,2.849319e+001
9.207502e+002,3.193509e+001
9.217145e+002,3.380573e+001
9.226787e+002,3.298318e+001
9.236429e+002,3.101686e+001
9.246072e+002,2.974277e+001
9.255714e+002,2.912749e+001
9.265356e+002,2.886385e+001
9.274999e+002,2.987001e+001
9.284641e+002,3.005920e+001
9.294283e+002,2.801608e+001
9.303926e+002,2.487746e+001
9.313568e+002,2.268242e+001
9.323210e+002,2.250140e+001
9.332853e+002,2.316580e+001
9.342495e+002,2.319324e+001
9.352137e+002,2.267621e+001
9.361780e+002,2.147610e+001
9.371422e+002,1.968608e+001
9.381064e+002,1.817152e+001
9.390707e+002,1.813152e+001
9.400349e+002,1.985506e+001
9.409991e+002,2.016174e+001
9.419634e+002,1.706459e+001
9.429276e+002,1.521022e+001
9.438918e+002,1.685188e+001
9.448561e+002,2.021042e+001
9.458203e+002,2.220284e+001
9.467845e+002,2.185239e+001
9.477488e+002,2.102232e+001
9.487130e+002,2.070065e+001
9.496772e+002,2.072783e+001
9.506415e+002,2.114519e+001
9.516057e+002,2.184529e+001
9.525699e+002,2.259843e+001
9.535342e+002,2.317863e+001
9.544984e+002,2.350423e+001
9.554626e+002,2.319049e+001
9.564269e+002,2.236913e+001
9.573911e+002,2.144884e+001
9.583553e+002,2.032381e+001
9.593196e+002,1.917580e+001
9.602838e+002,1.840265e+001
9.612480e+002,1.811432e+001
9.622123e+002,1.759953e+001
9.631765e+002,1.618146e+001
9.641407e+002,1.503955e+001
9.651050e+002,1.461911e+001
9.660692e+002,1.486339e+001
9.670334e+002,1.573334e+001
9.679977e+002,1.729321e+001
9.689619e+002,1.913562e+001
9.699261e+002,2.008110e+001
9.708904e+002,2.028430e+001
9.718546e+002,2.026266e+001
9.728188e+002,2.001414e+001
9.737831e+002,1.981174e+001
9.747473e+002,1.993068e+001
9.757115e+002,2.029160e+001
9.766758e+002,2.169894e+001
9.776400e+002,2.543567e+001
9.786042e+002,2.885481e+001
9.795685e+002,3.167989e+001
9.805327e+002,3.349567e+001
9.814969e+002,3.395734e+001
9.824612e+002,3.302342e+001
9.834254e+002,3.093057e+001
9.843896e+002,2.638272e+001
9.853539e+002,2.146594e+001
9.863181e+002,1.878090e+001
9.872823e+002,1.811176e+001
9.882466e+002,1.765445e+001
9.892108e+002,1.598274e+001
9.901750e+002,1.355873e+001
9.911393e+002,1.266142e+001
9.921035e+002,1.469421e+001
9.930677e+002,1.531471e+001
9.940320e+002,1.328477e+001
9.949962e+002,1.084879e+001
9.959604e+002,9.867981e+000
9.969247e+002,1.052316e+001
9.978889e+002,1.232732e+001
9.988531e+002,1.583783e+001
9.998174e+002,1.919269e+001
1.000782e+003,2.191365e+001
1.001746e+003,2.372566e+001
1.002710e+003,2.387225e+001
1.003674e+003,2.223041e+001
1.004639e+003,2.002434e+001
1.005603e+003,1.945383e+001
1.006567e+003,2.067198e+001
1.007531e+003,2.169217e+001
1.008495e+003,2.290829e+001
1.009460e+003,2.326720e+001
1.010424e+003,2.132205e+001
1.011388e+003,1.792001e+001
1.012352e+003,1.677837e+001
1.013317e+003,2.023825e+001
1.014281e+003,2.183112e+001
1.015245e+003,1.786378e+001
1.016209e+003,1.308145e+001
1.017174e+003,1.124309e+001
1.018138e+003,1.227003e+001
1.019102e+003,1.323886e+001
1.020066e+003,1.168919e+001
1.021031e+003,8.887680e+000
1.021995e+003,8.613220e+000
1.022959e+003,1.020131e+001
1.023923e+003,1.111234e+001
1.024887e+003,1.043332e+001
1.025852e+003,8.807541e+000
1.026816e+003,7.159439e+000
1.027780e+003,5.468933e+000
1.028744e+003,4.300354e+000
1.029709e+003,3.871307e+000
1.030673e+003,3.702133e+000
1.031637e+003,3.890594e+000
1.032601e+003,4.092102e+000
1.033566e+003,3.895523e+000
1.034530e+003,3.193344e+000
1.035494e+003,2.294952e+000
1.036458e+003,1.400177e+000
1.037422e+003,5.136261e-001
1.038387e+003,-7.921600e-001
1.039351e+003,-2.320557e+000
1.040315e+003,-2.262817e+000
1.041279e+003,1.130920e+000
1.042244e+003,6.818726e+000
1.043208e+003,9.291946e+000
1.044172e+003,6.066330e+000
1.045136e+003,3.389374e+000
1.046101e+003,1.097504e+000
1.047065e+003,-2.569580e-001
1.048029e+003,2.965546e-001
1.048993e+003,2.141449e+000
1.049958e+003,3.133881e+000
1.050922e+003,2.031006e+000
1.051886e+003,6.323700e-001
1.052850e+003,7.161255e-001
1.053814e+003,1.616821e+000
1.054779e+003,2.596344e+000
1.055743e+003,3.441986e+000
1.056707e+003,4.353363e+000
1.057671e+003,5.647171e+000
1.058636e+003,7.306122e+000
1.059600e+003,7.444550e+000
1.060564e+003,4.313080e+000
1.061528e+003,2.555252e+000
1.062493e+003,3.870834e+000
1.063457e+003,5.923874e+000
1.064421e+003,5.916534e+000
1.065385e+003,3.631699e+000
1.066349e+003,1.990494e+000
1.067314e+003,3.187149e+000
1.068278e+003,4.630066e+000
1.069242e+003,4.354828e+000
1.070206e+003,3.160660e+000
1.071171e+003,2.228851e+000
1.072135e+003,2.064148e+000
1.073099e+003,2.494781e+000
1.074063e+003,3.391998e+000
1.075028e+003,4.908936e+000
1.075992e+003,5.194229e+000
1.076956e+003,3.630234e+000
1.077920e+003,1.948456e+000
1.078885e+003,5.513306e-001
1.079849e+003,-3.317871e-001
1.080813e+003,-2.101746e-001
1.081777e+003,1.161636e+000
1.082741e+003,2.628036e+000
1.083706e+003,4.333939e+000
1.084670e+003,5.075790e+000
1.085634e+003,2.888901e+000
1.086598e+003,-5.958252e-001
1.087563e+003,-1.801971e+000
1.088527e+003,1.090546e+000
1.089491e+003,5.450500e+000
1.090455e+003,5.730743e+000
1.091420e+003,1.274719e+000
1.092384e+003,-9.291840e-001
1.093348e+003,-4.269409e-002
1.094312e+003,1.308716e+000
1.095276e+003,1.637939e+000
1.096241e+003,1.392853e+000
1.097205e+003,1.913254e+000
1.098169e+003,3.799423e+000
1.099133e+003,4.877914e+000
1.100098e+003,3.520798e+000
1.101062e+003,2.020844e+000
1.102026e+003,1.881149e+000
1.102990e+003,2.832535e+000
1.103955e+003,3.857498e+000
1.104919e+003,4.308807e+000
1.105883e+003,4.353897e+000
1.106847e+003,4.424286e+000
1.107812e+003,4.487930e+000
1.108776e+003,4.181564e+000
1.109740e+003,3.363998e+000
1.110704e+003,2.438599e+000
1.111668e+003,1.647400e+000
1.112633e+003,1.097885e+000
1.113597e+003,1.075424e+000
1.114561e+003,1.921982e+000
1.115525e+003,2.326950e+000
1.116490e+003,1.379089e+000
1.117454e+003,3.757019e-001
1.118418e+003,1.648560e-001
1.119382e+003,7.577972e-001
1.120347e+003,1.894821e+000
1.121311e+003,3.325729e+000
1.122275e+003,4.430618e+000
1.123239e+003,3.921112e+000
1.124203e+003,2.136185e+000
1.125168e+003,1.507874e+000
1.126132e+003,2.162048e+000
1.127096e+003,4.209061e+000
1.128060e+003,9.266617e+000
1.129025e+003,1.604451e+001
1.129989e+003,1.795494e+001
1.130953e+003,1.186494e+001
1.131917e+003,6.899948e+000
1.132882e+003,5.940826e+000
1.133846e+003,6.337143e+000
1.134810e+003,6.892166e+000
1.135774e+003,7.393127e+000
1.136739e+003,7.949905e+000
1.137703e+003,8.619781e+000
1.138667e+003,9.454895e+000
1.139631e+003,1.062682e+001
1.140595e+003,1.208257e+001
1.141560e+003,1.342137e+001
1.142524e+003,1.455264e+001
1.143488e+003,1.614157e+001
1.144452e+003,1.857710e+001
1.145417e+003,2.178780e+001
1.146381e+003,2.554922e+001
1.147345e+003,2.989824e+001
1.148309e+003,3.461232e+001
1.149274e+003,3.990320e+001
1.150238e+003,4.534492e+001
1.151202e+003,5.091605e+001
1.152166e+003,5.654172e+001
1.153130e+003,6.234882e+001
1.154095e+003,6.819994e+001
1.155059e+003,7.304761e+001
1.156023e+003,7.557281e+001
1.156987e+003,7.577960e+001
1.157952e+003,7.467586e+001
1.158916e+003,7.239375e+001
1.159880e+003,6.936389e+001
1.160844e+003,6.519473e+001
1.161809e+003,6.023274e+001
1.162773e+003,5.582239e+001
1.163737e+003,5.236174e+001
1.164701e+003,4.770314e+001
1.165666e+003,3.894594e+001
1.166630e+003,3.154144e+001
1.167594e+003,2.854626e+001
1.168558e+003,2.765733e+001
1.169522e+003,2.526955e+001
1.170487e+003,2.055554e+001
1.171451e+003,1.653090e+001
1.172415e+003,1.689384e+001
1.173379e+003,2.036780e+001
1.174344e+003,1.976256e+001
1.175308e+003,1.489893e+001
1.176272e+003,1.116217e+001
1.177236e+003,1.080965e+001
1.178201e+003,1.207906e+001
1.179165e+003,1.282780e+001
1.180129e+003,1.298495e+001
1.181093e+003,1.285596e+001
1.182057e+003,1.246097e+001
1.183022e+003,1.193300e+001
1.183986e+003,1.071420e+001
1.184950e+003,9.834473e+000
1.185914e+003,1.069873e+001
1.186879e+003,1.307408e+001
1.187843e+003,1.541830e+001
1.188807e+003,1.646240e+001
1.189771e+003,1.630005e+001
1.190736e+003,1.502980e+001
1.191700e+003,1.243747e+001
1.192664e+003,1.104945e+001
1.193628e+003,1.213203e+001
1.194593e+003,1.321585e+001
1.195557e+003,1.203683e+001
1.196521e+003,9.371887e+000
1.197485e+003,8.303131e+000
1.198449e+003,1.003197e+001
1.199414e+003,1.104353e+001
1.200378e+003,8.712875e+000
1.201342e+003,6.104645e+000
1.202306e+003,5.194473e+000
1.203271e+003,5.489090e+000
1.204235e+003,5.578201e+000
1.205199e+003,4.793274e+000
1.206163e+003,3.712357e+000
1.207128e+003,3.287415e+000
1.208092e+003,3.572876e+000
1.209056e+003,3.658340e+000
1.210020e+003,3.731964e+000
1.210984e+003,3.325684e+000
1.211949e+003,1.973816e+000
1.212913e+003,2.299500e-001
1.213877e+003,-1.060196e+000
1.214841e+003,-1.838486e+000
1.215806e+003,-3.039902e+000
1.216770e+003,-5.719101e+000
1.217734e+003,-7.812790e+000
1.218698e+003,-7.233994e+000
1.219663e+003,-5.838943e+000
1.220627e+003,-6.254547e+000
1.221591e+003,-8.610382e+000
1.222555e+003,-1.062796e+001
1.223520e+003,-1.013216e+001
1.224484e+003,-7.826172e+000
1.225448e+003,-7.288757e+000
1.226412e+003,-9.608490e+000
1.227376e+003,-1.143762e+001
1.228341e+003,-1.296259e+001
1.229305e+003,-1.388206e+001
1.230269e+003,-1.377562e+001
1.231233e+003,-1.302534e+001
1.232198e+003,-1.242111e+001
1.233162e+003,-1.214769e+001
1.234126e+003,-1.142862e+001
1.235090e+003,-8.875397e+000
1.236055e+003,-6.583084e+000
1.237019e+003,-7.481735e+000
1.237983e+003,-1.042641e+001
1.238947e+003,-1.185144e+001
1.239911e+003,-1.025798e+001
1.240876e+003,-8.360550e+000
1.241840e+003,-1.071570e+001
1.242804e+003,-1.776166e+001
1.243768e+003,-2.089569e+001
1.244733e+003,-1.643558e+001
1.245697e+003,-1.266800e+001
1.246661e+003,-1.032196e+001
1.247625e+003,-8.908249e+000
1.248590e+003,-8.122208e+000
1.249554e+003,-7.785690e+000
1.250518e+003,-7.796188e+000
1.251482e+003,-8.175735e+000
1.252447e+003,-8.786392e+000
1.253411e+003,-9.468613e+000
1.254375e+003,-1.011833e+001
1.255339e+003,-1.062263e+001
1.256303e+003,-1.093370e+001
1.257268e+003,-1.104651e+001
1.258232e+003,-1.101839e+001
1.259196e+003,-1.092569e+001
1.260160e+003,-1.078908e+001
1.261125e+003,-1.054459e+001
1.262089e+003,-1.013390e+001
1.263053e+003,-9.259094e+000
1.264017e+003,-8.782501e+000
1.264982e+003,-9.332123e+000
1.265946e+003,-9.983749e+000
1.266910e+003,-9.718292e+000
1.267874e+003,-8.655334e+000
1.268839e+003,-7.745575e+000
1.269803e+003,-7.618103e+000
1.270767e+003,-7.846619e+000
1.271731e+003,-7.532074e+000
1.272695e+003,-6.676636e+000
1.273660e+003,-6.391800e+000
1.274624e+003,-7.010254e+000
1.275588e+003,-7.771210e+000
1.276552e+003,-8.328369e+000
1.277517e+003,-8.581818e+000
1.278481e+003,-8.190659e+000
1.279445e+003,-7.061462e+000
1.280409e+003,-6.829895e+000
1.281374e+003,-8.812973e+000
1.282338e+003,-1.072348e+001
1.283302e+003,-1.153433e+001
1.284266e+003,-1.156761e+001
1.285230e+003,-1.086201e+001
1.286195e+003,-9.744949e+000
1.287159e+003,-9.053284e+000
1.288123e+003,-9.444504e+000
1.289087e+003,-1.045781e+001
1.290052e+003,-1.083905e+001
1.291016e+003,-1.038708e+001
1.291980e+003,-1.027196e+001
1.292944e+003,-1.097052e+001
1.293909e+003,-1.151895e+001
1.294873e+003,-1.114990e+001
1.295837e+003,-1.050055e+001
1.296801e+003,-1.057858e+001
1.297766e+003,-1.146956e+001
1.298730e+003,-1.240907e+001
1.299694e+003,-1.321364e+001
1.300658e+003,-1.363965e+001
1.301622e+003,-1.338739e+001
1.302587e+003,-1.256654e+001
1.303551e+003,-1.092326e+001
1.304515e+003,-8.567734e+000
1.305479e+003,-7.075485e+000
1.306444e+003,-7.971069e+000
1.307408e+003,-1.044066e+001
1.308372e+003,-1.154063e+001
1.309336e+003,-1.078848e+001
1.310301e+003,-1.015404e+001
1.311265e+003,-9.343231e+000
1.312229e+003,-9.046005e+000
1.313193e+003,-1.008098e+001
1.314157e+003,-1.136772e+001
1.315122e+003,-1.154352e+001
1.316086e+003,-1.072142e+001
1.317050e+003,-1.027237e+001
1.318014e+003,-1.107657e+001
1.318979e+003,-1.251588e+001
1.319943e+003,-1.385413e+001
1.320907e+003,-1.488896e+001
1.321871e+003,-1.446895e+001
1.322836e+003,-1.234352e+001
1.323800e+003,-9.897491e+000
1.324764e+003,-6.932831e+000
1.325728e+003,-4.536697e+000
1.326693e+003,-5.294907e+000
1.327657e+003,-9.386826e+000
1.328621e+003,-1.212183e+001
1.329585e+003,-1.152745e+001
1.330549e+003,-1.012262e+001
1.331514e+003,-9.195724e+000
1.332478e+003,-8.600067e+000
1.333442e+003,-8.097656e+000
1.334406e+003,-7.671906e+000
1.335371e+003,-7.552048e+000
1.336335e+003,-7.861511e+000
1.337299e+003,-8.253983e+000
1.338263e+003,-8.020813e+000
1.339228e+003,-6.950485e+000
1.340192e+003,-7.260803e+000
1.341156e+003,-1.086259e+001
1.342120e+003,-1.296245e+001
1.343084e+003,-1.217702e+001
1.344049e+003,-1.043645e+001
1.345013e+003,-8.600815e+000
1.345977e+003,-7.116180e+000
1.346941e+003,-7.326782e+000
1.347906e+003,-9.875259e+000
1.348870e+003,-1.160724e+001
1.349834e+003,-8.438980e+000
1.350798e+003,-3.555878e+000
1.351763e+003,-3.293381e+000
1.352727e+003,-6.921783e+000
1.353691e+003,-1.024545e+001
1.354655e+003,-1.191475e+001
1.355620e+003,-1.220529e+001
1.356584e+003,-1.083342e+001
1.357548e+003,-8.064423e+000
1.358512e+003,-6.709671e+000
1.359476e+003,-7.603546e+000
1.360441e+003,-8.273178e+000
1.361405e+003,-7.672943e+000
1.362369e+003,-7.070175e+000
1.363333e+003,-7.166565e+000
1.364298e+003,-7.603745e+000
1.365262e+003,-7.822479e+000
1.366226e+003,-7.687668e+000
1.367190e+003,-7.442551e+000
1.368155e+003,-7.301956e+000
1.369119e+003,-7.242996e+000
1.370083e+003,-7.167953e+000
1.371047e+003,-6.986649e+000
1.372011e+003,-7.020966e+000
1.372976e+003,-7.261063e+000
1.373940e+003,-7.901291e+000
1.374904e+003,-9.630539e+000
1.375868e+003,-1.132732e+001
1.376833e+003,-1.124716e+001
1.377797e+003,-9.561371e+000
1.378761e+003,-8.529770e+000
1.379725e+003,-9.355377e+000
1.380690e+003,-1.019722e+001
1.381654e+003,-8.484467e+000
1.382618e+003,-5.903534e+000
1.383582e+003,-4.889206e+000
1.384547e+003,-5.432571e+000
1.385511e+003,-6.167175e+000
1.386475e+003,-6.460815e+000
1.387439e+003,-6.607010e+000
1.388403e+003,-7.118271e+000
1.389368e+003,-8.000656e+000
1.390332e+003,-8.376068e+000
1.391296e+003,-7.879471e+000
1.392260e+003,-7.440323e+000
1.393225e+003,-7.121384e+000
1.394189e+003,-7.098267e+000
1.395153e+003,-8.008575e+000
1.396117e+003,-9.044098e+000
1.397082e+003,-8.744019e+000
1.398046e+003,-6.937271e+000
1.399010e+003,-4.987900e+000
1.399974e+003,-4.185669e+000
1.400938e+003,-4.486572e+000
1.401903e+003,-5.596207e+000
1.402867e+003,-7.742081e+000
1.403831e+003,-8.436996e+000
1.404795e+003,-6.560196e+000
1.405760e+003,-5.034836e+000
1.406724e+003,-5.074738e+000
1.407688e+003,-6.129349e+000
1.408652e+003,-7.965439e+000
1.409617e+003,-1.004529e+001
1.410581e+003,-1.048567e+001
1.411545e+003,-8.275696e+000
1.412509e+003,-5.749115e+000
1.413474e+003,-5.518143e+000
1.414438e+003,-6.328674e+000
1.415402e+003,-5.730133e+000
1.416366e+003,-3.869690e+000
1.417330e+003,-2.379440e+000
1.418295e+003,-1.830582e+000
1.419259e+003,-2.078293e+000
1.420223e+003,-3.314850e+000
1.421187e+003,-5.388397e+000
1.422152e+003,-7.085449e+000
1.423116e+003,-8.451294e+000
1.424080e+003,-8.875275e+000
1.425044e+003,-7.400711e+000
1.426009e+003,-5.939453e+000
1.426973e+003,-5.564636e+000
1.427937e+003,-5.475403e+000
1.428901e+003,-4.433975e+000
1.429865e+003,-2.515060e+000
1.430830e+003,-8.545685e-001
1.431794e+003,-2.508087e-001
1.432758e+003,-6.016998e-001
1.433722e+003,-1.701080e+000
1.434687e+003,-3.579987e+000
1.435651e+003,-4.129913e+000
1.436615e+003,-2.694748e+000
1.437579e+003,-1.513763e+000
1.438544e+003,-5.578308e-001
1.439508e+003,-5.418396e-002
1.440472e+003,-5.684204e-001
1.441436e+003,-1.381882e+000
1.442401e+003,-1.006897e+000
1.443365e+003,7.413788e-001
1.444329e+003,2.167206e+000
1.445293e+003,1.983841e+000
1.446257e+003,9.868469e-001
1.447222e+003,6.406860e-001
1.448186e+003,7.676544e-001
1.449150e+003,3.893280e-001
1.450114e+003,-8.023987e-001
1.451079e+003,-1.702423e+000
1.452043e+003,-1.324478e+000
1.453007e+003,-5.172424e-001
1.453971e+003,-5.942993e-001
1.454936e+003,-1.481277e+000
1.455900e+003,-2.248901e+000
1.456864e+003,-2.741852e+000
1.457828e+003,-2.801422e+000
1.458792e+003,-2.001694e+000
1.459757e+003,-1.134247e+000
1.460721e+003,-1.168777e+000
1.461685e+003,-1.546951e+000
1.462649e+003,-5.466461e-001
1.463614e+003,2.054718e+000
1.464578e+003,3.493362e+000
1.465542e+003,9.326324e-001
1.466506e+003,-3.924927e+000
1.467471e+003,-5.779984e+000
1.468435e+003,-3.853348e+000
1.469399e+003,-2.391632e+000
1.470363e+003,-2.334961e+000
1.471328e+003,-1.915909e+000
1.472292e+003,-1.598358e-001
1.473256e+003,1.348236e+000
1.474220e+003,1.342133e+000
1.475184e+003,4.383087e-001
1.476149e+003,-1.617737e-001
1.477113e+003,-9.307861e-002
1.478077e+003,1.921692e-001
1.479041e+003,3.335114e-001
1.480006e+003,4.432220e-001
1.480970e+003,7.185059e-001
1.481934e+003,1.157654e+000
1.482898e+003,1.349289e+000
1.483863e+003,1.216354e+000
1.484827e+003,9.357147e-001
1.485791e+003,1.007843e-001
1.486755e+003,-3.253174e-001
1.487719e+003,6.536407e-001
1.488684e+003,2.680573e+000
1.489648e+003,5.022751e+000
1.490612e+003,7.433563e+000
1.491576e+003,9.021652e+000
1.492541e+003,8.822647e+000
1.493505e+003,7.639877e+000
1.494469e+003,7.133896e+000
1.495433e+003,7.132614e+000
1.496398e+003,7.263504e+000
1.497362e+003,7.527222e+000
1.498326e+003,8.278290e+000
1.499290e+003,9.745819e+000
1.500255e+003,1.174001e+001
1.501219e+003,1.400864e+001
1.502183e+003,1.652202e+001
1.503147e+003,1.952023e+001
1.504111e+003,2.329236e+001
1.505076e+003,2.625681e+001
1.506040e+003,2.670041e+001
1.507004e+003,2.681277e+001
1.507968e+003,2.851587e+001
1.508933e+003,3.159084e+001
1.509897e+003,3.584924e+001
1.510861e+003,4.128546e+001
1.511825e+003,4.696056e+001
1.512790e+003,5.207684e+001
1.513754e+003,5.699530e+001
1.514718e+003,6.274336e+001
1.515682e+003,6.922876e+001
1.516646e+003,7.476987e+001
1.517611e+003,7.885931e+001
1.518575e+003,8.319345e+001
1.519539e+003,8.863678e+001
1.520503e+003,9.429218e+001
1.521468e+003,1.008045e+002
1.522432e+003,1.065818e+002
1.523396e+003,1.095819e+002
1.524360e+003,1.095495e+002
1.525325e+003,1.073997e+002
1.526289e+003,1.037651e+002
1.527253e+003,9.924622e+001
1.528217e+003,9.483322e+001
1.529182e+003,9.060599e+001
1.530146e+003,8.623277e+001
1.531110e+003,8.237732e+001
1.532074e+003,7.688698e+001
1.533039e+003,6.850839e+001
1.534003e+003,5.956348e+001
1.534967e+003,5.065518e+001
1.535931e+003,4.238048e+001
1.536896e+003,3.505698e+001
1.537860e+003,2.889244e+001
1.538824e+003,2.424992e+001
1.539788e+003,2.120416e+001
1.540752e+003,1.893330e+001
1.541717e+003,1.638698e+001
1.542681e+003,1.382512e+001
1.543645e+003,1.261385e+001
1.544609e+003,1.383598e+001
1.545573e+003,1.386784e+001
1.546538e+003,1.132063e+001
1.547502e+003,9.182816e+000
1.548466e+003,9.332535e+000
1.549430e+003,9.989243e+000
1.550395e+003,8.756119e+000
1.551359e+003,6.288467e+000
1.552323e+003,5.305527e+000
1.553287e+003,6.681259e+000
1.554252e+003,8.423874e+000
1.555216e+003,8.883484e+000
1.556180e+003,8.227432e+000
1.557144e+003,6.474258e+000
1.558109e+003,3.628372e+000
1.559073e+003,2.412186e+000
1.560037e+003,3.786789e+000
1.561001e+003,4.578491e+000
1.561966e+003,3.003983e+000
1.562930e+003,1.351807e+000
1.563894e+003,2.170349e+000
1.564858e+003,4.381943e+000
1.565823e+003,5.026749e+000
1.566787e+003,3.614273e+000
1.567751e+003,2.440125e+000
1.568715e+003,2.841843e+000
1.569679e+003,3.965485e+000
1.570644e+003,4.927582e+000
1.571608e+003,5.610672e+000
1.572572e+003,5.786118e+000
1.573536e+003,5.486237e+000
1.574500e+003,5.500473e+000
1.575465e+003,6.404556e+000
1.576429e+003,7.119278e+000
1.577393e+003,6.432175e+000
1.578357e+003,5.034531e+000
1.579322e+003,4.261093e+000
1.580286e+003,4.236298e+000
1.581250e+003,4.819641e+000
1.582214e+003,6.173523e+000
1.583179e+003,7.350739e+000
1.584143e+003,7.589386e+000
1.585107e+003,7.218002e+000
1.586071e+003,6.579163e+000
1.587036e+003,5.944702e+000
1.588000e+003,5.868454e+000
1.588964e+003,6.412720e+000
1.589928e+003,7.340485e+000
1.590893e+003,9.158386e+000
1.591857e+003,1.066544e+001
1.592821e+003,9.189270e+000
1.593785e+003,5.534164e+000
1.594750e+003,4.758347e+000
1.595714e+003,8.000320e+000
1.596678e+003,1.033836e+001
1.597642e+003,9.196762e+000
1.598606e+003,7.482681e+000
1.599571e+003,7.059296e+000
1.600535e+003,7.792007e+000
1.601499e+003,1.036732e+001
1.602463e+003,1.411942e+001
1.603427e+003,1.600259e+001
1.604392e+003,1.465231e+001
1.605356e+003,1.231950e+001
1.606320e+003,1.102023e+001
1.607284e+003,1.059450e+001
1.608249e+003,1.077313e+001
1.609213e+003,1.159264e+001
1.610177e+003,1.181682e+001
1.611141e+003,1.108000e+001
1.612106e+003,1.015320e+001
1.613070e+003,9.196396e+000
1.614034e+003,8.358154e+000
1.614998e+003,7.573868e+000
1.615963e+003,7.068054e+000
1.616927e+003,7.134613e+000
1.617891e+003,7.829376e+000
1.618855e+003,9.405121e+000
1.619820e+003,1.222714e+001
1.620784e+003,1.461551e+001
1.621748e+003,1.357930e+001
1.622712e+003,1.001978e+001
1.623677e+003,9.156815e+000
1.624641e+003,1.159769e+001
1.625605e+003,1.341791e+001
1.626569e+003,1.333730e+001
1.627533e+003,1.282288e+001
1.628498e+003,1.216527e+001
1.629462e+003,1.196553e+001
1.630426e+003,1.322945e+001
1.631390e+003,1.519232e+001
1.632354e+003,1.639668e+001
1.633319e+003,1.640154e+001
1.634283e+003,1.498309e+001
1.635247e+003,1.147972e+001
1.636211e+003,7.944641e+000
1.637176e+003,9.088974e+000
1.638140e+003,1.446246e+001
1.639104e+003,1.598727e+001
1.640068e+003,1.200790e+001
1.641033e+003,9.613586e+000
1.641997e+003,1.196756e+001
1.642961e+003,1.429898e+001
1.643925e+003,1.372136e+001
1.644890e+003,1.238280e+001
1.645854e+003,1.271027e+001
1.646818e+003,1.405531e+001
1.647782e+003,1.393140e+001
1.648747e+003,1.171922e+001
1.649711e+003,1.013766e+001
1.650675e+003,1.181018e+001
1.651639e+003,1.486728e+001
1.652604e+003,1.491075e+001
1.653568e+003,1.205397e+001
1.654532e+003,1.106406e+001
1.655496e+003,1.288055e+001
1.656460e+003,1.407112e+001
1.657425e+003,1.363226e+001
1.658389e+003,1.244699e+001
1.659353e+003,9.853088e+000
1.660317e+003,7.646469e+000
1.661281e+003,8.363968e+000
1.662246e+003,1.111436e+001
1.663210e+003,1.294888e+001
1.664174e+003,1.293764e+001
1.665138e+003,1.240813e+001
1.666103e+003,1.250803e+001
1.667067e+003,1.266820e+001
1.668031e+003,1.150757e+001
1.668995e+003,9.193161e+000
1.669960e+003,7.953064e+000
1.670924e+003,8.299957e+000
1.671888e+003,8.292068e+000
1.672852e+003,6.865997e+000
1.673817e+003,5.530380e+000
1.674781e+003,4.984894e+000
1.675745e+003,5.178787e+000
1.676709e+003,6.663422e+000
1.677674e+003,8.809067e+000
1.678638e+003,9.741425e+000
1.679602e+003,8.883392e+000
1.680566e+003,7.506470e+000
1.681531e+003,6.449203e+000
1.682495e+003,5.752243e+000
1.683459e+003,5.481140e+000
1.684423e+003,5.527710e+000
1.685387e+003,5.547668e+000
1.686352e+003,5.564148e+000
1.687316e+003,5.273865e+000
1.688280e+003,4.147705e+000
1.689244e+003,3.503586e+000
1.690208e+003,5.248108e+000
1.691173e+003,7.308792e+000
1.692137e+003,6.860718e+000
1.693101e+003,4.836288e+000
1.694065e+003,4.636826e+000
1.695030e+003,7.097092e+000
1.695994e+003,8.898163e+000
1.696958e+003,7.675568e+000
1.697922e+003,5.234253e+000
1.698887e+003,3.413574e+000
1.699851e+003,2.298965e+000
1.700815e+003,2.461014e+000
1.701779e+003,3.851410e+000
1.702744e+003,4.248627e+000
1.703708e+003,2.759216e+000
1.704672e+003,1.343323e+000
1.705636e+003,1.516525e+000
1.706601e+003,2.222946e+000
1.707565e+003,1.711334e+000
1.708529e+003,5.777435e-001
1.709493e+003,8.736115e-001
1.710458e+003,3.062836e+000
1.711422e+003,4.349152e+000
1.712386e+003,2.819595e+000
1.713350e+003,1.040649e+000
1.714314e+003,1.199234e+000
1.715279e+003,2.220276e+000
1.716243e+003,2.311157e+000
1.717207e+003,1.559769e+000
1.718171e+003,1.168564e+000
1.719135e+003,1.487274e+000
1.720100e+003,1.743668e+000
1.721064e+003,1.427994e+000
1.722028e+003,6.517944e-001
1.722992e+003,-5.878906e-001
1.723957e+003,-2.002121e+000
1.724921e+003,-2.320480e+000
1.725885e+003,-1.499725e+000
1.726849e+003,-8.532104e-001
1.727814e+003,-4.491577e-001
1.728778e+003,-1.457672e-001
1.729742e+003,1.729584e-001
1.730706e+003,3.130798e-001
1.731671e+003,-1.906891e-001
1.732635e+003,-1.067993e+000
1.733599e+003,-1.532715e+000
1.734563e+003,-1.435226e+000
1.735528e+003,-1.284622e+000
1.736492e+003,-1.387405e+000
1.737456e+003,-1.687668e+000
1.738420e+003,-2.167725e+000
1.739385e+003,-2.731339e+000
1.740349e+003,-2.778641e+000
1.741313e+003,-2.147202e+000
1.742277e+003,-1.528687e+000
1.743241e+003,-6.433105e-001
1.744206e+003,-7.550049e-002
1.745170e+003,1.107635e-001
1.746134e+003,-1.341858e-001
1.747098e+003,-1.319260e+000
1.748063e+003,-2.604111e+000
1.749027e+003,-2.890808e+000
1.749991e+003,-2.408188e+000
1.750955e+003,-2.197815e+000
1.751919e+003,-2.567596e+000
1.752884e+003,-2.800980e+000
1.753848e+003,-2.301758e+000
1.754812e+003,-1.361832e+000
1.755776e+003,-3.849335e-001
1.756741e+003,6.583405e-001
1.757705e+003,3.320618e-001
1.758669e+003,-1.974915e+000
1.759633e+003,-4.060806e+000
1.760598e+003,-6.275665e+000
1.761562e+003,-7.492996e+000
1.762526e+003,-6.592896e+000
1.763490e+003,-5.284164e+000
1.764455e+003,-4.607559e+000
1.765419e+003,-4.393951e+000
1.766383e+003,-4.481140e+000
1.767347e+003,-4.694794e+000
1.768312e+003,-4.372375e+000
1.769276e+003,-3.202957e+000
1.770240e+003,-2.252289e+000
1.771204e+003,-2.680557e+000
1.772168e+003,-3.829971e+000
1.773133e+003,-4.456482e+000
1.774097e+003,-4.574448e+000
1.775061e+003,-4.246353e+000
1.776025e+003,-3.518158e+000
1.776990e+003,-2.513916e+000
1.777954e+003,-8.486176e-001
1.778918e+003,3.831482e-001
1.779882e+003,-1.843567e-001
1.780846e+003,-1.308136e+000
1.781811e+003,-1.051849e+000
1.782775e+003,1.601410e-001
1.783739e+003,8.792267e-001
1.784703e+003,9.239349e-001
1.785668e+003,5.645905e-001
1.786632e+003,-3.875580e-001
1.787596e+003,-1.497726e+000
1.788560e+003,-2.527313e+000
1.789525e+003,-3.268524e+000
1.790489e+003,-3.446884e+000
1.791453e+003,-3.217331e+000
1.792417e+003,-2.897629e+000
1.793382e+003,-2.588654e+000
1.794346e+003,-2.484802e+000
1.795310e+003,-2.709137e+000
1.796274e+003,-3.141678e+000
1.797239e+003,-3.734100e+000
1.798203e+003,-4.051346e+000
1.799167e+003,-2.753128e+000
1.800131e+003,5.673218e-001
1.801095e+003,1.670547e+000
1.802060e+003,-9.091797e-001
1.803024e+003,-2.841141e+000
1.803988e+003,-3.898880e+000
1.804952e+003,-4.112122e+000
1.805917e+003,-2.388367e+000
1.806881e+003,-7.679596e-001
1.807845e+003,-1.778015e+000
1.808809e+003,-4.273712e+000
1.809773e+003,-5.680679e+000
1.810738e+003,-5.414841e+000
1.811702e+003,-4.538391e+000
1.812666e+003,-3.737366e+000
1.813630e+003,-2.872009e+000
1.814595e+003,-1.633636e+000
1.815559e+003,-3.497772e-001
1.816523e+003,-5.388184e-001
1.817487e+003,-2.388702e+000
1.818452e+003,-3.299286e+000
1.819416e+003,-2.741486e+000
1.820380e+003,-2.204254e+000
1.821344e+003,-1.949631e+000
1.822309e+003,-2.163956e+000
1.823273e+003,-3.631577e+000
1.824237e+003,-4.967987e+000
1.825201e+003,-4.470032e+000
1.826166e+003,-2.774597e+000
1.827130e+003,-1.515900e+000
1.828094e+003,-1.025833e+000
1.829058e+003,-1.296448e+000
1.830022e+003,-2.736053e+000
1.830987e+003,-3.934357e+000
1.831951e+003,-3.329102e+000
1.832915e+003,-2.058319e+000
1.833879e+003,-1.843002e+000
1.834844e+003,-2.412476e+000
1.835808e+003,-2.676971e+000
1.836772e+003,-2.485733e+000
1.837736e+003,-2.437119e+000
1.838700e+003,-2.830109e+000
1.839665e+003,-3.348251e+000
1.840629e+003,-3.741348e+000
1.841593e+003,-3.805054e+000
1.842557e+003,-3.042496e+000
1.843522e+003,-1.478485e+000
1.844486e+003,-6.816101e-001
1.845450e+003,-1.163513e+000
1.846414e+003,-1.250671e+000
1.847379e+003,-5.050964e-001
1.848343e+003,-2.174225e-001
1.849307e+003,-1.446350e+000
1.850271e+003,-2.463867e+000
1.851236e+003,-1.355988e+000
1.852200e+003,3.932343e-001
1.853164e+003,3.897247e-001
1.854128e+003,-1.229156e+000
1.855093e+003,-2.768692e+000
1.856057e+003,-3.452499e+000
1.857021e+003,-3.455338e+000
1.857985e+003,-2.919861e+000
1.858949e+003,-2.063080e+000
1.859914e+003,-1.230515e+000
1.860878e+003,-3.647308e-001
1.861842e+003,1.004181e+000
1.862806e+003,2.884445e+000
1.863771e+003,3.359558e+000
1.864735e+003,1.670044e+000
1.865699e+003,5.034943e-001
1.866663e+003,1.381882e+000
1.867627e+003,2.579712e+000
1.868592e+003,2.397202e+000
1.869556e+003,1.500793e+000
1.870520e+003,1.501999e+000
1.871484e+003,2.162033e+000
1.872449e+003,1.783096e+000
1.873413e+003,2.500916e-002
1.874377e+003,-1.250641e+000
1.875341e+003,-1.751495e+000
1.876306e+003,-1.710815e+000
1.877270e+003,-9.098206e-001
1.878234e+003,2.268982e-002
1.879198e+003,5.335541e-001
1.880163e+003,7.194672e-001
1.881127e+003,8.558502e-001
1.882091e+003,9.728394e-001
1.883055e+003,8.812561e-001
1.884020e+003,5.161133e-001
1.884984e+003,6.144714e-002
1.885948e+003,-3.243103e-001
1.886912e+003,-5.164795e-001
1.887876e+003,-2.113342e-001
1.888841e+003,5.513916e-001
1.889805e+003,1.201340e+000
1.890769e+003,1.770172e+000
1.891733e+003,2.027374e+000
1.892698e+003,1.750305e+000
1.893662e+003,1.513565e+000
1.894626e+003,1.647568e+000
1.895590e+003,1.752289e+000
1.896554e+003,1.484985e+000
1.897519e+003,1.160767e+000
1.898483e+003,1.041367e+000
1.899447e+003,1.083984e+000
1.900411e+003,1.361069e+000
1.901376e+003,1.933395e+000
1.902340e+003,2.335648e+000
1.903304e+003,2.278473e+000
1.904268e+003,2.163239e+000
1.905233e+003,2.172272e+000
1.906197e+003,2.354553e+000
1.907161e+003,3.204254e+000
1.908125e+003,4.068069e+000
1.909090e+003,3.234100e+000
1.910054e+003,1.143265e+000
1.911018e+003,3.644714e-001
1.911982e+003,1.627014e+000
1.912947e+003,2.866226e+000
1.913911e+003,2.544159e+000
1.914875e+003,1.821564e+000
1.915839e+003,2.550858e+000
1.916803e+003,4.280716e+000
1.917768e+003,4.896484e+000
1.918732e+003,4.203659e+000
1.919696e+003,4.089523e+000
1.920660e+003,5.000717e+000
1.921625e+003,5.403198e+000
1.922589e+003,4.661224e+000
1.923553e+003,3.757614e+000
1.924517e+003,3.554489e+000
1.925481e+003,3.118607e+000
1.926446e+003,6.258850e-001
1.927410e+003,-2.311172e+000
1.928374e+003,-1.999161e+000
1.929338e+003,1.451706e+000
1.930303e+003,3.655853e+000
1.931267e+003,3.211304e+000
1.932231e+003,2.842575e+000
1.933195e+003,4.326981e+000
1.934160e+003,5.495514e+000
1.935124e+003,4.101364e+000
1.936088e+003,1.996552e+000
1.937052e+003,1.738083e+000
1.938017e+003,2.687805e+000
1.938981e+003,2.808853e+000
1.939945e+003,1.934708e+000
1.940909e+003,1.540314e+000
1.941874e+003,2.219604e+000
1.942838e+003,2.830856e+000
1.943802e+003,2.342117e+000
1.944766e+003,1.459000e+000
1.945730e+003,1.454590e+000
1.946695e+003,2.194351e+000
1.947659e+003,3.025513e+000
1.948623e+003,3.951721e+000
1.949587e+003,4.820648e+000
1.950552e+003,5.810745e+000
1.951516e+003,6.096893e+000
1.952480e+003,5.293304e+000
1.953444e+003,3.879837e+000
1.954408e+003,1.268158e+000
1.955373e+003,-9.465790e-001
1.956337e+003,3.170166e-001
1.957301e+003,3.972733e+000
1.958265e+003,5.925522e+000
1.959230e+003,5.943359e+000
1.960194e+003,5.530609e+000
1.961158e+003,3.787994e+000
1.962122e+003,3.078308e+000
1.963087e+003,5.326828e+000
1.964051e+003,7.198288e+000
1.965015e+003,6.307953e+000
1.965979e+003,4.671494e+000
1.966944e+003,4.088348e+000
1.967908e+003,4.415527e+000
1.968872e+003,5.250549e+000
1.969836e+003,6.284042e+000
1.970801e+003,7.085190e+000
1.971765e+003,7.437027e+000
1.972729e+003,6.864700e+000
1.973693e+003,4.548340e+000
1.974657e+003,2.314362e+000
1.975622e+003,3.473099e+000
1.976586e+003,6.615555e+000
1.977550e+003,8.101196e+000
1.978514e+003,8.043549e+000
1.979479e+003,7.253586e+000
1.980443e+003,5.934082e+000
1.981407e+003,5.478882e+000
1.982371e+003,6.493484e+000
1.983335e+003,7.190857e+000
1.984300e+003,6.051102e+000
1.985264e+003,4.518524e+000
1.986228e+003,4.974106e+000
1.987192e+003,6.911560e+000
1.988157e+003,7.666916e+000
1.989121e+003,6.958923e+000
1.990085e+003,6.670303e+000
1.991049e+003,7.168137e+000
1.992014e+003,7.420578e+000
1.992978e+003,6.662247e+000
1.993942e+003,6.450073e+000
1.994906e+003,8.246735e+000
1.995871e+003,9.824463e+000
1.996835e+003,8.890717e+000
1.997799e+003,7.139679e+000
1.998763e+003,7.439316e+000
1.999728e+003,9.307159e+000
