5.003444e+002,3.289673e+001
5.013087e+002,3.104129e+001
5.022729e+002,2.963736e+001
5.032371e+002,2.901489e+001
5.042014e+002,2.975488e+001
5.051656e+002,3.159402e+001
5.061298e+002,3.272778e+001
5.070941e+002,3.134351e+001
5.080583e+002,2.666266e+001
5.090225e+002,2.331900e+001
5.099868e+002,2.108160e+001
5.109510e+002,1.985245e+001
5.119152e+002,1.979498e+001
5.128795e+002,2.097067e+001
5.138437e+002,2.252625e+001
5.148079e+002,2.525107e+001
5.157722e+002,2.740741e+001
5.167364e+002,2.812219e+001
5.177006e+002,2.729224e+001
5.186649e+002,2.543292e+001
5.196291e+002,2.221481e+001
5.205933e+002,1.933258e+001
5.215576e+002,1.873541e+001
5.225218e+002,2.036346e+001
5.234860e+002,2.317313e+001
5.244503e+002,2.557007e+001
5.254145e+002,2.779932e+001
5.263787e+002,2.804260e+001
5.273430e+002,2.490311e+001
5.283072e+002,2.072772e+001
5.292714e+002,1.888541e+001
5.302357e+002,2.079471e+001
5.311999e+002,2.150604e+001
5.321641e+002,1.964566e+001
5.331284e+002,1.751178e+001
5.340926e+002,1.724811e+001
5.350568e+002,1.972177e+001
5.360211e+002,2.155051e+001
5.369853e+002,1.833963e+001
5.379495e+002,1.412460e+001
5.389138e+002,1.262817e+001
5.398780e+002,1.501190e+001
5.408422e+002,1.917700e+001
5.418065e+002,1.894629e+001
5.427707e+002,1.502542e+001
5.437349e+002,1.225031e+001
5.446992e+002,1.199228e+001
5.456634e+002,1.359079e+001
5.466276e+002,1.477701e+001
5.475919e+002,1.525040e+001
5.485561e+002,1.574142e+001
5.495203e+002,1.640451e+001
5.504846e+002,1.693146e+001
5.514488e+002,1.699066e+001
5.524130e+002,1.663187e+001
5.533773e+002,1.554776e+001
5.543415e+002,1.301620e+001
5.553057e+002,1.017670e+001
5.562700e+002,8.077576e+000
5.572342e+002,7.343658e+000
5.581984e+002,7.689514e+000
5.591627e+002,9.298584e+000
5.601269e+002,1.156467e+001
5.610911e+002,1.270303e+001
5.620554e+002,1.165698e+001
5.630196e+002,8.703796e+000
5.639838e+002,6.917847e+000
5.649481e+002,7.069611e+000
5.659123e+002,7.262482e+000
5.668765e+002,7.458130e+000
5.678408e+002,7.706421e+000
5.688050e+002,7.878326e+000
5.697692e+002,7.542755e+000
5.707335e+002,7.190033e+000
5.716977e+002,7.019104e+000
5.726619e+002,7.024231e+000
5.736262e+002,7.319458e+000
5.745904e+002,8.122131e+000
5.755546e+002,8.763184e+000
5.765189e+002,7.832275e+000
5.774831e+002,5.890472e+000
5.784473e+002,4.051422e+000
5.794116e+002,3.143890e+000
5.803758e+002,3.187164e+000
5.813400e+002,3.221252e+000
5.823043e+002,3.061829e+000
5.832685e+002,2.772217e+000
5.842327e+002,2.225952e+000
5.851970e+002,1.661316e+000
5.861612e+002,2.006927e+000
5.871254e+002,4.434357e+000
5.880897e+002,6.460419e+000
5.890539e+002,7.601929e+000
5.900181e+002,7.939880e+000
5.909824e+002,7.704193e+000
5.919466e+002,6.947510e+000
5.929108e+002,5.963287e+000
5.938751e+002,4.699463e+000
5.948393e+002,3.533386e+000
5.958035e+002,3.255524e+000
5.967678e+002,4.438507e+000
5.977320e+002,6.809937e+000
5.986962e+002,7.635101e+000
5.996605e+002,6.796539e+000
6.006247e+002,5.789154e+000
6.015889e+002,5.428986e+000
6.025532e+002,5.653717e+000
6.035174e+002,5.246979e+000
6.044816e+002,2.928467e+000
6.054459e+002,1.429169e+000
6.064101e+002,1.657227e+000
6.073743e+002,2.876678e+000
6.083386e+002,3.839844e+000
6.093028e+002,4.122894e+000
6.102670e+002,3.559753e+000
6.112313e+002,5.054016e-001
6.121955e+002,-2.813171e+000
6.131597e+002,-2.803009e+000
6.141240e+002,2.870087e+000
6.150882e+002,1.198328e+001
6.160524e+002,1.455960e+001
6.170167e+002,1.185941e+001
6.179809e+002,8.798431e+000
6.189451e+002,7.330688e+000
6.199094e+002,7.219208e+000
6.208736e+002,7.207886e+000
6.218378e+002,8.281281e+000
6.228021e+002,8.568726e+000
6.237663e+002,7.352661e+000
6.247305e+002,5.439758e+000
6.256948e+002,4.129028e+000
6.266590e+002,4.070496e+000
6.276232e+002,3.921936e+000
6.285875e+002,2.743103e+000
6.295517e+002,1.333740e+000
6.305159e+002,5.182495e-001
6.314802e+002,6.871948e-001
6.324444e+002,1.363159e+000
6.334086e+002,1.234619e+000
6.343729e+002,7.564697e-001
6.353371e+002,1.228119e+000
6.363013e+002,3.331726e+000
6.372656e+002,6.262482e+000
6.382298e+002,7.238037e+000
6.391940e+002,3.980743e+000
6.401583e+002,1.458801e+000
6.411225e+002,2.797546e-001
6.420867e+002,-1.065674e-001
6.430510e+002,-4.146729e-001
6.440152e+002,-9.014282e-001
6.449794e+002,-1.577423e+000
6.459437e+002,-2.944336e+000
6.469079e+002,-4.130066e+000
6.478721e+002,-4.120422e+000
6.488364e+002,-2.689911e+000
6.498006e+002,-8.391418e-001
6.507648e+002,-6.099854e-001
6.517291e+002,-1.429169e+000
6.526933e+002,-1.816132e+000
6.536575e+002,-1.497894e+000
6.546218e+002,-7.109985e-001
6.555860e+002,1.564636e-001
6.565502e+002,1.489319e+000
6.575145e+002,1.848633e+000
6.584787e+002,9.315186e-001
6.594429e+002,-5.373230e-001
6.604072e+002,-2.330780e+000
6.613714e+002,-4.546829e+000
6.623356e+002,-5.783752e+000
6.632999e+002,-4.465149e+000
6.642641e+002,-2.993622e+000
6.652283e+002,-2.702576e+000
6.661926e+002,-3.459686e+000
6.671568e+002,-4.031982e+000
6.681210e+002,-2.846954e+000
6.690853e+002,-6.954651e-001
6.700495e+002,4.164124e-001
6.710137e+002,4.936218e-001
6.719780e+002,2.150269e-001
6.729422e+002,3.110352e-001
6.739064e+002,9.028625e-001
6.748707e+002,7.374573e-001
6.758349e+002,-6.417847e-001
6.767991e+002,-2.067871e+000
6.777634e+002,-3.391052e+000
6.787276e+002,-4.335999e+000
6.796918e+002,-3.753204e+000
6.806561e+002,9.089661e-001
6.816203e+002,4.532867e+000
6.825845e+002,4.640137e+000
6.835488e+002,2.468048e+000
6.845130e+002,4.568481e-002
6.854772e+002,-1.181793e+000
6.864415e+002,-1.291718e+000
6.874057e+002,-6.533813e-001
6.883699e+002,3.911743e-001
6.893342e+002,1.557587e+000
6.902984e+002,2.802612e+000
6.912626e+002,3.991364e+000
6.922269e+002,3.876709e+000
6.931911e+002,1.155548e+000
6.941553e+002,-6.745605e-001
6.951196e+002,-1.262054e+000
6.960838e+002,-1.112183e+000
6.970480e+002,-8.422241e-001
6.980123e+002,-4.114685e-001
6.989765e+002,-7.186890e-002
6.999407e+002,2.874756e-002
7.009050e+002,6.988525e-003
7.018692e+002,8.706665e-002
7.028334e+002,2.516785e-001
7.037977e+002,2.706909e-002
7.047619e+002,-1.789536e+000
7.057261e+002,-4.192474e+000
7.066904e+002,-5.296677e+000
7.076546e+002,-4.801636e+000
7.086188e+002,-3.288162e+000
7.095831e+002,-1.564468e+000
7.105473e+002,7.156982e-001
7.115115e+002,1.624695e+000
7.124758e+002,-8.358765e-002
7.134400e+002,-1.736710e+000
7.144042e+002,-1.304443e+000
7.153685e+002,1.264740e+000
7.163327e+002,3.216522e+000
7.172969e+002,2.387360e+000
7.182612e+002,1.534943e+000
7.192254e+002,1.959747e+000
7.201896e+002,3.172882e+000
7.211539e+002,4.015656e+000
7.221181e+002,3.529877e+000
7.230823e+002,2.103760e+000
7.240466e+002,7.398376e-001
7.250108e+002,-4.280396e-001
7.259750e+002,-1.239319e+000
7.269393e+002,-1.715561e+000
7.279035e+002,-2.031372e+000
7.288677e+002,-2.394913e+000
7.298320e+002,-2.836777e+000
7.307962e+002,-2.642441e+000
7.317604e+002,-1.205292e+000
7.327247e+002,7.164001e-001
7.336889e+002,1.822235e+000
7.346531e+002,1.258087e+000
7.356174e+002,7.462158e-001
7.365816e+002,2.208740e+000
7.375458e+002,3.935028e+000
7.385101e+002,4.365540e+000
7.394743e+002,3.257019e+000
7.404385e+002,1.820892e+000
7.414028e+002,2.018738e+000
7.423670e+002,3.057617e+000
7.433312e+002,2.441589e+000
7.442955e+002,6.170654e-002
7.452597e+002,-2.273819e+000
7.462239e+002,-2.435883e+000
7.471882e+002,2.918396e-001
7.481524e+002,1.788971e+000
7.491166e+002,1.246643e+000
7.500809e+002,2.340393e-001
7.510451e+002,-8.426819e-001
7.520093e+002,-1.908920e+000
7.529736e+002,-3.031769e+000
7.539378e+002,-4.614746e+000
7.549020e+002,-5.151306e+000
7.558663e+002,-3.297424e+000
7.568306e+002,-1.911926e-001
7.577948e+002,2.790695e+000
7.587590e+002,4.712433e+000
7.597233e+002,5.536499e+000
7.606875e+002,5.032227e+000
7.616517e+002,3.489349e+000
7.626160e+002,2.279266e+000
7.635802e+002,1.919434e+000
7.645444e+002,1.966217e+000
7.655087e+002,1.372726e+000
7.664729e+002,-5.359192e-001
7.674371e+002,-1.662582e+000
7.684014e+002,-1.960205e+000
7.693656e+002,-1.594131e+000
7.703298e+002,-2.046814e-001
7.712941e+002,2.054138e+000
7.722583e+002,3.858063e+000
7.732225e+002,4.183472e+000
7.741868e+002,3.583618e+000
7.751510e+002,1.855469e+000
7.761152e+002,-3.929443e-001
7.770795e+002,-2.013657e+000
7.780437e+002,-2.005966e+000
7.790079e+002,-5.729828e-001
7.799722e+002,1.297226e+000
7.809364e+002,3.811844e+000
7.819006e+002,5.436264e+000
7.828649e+002,5.029907e+000
7.838291e+002,3.409424e+000
7.847933e+002,3.274750e+000
7.857576e+002,6.340668e+000
7.867218e+002,7.522400e+000
7.876860e+002,4.860718e+000
7.886503e+002,1.314392e+000
7.896145e+002,-6.987152e-001
7.905787e+002,-5.484467e-001
7.915430e+002,3.403320e-001
7.925072e+002,3.179626e-001
7.934714e+002,8.099365e-002
7.944357e+002,9.696198e-001
7.953999e+002,2.883759e+000
7.963641e+002,4.435425e+000
7.973284e+002,3.934753e+000
7.982926e+002,1.180130e+000
7.992568e+002,4.347839e-001
8.002211e+002,2.576141e+000
8.011853e+002,4.013733e+000
8.021495e+002,2.964035e+000
8.031138e+002,4.875946e-001
8.040780e+002,-1.125946e-001
8.050422e+002,2.958878e+000
8.060065e+002,5.550217e+000
8.069707e+002,6.316330e+000
8.079349e+002,5.867462e+000
8.088992e+002,4.688232e+000
8.098634e+002,3.108032e+000
8.108276e+002,1.429733e+000
8.117919e+002,-3.391418e-001
8.127561e+002,-2.057816e+000
8.137203e+002,-2.796280e+000
8.146846e+002,-2.314178e+000
8.156488e+002,-1.270477e+000
8.166130e+002,-5.537109e-001
8.175773e+002,-2.563324e-001
8.185415e+002,1.623535e-002
8.195057e+002,-4.716797e-001
8.204700e+002,-3.882904e-001
8.214342e+002,1.342682e+000
8.223984e+002,3.990204e+000
8.233627e+002,5.569031e+000
8.243269e+002,5.079193e+000
8.252911e+002,4.154694e+000
8.262554e+002,3.403427e+000
8.272196e+002,2.991348e+000
8.281838e+002,3.384109e+000
8.291481e+002,4.556259e+000
8.301123e+002,5.622482e+000
8.310765e+002,4.758255e+000
8.320408e+002,2.191467e+000
8.330050e+002,1.356110e+000
8.339692e+002,2.890961e+000
8.349335e+002,4.858887e+000
8.358977e+002,5.003876e+000
8.368619e+002,2.944611e+000
8.378262e+002,2.583572e+000
8.387904e+002,6.309128e+000
8.397546e+002,8.857651e+000
8.407189e+002,8.153915e+000
8.416831e+002,5.605667e+000
8.426473e+002,3.759232e+000
8.436116e+002,3.801773e+000
8.445758e+002,4.625336e+000
8.455400e+002,4.894745e+000
8.465043e+002,4.945892e+000
8.474685e+002,5.704132e+000
8.484327e+002,7.342285e+000
8.493970e+002,8.795898e+000
8.503612e+002,7.985046e+000
8.513254e+002,4.225052e+000
8.522897e+002,2.937744e+000
8.532539e+002,5.619095e+000
8.542181e+002,8.304581e+000
8.551824e+002,8.479507e+000
8.561466e+002,6.642914e+000
8.571108e+002,5.816528e+000
8.580751e+002,6.914124e+000
8.590393e+002,8.015381e+000
8.600035e+002,8.484131e+000
8.609678e+002,8.886627e+000
8.619320e+002,9.967072e+000
8.628962e+002,1.195940e+001
8.638605e+002,1.421745e+001
8.648247e+002,1.608617e+001
8.657889e+002,1.731020e+001
8.667532e+002,1.700481e+001
8.677174e+002,1.506093e+001
8.686816e+002,1.299799e+001
8.696459e+002,1.263098e+001
8.706101e+002,1.427960e+001
8.715743e+002,1.589926e+001
8.725386e+002,1.800092e+001
8.735028e+002,1.948849e+001
8.744670e+002,1.980124e+001
8.754313e+002,1.915886e+001
8.763955e+002,1.783330e+001
8.773597e+002,1.552879e+001
8.783240e+002,1.423106e+001
8.792882e+002,1.647185e+001
8.802524e+002,1.939482e+001
8.812167e+002,2.023657e+001
8.821809e+002,1.871277e+001
8.831451e+002,1.671112e+001
8.841094e+002,1.673489e+001
8.850736e+002,1.881256e+001
8.860378e+002,2.015329e+001
8.870021e+002,2.060114e+001
8.879663e+002,2.072060e+001
8.889305e+002,2.057735e+001
8.898948e+002,2.021754e+001
8.908590e+002,2.014476e+001
8.918232e+002,2.072902e+001
8.927875e+002,2.131677e+001
8.937517e+002,2.161069e+001
8.947159e+002,2.196982e+001
8.956802e+002,2.272415e+001
8.966444e+002,2.379724e+001
8.976086e+002,2.462552e+001
8.985729e+002,2.451050e+001
8.995371e+002,2.426857e+001
9.005013e+002,2.534157e+001
9.014656e+002,2.753960e+001
9.024298e+002,2.953725e+001
9.033940e+002,3.022050e+001
9.043583e+002,2.963686e+001
9.053225e+002,2.913696e+001
9.062867e+002,2.923492e+001
9.072510e+002,2.846060e+001
9.082152e+002,2.563565e+001
9.091794e+002,2.302493e+001
9.101437e+002,2.333728e+001
9.111079e+002,2.702081e+001
9.120721e+002,3.031306e+001
9.130364e+002,3.106047e+001
9.140006e+002,3.032262e+001
9.149648e+002,2.753297e+001
9.159291e+002,2.403929e+001
9.168933e+002,2.224178e+001
9.178575e+002,2.371820e+001
9.188218e+002,2.730130e+001
9.197860e+002,2.932596e+001
9.207502e+002,2.974863e+001
9.217145e+002,2.946448e+001
9.226787e+002,2.829730e+001
9.236429e+002,2.714041e+001
9.246072e+002,2.731297e+001
9.255714e+002,2.911732e+001
9.265356e+002,3.003371e+001
9.274999e+002,2.935417e+001
9.284641e+002,2.792772e+001
9.294283e+002,2.537222e+001
9.303926e+002,2.252884e+001
9.313568e+002,2.062183e+001
9.323210e+002,2.027640e+001
9.332853e+002,2.090106e+001
9.342495e+002,2.239093e+001
9.352137e+002,2.400079e+001
9.361780e+002,2.460373e+001
9.371422e+002,2.406471e+001
9.381064e+002,2.265071e+001
9.390707e+002,2.033437e+001
9.400349e+002,1.648772e+001
9.409991e+002,1.501648e+001
9.419634e+002,1.792294e+001
9.429276e+002,2.021936e+001
9.438918e+002,2.024380e+001
9.448561e+002,1.902298e+001
9.458203e+002,1.840356e+001
9.467845e+002,1.903311e+001
9.477488e+002,1.979086e+001
9.487130e+002,1.981190e+001
9.496772e+002,1.955846e+001
9.506415e+002,1.923311e+001
9.516057e+002,1.895485e+001
9.525699e+002,1.885396e+001
9.535342e+002,1.903644e+001
9.544984e+002,1.943994e+001
9.554626e+002,2.018661e+001
9.564269e+002,2.177682e+001
9.573911e+002,2.256906e+001
9.583553e+002,2.129239e+001
9.593196e+002,1.922937e+001
9.602838e+002,1.862210e+001
9.612480e+002,1.988509e+001
9.622123e+002,2.099895e+001
9.631765e+002,2.138762e+001
9.641407e+002,2.160582e+001
9.651050e+002,2.200685e+001
9.660692e+002,2.232410e+001
9.670334e+002,2.204221e+001
9.679977e+002,2.091547e+001
9.689619e+002,1.940283e+001
9.699261e+002,1.787131e+001
9.708904e+002,1.637964e+001
9.718546e+002,1.561404e+001
9.728188e+002,1.567487e+001
9.737831e+002,1.643568e+001
9.747473e+002,1.803880e+001
9.757115e+002,2.085185e+001
9.766758e+002,2.275285e+001
9.776400e+002,2.305698e+001
9.786042e+002,2.352176e+001
9.795685e+002,2.478409e+001
9.805327e+002,2.613232e+001
9.814969e+002,2.678162e+001
9.824612e+002,2.656461e+001
9.834254e+002,2.569168e+001
9.843896e+002,2.362863e+001
9.853539e+002,2.116283e+001
9.863181e+002,1.916093e+001
9.872823e+002,1.757774e+001
9.882466e+002,1.609572e+001
9.892108e+002,1.459142e+001
9.901750e+002,1.329242e+001
9.911393e+002,1.249384e+001
9.921035e+002,1.155038e+001
9.930677e+002,1.148886e+001
9.940320e+002,1.316809e+001
9.949962e+002,1.540176e+001
9.959604e+002,1.705380e+001
9.969247e+002,1.808759e+001
9.978889e+002,1.937773e+001
9.988531e+002,2.134837e+001
9.998174e+002,2.321046e+001
1.000782e+003,2.459215e+001
1.001746e+003,2.576268e+001
1.002710e+003,2.717178e+001
1.003674e+003,2.893491e+001
1.004639e+003,3.061945e+001
1.005603e+003,3.147968e+001
1.006567e+003,3.136026e+001
1.007531e+003,3.072882e+001
1.008495e+003,2.925882e+001
1.009460e+003,2.799203e+001
1.010424e+003,2.790379e+001
1.011388e+003,2.864006e+001
1.012352e+003,2.858708e+001
1.013317e+003,2.718150e+001
1.014281e+003,2.549857e+001
1.015245e+003,2.331030e+001
1.016209e+003,2.137109e+001
1.017174e+003,2.065735e+001
1.018138e+003,2.089120e+001
1.019102e+003,2.081900e+001
1.020066e+003,1.946686e+001
1.021031e+003,1.715543e+001
1.021995e+003,1.400276e+001
1.022959e+003,1.012721e+001
1.023923e+003,7.296906e+000
1.024887e+003,6.148682e+000
1.025852e+003,6.129898e+000
1.026816e+003,6.608185e+000
1.027780e+003,7.885696e+000
1.028744e+003,8.751724e+000
1.029709e+003,9.670074e+000
1.030673e+003,9.466782e+000
1.031637e+003,6.603149e+000
1.032601e+003,2.789627e+000
1.033566e+003,4.292755e-001
1.034530e+003,3.898926e-001
1.035494e+003,1.485504e+000
1.036458e+003,2.916992e+000
1.037422e+003,4.212341e+000
1.038387e+003,4.440659e+000
1.039351e+003,3.668823e+000
1.040315e+003,2.936783e+000
1.041279e+003,3.084686e+000
1.042244e+003,3.971466e+000
1.043208e+003,4.649200e+000
1.044172e+003,5.131485e+000
1.045136e+003,5.000565e+000
1.046101e+003,3.503769e+000
1.047065e+003,2.300583e+000
1.048029e+003,2.665283e+000
1.048993e+003,4.252060e+000
1.049958e+003,5.714844e+000
1.050922e+003,6.630035e+000
1.051886e+003,6.961960e+000
1.052850e+003,6.050354e+000
1.053814e+003,4.840851e+000
1.054779e+003,4.881378e+000
1.055743e+003,6.306625e+000
1.056707e+003,7.624954e+000
1.057671e+003,6.985672e+000
1.058636e+003,4.343414e+000
1.059600e+003,2.809219e+000
1.060564e+003,3.421555e+000
1.061528e+003,3.911545e+000
1.062493e+003,3.579758e+000
1.063457e+003,2.997482e+000
1.064421e+003,3.070816e+000
1.065385e+003,3.927307e+000
1.066349e+003,4.312958e+000
1.067314e+003,2.998642e+000
1.068278e+003,1.757339e+000
1.069242e+003,2.040039e+000
1.070206e+003,3.235168e+000
1.071171e+003,4.314636e+000
1.072135e+003,4.765640e+000
1.073099e+003,4.755524e+000
1.074063e+003,4.630280e+000
1.075028e+003,4.395065e+000
1.075992e+003,4.952301e+000
1.076956e+003,7.021210e+000
1.077920e+003,8.347275e+000
1.078885e+003,7.930542e+000
1.079849e+003,6.499542e+000
1.080813e+003,5.109970e+000
1.081777e+003,3.808197e+000
1.082741e+003,3.194046e+000
1.083706e+003,4.214890e+000
1.084670e+003,5.194626e+000
1.085634e+003,4.906891e+000
1.086598e+003,3.911423e+000
1.087563e+003,3.666245e+000
1.088527e+003,4.953720e+000
1.089491e+003,6.744598e+000
1.090455e+003,6.698914e+000
1.091420e+003,4.449036e+000
1.092384e+003,3.275543e+000
1.093348e+003,3.475235e+000
1.094312e+003,3.952408e+000
1.095276e+003,4.297806e+000
1.096241e+003,4.592407e+000
1.097205e+003,4.953430e+000
1.098169e+003,5.615570e+000
1.099133e+003,5.343918e+000
1.100098e+003,2.891190e+000
1.101062e+003,2.973633e-001
1.102026e+003,-1.502991e+000
1.102990e+003,-2.304474e+000
1.103955e+003,-1.990860e+000
1.104919e+003,-5.466156e-001
1.105883e+003,1.405029e+000
1.106847e+003,2.584778e+000
1.107812e+003,2.949509e+000
1.108776e+003,3.655533e+000
1.109740e+003,5.077255e+000
1.110704e+003,6.175644e+000
1.111668e+003,6.135025e+000
1.112633e+003,5.289215e+000
1.113597e+003,4.647705e+000
1.114561e+003,4.040543e+000
1.115525e+003,4.016068e+000
1.116490e+003,5.141266e+000
1.117454e+003,6.391022e+000
1.118418e+003,7.519348e+000
1.119382e+003,8.314194e+000
1.120347e+003,8.083527e+000
1.121311e+003,6.309235e+000
1.122275e+003,4.192276e+000
1.123239e+003,4.953506e+000
1.124203e+003,8.441544e+000
1.125168e+003,1.009691e+001
1.126132e+003,8.885422e+000
1.127096e+003,7.794754e+000
1.128060e+003,9.482376e+000
1.129025e+003,1.319067e+001
1.129989e+003,1.546683e+001
1.130953e+003,1.556235e+001
1.131917e+003,1.521265e+001
1.132882e+003,1.409309e+001
1.133846e+003,1.361366e+001
1.134810e+003,1.518523e+001
1.135774e+003,1.808913e+001
1.136739e+003,2.054128e+001
1.137703e+003,2.152856e+001
1.138667e+003,2.179886e+001
1.139631e+003,2.267892e+001
1.140595e+003,2.406613e+001
1.141560e+003,2.505777e+001
1.142524e+003,2.541037e+001
1.143488e+003,2.651187e+001
1.144452e+003,2.918216e+001
1.145417e+003,3.329469e+001
1.146381e+003,3.855461e+001
1.147345e+003,4.536769e+001
1.148309e+003,5.208974e+001
1.149274e+003,5.874817e+001
1.150238e+003,6.493958e+001
1.151202e+003,6.984964e+001
1.152166e+003,7.442560e+001
1.153130e+003,8.067813e+001
1.154095e+003,8.923508e+001
1.155059e+003,9.763586e+001
1.156023e+003,1.026841e+002
1.156987e+003,1.044039e+002
1.157952e+003,1.046241e+002
1.158916e+003,1.036865e+002
1.159880e+003,1.010936e+002
1.160844e+003,9.558809e+001
1.161809e+003,8.804022e+001
1.162773e+003,8.073987e+001
1.163737e+003,7.368896e+001
1.164701e+003,6.700577e+001
1.165666e+003,6.108765e+001
1.166630e+003,5.537170e+001
1.167594e+003,4.914914e+001
1.168558e+003,4.318234e+001
1.169522e+003,3.838512e+001
1.170487e+003,3.510689e+001
1.171451e+003,3.339876e+001
1.172415e+003,3.349016e+001
1.173379e+003,3.490840e+001
1.174344e+003,3.528705e+001
1.175308e+003,3.465839e+001
1.176272e+003,3.400351e+001
1.177236e+003,3.418573e+001
1.178201e+003,3.417035e+001
1.179165e+003,3.204639e+001
1.180129e+003,2.767017e+001
1.181093e+003,2.449342e+001
1.182057e+003,2.379094e+001
1.183022e+003,2.375246e+001
1.183986e+003,2.422133e+001
1.184950e+003,2.459294e+001
1.185914e+003,2.412396e+001
1.186879e+003,2.297333e+001
1.187843e+003,2.198877e+001
1.188807e+003,2.181357e+001
1.189771e+003,2.227246e+001
1.190736e+003,2.307990e+001
1.191700e+003,2.425333e+001
1.192664e+003,2.551877e+001
1.193628e+003,2.765379e+001
1.194593e+003,2.900929e+001
1.195557e+003,2.779298e+001
1.196521e+003,2.476497e+001
1.197485e+003,2.276912e+001
1.198449e+003,2.256476e+001
1.199414e+003,2.240619e+001
1.200378e+003,2.177646e+001
1.201342e+003,2.071249e+001
1.202306e+003,1.850629e+001
1.203271e+003,1.591119e+001
1.204235e+003,1.468585e+001
1.205199e+003,1.557098e+001
1.206163e+003,1.705739e+001
1.207128e+003,1.650612e+001
1.208092e+003,1.378294e+001
1.209056e+003,1.225568e+001
1.210020e+003,1.281726e+001
1.210984e+003,1.262961e+001
1.211949e+003,1.038081e+001
1.212913e+003,7.202209e+000
1.213877e+003,4.543762e+000
1.214841e+003,2.539795e+000
1.215806e+003,6.423035e-001
1.216770e+003,-1.330902e+000
1.217734e+003,-3.371201e+000
1.218698e+003,-6.025879e+000
1.219663e+003,-8.540588e+000
1.220627e+003,-9.803146e+000
1.221591e+003,-9.757172e+000
1.222555e+003,-9.287262e+000
1.223520e+003,-9.180054e+000
1.224484e+003,-9.308792e+000
1.225448e+003,-9.297913e+000
1.226412e+003,-9.016693e+000
1.227376e+003,-8.974792e+000
1.228341e+003,-9.398834e+000
1.229305e+003,-9.883804e+000
1.230269e+003,-1.028265e+001
1.231233e+003,-1.058073e+001
1.232198e+003,-1.077045e+001
1.233162e+003,-1.080536e+001
1.234126e+003,-1.045758e+001
1.235090e+003,-9.236069e+000
1.236055e+003,-8.040955e+000
1.237019e+003,-8.292542e+000
1.237983e+003,-9.348251e+000
1.238947e+003,-8.981247e+000
1.239911e+003,-6.240860e+000
1.240876e+003,-3.431671e+000
1.241840e+003,-4.386978e+000
1.242804e+003,-9.439560e+000
1.243768e+003,-1.196141e+001
1.244733e+003,-8.907806e+000
1.245697e+003,-7.266922e+000
1.246661e+003,-9.261230e+000
1.247625e+003,-1.152492e+001
1.248590e+003,-1.103952e+001
1.249554e+003,-8.404678e+000
1.250518e+003,-6.486435e+000
1.251482e+003,-6.693863e+000
1.252447e+003,-7.381226e+000
1.253411e+003,-6.279404e+000
1.254375e+003,-4.210983e+000
1.255339e+003,-3.006271e+000
1.256303e+003,-2.686401e+000
1.257268e+003,-2.766663e+000
1.258232e+003,-3.282089e+000
1.259196e+003,-3.906250e+000
1.260160e+003,-3.536560e+000
1.261125e+003,-1.739120e+000
1.262089e+003,-9.782104e-001
1.263053e+003,-2.745163e+000
1.264017e+003,-4.296402e+000
1.264982e+003,-5.279816e+000
1.265946e+003,-5.471329e+000
1.266910e+003,-4.087357e+000
1.267874e+003,-1.692902e+000
1.268839e+003,-1.417389e-001
1.269803e+003,-6.731110e-001
1.270767e+003,-2.221619e+000
1.271731e+003,-2.688965e+000
1.272695e+003,-2.063110e+000
1.273660e+003,-2.054001e+000
1.274624e+003,-3.168137e+000
1.275588e+003,-4.169556e+000
1.276552e+003,-4.276779e+000
1.277517e+003,-3.683304e+000
1.278481e+003,-2.566010e+000
1.279445e+003,-8.583374e-001
1.280409e+003,-3.463287e-001
1.281374e+003,-2.874252e+000
1.282338e+003,-4.970245e+000
1.283302e+003,-3.922272e+000
1.284266e+003,-2.087631e+000
1.285230e+003,-2.573441e+000
1.286195e+003,-5.425262e+000
1.287159e+003,-8.091156e+000
1.288123e+003,-8.419708e+000
1.289087e+003,-6.991592e+000
1.290052e+003,-5.729462e+000
1.291016e+003,-4.371140e+000
1.291980e+003,-4.730042e+000
1.292944e+003,-8.791855e+000
1.293909e+003,-1.206296e+001
1.294873e+003,-1.216946e+001
1.295837e+003,-1.067876e+001
1.296801e+003,-9.840637e+000
1.297766e+003,-9.925491e+000
1.298730e+003,-9.575455e+000
1.299694e+003,-7.661011e+000
1.300658e+003,-6.041290e+000
1.301622e+003,-8.003555e+000
1.302587e+003,-1.104155e+001
1.303551e+003,-1.034213e+001
1.304515e+003,-5.427734e+000
1.305479e+003,-1.136780e+000
1.306444e+003,-1.632431e+000
1.307408e+003,-5.440903e+000
1.308372e+003,-7.413010e+000
1.309336e+003,-7.004486e+000
1.310301e+003,-6.421616e+000
1.311265e+003,-5.026657e+000
1.312229e+003,-4.271088e+000
1.313193e+003,-5.188416e+000
1.314157e+003,-6.612061e+000
1.315122e+003,-7.200806e+000
1.316086e+003,-6.964142e+000
1.317050e+003,-6.983765e+000
1.318014e+003,-7.940735e+000
1.318979e+003,-9.250519e+000
1.319943e+003,-1.007274e+001
1.320907e+003,-1.032025e+001
1.321871e+003,-9.860153e+000
1.322836e+003,-8.596375e+000
1.323800e+003,-7.496216e+000
1.324764e+003,-7.198273e+000
1.325728e+003,-7.270630e+000
1.326693e+003,-7.019394e+000
1.327657e+003,-6.483276e+000
1.328621e+003,-6.065414e+000
1.329585e+003,-5.872467e+000
1.330549e+003,-5.122955e+000
1.331514e+003,-2.872833e+000
1.332478e+003,-8.485260e-001
1.333442e+003,-9.376831e-001
1.334406e+003,-2.751740e+000
1.335371e+003,-4.604477e+000
1.336335e+003,-5.447601e+000
1.337299e+003,-5.433655e+000
1.338263e+003,-4.793243e+000
1.339228e+003,-3.328812e+000
1.340192e+003,-3.084656e+000
1.341156e+003,-5.448547e+000
1.342120e+003,-6.921188e+000
1.343084e+003,-6.540405e+000
1.344049e+003,-5.721085e+000
1.345013e+003,-5.238739e+000
1.345977e+003,-5.194199e+000
1.346941e+003,-5.974075e+000
1.347906e+003,-7.820618e+000
1.348870e+003,-9.029877e+000
1.349834e+003,-7.492157e+000
1.350798e+003,-4.783249e+000
1.351763e+003,-3.886673e+000
1.352727e+003,-4.529953e+000
1.353691e+003,-5.208069e+000
1.354655e+003,-5.388412e+000
1.355620e+003,-5.337173e+000
1.356584e+003,-5.238892e+000
1.357548e+003,-5.094070e+000
1.358512e+003,-5.342590e+000
1.359476e+003,-6.449799e+000
1.360441e+003,-7.172867e+000
1.361405e+003,-6.823044e+000
1.362369e+003,-6.309799e+000
1.363333e+003,-6.157776e+000
1.364298e+003,-6.070419e+000
1.365262e+003,-5.341537e+000
1.366226e+003,-4.006393e+000
1.367190e+003,-3.224030e+000
1.368155e+003,-4.073120e+000
1.369119e+003,-5.604218e+000
1.370083e+003,-4.590302e+000
1.371047e+003,3.222656e-001
1.372011e+003,1.982773e+000
1.372976e+003,-2.817627e+000
1.373940e+003,-6.731659e+000
1.374904e+003,-6.080353e+000
1.375868e+003,-3.615448e+000
1.376833e+003,-3.054733e+000
1.377797e+003,-4.475723e+000
1.378761e+003,-5.037079e+000
1.379725e+003,-3.130127e+000
1.380690e+003,-1.260941e+000
1.381654e+003,-2.735931e+000
1.382618e+003,-5.459381e+000
1.383582e+003,-6.630768e+000
1.384547e+003,-6.178131e+000
1.385511e+003,-5.084045e+000
1.386475e+003,-3.648727e+000
1.387439e+003,-2.640350e+000
1.388403e+003,-3.644760e+000
1.389368e+003,-6.663284e+000
1.390332e+003,-8.287628e+000
1.391296e+003,-7.823822e+000
1.392260e+003,-6.980774e+000
1.393225e+003,-5.867523e+000
1.394189e+003,-4.884827e+000
1.395153e+003,-4.460983e+000
1.396117e+003,-4.226898e+000
1.397082e+003,-3.234344e+000
1.398046e+003,-1.505676e+000
1.399010e+003,-6.168365e-001
1.399974e+003,-2.140778e+000
1.400938e+003,-5.217377e+000
1.401903e+003,-6.770523e+000
1.402867e+003,-6.213867e+000
1.403831e+003,-4.912430e+000
1.404795e+003,-2.142105e+000
1.405760e+003,8.489990e-002
1.406724e+003,8.246155e-001
1.407688e+003,4.450531e-001
1.408652e+003,-7.780762e-001
1.409617e+003,-2.420746e+000
1.410581e+003,-3.472504e+000
1.411545e+003,-3.546860e+000
1.412509e+003,-2.900192e+000
1.413474e+003,-1.357590e+000
1.414438e+003,2.903137e-001
1.415402e+003,8.863373e-001
1.416366e+003,6.405029e-001
1.417330e+003,4.225922e-001
1.418295e+003,6.392059e-001
1.419259e+003,7.410126e-001
1.420223e+003,-4.869690e-001
1.421187e+003,-2.677460e+000
1.422152e+003,-2.735001e+000
1.423116e+003,4.180450e-001
1.424080e+003,2.792603e+000
1.425044e+003,2.629166e+000
1.426009e+003,1.926666e+000
1.426973e+003,1.150116e+000
1.427937e+003,4.758148e-001
1.428901e+003,1.932373e-001
1.429865e+003,2.697449e-001
1.430830e+003,2.456665e-001
1.431794e+003,-2.242432e-001
1.432758e+003,-7.164764e-001
1.433722e+003,-1.740112e-001
1.434687e+003,1.720276e+000
1.435651e+003,2.823441e+000
1.436615e+003,1.968826e+000
1.437579e+003,1.262314e+000
1.438544e+003,1.133514e+000
1.439508e+003,1.057297e+000
1.440472e+003,4.912415e-001
1.441436e+003,-6.774902e-002
1.442401e+003,3.823395e-001
1.443365e+003,1.956970e+000
1.444329e+003,3.642960e+000
1.445293e+003,4.798431e+000
1.446257e+003,5.493958e+000
1.447222e+003,5.625458e+000
1.448186e+003,5.284027e+000
1.449150e+003,5.092407e+000
1.450114e+003,5.172256e+000
1.451079e+003,4.951126e+000
1.452043e+003,3.716217e+000
1.453007e+003,2.473083e+000
1.453971e+003,3.044479e+000
1.454936e+003,5.009506e+000
1.455900e+003,5.164490e+000
1.456864e+003,2.208755e+000
1.457828e+003,-1.131592e-001
1.458792e+003,9.527893e-001
1.459757e+003,2.875702e+000
1.460721e+003,3.875565e+000
1.461685e+003,4.066422e+000
1.462649e+003,3.837875e+000
1.463614e+003,3.386581e+000
1.464578e+003,2.880463e+000
1.465542e+003,2.353897e+000
1.466506e+003,1.935791e+000
1.467471e+003,2.192947e+000
1.468435e+003,3.369156e+000
1.469399e+003,4.722702e+000
1.470363e+003,6.825562e+000
1.471328e+003,7.879852e+000
1.472292e+003,6.847672e+000
1.473256e+003,5.058914e+000
1.474220e+003,3.157623e+000
1.475184e+003,1.632614e+000
1.476149e+003,9.127045e-001
1.477113e+003,1.051163e+000
1.478077e+003,1.882965e+000
1.479041e+003,3.388641e+000
1.480006e+003,5.241592e+000
1.480970e+003,6.064194e+000
1.481934e+003,5.521088e+000
1.482898e+003,4.724075e+000
1.483863e+003,2.724976e+000
1.484827e+003,1.773834e+000
1.485791e+003,3.273254e+000
1.486755e+003,5.565018e+000
1.487719e+003,7.225876e+000
1.488684e+003,8.215775e+000
1.489648e+003,8.981491e+000
1.490612e+003,9.737396e+000
1.491576e+003,1.051158e+001
1.492541e+003,1.119949e+001
1.493505e+003,1.198944e+001
1.494469e+003,1.371506e+001
1.495433e+003,1.598222e+001
1.496398e+003,1.674806e+001
1.497362e+003,1.527216e+001
1.498326e+003,1.455646e+001
1.499290e+003,1.649271e+001
1.500255e+003,1.977863e+001
1.501219e+003,2.270497e+001
1.502183e+003,2.529768e+001
1.503147e+003,2.839151e+001
1.504111e+003,3.236182e+001
1.505076e+003,3.573837e+001
1.506040e+003,3.656992e+001
1.507004e+003,3.770270e+001
1.507968e+003,4.247070e+001
1.508933e+003,4.942947e+001
1.509897e+003,5.560907e+001
1.510861e+003,6.063264e+001
1.511825e+003,6.581590e+001
1.512790e+003,7.172960e+001
1.513754e+003,7.855806e+001
1.514718e+003,8.728072e+001
1.515682e+003,9.776193e+001
1.516646e+003,1.069736e+002
1.517611e+003,1.140925e+002
1.518575e+003,1.217224e+002
1.519539e+003,1.326492e+002
1.520503e+003,1.424836e+002
1.521468e+003,1.496142e+002
1.522432e+003,1.537273e+002
1.523396e+003,1.535491e+002
1.524360e+003,1.499451e+002
1.525325e+003,1.468851e+002
1.526289e+003,1.470394e+002
1.527253e+003,1.474547e+002
1.528217e+003,1.424617e+002
1.529182e+003,1.320780e+002
1.530146e+003,1.233990e+002
1.531110e+003,1.183843e+002
1.532074e+003,1.111112e+002
1.533039e+003,9.937909e+001
1.534003e+003,8.709967e+001
1.534967e+003,7.578185e+001
1.535931e+003,6.548228e+001
1.536896e+003,5.589305e+001
1.537860e+003,4.715578e+001
1.538824e+003,3.974403e+001
1.539788e+003,3.380984e+001
1.540752e+003,2.890659e+001
1.541717e+003,2.453714e+001
1.542681e+003,2.076170e+001
1.543645e+003,1.740196e+001
1.544609e+003,1.408728e+001
1.545573e+003,1.271016e+001
1.546538e+003,1.468507e+001
1.547502e+003,1.631569e+001
1.548466e+003,1.628375e+001
1.549430e+003,1.558534e+001
1.550395e+003,1.494952e+001
1.551359e+003,1.447754e+001
1.552323e+003,1.444116e+001
1.553287e+003,1.486436e+001
1.554252e+003,1.456436e+001
1.555216e+003,1.231636e+001
1.556180e+003,9.091095e+000
1.557144e+003,7.031830e+000
1.558109e+003,6.255356e+000
1.559073e+003,6.561890e+000
1.560037e+003,8.571655e+000
1.561001e+003,9.931702e+000
1.561966e+003,9.630539e+000
1.562930e+003,8.930908e+000
1.563894e+003,8.971603e+000
1.564858e+003,9.398865e+000
1.565823e+003,9.263077e+000
1.566787e+003,8.391281e+000
1.567751e+003,7.324509e+000
1.568715e+003,6.196777e+000
1.569679e+003,5.709518e+000
1.570644e+003,7.499466e+000
1.571608e+003,1.025769e+001
1.572572e+003,1.007779e+001
1.573536e+003,6.852707e+000
1.574500e+003,4.447372e+000
1.575465e+003,4.006454e+000
1.576429e+003,4.824020e+000
1.577393e+003,7.273727e+000
1.578357e+003,1.011969e+001
1.579322e+003,1.046786e+001
1.580286e+003,8.443832e+000
1.581250e+003,7.992416e+000
1.582214e+003,1.085089e+001
1.583179e+003,1.342284e+001
1.584143e+003,1.259320e+001
1.585107e+003,1.031871e+001
1.586071e+003,9.136002e+000
1.587036e+003,9.048248e+000
1.588000e+003,9.882904e+000
1.588964e+003,1.159799e+001
1.589928e+003,1.289610e+001
1.590893e+003,1.284499e+001
1.591857e+003,1.201282e+001
1.592821e+003,1.109853e+001
1.593785e+003,1.016026e+001
1.594750e+003,9.168381e+000
1.595714e+003,7.848694e+000
1.596678e+003,8.049774e+000
1.597642e+003,1.199045e+001
1.598606e+003,1.550354e+001
1.599571e+003,1.388661e+001
1.600535e+003,1.079237e+001
1.601499e+003,1.141301e+001
1.602463e+003,1.535669e+001
1.603427e+003,1.855132e+001
1.604392e+003,1.936459e+001
1.605356e+003,1.903987e+001
1.606320e+003,1.868829e+001
1.607284e+003,1.824400e+001
1.608249e+003,1.735670e+001
1.609213e+003,1.600357e+001
1.610177e+003,1.516438e+001
1.611141e+003,1.538892e+001
1.612106e+003,1.516855e+001
1.613070e+003,1.266357e+001
1.614034e+003,1.046313e+001
1.614998e+003,1.106017e+001
1.615963e+003,1.303371e+001
1.616927e+003,1.372740e+001
1.617891e+003,1.284158e+001
1.618855e+003,1.225671e+001
1.619820e+003,1.322578e+001
1.620784e+003,1.393484e+001
1.621748e+003,1.096404e+001
1.622712e+003,5.486404e+000
1.623677e+003,4.444717e+000
1.624641e+003,8.777100e+000
1.625605e+003,1.236739e+001
1.626569e+003,1.343495e+001
1.627533e+003,1.379474e+001
1.628498e+003,1.477397e+001
1.629462e+003,1.537393e+001
1.630426e+003,1.416685e+001
1.631390e+003,1.197972e+001
1.632354e+003,1.059435e+001
1.633319e+003,1.046967e+001
1.634283e+003,1.122528e+001
1.635247e+003,1.274301e+001
1.636211e+003,1.439455e+001
1.637176e+003,1.530548e+001
1.638140e+003,1.550063e+001
1.639104e+003,1.413084e+001
1.640068e+003,1.020088e+001
1.641033e+003,8.297089e+000
1.641997e+003,1.117261e+001
1.642961e+003,1.411803e+001
1.643925e+003,1.448001e+001
1.644890e+003,1.401779e+001
1.645854e+003,1.462607e+001
1.646818e+003,1.587163e+001
1.647782e+003,1.620618e+001
1.648747e+003,1.516974e+001
1.649711e+003,1.360582e+001
1.650675e+003,1.204279e+001
1.651639e+003,1.099150e+001
1.652604e+003,1.168391e+001
1.653568e+003,1.397462e+001
1.654532e+003,1.548703e+001
1.655496e+003,1.594215e+001
1.656460e+003,1.621732e+001
1.657425e+003,1.704489e+001
1.658389e+003,1.714357e+001
1.659353e+003,1.499081e+001
1.660317e+003,1.242603e+001
1.661281e+003,1.157887e+001
1.662246e+003,1.204961e+001
1.663210e+003,1.219801e+001
1.664174e+003,1.152449e+001
1.665138e+003,1.068309e+001
1.666103e+003,9.962692e+000
1.667067e+003,9.698639e+000
1.668031e+003,1.132321e+001
1.668995e+003,1.458873e+001
1.669960e+003,1.514384e+001
1.670924e+003,1.196416e+001
1.671888e+003,9.235840e+000
1.672852e+003,8.117538e+000
1.673817e+003,7.810898e+000
1.674781e+003,8.018967e+000
1.675745e+003,8.527359e+000
1.676709e+003,9.407974e+000
1.677674e+003,1.035513e+001
1.678638e+003,1.063103e+001
1.679602e+003,1.000366e+001
1.680566e+003,8.417328e+000
1.681531e+003,5.084167e+000
1.682495e+003,1.913177e+000
1.683459e+003,2.566849e+000
1.684423e+003,6.345840e+000
1.685387e+003,9.417099e+000
1.686352e+003,1.158505e+001
1.687316e+003,1.209935e+001
1.688280e+003,9.915039e+000
1.689244e+003,7.537140e+000
1.690208e+003,6.825851e+000
1.691173e+003,6.844589e+000
1.692137e+003,6.783691e+000
1.693101e+003,6.700684e+000
1.694065e+003,6.725510e+000
1.695030e+003,6.802429e+000
1.695994e+003,6.590622e+000
1.696958e+003,5.691254e+000
1.697922e+003,4.752518e+000
1.698887e+003,4.503723e+000
1.699851e+003,4.911880e+000
1.700815e+003,6.199799e+000
1.701779e+003,8.265717e+000
1.702744e+003,8.737656e+000
1.703708e+003,6.563950e+000
1.704672e+003,4.454132e+000
1.705636e+003,4.485794e+000
1.706601e+003,5.232407e+000
1.707565e+003,4.281326e+000
1.708529e+003,2.491074e+000
1.709493e+003,2.753860e+000
1.710458e+003,5.680222e+000
1.711422e+003,7.788254e+000
1.712386e+003,7.149551e+000
1.713350e+003,5.982010e+000
1.714314e+003,6.383179e+000
1.715279e+003,7.028397e+000
1.716243e+003,5.063995e+000
1.717207e+003,1.152344e+000
1.718171e+003,-5.839233e-001
1.719135e+003,1.012772e+000
1.720100e+003,3.006638e+000
1.721064e+003,3.430695e+000
1.722028e+003,3.231720e+000
1.722992e+003,4.067184e+000
1.723957e+003,5.659500e+000
1.724921e+003,5.522263e+000
1.725885e+003,3.044647e+000
1.726849e+003,1.612961e+000
1.727814e+003,3.184586e+000
1.728778e+003,4.352188e+000
1.729742e+003,2.541946e+000
1.730706e+003,5.981293e-001
1.731671e+003,1.846344e+000
1.732635e+003,4.755173e+000
1.733599e+003,6.165024e+000
1.734563e+003,5.596603e+000
1.735528e+003,4.005905e+000
1.736492e+003,1.855789e+000
1.737456e+003,-2.351837e-001
1.738420e+003,-1.585709e+000
1.739385e+003,-2.240082e+000
1.740349e+003,-1.983521e+000
1.741313e+003,-5.165863e-001
1.742277e+003,7.494049e-001
1.743241e+003,2.401413e+000
1.744206e+003,3.146042e+000
1.745170e+003,2.137070e+000
1.746134e+003,8.509064e-001
1.747098e+003,-2.341614e-001
1.748063e+003,-9.291534e-001
1.749027e+003,-9.707031e-001
1.749991e+003,-4.870453e-001
1.750955e+003,1.548157e-001
1.751919e+003,7.913818e-001
1.752884e+003,1.603333e+000
1.753848e+003,2.759781e+000
1.754812e+003,3.638458e+000
1.755776e+003,2.904800e+000
1.756741e+003,7.280273e-001
1.757705e+003,-3.590240e-001
1.758669e+003,2.825928e-002
1.759633e+003,1.051025e-001
1.760598e+003,-1.043671e+000
1.761562e+003,-1.589386e+000
1.762526e+003,-5.337677e-001
1.763490e+003,1.009644e+000
1.764455e+003,2.839523e+000
1.765419e+003,4.364960e+000
1.766383e+003,4.498489e+000
1.767347e+003,3.341446e+000
1.768312e+003,2.215347e+000
1.769276e+003,1.710678e+000
1.770240e+003,1.318665e+000
1.771204e+003,6.412964e-001
1.772168e+003,-1.044312e-001
1.773133e+003,-8.380890e-001
1.774097e+003,-1.490768e+000
1.775061e+003,-1.045242e+000
1.776025e+003,7.384644e-001
1.776990e+003,1.714539e+000
1.777954e+003,1.150070e+000
1.778918e+003,2.665710e-002
1.779882e+003,-1.441208e+000
1.780846e+003,-2.890747e+000
1.781811e+003,-3.880035e+000
1.782775e+003,-4.326645e+000
1.783739e+003,-3.977921e+000
1.784703e+003,-2.725357e+000
1.785668e+003,-1.077255e+000
1.786632e+003,1.704102e+000
1.787596e+003,3.286270e+000
1.788560e+003,1.035477e+000
1.789525e+003,-2.500687e+000
1.790489e+003,-4.028214e+000
1.791453e+003,-3.805054e+000
1.792417e+003,-3.069611e+000
1.793382e+003,-2.200104e+000
1.794346e+003,-1.657074e+000
1.795310e+003,-1.695511e+000
1.796274e+003,-2.292847e+000
1.797239e+003,-3.552246e+000
1.798203e+003,-4.831314e+000
1.799167e+003,-4.304153e+000
1.800131e+003,-1.715439e+000
1.801095e+003,-5.434570e-001
1.802060e+003,-1.799408e+000
1.803024e+003,-2.306335e+000
1.803988e+003,-1.851563e+000
1.804952e+003,-6.317749e-001
1.805917e+003,2.537308e+000
1.806881e+003,5.337875e+000
1.807845e+003,5.055161e+000
1.808809e+003,2.807648e+000
1.809773e+003,1.093079e+000
1.810738e+003,5.625153e-001
1.811702e+003,3.386688e-001
1.812666e+003,-1.287384e-001
1.813630e+003,-1.594086e-001
1.814595e+003,1.415344e+000
1.815559e+003,3.835342e+000
1.816523e+003,3.895691e+000
1.817487e+003,1.397034e+000
1.818452e+003,-1.107910e+000
1.819416e+003,-4.088196e+000
1.820380e+003,-4.954559e+000
1.821344e+003,-1.496124e+000
1.822309e+003,1.870773e+000
1.823273e+003,2.566681e+000
1.824237e+003,2.073792e+000
1.825201e+003,1.580078e+000
1.826166e+003,1.094879e+000
1.827130e+003,4.638367e-001
1.828094e+003,-3.761139e-001
1.829058e+003,-1.385895e+000
1.830022e+003,-2.820480e+000
1.830987e+003,-3.645096e+000
1.831951e+003,-2.288315e+000
1.832915e+003,-3.165283e-001
1.833879e+003,-3.274841e-001
1.834844e+003,-1.684860e+000
1.835808e+003,-2.056030e+000
1.836772e+003,-1.154266e+000
1.837736e+003,-5.079346e-001
1.838700e+003,-8.544464e-001
1.839665e+003,-9.488983e-001
1.840629e+003,5.519104e-001
1.841593e+003,2.657745e+000
1.842557e+003,3.122711e+000
1.843522e+003,1.967560e+000
1.844486e+003,1.240311e+000
1.845450e+003,1.145767e+000
1.846414e+003,1.380768e+000
1.847379e+003,2.419342e+000
1.848343e+003,2.776489e+000
1.849307e+003,1.689926e+000
1.850271e+003,2.442169e-001
1.851236e+003,-1.309692e+000
1.852200e+003,-2.292969e+000
1.853164e+003,-1.523102e+000
1.854128e+003,3.573914e-001
1.855093e+003,1.315903e+000
1.856057e+003,7.409515e-001
1.857021e+003,-1.143646e-001
1.857985e+003,-3.205719e-001
1.858949e+003,-8.987427e-003
1.859914e+003,9.870758e-001
1.860878e+003,2.415726e+000
1.861842e+003,2.344864e+000
1.862806e+003,6.733704e-001
1.863771e+003,3.341675e-001
1.864735e+003,2.188858e+000
1.865699e+003,3.407013e+000
1.866663e+003,2.714645e+000
1.867627e+003,1.261200e+000
1.868592e+003,-7.125702e-001
1.869556e+003,-2.484970e+000
1.870520e+003,-1.984116e+000
1.871484e+003,2.973022e-001
1.872449e+003,8.616486e-001
1.873413e+003,-1.097885e+000
1.874377e+003,-1.757568e+000
1.875341e+003,1.134705e+000
1.876306e+003,3.563843e+000
1.877270e+003,2.923187e+000
1.878234e+003,1.164261e+000
1.879198e+003,-2.088623e-001
1.880163e+003,-8.675690e-001
1.881127e+003,-3.470306e-001
1.882091e+003,1.119843e+000
1.883055e+003,2.670837e+000
1.884020e+003,3.865723e+000
1.884984e+003,4.583603e+000
1.885948e+003,4.738251e+000
1.886912e+003,4.152191e+000
1.887876e+003,2.207230e+000
1.888841e+003,-8.510132e-001
1.889805e+003,-1.875137e+000
1.890769e+003,-4.642181e-001
1.891733e+003,8.649292e-001
1.892698e+003,1.921280e+000
1.893662e+003,2.571732e+000
1.894626e+003,2.537445e+000
1.895590e+003,2.453598e+000
1.896554e+003,2.735703e+000
1.897519e+003,3.326065e+000
1.898483e+003,4.444427e+000
1.899447e+003,5.640320e+000
1.900411e+003,5.536301e+000
1.901376e+003,3.852722e+000
1.902340e+003,2.586792e+000
1.903304e+003,2.429367e+000
1.904268e+003,2.912643e+000
1.905233e+003,4.384933e+000
1.906197e+003,5.842560e+000
1.907161e+003,6.123001e+000
1.908125e+003,5.733917e+000
1.909090e+003,5.185059e+000
1.910054e+003,4.853897e+000
1.911018e+003,6.073853e+000
1.911982e+003,9.025833e+000
1.912947e+003,1.137587e+001
1.913911e+003,1.138907e+001
1.914875e+003,9.781860e+000
1.915839e+003,7.410324e+000
1.916803e+003,4.642807e+000
1.917768e+003,4.085220e+000
1.918732e+003,6.363083e+000
1.919696e+003,7.106339e+000
1.920660e+003,5.616425e+000
1.921625e+003,4.560760e+000
1.922589e+003,4.284286e+000
1.923553e+003,4.752411e+000
1.924517e+003,7.436829e+000
1.925481e+003,9.557693e+000
1.926446e+003,7.616364e+000
1.927410e+003,3.753235e+000
1.928374e+003,2.263107e+000
1.929338e+003,3.268295e+000
1.930303e+003,4.252319e+000
1.931267e+003,4.757553e+000
1.932231e+003,5.196793e+000
1.933195e+003,5.511871e+000
1.934160e+003,5.885056e+000
1.935124e+003,6.797379e+000
1.936088e+003,7.504059e+000
1.937052e+003,7.016922e+000
1.938017e+003,5.786621e+000
1.938981e+003,4.569000e+000
1.939945e+003,3.683762e+000
1.940909e+003,3.541779e+000
1.941874e+003,4.267624e+000
1.942838e+003,5.449020e+000
1.943802e+003,6.826431e+000
1.944766e+003,8.318024e+000
1.945730e+003,9.717010e+000
1.946695e+003,1.082664e+001
1.947659e+003,1.038289e+001
1.948623e+003,8.182419e+000
1.949587e+003,6.307144e+000
1.950552e+003,4.847015e+000
1.951516e+003,4.593079e+000
1.952480e+003,6.473969e+000
1.953444e+003,8.149796e+000
1.954408e+003,7.457596e+000
1.955373e+003,6.071167e+000
1.956337e+003,6.996979e+000
1.957301e+003,9.394592e+000
1.958265e+003,9.583069e+000
1.959230e+003,7.123077e+000
1.960194e+003,5.702087e+000
1.961158e+003,6.420074e+000
1.962122e+003,6.951187e+000
1.963087e+003,6.025131e+000
1.964051e+003,5.644470e+000
1.965015e+003,8.045547e+000
1.965979e+003,1.077974e+001
1.966944e+003,1.098961e+001
1.967908e+003,9.563538e+000
1.968872e+003,8.599487e+000
1.969836e+003,8.439255e+000
1.970801e+003,8.217316e+000
1.971765e+003,7.583527e+000
1.972729e+003,7.082550e+000
1.973693e+003,7.179916e+000
1.974657e+003,7.600052e+000
1.975622e+003,7.705139e+000
1.976586e+003,7.816513e+000
1.977550e+003,9.528336e+000
1.978514e+003,1.234193e+001
1.979479e+003,1.274356e+001
1.980443e+003,1.037675e+001
1.981407e+003,9.032150e+000
1.982371e+003,1.022568e+001
1.983335e+003,1.118845e+001
1.984300e+003,9.636673e+000
1.985264e+003,7.402466e+000
1.986228e+003,7.484818e+000
1.987192e+003,9.304825e+000
1.988157e+003,9.818710e+000
1.989121e+003,8.702240e+000
1.990085e+003,8.178757e+000
1.991049e+003,8.725433e+000
1.992014e+003,9.018280e+000
1.992978e+003,8.456650e+000
1.993942e+003,8.115509e+000
1.994906e+003,7.963989e+000
1.995871e+003,8.562546e+000
1.996835e+003,1.134792e+001
1.997799e+003,1.460175e+001
1.998763e+003,1.555739e+001
1.999728e+003,1.448141e+001
