5.003444e+002,4.658734e+001
5.013087e+002,4.719839e+001
5.022729e+002,4.707971e+001
5.032371e+002,4.648132e+001
5.042014e+002,4.573041e+001
5.051656e+002,4.488071e+001
5.061298e+002,4.384662e+001
5.070941e+002,4.241418e+001
5.080583e+002,4.021240e+001
5.090225e+002,3.929233e+001
5.099868e+002,4.028381e+001
5.109510e+002,4.142920e+001
5.119152e+002,4.198962e+001
5.128795e+002,4.193692e+001
5.138437e+002,4.136810e+001
5.148079e+002,3.917136e+001
5.157722e+002,3.759729e+001
5.167364e+002,3.819348e+001
5.177006e+002,4.064658e+001
5.186649e+002,4.283722e+001
5.196291e+002,4.204321e+001
5.205933e+002,3.994159e+001
5.215576e+002,3.782062e+001
5.225218e+002,3.582599e+001
5.234860e+002,3.399179e+001
5.244503e+002,3.254626e+001
5.254145e+002,3.181021e+001
5.263787e+002,3.192831e+001
5.273430e+002,3.369504e+001
5.283072e+002,3.578720e+001
5.292714e+002,3.620337e+001
5.302357e+002,3.372675e+001
5.311999e+002,3.143332e+001
5.321641e+002,2.957047e+001
5.331284e+002,2.847968e+001
5.340926e+002,2.850995e+001
5.350568e+002,2.975287e+001
5.360211e+002,3.116983e+001
5.369853e+002,3.270798e+001
5.379495e+002,3.384314e+001
5.389138e+002,3.382742e+001
5.398780e+002,3.242221e+001
5.408422e+002,3.005371e+001
5.418065e+002,2.756738e+001
5.427707e+002,2.507672e+001
5.437349e+002,2.382608e+001
5.446992e+002,2.444046e+001
5.456634e+002,2.629617e+001
5.466276e+002,2.726724e+001
5.475919e+002,2.683908e+001
5.485561e+002,2.610962e+001
5.495203e+002,2.484781e+001
5.504846e+002,2.325562e+001
5.514488e+002,2.156876e+001
5.524130e+002,1.967874e+001
5.533773e+002,1.851886e+001
5.543415e+002,1.833896e+001
5.553057e+002,1.898328e+001
5.562700e+002,2.062271e+001
5.572342e+002,2.331369e+001
5.581984e+002,2.608047e+001
5.591627e+002,2.673141e+001
5.601269e+002,2.596030e+001
5.610911e+002,2.444562e+001
5.620554e+002,2.238541e+001
5.630196e+002,1.988455e+001
5.639838e+002,1.859952e+001
5.649481e+002,1.993176e+001
5.659123e+002,2.046393e+001
5.668765e+002,1.952515e+001
5.678408e+002,1.763065e+001
5.688050e+002,1.589191e+001
5.697692e+002,1.399591e+001
5.707335e+002,1.258026e+001
5.716977e+002,1.239236e+001
5.726619e+002,1.272461e+001
5.736262e+002,1.247372e+001
5.745904e+002,1.073969e+001
5.755546e+002,9.021576e+000
5.765189e+002,9.780670e+000
5.774831e+002,1.187769e+001
5.784473e+002,1.367062e+001
5.794116e+002,1.411371e+001
5.803758e+002,1.341583e+001
5.813400e+002,1.251178e+001
5.823043e+002,1.095395e+001
5.832685e+002,9.648682e+000
5.842327e+002,9.185150e+000
5.851970e+002,9.557312e+000
5.861612e+002,9.967285e+000
5.871254e+002,1.016623e+001
5.880897e+002,1.030219e+001
5.890539e+002,1.041821e+001
5.900181e+002,1.038470e+001
5.909824e+002,1.008832e+001
5.919466e+002,9.581482e+000
5.929108e+002,8.617767e+000
5.938751e+002,6.118073e+000
5.948393e+002,3.275452e+000
5.958035e+002,2.231903e+000
5.967678e+002,4.534851e+000
5.977320e+002,9.598267e+000
5.986962e+002,1.253418e+001
5.996605e+002,1.343250e+001
6.006247e+002,1.302359e+001
6.015889e+002,1.079507e+001
6.025532e+002,7.003265e+000
6.035174e+002,5.057495e+000
6.044816e+002,6.835419e+000
6.054459e+002,8.715790e+000
6.064101e+002,1.074564e+001
6.073743e+002,1.243420e+001
6.083386e+002,1.289371e+001
6.093028e+002,1.101001e+001
6.102670e+002,9.236755e+000
6.112313e+002,9.928772e+000
6.121955e+002,1.167084e+001
6.131597e+002,1.246344e+001
6.141240e+002,1.095966e+001
6.150882e+002,7.923889e+000
6.160524e+002,6.924316e+000
6.170167e+002,7.677490e+000
6.179809e+002,8.341736e+000
6.189451e+002,7.837097e+000
6.199094e+002,6.325348e+000
6.208736e+002,5.717529e+000
6.218378e+002,7.688202e+000
6.228021e+002,9.040924e+000
6.237663e+002,9.097260e+000
6.247305e+002,8.533386e+000
6.256948e+002,8.601379e+000
6.266590e+002,1.028299e+001
6.276232e+002,1.090109e+001
6.285875e+002,7.970703e+000
6.295517e+002,4.119904e+000
6.305159e+002,2.387054e+000
6.314802e+002,4.259338e+000
6.324444e+002,7.784821e+000
6.334086e+002,7.075378e+000
6.343729e+002,3.740173e+000
6.353371e+002,1.888824e+000
6.363013e+002,3.173615e+000
6.372656e+002,6.502655e+000
6.382298e+002,8.118652e+000
6.391940e+002,6.643677e+000
6.401583e+002,4.821564e+000
6.411225e+002,2.342865e+000
6.420867e+002,7.144165e-002
6.430510e+002,-9.158020e-001
6.440152e+002,-5.090332e-002
6.449794e+002,5.007935e-001
6.459437e+002,-1.020264e+000
6.469079e+002,-2.812744e+000
6.478721e+002,-3.135681e+000
6.488364e+002,-1.517731e+000
6.498006e+002,6.495056e-001
6.507648e+002,4.531250e-001
6.517291e+002,-1.192108e+000
6.526933e+002,-1.961700e+000
6.536575e+002,-1.422089e+000
6.546218e+002,7.165527e-002
6.555860e+002,1.941254e+000
6.565502e+002,4.868317e+000
6.575145e+002,6.451874e+000
6.584787e+002,6.227966e+000
6.594429e+002,5.270935e+000
6.604072e+002,4.371368e+000
6.613714e+002,3.655884e+000
6.623356e+002,2.759064e+000
6.632999e+002,3.691101e-001
6.642641e+002,-1.513885e+000
6.652283e+002,-1.230042e+000
6.661926e+002,1.036133e+000
6.671568e+002,3.712524e+000
6.681210e+002,4.918030e+000
6.690853e+002,4.873779e+000
6.700495e+002,4.431488e+000
6.710137e+002,3.690887e+000
6.719780e+002,3.326050e+000
6.729422e+002,4.112457e+000
6.739064e+002,6.318481e+000
6.748707e+002,7.638885e+000
6.758349e+002,8.734619e+000
6.767991e+002,8.486237e+000
6.777634e+002,5.667633e+000
6.787276e+002,8.707275e-001
6.796918e+002,-2.587067e+000
6.806561e+002,-2.918823e+000
6.816203e+002,-2.476501e+000
6.825845e+002,-1.971710e+000
6.835488e+002,-1.373596e+000
6.845130e+002,-1.782837e-001
6.854772e+002,2.180023e+000
6.864415e+002,4.597351e+000
6.874057e+002,3.965332e+000
6.883699e+002,1.092163e+000
6.893342e+002,-1.700134e+000
6.902984e+002,-3.080444e+000
6.912626e+002,-3.179108e+000
6.922269e+002,-3.285980e+000
6.931911e+002,-3.806824e+000
6.941553e+002,-3.234650e+000
6.951196e+002,-5.792236e-001
6.960838e+002,2.664093e+000
6.970480e+002,4.216064e+000
6.980123e+002,3.285065e+000
6.989765e+002,1.567444e+000
6.999407e+002,-9.989929e-001
7.009050e+002,-3.362030e+000
7.018692e+002,-4.581879e+000
7.028334e+002,-4.420258e+000
7.037977e+002,-3.541748e+000
7.047619e+002,-2.487183e+000
7.057261e+002,-1.457245e+000
7.066904e+002,-1.544800e+000
7.076546e+002,-2.931671e+000
7.086188e+002,-4.197968e+000
7.095831e+002,-2.932526e+000
7.105473e+002,2.234558e+000
7.115115e+002,5.239929e+000
7.124758e+002,5.189117e+000
7.134400e+002,4.273926e+000
7.144042e+002,3.853302e+000
7.153685e+002,4.045380e+000
7.163327e+002,3.852997e+000
7.172969e+002,1.803894e+000
7.182612e+002,2.892151e-001
7.192254e+002,6.014404e-001
7.201896e+002,2.149933e+000
7.211539e+002,3.759308e+000
7.221181e+002,4.549835e+000
7.230823e+002,4.488037e+000
7.240466e+002,3.176819e+000
7.250108e+002,1.133636e+000
7.259750e+002,1.376343e-001
7.269393e+002,1.278839e+000
7.279035e+002,3.988281e+000
7.288677e+002,4.973846e+000
7.298320e+002,2.934265e+000
7.307962e+002,1.400635e+000
7.317604e+002,6.589355e-001
7.327247e+002,5.583496e-001
7.336889e+002,9.708862e-001
7.346531e+002,1.962097e+000
7.356174e+002,1.994598e+000
7.365816e+002,-3.092346e-001
7.375458e+002,-2.758362e+000
7.385101e+002,-3.482666e+000
7.394743e+002,-2.178955e+000
7.404385e+002,-2.501221e-001
7.414028e+002,-1.831055e-003
7.423670e+002,-1.292419e+000
7.433312e+002,-1.650635e+000
7.442955e+002,-6.087036e-001
7.452597e+002,1.147614e+000
7.462239e+002,2.864319e+000
7.471882e+002,4.616913e+000
7.481524e+002,5.510254e+000
7.491166e+002,5.063538e+000
7.500809e+002,4.005951e+000
7.510451e+002,2.042267e+000
7.520093e+002,-3.782349e-001
7.529736e+002,-1.820557e+000
7.539378e+002,-7.855530e-001
7.549020e+002,6.036682e-001
7.558663e+002,7.821350e-001
7.568306e+002,4.054565e-001
7.577948e+002,4.707947e-001
7.587590e+002,1.481049e+000
7.597233e+002,2.784058e+000
7.606875e+002,2.380005e+000
7.616517e+002,6.593018e-001
7.626160e+002,3.148193e-001
7.635802e+002,2.713226e+000
7.645444e+002,6.228577e+000
7.655087e+002,7.130768e+000
7.664729e+002,3.260345e+000
7.674371e+002,1.411438e+000
7.684014e+002,2.529236e+000
7.693656e+002,4.827332e+000
7.703298e+002,8.137604e+000
7.712941e+002,1.201846e+001
7.722583e+002,1.419949e+001
7.732225e+002,1.170880e+001
7.741868e+002,7.894226e+000
7.751510e+002,4.962646e+000
7.761152e+002,3.053009e+000
7.770795e+002,1.765961e+000
7.780437e+002,7.303772e-001
7.790079e+002,-4.290771e-002
7.799722e+002,2.223511e-001
7.809364e+002,1.619720e+000
7.819006e+002,2.707977e+000
7.828649e+002,2.949890e+000
7.838291e+002,2.643280e+000
7.847933e+002,2.418518e+000
7.857576e+002,1.602997e+000
7.867218e+002,1.672516e+000
7.876860e+002,4.598236e+000
7.886503e+002,7.502960e+000
7.896145e+002,7.248871e+000
7.905787e+002,3.300293e+000
7.915430e+002,-5.037842e-001
7.925072e+002,5.007324e-001
7.934714e+002,3.386627e+000
7.944357e+002,5.607697e+000
7.953999e+002,6.887299e+000
7.963641e+002,7.438934e+000
7.973284e+002,7.399139e+000
7.982926e+002,6.722656e+000
7.992568e+002,6.370422e+000
8.002211e+002,6.383240e+000
8.011853e+002,5.830109e+000
8.021495e+002,4.199707e+000
8.031138e+002,2.153320e+000
8.040780e+002,1.246735e+000
8.050422e+002,1.671326e+000
8.060065e+002,3.091034e+000
8.069707e+002,6.356689e+000
8.079349e+002,9.624329e+000
8.088992e+002,1.080698e+001
8.098634e+002,9.433105e+000
8.108276e+002,7.629944e+000
8.117919e+002,8.862427e+000
8.127561e+002,1.124640e+001
8.137203e+002,1.134534e+001
8.146846e+002,8.979004e+000
8.156488e+002,5.821228e+000
8.166130e+002,3.711823e+000
8.175773e+002,2.643799e+000
8.185415e+002,2.414368e+000
8.195057e+002,3.304108e+000
8.204700e+002,4.180481e+000
8.214342e+002,4.766632e+000
8.223984e+002,5.060638e+000
8.233627e+002,4.976349e+000
8.243269e+002,4.014557e+000
8.252911e+002,3.849213e+000
8.262554e+002,6.017365e+000
8.272196e+002,8.878052e+000
8.281838e+002,1.069971e+001
8.291481e+002,1.087372e+001
8.301123e+002,1.021240e+001
8.310765e+002,1.019153e+001
8.320408e+002,1.060010e+001
8.330050e+002,9.819214e+000
8.339692e+002,7.520752e+000
8.349335e+002,4.949341e+000
8.358977e+002,3.280212e+000
8.368619e+002,2.598572e+000
8.378262e+002,2.928314e+000
8.387904e+002,4.778107e+000
8.397546e+002,6.762939e+000
8.407189e+002,9.179413e+000
8.416831e+002,1.139108e+001
8.426473e+002,1.227728e+001
8.436116e+002,1.114731e+001
8.445758e+002,9.525879e+000
8.455400e+002,8.836334e+000
8.465043e+002,8.358551e+000
8.474685e+002,7.329681e+000
8.484327e+002,5.782318e+000
8.493970e+002,4.544159e+000
8.503612e+002,4.813507e+000
8.513254e+002,6.809204e+000
8.522897e+002,8.522430e+000
8.532539e+002,9.874664e+000
8.542181e+002,1.087238e+001
8.551824e+002,1.158105e+001
8.561466e+002,1.221588e+001
8.571108e+002,1.320450e+001
8.580751e+002,1.483759e+001
8.590393e+002,1.560406e+001
8.600035e+002,1.472342e+001
8.609678e+002,1.324506e+001
8.619320e+002,1.214127e+001
8.628962e+002,1.182968e+001
8.638605e+002,1.223392e+001
8.648247e+002,1.386215e+001
8.657889e+002,1.592514e+001
8.667532e+002,1.640610e+001
8.677174e+002,1.505099e+001
8.686816e+002,1.380273e+001
8.696459e+002,1.516797e+001
8.706101e+002,1.980405e+001
8.715743e+002,2.272284e+001
8.725386e+002,2.334955e+001
8.735028e+002,2.325870e+001
8.744670e+002,2.184784e+001
8.754313e+002,1.994324e+001
8.763955e+002,1.934891e+001
8.773597e+002,2.112918e+001
8.783240e+002,2.295984e+001
8.792882e+002,2.274936e+001
8.802524e+002,2.192654e+001
8.812167e+002,2.182559e+001
8.821809e+002,2.264578e+001
8.831451e+002,2.363544e+001
8.841094e+002,2.382993e+001
8.850736e+002,2.339661e+001
8.860378e+002,2.353400e+001
8.870021e+002,2.419904e+001
8.879663e+002,2.506140e+001
8.889305e+002,2.621347e+001
8.898948e+002,2.740060e+001
8.908590e+002,2.745120e+001
8.918232e+002,2.522607e+001
8.927875e+002,2.395178e+001
8.937517e+002,2.441797e+001
8.947159e+002,2.589160e+001
8.956802e+002,2.822705e+001
8.966444e+002,3.095950e+001
8.976086e+002,3.266684e+001
8.985729e+002,3.147269e+001
8.995371e+002,2.908490e+001
9.005013e+002,2.822418e+001
9.014656e+002,2.885834e+001
9.024298e+002,3.000128e+001
9.033940e+002,3.080753e+001
9.043583e+002,3.124945e+001
9.053225e+002,3.222845e+001
9.062867e+002,3.541199e+001
9.072510e+002,3.654419e+001
9.082152e+002,3.401450e+001
9.091794e+002,3.078452e+001
9.101437e+002,2.995752e+001
9.111079e+002,3.202682e+001
9.120721e+002,3.404584e+001
9.130364e+002,3.386533e+001
9.140006e+002,3.316763e+001
9.149648e+002,3.294830e+001
9.159291e+002,3.324130e+001
9.168933e+002,3.380902e+001
9.178575e+002,3.438742e+001
9.188218e+002,3.467786e+001
9.197860e+002,3.369495e+001
9.207502e+002,3.131406e+001
9.217145e+002,2.948987e+001
9.226787e+002,2.893625e+001
9.236429e+002,2.916812e+001
9.246072e+002,2.931183e+001
9.255714e+002,2.908221e+001
9.265356e+002,2.961838e+001
9.274999e+002,3.337332e+001
9.284641e+002,3.530161e+001
9.294283e+002,3.199307e+001
9.303926e+002,2.609421e+001
9.313568e+002,2.241547e+001
9.323210e+002,2.349210e+001
9.332853e+002,2.659476e+001
9.342495e+002,2.842099e+001
9.352137e+002,2.901694e+001
9.361780e+002,2.755762e+001
9.371422e+002,2.408743e+001
9.381064e+002,2.097614e+001
9.390707e+002,2.156680e+001
9.400349e+002,2.665472e+001
9.409991e+002,2.870456e+001
9.419634e+002,2.496286e+001
9.429276e+002,2.205887e+001
9.438918e+002,2.205399e+001
9.448561e+002,2.392624e+001
9.458203e+002,2.617914e+001
9.467845e+002,2.873062e+001
9.477488e+002,3.032535e+001
9.487130e+002,2.891971e+001
9.496772e+002,2.688388e+001
9.506415e+002,2.597971e+001
9.516057e+002,2.634457e+001
9.525699e+002,2.728513e+001
9.535342e+002,2.812222e+001
9.544984e+002,2.872241e+001
9.554626e+002,2.827023e+001
9.564269e+002,2.660797e+001
9.573911e+002,2.592313e+001
9.583553e+002,2.765015e+001
9.593196e+002,3.021103e+001
9.602838e+002,3.089938e+001
9.612480e+002,2.911118e+001
9.622123e+002,2.728848e+001
9.631765e+002,2.593155e+001
9.641407e+002,2.501074e+001
9.651050e+002,2.485333e+001
9.660692e+002,2.496906e+001
9.670334e+002,2.435513e+001
9.679977e+002,2.244870e+001
9.689619e+002,2.044821e+001
9.699261e+002,2.136948e+001
9.708904e+002,2.398154e+001
9.718546e+002,2.474338e+001
9.728188e+002,2.240393e+001
9.737831e+002,1.969724e+001
9.747473e+002,2.069696e+001
9.757115e+002,2.641504e+001
9.766758e+002,3.068549e+001
9.776400e+002,3.275839e+001
9.786042e+002,3.457288e+001
9.795685e+002,3.675916e+001
9.805327e+002,3.858688e+001
9.814969e+002,3.916824e+001
9.824612e+002,3.831509e+001
9.834254e+002,3.667880e+001
9.843896e+002,3.423434e+001
9.853539e+002,3.136789e+001
9.863181e+002,2.814352e+001
9.872823e+002,2.475021e+001
9.882466e+002,2.227798e+001
9.892108e+002,2.191086e+001
9.901750e+002,2.336578e+001
9.911393e+002,2.281366e+001
9.921035e+002,1.703848e+001
9.930677e+002,1.357239e+001
9.940320e+002,1.384067e+001
9.949962e+002,1.597183e+001
9.959604e+002,1.861850e+001
9.969247e+002,2.163043e+001
9.978889e+002,2.472662e+001
9.988531e+002,2.791232e+001
9.998174e+002,3.037949e+001
1.000782e+003,3.151126e+001
1.001746e+003,3.201639e+001
1.002710e+003,3.316592e+001
1.003674e+003,3.530869e+001
1.004639e+003,3.703134e+001
1.005603e+003,3.557266e+001
1.006567e+003,3.049695e+001
1.007531e+003,2.865717e+001
1.008495e+003,3.130249e+001
1.009460e+003,3.451404e+001
1.010424e+003,3.663086e+001
1.011388e+003,3.759113e+001
1.012352e+003,3.658722e+001
1.013317e+003,3.177783e+001
1.014281e+003,2.838013e+001
1.015245e+003,2.903879e+001
1.016209e+003,3.031345e+001
1.017174e+003,2.954431e+001
1.018138e+003,2.683377e+001
1.019102e+003,2.432816e+001
1.020066e+003,2.390305e+001
1.021031e+003,2.471228e+001
1.021995e+003,2.402933e+001
1.022959e+003,2.196515e+001
1.023923e+003,1.926334e+001
1.024887e+003,1.575186e+001
1.025852e+003,1.234955e+001
1.026816e+003,1.089166e+001
1.027780e+003,1.215482e+001
1.028744e+003,1.231543e+001
1.029709e+003,9.236603e+000
1.030673e+003,7.128265e+000
1.031637e+003,7.970978e+000
1.032601e+003,1.013577e+001
1.033566e+003,1.136676e+001
1.034530e+003,1.092227e+001
1.035494e+003,9.886536e+000
1.036458e+003,9.351715e+000
1.037422e+003,8.878235e+000
1.038387e+003,7.457153e+000
1.039351e+003,5.206818e+000
1.040315e+003,3.697205e+000
1.041279e+003,4.341248e+000
1.042244e+003,6.558228e+000
1.043208e+003,6.995636e+000
1.044172e+003,3.116333e+000
1.045136e+003,1.581299e+000
1.046101e+003,4.275116e+000
1.047065e+003,7.594116e+000
1.048029e+003,9.247772e+000
1.048993e+003,9.371857e+000
1.049958e+003,9.568054e+000
1.050922e+003,1.093484e+001
1.051886e+003,1.192609e+001
1.052850e+003,9.944946e+000
1.053814e+003,7.082825e+000
1.054779e+003,6.217896e+000
1.055743e+003,7.846588e+000
1.056707e+003,1.045575e+001
1.057671e+003,1.231631e+001
1.058636e+003,1.339136e+001
1.059600e+003,1.317459e+001
1.060564e+003,1.066107e+001
1.061528e+003,8.809784e+000
1.062493e+003,7.923767e+000
1.063457e+003,7.614624e+000
1.064421e+003,7.693542e+000
1.065385e+003,8.187775e+000
1.066349e+003,8.879761e+000
1.067314e+003,1.027097e+001
1.068278e+003,1.105386e+001
1.069242e+003,1.003064e+001
1.070206e+003,8.030396e+000
1.071171e+003,6.065918e+000
1.072135e+003,4.611328e+000
1.073099e+003,3.811615e+000
1.074063e+003,4.131226e+000
1.075028e+003,5.809540e+000
1.075992e+003,6.234589e+000
1.076956e+003,4.389587e+000
1.077920e+003,2.942200e+000
1.078885e+003,3.113770e+000
1.079849e+003,4.444244e+000
1.080813e+003,6.187622e+000
1.081777e+003,8.416748e+000
1.082741e+003,1.024646e+001
1.083706e+003,1.096310e+001
1.084670e+003,1.098956e+001
1.085634e+003,1.023254e+001
1.086598e+003,8.997009e+000
1.087563e+003,7.789490e+000
1.088527e+003,6.973663e+000
1.089491e+003,6.499603e+000
1.090455e+003,5.986908e+000
1.091420e+003,5.293854e+000
1.092384e+003,5.302246e+000
1.093348e+003,6.438507e+000
1.094312e+003,7.246918e+000
1.095276e+003,6.663116e+000
1.096241e+003,5.307739e+000
1.097205e+003,4.843567e+000
1.098169e+003,5.608734e+000
1.099133e+003,6.457825e+000
1.100098e+003,7.428619e+000
1.101062e+003,8.071106e+000
1.102026e+003,8.048157e+000
1.102990e+003,7.467255e+000
1.103955e+003,6.449921e+000
1.104919e+003,5.053101e+000
1.105883e+003,3.622314e+000
1.106847e+003,2.925262e+000
1.107812e+003,3.008636e+000
1.108776e+003,4.054230e+000
1.109740e+003,6.857788e+000
1.110704e+003,9.002777e+000
1.111668e+003,8.133026e+000
1.112633e+003,5.230560e+000
1.113597e+003,4.388306e+000
1.114561e+003,7.017090e+000
1.115525e+003,8.939484e+000
1.116490e+003,8.228638e+000
1.117454e+003,7.056885e+000
1.118418e+003,6.881897e+000
1.119382e+003,7.664185e+000
1.120347e+003,8.430756e+000
1.121311e+003,8.462799e+000
1.122275e+003,8.325775e+000
1.123239e+003,9.909943e+000
1.124203e+003,1.319580e+001
1.125168e+003,1.524301e+001
1.126132e+003,1.566611e+001
1.127096e+003,1.543097e+001
1.128060e+003,1.477939e+001
1.129025e+003,1.386609e+001
1.129989e+003,1.376480e+001
1.130953e+003,1.472516e+001
1.131917e+003,1.596933e+001
1.132882e+003,1.776645e+001
1.133846e+003,1.941367e+001
1.134810e+003,2.018863e+001
1.135774e+003,2.051001e+001
1.136739e+003,2.144681e+001
1.137703e+003,2.357159e+001
1.138667e+003,2.608594e+001
1.139631e+003,2.752710e+001
1.140595e+003,2.802728e+001
1.141560e+003,2.910129e+001
1.142524e+003,3.080072e+001
1.143488e+003,3.361401e+001
1.144452e+003,3.835706e+001
1.145417e+003,4.443610e+001
1.146381e+003,4.954495e+001
1.147345e+003,5.292816e+001
1.148309e+003,5.705627e+001
1.149274e+003,6.262228e+001
1.150238e+003,6.907907e+001
1.151202e+003,7.663864e+001
1.152166e+003,8.493564e+001
1.153130e+003,9.334125e+001
1.154095e+003,1.014117e+002
1.155059e+003,1.092557e+002
1.156023e+003,1.181256e+002
1.156987e+003,1.269350e+002
1.157952e+003,1.285175e+002
1.158916e+003,1.219922e+002
1.159880e+003,1.152307e+002
1.160844e+003,1.129710e+002
1.161809e+003,1.125204e+002
1.162773e+003,1.082885e+002
1.163737e+003,9.977734e+001
1.164701e+003,8.969293e+001
1.165666e+003,7.587241e+001
1.166630e+003,6.382373e+001
1.167594e+003,5.596048e+001
1.168558e+003,5.091986e+001
1.169522e+003,4.707138e+001
1.170487e+003,4.368051e+001
1.171451e+003,4.062921e+001
1.172415e+003,3.763733e+001
1.173379e+003,3.494135e+001
1.174344e+003,3.421912e+001
1.175308e+003,3.557370e+001
1.176272e+003,3.687320e+001
1.177236e+003,3.781061e+001
1.178201e+003,3.818726e+001
1.179165e+003,3.744647e+001
1.180129e+003,3.545511e+001
1.181093e+003,3.343634e+001
1.182057e+003,3.133423e+001
1.183022e+003,2.991168e+001
1.183986e+003,3.009509e+001
1.184950e+003,3.056873e+001
1.185914e+003,3.018286e+001
1.186879e+003,2.881485e+001
1.187843e+003,2.670822e+001
1.188807e+003,2.395303e+001
1.189771e+003,2.130536e+001
1.190736e+003,2.162219e+001
1.191700e+003,2.529337e+001
1.192664e+003,2.773636e+001
1.193628e+003,2.808182e+001
1.194593e+003,2.796793e+001
1.195557e+003,2.887885e+001
1.196521e+003,3.023828e+001
1.197485e+003,2.986703e+001
1.198449e+003,2.690292e+001
1.199414e+003,2.401236e+001
1.200378e+003,2.189990e+001
1.201342e+003,2.072653e+001
1.202306e+003,2.090994e+001
1.203271e+003,2.201743e+001
1.204235e+003,2.381564e+001
1.205199e+003,2.596652e+001
1.206163e+003,2.695224e+001
1.207128e+003,2.382748e+001
1.208092e+003,1.626743e+001
1.209056e+003,1.314307e+001
1.210020e+003,1.705768e+001
1.210984e+003,1.943661e+001
1.211949e+003,1.661642e+001
1.212913e+003,1.164935e+001
1.213877e+003,8.488861e+000
1.214841e+003,7.429810e+000
1.215806e+003,6.325043e+000
1.216770e+003,3.734009e+000
1.217734e+003,1.871796e+000
1.218698e+003,3.293732e+000
1.219663e+003,5.462311e+000
1.220627e+003,5.060944e+000
1.221591e+003,1.754456e+000
1.222555e+003,-2.472565e+000
1.223520e+003,-5.815796e+000
1.224484e+003,-8.097504e+000
1.225448e+003,-8.765839e+000
1.226412e+003,-6.617188e+000
1.227376e+003,-5.611664e+000
1.228341e+003,-6.571960e+000
1.229305e+003,-7.808746e+000
1.230269e+003,-8.451813e+000
1.231233e+003,-8.727020e+000
1.232198e+003,-9.220276e+000
1.233162e+003,-1.004352e+001
1.234126e+003,-1.044150e+001
1.235090e+003,-9.597321e+000
1.236055e+003,-8.523132e+000
1.237019e+003,-8.394653e+000
1.237983e+003,-8.957764e+000
1.238947e+003,-9.261719e+000
1.239911e+003,-8.844482e+000
1.240876e+003,-8.323578e+000
1.241840e+003,-8.815094e+000
1.242804e+003,-1.042059e+001
1.243768e+003,-1.101865e+001
1.244733e+003,-1.027765e+001
1.245697e+003,-8.801300e+000
1.246661e+003,-5.537689e+000
1.247625e+003,-2.801147e+000
1.248590e+003,-2.754059e+000
1.249554e+003,-4.576416e+000
1.250518e+003,-5.602539e+000
1.251482e+003,-4.663422e+000
1.252447e+003,-3.296692e+000
1.253411e+003,-3.093903e+000
1.254375e+003,-3.684814e+000
1.255339e+003,-4.651367e+000
1.256303e+003,-5.847473e+000
1.257268e+003,-6.319397e+000
1.258232e+003,-5.382935e+000
1.259196e+003,-3.956665e+000
1.260160e+003,-3.972168e+000
1.261125e+003,-5.757721e+000
1.262089e+003,-6.090607e+000
1.263053e+003,-3.587097e+000
1.264017e+003,-1.141846e+000
1.264982e+003,1.384033e+000
1.265946e+003,3.074524e+000
1.266910e+003,2.440979e+000
1.267874e+003,8.599854e-002
1.268839e+003,-1.574677e+000
1.269803e+003,-9.165955e-001
1.270767e+003,8.033752e-001
1.271731e+003,1.106445e+000
1.272695e+003,1.163940e-001
1.273660e+003,1.821899e-002
1.274624e+003,1.140717e+000
1.275588e+003,1.772797e+000
1.276552e+003,5.980225e-001
1.277517e+003,-1.247711e+000
1.278481e+003,-1.379913e+000
1.279445e+003,4.951477e-001
1.280409e+003,8.807983e-001
1.281374e+003,-2.816925e+000
1.282338e+003,-6.205139e+000
1.283302e+003,-6.577881e+000
1.284266e+003,-5.732513e+000
1.285230e+003,-5.864166e+000
1.286195e+003,-7.168030e+000
1.287159e+003,-8.125244e+000
1.288123e+003,-7.421234e+000
1.289087e+003,-5.735168e+000
1.290052e+003,-5.522400e+000
1.291016e+003,-7.899902e+000
1.291980e+003,-7.925140e+000
1.292944e+003,-3.338959e+000
1.293909e+003,2.077332e-001
1.294873e+003,-4.992676e-002
1.295837e+003,-2.025269e+000
1.296801e+003,-2.863037e+000
1.297766e+003,-2.216644e+000
1.298730e+003,-1.603455e+000
1.299694e+003,-1.738434e+000
1.300658e+003,-2.592987e+000
1.301622e+003,-4.942139e+000
1.302587e+003,-7.500885e+000
1.303551e+003,-7.763458e+000
1.304515e+003,-5.469635e+000
1.305479e+003,-3.234497e+000
1.306444e+003,-3.338348e+000
1.307408e+003,-5.036957e+000
1.308372e+003,-5.453766e+000
1.309336e+003,-3.814850e+000
1.310301e+003,-3.339630e+000
1.311265e+003,-5.584595e+000
1.312229e+003,-7.086487e+000
1.313193e+003,-6.089600e+000
1.314157e+003,-4.411804e+000
1.315122e+003,-4.160004e+000
1.316086e+003,-5.428345e+000
1.317050e+003,-6.743317e+000
1.318014e+003,-7.087219e+000
1.318979e+003,-6.804993e+000
1.319943e+003,-6.473358e+000
1.320907e+003,-6.084503e+000
1.321871e+003,-6.111786e+000
1.322836e+003,-6.923676e+000
1.323800e+003,-7.585022e+000
1.324764e+003,-7.622894e+000
1.325728e+003,-7.136475e+000
1.326693e+003,-6.101898e+000
1.327657e+003,-4.580780e+000
1.328621e+003,-3.886902e+000
1.329585e+003,-4.475342e+000
1.330549e+003,-4.957764e+000
1.331514e+003,-4.816742e+000
1.332478e+003,-4.688416e+000
1.333442e+003,-5.228790e+000
1.334406e+003,-6.195587e+000
1.335371e+003,-6.698669e+000
1.336335e+003,-6.228790e+000
1.337299e+003,-5.436554e+000
1.338263e+003,-5.698761e+000
1.339228e+003,-7.283234e+000
1.340192e+003,-7.294281e+000
1.341156e+003,-3.951141e+000
1.342120e+003,-1.770996e+000
1.343084e+003,-1.637024e+000
1.344049e+003,-2.920990e+000
1.345013e+003,-6.021484e+000
1.345977e+003,-9.840332e+000
1.346941e+003,-1.169492e+001
1.347906e+003,-1.059695e+001
1.348870e+003,-8.174469e+000
1.349834e+003,-5.465088e+000
1.350798e+003,-2.851410e+000
1.351763e+003,-2.929688e-001
1.352727e+003,1.949219e+000
1.353691e+003,1.859467e+000
1.354655e+003,-1.825409e+000
1.355620e+003,-6.111237e+000
1.356584e+003,-7.154602e+000
1.357548e+003,-5.335480e+000
1.358512e+003,-4.574463e+000
1.359476e+003,-5.636688e+000
1.360441e+003,-6.571045e+000
1.361405e+003,-6.810181e+000
1.362369e+003,-6.741669e+000
1.363333e+003,-6.366425e+000
1.364298e+003,-5.874786e+000
1.365262e+003,-5.548920e+000
1.366226e+003,-5.402863e+000
1.367190e+003,-5.019989e+000
1.368155e+003,-4.000549e+000
1.369119e+003,-2.858063e+000
1.370083e+003,-3.294220e+000
1.371047e+003,-5.915894e+000
1.372011e+003,-7.160675e+000
1.372976e+003,-6.587738e+000
1.373940e+003,-5.615784e+000
1.374904e+003,-4.028900e+000
1.375868e+003,-2.670868e+000
1.376833e+003,-3.135406e+000
1.377797e+003,-5.223236e+000
1.378761e+003,-6.507263e+000
1.379725e+003,-5.804352e+000
1.380690e+003,-4.393616e+000
1.381654e+003,-2.993652e+000
1.382618e+003,-1.950317e+000
1.383582e+003,-2.250153e+000
1.384547e+003,-3.660797e+000
1.385511e+003,-4.287292e+000
1.386475e+003,-3.078705e+000
1.387439e+003,-1.237762e+000
1.388403e+003,-4.747925e-001
1.389368e+003,-8.038025e-001
1.390332e+003,-1.656311e+000
1.391296e+003,-3.427124e+000
1.392260e+003,-4.687775e+000
1.393225e+003,-5.400116e+000
1.394189e+003,-5.378204e+000
1.395153e+003,-3.922455e+000
1.396117e+003,-1.901215e+000
1.397082e+003,-5.929565e-001
1.398046e+003,-2.690430e-001
1.399010e+003,-2.091064e-001
1.399974e+003,1.485291e-001
1.400938e+003,5.737000e-001
1.401903e+003,8.313904e-001
1.402867e+003,1.327698e+000
1.403831e+003,1.572174e+000
1.404795e+003,1.139679e+000
1.405760e+003,6.700439e-001
1.406724e+003,8.813477e-002
1.407688e+003,-7.008972e-001
1.408652e+003,-1.695435e+000
1.409617e+003,-2.622162e+000
1.410581e+003,-2.756012e+000
1.411545e+003,-1.617340e+000
1.412509e+003,-7.333069e-001
1.413474e+003,-2.442291e+000
1.414438e+003,-5.023987e+000
1.415402e+003,-5.060974e+000
1.416366e+003,-2.765320e+000
1.417330e+003,-5.683594e-001
1.418295e+003,6.266479e-001
1.419259e+003,1.285492e+000
1.420223e+003,1.905518e+000
1.421187e+003,2.320038e+000
1.422152e+003,1.911530e+000
1.423116e+003,4.424438e-001
1.424080e+003,-5.463562e-001
1.425044e+003,-2.555847e-001
1.426009e+003,-1.058655e-001
1.426973e+003,-1.467194e+000
1.427937e+003,-2.831573e+000
1.428901e+003,-1.951935e+000
1.429865e+003,1.028320e+000
1.430830e+003,4.115997e+000
1.431794e+003,5.901489e+000
1.432758e+003,6.428009e+000
1.433722e+003,5.864624e+000
1.434687e+003,4.280396e+000
1.435651e+003,3.575684e+000
1.436615e+003,3.771606e+000
1.437579e+003,3.806030e+000
1.438544e+003,3.278442e+000
1.439508e+003,3.018402e+000
1.440472e+003,4.255341e+000
1.441436e+003,6.115051e+000
1.442401e+003,6.567719e+000
1.443365e+003,5.216858e+000
1.444329e+003,3.894562e+000
1.445293e+003,4.063446e+000
1.446257e+003,4.891266e+000
1.447222e+003,4.354767e+000
1.448186e+003,2.880493e+000
1.449150e+003,3.282013e+000
1.450114e+003,6.342010e+000
1.451079e+003,8.838196e+000
1.452043e+003,9.022125e+000
1.453007e+003,8.008850e+000
1.453971e+003,7.035828e+000
1.454936e+003,6.069916e+000
1.455900e+003,4.866547e+000
1.456864e+003,3.016144e+000
1.457828e+003,2.515167e+000
1.458792e+003,6.466553e+000
1.459757e+003,1.027902e+001
1.460721e+003,9.316315e+000
1.461685e+003,5.563690e+000
1.462649e+003,3.419769e+000
1.463614e+003,4.032898e+000
1.464578e+003,5.258881e+000
1.465542e+003,5.236908e+000
1.466506e+003,4.188019e+000
1.467471e+003,2.635803e+000
1.468435e+003,3.042603e-001
1.469399e+003,-2.706604e-001
1.470363e+003,2.570892e+000
1.471328e+003,4.666809e+000
1.472292e+003,4.325958e+000
1.473256e+003,3.405609e+000
1.474220e+003,3.701111e+000
1.475184e+003,4.684418e+000
1.476149e+003,4.470825e+000
1.477113e+003,2.661469e+000
1.478077e+003,1.299133e+000
1.479041e+003,2.507965e+000
1.480006e+003,5.681824e+000
1.480970e+003,8.620026e+000
1.481934e+003,1.164978e+001
1.482898e+003,1.207278e+001
1.483863e+003,7.355042e+000
1.484827e+003,3.832031e+000
1.485791e+003,3.872498e+000
1.486755e+003,5.428558e+000
1.487719e+003,6.871460e+000
1.488684e+003,7.980286e+000
1.489648e+003,8.960785e+000
1.490612e+003,9.953766e+000
1.491576e+003,1.090906e+001
1.492541e+003,1.163028e+001
1.493505e+003,1.236588e+001
1.494469e+003,1.385251e+001
1.495433e+003,1.579547e+001
1.496398e+003,1.740805e+001
1.497362e+003,1.882672e+001
1.498326e+003,1.999802e+001
1.499290e+003,2.024200e+001
1.500255e+003,2.062680e+001
1.501219e+003,2.283368e+001
1.502183e+003,2.652945e+001
1.503147e+003,2.976746e+001
1.504111e+003,3.198645e+001
1.505076e+003,3.442297e+001
1.506040e+003,3.766757e+001
1.507004e+003,4.169101e+001
1.507968e+003,4.674420e+001
1.508933e+003,5.237131e+001
1.509897e+003,5.735474e+001
1.510861e+003,6.178268e+001
1.511825e+003,6.762106e+001
1.512790e+003,7.630850e+001
1.513754e+003,8.658896e+001
1.514718e+003,9.661041e+001
1.515682e+003,1.062313e+002
1.516646e+003,1.145189e+002
1.517611e+003,1.207553e+002
1.518575e+003,1.276479e+002
1.519539e+003,1.380316e+002
1.520503e+003,1.474975e+002
1.521468e+003,1.530688e+002
1.522432e+003,1.564802e+002
1.523396e+003,1.609879e+002
1.524360e+003,1.663443e+002
1.525325e+003,1.690632e+002
1.526289e+003,1.668631e+002
1.527253e+003,1.615349e+002
1.528217e+003,1.561482e+002
1.529182e+003,1.508349e+002
1.530146e+003,1.447193e+002
1.531110e+003,1.381241e+002
1.532074e+003,1.297531e+002
1.533039e+003,1.181581e+002
1.534003e+003,1.059047e+002
1.534967e+003,9.417984e+001
1.535931e+003,8.298126e+001
1.536896e+003,7.177075e+001
1.537860e+003,6.089450e+001
1.538824e+003,5.122025e+001
1.539788e+003,4.314859e+001
1.540752e+003,3.670346e+001
1.541717e+003,3.208429e+001
1.542681e+003,2.914114e+001
1.543645e+003,2.627179e+001
1.544609e+003,2.345044e+001
1.545573e+003,2.127283e+001
1.546538e+003,2.010754e+001
1.547502e+003,1.863388e+001
1.548466e+003,1.528674e+001
1.549430e+003,1.266501e+001
1.550395e+003,1.439310e+001
1.551359e+003,1.892044e+001
1.552323e+003,2.150650e+001
1.553287e+003,2.053110e+001
1.554252e+003,1.788205e+001
1.555216e+003,1.490210e+001
1.556180e+003,1.211932e+001
1.557144e+003,1.105566e+001
1.558109e+003,1.184293e+001
1.559073e+003,1.163846e+001
1.560037e+003,9.480408e+000
1.561001e+003,7.758331e+000
1.561966e+003,8.094299e+000
1.562930e+003,8.817047e+000
1.563894e+003,7.742950e+000
1.564858e+003,5.776520e+000
1.565823e+003,5.614288e+000
1.566787e+003,7.655426e+000
1.567751e+003,9.706177e+000
1.568715e+003,1.076987e+001
1.569679e+003,1.082071e+001
1.570644e+003,9.021820e+000
1.571608e+003,6.231079e+000
1.572572e+003,5.145264e+000
1.573536e+003,5.955292e+000
1.574500e+003,7.812012e+000
1.575465e+003,1.146210e+001
1.576429e+003,1.434839e+001
1.577393e+003,1.358557e+001
1.578357e+003,1.084515e+001
1.579322e+003,9.415039e+000
1.580286e+003,9.536255e+000
1.581250e+003,1.022556e+001
1.582214e+003,1.135208e+001
1.583179e+003,1.233746e+001
1.584143e+003,1.257272e+001
1.585107e+003,1.243546e+001
1.586071e+003,1.288480e+001
1.587036e+003,1.371759e+001
1.588000e+003,1.356442e+001
1.588964e+003,1.194211e+001
1.589928e+003,1.053986e+001
1.590893e+003,1.043243e+001
1.591857e+003,1.126691e+001
1.592821e+003,1.279327e+001
1.593785e+003,1.488788e+001
1.594750e+003,1.688321e+001
1.595714e+003,1.881039e+001
1.596678e+003,1.927594e+001
1.597642e+003,1.639972e+001
1.598606e+003,1.390366e+001
1.599571e+003,1.608707e+001
1.600535e+003,1.969177e+001
1.601499e+003,2.003033e+001
1.602463e+003,1.736722e+001
1.603427e+003,1.533148e+001
1.604392e+003,1.544974e+001
1.605356e+003,1.615982e+001
1.606320e+003,1.586536e+001
1.607284e+003,1.495358e+001
1.608249e+003,1.453482e+001
1.609213e+003,1.462979e+001
1.610177e+003,1.470438e+001
1.611141e+003,1.482266e+001
1.612106e+003,1.454617e+001
1.613070e+003,1.291119e+001
1.614034e+003,1.146991e+001
1.614998e+003,1.141348e+001
1.615963e+003,1.232471e+001
1.616927e+003,1.351266e+001
1.617891e+003,1.477271e+001
1.618855e+003,1.603748e+001
1.619820e+003,1.722498e+001
1.620784e+003,1.812375e+001
1.621748e+003,1.866092e+001
1.622712e+003,1.906082e+001
1.623677e+003,1.959174e+001
1.624641e+003,2.049698e+001
1.625605e+003,2.006342e+001
1.626569e+003,1.614938e+001
1.627533e+003,1.307819e+001
1.628498e+003,1.398547e+001
1.629462e+003,1.598355e+001
1.630426e+003,1.699756e+001
1.631390e+003,1.696063e+001
1.632354e+003,1.573929e+001
1.633319e+003,1.357791e+001
1.634283e+003,1.264731e+001
1.635247e+003,1.495154e+001
1.636211e+003,1.805997e+001
1.637176e+003,1.690234e+001
1.638140e+003,1.197833e+001
1.639104e+003,1.031317e+001
1.640068e+003,1.298666e+001
1.641033e+003,1.523611e+001
1.641997e+003,1.596213e+001
1.642961e+003,1.608829e+001
1.643925e+003,1.550879e+001
1.644890e+003,1.504025e+001
1.645854e+003,1.596881e+001
1.646818e+003,1.757932e+001
1.647782e+003,1.774316e+001
1.648747e+003,1.590366e+001
1.649711e+003,1.409464e+001
1.650675e+003,1.414236e+001
1.651639e+003,1.524716e+001
1.652604e+003,1.540662e+001
1.653568e+003,1.460889e+001
1.654532e+003,1.501816e+001
1.655496e+003,1.737067e+001
1.656460e+003,1.864578e+001
1.657425e+003,1.710199e+001
1.658389e+003,1.560004e+001
1.659353e+003,1.568762e+001
1.660317e+003,1.656656e+001
1.661281e+003,1.791803e+001
1.662246e+003,1.917575e+001
1.663210e+003,1.899466e+001
1.664174e+003,1.704517e+001
1.665138e+003,1.494772e+001
1.666103e+003,1.399841e+001
1.667067e+003,1.368900e+001
1.668031e+003,1.301355e+001
1.668995e+003,1.206546e+001
1.669960e+003,1.180466e+001
1.670924e+003,1.258636e+001
1.671888e+003,1.298544e+001
1.672852e+003,1.214240e+001
1.673817e+003,1.126279e+001
1.674781e+003,1.088556e+001
1.675745e+003,1.100244e+001
1.676709e+003,1.192627e+001
1.677674e+003,1.331406e+001
1.678638e+003,1.431412e+001
1.679602e+003,1.465192e+001
1.680566e+003,1.415128e+001
1.681531e+003,1.245529e+001
1.682495e+003,1.032397e+001
1.683459e+003,8.870667e+000
1.684423e+003,7.937866e+000
1.685387e+003,6.908386e+000
1.686352e+003,5.655365e+000
1.687316e+003,5.414032e+000
1.688280e+003,7.035400e+000
1.689244e+003,8.883453e+000
1.690208e+003,9.707275e+000
1.691173e+003,1.006473e+001
1.692137e+003,1.096912e+001
1.693101e+003,1.207590e+001
1.694065e+003,1.154413e+001
1.695030e+003,8.722534e+000
1.695994e+003,6.326233e+000
1.696958e+003,6.587646e+000
1.697922e+003,7.599670e+000
1.698887e+003,6.878967e+000
1.699851e+003,5.002594e+000
1.700815e+003,3.554871e+000
1.701779e+003,2.614380e+000
1.702744e+003,1.715149e+000
1.703708e+003,6.844788e-001
1.704672e+003,4.386902e-001
1.705636e+003,1.764740e+000
1.706601e+003,3.741119e+000
1.707565e+003,5.793152e+000
1.708529e+003,7.621613e+000
1.709493e+003,7.699432e+000
1.710458e+003,5.699005e+000
1.711422e+003,3.200226e+000
1.712386e+003,-2.911377e-002
1.713350e+003,-2.263062e+000
1.714314e+003,-1.725372e+000
1.715279e+003,2.123108e-001
1.716243e+003,1.505646e+000
1.717207e+003,2.098175e+000
1.718171e+003,2.785797e+000
1.719135e+003,3.818115e+000
1.720100e+003,4.195038e+000
1.721064e+003,2.977448e+000
1.722028e+003,1.337372e+000
1.722992e+003,1.097260e+000
1.723957e+003,2.171997e+000
1.724921e+003,3.437439e+000
1.725885e+003,4.950714e+000
1.726849e+003,4.918671e+000
1.727814e+003,1.596436e+000
1.728778e+003,-8.164978e-001
1.729742e+003,2.892761e-001
1.730706e+003,2.273651e+000
1.731671e+003,2.353973e+000
1.732635e+003,1.080017e+000
1.733599e+003,5.296936e-001
1.734563e+003,1.000458e+000
1.735528e+003,6.847229e-001
1.736492e+003,-1.429626e+000
1.737456e+003,-3.617065e+000
1.738420e+003,-3.779388e+000
1.739385e+003,-2.602051e+000
1.740349e+003,-2.259308e+000
1.741313e+003,-3.008820e+000
1.742277e+003,-2.755249e+000
1.743241e+003,-1.768799e-001
1.744206e+003,1.495941e+000
1.745170e+003,1.693573e+000
1.746134e+003,9.362793e-001
1.747098e+003,-1.659546e+000
1.748063e+003,-4.205566e+000
1.749027e+003,-4.153809e+000
1.749991e+003,-2.161957e+000
1.750955e+003,-6.764832e-001
1.751919e+003,-5.585327e-001
1.752884e+003,-8.715820e-001
1.753848e+003,-8.524170e-001
1.754812e+003,-4.953003e-001
1.755776e+003,4.559326e-001
1.756741e+003,2.065430e+000
1.757705e+003,2.245209e+000
1.758669e+003,2.835083e-002
1.759633e+003,-1.079681e+000
1.760598e+003,4.079895e-001
1.761562e+003,1.177124e+000
1.762526e+003,-2.775879e-001
1.763490e+003,-1.969574e+000
1.764455e+003,-2.443970e+000
1.765419e+003,-2.205444e+000
1.766383e+003,-2.553741e+000
1.767347e+003,-3.410675e+000
1.768312e+003,-3.111115e+000
1.769276e+003,-8.798523e-001
1.770240e+003,1.565796e+000
1.771204e+003,2.766754e+000
1.772168e+003,3.023804e+000
1.773133e+003,2.583130e+000
1.774097e+003,1.497803e+000
1.775061e+003,2.701721e-001
1.776025e+003,-1.267181e+000
1.776990e+003,-2.463562e+000
1.777954e+003,-3.146637e+000
1.778918e+003,-2.859650e+000
1.779882e+003,-5.212097e-001
1.780846e+003,2.124481e+000
1.781811e+003,2.918915e+000
1.782775e+003,2.214600e+000
1.783739e+003,9.095154e-001
1.784703e+003,-9.002380e-001
1.785668e+003,-2.473419e+000
1.786632e+003,-4.434753e+000
1.787596e+003,-5.153351e+000
1.788560e+003,-1.885223e+000
1.789525e+003,2.600220e+000
1.790489e+003,4.233185e+000
1.791453e+003,3.355255e+000
1.792417e+003,1.744873e+000
1.793382e+003,6.958008e-003
1.794346e+003,-6.632690e-001
1.795310e+003,4.447937e-001
1.796274e+003,1.525146e+000
1.797239e+003,4.652710e-001
1.798203e+003,-1.791443e+000
1.799167e+003,-2.782135e+000
1.800131e+003,-2.675629e+000
1.801095e+003,-2.079468e+000
1.802060e+003,-1.605225e-002
1.803024e+003,1.450684e+000
1.803988e+003,1.929993e+000
1.804952e+003,1.820984e+000
1.805917e+003,8.549805e-001
1.806881e+003,-2.304077e-001
1.807845e+003,-6.398315e-001
1.808809e+003,-5.303955e-001
1.809773e+003,-4.101257e-001
1.810738e+003,-4.332886e-001
1.811702e+003,-5.789795e-001
1.812666e+003,-8.308105e-001
1.813630e+003,-7.472839e-001
1.814595e+003,4.396667e-001
1.815559e+003,2.197449e+000
1.816523e+003,2.268799e+000
1.817487e+003,4.724731e-001
1.818452e+003,-5.488892e-001
1.819416e+003,-3.264160e-001
1.820380e+003,2.813721e-002
1.821344e+003,-2.144470e-001
1.822309e+003,-5.029297e-002
1.823273e+003,2.007782e+000
1.824237e+003,4.238525e+000
1.825201e+003,4.645691e+000
1.826166e+003,3.662354e+000
1.827130e+003,2.640320e+000
1.828094e+003,1.785126e+000
1.829058e+003,9.461365e-001
1.830022e+003,-1.140442e-001
1.830987e+003,-5.793762e-001
1.831951e+003,1.291016e+000
1.832915e+003,3.400665e+000
1.833879e+003,1.940704e+000
1.834844e+003,-1.856201e+000
1.835808e+003,-3.918976e+000
1.836772e+003,-3.652191e+000
1.837736e+003,-2.677307e+000
1.838700e+003,-1.722809e+000
1.839665e+003,-1.131500e+000
1.840629e+003,-1.238647e+000
1.841593e+003,-1.613464e+000
1.842557e+003,-1.430115e+000
1.843522e+003,-7.030029e-001
1.844486e+003,-2.294922e-002
1.845450e+003,1.337280e+000
1.846414e+003,1.526825e+000
1.847379e+003,-1.226440e+000
1.848343e+003,-3.143555e+000
1.849307e+003,-2.302307e+000
1.850271e+003,-9.607239e-001
1.851236e+003,-5.633545e-001
1.852200e+003,-7.110291e-001
1.853164e+003,-9.133606e-001
1.854128e+003,-1.138458e+000
1.855093e+003,-1.616943e+000
1.856057e+003,-2.180267e+000
1.857021e+003,-1.532135e+000
1.857985e+003,1.604736e+000
1.858949e+003,5.163239e+000
1.859914e+003,5.187561e+000
1.860878e+003,2.451141e+000
1.861842e+003,1.160431e+000
1.862806e+003,1.324066e+000
1.863771e+003,1.671997e+000
1.864735e+003,2.064667e+000
1.865699e+003,1.974854e+000
1.866663e+003,8.458252e-001
1.867627e+003,5.493164e-002
1.868592e+003,1.120239e+000
1.869556e+003,2.881500e+000
1.870520e+003,3.338562e+000
1.871484e+003,2.651428e+000
1.872449e+003,2.008209e+000
1.873413e+003,1.990845e+000
1.874377e+003,1.747772e+000
1.875341e+003,-3.637085e-001
1.876306e+003,-1.624908e+000
1.877270e+003,7.289734e-001
1.878234e+003,3.344696e+000
1.879198e+003,1.919312e+000
1.880163e+003,-1.266083e+000
1.881127e+003,-1.117462e+000
1.882091e+003,2.186249e+000
1.883055e+003,4.344208e+000
1.884020e+003,3.555817e+000
1.884984e+003,1.575195e+000
1.885948e+003,-2.960205e-002
1.886912e+003,-1.304657e+000
1.887876e+003,-2.479401e+000
1.888841e+003,-3.413818e+000
1.889805e+003,-2.196350e+000
1.890769e+003,1.767059e+000
1.891733e+003,4.747406e+000
1.892698e+003,6.455353e+000
1.893662e+003,6.725403e+000
1.894626e+003,4.829285e+000
1.895590e+003,2.434357e+000
1.896554e+003,-3.117676e-001
1.897519e+003,-2.087860e+000
1.898483e+003,-3.180237e-001
1.899447e+003,3.609009e+000
1.900411e+003,5.088013e+000
1.901376e+003,3.300934e+000
1.902340e+003,1.316956e+000
1.903304e+003,-3.575134e-001
1.904268e+003,-9.952393e-001
1.905233e+003,7.141724e-001
1.906197e+003,2.951996e+000
1.907161e+003,4.032288e+000
1.908125e+003,4.215057e+000
1.909090e+003,3.805237e+000
1.910054e+003,3.013000e+000
1.911018e+003,2.424377e+000
1.911982e+003,2.285278e+000
1.912947e+003,2.251678e+000
1.913911e+003,2.028900e+000
1.914875e+003,2.126221e+000
1.915839e+003,3.461548e+000
1.916803e+003,5.411804e+000
1.917768e+003,5.064758e+000
1.918732e+003,1.998169e+000
1.919696e+003,-7.492065e-002
1.920660e+003,-1.214874e+000
1.921625e+003,-6.033936e-001
1.922589e+003,3.889587e+000
1.923553e+003,6.805542e+000
1.924517e+003,2.924286e+000
1.925481e+003,-1.660004e+000
1.926446e+003,-7.863159e-001
1.927410e+003,2.966644e+000
1.928374e+003,4.439423e+000
1.929338e+003,3.247253e+000
1.930303e+003,1.333801e+000
1.931267e+003,-1.244263e+000
1.932231e+003,-2.506958e+000
1.933195e+003,-1.200409e+000
1.934160e+003,9.968872e-001
1.935124e+003,3.834839e+000
1.936088e+003,6.016632e+000
1.937052e+003,5.504242e+000
1.938017e+003,3.508331e+000
1.938981e+003,2.836670e+000
1.939945e+003,3.665985e+000
1.940909e+003,3.942505e+000
1.941874e+003,2.764832e+000
1.942838e+003,1.424316e+000
1.943802e+003,1.203308e+000
1.944766e+003,2.048523e+000
1.945730e+003,3.851440e+000
1.946695e+003,6.287445e+000
1.947659e+003,7.100739e+000
1.948623e+003,6.007538e+000
1.949587e+003,6.540894e+000
1.950552e+003,9.989899e+000
1.951516e+003,1.144247e+001
1.952480e+003,8.392883e+000
1.953444e+003,4.818604e+000
1.954408e+003,3.123535e+000
1.955373e+003,2.613708e+000
1.956337e+003,2.848694e+000
1.957301e+003,3.697906e+000
1.958265e+003,4.347748e+000
1.959230e+003,4.872986e+000
1.960194e+003,4.524902e+000
1.961158e+003,1.206116e+000
1.962122e+003,-3.859253e-001
1.963087e+003,3.005188e+000
1.964051e+003,6.005280e+000
1.965015e+003,4.798462e+000
1.965979e+003,2.611664e+000
1.966944e+003,2.666412e+000
1.967908e+003,4.202271e+000
1.968872e+003,5.610382e+000
1.969836e+003,6.404053e+000
1.970801e+003,6.251251e+000
1.971765e+003,5.132935e+000
1.972729e+003,4.393799e+000
1.973693e+003,5.250793e+000
1.974657e+003,6.806335e+000
1.975622e+003,7.750397e+000
1.976586e+003,8.232635e+000
1.977550e+003,8.858124e+000
1.978514e+003,9.617218e+000
1.979479e+003,1.017236e+001
1.980443e+003,1.042673e+001
1.981407e+003,1.012070e+001
1.982371e+003,9.174500e+000
1.983335e+003,8.327423e+000
1.984300e+003,8.048737e+000
1.985264e+003,8.179443e+000
1.986228e+003,8.753082e+000
1.987192e+003,9.398407e+000
1.988157e+003,8.026794e+000
1.989121e+003,3.925079e+000
1.990085e+003,1.848145e+000
1.991049e+003,3.012329e+000
1.992014e+003,3.882599e+000
1.992978e+003,2.992584e+000
1.993942e+003,3.063812e+000
1.994906e+003,6.021637e+000
1.995871e+003,9.238953e+000
1.996835e+003,1.101190e+001
1.997799e+003,1.177271e+001
1.998763e+003,1.221878e+001
1.999728e+003,1.224509e+001
