5.003444e+002,3.462762e+001
5.013087e+002,3.565820e+001
5.022729e+002,3.593002e+001
5.032371e+002,3.568457e+001
5.042014e+002,3.528668e+001
5.051656e+002,3.478683e+001
5.061298e+002,3.415399e+001
5.070941e+002,3.329849e+001
5.080583e+002,3.206708e+001
5.090225e+002,3.090112e+001
5.099868e+002,2.972061e+001
5.109510e+002,2.864261e+001
5.119152e+002,2.771530e+001
5.128795e+002,2.694983e+001
5.138437e+002,2.643866e+001
5.148079e+002,2.592282e+001
5.157722e+002,2.599588e+001
5.167364e+002,2.770752e+001
5.177006e+002,3.056900e+001
5.186649e+002,3.243250e+001
5.196291e+002,2.962860e+001
5.205933e+002,2.535208e+001
5.215576e+002,2.280896e+001
5.225218e+002,2.225769e+001
5.234860e+002,2.291769e+001
5.244503e+002,2.361444e+001
5.254145e+002,2.463260e+001
5.263787e+002,2.522815e+001
5.273430e+002,2.524759e+001
5.283072e+002,2.495822e+001
5.292714e+002,2.469836e+001
5.302357e+002,2.445377e+001
5.311999e+002,2.359601e+001
5.321641e+002,2.205786e+001
5.331284e+002,2.042053e+001
5.340926e+002,1.879184e+001
5.350568e+002,1.706046e+001
5.360211e+002,1.601160e+001
5.369853e+002,1.775797e+001
5.379495e+002,2.001666e+001
5.389138e+002,2.044012e+001
5.398780e+002,1.828958e+001
5.408422e+002,1.493512e+001
5.418065e+002,1.443237e+001
5.427707e+002,1.636334e+001
5.437349e+002,1.810635e+001
5.446992e+002,1.895679e+001
5.456634e+002,1.913943e+001
5.466276e+002,1.955212e+001
5.475919e+002,2.170264e+001
5.485561e+002,2.211551e+001
5.495203e+002,1.903925e+001
5.504846e+002,1.456537e+001
5.514488e+002,1.186151e+001
5.524130e+002,1.278769e+001
5.533773e+002,1.419650e+001
5.543415e+002,1.487875e+001
5.553057e+002,1.486108e+001
5.562700e+002,1.383173e+001
5.572342e+002,1.159830e+001
5.581984e+002,9.034698e+000
5.591627e+002,8.476776e+000
5.601269e+002,9.376343e+000
5.610911e+002,1.073788e+001
5.620554e+002,1.205316e+001
5.630196e+002,1.320203e+001
5.639838e+002,1.366113e+001
5.649481e+002,1.349060e+001
5.659123e+002,1.259943e+001
5.668765e+002,1.060574e+001
5.678408e+002,8.074921e+000
5.688050e+002,6.329987e+000
5.697692e+002,5.616180e+000
5.707335e+002,5.441345e+000
5.716977e+002,6.066345e+000
5.726619e+002,7.080292e+000
5.736262e+002,8.035309e+000
5.745904e+002,8.676941e+000
5.755546e+002,9.077026e+000
5.765189e+002,9.152191e+000
5.774831e+002,8.913544e+000
5.784473e+002,8.611237e+000
5.794116e+002,8.486206e+000
5.803758e+002,8.609314e+000
5.813400e+002,8.407013e+000
5.823043e+002,7.700775e+000
5.832685e+002,6.621490e+000
5.842327e+002,5.248199e+000
5.851970e+002,3.731934e+000
5.861612e+002,2.308228e+000
5.871254e+002,-8.463745e-001
5.880897e+002,-1.846741e+000
5.890539e+002,1.918457e+000
5.900181e+002,7.891968e+000
5.909824e+002,1.176959e+001
5.919466e+002,1.028091e+001
5.929108e+002,7.284729e+000
5.938751e+002,7.485199e+000
5.948393e+002,9.275177e+000
5.958035e+002,1.011752e+001
5.967678e+002,8.196564e+000
5.977320e+002,4.099304e+000
5.986962e+002,1.632996e+000
5.996605e+002,3.659668e-001
6.006247e+002,1.060181e-001
6.015889e+002,1.416046e+000
6.025532e+002,4.135529e+000
6.035174e+002,5.615814e+000
6.044816e+002,4.494476e+000
6.054459e+002,3.544952e+000
6.064101e+002,2.871582e+000
6.073743e+002,2.660248e+000
6.083386e+002,3.402954e+000
6.093028e+002,6.180542e+000
6.102670e+002,8.302734e+000
6.112313e+002,7.095825e+000
6.121955e+002,4.307953e+000
6.131597e+002,2.186920e+000
6.141240e+002,2.265961e+000
6.150882e+002,3.981262e+000
6.160524e+002,5.320618e+000
6.170167e+002,6.424469e+000
6.179809e+002,7.145172e+000
6.189451e+002,7.375427e+000
6.199094e+002,7.012115e+000
6.208736e+002,5.886108e+000
6.218378e+002,2.713074e+000
6.228021e+002,6.194763e-001
6.237663e+002,4.383850e-001
6.247305e+002,1.412140e+000
6.256948e+002,2.239441e+000
6.266590e+002,2.220306e+000
6.276232e+002,2.089355e+000
6.285875e+002,2.675171e+000
6.295517e+002,3.475464e+000
6.305159e+002,3.844788e+000
6.314802e+002,3.405762e+000
6.324444e+002,2.451630e+000
6.334086e+002,2.339752e+000
6.343729e+002,2.779968e+000
6.353371e+002,2.049774e+000
6.363013e+002,-8.584290e-001
6.372656e+002,-4.949371e+000
6.382298e+002,-6.460419e+000
6.391940e+002,-1.881805e+000
6.401583e+002,6.516113e-001
6.411225e+002,1.050720e-001
6.420867e+002,-1.692963e+000
6.430510e+002,-2.688324e+000
6.440152e+002,-2.288818e+000
6.449794e+002,-1.960785e+000
6.459437e+002,-2.591400e+000
6.469079e+002,-3.490143e+000
6.478721e+002,-4.168396e+000
6.488364e+002,-4.379913e+000
6.498006e+002,-4.146790e+000
6.507648e+002,-3.363739e+000
6.517291e+002,-2.307526e+000
6.526933e+002,-1.564758e+000
6.536575e+002,-1.266724e+000
6.546218e+002,-1.202820e+000
6.555860e+002,-9.596863e-001
6.565502e+002,-4.901123e-001
6.575145e+002,5.627441e-002
6.584787e+002,9.726257e-001
6.594429e+002,1.755676e+000
6.604072e+002,2.061249e+000
6.613714e+002,1.849731e+000
6.623356e+002,1.146820e+000
6.632999e+002,-7.238464e-001
6.642641e+002,-2.692627e+000
6.652283e+002,-4.033875e+000
6.661926e+002,-4.683105e+000
6.671568e+002,-5.191559e+000
6.681210e+002,-6.547272e+000
6.690853e+002,-8.016479e+000
6.700495e+002,-7.488037e+000
6.710137e+002,-5.030151e+000
6.719780e+002,-2.170532e+000
6.729422e+002,-5.541992e-001
6.739064e+002,-5.492249e-001
6.748707e+002,-5.932617e-002
6.758349e+002,1.940125e+000
6.767991e+002,3.078918e+000
6.777634e+002,1.705444e+000
6.787276e+002,-1.605255e+000
6.796918e+002,-3.376892e+000
6.806561e+002,-8.095398e-001
6.816203e+002,1.599701e+000
6.825845e+002,1.893127e+000
6.835488e+002,8.761597e-001
6.845130e+002,2.666016e-001
6.854772e+002,1.488586e+000
6.864415e+002,3.244110e+000
6.874057e+002,1.559357e+000
6.883699e+002,-2.397064e+000
6.893342e+002,-4.959656e+000
6.902984e+002,-3.895142e+000
6.912626e+002,1.322632e-001
6.922269e+002,2.161041e+000
6.931911e+002,5.827332e-001
6.941553e+002,-3.768311e-001
6.951196e+002,-2.954712e-001
6.960838e+002,2.511292e-001
6.970480e+002,3.424988e-001
6.980123e+002,-5.905151e-001
6.989765e+002,-6.875000e-001
6.999407e+002,1.889465e+000
7.009050e+002,4.623871e+000
7.018692e+002,5.108307e+000
7.028334e+002,2.738983e+000
7.037977e+002,-5.041504e-001
7.047619e+002,-1.369202e+000
7.057261e+002,-5.785522e-001
7.066904e+002,2.884521e-001
7.076546e+002,9.750671e-001
7.086188e+002,1.489777e+000
7.095831e+002,1.838165e+000
7.105473e+002,1.946472e+000
7.115115e+002,1.765076e+000
7.124758e+002,1.530853e+000
7.134400e+002,7.674255e-001
7.144042e+002,-1.474792e+000
7.153685e+002,-5.025269e+000
7.163327e+002,-6.831879e+000
7.172969e+002,-2.715668e+000
7.182612e+002,9.465332e-001
7.192254e+002,8.159790e-001
7.201896e+002,-1.930267e+000
7.211539e+002,-4.318542e+000
7.221181e+002,-3.790558e+000
7.230823e+002,-1.562561e+000
7.240466e+002,-1.167053e+000
7.250108e+002,-2.055206e+000
7.259750e+002,-2.642059e+000
7.269393e+002,-2.082611e+000
7.279035e+002,-7.270508e-001
7.288677e+002,-1.377563e-001
7.298320e+002,-9.308472e-001
7.307962e+002,-1.070343e+000
7.317604e+002,-1.617432e-002
7.327247e+002,1.645813e+000
7.336889e+002,3.098450e+000
7.346531e+002,4.030701e+000
7.356174e+002,4.008667e+000
7.365816e+002,2.827576e+000
7.375458e+002,1.351807e+000
7.385101e+002,1.783752e-001
7.394743e+002,-5.426941e-001
7.404385e+002,-1.152466e+000
7.414028e+002,-2.393402e+000
7.423670e+002,-4.238525e+000
7.433312e+002,-5.056976e+000
7.442955e+002,-4.428680e+000
7.452597e+002,-3.187927e+000
7.462239e+002,-2.459381e+000
7.471882e+002,-2.608490e+000
7.481524e+002,-1.977753e+000
7.491166e+002,-1.705933e-001
7.500809e+002,1.355865e+000
7.510451e+002,2.376282e+000
7.520093e+002,2.717133e+000
7.529736e+002,1.900635e+000
7.539378e+002,-9.198303e-001
7.549020e+002,-3.605804e+000
7.558663e+002,-5.426941e+000
7.568306e+002,-6.160614e+000
7.577948e+002,-5.248871e+000
7.587590e+002,-2.523376e+000
7.597233e+002,1.078522e+000
7.606875e+002,3.091309e+000
7.616517e+002,3.793030e+000
7.626160e+002,3.866669e+000
7.635802e+002,3.186584e+000
7.645444e+002,2.305664e+000
7.655087e+002,2.422028e+000
7.664729e+002,4.157654e+000
7.674371e+002,5.444458e+000
7.684014e+002,6.689789e+000
7.693656e+002,7.070465e+000
7.703298e+002,5.431793e+000
7.712941e+002,1.984283e+000
7.722583e+002,-7.882996e-001
7.732225e+002,-5.261230e-001
7.741868e+002,6.818542e-001
7.751510e+002,1.306274e+000
7.761152e+002,1.435516e+000
7.770795e+002,1.704010e+000
7.780437e+002,2.658020e+000
7.790079e+002,4.071198e+000
7.799722e+002,4.149384e+000
7.809364e+002,2.827362e+000
7.819006e+002,1.563110e+000
7.828649e+002,1.093781e+000
7.838291e+002,1.268311e+000
7.847933e+002,1.266510e+000
7.857576e+002,4.729309e-001
7.867218e+002,7.550049e-002
7.876860e+002,1.087982e+000
7.886503e+002,2.255768e+000
7.896145e+002,2.070313e+000
7.905787e+002,3.048401e-001
7.915430e+002,-9.164124e-001
7.925072e+002,1.725372e+000
7.934714e+002,5.256134e+000
7.944357e+002,6.541931e+000
7.953999e+002,5.582855e+000
7.963641e+002,3.737488e+000
7.973284e+002,2.394745e+000
7.982926e+002,1.534210e+000
7.992568e+002,2.133820e+000
8.002211e+002,5.017456e+000
8.011853e+002,6.882751e+000
8.021495e+002,6.168701e+000
8.031138e+002,3.854034e+000
8.040780e+002,2.734711e+000
8.050422e+002,3.481476e+000
8.060065e+002,4.829987e+000
8.069707e+002,6.790985e+000
8.079349e+002,8.604675e+000
8.088992e+002,9.584869e+000
8.098634e+002,9.583710e+000
8.108276e+002,9.115295e+000
8.117919e+002,8.529175e+000
8.127561e+002,7.731293e+000
8.137203e+002,7.319611e+000
8.146846e+002,7.502258e+000
8.156488e+002,7.445129e+000
8.166130e+002,5.830017e+000
8.175773e+002,2.036194e+000
8.185415e+002,1.820374e-001
8.195057e+002,1.260986e+000
8.204700e+002,2.336151e+000
8.214342e+002,2.070862e+000
8.223984e+002,1.074493e+000
8.233627e+002,1.192841e+000
8.243269e+002,3.735840e+000
8.252911e+002,6.250305e+000
8.262554e+002,7.902679e+000
8.272196e+002,8.485535e+000
8.281838e+002,6.961426e+000
8.291481e+002,3.437469e+000
8.301123e+002,3.543091e-002
8.310765e+002,9.602356e-001
8.320408e+002,5.752075e+000
8.330050e+002,8.207947e+000
8.339692e+002,7.688721e+000
8.349335e+002,5.960297e+000
8.358977e+002,4.605469e+000
8.368619e+002,3.678741e+000
8.378262e+002,3.405884e+000
8.387904e+002,4.433014e+000
8.397546e+002,5.101807e+000
8.407189e+002,4.605225e+000
8.416831e+002,3.600708e+000
8.426473e+002,3.344971e+000
8.436116e+002,4.550537e+000
8.445758e+002,6.065247e+000
8.455400e+002,6.516327e+000
8.465043e+002,6.294647e+000
8.474685e+002,5.970428e+000
8.484327e+002,5.845978e+000
8.493970e+002,5.878052e+000
8.503612e+002,5.775452e+000
8.513254e+002,5.397064e+000
8.522897e+002,5.495239e+000
8.532539e+002,6.144501e+000
8.542181e+002,6.885925e+000
8.551824e+002,7.954041e+000
8.561466e+002,9.365509e+000
8.571108e+002,9.815796e+000
8.580751e+002,6.916595e+000
8.590393e+002,5.097229e+000
8.600035e+002,6.867950e+000
8.609678e+002,1.011661e+001
8.619320e+002,1.247446e+001
8.628962e+002,1.294122e+001
8.638605e+002,1.240393e+001
8.648247e+002,1.188489e+001
8.657889e+002,1.143185e+001
8.667532e+002,1.120618e+001
8.677174e+002,1.123190e+001
8.686816e+002,1.154642e+001
8.696459e+002,1.223230e+001
8.706101e+002,1.337323e+001
8.715743e+002,1.492032e+001
8.725386e+002,1.787936e+001
8.735028e+002,1.999268e+001
8.744670e+002,2.021124e+001
8.754313e+002,1.907520e+001
8.763955e+002,1.762207e+001
8.773597e+002,1.604086e+001
8.783240e+002,1.501581e+001
8.792882e+002,1.507401e+001
8.802524e+002,1.565042e+001
8.812167e+002,1.648044e+001
8.821809e+002,1.739990e+001
8.831451e+002,1.828418e+001
8.841094e+002,1.901520e+001
8.850736e+002,1.967111e+001
8.860378e+002,1.988245e+001
8.870021e+002,1.940631e+001
8.879663e+002,1.904062e+001
8.889305e+002,1.930933e+001
8.898948e+002,2.000009e+001
8.908590e+002,2.018823e+001
8.918232e+002,1.910974e+001
8.927875e+002,1.906631e+001
8.937517e+002,2.146689e+001
8.947159e+002,2.430368e+001
8.956802e+002,2.548123e+001
8.966444e+002,2.468707e+001
8.976086e+002,2.391064e+001
8.985729e+002,2.578616e+001
8.995371e+002,2.865686e+001
9.005013e+002,2.907520e+001
9.014656e+002,2.754599e+001
9.024298e+002,2.669974e+001
9.033940e+002,2.857526e+001
9.043583e+002,3.251273e+001
9.053225e+002,3.423038e+001
9.062867e+002,3.128870e+001
9.072510e+002,2.888651e+001
9.082152e+002,2.734164e+001
9.091794e+002,2.661548e+001
9.101437e+002,2.681979e+001
9.111079e+002,2.796860e+001
9.120721e+002,2.915378e+001
9.130364e+002,3.019614e+001
9.140006e+002,3.046240e+001
9.149648e+002,2.903360e+001
9.159291e+002,2.678809e+001
9.168933e+002,2.525229e+001
9.178575e+002,2.542123e+001
9.188218e+002,2.686636e+001
9.197860e+002,2.877267e+001
9.207502e+002,3.116138e+001
9.217145e+002,3.187689e+001
9.226787e+002,2.985959e+001
9.236429e+002,2.698709e+001
9.246072e+002,2.573892e+001
9.255714e+002,2.635919e+001
9.265356e+002,2.663199e+001
9.274999e+002,2.551105e+001
9.284641e+002,2.459219e+001
9.294283e+002,2.504669e+001
9.303926e+002,2.608121e+001
9.313568e+002,2.605566e+001
9.323210e+002,2.405270e+001
9.332853e+002,2.138297e+001
9.342495e+002,1.995828e+001
9.352137e+002,1.931705e+001
9.361780e+002,1.930078e+001
9.371422e+002,1.995486e+001
9.381064e+002,2.070828e+001
9.390707e+002,2.055972e+001
9.400349e+002,1.909286e+001
9.409991e+002,1.842926e+001
9.419634e+002,1.977112e+001
9.429276e+002,2.020145e+001
9.438918e+002,1.741428e+001
9.448561e+002,1.379413e+001
9.458203e+002,1.405762e+001
9.467845e+002,2.042789e+001
9.477488e+002,2.627124e+001
9.487130e+002,2.546634e+001
9.496772e+002,2.280096e+001
9.506415e+002,2.205597e+001
9.516057e+002,2.329498e+001
9.525699e+002,2.402692e+001
9.535342e+002,2.172177e+001
9.544984e+002,1.698077e+001
9.554626e+002,1.609082e+001
9.564269e+002,2.010938e+001
9.573911e+002,2.313388e+001
9.583553e+002,2.273401e+001
9.593196e+002,2.072720e+001
9.602838e+002,2.032996e+001
9.612480e+002,2.223175e+001
9.622123e+002,2.306290e+001
9.631765e+002,2.027045e+001
9.641407e+002,1.789783e+001
9.651050e+002,1.842346e+001
9.660692e+002,2.072086e+001
9.670334e+002,2.215234e+001
9.679977e+002,2.115387e+001
9.689619e+002,1.906436e+001
9.699261e+002,1.825317e+001
9.708904e+002,1.830838e+001
9.718546e+002,1.866058e+001
9.728188e+002,1.914072e+001
9.737831e+002,1.978531e+001
9.747473e+002,2.079501e+001
9.757115e+002,2.234714e+001
9.766758e+002,2.359119e+001
9.776400e+002,2.442856e+001
9.786042e+002,2.533902e+001
9.795685e+002,2.646075e+001
9.805327e+002,2.748257e+001
9.814969e+002,2.827029e+001
9.824612e+002,2.888391e+001
9.834254e+002,2.890765e+001
9.843896e+002,2.711929e+001
9.853539e+002,2.468088e+001
9.863181e+002,2.312067e+001
9.872823e+002,2.221155e+001
9.882466e+002,2.055319e+001
9.892108e+002,1.704276e+001
9.901750e+002,1.241168e+001
9.911393e+002,1.062317e+001
9.921035e+002,1.346146e+001
9.930677e+002,1.555167e+001
9.940320e+002,1.617392e+001
9.949962e+002,1.669540e+001
9.959604e+002,1.875809e+001
9.969247e+002,2.238620e+001
9.978889e+002,2.502896e+001
9.988531e+002,2.428711e+001
9.998174e+002,2.322174e+001
1.000782e+003,2.388980e+001
1.001746e+003,2.568179e+001
1.002710e+003,2.769916e+001
1.003674e+003,2.942432e+001
1.004639e+003,3.065698e+001
1.005603e+003,3.092206e+001
1.006567e+003,3.005713e+001
1.007531e+003,3.076239e+001
1.008495e+003,3.403381e+001
1.009460e+003,3.689307e+001
1.010424e+003,3.765607e+001
1.011388e+003,3.664084e+001
1.012352e+003,3.473495e+001
1.013317e+003,3.100952e+001
1.014281e+003,2.833905e+001
1.015245e+003,2.834610e+001
1.016209e+003,2.869424e+001
1.017174e+003,2.782626e+001
1.018138e+003,2.562262e+001
1.019102e+003,2.278723e+001
1.020066e+003,1.983881e+001
1.021031e+003,1.706631e+001
1.021995e+003,1.504150e+001
1.022959e+003,1.349026e+001
1.023923e+003,1.224664e+001
1.024887e+003,1.141617e+001
1.025852e+003,1.052332e+001
1.026816e+003,8.613281e+000
1.027780e+003,5.329468e+000
1.028744e+003,3.330719e+000
1.029709e+003,3.466248e+000
1.030673e+003,4.057037e+000
1.031637e+003,4.989777e+000
1.032601e+003,5.842773e+000
1.033566e+003,6.207550e+000
1.034530e+003,5.985870e+000
1.035494e+003,5.347992e+000
1.036458e+003,4.025330e+000
1.037422e+003,2.564667e+000
1.038387e+003,2.013184e+000
1.039351e+003,2.299561e+000
1.040315e+003,2.739594e+000
1.041279e+003,2.863800e+000
1.042244e+003,2.857208e+000
1.043208e+003,3.379639e+000
1.044172e+003,5.041840e+000
1.045136e+003,5.820496e+000
1.046101e+003,5.039856e+000
1.047065e+003,4.204468e+000
1.048029e+003,4.003754e+000
1.048993e+003,4.517853e+000
1.049958e+003,6.129547e+000
1.050922e+003,9.910889e+000
1.051886e+003,1.276736e+001
1.052850e+003,1.027408e+001
1.053814e+003,5.626556e+000
1.054779e+003,2.792236e+000
1.055743e+003,2.643402e+000
1.056707e+003,3.841370e+000
1.057671e+003,4.852722e+000
1.058636e+003,5.646515e+000
1.059600e+003,5.814453e+000
1.060564e+003,4.709961e+000
1.061528e+003,4.333313e+000
1.062493e+003,5.701477e+000
1.063457e+003,7.138580e+000
1.064421e+003,6.384308e+000
1.065385e+003,3.331085e+000
1.066349e+003,1.356354e+000
1.067314e+003,2.901001e+000
1.068278e+003,5.257751e+000
1.069242e+003,6.951111e+000
1.070206e+003,8.010529e+000
1.071171e+003,8.415802e+000
1.072135e+003,8.160095e+000
1.073099e+003,7.510254e+000
1.074063e+003,7.066193e+000
1.075028e+003,6.950745e+000
1.075992e+003,5.955719e+000
1.076956e+003,2.950317e+000
1.077920e+003,8.057556e-001
1.078885e+003,1.092255e+000
1.079849e+003,2.930054e+000
1.080813e+003,4.861084e+000
1.081777e+003,6.875732e+000
1.082741e+003,8.109283e+000
1.083706e+003,7.024994e+000
1.084670e+003,5.632080e+000
1.085634e+003,5.150787e+000
1.086598e+003,5.208496e+000
1.087563e+003,4.891449e+000
1.088527e+003,3.778900e+000
1.089491e+003,2.367828e+000
1.090455e+003,1.363098e+000
1.091420e+003,6.975098e-001
1.092384e+003,6.063538e-001
1.093348e+003,1.366730e+000
1.094312e+003,1.963196e+000
1.095276e+003,1.717468e+000
1.096241e+003,1.037170e+000
1.097205e+003,1.021179e+000
1.098169e+003,2.067108e+000
1.099133e+003,2.625458e+000
1.100098e+003,1.351563e+000
1.101062e+003,2.776794e-001
1.102026e+003,1.226807e+000
1.102990e+003,3.435760e+000
1.103955e+003,4.716858e+000
1.104919e+003,3.737122e+000
1.105883e+003,1.719177e+000
1.106847e+003,1.440857e+000
1.107812e+003,2.923523e+000
1.108776e+003,3.723419e+000
1.109740e+003,3.392059e+000
1.110704e+003,3.104431e+000
1.111668e+003,4.098969e+000
1.112633e+003,6.071930e+000
1.113597e+003,7.224609e+000
1.114561e+003,7.020660e+000
1.115525e+003,6.527954e+000
1.116490e+003,5.095764e+000
1.117454e+003,4.375244e+000
1.118418e+003,6.589844e+000
1.119382e+003,1.055273e+001
1.120347e+003,1.283911e+001
1.121311e+003,1.124579e+001
1.122275e+003,7.809631e+000
1.123239e+003,7.263367e+000
1.124203e+003,9.507660e+000
1.125168e+003,1.022943e+001
1.126132e+003,8.440033e+000
1.127096e+003,7.028748e+000
1.128060e+003,8.801025e+000
1.129025e+003,1.282861e+001
1.129989e+003,1.469299e+001
1.130953e+003,1.281921e+001
1.131917e+003,1.156213e+001
1.132882e+003,1.239389e+001
1.133846e+003,1.392041e+001
1.134810e+003,1.565881e+001
1.135774e+003,1.735034e+001
1.136739e+003,1.870895e+001
1.137703e+003,1.956851e+001
1.138667e+003,2.014276e+001
1.139631e+003,2.062817e+001
1.140595e+003,2.117197e+001
1.141560e+003,2.298438e+001
1.142524e+003,2.647845e+001
1.143488e+003,3.041107e+001
1.144452e+003,3.390540e+001
1.145417e+003,3.710901e+001
1.146381e+003,4.037088e+001
1.147345e+003,4.303976e+001
1.148309e+003,4.751065e+001
1.149274e+003,5.527820e+001
1.150238e+003,6.402188e+001
1.151202e+003,7.290402e+001
1.152166e+003,8.195975e+001
1.153130e+003,9.209564e+001
1.154095e+003,1.033544e+002
1.155059e+003,1.130800e+002
1.156023e+003,1.174051e+002
1.156987e+003,1.167981e+002
1.157952e+003,1.163133e+002
1.158916e+003,1.163160e+002
1.159880e+003,1.161291e+002
1.160844e+003,1.162346e+002
1.161809e+003,1.151224e+002
1.162773e+003,1.093903e+002
1.163737e+003,9.812381e+001
1.164701e+003,8.642542e+001
1.165666e+003,7.378955e+001
1.166630e+003,6.310367e+001
1.167594e+003,5.579541e+001
1.168558e+003,5.092111e+001
1.169522e+003,4.751422e+001
1.170487e+003,4.504599e+001
1.171451e+003,4.310391e+001
1.172415e+003,4.110626e+001
1.173379e+003,3.928641e+001
1.174344e+003,3.942349e+001
1.175308e+003,4.169482e+001
1.176272e+003,4.327484e+001
1.177236e+003,4.351862e+001
1.178201e+003,4.254117e+001
1.179165e+003,3.981876e+001
1.180129e+003,3.519769e+001
1.181093e+003,3.173508e+001
1.182057e+003,3.071851e+001
1.183022e+003,3.017633e+001
1.183986e+003,2.965781e+001
1.184950e+003,2.901401e+001
1.185914e+003,2.804694e+001
1.186879e+003,2.686456e+001
1.187843e+003,2.568216e+001
1.188807e+003,2.460126e+001
1.189771e+003,2.394711e+001
1.190736e+003,2.526999e+001
1.191700e+003,2.889764e+001
1.192664e+003,3.070560e+001
1.193628e+003,2.939502e+001
1.194593e+003,2.763022e+001
1.195557e+003,2.750146e+001
1.196521e+003,2.841162e+001
1.197485e+003,2.828058e+001
1.198449e+003,2.662872e+001
1.199414e+003,2.456598e+001
1.200378e+003,2.156979e+001
1.201342e+003,1.927649e+001
1.202306e+003,1.928091e+001
1.203271e+003,2.067578e+001
1.204235e+003,2.164282e+001
1.205199e+003,2.127484e+001
1.206163e+003,1.997485e+001
1.207128e+003,1.826929e+001
1.208092e+003,1.612466e+001
1.209056e+003,1.518930e+001
1.210020e+003,1.671991e+001
1.210984e+003,1.684064e+001
1.211949e+003,1.333694e+001
1.212913e+003,8.453644e+000
1.213877e+003,5.203003e+000
1.214841e+003,3.792206e+000
1.215806e+003,2.180084e+000
1.216770e+003,-1.202759e+000
1.217734e+003,-3.724243e+000
1.218698e+003,-2.880768e+000
1.219663e+003,-8.423767e-001
1.220627e+003,-2.804871e-001
1.221591e+003,-1.588806e+000
1.222555e+003,-3.361694e+000
1.223520e+003,-4.269257e+000
1.224484e+003,-4.556030e+000
1.225448e+003,-5.703247e+000
1.226412e+003,-8.653137e+000
1.227376e+003,-1.033751e+001
1.228341e+003,-1.016281e+001
1.229305e+003,-9.541229e+000
1.230269e+003,-9.160034e+000
1.231233e+003,-8.911377e+000
1.232198e+003,-8.253479e+000
1.233162e+003,-6.933609e+000
1.234126e+003,-6.086914e+000
1.235090e+003,-6.992798e+000
1.236055e+003,-8.555740e+000
1.237019e+003,-9.843903e+000
1.237983e+003,-1.076758e+001
1.238947e+003,-1.093213e+001
1.239911e+003,-1.012665e+001
1.240876e+003,-9.107941e+000
1.241840e+003,-9.091522e+000
1.242804e+003,-1.012292e+001
1.243768e+003,-1.112971e+001
1.244733e+003,-1.299626e+001
1.245697e+003,-1.352771e+001
1.246661e+003,-1.206987e+001
1.247625e+003,-9.916824e+000
1.248590e+003,-7.325455e+000
1.249554e+003,-4.758087e+000
1.250518e+003,-3.363922e+000
1.251482e+003,-3.779114e+000
1.252447e+003,-5.077545e+000
1.253411e+003,-6.529099e+000
1.254375e+003,-7.671646e+000
1.255339e+003,-7.328491e+000
1.256303e+003,-5.492706e+000
1.257268e+003,-4.127747e+000
1.258232e+003,-4.637909e+000
1.259196e+003,-6.189636e+000
1.260160e+003,-6.894791e+000
1.261125e+003,-6.507477e+000
1.262089e+003,-6.021088e+000
1.263053e+003,-5.961487e+000
1.264017e+003,-5.493652e+000
1.264982e+003,-4.098663e+000
1.265946e+003,-2.352051e+000
1.266910e+003,-6.351624e-001
1.267874e+003,8.831787e-001
1.268839e+003,2.113953e+000
1.269803e+003,2.999268e+000
1.270767e+003,3.536316e+000
1.271731e+003,3.692841e+000
1.272695e+003,3.516174e+000
1.273660e+003,3.222473e+000
1.274624e+003,2.666412e+000
1.275588e+003,1.814941e+000
1.276552e+003,8.511963e-001
1.277517e+003,-2.680054e-001
1.278481e+003,-2.067841e+000
1.279445e+003,-4.729004e+000
1.280409e+003,-6.509521e+000
1.281374e+003,-6.569244e+000
1.282338e+003,-5.868225e+000
1.283302e+003,-4.144012e+000
1.284266e+003,-2.508911e+000
1.285230e+003,-2.396545e+000
1.286195e+003,-3.822815e+000
1.287159e+003,-5.648193e+000
1.288123e+003,-6.883743e+000
1.289087e+003,-7.519180e+000
1.290052e+003,-7.733765e+000
1.291016e+003,-7.354401e+000
1.291980e+003,-7.605591e+000
1.292944e+003,-9.716858e+000
1.293909e+003,-1.106020e+001
1.294873e+003,-9.432114e+000
1.295837e+003,-6.918732e+000
1.296801e+003,-7.079529e+000
1.297766e+003,-1.009232e+001
1.298730e+003,-1.172633e+001
1.299694e+003,-9.084106e+000
1.300658e+003,-5.716675e+000
1.301622e+003,-5.503433e+000
1.302587e+003,-7.123703e+000
1.303551e+003,-8.975800e+000
1.304515e+003,-1.060638e+001
1.305479e+003,-1.158282e+001
1.306444e+003,-1.160628e+001
1.307408e+003,-1.084390e+001
1.308372e+003,-9.589386e+000
1.309336e+003,-7.625229e+000
1.310301e+003,-5.877167e+000
1.311265e+003,-4.173828e+000
1.312229e+003,-2.804871e+000
1.313193e+003,-1.633484e+000
1.314157e+003,-1.064941e+000
1.315122e+003,-1.809845e+000
1.316086e+003,-3.704926e+000
1.317050e+003,-5.714584e+000
1.318014e+003,-7.109680e+000
1.318979e+003,-8.180939e+000
1.319943e+003,-9.855515e+000
1.320907e+003,-1.179662e+001
1.321871e+003,-1.172322e+001
1.322836e+003,-9.211197e+000
1.323800e+003,-6.486618e+000
1.324764e+003,-4.337814e+000
1.325728e+003,-2.851807e+000
1.326693e+003,-2.460968e+000
1.327657e+003,-3.265259e+000
1.328621e+003,-3.932144e+000
1.329585e+003,-3.731186e+000
1.330549e+003,-3.253357e+000
1.331514e+003,-2.681061e+000
1.332478e+003,-2.634491e+000
1.333442e+003,-4.232269e+000
1.334406e+003,-6.799210e+000
1.335371e+003,-8.180588e+000
1.336335e+003,-7.116653e+000
1.337299e+003,-4.798889e+000
1.338263e+003,-3.498535e+000
1.339228e+003,-3.278625e+000
1.340192e+003,-3.455185e+000
1.341156e+003,-4.071899e+000
1.342120e+003,-4.998566e+000
1.343084e+003,-6.889587e+000
1.344049e+003,-8.710175e+000
1.345013e+003,-9.546982e+000
1.345977e+003,-9.387146e+000
1.346941e+003,-8.467224e+000
1.347906e+003,-6.828690e+000
1.348870e+003,-5.286514e+000
1.349834e+003,-4.688065e+000
1.350798e+003,-4.721771e+000
1.351763e+003,-4.606003e+000
1.352727e+003,-4.335571e+000
1.353691e+003,-4.129288e+000
1.354655e+003,-4.079620e+000
1.355620e+003,-4.008911e+000
1.356584e+003,-3.218201e+000
1.357548e+003,-1.928131e+000
1.358512e+003,-2.982208e+000
1.359476e+003,-8.310532e+000
1.360441e+003,-1.160390e+001
1.361405e+003,-9.954163e+000
1.362369e+003,-7.260971e+000
1.363333e+003,-4.120636e+000
1.364298e+003,-1.731934e+000
1.365262e+003,-2.128479e+000
1.366226e+003,-5.183395e+000
1.367190e+003,-7.973648e+000
1.368155e+003,-7.870956e+000
1.369119e+003,-5.879868e+000
1.370083e+003,-5.133286e+000
1.371047e+003,-5.937057e+000
1.372011e+003,-6.517349e+000
1.372976e+003,-7.242645e+000
1.373940e+003,-7.557419e+000
1.374904e+003,-7.038620e+000
1.375868e+003,-6.029953e+000
1.376833e+003,-4.695465e+000
1.377797e+003,-3.273804e+000
1.378761e+003,-2.817230e+000
1.379725e+003,-3.991547e+000
1.380690e+003,-5.418930e+000
1.381654e+003,-5.654449e+000
1.382618e+003,-5.207199e+000
1.383582e+003,-4.596786e+000
1.384547e+003,-3.940338e+000
1.385511e+003,-3.721054e+000
1.386475e+003,-4.407028e+000
1.387439e+003,-5.083694e+000
1.388403e+003,-3.785736e+000
1.389368e+003,-5.397949e-001
1.390332e+003,3.790894e-001
1.391296e+003,-2.756393e+000
1.392260e+003,-4.770782e+000
1.393225e+003,-3.558426e+000
1.394189e+003,-2.114761e+000
1.395153e+003,-2.134445e+000
1.396117e+003,-3.042053e+000
1.397082e+003,-3.765457e+000
1.398046e+003,-3.948730e+000
1.399010e+003,-3.905365e+000
1.399974e+003,-3.986649e+000
1.400938e+003,-4.349640e+000
1.401903e+003,-5.156464e+000
1.402867e+003,-6.417160e+000
1.403831e+003,-6.292435e+000
1.404795e+003,-3.585953e+000
1.405760e+003,-1.487656e+000
1.406724e+003,-1.834625e+000
1.407688e+003,-3.270111e+000
1.408652e+003,-4.071472e+000
1.409617e+003,-4.004669e+000
1.410581e+003,-3.606018e+000
1.411545e+003,-3.057327e+000
1.412509e+003,-2.412445e+000
1.413474e+003,-1.812576e+000
1.414438e+003,-1.316345e+000
1.415402e+003,-3.546143e-001
1.416366e+003,9.137573e-001
1.417330e+003,7.141724e-001
1.418295e+003,-1.964890e+000
1.419259e+003,-5.096451e+000
1.420223e+003,-6.480865e+000
1.421187e+003,-6.370209e+000
1.422152e+003,-5.674866e+000
1.423116e+003,-3.910110e+000
1.424080e+003,-2.767532e+000
1.425044e+003,-4.001526e+000
1.426009e+003,-4.798965e+000
1.426973e+003,-3.629166e+000
1.427937e+003,-1.605789e+000
1.428901e+003,1.428528e-001
1.429865e+003,1.381866e+000
1.430830e+003,2.252914e+000
1.431794e+003,2.800919e+000
1.432758e+003,3.008148e+000
1.433722e+003,2.977997e+000
1.434687e+003,2.862610e+000
1.435651e+003,3.082703e+000
1.436615e+003,3.492584e+000
1.437579e+003,3.558411e+000
1.438544e+003,3.122192e+000
1.439508e+003,2.564194e+000
1.440472e+003,2.193253e+000
1.441436e+003,2.032364e+000
1.442401e+003,1.992447e+000
1.443365e+003,1.991974e+000
1.444329e+003,1.891022e+000
1.445293e+003,1.555542e+000
1.446257e+003,1.315948e+000
1.447222e+003,1.877808e+000
1.448186e+003,3.051727e+000
1.449150e+003,3.948547e+000
1.450114e+003,4.529160e+000
1.451079e+003,4.511703e+000
1.452043e+003,3.068161e+000
1.453007e+003,1.595779e+000
1.453971e+003,2.532562e+000
1.454936e+003,5.375916e+000
1.455900e+003,6.388885e+000
1.456864e+003,4.335632e+000
1.457828e+003,2.295807e+000
1.458792e+003,2.213104e+000
1.459757e+003,2.543274e+000
1.460721e+003,1.927628e+000
1.461685e+003,7.877045e-001
1.462649e+003,2.055359e-002
1.463614e+003,-5.055237e-002
1.464578e+003,6.441803e-001
1.465542e+003,2.359222e+000
1.466506e+003,4.328369e+000
1.467471e+003,4.157806e+000
1.468435e+003,1.352112e+000
1.469399e+003,-3.293762e-001
1.470363e+003,-4.589691e-001
1.471328e+003,-3.388977e-002
1.472292e+003,1.270447e+000
1.473256e+003,2.267960e+000
1.474220e+003,1.898972e+000
1.475184e+003,9.337616e-001
1.476149e+003,8.081818e-001
1.477113e+003,1.857788e+000
1.478077e+003,3.260406e+000
1.479041e+003,4.343567e+000
1.480006e+003,5.142548e+000
1.480970e+003,5.430267e+000
1.481934e+003,4.833755e+000
1.482898e+003,4.725479e+000
1.483863e+003,5.603989e+000
1.484827e+003,6.153854e+000
1.485791e+003,5.471191e+000
1.486755e+003,5.019745e+000
1.487719e+003,6.660675e+000
1.488684e+003,9.469666e+000
1.489648e+003,1.062714e+001
1.490612e+003,9.364319e+000
1.491576e+003,8.329132e+000
1.492541e+003,9.733963e+000
1.493505e+003,1.249135e+001
1.494469e+003,1.430983e+001
1.495433e+003,1.522426e+001
1.496398e+003,1.630257e+001
1.497362e+003,1.792648e+001
1.498326e+003,1.960037e+001
1.499290e+003,2.088776e+001
1.500255e+003,2.215762e+001
1.501219e+003,2.386337e+001
1.502183e+003,2.593936e+001
1.503147e+003,2.811603e+001
1.504111e+003,3.029439e+001
1.505076e+003,3.275417e+001
1.506040e+003,3.544548e+001
1.507004e+003,3.882481e+001
1.507968e+003,4.351422e+001
1.508933e+003,4.908109e+001
1.509897e+003,5.434995e+001
1.510861e+003,5.939697e+001
1.511825e+003,6.616840e+001
1.512790e+003,7.630560e+001
1.513754e+003,8.802991e+001
1.514718e+003,9.792628e+001
1.515682e+003,1.058774e+002
1.516646e+003,1.151003e+002
1.517611e+003,1.268795e+002
1.518575e+003,1.377820e+002
1.519539e+003,1.464356e+002
1.520503e+003,1.545290e+002
1.521468e+003,1.643585e+002
1.522432e+003,1.733211e+002
1.523396e+003,1.771418e+002
1.524360e+003,1.759657e+002
1.525325e+003,1.743243e+002
1.526289e+003,1.752534e+002
1.527253e+003,1.760595e+002
1.528217e+003,1.714966e+002
1.529182e+003,1.615905e+002
1.530146e+003,1.538780e+002
1.531110e+003,1.517085e+002
1.532074e+003,1.450690e+002
1.533039e+003,1.299785e+002
1.534003e+003,1.140055e+002
1.534967e+003,1.005670e+002
1.535931e+003,8.854259e+001
1.536896e+003,7.598521e+001
1.537860e+003,6.318294e+001
1.538824e+003,5.174141e+001
1.539788e+003,4.244785e+001
1.540752e+003,3.500070e+001
1.541717e+003,2.907416e+001
1.542681e+003,2.476096e+001
1.543645e+003,2.206464e+001
1.544609e+003,2.215549e+001
1.545573e+003,2.127109e+001
1.546538e+003,1.840828e+001
1.547502e+003,1.552919e+001
1.548466e+003,1.324699e+001
1.549430e+003,1.170052e+001
1.550395e+003,1.120929e+001
1.551359e+003,1.133569e+001
1.552323e+003,1.110065e+001
1.553287e+003,1.018823e+001
1.554252e+003,9.072083e+000
1.555216e+003,8.148041e+000
1.556180e+003,7.280426e+000
1.557144e+003,6.024155e+000
1.558109e+003,4.424789e+000
1.559073e+003,3.816437e+000
1.560037e+003,4.462540e+000
1.561001e+003,5.166046e+000
1.561966e+003,5.840454e+000
1.562930e+003,6.493073e+000
1.563894e+003,6.962341e+000
1.564858e+003,7.289978e+000
1.565823e+003,7.815186e+000
1.566787e+003,8.538025e+000
1.567751e+003,8.582077e+000
1.568715e+003,7.250992e+000
1.569679e+003,5.839706e+000
1.570644e+003,6.102066e+000
1.571608e+003,7.388214e+000
1.572572e+003,7.816650e+000
1.573536e+003,7.385773e+000
1.574500e+003,7.986267e+000
1.575465e+003,1.112167e+001
1.576429e+003,1.395087e+001
1.577393e+003,1.392270e+001
1.578357e+003,1.199696e+001
1.579322e+003,9.454239e+000
1.580286e+003,6.675674e+000
1.581250e+003,6.353378e+000
1.582214e+003,1.004210e+001
1.583179e+003,1.349542e+001
1.584143e+003,1.290051e+001
1.585107e+003,1.085370e+001
1.586071e+003,1.115485e+001
1.587036e+003,1.326065e+001
1.588000e+003,1.521893e+001
1.588964e+003,1.658569e+001
1.589928e+003,1.671999e+001
1.590893e+003,1.417043e+001
1.591857e+003,1.118932e+001
1.592821e+003,1.207683e+001
1.593785e+003,1.589685e+001
1.594750e+003,1.643109e+001
1.595714e+003,1.214456e+001
1.596678e+003,9.367889e+000
1.597642e+003,1.151044e+001
1.598606e+003,1.467386e+001
1.599571e+003,1.635934e+001
1.600535e+003,1.687553e+001
1.601499e+003,1.576064e+001
1.602463e+003,1.357487e+001
1.603427e+003,1.316945e+001
1.604392e+003,1.595297e+001
1.605356e+003,1.881558e+001
1.606320e+003,1.815607e+001
1.607284e+003,1.530453e+001
1.608249e+003,1.400607e+001
1.609213e+003,1.430606e+001
1.610177e+003,1.520181e+001
1.611141e+003,1.714989e+001
1.612106e+003,1.813933e+001
1.613070e+003,1.571825e+001
1.614034e+003,1.331450e+001
1.614998e+003,1.430991e+001
1.615963e+003,1.669464e+001
1.616927e+003,1.638776e+001
1.617891e+003,1.315646e+001
1.618855e+003,1.070935e+001
1.619820e+003,1.123590e+001
1.620784e+003,1.316092e+001
1.621748e+003,1.501503e+001
1.622712e+003,1.677034e+001
1.623677e+003,1.672823e+001
1.624641e+003,1.444850e+001
1.625605e+003,1.302847e+001
1.626569e+003,1.312253e+001
1.627533e+003,1.351855e+001
1.628498e+003,1.392206e+001
1.629462e+003,1.439276e+001
1.630426e+003,1.517654e+001
1.631390e+003,1.595035e+001
1.632354e+003,1.591734e+001
1.633319e+003,1.496953e+001
1.634283e+003,1.408507e+001
1.635247e+003,1.401646e+001
1.636211e+003,1.424689e+001
1.637176e+003,1.377521e+001
1.638140e+003,1.273901e+001
1.639104e+003,1.245633e+001
1.640068e+003,1.315845e+001
1.641033e+003,1.359866e+001
1.641997e+003,1.316321e+001
1.642961e+003,1.298851e+001
1.643925e+003,1.412483e+001
1.644890e+003,1.535750e+001
1.645854e+003,1.523521e+001
1.646818e+003,1.416537e+001
1.647782e+003,1.337100e+001
1.648747e+003,1.326172e+001
1.649711e+003,1.385129e+001
1.650675e+003,1.546762e+001
1.651639e+003,1.734439e+001
1.652604e+003,1.753586e+001
1.653568e+003,1.604497e+001
1.654532e+003,1.492656e+001
1.655496e+003,1.439525e+001
1.656460e+003,1.384291e+001
1.657425e+003,1.299796e+001
1.658389e+003,1.235074e+001
1.659353e+003,1.228726e+001
1.660317e+003,1.242166e+001
1.661281e+003,1.240802e+001
1.662246e+003,1.216666e+001
1.663210e+003,1.166718e+001
1.664174e+003,1.095384e+001
1.665138e+003,1.022655e+001
1.666103e+003,9.501846e+000
1.667067e+003,8.939896e+000
1.668031e+003,9.190262e+000
1.668995e+003,1.018112e+001
1.669960e+003,1.026511e+001
1.670924e+003,9.060089e+000
1.671888e+003,8.226715e+000
1.672852e+003,8.206772e+000
1.673817e+003,8.649902e+000
1.674781e+003,9.486206e+000
1.675745e+003,1.049187e+001
1.676709e+003,1.168648e+001
1.677674e+003,1.280629e+001
1.678638e+003,1.313911e+001
1.679602e+003,1.246722e+001
1.680566e+003,1.127539e+001
1.681531e+003,9.714661e+000
1.682495e+003,8.319580e+000
1.683459e+003,8.218948e+000
1.684423e+003,9.027008e+000
1.685387e+003,8.509628e+000
1.686352e+003,6.293716e+000
1.687316e+003,4.561737e+000
1.688280e+003,3.954056e+000
1.689244e+003,4.069611e+000
1.690208e+003,5.075104e+000
1.691173e+003,6.282440e+000
1.692137e+003,7.364929e+000
1.693101e+003,8.119370e+000
1.694065e+003,7.432007e+000
1.695030e+003,4.852539e+000
1.695994e+003,2.617981e+000
1.696958e+003,2.476044e+000
1.697922e+003,3.067749e+000
1.698887e+003,2.357651e+000
1.699851e+003,1.063751e+000
1.700815e+003,1.733353e+000
1.701779e+003,4.448563e+000
1.702744e+003,5.781876e+000
1.703708e+003,4.427307e+000
1.704672e+003,3.005127e+000
1.705636e+003,3.294189e+000
1.706601e+003,4.334015e+000
1.707565e+003,5.449524e+000
1.708529e+003,6.354324e+000
1.709493e+003,5.293396e+000
1.710458e+003,1.713486e+000
1.711422e+003,-6.449738e-001
1.712386e+003,6.047211e-001
1.713350e+003,2.765823e+000
1.714314e+003,3.912872e+000
1.715279e+003,4.220703e+000
1.716243e+003,3.868530e+000
1.717207e+003,3.068390e+000
1.718171e+003,2.601135e+000
1.719135e+003,2.709045e+000
1.720100e+003,2.656509e+000
1.721064e+003,1.805161e+000
1.722028e+003,8.492584e-001
1.722992e+003,1.224182e+000
1.723957e+003,2.570389e+000
1.724921e+003,1.806290e+000
1.725885e+003,-1.828217e+000
1.726849e+003,-3.961594e+000
1.727814e+003,-2.944275e+000
1.728778e+003,-1.205002e+000
1.729742e+003,7.806549e-001
1.730706e+003,2.435867e+000
1.731671e+003,3.157150e+000
1.732635e+003,2.912048e+000
1.733599e+003,1.644531e+000
1.734563e+003,-2.406311e-001
1.735528e+003,-1.495682e+000
1.736492e+003,-1.522156e+000
1.737456e+003,-7.543488e-001
1.738420e+003,4.006958e-001
1.739385e+003,1.645950e+000
1.740349e+003,2.282288e+000
1.741313e+003,2.503754e+000
1.742277e+003,1.552536e+000
1.743241e+003,-2.267212e+000
1.744206e+003,-4.346375e+000
1.745170e+003,-2.611298e+000
1.746134e+003,-8.595886e-001
1.747098e+003,-1.572357e+000
1.748063e+003,-3.128906e+000
1.749027e+003,-3.529999e+000
1.749991e+003,-2.872330e+000
1.750955e+003,-2.181580e+000
1.751919e+003,-1.913849e+000
1.752884e+003,-2.117386e+000
1.753848e+003,-2.848129e+000
1.754812e+003,-3.684738e+000
1.755776e+003,-3.613922e+000
1.756741e+003,-2.578506e+000
1.757705e+003,-2.223999e+000
1.758669e+003,-3.239868e+000
1.759633e+003,-3.172226e+000
1.760598e+003,-8.215637e-001
1.761562e+003,1.072250e+000
1.762526e+003,1.672501e+000
1.763490e+003,1.798218e+000
1.764455e+003,2.106064e+000
1.765419e+003,2.335068e+000
1.766383e+003,1.664566e+000
1.767347e+003,2.295990e-001
1.768312e+003,-5.568542e-001
1.769276e+003,-4.177856e-002
1.770240e+003,2.639618e-001
1.771204e+003,-1.359222e+000
1.772168e+003,-3.803009e+000
1.773133e+003,-4.824631e+000
1.774097e+003,-4.516434e+000
1.775061e+003,-3.576752e+000
1.776025e+003,-2.052811e+000
1.776990e+003,-8.932190e-001
1.777954e+003,-2.167816e-001
1.778918e+003,-1.780701e-002
1.779882e+003,-8.420105e-001
1.780846e+003,-1.926910e+000
1.781811e+003,-2.001221e+000
1.782775e+003,-1.334183e+000
1.783739e+003,-9.565735e-001
1.784703e+003,-1.007675e+000
1.785668e+003,-9.025269e-001
1.786632e+003,-3.191071e-001
1.787596e+003,9.230042e-002
1.788560e+003,-1.325989e-002
1.789525e+003,-3.583527e-001
1.790489e+003,-6.941376e-001
1.791453e+003,-1.131149e+000
1.792417e+003,-2.339767e+000
1.793382e+003,-4.208771e+000
1.794346e+003,-4.336105e+000
1.795310e+003,-1.300385e+000
1.796274e+003,1.838669e+000
1.797239e+003,1.505005e+000
1.798203e+003,-9.762421e-001
1.799167e+003,-1.786896e+000
1.800131e+003,-8.318634e-001
1.801095e+003,-5.428162e-001
1.802060e+003,-1.136734e+000
1.803024e+003,-1.523605e+000
1.803988e+003,-1.856873e+000
1.804952e+003,-1.815598e+000
1.805917e+003,-8.052521e-001
1.806881e+003,2.695160e-001
1.807845e+003,5.488281e-001
1.808809e+003,2.290039e-001
1.809773e+003,-3.826141e-001
1.810738e+003,-9.929962e-001
1.811702e+003,-8.643036e-001
1.812666e+003,4.292908e-001
1.813630e+003,2.096680e+000
1.814595e+003,3.214813e+000
1.815559e+003,3.604736e+000
1.816523e+003,2.319580e+000
1.817487e+003,-8.523712e-001
1.818452e+003,-2.952255e+000
1.819416e+003,-3.777542e+000
1.820380e+003,-3.302872e+000
1.821344e+003,-3.305206e-001
1.822309e+003,2.007309e+000
1.823273e+003,1.522858e+000
1.824237e+003,-1.754761e-003
1.825201e+003,-1.380112e+000
1.826166e+003,-2.294983e+000
1.827130e+003,-1.807114e+000
1.828094e+003,1.313019e-001
1.829058e+003,1.341995e+000
1.830022e+003,5.682526e-001
1.830987e+003,-5.471802e-001
1.831951e+003,-6.959839e-001
1.832915e+003,-3.213806e-001
1.833879e+003,1.172638e-001
1.834844e+003,4.712372e-001
1.835808e+003,2.927704e-001
1.836772e+003,-3.904114e-001
1.837736e+003,-7.407227e-001
1.838700e+003,-4.211121e-001
1.839665e+003,-5.348663e-001
1.840629e+003,-2.287292e+000
1.841593e+003,-4.331741e+000
1.842557e+003,-3.687286e+000
1.843522e+003,-4.124908e-001
1.844486e+003,1.464050e+000
1.845450e+003,1.477051e+000
1.846414e+003,1.214737e+000
1.847379e+003,-2.593994e-004
1.848343e+003,-9.384766e-001
1.849307e+003,-8.519897e-001
1.850271e+003,-6.424561e-001
1.851236e+003,-8.589935e-001
1.852200e+003,-1.327240e+000
1.853164e+003,-2.007645e+000
1.854128e+003,-2.822876e+000
1.855093e+003,-3.546310e+000
1.856057e+003,-3.928436e+000
1.857021e+003,-3.455872e+000
1.857985e+003,-1.614594e+000
1.858949e+003,5.179443e-001
1.859914e+003,9.589996e-001
1.860878e+003,7.029724e-002
1.861842e+003,-2.276917e-001
1.862806e+003,5.389404e-002
1.863771e+003,3.166199e-002
1.864735e+003,-6.197662e-001
1.865699e+003,-9.534760e-001
1.866663e+003,-3.045197e-001
1.867627e+003,5.106812e-001
1.868592e+003,6.907654e-001
1.869556e+003,3.931122e-001
1.870520e+003,5.909729e-002
1.871484e+003,-3.071289e-001
1.872449e+003,-6.297760e-001
1.873413e+003,-6.832275e-001
1.874377e+003,-2.344055e-001
1.875341e+003,7.265472e-001
1.876306e+003,1.710892e+000
1.877270e+003,2.801468e+000
1.878234e+003,3.407364e+000
1.879198e+003,2.555466e+000
1.880163e+003,1.046967e+000
1.881127e+003,3.090668e-001
1.882091e+003,5.105286e-001
1.883055e+003,1.171158e+000
1.884020e+003,1.990051e+000
1.884984e+003,2.490677e+000
1.885948e+003,2.220444e+000
1.886912e+003,1.735840e+000
1.887876e+003,2.158752e+000
1.888841e+003,3.458710e+000
1.889805e+003,5.352417e+000
1.890769e+003,8.274689e+000
1.891733e+003,9.306168e+000
1.892698e+003,7.308685e+000
1.893662e+003,5.293472e+000
1.894626e+003,4.448975e+000
1.895590e+003,3.742050e+000
1.896554e+003,2.097565e+000
1.897519e+003,5.706482e-001
1.898483e+003,5.280762e-001
1.899447e+003,1.538940e+000
1.900411e+003,2.469421e+000
1.901376e+003,3.216644e+000
1.902340e+003,3.214310e+000
1.903304e+003,1.726257e+000
1.904268e+003,2.194061e-001
1.905233e+003,-6.885376e-001
1.906197e+003,-8.433533e-001
1.907161e+003,2.158203e-001
1.908125e+003,2.037064e+000
1.909090e+003,4.067566e+000
1.910054e+003,5.886475e+000
1.911018e+003,6.696182e+000
1.911982e+003,6.384842e+000
1.912947e+003,5.878922e+000
1.913911e+003,5.826385e+000
1.914875e+003,5.749359e+000
1.915839e+003,4.794937e+000
1.916803e+003,3.163925e+000
1.917768e+003,2.420197e+000
1.918732e+003,2.832443e+000
1.919696e+003,2.817123e+000
1.920660e+003,2.054169e+000
1.921625e+003,1.935211e+000
1.922589e+003,3.007401e+000
1.923553e+003,4.204910e+000
1.924517e+003,5.485840e+000
1.925481e+003,6.210236e+000
1.926446e+003,5.343719e+000
1.927410e+003,3.704468e+000
1.928374e+003,2.817902e+000
1.929338e+003,2.718079e+000
1.930303e+003,2.860580e+000
1.931267e+003,3.410507e+000
1.932231e+003,3.804153e+000
1.933195e+003,2.968292e+000
1.934160e+003,2.601425e+000
1.935124e+003,4.666702e+000
1.936088e+003,7.247864e+000
1.937052e+003,8.319672e+000
1.938017e+003,8.030029e+000
1.938981e+003,6.501068e+000
1.939945e+003,4.315125e+000
1.940909e+003,3.445816e+000
1.941874e+003,4.616028e+000
1.942838e+003,5.835953e+000
1.943802e+003,5.320465e+000
1.944766e+003,4.084518e+000
1.945730e+003,3.913452e+000
1.946695e+003,4.630386e+000
1.947659e+003,5.467789e+000
1.948623e+003,6.407715e+000
1.949587e+003,7.564789e+000
1.950552e+003,9.427658e+000
1.951516e+003,9.585709e+000
1.952480e+003,6.051376e+000
1.953444e+003,3.209488e+000
1.954408e+003,4.893448e+000
1.955373e+003,8.030136e+000
1.956337e+003,8.110764e+000
1.957301e+003,6.254990e+000
1.958265e+003,6.423141e+000
1.959230e+003,9.165894e+000
1.960194e+003,9.999115e+000
1.961158e+003,5.835403e+000
1.962122e+003,3.117386e+000
1.963087e+003,5.025085e+000
1.964051e+003,6.996674e+000
1.965015e+003,6.133850e+000
1.965979e+003,4.536011e+000
1.966944e+003,4.126114e+000
1.967908e+003,4.659424e+000
1.968872e+003,5.503677e+000
1.969836e+003,6.411240e+000
1.970801e+003,7.168610e+000
1.971765e+003,7.702515e+000
1.972729e+003,8.132599e+000
1.973693e+003,8.586624e+000
1.974657e+003,8.880783e+000
1.975622e+003,8.644638e+000
1.976586e+003,7.986633e+000
1.977550e+003,6.917358e+000
1.978514e+003,5.791428e+000
1.979479e+003,6.744537e+000
1.980443e+003,9.872681e+000
1.981407e+003,1.173952e+001
1.982371e+003,1.107045e+001
1.983335e+003,9.825546e+000
1.984300e+003,9.320724e+000
1.985264e+003,9.412888e+000
1.986228e+003,1.011049e+001
1.987192e+003,1.113107e+001
1.988157e+003,1.095502e+001
1.989121e+003,9.309341e+000
1.990085e+003,8.103668e+000
1.991049e+003,7.402939e+000
1.992014e+003,7.146667e+000
1.992978e+003,7.546463e+000
1.993942e+003,7.970413e+000
1.994906e+003,7.899460e+000
1.995871e+003,8.092209e+000
1.996835e+003,9.882217e+000
1.997799e+003,1.190079e+001
1.998763e+003,1.187395e+001
1.999728e+003,1.003447e+001
