5.003444e+002,1.579309e+002
5.013087e+002,1.577803e+002
5.022729e+002,1.518456e+002
5.032371e+002,1.433068e+002
5.042014e+002,1.405844e+002
5.051656e+002,1.429170e+002
5.061298e+002,1.458636e+002
5.070941e+002,1.451737e+002
5.080583e+002,1.395229e+002
5.090225e+002,1.352119e+002
5.099868e+002,1.324773e+002
5.109510e+002,1.302664e+002
5.119152e+002,1.278948e+002
5.128795e+002,1.253149e+002
5.138437e+002,1.240710e+002
5.148079e+002,1.274836e+002
5.157722e+002,1.301696e+002
5.167364e+002,1.287030e+002
5.177006e+002,1.231082e+002
5.186649e+002,1.168407e+002
5.196291e+002,1.152179e+002
5.205933e+002,1.160992e+002
5.215576e+002,1.160100e+002
5.225218e+002,1.140527e+002
5.234860e+002,1.108944e+002
5.244503e+002,1.085378e+002
5.254145e+002,1.084058e+002
5.263787e+002,1.067784e+002
5.273430e+002,1.020929e+002
5.283072e+002,9.695874e+001
5.292714e+002,9.509729e+001
5.302357e+002,9.799377e+001
5.311999e+002,9.862622e+001
5.321641e+002,9.628662e+001
5.331284e+002,9.339929e+001
5.340926e+002,9.147998e+001
5.350568e+002,9.075244e+001
5.360211e+002,8.959338e+001
5.369853e+002,8.780200e+001
5.379495e+002,8.568030e+001
5.389138e+002,8.275037e+001
5.398780e+002,7.888354e+001
5.408422e+002,7.461084e+001
5.418065e+002,7.147510e+001
5.427707e+002,6.945081e+001
5.437349e+002,6.939819e+001
5.446992e+002,7.219849e+001
5.456634e+002,7.653235e+001
5.466276e+002,7.798511e+001
5.475919e+002,7.339514e+001
5.485561e+002,7.011182e+001
5.495203e+002,6.910474e+001
5.504846e+002,6.874854e+001
5.514488e+002,6.672058e+001
5.524130e+002,6.164673e+001
5.533773e+002,5.736133e+001
5.543415e+002,5.628687e+001
5.553057e+002,5.658215e+001
5.562700e+002,5.600659e+001
5.572342e+002,5.311304e+001
5.581984e+002,4.935498e+001
5.591627e+002,4.908472e+001
5.601269e+002,5.148340e+001
5.610911e+002,5.478760e+001
5.620554e+002,5.809973e+001
5.630196e+002,6.073718e+001
5.639838e+002,5.871008e+001
5.649481e+002,4.675476e+001
5.659123e+002,3.787830e+001
5.668765e+002,3.702563e+001
5.678408e+002,4.184546e+001
5.688050e+002,4.438867e+001
5.697692e+002,3.942346e+001
5.707335e+002,3.434717e+001
5.716977e+002,3.160474e+001
5.726619e+002,3.060071e+001
5.736262e+002,3.047339e+001
5.745904e+002,3.086987e+001
5.755546e+002,3.168079e+001
5.765189e+002,3.210852e+001
5.774831e+002,3.178613e+001
5.784473e+002,3.094971e+001
5.794116e+002,3.005334e+001
5.803758e+002,2.950781e+001
5.813400e+002,2.855212e+001
5.823043e+002,2.623083e+001
5.832685e+002,2.339111e+001
5.842327e+002,1.985986e+001
5.851970e+002,1.657288e+001
5.861612e+002,1.680615e+001
5.871254e+002,2.518298e+001
5.880897e+002,3.165881e+001
5.890539e+002,3.395398e+001
5.900181e+002,3.274670e+001
5.909824e+002,2.936670e+001
5.919466e+002,2.397791e+001
5.929108e+002,1.882190e+001
5.938751e+002,1.552588e+001
5.948393e+002,1.392834e+001
5.958035e+002,1.432690e+001
5.967678e+002,1.697827e+001
5.977320e+002,2.161267e+001
5.986962e+002,2.405872e+001
5.996605e+002,2.382776e+001
6.006247e+002,2.216235e+001
6.015889e+002,1.876770e+001
6.025532e+002,1.396948e+001
6.035174e+002,1.124768e+001
6.044816e+002,1.283923e+001
6.054459e+002,1.458350e+001
6.064101e+002,1.625952e+001
6.073743e+002,1.757117e+001
6.083386e+002,1.815674e+001
6.093028e+002,1.763550e+001
6.102670e+002,1.714600e+001
6.112313e+002,1.780774e+001
6.121955e+002,1.876465e+001
6.131597e+002,1.873401e+001
6.141240e+002,1.684241e+001
6.150882e+002,1.364697e+001
6.160524e+002,1.191675e+001
6.170167e+002,1.171948e+001
6.179809e+002,1.220679e+001
6.189451e+002,1.258691e+001
6.199094e+002,1.266760e+001
6.208736e+002,1.348804e+001
6.218378e+002,1.871460e+001
6.228021e+002,2.173718e+001
6.237663e+002,2.050134e+001
6.247305e+002,1.731299e+001
6.256948e+002,1.578955e+001
6.266590e+002,1.750525e+001
6.276232e+002,1.885327e+001
6.285875e+002,1.864648e+001
6.295517e+002,1.750745e+001
6.305159e+002,1.564331e+001
6.314802e+002,1.302954e+001
6.324444e+002,9.637573e+000
6.334086e+002,5.214233e+000
6.343729e+002,9.498291e-001
6.353371e+002,7.287598e-002
6.363013e+002,4.301025e+000
6.372656e+002,1.135266e+001
6.382298e+002,1.357825e+001
6.391940e+002,5.810669e+000
6.401583e+002,-1.087769e+000
6.411225e+002,-6.012695e+000
6.420867e+002,-9.117676e+000
6.430510e+002,-1.128479e+001
6.440152e+002,-1.355347e+001
6.449794e+002,-1.427075e+001
6.459437e+002,-1.085291e+001
6.469079e+002,-7.013916e+000
6.478721e+002,-5.715942e+000
6.488364e+002,-7.688477e+000
6.498006e+002,-1.074622e+001
6.507648e+002,-1.125354e+001
6.517291e+002,-1.035254e+001
6.526933e+002,-1.053931e+001
6.536575e+002,-1.241345e+001
6.546218e+002,-1.465271e+001
6.555860e+002,-1.454138e+001
6.565502e+002,-1.001953e+001
6.575145e+002,-7.844116e+000
6.584787e+002,-1.020959e+001
6.594429e+002,-1.276111e+001
6.604072e+002,-1.111975e+001
6.613714e+002,-4.053833e+000
6.623356e+002,8.343506e-001
6.632999e+002,-3.826660e+000
6.642641e+002,-9.205444e+000
6.652283e+002,-9.484741e+000
6.661926e+002,-4.664429e+000
6.671568e+002,7.595215e-001
6.681210e+002,8.211670e-001
6.690853e+002,-2.826660e+000
6.700495e+002,-4.538940e+000
6.710137e+002,-4.216675e+000
6.719780e+002,-3.026245e+000
6.729422e+002,-2.266235e+000
6.739064e+002,-2.276489e+000
6.748707e+002,-2.229736e+000
6.758349e+002,-1.391479e+000
6.767991e+002,-1.575195e+000
6.777634e+002,-3.952026e+000
6.787276e+002,-7.604126e+000
6.796918e+002,-8.933228e+000
6.806561e+002,-5.155273e+000
6.816203e+002,-1.578003e+000
6.825845e+002,-6.156006e-001
6.835488e+002,-1.157593e+000
6.845130e+002,-8.585205e-001
6.854772e+002,2.314575e+000
6.864415e+002,6.844482e+000
6.874057e+002,8.044067e+000
6.883699e+002,6.258545e+000
6.893342e+002,3.861938e+000
6.902984e+002,2.371826e+000
6.912626e+002,1.731201e+000
6.922269e+002,9.094238e-002
6.931911e+002,-3.360229e+000
6.941553e+002,-4.755859e+000
6.951196e+002,-4.336792e+000
6.960838e+002,-2.682617e+000
6.970480e+002,3.685303e-001
6.980123e+002,6.555420e+000
6.989765e+002,1.052222e+001
6.999407e+002,8.352661e+000
7.009050e+002,4.655762e+000
7.018692e+002,3.470825e+000
7.028334e+002,5.826782e+000
7.037977e+002,8.664795e+000
7.047619e+002,7.354004e+000
7.057261e+002,3.644897e+000
7.066904e+002,-6.872559e-001
7.076546e+002,-5.385620e+000
7.086188e+002,-8.929199e+000
7.095831e+002,-8.655273e+000
7.105473e+002,-2.945557e+000
7.115115e+002,3.979492e-001
7.124758e+002,2.137451e-001
7.134400e+002,-1.039429e+000
7.144042e+002,-1.535400e+000
7.153685e+002,-9.857178e-001
7.163327e+002,-1.044922e+000
7.172969e+002,-4.766846e+000
7.182612e+002,-6.847656e+000
7.192254e+002,-3.048340e+000
7.201896e+002,3.721802e+000
7.211539e+002,7.424927e+000
7.221181e+002,2.751221e+000
7.230823e+002,-6.802490e+000
7.240466e+002,-1.199048e+001
7.250108e+002,-1.301147e+001
7.259750e+002,-1.149353e+001
7.269393e+002,-8.622314e+000
7.279035e+002,-5.350098e+000
7.288677e+002,-3.986572e+000
7.298320e+002,-4.675171e+000
7.307962e+002,-4.481812e+000
7.317604e+002,-2.771973e+000
7.327247e+002,-8.483887e-002
7.336889e+002,2.630127e+000
7.346531e+002,4.607178e+000
7.356174e+002,4.015137e+000
7.365816e+002,-5.456543e-001
7.375458e+002,-5.005371e+000
7.385101e+002,-5.640259e+000
7.394743e+002,-2.043335e+000
7.404385e+002,2.402832e+000
7.414028e+002,1.822632e+000
7.423670e+002,-3.709595e+000
7.433312e+002,-6.477417e+000
7.442955e+002,-4.707153e+000
7.452597e+002,-1.787476e+000
7.462239e+002,-2.928589e+000
7.471882e+002,-1.086572e+001
7.481524e+002,-1.185010e+001
7.491166e+002,6.555176e-002
7.500809e+002,9.014160e+000
7.510451e+002,7.063965e+000
7.520093e+002,-3.178467e+000
7.529736e+002,-1.116846e+001
7.539378e+002,-9.895264e+000
7.549020e+002,-6.656860e+000
7.558663e+002,-6.958130e+000
7.568306e+002,-8.584229e+000
7.577948e+002,-8.276367e+000
7.587590e+002,-4.396484e+000
7.597233e+002,1.128540e+000
7.606875e+002,3.975952e+000
7.616517e+002,4.897095e+000
7.626160e+002,5.105225e+000
7.635802e+002,4.709473e+000
7.645444e+002,4.201538e+000
7.655087e+002,4.599243e+000
7.664729e+002,6.745117e+000
7.674371e+002,7.357178e+000
7.684014e+002,4.466064e+000
7.693656e+002,1.720459e+000
7.703298e+002,1.688843e+000
7.712941e+002,4.651367e+000
7.722583e+002,8.665527e+000
7.732225e+002,1.418994e+001
7.741868e+002,1.817444e+001
7.751510e+002,1.708826e+001
7.761152e+002,1.244702e+001
7.770795e+002,7.870972e+000
7.780437e+002,6.466309e+000
7.790079e+002,7.635742e+000
7.799722e+002,7.480103e+000
7.809364e+002,5.563232e+000
7.819006e+002,5.079834e+000
7.828649e+002,9.380127e+000
7.838291e+002,1.679944e+001
7.847933e+002,2.033313e+001
7.857576e+002,1.572339e+001
7.867218e+002,1.189612e+001
7.876860e+002,1.168811e+001
7.886503e+002,1.312866e+001
7.896145e+002,1.502417e+001
7.905787e+002,1.684534e+001
7.915430e+002,1.778040e+001
7.925072e+002,1.490161e+001
7.934714e+002,1.075073e+001
7.944357e+002,9.542358e+000
7.953999e+002,1.151355e+001
7.963641e+002,1.394067e+001
7.973284e+002,1.344531e+001
7.982926e+002,9.784058e+000
7.992568e+002,8.088623e+000
8.002211e+002,8.105713e+000
8.011853e+002,6.995239e+000
8.021495e+002,4.207397e+000
8.031138e+002,1.232788e+000
8.040780e+002,3.604736e-001
8.050422e+002,1.358765e+000
8.060065e+002,3.883301e+000
8.069707e+002,8.437256e+000
8.079349e+002,1.303479e+001
8.088992e+002,1.602954e+001
8.098634e+002,1.714331e+001
8.108276e+002,1.766956e+001
8.117919e+002,1.913013e+001
8.127561e+002,1.966309e+001
8.137203e+002,1.726965e+001
8.146846e+002,1.249084e+001
8.156488e+002,7.712036e+000
8.166130e+002,5.296265e+000
8.175773e+002,5.193970e+000
8.185415e+002,6.756714e+000
8.195057e+002,1.017053e+001
8.204700e+002,1.341150e+001
8.214342e+002,1.627441e+001
8.223984e+002,1.847522e+001
8.233627e+002,1.930676e+001
8.243269e+002,1.824329e+001
8.252911e+002,1.680334e+001
8.262554e+002,1.510974e+001
8.272196e+002,1.385718e+001
8.281838e+002,1.411279e+001
8.291481e+002,1.597827e+001
8.301123e+002,1.801929e+001
8.310765e+002,1.727502e+001
8.320408e+002,1.408655e+001
8.330050e+002,1.429102e+001
8.339692e+002,1.910095e+001
8.349335e+002,2.502783e+001
8.358977e+002,2.924487e+001
8.368619e+002,3.226831e+001
8.378262e+002,3.265698e+001
8.387904e+002,2.597290e+001
8.397546e+002,2.067102e+001
8.407189e+002,1.965393e+001
8.416831e+002,2.135767e+001
8.426473e+002,2.256287e+001
8.436116e+002,2.165125e+001
8.445758e+002,2.135193e+001
8.455400e+002,2.466565e+001
8.465043e+002,2.871582e+001
8.474685e+002,3.124121e+001
8.484327e+002,3.208594e+001
8.493970e+002,3.244458e+001
8.503612e+002,3.350732e+001
8.513254e+002,3.520447e+001
8.522897e+002,3.526782e+001
8.532539e+002,3.188806e+001
8.542181e+002,2.854480e+001
8.551824e+002,2.746045e+001
8.561466e+002,2.928442e+001
8.571108e+002,3.417737e+001
8.580751e+002,4.325696e+001
8.590393e+002,5.074500e+001
8.600035e+002,5.626550e+001
8.609678e+002,5.976282e+001
8.619320e+002,6.020752e+001
8.628962e+002,5.743005e+001
8.638605e+002,5.420911e+001
8.648247e+002,5.534888e+001
8.657889e+002,5.906348e+001
8.667532e+002,6.216235e+001
8.677174e+002,6.421704e+001
8.686816e+002,6.523340e+001
8.696459e+002,6.517212e+001
8.706101e+002,6.410718e+001
8.715743e+002,6.418054e+001
8.725386e+002,6.500476e+001
8.735028e+002,6.741443e+001
8.744670e+002,7.262146e+001
8.754313e+002,7.839160e+001
8.763955e+002,8.098486e+001
8.773597e+002,7.880774e+001
8.783240e+002,7.602722e+001
8.792882e+002,7.387537e+001
8.802524e+002,7.308997e+001
8.812167e+002,7.514868e+001
8.821809e+002,7.993616e+001
8.831451e+002,8.612512e+001
8.841094e+002,9.230420e+001
8.850736e+002,9.867639e+001
8.860378e+002,1.017712e+002
8.870021e+002,1.005660e+002
8.879663e+002,9.886096e+001
8.889305e+002,9.820129e+001
8.898948e+002,9.829272e+001
8.908590e+002,9.869263e+001
8.918232e+002,9.953442e+001
8.927875e+002,1.017825e+002
8.937517e+002,1.073939e+002
8.947159e+002,1.130996e+002
8.956802e+002,1.149193e+002
8.966444e+002,1.122322e+002
8.976086e+002,1.090863e+002
8.985729e+002,1.102379e+002
8.995371e+002,1.144861e+002
9.005013e+002,1.197302e+002
9.014656e+002,1.255933e+002
9.024298e+002,1.294338e+002
9.033940e+002,1.285341e+002
9.043583e+002,1.232212e+002
9.053225e+002,1.204048e+002
9.062867e+002,1.204573e+002
9.072510e+002,1.220449e+002
9.082152e+002,1.284871e+002
9.091794e+002,1.357311e+002
9.101437e+002,1.394591e+002
9.111079e+002,1.388971e+002
9.120721e+002,1.370341e+002
9.130364e+002,1.333387e+002
9.140006e+002,1.295544e+002
9.149648e+002,1.273781e+002
9.159291e+002,1.268456e+002
9.168933e+002,1.271730e+002
9.178575e+002,1.274852e+002
9.188218e+002,1.273931e+002
9.197860e+002,1.265179e+002
9.207502e+002,1.245225e+002
9.217145e+002,1.228771e+002
9.226787e+002,1.230796e+002
9.236429e+002,1.241824e+002
9.246072e+002,1.243380e+002
9.255714e+002,1.229501e+002
9.265356e+002,1.210438e+002
9.274999e+002,1.183560e+002
9.284641e+002,1.150715e+002
9.294283e+002,1.110570e+002
9.303926e+002,1.070363e+002
9.313568e+002,1.039032e+002
9.323210e+002,1.020616e+002
9.332853e+002,1.010660e+002
9.342495e+002,1.016729e+002
9.352137e+002,1.021875e+002
9.361780e+002,9.939490e+001
9.371422e+002,9.319763e+001
9.381064e+002,8.750940e+001
9.390707e+002,8.726306e+001
9.400349e+002,9.289856e+001
9.409991e+002,9.618530e+001
9.419634e+002,9.617651e+001
9.429276e+002,9.508374e+001
9.438918e+002,9.276233e+001
9.448561e+002,9.020203e+001
9.458203e+002,8.917883e+001
9.467845e+002,9.064648e+001
9.477488e+002,9.239978e+001
9.487130e+002,9.264172e+001
9.496772e+002,9.227466e+001
9.506415e+002,9.203833e+001
9.516057e+002,9.188525e+001
9.525699e+002,9.112244e+001
9.535342e+002,8.895728e+001
9.544984e+002,8.536560e+001
9.554626e+002,8.228503e+001
9.564269e+002,8.036694e+001
9.573911e+002,7.995166e+001
9.583553e+002,8.139380e+001
9.593196e+002,8.388586e+001
9.602838e+002,8.660645e+001
9.612480e+002,8.982092e+001
9.622123e+002,9.092810e+001
9.631765e+002,8.759424e+001
9.641407e+002,8.410645e+001
9.651050e+002,8.173779e+001
9.660692e+002,8.046289e+001
9.670334e+002,8.070313e+001
9.679977e+002,8.318372e+001
9.689619e+002,8.617419e+001
9.699261e+002,8.209204e+001
9.708904e+002,7.359973e+001
9.718546e+002,7.087219e+001
9.728188e+002,7.646448e+001
9.737831e+002,8.577356e+001
9.747473e+002,9.324927e+001
9.757115e+002,9.876636e+001
9.766758e+002,1.043129e+002
9.776400e+002,1.118057e+002
9.786042e+002,1.180865e+002
9.795685e+002,1.228611e+002
9.805327e+002,1.248264e+002
9.814969e+002,1.228335e+002
9.824612e+002,1.169147e+002
9.834254e+002,1.083153e+002
9.843896e+002,9.379700e+001
9.853539e+002,7.869812e+001
9.863181e+002,6.927966e+001
9.872823e+002,6.517114e+001
9.882466e+002,6.335132e+001
9.892108e+002,6.192627e+001
9.901750e+002,6.196704e+001
9.911393e+002,6.490576e+001
9.921035e+002,7.220691e+001
9.930677e+002,7.632263e+001
9.940320e+002,7.451782e+001
9.949962e+002,7.258923e+001
9.959604e+002,7.644312e+001
9.969247e+002,8.638647e+001
9.978889e+002,9.643433e+001
9.988531e+002,1.035497e+002
9.998174e+002,1.082289e+002
1.000782e+003,1.118192e+002
1.001746e+003,1.141918e+002
1.002710e+003,1.140082e+002
1.003674e+003,1.110004e+002
1.004639e+003,1.073433e+002
1.005603e+003,1.069708e+002
1.006567e+003,1.100490e+002
1.007531e+003,1.134430e+002
1.008495e+003,1.183463e+002
1.009460e+003,1.215568e+002
1.010424e+003,1.203337e+002
1.011388e+003,1.159832e+002
1.012352e+003,1.133765e+002
1.013317e+003,1.140135e+002
1.014281e+003,1.136235e+002
1.015245e+003,1.112922e+002
1.016209e+003,1.068293e+002
1.017174e+003,9.965503e+001
1.018138e+003,9.039502e+001
1.019102e+003,8.053198e+001
1.020066e+003,7.131140e+001
1.021031e+003,6.314551e+001
1.021995e+003,5.590295e+001
1.022959e+003,4.889368e+001
1.023923e+003,4.281433e+001
1.024887e+003,3.784009e+001
1.025852e+003,3.369495e+001
1.026816e+003,3.042322e+001
1.027780e+003,2.881958e+001
1.028744e+003,2.673206e+001
1.029709e+003,2.287659e+001
1.030673e+003,1.955029e+001
1.031637e+003,1.756812e+001
1.032601e+003,1.607886e+001
1.033566e+003,1.366235e+001
1.034530e+003,1.007654e+001
1.035494e+003,7.734009e+000
1.036458e+003,9.916504e+000
1.037422e+003,1.424438e+001
1.038387e+003,1.725232e+001
1.039351e+003,1.857837e+001
1.040315e+003,1.840149e+001
1.041279e+003,1.688086e+001
1.042244e+003,1.466125e+001
1.043208e+003,1.366833e+001
1.044172e+003,1.376575e+001
1.045136e+003,1.423608e+001
1.046101e+003,1.589539e+001
1.047065e+003,1.767529e+001
1.048029e+003,1.879456e+001
1.048993e+003,1.913318e+001
1.049958e+003,1.886755e+001
1.050922e+003,1.797229e+001
1.051886e+003,1.791370e+001
1.052850e+003,2.113977e+001
1.053814e+003,2.532239e+001
1.054779e+003,2.732581e+001
1.055743e+003,2.644031e+001
1.056707e+003,2.400806e+001
1.057671e+003,2.158484e+001
1.058636e+003,1.903870e+001
1.059600e+003,1.760437e+001
1.060564e+003,1.898694e+001
1.061528e+003,2.052991e+001
1.062493e+003,2.170496e+001
1.063457e+003,2.180273e+001
1.064421e+003,1.997278e+001
1.065385e+003,1.645129e+001
1.066349e+003,1.367432e+001
1.067314e+003,1.261401e+001
1.068278e+003,1.321729e+001
1.069242e+003,1.680786e+001
1.070206e+003,2.171790e+001
1.071171e+003,2.523889e+001
1.072135e+003,2.592041e+001
1.073099e+003,2.404858e+001
1.074063e+003,2.039917e+001
1.075028e+003,1.487842e+001
1.075992e+003,1.259460e+001
1.076956e+003,1.490186e+001
1.077920e+003,1.650659e+001
1.078885e+003,1.544031e+001
1.079849e+003,1.328613e+001
1.080813e+003,1.261609e+001
1.081777e+003,1.407410e+001
1.082741e+003,1.588696e+001
1.083706e+003,1.669910e+001
1.084670e+003,1.673669e+001
1.085634e+003,1.558789e+001
1.086598e+003,1.386072e+001
1.087563e+003,1.314282e+001
1.088527e+003,1.444373e+001
1.089491e+003,1.659277e+001
1.090455e+003,1.629688e+001
1.091420e+003,1.272241e+001
1.092384e+003,9.383179e+000
1.093348e+003,5.476440e+000
1.094312e+003,2.265015e+000
1.095276e+003,1.281738e+000
1.096241e+003,2.269653e+000
1.097205e+003,3.029663e+000
1.098169e+003,1.967896e+000
1.099133e+003,3.256104e+000
1.100098e+003,1.304065e+001
1.101062e+003,2.186438e+001
1.102026e+003,2.281506e+001
1.102990e+003,1.785571e+001
1.103955e+003,1.225305e+001
1.104919e+003,9.162476e+000
1.105883e+003,8.385376e+000
1.106847e+003,1.025195e+001
1.107812e+003,1.473950e+001
1.108776e+003,1.866943e+001
1.109740e+003,2.239966e+001
1.110704e+003,2.459985e+001
1.111668e+003,2.365161e+001
1.112633e+003,2.093970e+001
1.113597e+003,2.117285e+001
1.114561e+003,2.595288e+001
1.115525e+003,2.966943e+001
1.116490e+003,3.012268e+001
1.117454e+003,2.941528e+001
1.118418e+003,2.865698e+001
1.119382e+003,2.865039e+001
1.120347e+003,2.991199e+001
1.121311e+003,3.226221e+001
1.122275e+003,3.440930e+001
1.123239e+003,3.517944e+001
1.124203e+003,3.552197e+001
1.125168e+003,3.742297e+001
1.126132e+003,4.185425e+001
1.127096e+003,4.621838e+001
1.128060e+003,4.748059e+001
1.129025e+003,4.635693e+001
1.129989e+003,4.756116e+001
1.130953e+003,5.250647e+001
1.131917e+003,5.660913e+001
1.132882e+003,5.799841e+001
1.133846e+003,5.944019e+001
1.134810e+003,6.269263e+001
1.135774e+003,6.752234e+001
1.136739e+003,7.224792e+001
1.137703e+003,7.593555e+001
1.138667e+003,8.075842e+001
1.139631e+003,9.144910e+001
1.140595e+003,1.072421e+002
1.141560e+003,1.215875e+002
1.142524e+003,1.342888e+002
1.143488e+003,1.470656e+002
1.144452e+003,1.595145e+002
1.145417e+003,1.726617e+002
1.146381e+003,1.907103e+002
1.147345e+003,2.150084e+002
1.148309e+003,2.403617e+002
1.149274e+003,2.665508e+002
1.150238e+003,2.929224e+002
1.151202e+003,3.202135e+002
1.152166e+003,3.478070e+002
1.153130e+003,3.751156e+002
1.154095e+003,4.010193e+002
1.155059e+003,4.222981e+002
1.156023e+003,4.354672e+002
1.156987e+003,4.405262e+002
1.157952e+003,4.400168e+002
1.158916e+003,4.350211e+002
1.159880e+003,4.258661e+002
1.160844e+003,4.118008e+002
1.161809e+003,3.917594e+002
1.162773e+003,3.638335e+002
1.163737e+003,3.258545e+002
1.164701e+003,2.902395e+002
1.165666e+003,2.598760e+002
1.166630e+003,2.337837e+002
1.167594e+003,2.110978e+002
1.168558e+003,1.926201e+002
1.169522e+003,1.798723e+002
1.170487e+003,1.731001e+002
1.171451e+003,1.715675e+002
1.172415e+003,1.752080e+002
1.173379e+003,1.820593e+002
1.174344e+003,1.821145e+002
1.175308e+003,1.754042e+002
1.176272e+003,1.692546e+002
1.177236e+003,1.679171e+002
1.178201e+003,1.672559e+002
1.179165e+003,1.607087e+002
1.180129e+003,1.477137e+002
1.181093e+003,1.359144e+002
1.182057e+003,1.270167e+002
1.183022e+003,1.201018e+002
1.183986e+003,1.147758e+002
1.184950e+003,1.110419e+002
1.185914e+003,1.095123e+002
1.186879e+003,1.099282e+002
1.187843e+003,1.109681e+002
1.188807e+003,1.113488e+002
1.189771e+003,1.115487e+002
1.190736e+003,1.143904e+002
1.191700e+003,1.203789e+002
1.192664e+003,1.224155e+002
1.193628e+003,1.180048e+002
1.194593e+003,1.127841e+002
1.195557e+003,1.113417e+002
1.196521e+003,1.121553e+002
1.197485e+003,1.099784e+002
1.198449e+003,1.035026e+002
1.199414e+003,9.609253e+001
1.200378e+003,8.858789e+001
1.201342e+003,8.138342e+001
1.202306e+003,7.458044e+001
1.203271e+003,6.794934e+001
1.204235e+003,6.104810e+001
1.205199e+003,5.387634e+001
1.206163e+003,4.733398e+001
1.207128e+003,4.298108e+001
1.208092e+003,4.108118e+001
1.209056e+003,3.617419e+001
1.210020e+003,2.615955e+001
1.210984e+003,1.792078e+001
1.211949e+003,1.499890e+001
1.212913e+003,1.363940e+001
1.213877e+003,8.869873e+000
1.214841e+003,6.185303e-001
1.215806e+003,-6.778320e+000
1.216770e+003,-1.152893e+001
1.217734e+003,-1.547644e+001
1.218698e+003,-2.102966e+001
1.219663e+003,-2.656763e+001
1.220627e+003,-2.972046e+001
1.221591e+003,-3.028613e+001
1.222555e+003,-2.981445e+001
1.223520e+003,-2.958362e+001
1.224484e+003,-2.952014e+001
1.225448e+003,-3.036536e+001
1.226412e+003,-3.226697e+001
1.227376e+003,-3.530188e+001
1.228341e+003,-4.151965e+001
1.229305e+003,-4.693274e+001
1.230269e+003,-4.920239e+001
1.231233e+003,-4.923669e+001
1.232198e+003,-4.886414e+001
1.233162e+003,-4.832654e+001
1.234126e+003,-4.633875e+001
1.235090e+003,-3.974243e+001
1.236055e+003,-3.432324e+001
1.237019e+003,-3.805603e+001
1.237983e+003,-4.788818e+001
1.238947e+003,-5.525916e+001
1.239911e+003,-5.631763e+001
1.240876e+003,-5.328638e+001
1.241840e+003,-4.922278e+001
1.242804e+003,-4.388953e+001
1.243768e+003,-4.125366e+001
1.244733e+003,-4.455908e+001
1.245697e+003,-4.630054e+001
1.246661e+003,-4.674011e+001
1.247625e+003,-4.575806e+001
1.248590e+003,-4.175916e+001
1.249554e+003,-3.562500e+001
1.250518e+003,-3.049048e+001
1.251482e+003,-2.804248e+001
1.252447e+003,-2.742004e+001
1.253411e+003,-2.789954e+001
1.254375e+003,-2.849548e+001
1.255339e+003,-2.767273e+001
1.256303e+003,-2.513721e+001
1.257268e+003,-2.146082e+001
1.258232e+003,-1.709399e+001
1.259196e+003,-1.293982e+001
1.260160e+003,-1.032959e+001
1.261125e+003,-9.321777e+000
1.262089e+003,-6.375488e+000
1.263053e+003,1.265259e+000
1.264017e+003,6.703857e+000
1.264982e+003,6.635376e+000
1.265946e+003,5.355347e+000
1.266910e+003,7.825562e+000
1.267874e+003,1.333337e+001
1.268839e+003,1.703638e+001
1.269803e+003,1.575049e+001
1.270767e+003,1.130981e+001
1.271731e+003,7.057129e+000
1.272695e+003,3.199341e+000
1.273660e+003,-1.237061e+000
1.274624e+003,-7.398804e+000
1.275588e+003,-1.349841e+001
1.276552e+003,-1.829797e+001
1.277517e+003,-2.155823e+001
1.278481e+003,-2.306067e+001
1.279445e+003,-2.279675e+001
1.280409e+003,-2.338074e+001
1.281374e+003,-2.663428e+001
1.282338e+003,-2.936975e+001
1.283302e+003,-2.947070e+001
1.284266e+003,-2.863354e+001
1.285230e+003,-2.878149e+001
1.286195e+003,-3.024390e+001
1.287159e+003,-3.194434e+001
1.288123e+003,-3.276794e+001
1.289087e+003,-3.308691e+001
1.290052e+003,-3.524548e+001
1.291016e+003,-4.114331e+001
1.291980e+003,-4.321301e+001
1.292944e+003,-3.838464e+001
1.293909e+003,-3.500635e+001
1.294873e+003,-3.704443e+001
1.295837e+003,-4.109705e+001
1.296801e+003,-4.240393e+001
1.297766e+003,-4.047998e+001
1.298730e+003,-3.896008e+001
1.299694e+003,-4.061450e+001
1.300658e+003,-4.254419e+001
1.301622e+003,-4.020911e+001
1.302587e+003,-3.601660e+001
1.303551e+003,-3.437769e+001
1.304515e+003,-3.569067e+001
1.305479e+003,-3.678284e+001
1.306444e+003,-3.525317e+001
1.307408e+003,-3.221997e+001
1.308372e+003,-3.069836e+001
1.309336e+003,-3.109045e+001
1.310301e+003,-3.193958e+001
1.311265e+003,-3.309912e+001
1.312229e+003,-3.417041e+001
1.313193e+003,-3.568335e+001
1.314157e+003,-3.685022e+001
1.315122e+003,-3.608398e+001
1.316086e+003,-3.409058e+001
1.317050e+003,-3.424951e+001
1.318014e+003,-3.879016e+001
1.318979e+003,-4.412695e+001
1.319943e+003,-4.371375e+001
1.320907e+003,-3.799170e+001
1.321871e+003,-3.393176e+001
1.322836e+003,-3.281995e+001
1.323800e+003,-3.221912e+001
1.324764e+003,-3.022852e+001
1.325728e+003,-2.804626e+001
1.326693e+003,-2.855750e+001
1.327657e+003,-3.218677e+001
1.328621e+003,-3.454407e+001
1.329585e+003,-3.309009e+001
1.330549e+003,-2.943835e+001
1.331514e+003,-2.314673e+001
1.332478e+003,-1.854297e+001
1.333442e+003,-2.128259e+001
1.334406e+003,-2.919983e+001
1.335371e+003,-3.432361e+001
1.336335e+003,-3.196802e+001
1.337299e+003,-2.646216e+001
1.338263e+003,-2.636938e+001
1.339228e+003,-3.250696e+001
1.340192e+003,-3.617358e+001
1.341156e+003,-3.689148e+001
1.342120e+003,-3.613306e+001
1.343084e+003,-3.306348e+001
1.344049e+003,-3.043933e+001
1.345013e+003,-3.077039e+001
1.345977e+003,-3.277856e+001
1.346941e+003,-3.296436e+001
1.347906e+003,-3.005725e+001
1.348870e+003,-2.602795e+001
1.349834e+003,-2.153674e+001
1.350798e+003,-1.857959e+001
1.351763e+003,-2.102759e+001
1.352727e+003,-2.771448e+001
1.353691e+003,-3.262415e+001
1.354655e+003,-3.345044e+001
1.355620e+003,-3.208594e+001
1.356584e+003,-3.002319e+001
1.357548e+003,-2.728528e+001
1.358512e+003,-2.572681e+001
1.359476e+003,-2.626428e+001
1.360441e+003,-2.762769e+001
1.361405e+003,-2.990320e+001
1.362369e+003,-3.189075e+001
1.363333e+003,-3.306458e+001
1.364298e+003,-3.350415e+001
1.365262e+003,-3.323242e+001
1.366226e+003,-3.238171e+001
1.367190e+003,-3.121008e+001
1.368155e+003,-2.992065e+001
1.369119e+003,-2.887720e+001
1.370083e+003,-2.925330e+001
1.371047e+003,-3.148096e+001
1.372011e+003,-3.195410e+001
1.372976e+003,-3.036035e+001
1.373940e+003,-2.868262e+001
1.374904e+003,-2.754163e+001
1.375868e+003,-2.631689e+001
1.376833e+003,-2.357458e+001
1.377797e+003,-1.991382e+001
1.378761e+003,-1.948242e+001
1.379725e+003,-2.501208e+001
1.380690e+003,-3.057629e+001
1.381654e+003,-2.899548e+001
1.382618e+003,-2.389001e+001
1.383582e+003,-1.993469e+001
1.384547e+003,-1.740369e+001
1.385511e+003,-1.519250e+001
1.386475e+003,-1.292175e+001
1.387439e+003,-1.107068e+001
1.388403e+003,-1.044678e+001
1.389368e+003,-1.110156e+001
1.390332e+003,-1.122937e+001
1.391296e+003,-9.881104e+000
1.392260e+003,-9.108765e+000
1.393225e+003,-9.393433e+000
1.394189e+003,-1.051416e+001
1.395153e+003,-1.363684e+001
1.396117e+003,-1.691931e+001
1.397082e+003,-1.682837e+001
1.398046e+003,-1.303296e+001
1.399010e+003,-9.688599e+000
1.399974e+003,-1.099805e+001
1.400938e+003,-1.565015e+001
1.401903e+003,-1.767371e+001
1.402867e+003,-1.469092e+001
1.403831e+003,-1.281946e+001
1.404795e+003,-1.490393e+001
1.405760e+003,-1.559912e+001
1.406724e+003,-1.199133e+001
1.407688e+003,-8.586670e+000
1.408652e+003,-1.054224e+001
1.409617e+003,-1.661755e+001
1.410581e+003,-2.097717e+001
1.411545e+003,-2.126025e+001
1.412509e+003,-1.981445e+001
1.413474e+003,-1.860364e+001
1.414438e+003,-1.815137e+001
1.415402e+003,-1.820862e+001
1.416366e+003,-1.833228e+001
1.417330e+003,-1.872632e+001
1.418295e+003,-1.964185e+001
1.419259e+003,-2.014893e+001
1.420223e+003,-1.943481e+001
1.421187e+003,-1.790674e+001
1.422152e+003,-1.594580e+001
1.423116e+003,-1.283435e+001
1.424080e+003,-9.643555e+000
1.425044e+003,-6.714355e+000
1.426009e+003,-4.851074e+000
1.426973e+003,-5.022461e+000
1.427937e+003,-6.147827e+000
1.428901e+003,-7.102051e+000
1.429865e+003,-7.278320e+000
1.430830e+003,-6.238403e+000
1.431794e+003,-3.975830e+000
1.432758e+003,-1.513428e+000
1.433722e+003,-2.956543e-001
1.434687e+003,2.481689e-001
1.435651e+003,2.752319e+000
1.436615e+003,7.677368e+000
1.437579e+003,1.016272e+001
1.438544e+003,7.581299e+000
1.439508e+003,5.171509e+000
1.440472e+003,8.016846e+000
1.441436e+003,1.373315e+001
1.442401e+003,1.676855e+001
1.443365e+003,1.575391e+001
1.444329e+003,1.395691e+001
1.445293e+003,1.400867e+001
1.446257e+003,1.472009e+001
1.447222e+003,1.314111e+001
1.448186e+003,9.724854e+000
1.449150e+003,7.618896e+000
1.450114e+003,7.313843e+000
1.451079e+003,6.627930e+000
1.452043e+003,3.826904e+000
1.453007e+003,1.199463e+000
1.453971e+003,2.457886e+000
1.454936e+003,6.677612e+000
1.455900e+003,7.861694e+000
1.456864e+003,3.877808e+000
1.457828e+003,1.004883e+000
1.458792e+003,4.205444e+000
1.459757e+003,8.088745e+000
1.460721e+003,8.469971e+000
1.461685e+003,6.108521e+000
1.462649e+003,2.384399e+000
1.463614e+003,-1.785156e+000
1.464578e+003,-4.215088e+000
1.465542e+003,-2.827148e+000
1.466506e+003,6.756592e-001
1.467471e+003,1.450439e+000
1.468435e+003,-1.021240e+000
1.469399e+003,-3.239746e-001
1.470363e+003,6.728638e+000
1.471328e+003,1.153735e+001
1.472292e+003,9.576416e+000
1.473256e+003,6.247559e+000
1.474220e+003,6.300049e+000
1.475184e+003,9.046875e+000
1.476149e+003,1.176074e+001
1.477113e+003,1.304773e+001
1.478077e+003,1.316296e+001
1.479041e+003,1.275183e+001
1.480006e+003,1.232886e+001
1.480970e+003,1.244446e+001
1.481934e+003,1.249426e+001
1.482898e+003,1.327319e+001
1.483863e+003,1.399219e+001
1.484827e+003,1.617578e+001
1.485791e+003,2.264307e+001
1.486755e+003,2.956848e+001
1.487719e+003,3.239465e+001
1.488684e+003,3.218811e+001
1.489648e+003,3.324146e+001
1.490612e+003,3.719421e+001
1.491576e+003,4.251709e+001
1.492541e+003,4.820349e+001
1.493505e+003,5.332129e+001
1.494469e+003,5.445654e+001
1.495433e+003,5.213782e+001
1.496398e+003,5.428613e+001
1.497362e+003,6.383044e+001
1.498326e+003,7.440845e+001
1.499290e+003,8.314636e+001
1.500255e+003,9.056677e+001
1.501219e+003,9.570142e+001
1.502183e+003,9.941223e+001
1.503147e+003,1.073470e+002
1.504111e+003,1.210435e+002
1.505076e+003,1.375231e+002
1.506040e+003,1.568685e+002
1.507004e+003,1.766239e+002
1.507968e+003,1.914995e+002
1.508933e+003,2.057385e+002
1.509897e+003,2.291014e+002
1.510861e+003,2.638718e+002
1.511825e+003,3.023328e+002
1.512790e+003,3.384181e+002
1.513754e+003,3.743533e+002
1.514718e+003,4.160378e+002
1.515682e+003,4.628645e+002
1.516646e+003,5.083846e+002
1.517611e+003,5.552914e+002
1.518575e+003,5.948000e+002
1.519539e+003,6.211771e+002
1.520503e+003,6.437573e+002
1.521468e+003,6.700278e+002
1.522432e+003,6.935380e+002
1.523396e+003,7.053151e+002
1.524360e+003,7.042111e+002
1.525325e+003,6.950162e+002
1.526289e+003,6.810641e+002
1.527253e+003,6.618433e+002
1.528217e+003,6.358104e+002
1.529182e+003,6.033947e+002
1.530146e+003,5.683213e+002
1.531110e+003,5.308776e+002
1.532074e+003,4.887980e+002
1.533039e+003,4.394729e+002
1.534003e+003,3.864734e+002
1.534967e+003,3.279094e+002
1.535931e+003,2.712173e+002
1.536896e+003,2.228552e+002
1.537860e+003,1.843033e+002
1.538824e+003,1.555958e+002
1.539788e+003,1.359938e+002
1.540752e+003,1.208406e+002
1.541717e+003,1.043679e+002
1.542681e+003,8.762878e+001
1.543645e+003,7.525366e+001
1.544609e+003,7.016406e+001
1.545573e+003,6.373621e+001
1.546538e+003,5.117737e+001
1.547502e+003,4.197278e+001
1.548466e+003,4.167627e+001
1.549430e+003,4.602197e+001
1.550395e+003,5.177930e+001
1.551359e+003,5.724280e+001
1.552323e+003,6.048022e+001
1.553287e+003,6.089148e+001
1.554252e+003,5.899585e+001
1.555216e+003,5.498816e+001
1.556180e+003,4.935193e+001
1.557144e+003,4.267200e+001
1.558109e+003,3.516577e+001
1.559073e+003,3.083594e+001
1.560037e+003,3.049658e+001
1.561001e+003,2.996948e+001
1.561966e+003,2.802856e+001
1.562930e+003,2.671851e+001
1.563894e+003,2.798486e+001
1.564858e+003,3.066089e+001
1.565823e+003,3.223096e+001
1.566787e+003,3.214441e+001
1.567751e+003,3.110999e+001
1.568715e+003,2.916443e+001
1.569679e+003,2.830896e+001
1.570644e+003,3.222925e+001
1.571608e+003,3.823206e+001
1.572572e+003,3.929272e+001
1.573536e+003,3.547302e+001
1.574500e+003,3.183008e+001
1.575465e+003,2.885168e+001
1.576429e+003,2.788574e+001
1.577393e+003,3.167517e+001
1.578357e+003,3.720227e+001
1.579322e+003,3.826086e+001
1.580286e+003,3.501123e+001
1.581250e+003,3.352380e+001
1.582214e+003,3.622461e+001
1.583179e+003,3.864319e+001
1.584143e+003,3.630249e+001
1.585107e+003,3.240088e+001
1.586071e+003,3.226624e+001
1.587036e+003,3.530286e+001
1.588000e+003,3.772693e+001
1.588964e+003,3.830322e+001
1.589928e+003,3.856665e+001
1.590893e+003,3.950183e+001
1.591857e+003,4.091846e+001
1.592821e+003,4.217725e+001
1.593785e+003,4.367175e+001
1.594750e+003,4.782507e+001
1.595714e+003,5.543384e+001
1.596678e+003,6.054773e+001
1.597642e+003,5.937891e+001
1.598606e+003,5.721497e+001
1.599571e+003,5.924744e+001
1.600535e+003,6.265503e+001
1.601499e+003,6.280920e+001
1.602463e+003,6.015869e+001
1.603427e+003,5.964441e+001
1.604392e+003,6.354565e+001
1.605356e+003,6.819519e+001
1.606320e+003,7.038928e+001
1.607284e+003,7.036401e+001
1.608249e+003,6.793713e+001
1.609213e+003,6.297961e+001
1.610177e+003,6.047388e+001
1.611141e+003,6.265857e+001
1.612106e+003,6.382739e+001
1.613070e+003,5.949463e+001
1.614034e+003,5.459827e+001
1.614998e+003,5.250159e+001
1.615963e+003,5.245825e+001
1.616927e+003,5.284753e+001
1.617891e+003,5.331726e+001
1.618855e+003,5.475403e+001
1.619820e+003,5.774768e+001
1.620784e+003,5.990112e+001
1.621748e+003,5.790930e+001
1.622712e+003,5.337708e+001
1.623677e+003,5.176624e+001
1.624641e+003,5.355249e+001
1.625605e+003,5.620496e+001
1.626569e+003,5.892944e+001
1.627533e+003,6.009131e+001
1.628498e+003,5.872327e+001
1.629462e+003,5.697729e+001
1.630426e+003,5.629126e+001
1.631390e+003,5.650769e+001
1.632354e+003,5.735327e+001
1.633319e+003,5.857007e+001
1.634283e+003,5.934424e+001
1.635247e+003,5.900403e+001
1.636211e+003,5.775098e+001
1.637176e+003,5.561829e+001
1.638140e+003,5.304456e+001
1.639104e+003,5.364111e+001
1.640068e+003,5.871948e+001
1.641033e+003,6.114844e+001
1.641997e+003,5.685803e+001
1.642961e+003,5.345251e+001
1.643925e+003,5.601050e+001
1.644890e+003,6.001489e+001
1.645854e+003,6.075256e+001
1.646818e+003,5.890955e+001
1.647782e+003,5.704187e+001
1.648747e+003,5.609265e+001
1.649711e+003,5.725452e+001
1.650675e+003,6.259839e+001
1.651639e+003,6.935315e+001
1.652604e+003,7.077637e+001
1.653568e+003,6.676416e+001
1.654532e+003,6.225732e+001
1.655496e+003,5.717126e+001
1.656460e+003,5.280518e+001
1.657425e+003,4.937366e+001
1.658389e+003,4.748828e+001
1.659353e+003,4.850562e+001
1.660317e+003,5.021423e+001
1.661281e+003,5.019177e+001
1.662246e+003,4.853906e+001
1.663210e+003,4.639978e+001
1.664174e+003,4.440247e+001
1.665138e+003,4.344250e+001
1.666103e+003,4.452185e+001
1.667067e+003,4.599304e+001
1.668031e+003,4.394324e+001
1.668995e+003,3.894946e+001
1.669960e+003,3.841443e+001
1.670924e+003,4.462976e+001
1.671888e+003,4.826050e+001
1.672852e+003,4.415527e+001
1.673817e+003,3.949951e+001
1.674781e+003,3.939722e+001
1.675745e+003,4.067188e+001
1.676709e+003,3.974866e+001
1.677674e+003,3.702295e+001
1.678638e+003,3.472034e+001
1.679602e+003,3.355273e+001
1.680566e+003,3.239441e+001
1.681531e+003,3.051172e+001
1.682495e+003,2.863757e+001
1.683459e+003,2.780444e+001
1.684423e+003,2.742554e+001
1.685387e+003,2.524780e+001
1.686352e+003,2.087524e+001
1.687316e+003,1.790088e+001
1.688280e+003,1.788696e+001
1.689244e+003,1.868005e+001
1.690208e+003,1.936035e+001
1.691173e+003,1.926770e+001
1.692137e+003,1.699377e+001
1.693101e+003,1.385864e+001
1.694065e+003,1.337500e+001
1.695030e+003,1.606787e+001
1.695994e+003,1.766443e+001
1.696958e+003,1.478906e+001
1.697922e+003,1.095459e+001
1.698887e+003,1.101135e+001
1.699851e+003,1.374731e+001
1.700815e+003,1.503687e+001
1.701779e+003,1.429431e+001
1.702744e+003,1.281226e+001
1.703708e+003,1.120203e+001
1.704672e+003,1.049707e+001
1.705636e+003,1.111133e+001
1.706601e+003,1.195801e+001
1.707565e+003,1.268079e+001
1.708529e+003,1.334546e+001
1.709493e+003,1.252637e+001
1.710458e+003,9.704346e+000
1.711422e+003,8.014160e+000
1.712386e+003,1.060181e+001
1.713350e+003,1.333936e+001
1.714314e+003,1.145203e+001
1.715279e+003,7.469971e+000
1.716243e+003,6.007690e+000
1.717207e+003,7.151123e+000
1.718171e+003,9.548706e+000
1.719135e+003,1.292712e+001
1.720100e+003,1.451697e+001
1.721064e+003,1.185474e+001
1.722028e+003,7.441650e+000
1.722992e+003,5.226807e+000
1.723957e+003,5.328247e+000
1.724921e+003,5.461304e+000
1.725885e+003,4.869019e+000
1.726849e+003,3.594971e+000
1.727814e+003,2.639771e+000
1.728778e+003,1.531982e+000
1.729742e+003,-1.362671e+000
1.730706e+003,-3.586182e+000
1.731671e+003,-2.485352e+000
1.732635e+003,1.359863e-001
1.733599e+003,1.802856e+000
1.734563e+003,2.286621e+000
1.735528e+003,1.197632e+000
1.736492e+003,-1.876709e+000
1.737456e+003,-4.696045e+000
1.738420e+003,-4.534912e+000
1.739385e+003,-2.449951e+000
1.740349e+003,-7.630615e-001
1.741313e+003,1.033325e+000
1.742277e+003,1.720093e+000
1.743241e+003,1.103882e+000
1.744206e+003,5.980225e-001
1.745170e+003,3.507080e-001
1.746134e+003,-2.592773e-001
1.747098e+003,-2.117554e+000
1.748063e+003,-4.203613e+000
1.749027e+003,-5.263550e+000
1.749991e+003,-5.328247e+000
1.750955e+003,-5.259644e+000
1.751919e+003,-5.380737e+000
1.752884e+003,-4.960938e+000
1.753848e+003,-3.369995e+000
1.754812e+003,-1.605103e+000
1.755776e+003,-1.370972e+000
1.756741e+003,-2.192383e+000
1.757705e+003,-2.930542e+000
1.758669e+003,-4.245239e+000
1.759633e+003,-4.716675e+000
1.760598e+003,-3.823120e+000
1.761562e+003,-3.374878e+000
1.762526e+003,-3.395752e+000
1.763490e+003,-3.620483e+000
1.764455e+003,-4.274414e+000
1.765419e+003,-4.659424e+000
1.766383e+003,-3.348633e+000
1.767347e+003,-1.085083e+000
1.768312e+003,-1.164307e+000
1.769276e+003,-5.334412e+000
1.770240e+003,-1.001361e+001
1.771204e+003,-1.072955e+001
1.772168e+003,-8.591125e+000
1.773133e+003,-7.136841e+000
1.774097e+003,-6.286865e+000
1.775061e+003,-4.770386e+000
1.776025e+003,-2.693115e+000
1.776990e+003,-2.253296e+000
1.777954e+003,-4.297974e+000
1.778918e+003,-6.188843e+000
1.779882e+003,-6.310059e+000
1.780846e+003,-5.921021e+000
1.781811e+003,-6.687317e+000
1.782775e+003,-7.813721e+000
1.783739e+003,-6.580200e+000
1.784703e+003,-2.153564e+000
1.785668e+003,1.297729e+000
1.786632e+003,1.831421e+000
1.787596e+003,-4.406738e-002
1.788560e+003,-5.379272e+000
1.789525e+003,-1.058777e+001
1.790489e+003,-1.080408e+001
1.791453e+003,-7.311523e+000
1.792417e+003,-4.072815e+000
1.793382e+003,-1.955566e+000
1.794346e+003,3.013916e-001
1.795310e+003,3.433716e+000
1.796274e+003,5.110596e+000
1.797239e+003,2.483521e+000
1.798203e+003,-1.960754e+000
1.799167e+003,-1.804565e+000
1.800131e+003,3.131958e+000
1.801095e+003,4.295044e+000
1.802060e+003,-7.966309e-001
1.803024e+003,-3.376526e+000
1.803988e+003,-1.922729e+000
1.804952e+003,6.414795e-001
1.805917e+003,4.014893e+000
1.806881e+003,6.886963e+000
1.807845e+003,8.644165e+000
1.808809e+003,9.080933e+000
1.809773e+003,7.130859e+000
1.810738e+003,3.284912e+000
1.811702e+003,6.434326e-001
1.812666e+003,1.065247e+000
1.813630e+003,2.613281e+000
1.814595e+003,2.602844e+000
1.815559e+003,1.520142e+000
1.816523e+003,2.362305e+000
1.817487e+003,5.601563e+000
1.818452e+003,6.635254e+000
1.819416e+003,4.971191e+000
1.820380e+003,3.241333e+000
1.821344e+003,1.109131e+000
1.822309e+003,-4.417725e-001
1.823273e+003,1.000916e+000
1.824237e+003,2.549805e+000
1.825201e+003,-6.028442e-001
1.826166e+003,-6.267761e+000
1.827130e+003,-7.689270e+000
1.828094e+003,-3.978088e+000
1.829058e+003,-3.557129e-001
1.830022e+003,1.188965e+000
1.830987e+003,1.749756e+000
1.831951e+003,2.553223e+000
1.832915e+003,2.708557e+000
1.833879e+003,-1.812744e-001
1.834844e+003,-4.753845e+000
1.835808e+003,-7.212463e+000
1.836772e+003,-6.752441e+000
1.837736e+003,-2.646912e+000
1.838700e+003,5.393372e+000
1.839665e+003,1.177527e+001
1.840629e+003,1.132147e+001
1.841593e+003,6.880493e+000
1.842557e+003,3.963074e+000
1.843522e+003,2.527832e+000
1.844486e+003,1.010803e+000
1.845450e+003,-5.911865e-001
1.846414e+003,-9.859009e-001
1.847379e+003,-1.345276e+000
1.848343e+003,-5.065918e-001
1.849307e+003,4.493652e+000
1.850271e+003,8.640259e+000
1.851236e+003,7.425293e+000
1.852200e+003,4.172363e+000
1.853164e+003,3.247131e+000
1.854128e+003,4.247498e+000
1.855093e+003,4.727356e+000
1.856057e+003,4.094788e+000
1.857021e+003,2.883362e+000
1.857985e+003,1.158508e+000
1.858949e+003,-7.082520e-001
1.859914e+003,-2.240967e+000
1.860878e+003,-3.094421e+000
1.861842e+003,-1.430481e+000
1.862806e+003,2.685303e+000
1.863771e+003,4.279663e+000
1.864735e+003,1.628540e+000
1.865699e+003,-3.442383e-001
1.866663e+003,1.117615e+000
1.867627e+003,3.591492e+000
1.868592e+003,4.453430e+000
1.869556e+003,4.314026e+000
1.870520e+003,6.038757e+000
1.871484e+003,8.901733e+000
1.872449e+003,7.773010e+000
1.873413e+003,1.963501e+000
1.874377e+003,-1.500977e+000
1.875341e+003,-2.089233e+000
1.876306e+003,-4.093628e-001
1.877270e+003,5.311218e+000
1.878234e+003,1.095905e+001
1.879198e+003,1.256226e+001
1.880163e+003,1.126630e+001
1.881127e+003,8.931641e+000
1.882091e+003,6.596741e+000
1.883055e+003,5.746521e+000
1.884020e+003,6.803406e+000
1.884984e+003,8.218323e+000
1.885948e+003,8.630615e+000
1.886912e+003,8.223633e+000
1.887876e+003,7.117004e+000
1.888841e+003,5.590759e+000
1.889805e+003,7.061707e+000
1.890769e+003,1.260773e+001
1.891733e+003,1.515015e+001
1.892698e+003,1.248761e+001
1.893662e+003,9.553223e+000
1.894626e+003,7.417603e+000
1.895590e+003,6.633606e+000
1.896554e+003,9.357056e+000
1.897519e+003,1.285669e+001
1.898483e+003,1.270575e+001
1.899447e+003,9.696228e+000
1.900411e+003,8.703003e+000
1.901376e+003,1.084937e+001
1.902340e+003,1.197064e+001
1.903304e+003,8.668945e+000
1.904268e+003,6.667542e+000
1.905233e+003,1.180884e+001
1.906197e+003,1.807379e+001
1.907161e+003,1.870020e+001
1.908125e+003,1.635077e+001
1.909090e+003,1.605383e+001
1.910054e+003,1.763434e+001
1.911018e+003,1.835950e+001
1.911982e+003,1.748260e+001
1.912947e+003,1.537219e+001
1.913911e+003,1.214038e+001
1.914875e+003,1.037378e+001
1.915839e+003,1.433960e+001
1.916803e+003,2.220483e+001
1.917768e+003,2.665881e+001
1.918732e+003,2.783325e+001
1.919696e+003,2.671448e+001
1.920660e+003,2.218152e+001
1.921625e+003,1.957288e+001
1.922589e+003,2.079669e+001
1.923553e+003,2.220056e+001
1.924517e+003,2.143988e+001
1.925481e+003,2.056714e+001
1.926446e+003,2.229852e+001
1.927410e+003,2.492798e+001
1.928374e+003,2.422894e+001
1.929338e+003,2.003308e+001
1.930303e+003,1.750861e+001
1.931267e+003,1.886597e+001
1.932231e+003,2.137238e+001
1.933195e+003,2.419458e+001
1.934160e+003,2.623517e+001
1.935124e+003,2.683264e+001
1.936088e+003,2.581610e+001
1.937052e+003,2.177393e+001
1.938017e+003,1.725421e+001
1.938981e+003,1.801501e+001
1.939945e+003,2.359882e+001
1.940909e+003,2.772729e+001
1.941874e+003,2.739984e+001
1.942838e+003,2.466931e+001
1.943802e+003,2.171405e+001
1.944766e+003,1.949023e+001
1.945730e+003,1.893726e+001
1.946695e+003,1.964551e+001
1.947659e+003,2.148022e+001
1.948623e+003,2.462793e+001
1.949587e+003,2.505273e+001
1.950552e+003,2.179065e+001
1.951516e+003,1.891125e+001
1.952480e+003,1.684558e+001
1.953444e+003,1.748596e+001
1.954408e+003,2.408722e+001
1.955373e+003,3.162646e+001
1.956337e+003,3.329840e+001
1.957301e+003,3.096045e+001
1.958265e+003,2.905157e+001
1.959230e+003,2.761536e+001
1.960194e+003,2.770575e+001
1.961158e+003,3.037341e+001
1.962122e+003,3.155463e+001
1.963087e+003,2.929150e+001
1.964051e+003,2.665839e+001
1.965015e+003,2.442798e+001
1.965979e+003,2.444281e+001
1.966944e+003,3.036743e+001
1.967908e+003,3.801154e+001
1.968872e+003,3.953296e+001
1.969836e+003,3.521649e+001
1.970801e+003,3.212732e+001
1.971765e+003,3.325629e+001
1.972729e+003,3.496252e+001
1.973693e+003,3.420197e+001
1.974657e+003,3.206714e+001
1.975622e+003,2.931097e+001
1.976586e+003,2.644421e+001
1.977550e+003,2.512708e+001
1.978514e+003,2.563660e+001
1.979479e+003,2.903662e+001
1.980443e+003,3.508228e+001
1.981407e+003,3.943115e+001
1.982371e+003,4.067371e+001
1.983335e+003,3.971240e+001
1.984300e+003,3.652100e+001
1.985264e+003,3.316760e+001
1.986228e+003,3.331781e+001
1.987192e+003,3.629102e+001
1.988157e+003,3.878766e+001
1.989121e+003,4.141785e+001
1.990085e+003,4.123907e+001
1.991049e+003,3.660364e+001
1.992014e+003,3.305231e+001
1.992978e+003,3.035608e+001
1.993942e+003,2.952069e+001
1.994906e+003,3.302832e+001
1.995871e+003,3.634650e+001
1.996835e+003,3.511987e+001
1.997799e+003,3.252985e+001
1.998763e+003,3.272034e+001
1.999728e+003,3.559906e+001
