5.003444e+002,4.714105e+001
5.013087e+002,4.801221e+001
5.022729e+002,4.775978e+001
5.032371e+002,4.662427e+001
5.042014e+002,4.503864e+001
5.051656e+002,4.312685e+001
5.061298e+002,4.133234e+001
5.070941e+002,4.000665e+001
5.080583e+002,3.910344e+001
5.090225e+002,3.859512e+001
5.099868e+002,3.903287e+001
5.109510e+002,3.917296e+001
5.119152e+002,3.804144e+001
5.128795e+002,3.549625e+001
5.138437e+002,3.379651e+001
5.148079e+002,3.386090e+001
5.157722e+002,3.482437e+001
5.167364e+002,3.733168e+001
5.177006e+002,4.074869e+001
5.186649e+002,4.293439e+001
5.196291e+002,3.995403e+001
5.205933e+002,3.537924e+001
5.215576e+002,3.313594e+001
5.225218e+002,3.344771e+001
5.234860e+002,3.487842e+001
5.244503e+002,3.500372e+001
5.254145e+002,3.352097e+001
5.263787e+002,3.228806e+001
5.273430e+002,3.132925e+001
5.283072e+002,3.059544e+001
5.292714e+002,2.997247e+001
5.302357e+002,2.923120e+001
5.311999e+002,2.869099e+001
5.321641e+002,2.850317e+001
5.331284e+002,2.869553e+001
5.340926e+002,2.936136e+001
5.350568e+002,3.050311e+001
5.360211e+002,3.142911e+001
5.369853e+002,3.198778e+001
5.379495e+002,3.209915e+001
5.389138e+002,3.137309e+001
5.398780e+002,2.973506e+001
5.408422e+002,2.758363e+001
5.418065e+002,2.597847e+001
5.427707e+002,2.487383e+001
5.437349e+002,2.412044e+001
5.446992e+002,2.372157e+001
5.456634e+002,2.359715e+001
5.466276e+002,2.353326e+001
5.475919e+002,2.436032e+001
5.485561e+002,2.417641e+001
5.495203e+002,2.179994e+001
5.504846e+002,1.863789e+001
5.514488e+002,1.683424e+001
5.524130e+002,1.768538e+001
5.533773e+002,1.900644e+001
5.543415e+002,1.980351e+001
5.553057e+002,2.026414e+001
5.562700e+002,2.049663e+001
5.572342e+002,2.055388e+001
5.581984e+002,2.051498e+001
5.591627e+002,2.068625e+001
5.601269e+002,2.107623e+001
5.610911e+002,2.171985e+001
5.620554e+002,2.266586e+001
5.630196e+002,2.368066e+001
5.639838e+002,2.303346e+001
5.649481e+002,1.878769e+001
5.659123e+002,1.571239e+001
5.668765e+002,1.550412e+001
5.678408e+002,1.725044e+001
5.688050e+002,1.804131e+001
5.697692e+002,1.571138e+001
5.707335e+002,1.403268e+001
5.716977e+002,1.500943e+001
5.726619e+002,1.710606e+001
5.736262e+002,1.810188e+001
5.745904e+002,1.634256e+001
5.755546e+002,1.370898e+001
5.765189e+002,1.309592e+001
5.774831e+002,1.367970e+001
5.784473e+002,1.432635e+001
5.794116e+002,1.432130e+001
5.803758e+002,1.378755e+001
5.813400e+002,1.307034e+001
5.823043e+002,1.199649e+001
5.832685e+002,1.073848e+001
5.842327e+002,9.229340e+000
5.851970e+002,7.667847e+000
5.861612e+002,6.799133e+000
5.871254e+002,6.867905e+000
5.880897e+002,7.416397e+000
5.890539e+002,9.122711e+000
5.900181e+002,1.103593e+001
5.909824e+002,1.140805e+001
5.919466e+002,8.390717e+000
5.929108e+002,5.414017e+000
5.938751e+002,6.646515e+000
5.948393e+002,1.013725e+001
5.958035e+002,1.296072e+001
5.967678e+002,1.300420e+001
5.977320e+002,1.073605e+001
5.986962e+002,9.073868e+000
5.996605e+002,7.726990e+000
6.006247e+002,7.006424e+000
6.015889e+002,7.628098e+000
6.025532e+002,9.432358e+000
6.035174e+002,9.839127e+000
6.044816e+002,6.581665e+000
6.054459e+002,4.373627e+000
6.064101e+002,4.389740e+000
6.073743e+002,5.822235e+000
6.083386e+002,7.148773e+000
6.093028e+002,7.597015e+000
6.102670e+002,7.857300e+000
6.112313e+002,8.666473e+000
6.121955e+002,9.581238e+000
6.131597e+002,9.995331e+000
6.141240e+002,9.493546e+000
6.150882e+002,8.275162e+000
6.160524e+002,7.039307e+000
6.170167e+002,5.859024e+000
6.179809e+002,5.174057e+000
6.189451e+002,5.255905e+000
6.199094e+002,5.919159e+000
6.208736e+002,6.201126e+000
6.218378e+002,5.538116e+000
6.228021e+002,5.427124e+000
6.237663e+002,6.601913e+000
6.247305e+002,8.298401e+000
6.256948e+002,9.175125e+000
6.266590e+002,8.340439e+000
6.276232e+002,7.124237e+000
6.285875e+002,6.366470e+000
6.295517e+002,5.957672e+000
6.305159e+002,5.840118e+000
6.314802e+002,5.916122e+000
6.324444e+002,5.959946e+000
6.334086e+002,5.438324e+000
6.343729e+002,4.599167e+000
6.353371e+002,3.607498e+000
6.363013e+002,2.362381e+000
6.372656e+002,1.113678e+000
6.382298e+002,9.002533e-001
6.391940e+002,3.387756e+000
6.401583e+002,4.607239e+000
6.411225e+002,4.022858e+000
6.420867e+002,2.678497e+000
6.430510e+002,1.872772e+000
6.440152e+002,2.206055e+000
6.449794e+002,1.594284e+000
6.459437e+002,-2.743164e+000
6.469079e+002,-7.126038e+000
6.478721e+002,-7.876862e+000
6.488364e+002,-4.127701e+000
6.498006e+002,8.456726e-001
6.507648e+002,4.534454e-001
6.517291e+002,-3.238922e+000
6.526933e+002,-5.127960e+000
6.536575e+002,-4.229691e+000
6.546218e+002,-1.561752e+000
6.555860e+002,1.073593e+000
6.565502e+002,4.502945e+000
6.575145e+002,5.615051e+000
6.584787e+002,2.685989e+000
6.594429e+002,-8.381805e-001
6.604072e+002,-2.026642e+000
6.613714e+002,-2.412262e-001
6.623356e+002,1.301025e+000
6.632999e+002,4.669800e-001
6.642641e+002,-6.436768e-001
6.652283e+002,-8.121948e-001
6.661926e+002,3.810120e-002
6.671568e+002,1.103943e+000
6.681210e+002,1.268295e+000
6.690853e+002,9.717407e-001
6.700495e+002,1.864502e+000
6.710137e+002,3.856140e+000
6.719780e+002,5.318970e+000
6.729422e+002,4.321136e+000
6.739064e+002,3.787231e-002
6.748707e+002,-1.917419e+000
6.758349e+002,2.229767e-001
6.767991e+002,1.903824e+000
6.777634e+002,3.664093e-001
6.787276e+002,-3.680145e+000
6.796918e+002,-5.393845e+000
6.806561e+002,-3.689270e-001
6.816203e+002,4.270676e+000
6.825845e+002,5.654037e+000
6.835488e+002,4.775360e+000
6.845130e+002,3.551422e+000
6.854772e+002,3.403580e+000
6.864415e+002,3.849060e+000
6.874057e+002,3.507523e+000
6.883699e+002,2.520905e+000
6.893342e+002,1.519150e+000
6.902984e+002,8.861237e-001
6.912626e+002,6.109619e-001
6.922269e+002,3.437195e-001
6.931911e+002,4.526062e-001
6.941553e+002,3.997650e-001
6.951196e+002,-4.935150e-001
6.960838e+002,-1.577576e+000
6.970480e+002,-1.650238e+000
6.980123e+002,-7.432556e-002
6.989765e+002,1.758728e+000
6.999407e+002,3.885849e+000
7.009050e+002,5.522232e+000
7.018692e+002,5.737808e+000
7.028334e+002,4.362579e+000
7.037977e+002,2.396210e+000
7.047619e+002,1.376099e+000
7.057261e+002,1.136032e+000
7.066904e+002,1.346451e+000
7.076546e+002,1.949692e+000
7.086188e+002,2.472351e+000
7.095831e+002,2.105911e+000
7.105473e+002,3.079681e-001
7.115115e+002,-8.756561e-001
7.124758e+002,-1.441376e+000
7.134400e+002,-1.634262e+000
7.144042e+002,-1.364075e+000
7.153685e+002,-6.233063e-001
7.163327e+002,-4.855347e-002
7.172969e+002,6.939697e-002
7.182612e+002,-4.536438e-002
7.192254e+002,-6.603851e-001
7.201896e+002,-1.487656e+000
7.211539e+002,-1.979904e+000
7.221181e+002,-1.640991e+000
7.230823e+002,-7.295227e-001
7.240466e+002,1.673584e-001
7.250108e+002,1.098526e+000
7.259750e+002,1.770859e+000
7.269393e+002,1.905807e+000
7.279035e+002,1.414795e+000
7.288677e+002,6.097107e-001
7.298320e+002,-1.246185e+000
7.307962e+002,-1.939438e+000
7.317604e+002,-3.523407e-001
7.327247e+002,2.128281e+000
7.336889e+002,3.370926e+000
7.346531e+002,2.315109e+000
7.356174e+002,1.025528e+000
7.365816e+002,6.979370e-001
7.375458e+002,1.009476e+000
7.385101e+002,2.014297e+000
7.394743e+002,3.523941e+000
7.404385e+002,4.985428e+000
7.414028e+002,5.546509e+000
7.423670e+002,4.954926e+000
7.433312e+002,3.421310e+000
7.442955e+002,9.996796e-001
7.452597e+002,-1.072479e+000
7.462239e+002,-1.284103e+000
7.471882e+002,1.010544e+000
7.481524e+002,2.108719e+000
7.491166e+002,1.413361e+000
7.500809e+002,1.220093e-001
7.510451e+002,-1.750626e+000
7.520093e+002,-3.900696e+000
7.529736e+002,-5.555511e+000
7.539378e+002,-6.323441e+000
7.549020e+002,-6.099091e+000
7.558663e+002,-4.632187e+000
7.568306e+002,-2.445160e+000
7.577948e+002,-6.088257e-002
7.587590e+002,2.104874e+000
7.597233e+002,3.774551e+000
7.606875e+002,4.027802e+000
7.616517e+002,3.138763e+000
7.626160e+002,2.510666e+000
7.635802e+002,2.581268e+000
7.645444e+002,3.058121e+000
7.655087e+002,3.306366e+000
7.664729e+002,3.183685e+000
7.674371e+002,3.032745e+000
7.684014e+002,2.563339e+000
7.693656e+002,2.320389e+000
7.703298e+002,2.886307e+000
7.712941e+002,4.234146e+000
7.722583e+002,5.458527e+000
7.732225e+002,6.161072e+000
7.741868e+002,6.115845e+000
7.751510e+002,4.682465e+000
7.761152e+002,2.372375e+000
7.770795e+002,3.092041e-001
7.780437e+002,-5.262909e-001
7.790079e+002,-3.472137e-001
7.799722e+002,-8.802185e-001
7.809364e+002,-2.256424e+000
7.819006e+002,-3.199921e+000
7.828649e+002,-3.011963e+000
7.838291e+002,-1.900894e+000
7.847933e+002,-7.154388e-001
7.857576e+002,5.561523e-001
7.867218e+002,1.445541e+000
7.876860e+002,2.134903e+000
7.886503e+002,2.526718e+000
7.896145e+002,2.344009e+000
7.905787e+002,1.582626e+000
7.915430e+002,8.772888e-001
7.925072e+002,7.909851e-001
7.934714e+002,1.041351e+000
7.944357e+002,1.692123e+000
7.953999e+002,2.683594e+000
7.963641e+002,3.570358e+000
7.973284e+002,3.784256e+000
7.982926e+002,3.260391e+000
7.992568e+002,3.353729e+000
8.002211e+002,4.161194e+000
8.011853e+002,4.699692e+000
8.021495e+002,4.868744e+000
8.031138e+002,4.832199e+000
8.040780e+002,4.507690e+000
8.050422e+002,2.929169e+000
8.060065e+002,2.390152e+000
8.069707e+002,4.494324e+000
8.079349e+002,7.169754e+000
8.088992e+002,8.293045e+000
8.098634e+002,7.250793e+000
8.108276e+002,5.575272e+000
8.117919e+002,5.334778e+000
8.127561e+002,5.803787e+000
8.137203e+002,6.094147e+000
8.146846e+002,6.206772e+000
8.156488e+002,5.880539e+000
8.166130e+002,4.565460e+000
8.175773e+002,1.835083e+000
8.185415e+002,5.060883e-001
8.195057e+002,1.215286e+000
8.204700e+002,2.010742e+000
8.214342e+002,2.237595e+000
8.223984e+002,2.066284e+000
8.233627e+002,1.923416e+000
8.243269e+002,1.629364e+000
8.252911e+002,2.249374e+000
8.262554e+002,5.393921e+000
8.272196e+002,8.926468e+000
8.281838e+002,1.039807e+001
8.291481e+002,9.075745e+000
8.301123e+002,6.445267e+000
8.310765e+002,5.023758e+000
8.320408e+002,4.751953e+000
8.330050e+002,4.527115e+000
8.339692e+002,4.385071e+000
8.349335e+002,4.134018e+000
8.358977e+002,3.475876e+000
8.368619e+002,2.338821e+000
8.378262e+002,1.839935e+000
8.387904e+002,2.498474e+000
8.397546e+002,3.038910e+000
8.407189e+002,3.142014e+000
8.416831e+002,2.939880e+000
8.426473e+002,2.635574e+000
8.436116e+002,2.257706e+000
8.445758e+002,2.153168e+000
8.455400e+002,2.658157e+000
8.465043e+002,3.373810e+000
8.474685e+002,4.132782e+000
8.484327e+002,4.918930e+000
8.493970e+002,5.657181e+000
8.503612e+002,6.064865e+000
8.513254e+002,6.026108e+000
8.522897e+002,5.944138e+000
8.532539e+002,5.432114e+000
8.542181e+002,5.203552e+000
8.551824e+002,6.078552e+000
8.561466e+002,7.999680e+000
8.571108e+002,9.505341e+000
8.580751e+002,9.839188e+000
8.590393e+002,9.642090e+000
8.600035e+002,8.617798e+000
8.609678e+002,7.669342e+000
8.619320e+002,7.927628e+000
8.628962e+002,9.753662e+000
8.638605e+002,1.207104e+001
8.648247e+002,1.337404e+001
8.657889e+002,1.387285e+001
8.667532e+002,1.397064e+001
8.677174e+002,1.371700e+001
8.686816e+002,1.327855e+001
8.696459e+002,1.283546e+001
8.706101e+002,1.242268e+001
8.715743e+002,1.227068e+001
8.725386e+002,1.243602e+001
8.735028e+002,1.277974e+001
8.744670e+002,1.317586e+001
8.754313e+002,1.358066e+001
8.763955e+002,1.398477e+001
8.773597e+002,1.436876e+001
8.783240e+002,1.507695e+001
8.792882e+002,1.677440e+001
8.802524e+002,1.849998e+001
8.812167e+002,1.908116e+001
8.821809e+002,1.855643e+001
8.831451e+002,1.828741e+001
8.841094e+002,2.020978e+001
8.850736e+002,2.417163e+001
8.860378e+002,2.512442e+001
8.870021e+002,2.225363e+001
8.879663e+002,1.946774e+001
8.889305e+002,1.917691e+001
8.898948e+002,2.078943e+001
8.908590e+002,2.134608e+001
8.918232e+002,1.945857e+001
8.927875e+002,1.879567e+001
8.937517e+002,2.132024e+001
8.947159e+002,2.437363e+001
8.956802e+002,2.536412e+001
8.966444e+002,2.388356e+001
8.976086e+002,2.208421e+001
8.985729e+002,2.233034e+001
8.995371e+002,2.371017e+001
9.005013e+002,2.460664e+001
9.014656e+002,2.502011e+001
9.024298e+002,2.493628e+001
9.033940e+002,2.417361e+001
9.043583e+002,2.283186e+001
9.053225e+002,2.246712e+001
9.062867e+002,2.368332e+001
9.072510e+002,2.504510e+001
9.082152e+002,2.712047e+001
9.091794e+002,2.919339e+001
9.101437e+002,3.053432e+001
9.111079e+002,3.101175e+001
9.120721e+002,3.102647e+001
9.130364e+002,3.034023e+001
9.140006e+002,2.939868e+001
9.149648e+002,2.821486e+001
9.159291e+002,2.718021e+001
9.168933e+002,2.697141e+001
9.178575e+002,2.798364e+001
9.188218e+002,2.965630e+001
9.197860e+002,3.014806e+001
9.207502e+002,2.937708e+001
9.217145e+002,2.890353e+001
9.226787e+002,2.951443e+001
9.236429e+002,3.036168e+001
9.246072e+002,3.009198e+001
9.255714e+002,2.837547e+001
9.265356e+002,2.677835e+001
9.274999e+002,2.550845e+001
9.284641e+002,2.434753e+001
9.294283e+002,2.315739e+001
9.303926e+002,2.213017e+001
9.313568e+002,2.165996e+001
9.323210e+002,2.197571e+001
9.332853e+002,2.247360e+001
9.342495e+002,2.202379e+001
9.352137e+002,2.110266e+001
9.361780e+002,2.057072e+001
9.371422e+002,2.069598e+001
9.381064e+002,2.106950e+001
9.390707e+002,2.097966e+001
9.400349e+002,2.014001e+001
9.409991e+002,1.995090e+001
9.419634e+002,2.222197e+001
9.429276e+002,2.272324e+001
9.438918e+002,1.829794e+001
9.448561e+002,1.210858e+001
9.458203e+002,9.830811e+000
9.467845e+002,1.365173e+001
9.477488e+002,1.838942e+001
9.487130e+002,2.074619e+001
9.496772e+002,2.190610e+001
9.506415e+002,2.245410e+001
9.516057e+002,2.261336e+001
9.525699e+002,2.244667e+001
9.535342e+002,2.199158e+001
9.544984e+002,2.126054e+001
9.554626e+002,2.085648e+001
9.564269e+002,2.114330e+001
9.573911e+002,2.096640e+001
9.583553e+002,1.885280e+001
9.593196e+002,1.653044e+001
9.602838e+002,1.764082e+001
9.612480e+002,2.369710e+001
9.622123e+002,2.707764e+001
9.631765e+002,2.352303e+001
9.641407e+002,1.904886e+001
9.651050e+002,1.560500e+001
9.660692e+002,1.350374e+001
9.670334e+002,1.264842e+001
9.679977e+002,1.306651e+001
9.689619e+002,1.435852e+001
9.699261e+002,1.574123e+001
9.708904e+002,1.704567e+001
9.718546e+002,1.787477e+001
9.728188e+002,1.798915e+001
9.737831e+002,1.803403e+001
9.747473e+002,1.893182e+001
9.757115e+002,2.085509e+001
9.766758e+002,2.294763e+001
9.776400e+002,2.543927e+001
9.786042e+002,2.801579e+001
9.795685e+002,3.131624e+001
9.805327e+002,3.416670e+001
9.814969e+002,3.496956e+001
9.824612e+002,3.325708e+001
9.834254e+002,3.066138e+001
9.843896e+002,2.835179e+001
9.853539e+002,2.599896e+001
9.863181e+002,2.317410e+001
9.872823e+002,1.988776e+001
9.882466e+002,1.649797e+001
9.892108e+002,1.340746e+001
9.901750e+002,1.084486e+001
9.911393e+002,9.484772e+000
9.921035e+002,9.747910e+000
9.930677e+002,1.000607e+001
9.940320e+002,1.015849e+001
9.949962e+002,1.054558e+001
9.959604e+002,1.172928e+001
9.969247e+002,1.369775e+001
9.978889e+002,1.518713e+001
9.988531e+002,1.513690e+001
9.998174e+002,1.464186e+001
1.000782e+003,1.391646e+001
1.001746e+003,1.357277e+001
1.002710e+003,1.488290e+001
1.003674e+003,1.809250e+001
1.004639e+003,2.135396e+001
1.005603e+003,2.118752e+001
1.006567e+003,1.715056e+001
1.007531e+003,1.576773e+001
1.008495e+003,1.841081e+001
1.009460e+003,2.086661e+001
1.010424e+003,2.022337e+001
1.011388e+003,1.732756e+001
1.012352e+003,1.552635e+001
1.013317e+003,1.550722e+001
1.014281e+003,1.591872e+001
1.015245e+003,1.683560e+001
1.016209e+003,1.739226e+001
1.017174e+003,1.679945e+001
1.018138e+003,1.521329e+001
1.019102e+003,1.355391e+001
1.020066e+003,1.263924e+001
1.021031e+003,1.209860e+001
1.021995e+003,1.033252e+001
1.022959e+003,7.540665e+000
1.023923e+003,5.465576e+000
1.024887e+003,4.824951e+000
1.025852e+003,4.842987e+000
1.026816e+003,4.226959e+000
1.027780e+003,2.773056e+000
1.028744e+003,2.081543e+000
1.029709e+003,3.025406e+000
1.030673e+003,3.804749e+000
1.031637e+003,3.630768e+000
1.032601e+003,3.012238e+000
1.033566e+003,2.947510e+000
1.034530e+003,3.782181e+000
1.035494e+003,4.372208e+000
1.036458e+003,3.036331e+000
1.037422e+003,7.770691e-001
1.038387e+003,-6.432495e-001
1.039351e+003,-1.239304e+000
1.040315e+003,-1.780182e+000
1.041279e+003,-2.878082e+000
1.042244e+003,-4.207184e+000
1.043208e+003,-4.295700e+000
1.044172e+003,-2.211838e+000
1.045136e+003,-6.373749e-001
1.046101e+003,4.452515e-001
1.047065e+003,1.078491e+000
1.048029e+003,8.167114e-001
1.048993e+003,2.108765e-002
1.049958e+003,1.398773e-001
1.050922e+003,2.386765e+000
1.051886e+003,4.516510e+000
1.052850e+003,3.584564e+000
1.053814e+003,1.441223e+000
1.054779e+003,6.275330e-001
1.055743e+003,1.564941e+000
1.056707e+003,2.625168e+000
1.057671e+003,1.759781e+000
1.058636e+003,-1.071106e+000
1.059600e+003,-1.873550e+000
1.060564e+003,1.521545e+000
1.061528e+003,3.957809e+000
1.062493e+003,4.055145e+000
1.063457e+003,3.136047e+000
1.064421e+003,2.808609e+000
1.065385e+003,3.281754e+000
1.066349e+003,3.206604e+000
1.067314e+003,1.104675e+000
1.068278e+003,-7.651062e-001
1.069242e+003,-3.304138e-001
1.070206e+003,1.283936e+000
1.071171e+003,2.044388e+000
1.072135e+003,1.147614e+000
1.073099e+003,-2.279968e-001
1.074063e+003,5.021667e-002
1.075028e+003,2.262329e+000
1.075992e+003,3.033401e+000
1.076956e+003,1.506805e+000
1.077920e+003,8.476257e-002
1.078885e+003,2.522278e-002
1.079849e+003,6.521759e-001
1.080813e+003,4.407806e-001
1.081777e+003,-1.058914e+000
1.082741e+003,-1.908356e+000
1.083706e+003,-5.925751e-001
1.084670e+003,9.902649e-001
1.085634e+003,2.027298e+000
1.086598e+003,2.482010e+000
1.087563e+003,2.491257e+000
1.088527e+003,2.208527e+000
1.089491e+003,1.870087e+000
1.090455e+003,1.835159e+000
1.091420e+003,2.063797e+000
1.092384e+003,1.593826e+000
1.093348e+003,3.524780e-003
1.094312e+003,-1.659836e+000
1.095276e+003,-2.913193e+000
1.096241e+003,-3.647263e+000
1.097205e+003,-3.548981e+000
1.098169e+003,-2.273682e+000
1.099133e+003,-1.302597e+000
1.100098e+003,-1.071762e+000
1.101062e+003,-1.292221e+000
1.102026e+003,-2.449890e+000
1.102990e+003,-3.837814e+000
1.103955e+003,-3.841919e+000
1.104919e+003,-1.540878e+000
1.105883e+003,1.609467e+000
1.106847e+003,2.295715e+000
1.107812e+003,4.822540e-001
1.108776e+003,6.094208e-001
1.109740e+003,3.895996e+000
1.110704e+003,6.991119e+000
1.111668e+003,7.404831e+000
1.112633e+003,5.730011e+000
1.113597e+003,4.158417e+000
1.114561e+003,2.678680e+000
1.115525e+003,1.600876e+000
1.116490e+003,1.185745e+000
1.117454e+003,9.594574e-001
1.118418e+003,4.542847e-001
1.119382e+003,-3.280640e-003
1.120347e+003,4.719391e-001
1.121311e+003,2.333649e+000
1.122275e+003,4.542648e+000
1.123239e+003,5.235352e+000
1.124203e+003,4.608139e+000
1.125168e+003,3.801300e+000
1.126132e+003,2.656235e+000
1.127096e+003,2.035263e+000
1.128060e+003,2.922485e+000
1.129025e+003,4.886169e+000
1.129989e+003,5.962006e+000
1.130953e+003,5.545563e+000
1.131917e+003,5.208191e+000
1.132882e+003,5.494659e+000
1.133846e+003,5.950394e+000
1.134810e+003,6.271454e+000
1.135774e+003,6.544037e+000
1.136739e+003,7.035797e+000
1.137703e+003,7.886307e+000
1.138667e+003,8.945618e+000
1.139631e+003,1.003876e+001
1.140595e+003,1.111357e+001
1.141560e+003,1.193515e+001
1.142524e+003,1.241498e+001
1.143488e+003,1.322437e+001
1.144452e+003,1.440361e+001
1.145417e+003,1.621890e+001
1.146381e+003,2.002910e+001
1.147345e+003,2.705994e+001
1.148309e+003,3.270967e+001
1.149274e+003,3.465915e+001
1.150238e+003,3.639052e+001
1.151202e+003,3.937277e+001
1.152166e+003,4.366904e+001
1.153130e+003,4.935027e+001
1.154095e+003,5.617789e+001
1.155059e+003,6.254840e+001
1.156023e+003,6.639714e+001
1.156987e+003,6.770448e+001
1.157952e+003,6.739034e+001
1.158916e+003,6.537712e+001
1.159880e+003,6.335780e+001
1.160844e+003,6.286858e+001
1.161809e+003,6.242941e+001
1.162773e+003,5.858624e+001
1.163737e+003,5.047339e+001
1.164701e+003,4.289084e+001
1.165666e+003,3.678339e+001
1.166630e+003,3.189955e+001
1.167594e+003,2.906592e+001
1.168558e+003,2.698499e+001
1.169522e+003,2.343944e+001
1.170487e+003,1.815096e+001
1.171451e+003,1.391318e+001
1.172415e+003,1.410779e+001
1.173379e+003,1.765628e+001
1.174344e+003,1.873273e+001
1.175308e+003,1.729823e+001
1.176272e+003,1.607112e+001
1.177236e+003,1.647655e+001
1.178201e+003,1.715891e+001
1.179165e+003,1.592123e+001
1.180129e+003,1.265343e+001
1.181093e+003,1.053557e+001
1.182057e+003,1.129747e+001
1.183022e+003,1.178697e+001
1.183986e+003,1.040779e+001
1.184950e+003,8.543854e+000
1.185914e+003,7.540909e+000
1.186879e+003,7.539078e+000
1.187843e+003,7.770096e+000
1.188807e+003,7.567444e+000
1.189771e+003,7.258759e+000
1.190736e+003,8.213318e+000
1.191700e+003,1.067067e+001
1.192664e+003,1.154457e+001
1.193628e+003,9.562103e+000
1.194593e+003,7.392883e+000
1.195557e+003,7.229187e+000
1.196521e+003,8.397797e+000
1.197485e+003,8.388626e+000
1.198449e+003,6.347260e+000
1.199414e+003,4.732025e+000
1.200378e+003,5.189804e+000
1.201342e+003,5.963028e+000
1.202306e+003,5.973770e+000
1.203271e+003,5.351288e+000
1.204235e+003,4.645920e+000
1.205199e+003,4.164246e+000
1.206163e+003,3.833771e+000
1.207128e+003,3.542221e+000
1.208092e+003,3.316284e+000
1.209056e+003,2.463135e+000
1.210020e+003,4.913177e-001
1.210984e+003,-1.015701e+000
1.211949e+003,-1.509460e+000
1.212913e+003,-1.404282e+000
1.213877e+003,-5.956421e-001
1.214841e+003,8.229828e-001
1.215806e+003,1.987915e-001
1.216770e+003,-5.123169e+000
1.217734e+003,-1.020876e+001
1.218698e+003,-1.109995e+001
1.219663e+003,-1.026106e+001
1.220627e+003,-1.093260e+001
1.221591e+003,-1.345264e+001
1.222555e+003,-1.561829e+001
1.223520e+003,-1.533734e+001
1.224484e+003,-1.320634e+001
1.225448e+003,-1.228076e+001
1.226412e+003,-1.342802e+001
1.227376e+003,-1.393965e+001
1.228341e+003,-1.328275e+001
1.229305e+003,-1.267618e+001
1.230269e+003,-1.295493e+001
1.231233e+003,-1.371544e+001
1.232198e+003,-1.395796e+001
1.233162e+003,-1.335063e+001
1.234126e+003,-1.285405e+001
1.235090e+003,-1.340169e+001
1.236055e+003,-1.429799e+001
1.237019e+003,-1.479936e+001
1.237983e+003,-1.501509e+001
1.238947e+003,-1.511330e+001
1.239911e+003,-1.513106e+001
1.240876e+003,-1.543582e+001
1.241840e+003,-1.687981e+001
1.242804e+003,-1.964230e+001
1.243768e+003,-2.020506e+001
1.244733e+003,-1.609772e+001
1.245697e+003,-1.296147e+001
1.246661e+003,-1.149535e+001
1.247625e+003,-1.102995e+001
1.248590e+003,-1.120493e+001
1.249554e+003,-1.179208e+001
1.250518e+003,-1.262236e+001
1.251482e+003,-1.370026e+001
1.252447e+003,-1.480272e+001
1.253411e+003,-1.568184e+001
1.254375e+003,-1.622701e+001
1.255339e+003,-1.635863e+001
1.256303e+003,-1.602562e+001
1.257268e+003,-1.503571e+001
1.258232e+003,-1.301581e+001
1.259196e+003,-1.084680e+001
1.260160e+003,-1.045804e+001
1.261125e+003,-1.221236e+001
1.262089e+003,-1.299637e+001
1.263053e+003,-1.182375e+001
1.264017e+003,-1.061823e+001
1.264982e+003,-9.442612e+000
1.265946e+003,-8.650711e+000
1.266910e+003,-8.693848e+000
1.267874e+003,-9.437881e+000
1.268839e+003,-1.044186e+001
1.269803e+003,-1.142430e+001
1.270767e+003,-1.201170e+001
1.271731e+003,-1.127831e+001
1.272695e+003,-9.224335e+000
1.273660e+003,-7.666550e+000
1.274624e+003,-6.762161e+000
1.275588e+003,-6.437561e+000
1.276552e+003,-6.521667e+000
1.277517e+003,-7.066483e+000
1.278481e+003,-8.694275e+000
1.279445e+003,-1.163025e+001
1.280409e+003,-1.325963e+001
1.281374e+003,-1.167029e+001
1.282338e+003,-9.965271e+000
1.283302e+003,-9.760727e+000
1.284266e+003,-1.034496e+001
1.285230e+003,-1.085950e+001
1.286195e+003,-1.121335e+001
1.287159e+003,-1.208952e+001
1.288123e+003,-1.402155e+001
1.289087e+003,-1.615994e+001
1.290052e+003,-1.597052e+001
1.291016e+003,-1.246686e+001
1.291980e+003,-1.038519e+001
1.292944e+003,-1.025778e+001
1.293909e+003,-1.085170e+001
1.294873e+003,-1.228217e+001
1.295837e+003,-1.370699e+001
1.296801e+003,-1.373676e+001
1.297766e+003,-1.232333e+001
1.298730e+003,-1.126068e+001
1.299694e+003,-1.160304e+001
1.300658e+003,-1.257501e+001
1.301622e+003,-1.355743e+001
1.302587e+003,-1.437604e+001
1.303551e+003,-1.474075e+001
1.304515e+003,-1.458655e+001
1.305479e+003,-1.405974e+001
1.306444e+003,-1.324231e+001
1.307408e+003,-1.232277e+001
1.308372e+003,-1.182661e+001
1.309336e+003,-1.182498e+001
1.310301e+003,-1.206708e+001
1.311265e+003,-1.281470e+001
1.312229e+003,-1.335982e+001
1.313193e+003,-1.351480e+001
1.314157e+003,-1.338626e+001
1.315122e+003,-1.284126e+001
1.316086e+003,-1.212088e+001
1.317050e+003,-1.200949e+001
1.318014e+003,-1.302859e+001
1.318979e+003,-1.452258e+001
1.319943e+003,-1.563766e+001
1.320907e+003,-1.620172e+001
1.321871e+003,-1.526088e+001
1.322836e+003,-1.236186e+001
1.323800e+003,-9.834137e+000
1.324764e+003,-8.943848e+000
1.325728e+003,-9.136826e+000
1.326693e+003,-9.713715e+000
1.327657e+003,-1.070862e+001
1.328621e+003,-1.142018e+001
1.329585e+003,-1.140163e+001
1.330549e+003,-1.101920e+001
1.331514e+003,-1.034459e+001
1.332478e+003,-9.894257e+000
1.333442e+003,-1.050206e+001
1.334406e+003,-1.172958e+001
1.335371e+003,-1.204822e+001
1.336335e+003,-1.057851e+001
1.337299e+003,-8.381393e+000
1.338263e+003,-7.521042e+000
1.339228e+003,-8.165237e+000
1.340192e+003,-8.538849e+000
1.341156e+003,-8.670349e+000
1.342120e+003,-8.525757e+000
1.343084e+003,-7.613113e+000
1.344049e+003,-7.005341e+000
1.345013e+003,-7.845901e+000
1.345977e+003,-9.632492e+000
1.346941e+003,-1.088611e+001
1.347906e+003,-1.108830e+001
1.348870e+003,-1.070268e+001
1.349834e+003,-9.916290e+000
1.350798e+003,-9.070114e+000
1.351763e+003,-8.630630e+000
1.352727e+003,-8.575211e+000
1.353691e+003,-9.038834e+000
1.354655e+003,-1.031027e+001
1.355620e+003,-1.123692e+001
1.356584e+003,-9.876450e+000
1.357548e+003,-6.604752e+000
1.358512e+003,-5.228867e+000
1.359476e+003,-6.655365e+000
1.360441e+003,-8.237167e+000
1.361405e+003,-1.004791e+001
1.362369e+003,-1.097290e+001
1.363333e+003,-9.415558e+000
1.364298e+003,-7.111023e+000
1.365262e+003,-6.745773e+000
1.366226e+003,-8.683533e+000
1.367190e+003,-1.081921e+001
1.368155e+003,-1.127420e+001
1.369119e+003,-1.057471e+001
1.370083e+003,-1.038553e+001
1.371047e+003,-1.098262e+001
1.372011e+003,-1.058839e+001
1.372976e+003,-8.122620e+000
1.373940e+003,-6.317902e+000
1.374904e+003,-6.439789e+000
1.375868e+003,-7.519623e+000
1.376833e+003,-8.596146e+000
1.377797e+003,-9.499573e+000
1.378761e+003,-1.001186e+001
1.379725e+003,-9.941742e+000
1.380690e+003,-9.691208e+000
1.381654e+003,-9.689163e+000
1.382618e+003,-9.715546e+000
1.383582e+003,-9.572876e+000
1.384547e+003,-9.205887e+000
1.385511e+003,-8.308319e+000
1.386475e+003,-6.600922e+000
1.387439e+003,-4.874100e+000
1.388403e+003,-4.479202e+000
1.389368e+003,-5.420441e+000
1.390332e+003,-5.943542e+000
1.391296e+003,-5.632889e+000
1.392260e+003,-5.538727e+000
1.393225e+003,-6.189896e+000
1.394189e+003,-6.826935e+000
1.395153e+003,-6.743179e+000
1.396117e+003,-6.471725e+000
1.397082e+003,-7.185699e+000
1.398046e+003,-8.897400e+000
1.399010e+003,-1.004497e+001
1.399974e+003,-9.211838e+000
1.400938e+003,-7.184875e+000
1.401903e+003,-6.174362e+000
1.402867e+003,-6.230408e+000
1.403831e+003,-6.185959e+000
1.404795e+003,-6.130814e+000
1.405760e+003,-6.076981e+000
1.406724e+003,-6.185074e+000
1.407688e+003,-6.472488e+000
1.408652e+003,-6.990189e+000
1.409617e+003,-7.505173e+000
1.410581e+003,-7.162659e+000
1.411545e+003,-5.401260e+000
1.412509e+003,-3.959778e+000
1.413474e+003,-5.219818e+000
1.414438e+003,-7.580551e+000
1.415402e+003,-7.966080e+000
1.416366e+003,-6.586090e+000
1.417330e+003,-5.540237e+000
1.418295e+003,-5.611359e+000
1.419259e+003,-6.379105e+000
1.420223e+003,-7.720551e+000
1.421187e+003,-9.508881e+000
1.422152e+003,-1.061949e+001
1.423116e+003,-1.090581e+001
1.424080e+003,-1.060641e+001
1.425044e+003,-9.333923e+000
1.426009e+003,-8.117828e+000
1.426973e+003,-7.645065e+000
1.427937e+003,-7.316040e+000
1.428901e+003,-5.869949e+000
1.429865e+003,-3.644974e+000
1.430830e+003,-2.753922e+000
1.431794e+003,-4.585541e+000
1.432758e+003,-7.619858e+000
1.433722e+003,-8.722748e+000
1.434687e+003,-7.629105e+000
1.435651e+003,-6.526810e+000
1.436615e+003,-5.785919e+000
1.437579e+003,-5.051651e+000
1.438544e+003,-4.233871e+000
1.439508e+003,-3.406342e+000
1.440472e+003,-2.366257e+000
1.441436e+003,-1.331207e+000
1.442401e+003,-8.481598e-001
1.443365e+003,-1.024033e+000
1.444329e+003,-1.238846e+000
1.445293e+003,-9.029388e-001
1.446257e+003,-6.173706e-001
1.447222e+003,-2.111481e+000
1.448186e+003,-4.872635e+000
1.449150e+003,-5.653610e+000
1.450114e+003,-3.657898e+000
1.451079e+003,-1.939133e+000
1.452043e+003,-2.456345e+000
1.453007e+003,-3.713226e+000
1.453971e+003,-3.397980e+000
1.454936e+003,-1.835419e+000
1.455900e+003,-1.695999e+000
1.456864e+003,-4.079086e+000
1.457828e+003,-5.811844e+000
1.458792e+003,-4.207779e+000
1.459757e+003,-2.075180e+000
1.460721e+003,-1.975601e+000
1.461685e+003,-3.042908e+000
1.462649e+003,-3.089081e+000
1.463614e+003,-1.624008e+000
1.464578e+003,-3.812561e-001
1.465542e+003,-9.850769e-001
1.466506e+003,-2.864197e+000
1.467471e+003,-4.433685e+000
1.468435e+003,-5.794266e+000
1.469399e+003,-5.841339e+000
1.470363e+003,-3.261047e+000
1.471328e+003,-1.341354e+000
1.472292e+003,-1.080994e+000
1.473256e+003,-1.599960e+000
1.474220e+003,-2.425446e+000
1.475184e+003,-3.256149e+000
1.476149e+003,-3.974426e+000
1.477113e+003,-4.517746e+000
1.478077e+003,-4.641998e+000
1.479041e+003,-4.026474e+000
1.480006e+003,-2.801682e+000
1.480970e+003,-1.537048e+000
1.481934e+003,-1.082153e-001
1.482898e+003,3.374634e-001
1.483863e+003,-1.268372e+000
1.484827e+003,-2.283218e+000
1.485791e+003,-1.699127e+000
1.486755e+003,-3.685760e-001
1.487719e+003,1.251251e+000
1.488684e+003,2.790207e+000
1.489648e+003,3.507660e+000
1.490612e+003,3.248047e+000
1.491576e+003,3.130844e+000
1.492541e+003,4.122513e+000
1.493505e+003,5.639404e+000
1.494469e+003,6.330475e+000
1.495433e+003,6.275055e+000
1.496398e+003,6.602127e+000
1.497362e+003,7.755264e+000
1.498326e+003,8.764099e+000
1.499290e+003,8.588959e+000
1.500255e+003,8.335693e+000
1.501219e+003,9.785629e+000
1.502183e+003,1.259537e+001
1.503147e+003,1.453784e+001
1.504111e+003,1.485588e+001
1.505076e+003,1.572566e+001
1.506040e+003,1.887059e+001
1.507004e+003,2.269507e+001
1.507968e+003,2.538606e+001
1.508933e+003,2.756250e+001
1.509897e+003,3.041016e+001
1.510861e+003,3.431311e+001
1.511825e+003,3.943648e+001
1.512790e+003,4.626624e+001
1.513754e+003,5.342657e+001
1.514718e+003,5.788434e+001
1.515682e+003,5.958797e+001
1.516646e+003,6.337488e+001
1.517611e+003,7.110432e+001
1.518575e+003,7.757761e+001
1.519539e+003,8.014085e+001
1.520503e+003,8.227737e+001
1.521468e+003,8.586285e+001
1.522432e+003,9.004185e+001
1.523396e+003,9.400742e+001
1.524360e+003,9.717920e+001
1.525325e+003,9.865031e+001
1.526289e+003,9.783426e+001
1.527253e+003,9.552097e+001
1.528217e+003,9.313094e+001
1.529182e+003,9.075107e+001
1.530146e+003,8.696217e+001
1.531110e+003,8.093069e+001
1.532074e+003,7.484021e+001
1.533039e+003,6.873753e+001
1.534003e+003,6.235716e+001
1.534967e+003,5.577045e+001
1.535931e+003,4.908528e+001
1.536896e+003,4.221187e+001
1.537860e+003,3.533069e+001
1.538824e+003,2.865242e+001
1.539788e+003,2.229530e+001
1.540752e+003,1.668388e+001
1.541717e+003,1.237590e+001
1.542681e+003,9.431091e+000
1.543645e+003,7.823441e+000
1.544609e+003,8.254959e+000
1.545573e+003,8.553040e+000
1.546538e+003,8.853455e+000
1.547502e+003,8.597061e+000
1.548466e+003,6.830414e+000
1.549430e+003,5.241226e+000
1.550395e+003,6.084625e+000
1.551359e+003,8.472565e+000
1.552323e+003,9.309082e+000
1.553287e+003,7.641632e+000
1.554252e+003,6.125717e+000
1.555216e+003,7.276581e+000
1.556180e+003,9.579605e+000
1.557144e+003,9.376572e+000
1.558109e+003,6.590866e+000
1.559073e+003,4.228287e+000
1.560037e+003,1.890259e+000
1.561001e+003,6.878510e-001
1.561966e+003,1.797256e+000
1.562930e+003,3.660034e+000
1.563894e+003,4.919205e+000
1.564858e+003,5.652191e+000
1.565823e+003,6.407532e+000
1.566787e+003,7.243515e+000
1.567751e+003,7.447479e+000
1.568715e+003,6.550140e+000
1.569679e+003,5.164063e+000
1.570644e+003,3.706345e+000
1.571608e+003,2.376434e+000
1.572572e+003,1.837891e+000
1.573536e+003,2.175476e+000
1.574500e+003,3.096786e+000
1.575465e+003,4.800476e+000
1.576429e+003,6.528244e+000
1.577393e+003,7.782043e+000
1.578357e+003,8.511703e+000
1.579322e+003,8.383331e+000
1.580286e+003,7.528809e+000
1.581250e+003,7.562088e+000
1.582214e+003,9.338333e+000
1.583179e+003,1.064824e+001
1.584143e+003,9.070419e+000
1.585107e+003,6.775146e+000
1.586071e+003,7.112137e+000
1.587036e+003,9.331985e+000
1.588000e+003,1.086096e+001
1.588964e+003,1.109715e+001
1.589928e+003,1.050734e+001
1.590893e+003,8.827728e+000
1.591857e+003,7.077560e+000
1.592821e+003,6.926117e+000
1.593785e+003,8.159561e+000
1.594750e+003,9.548462e+000
1.595714e+003,1.100070e+001
1.596678e+003,1.197527e+001
1.597642e+003,1.214415e+001
1.598606e+003,1.194565e+001
1.599571e+003,1.147572e+001
1.600535e+003,1.107898e+001
1.601499e+003,1.123257e+001
1.602463e+003,1.187531e+001
1.603427e+003,1.265942e+001
1.604392e+003,1.348711e+001
1.605356e+003,1.414941e+001
1.606320e+003,1.440132e+001
1.607284e+003,1.434779e+001
1.608249e+003,1.419217e+001
1.609213e+003,1.392313e+001
1.610177e+003,1.408279e+001
1.611141e+003,1.518713e+001
1.612106e+003,1.566255e+001
1.613070e+003,1.382098e+001
1.614034e+003,1.190144e+001
1.614998e+003,1.171962e+001
1.615963e+003,1.251590e+001
1.616927e+003,1.287532e+001
1.617891e+003,1.259302e+001
1.618855e+003,1.232742e+001
1.619820e+003,1.238235e+001
1.620784e+003,1.278377e+001
1.621748e+003,1.407733e+001
1.622712e+003,1.609438e+001
1.623677e+003,1.689960e+001
1.624641e+003,1.632254e+001
1.625605e+003,1.547266e+001
1.626569e+003,1.391455e+001
1.627533e+003,1.279327e+001
1.628498e+003,1.304826e+001
1.629462e+003,1.379883e+001
1.630426e+003,1.438708e+001
1.631390e+003,1.480504e+001
1.632354e+003,1.542003e+001
1.633319e+003,1.619942e+001
1.634283e+003,1.605025e+001
1.635247e+003,1.387271e+001
1.636211e+003,1.115855e+001
1.637176e+003,1.068567e+001
1.638140e+003,1.237193e+001
1.639104e+003,1.473676e+001
1.640068e+003,1.843777e+001
1.641033e+003,1.986646e+001
1.641997e+003,1.610233e+001
1.642961e+003,1.286816e+001
1.643925e+003,1.348785e+001
1.644890e+003,1.551857e+001
1.645854e+003,1.708900e+001
1.646818e+003,1.784138e+001
1.647782e+003,1.720087e+001
1.648747e+003,1.517302e+001
1.649711e+003,1.398299e+001
1.650675e+003,1.584503e+001
1.651639e+003,1.903871e+001
1.652604e+003,1.975847e+001
1.653568e+003,1.805577e+001
1.654532e+003,1.652492e+001
1.655496e+003,1.515150e+001
1.656460e+003,1.451207e+001
1.657425e+003,1.554791e+001
1.658389e+003,1.638634e+001
1.659353e+003,1.570599e+001
1.660317e+003,1.455188e+001
1.661281e+003,1.418871e+001
1.662246e+003,1.432986e+001
1.663210e+003,1.371402e+001
1.664174e+003,1.199875e+001
1.665138e+003,1.054321e+001
1.666103e+003,1.058540e+001
1.667067e+003,1.135168e+001
1.668031e+003,1.113799e+001
1.668995e+003,1.008565e+001
1.669960e+003,1.018018e+001
1.670924e+003,1.196695e+001
1.671888e+003,1.323779e+001
1.672852e+003,1.281274e+001
1.673817e+003,1.235199e+001
1.674781e+003,1.350917e+001
1.675745e+003,1.473743e+001
1.676709e+003,1.378021e+001
1.677674e+003,1.137605e+001
1.678638e+003,1.045825e+001
1.679602e+003,1.191946e+001
1.680566e+003,1.298495e+001
1.681531e+003,1.127711e+001
1.682495e+003,8.333572e+000
1.683459e+003,6.367401e+000
1.684423e+003,5.347580e+000
1.685387e+003,5.660156e+000
1.686352e+003,7.588242e+000
1.687316e+003,9.069656e+000
1.688280e+003,9.387573e+000
1.689244e+003,9.228195e+000
1.690208e+003,9.123291e+000
1.691173e+003,8.724518e+000
1.692137e+003,7.037170e+000
1.693101e+003,4.809433e+000
1.694065e+003,4.497238e+000
1.695030e+003,6.695969e+000
1.695994e+003,8.900162e+000
1.696958e+003,9.798050e+000
1.697922e+003,9.715805e+000
1.698887e+003,8.727463e+000
1.699851e+003,7.171951e+000
1.700815e+003,5.937531e+000
1.701779e+003,5.075607e+000
1.702744e+003,4.617523e+000
1.703708e+003,4.682083e+000
1.704672e+003,5.140869e+000
1.705636e+003,6.296646e+000
1.706601e+003,7.154968e+000
1.707565e+003,6.123581e+000
1.708529e+003,3.770950e+000
1.709493e+003,1.471115e+000
1.710458e+003,-7.213898e-001
1.711422e+003,-2.019073e+000
1.712386e+003,-1.589661e+000
1.713350e+003,-6.479034e-001
1.714314e+003,-3.025970e-001
1.715279e+003,-1.398163e-001
1.716243e+003,8.762360e-001
1.717207e+003,2.523529e+000
1.718171e+003,3.371445e+000
1.719135e+003,3.043304e+000
1.720100e+003,2.373718e+000
1.721064e+003,1.805954e+000
1.722028e+003,1.361313e+000
1.722992e+003,1.225830e+000
1.723957e+003,1.374298e+000
1.724921e+003,1.113815e+000
1.725885e+003,1.684418e-001
1.726849e+003,-2.907867e-001
1.727814e+003,5.218201e-001
1.728778e+003,1.314514e+000
1.729742e+003,1.395218e+000
1.730706e+003,1.279434e+000
1.731671e+003,1.487030e+000
1.732635e+003,1.750305e+000
1.733599e+003,1.699173e+000
1.734563e+003,1.286682e+000
1.735528e+003,1.989136e-001
1.736492e+003,-1.757736e+000
1.737456e+003,-3.198593e+000
1.738420e+003,-2.367798e+000
1.739385e+003,-2.639771e-003
1.740349e+003,1.445480e+000
1.741313e+003,1.999863e+000
1.742277e+003,1.774811e+000
1.743241e+003,-2.973785e-001
1.744206e+003,-1.309494e+000
1.745170e+003,9.072876e-002
1.746134e+003,1.410400e+000
1.747098e+003,9.985199e-001
1.748063e+003,-4.103088e-002
1.749027e+003,-2.330017e-001
1.749991e+003,2.142487e-001
1.750955e+003,1.264801e-001
1.751919e+003,-8.508301e-001
1.752884e+003,-2.059311e+000
1.753848e+003,-2.967422e+000
1.754812e+003,-3.380066e+000
1.755776e+003,-2.660950e+000
1.756741e+003,-8.191681e-001
1.757705e+003,-5.198822e-001
1.758669e+003,-2.619705e+000
1.759633e+003,-3.926483e+000
1.760598e+003,-3.842957e+000
1.761562e+003,-3.428833e+000
1.762526e+003,-2.315125e+000
1.763490e+003,-1.541946e+000
1.764455e+003,-2.386292e+000
1.765419e+003,-3.756699e+000
1.766383e+003,-3.817963e+000
1.767347e+003,-2.597229e+000
1.768312e+003,-1.621124e+000
1.769276e+003,-1.635834e+000
1.770240e+003,-1.685638e+000
1.771204e+003,-3.548279e-001
1.772168e+003,1.459503e+000
1.773133e+003,1.178375e+000
1.774097e+003,-9.242249e-001
1.775061e+003,-1.951126e+000
1.776025e+003,-1.568954e+000
1.776990e+003,-1.155045e+000
1.777954e+003,-1.228287e+000
1.778918e+003,-9.479980e-001
1.779882e+003,8.271332e-001
1.780846e+003,2.724594e+000
1.781811e+003,2.809631e+000
1.782775e+003,1.571503e+000
1.783739e+003,6.016541e-001
1.784703e+003,1.833954e-001
1.785668e+003,-4.423523e-001
1.786632e+003,-2.443832e+000
1.787596e+003,-3.779846e+000
1.788560e+003,-1.966705e+000
1.789525e+003,9.029694e-001
1.790489e+003,1.809326e+000
1.791453e+003,1.004211e+000
1.792417e+003,-2.761841e-001
1.793382e+003,-1.578186e+000
1.794346e+003,-1.702942e+000
1.795310e+003,9.181213e-002
1.796274e+003,1.778091e+000
1.797239e+003,9.832001e-001
1.798203e+003,-1.438843e+000
1.799167e+003,-3.146118e+000
1.800131e+003,-4.333801e+000
1.801095e+003,-4.534195e+000
1.802060e+003,-2.875214e+000
1.803024e+003,-1.442490e+000
1.803988e+003,-2.890015e-001
1.804952e+003,3.183899e-001
1.805917e+003,-8.584595e-002
1.806881e+003,-8.136902e-001
1.807845e+003,-1.424774e+000
1.808809e+003,-1.660934e+000
1.809773e+003,-9.730225e-001
1.810738e+003,4.729614e-001
1.811702e+003,1.425949e+000
1.812666e+003,1.108124e+000
1.813630e+003,2.600250e-001
1.814595e+003,-1.073761e-001
1.815559e+003,-2.092743e-001
1.816523e+003,-1.060547e+000
1.817487e+003,-2.819351e+000
1.818452e+003,-3.128342e+000
1.819416e+003,-1.085526e+000
1.820380e+003,2.638855e-001
1.821344e+003,-6.062164e-001
1.822309e+003,-1.500061e+000
1.823273e+003,-1.116623e+000
1.824237e+003,-3.625488e-002
1.825201e+003,1.620667e+000
1.826166e+003,3.334930e+000
1.827130e+003,3.685211e+000
1.828094e+003,2.456345e+000
1.829058e+003,1.576813e+000
1.830022e+003,2.117767e+000
1.830987e+003,3.051559e+000
1.831951e+003,3.902817e+000
1.832915e+003,4.362915e+000
1.833879e+003,3.663559e+000
1.834844e+003,2.218124e+000
1.835808e+003,1.194763e+000
1.836772e+003,8.265533e-001
1.837736e+003,1.242691e+000
1.838700e+003,2.519836e+000
1.839665e+003,3.171173e+000
1.840629e+003,1.662186e+000
1.841593e+003,-7.418365e-001
1.842557e+003,-1.381073e+000
1.843522e+003,-2.834778e-001
1.844486e+003,6.420746e-001
1.845450e+003,1.854263e+000
1.846414e+003,2.140869e+000
1.847379e+003,2.536011e-002
1.848343e+003,-1.213776e+000
1.849307e+003,3.679657e-001
1.850271e+003,2.197006e+000
1.851236e+003,2.414566e+000
1.852200e+003,1.766769e+000
1.853164e+003,1.302353e+000
1.854128e+003,1.096512e+000
1.855093e+003,7.222595e-001
1.856057e+003,1.416626e-001
1.857021e+003,6.951904e-002
1.857985e+003,1.178238e+000
1.858949e+003,2.516113e+000
1.859914e+003,2.134766e+000
1.860878e+003,5.036316e-001
1.861842e+003,4.336700e-001
1.862806e+003,1.965744e+000
1.863771e+003,2.464676e+000
1.864735e+003,1.095001e+000
1.865699e+003,4.477081e-001
1.866663e+003,1.997787e+000
1.867627e+003,4.100998e+000
1.868592e+003,5.770538e+000
1.869556e+003,6.596191e+000
1.870520e+003,5.604401e+000
1.871484e+003,3.099716e+000
1.872449e+003,1.039444e+000
1.873413e+003,-3.984070e-001
1.874377e+003,-5.850677e-001
1.875341e+003,1.619934e+000
1.876306e+003,3.526154e+000
1.877270e+003,3.462372e+000
1.878234e+003,2.590302e+000
1.879198e+003,1.651535e+000
1.880163e+003,1.079254e+000
1.881127e+003,1.721649e+000
1.882091e+003,3.315475e+000
1.883055e+003,4.561325e+000
1.884020e+003,4.883163e+000
1.884984e+003,4.596176e+000
1.885948e+003,3.985809e+000
1.886912e+003,3.048340e+000
1.887876e+003,1.627350e+000
1.888841e+003,-1.445618e-001
1.889805e+003,-5.901184e-001
1.890769e+003,4.791870e-001
1.891733e+003,2.039581e+000
1.892698e+003,4.751099e+000
1.893662e+003,5.881714e+000
1.894626e+003,2.955627e+000
1.895590e+003,2.645874e-001
1.896554e+003,1.559586e+000
1.897519e+003,4.207535e+000
1.898483e+003,5.030807e+000
1.899447e+003,4.333527e+000
1.900411e+003,3.728958e+000
1.901376e+003,3.478378e+000
1.902340e+003,3.739395e+000
1.903304e+003,5.259567e+000
1.904268e+003,6.190643e+000
1.905233e+003,4.932175e+000
1.906197e+003,3.050552e+000
1.907161e+003,1.764389e+000
1.908125e+003,1.279068e+000
1.909090e+003,2.206375e+000
1.910054e+003,3.998703e+000
1.911018e+003,4.693924e+000
1.911982e+003,3.812042e+000
1.912947e+003,2.942612e+000
1.913911e+003,3.230148e+000
1.914875e+003,4.411011e+000
1.915839e+003,6.215942e+000
1.916803e+003,8.219299e+000
1.917768e+003,8.246811e+000
1.918732e+003,5.837265e+000
1.919696e+003,5.014740e+000
1.920660e+003,6.890945e+000
1.921625e+003,7.337021e+000
1.922589e+003,3.883865e+000
1.923553e+003,1.329590e+000
1.924517e+003,3.538300e+000
1.925481e+003,6.572784e+000
1.926446e+003,6.739243e+000
1.927410e+003,5.324112e+000
1.928374e+003,5.029221e+000
1.929338e+003,5.915176e+000
1.930303e+003,6.268494e+000
1.931267e+003,5.570251e+000
1.932231e+003,4.983032e+000
1.933195e+003,4.840073e+000
1.934160e+003,5.044022e+000
1.935124e+003,5.933823e+000
1.936088e+003,6.759903e+000
1.937052e+003,6.519836e+000
1.938017e+003,5.631592e+000
1.938981e+003,5.071869e+000
1.939945e+003,4.952118e+000
1.940909e+003,4.613434e+000
1.941874e+003,3.818588e+000
1.942838e+003,3.534943e+000
1.943802e+003,4.772034e+000
1.944766e+003,6.734818e+000
1.945730e+003,7.598907e+000
1.946695e+003,7.518494e+000
1.947659e+003,8.342453e+000
1.948623e+003,1.020477e+001
1.949587e+003,1.123889e+001
1.950552e+003,1.122008e+001
1.951516e+003,1.059015e+001
1.952480e+003,9.127121e+000
1.953444e+003,7.856049e+000
1.954408e+003,7.542587e+000
1.955373e+003,7.673187e+000
1.956337e+003,7.654800e+000
1.957301e+003,7.615128e+000
1.958265e+003,7.810486e+000
1.959230e+003,8.318848e+000
1.960194e+003,8.513412e+000
1.961158e+003,7.780930e+000
1.962122e+003,7.293121e+000
1.963087e+003,7.632095e+000
1.964051e+003,7.987671e+000
1.965015e+003,8.059555e+000
1.965979e+003,7.913925e+000
1.966944e+003,7.052750e+000
1.967908e+003,6.190277e+000
1.968872e+003,7.077652e+000
1.969836e+003,9.383667e+000
1.970801e+003,1.058310e+001
1.971765e+003,9.682159e+000
1.972729e+003,8.554611e+000
1.973693e+003,8.831375e+000
1.974657e+003,9.576981e+000
1.975622e+003,9.334381e+000
1.976586e+003,8.426987e+000
1.977550e+003,7.488159e+000
1.978514e+003,6.762802e+000
1.979479e+003,7.803802e+000
1.980443e+003,1.063008e+001
1.981407e+003,1.177751e+001
1.982371e+003,9.893738e+000
1.983335e+003,8.008041e+000
1.984300e+003,8.384491e+000
1.985264e+003,9.768570e+000
1.986228e+003,1.029138e+001
1.987192e+003,1.017409e+001
1.988157e+003,1.061234e+001
1.989121e+003,1.184743e+001
1.990085e+003,1.253578e+001
1.991049e+003,1.261426e+001
1.992014e+003,1.235507e+001
1.992978e+003,1.120972e+001
1.993942e+003,1.044229e+001
1.994906e+003,1.097102e+001
1.995871e+003,1.153255e+001
1.996835e+003,1.095569e+001
1.997799e+003,1.001894e+001
1.998763e+003,9.976883e+000
1.999728e+003,1.063763e+001
