5.003444e+002,1.841199e+002
5.013087e+002,1.824142e+002
5.022729e+002,1.802970e+002
5.032371e+002,1.783641e+002
5.042014e+002,1.763355e+002
5.051656e+002,1.743609e+002
5.061298e+002,1.724171e+002
5.070941e+002,1.702562e+002
5.080583e+002,1.673091e+002
5.090225e+002,1.657186e+002
5.099868e+002,1.664567e+002
5.109510e+002,1.670404e+002
5.119152e+002,1.663469e+002
5.128795e+002,1.643309e+002
5.138437e+002,1.616285e+002
5.148079e+002,1.582194e+002
5.157722e+002,1.546964e+002
5.167364e+002,1.506141e+002
5.177006e+002,1.460888e+002
5.186649e+002,1.419761e+002
5.196291e+002,1.401298e+002
5.205933e+002,1.401021e+002
5.215576e+002,1.409164e+002
5.225218e+002,1.418567e+002
5.234860e+002,1.423404e+002
5.244503e+002,1.420111e+002
5.254145e+002,1.415830e+002
5.263787e+002,1.386993e+002
5.273430e+002,1.306620e+002
5.283072e+002,1.219609e+002
5.292714e+002,1.193386e+002
5.302357e+002,1.266835e+002
5.311999e+002,1.298544e+002
5.321641e+002,1.258901e+002
5.331284e+002,1.202247e+002
5.340926e+002,1.166511e+002
5.350568e+002,1.163209e+002
5.360211e+002,1.165585e+002
5.369853e+002,1.166937e+002
5.379495e+002,1.163120e+002
5.389138e+002,1.143152e+002
5.398780e+002,1.103921e+002
5.408422e+002,1.054152e+002
5.418065e+002,1.018091e+002
5.427707e+002,9.946924e+001
5.437349e+002,9.829761e+001
5.446992e+002,9.856305e+001
5.456634e+002,9.966687e+001
5.466276e+002,9.972260e+001
5.475919e+002,9.902612e+001
5.485561e+002,9.694745e+001
5.495203e+002,9.198608e+001
5.504846e+002,8.569244e+001
5.514488e+002,8.014032e+001
5.524130e+002,7.563696e+001
5.533773e+002,7.416370e+001
5.543415e+002,7.877258e+001
5.553057e+002,8.503436e+001
5.562700e+002,8.804797e+001
5.572342e+002,8.476599e+001
5.581984e+002,7.800201e+001
5.591627e+002,7.462195e+001
5.601269e+002,7.387421e+001
5.610911e+002,7.413123e+001
5.620554e+002,7.450458e+001
5.630196e+002,7.466382e+001
5.639838e+002,7.345123e+001
5.649481e+002,6.941754e+001
5.659123e+002,6.618829e+001
5.668765e+002,6.561346e+001
5.678408e+002,6.705157e+001
5.688050e+002,6.772424e+001
5.697692e+002,6.509961e+001
5.707335e+002,6.254797e+001
5.716977e+002,6.203552e+001
5.726619e+002,6.233948e+001
5.736262e+002,6.163226e+001
5.745904e+002,5.859015e+001
5.755546e+002,5.497345e+001
5.765189e+002,5.296625e+001
5.774831e+002,5.171381e+001
5.784473e+002,5.058215e+001
5.794116e+002,4.937024e+001
5.803758e+002,4.835541e+001
5.813400e+002,4.642462e+001
5.823043e+002,4.229730e+001
5.832685e+002,3.867847e+001
5.842327e+002,3.711029e+001
5.851970e+002,3.767969e+001
5.861612e+002,3.874426e+001
5.871254e+002,4.021552e+001
5.880897e+002,4.130328e+001
5.890539e+002,4.143658e+001
5.900181e+002,4.086560e+001
5.909824e+002,4.027319e+001
5.919466e+002,4.046204e+001
5.929108e+002,4.036884e+001
5.938751e+002,3.902362e+001
5.948393e+002,3.670514e+001
5.958035e+002,3.346832e+001
5.967678e+002,2.946808e+001
5.977320e+002,2.537738e+001
5.986962e+002,2.566687e+001
5.996605e+002,2.972882e+001
6.006247e+002,3.323932e+001
6.015889e+002,3.428217e+001
6.025532e+002,3.304779e+001
6.035174e+002,3.160718e+001
6.044816e+002,2.804712e+001
6.054459e+002,2.675244e+001
6.064101e+002,3.039941e+001
6.073743e+002,3.638373e+001
6.083386e+002,4.010333e+001
6.093028e+002,3.880835e+001
6.102670e+002,3.558716e+001
6.112313e+002,3.223883e+001
6.121955e+002,2.909430e+001
6.131597e+002,2.635016e+001
6.141240e+002,2.415369e+001
6.150882e+002,2.267853e+001
6.160524e+002,2.344403e+001
6.170167e+002,2.628015e+001
6.179809e+002,2.971112e+001
6.189451e+002,3.336603e+001
6.199094e+002,3.667981e+001
6.208736e+002,3.718842e+001
6.218378e+002,3.217383e+001
6.228021e+002,2.835132e+001
6.237663e+002,2.652686e+001
6.247305e+002,2.634369e+001
6.256948e+002,2.692670e+001
6.266590e+002,2.752734e+001
6.276232e+002,2.874133e+001
6.285875e+002,3.293555e+001
6.295517e+002,3.749298e+001
6.305159e+002,3.901520e+001
6.314802e+002,3.566058e+001
6.324444e+002,2.942487e+001
6.334086e+002,2.625330e+001
6.343729e+002,2.565234e+001
6.353371e+002,2.596973e+001
6.363013e+002,2.675433e+001
6.372656e+002,2.746570e+001
6.382298e+002,2.658862e+001
6.391940e+002,2.293567e+001
6.401583e+002,1.854510e+001
6.411225e+002,1.267523e+001
6.420867e+002,7.497314e+000
6.430510e+002,5.571960e+000
6.440152e+002,8.048889e+000
6.449794e+002,1.041425e+001
6.459437e+002,9.904053e+000
6.469079e+002,8.660767e+000
6.478721e+002,8.935303e+000
6.488364e+002,1.135059e+001
6.498006e+002,1.402411e+001
6.507648e+002,1.258624e+001
6.517291e+002,8.499878e+000
6.526933e+002,5.869934e+000
6.536575e+002,5.488342e+000
6.546218e+002,6.082520e+000
6.555860e+002,5.184021e+000
6.565502e+002,1.632996e+000
6.575145e+002,-1.180786e+000
6.584787e+002,-3.689819e+000
6.594429e+002,-5.189819e+000
6.604072e+002,-4.846924e+000
6.613714e+002,-2.374756e+000
6.623356e+002,4.542236e-001
6.632999e+002,2.454285e+000
6.642641e+002,4.232971e+000
6.652283e+002,7.239197e+000
6.661926e+002,1.114081e+001
6.671568e+002,1.383521e+001
6.681210e+002,1.169476e+001
6.690853e+002,6.798401e+000
6.700495e+002,5.886414e+000
6.710137e+002,8.854797e+000
6.719780e+002,1.203577e+001
6.729422e+002,1.119934e+001
6.739064e+002,4.852051e+000
6.748707e+002,2.541565e+000
6.758349e+002,7.135620e+000
6.767991e+002,1.101935e+001
6.777634e+002,1.111041e+001
6.787276e+002,8.099182e+000
6.796918e+002,5.402954e+000
6.806561e+002,2.917419e+000
6.816203e+002,1.642029e+000
6.825845e+002,3.220459e+000
6.835488e+002,6.043518e+000
6.845130e+002,7.453552e+000
6.854772e+002,5.405640e+000
6.864415e+002,2.102417e+000
6.874057e+002,1.319519e+000
6.883699e+002,2.141968e+000
6.893342e+002,4.416565e+000
6.902984e+002,8.495239e+000
6.912626e+002,1.374585e+001
6.922269e+002,1.476727e+001
6.931911e+002,6.788818e+000
6.941553e+002,2.524536e+000
6.951196e+002,5.069397e+000
6.960838e+002,1.028955e+001
6.970480e+002,1.137622e+001
6.980123e+002,4.717957e+000
6.989765e+002,4.340210e-001
6.999407e+002,4.680359e+000
7.009050e+002,1.086249e+001
7.018692e+002,1.340222e+001
7.028334e+002,1.058087e+001
7.037977e+002,5.843506e+000
7.047619e+002,5.110535e+000
7.057261e+002,6.967529e+000
7.066904e+002,7.633484e+000
7.076546e+002,6.486023e+000
7.086188e+002,4.725281e+000
7.095831e+002,4.181946e+000
7.105473e+002,4.750977e+000
7.115115e+002,6.395203e+000
7.124758e+002,1.127264e+001
7.134400e+002,1.464142e+001
7.144042e+002,1.267474e+001
7.153685e+002,5.652649e+000
7.163327e+002,3.771362e-001
7.172969e+002,1.415405e+000
7.182612e+002,3.776855e+000
7.192254e+002,6.634827e+000
7.201896e+002,8.896545e+000
7.211539e+002,8.937622e+000
7.221181e+002,5.128357e+000
7.230823e+002,-4.669189e-001
7.240466e+002,-2.382568e+000
7.250108e+002,-9.027100e-001
7.259750e+002,2.262878e+000
7.269393e+002,6.045898e+000
7.279035e+002,9.652100e+000
7.288677e+002,1.065216e+001
7.298320e+002,8.260559e+000
7.307962e+002,6.023438e+000
7.317604e+002,3.261292e+000
7.327247e+002,1.238953e+000
7.336889e+002,1.915344e+000
7.346531e+002,6.185059e+000
7.356174e+002,8.643127e+000
7.365816e+002,6.609436e+000
7.375458e+002,3.416382e+000
7.385101e+002,1.193176e+000
7.394743e+002,6.265869e-001
7.404385e+002,1.086914e+000
7.414028e+002,1.580505e+000
7.423670e+002,1.215820e+000
7.433312e+002,4.945679e-001
7.442955e+002,1.370239e-001
7.452597e+002,4.788208e-001
7.462239e+002,1.564514e+000
7.471882e+002,3.304871e+000
7.481524e+002,5.216675e+000
7.491166e+002,7.497925e+000
7.500809e+002,8.357849e+000
7.510451e+002,6.314575e+000
7.520093e+002,2.188416e+000
7.529736e+002,-1.147949e+000
7.539378e+002,-1.611877e+000
7.549020e+002,-7.263184e-001
7.558663e+002,2.478638e-001
7.568306e+002,1.606445e+000
7.577948e+002,4.242493e+000
7.587590e+002,8.350342e+000
7.597233e+002,1.223694e+001
7.606875e+002,1.070190e+001
7.616517e+002,4.863159e+000
7.626160e+002,9.359741e-001
7.635802e+002,9.865112e-001
7.645444e+002,3.479248e+000
7.655087e+002,5.121582e+000
7.664729e+002,5.206909e+000
7.674371e+002,5.606934e+000
7.684014e+002,6.148987e+000
7.693656e+002,7.118164e+000
7.703298e+002,9.113892e+000
7.712941e+002,1.209540e+001
7.722583e+002,1.489813e+001
7.732225e+002,1.720886e+001
7.741868e+002,1.825629e+001
7.751510e+002,1.632617e+001
7.761152e+002,1.265656e+001
7.770795e+002,1.002521e+001
7.780437e+002,1.083881e+001
7.790079e+002,1.445807e+001
7.799722e+002,1.674310e+001
7.809364e+002,1.787616e+001
7.819006e+002,1.790686e+001
7.828649e+002,1.648071e+001
7.838291e+002,1.442737e+001
7.847933e+002,1.383752e+001
7.857576e+002,1.536487e+001
7.867218e+002,1.588934e+001
7.876860e+002,1.482819e+001
7.886503e+002,1.364355e+001
7.896145e+002,1.347015e+001
7.905787e+002,1.460114e+001
7.915430e+002,1.645514e+001
7.925072e+002,1.890149e+001
7.934714e+002,2.050763e+001
7.944357e+002,1.946899e+001
7.953999e+002,1.652344e+001
7.963641e+002,1.434973e+001
7.973284e+002,1.586340e+001
7.982926e+002,2.138678e+001
7.992568e+002,2.459070e+001
8.002211e+002,2.413098e+001
8.011853e+002,2.229034e+001
8.021495e+002,2.016962e+001
8.031138e+002,1.862170e+001
8.040780e+002,1.854053e+001
8.050422e+002,2.017950e+001
8.060065e+002,2.173169e+001
8.069707e+002,2.251343e+001
8.079349e+002,2.242365e+001
8.088992e+002,2.141510e+001
8.098634e+002,1.975653e+001
8.108276e+002,1.816113e+001
8.117919e+002,1.700720e+001
8.127561e+002,1.571741e+001
8.137203e+002,1.489221e+001
8.146846e+002,1.509332e+001
8.156488e+002,1.595856e+001
8.166130e+002,1.663489e+001
8.175773e+002,1.677209e+001
8.185415e+002,1.808014e+001
8.195057e+002,2.205902e+001
8.204700e+002,2.429565e+001
8.214342e+002,2.169507e+001
8.223984e+002,1.625665e+001
8.233627e+002,1.359131e+001
8.243269e+002,1.717072e+001
8.252911e+002,2.105829e+001
8.262554e+002,2.170337e+001
8.272196e+002,2.074768e+001
8.281838e+002,1.972205e+001
8.291481e+002,1.921906e+001
8.301123e+002,1.869904e+001
8.310765e+002,1.703455e+001
8.320408e+002,1.433459e+001
8.330050e+002,1.317737e+001
8.339692e+002,1.411707e+001
8.349335e+002,1.572321e+001
8.358977e+002,1.667285e+001
8.368619e+002,1.709454e+001
8.378262e+002,1.802515e+001
8.387904e+002,1.986151e+001
8.397546e+002,2.098993e+001
8.407189e+002,2.044257e+001
8.416831e+002,1.914349e+001
8.426473e+002,1.867279e+001
8.436116e+002,1.983112e+001
8.445758e+002,2.190265e+001
8.455400e+002,2.411908e+001
8.465043e+002,2.572394e+001
8.474685e+002,2.635352e+001
8.484327e+002,2.632831e+001
8.493970e+002,2.633508e+001
8.503612e+002,2.694635e+001
8.513254e+002,2.811542e+001
8.522897e+002,2.825262e+001
8.532539e+002,2.591907e+001
8.542181e+002,2.389063e+001
8.551824e+002,2.432660e+001
8.561466e+002,2.750000e+001
8.571108e+002,3.173682e+001
8.580751e+002,3.553943e+001
8.590393e+002,3.967731e+001
8.600035e+002,4.657446e+001
8.609678e+002,5.365216e+001
8.619320e+002,5.746643e+001
8.628962e+002,5.675000e+001
8.638605e+002,5.431195e+001
8.648247e+002,5.400275e+001
8.657889e+002,5.529297e+001
8.667532e+002,5.788934e+001
8.677174e+002,6.173444e+001
8.686816e+002,6.500311e+001
8.696459e+002,6.533295e+001
8.706101e+002,6.220660e+001
8.715743e+002,6.213147e+001
8.725386e+002,6.888684e+001
8.735028e+002,7.373157e+001
8.744670e+002,7.161621e+001
8.754313e+002,6.607013e+001
8.763955e+002,6.461768e+001
8.773597e+002,7.085864e+001
8.783240e+002,7.836768e+001
8.792882e+002,8.257025e+001
8.802524e+002,8.527698e+001
8.812167e+002,8.825848e+001
8.821809e+002,9.171417e+001
8.831451e+002,9.438391e+001
8.841094e+002,9.459430e+001
8.850736e+002,9.283789e+001
8.860378e+002,9.295313e+001
8.870021e+002,9.495856e+001
8.879663e+002,9.729132e+001
8.889305e+002,9.864374e+001
8.898948e+002,9.922217e+001
8.908590e+002,1.010703e+002
8.918232e+002,1.065391e+002
8.927875e+002,1.103450e+002
8.937517e+002,1.103035e+002
8.947159e+002,1.091967e+002
8.956802e+002,1.086678e+002
8.966444e+002,1.090355e+002
8.976086e+002,1.101572e+002
8.985729e+002,1.129612e+002
8.995371e+002,1.165772e+002
9.005013e+002,1.191674e+002
9.014656e+002,1.208884e+002
9.024298e+002,1.215367e+002
9.033940e+002,1.203615e+002
9.043583e+002,1.175888e+002
9.053225e+002,1.181971e+002
9.062867e+002,1.270125e+002
9.072510e+002,1.321893e+002
9.082152e+002,1.329756e+002
9.091794e+002,1.314355e+002
9.101437e+002,1.285688e+002
9.111079e+002,1.244377e+002
9.120721e+002,1.216205e+002
9.130364e+002,1.224392e+002
9.140006e+002,1.235359e+002
9.149648e+002,1.237459e+002
9.159291e+002,1.232905e+002
9.168933e+002,1.224180e+002
9.178575e+002,1.210931e+002
9.188218e+002,1.192136e+002
9.197860e+002,1.170443e+002
9.207502e+002,1.142734e+002
9.217145e+002,1.129492e+002
9.226787e+002,1.149643e+002
9.236429e+002,1.183481e+002
9.246072e+002,1.200314e+002
9.255714e+002,1.194238e+002
9.265356e+002,1.182543e+002
9.274999e+002,1.170893e+002
9.284641e+002,1.146815e+002
9.294283e+002,1.096497e+002
9.303926e+002,1.036331e+002
9.313568e+002,9.935535e+001
9.323210e+002,9.823737e+001
9.332853e+002,9.843622e+001
9.342495e+002,9.782721e+001
9.352137e+002,9.623499e+001
9.361780e+002,9.305444e+001
9.371422e+002,8.857288e+001
9.381064e+002,8.454626e+001
9.390707e+002,8.288458e+001
9.400349e+002,8.331061e+001
9.409991e+002,8.456781e+001
9.419634e+002,8.782813e+001
9.429276e+002,9.007184e+001
9.438918e+002,9.021686e+001
9.448561e+002,8.914117e+001
9.458203e+002,8.855878e+001
9.467845e+002,8.932166e+001
9.477488e+002,8.944104e+001
9.487130e+002,8.573358e+001
9.496772e+002,8.174072e+001
9.506415e+002,8.016064e+001
9.516057e+002,8.119879e+001
9.525699e+002,8.412933e+001
9.535342e+002,8.830267e+001
9.544984e+002,9.290149e+001
9.554626e+002,9.143213e+001
9.564269e+002,8.321283e+001
9.573911e+002,7.708112e+001
9.583553e+002,7.675507e+001
9.593196e+002,7.895892e+001
9.602838e+002,7.764819e+001
9.612480e+002,7.081775e+001
9.622123e+002,6.742090e+001
9.631765e+002,7.582220e+001
9.641407e+002,8.274292e+001
9.651050e+002,7.975317e+001
9.660692e+002,7.017572e+001
9.670334e+002,6.233453e+001
9.679977e+002,6.165131e+001
9.689619e+002,6.561987e+001
9.699261e+002,6.891248e+001
9.708904e+002,7.141907e+001
9.718546e+002,7.340039e+001
9.728188e+002,7.431665e+001
9.737831e+002,7.638251e+001
9.747473e+002,8.382452e+001
9.757115e+002,9.859894e+001
9.766758e+002,1.089167e+002
9.776400e+002,1.132554e+002
9.786042e+002,1.157699e+002
9.795685e+002,1.180901e+002
9.805327e+002,1.180630e+002
9.814969e+002,1.121498e+002
9.824612e+002,9.945197e+001
9.834254e+002,8.566663e+001
9.843896e+002,7.475171e+001
9.853539e+002,6.589941e+001
9.863181e+002,5.824188e+001
9.872823e+002,5.172705e+001
9.882466e+002,4.779681e+001
9.892108e+002,4.828455e+001
9.901750e+002,5.292731e+001
9.911393e+002,5.510999e+001
9.921035e+002,5.020978e+001
9.930677e+002,4.779193e+001
9.940320e+002,4.980682e+001
9.949962e+002,5.411005e+001
9.959604e+002,5.947211e+001
9.969247e+002,6.570154e+001
9.978889e+002,7.104340e+001
9.988531e+002,7.380756e+001
9.998174e+002,7.493665e+001
1.000782e+003,7.513672e+001
1.001746e+003,7.499219e+001
1.002710e+003,7.523907e+001
1.003674e+003,7.600195e+001
1.004639e+003,7.630823e+001
1.005603e+003,7.430396e+001
1.006567e+003,6.953857e+001
1.007531e+003,6.661017e+001
1.008495e+003,6.622955e+001
1.009460e+003,6.627722e+001
1.010424e+003,6.565161e+001
1.011388e+003,6.462970e+001
1.012352e+003,6.404279e+001
1.013317e+003,6.443036e+001
1.014281e+003,6.367401e+001
1.015245e+003,6.037701e+001
1.016209e+003,5.621216e+001
1.017174e+003,5.272784e+001
1.018138e+003,4.987811e+001
1.019102e+003,4.633575e+001
1.020066e+003,4.103436e+001
1.021031e+003,3.491656e+001
1.021995e+003,2.963226e+001
1.022959e+003,2.465033e+001
1.023923e+003,2.011426e+001
1.024887e+003,1.576556e+001
1.025852e+003,1.220740e+001
1.026816e+003,1.127039e+001
1.027780e+003,1.446033e+001
1.028744e+003,1.476526e+001
1.029709e+003,7.686035e+000
1.030673e+003,2.150146e+000
1.031637e+003,1.820190e+000
1.032601e+003,3.934509e+000
1.033566e+003,4.345459e+000
1.034530e+003,1.775940e+000
1.035494e+003,-6.277466e-001
1.036458e+003,1.422791e+000
1.037422e+003,4.969482e+000
1.038387e+003,4.394531e+000
1.039351e+003,-5.926514e-002
1.040315e+003,-3.626160e+000
1.041279e+003,-2.472961e+000
1.042244e+003,2.558289e+000
1.043208e+003,6.496399e+000
1.044172e+003,8.685852e+000
1.045136e+003,9.743896e+000
1.046101e+003,9.281311e+000
1.047065e+003,8.623901e+000
1.048029e+003,8.885559e+000
1.048993e+003,9.560181e+000
1.049958e+003,8.864563e+000
1.050922e+003,5.768127e+000
1.051886e+003,2.324341e+000
1.052850e+003,-4.040527e-001
1.053814e+003,-1.934631e+000
1.054779e+003,-8.163452e-001
1.055743e+003,2.810974e+000
1.056707e+003,6.564819e+000
1.057671e+003,7.547485e+000
1.058636e+003,5.647766e+000
1.059600e+003,4.754578e+000
1.060564e+003,6.292786e+000
1.061528e+003,7.818359e+000
1.062493e+003,8.384949e+000
1.063457e+003,8.365662e+000
1.064421e+003,8.520752e+000
1.065385e+003,9.104919e+000
1.066349e+003,9.527771e+000
1.067314e+003,9.411438e+000
1.068278e+003,9.169922e+000
1.069242e+003,9.492981e+000
1.070206e+003,1.000696e+001
1.071171e+003,9.593140e+000
1.072135e+003,7.774170e+000
1.073099e+003,5.509460e+000
1.074063e+003,4.749512e+000
1.075028e+003,5.777893e+000
1.075992e+003,7.695435e+000
1.076956e+003,1.214935e+001
1.077920e+003,1.404517e+001
1.078885e+003,9.565308e+000
1.079849e+003,2.604553e+000
1.080813e+003,6.110229e-001
1.081777e+003,5.570374e+000
1.082741e+003,1.029810e+001
1.083706e+003,9.953918e+000
1.084670e+003,8.534546e+000
1.085634e+003,8.158142e+000
1.086598e+003,8.425415e+000
1.087563e+003,8.204224e+000
1.088527e+003,7.075745e+000
1.089491e+003,5.779907e+000
1.090455e+003,5.135315e+000
1.091420e+003,4.882690e+000
1.092384e+003,4.476746e+000
1.093348e+003,3.303162e+000
1.094312e+003,2.424805e+000
1.095276e+003,3.417603e+000
1.096241e+003,5.671265e+000
1.097205e+003,6.334839e+000
1.098169e+003,4.121765e+000
1.099133e+003,2.095032e+000
1.100098e+003,2.014954e+000
1.101062e+003,2.303589e+000
1.102026e+003,2.022888e+000
1.102990e+003,1.310791e+000
1.103955e+003,4.671021e-001
1.104919e+003,-3.825684e-001
1.105883e+003,-7.413330e-001
1.106847e+003,1.162292e+000
1.107812e+003,5.229004e+000
1.108776e+003,6.480347e+000
1.109740e+003,3.362061e+000
1.110704e+003,2.369995e-001
1.111668e+003,7.150879e-001
1.112633e+003,4.338379e+000
1.113597e+003,8.064087e+000
1.114561e+003,1.156079e+001
1.115525e+003,1.439154e+001
1.116490e+003,1.709558e+001
1.117454e+003,1.850824e+001
1.118418e+003,1.740369e+001
1.119382e+003,1.485217e+001
1.120347e+003,1.282581e+001
1.121311e+003,1.218762e+001
1.122275e+003,1.192505e+001
1.123239e+003,1.089154e+001
1.124203e+003,9.845581e+000
1.125168e+003,1.107147e+001
1.126132e+003,1.566907e+001
1.127096e+003,2.049243e+001
1.128060e+003,2.265546e+001
1.129025e+003,2.263025e+001
1.129989e+003,2.354285e+001
1.130953e+003,2.635071e+001
1.131917e+003,2.784186e+001
1.132882e+003,2.605707e+001
1.133846e+003,2.434125e+001
1.134810e+003,2.427161e+001
1.135774e+003,2.612573e+001
1.136739e+003,3.032751e+001
1.137703e+003,3.698547e+001
1.138667e+003,4.365802e+001
1.139631e+003,4.488202e+001
1.140595e+003,4.188550e+001
1.141560e+003,4.594299e+001
1.142524e+003,5.925543e+001
1.143488e+003,7.479980e+001
1.144452e+003,8.800507e+001
1.145417e+003,9.950928e+001
1.146381e+003,1.111965e+002
1.147345e+003,1.217231e+002
1.148309e+003,1.360345e+002
1.149274e+003,1.586967e+002
1.150238e+003,1.820951e+002
1.151202e+003,2.037528e+002
1.152166e+003,2.232824e+002
1.153130e+003,2.413226e+002
1.154095e+003,2.575737e+002
1.155059e+003,2.693428e+002
1.156023e+003,2.738154e+002
1.156987e+003,2.704963e+002
1.157952e+003,2.584988e+002
1.158916e+003,2.370137e+002
1.159880e+003,2.161636e+002
1.160844e+003,2.012579e+002
1.161809e+003,1.891667e+002
1.162773e+003,1.738900e+002
1.163737e+003,1.546039e+002
1.164701e+003,1.359370e+002
1.165666e+003,1.179783e+002
1.166630e+003,1.026411e+002
1.167594e+003,9.095880e+001
1.168558e+003,8.213763e+001
1.169522e+003,7.549139e+001
1.170487e+003,7.058917e+001
1.171451e+003,6.706635e+001
1.172415e+003,6.451581e+001
1.173379e+003,6.271674e+001
1.174344e+003,6.138660e+001
1.175308e+003,6.080011e+001
1.176272e+003,5.926660e+001
1.177236e+003,5.560260e+001
1.178201e+003,5.148749e+001
1.179165e+003,4.903540e+001
1.180129e+003,4.797174e+001
1.181093e+003,4.590625e+001
1.182057e+003,4.179327e+001
1.183022e+003,3.788452e+001
1.183986e+003,3.459576e+001
1.184950e+003,3.221838e+001
1.185914e+003,3.135492e+001
1.186879e+003,3.188312e+001
1.187843e+003,3.307678e+001
1.188807e+003,3.424524e+001
1.189771e+003,3.507666e+001
1.190736e+003,3.493182e+001
1.191700e+003,3.359961e+001
1.192664e+003,3.319501e+001
1.193628e+003,3.546051e+001
1.194593e+003,3.715985e+001
1.195557e+003,3.547156e+001
1.196521e+003,3.118610e+001
1.197485e+003,2.728821e+001
1.198449e+003,2.439276e+001
1.199414e+003,2.158600e+001
1.200378e+003,1.840350e+001
1.201342e+003,1.528168e+001
1.202306e+003,1.227808e+001
1.203271e+003,9.353394e+000
1.204235e+003,6.433044e+000
1.205199e+003,3.603333e+000
1.206163e+003,1.308167e+000
1.207128e+003,3.444824e-001
1.208092e+003,8.843994e-001
1.209056e+003,-8.328857e-001
1.210020e+003,-5.633362e+000
1.210984e+003,-1.049402e+001
1.211949e+003,-1.470520e+001
1.212913e+003,-1.861371e+001
1.213877e+003,-2.251489e+001
1.214841e+003,-2.632385e+001
1.215806e+003,-2.980688e+001
1.216770e+003,-3.287408e+001
1.217734e+003,-3.577716e+001
1.218698e+003,-3.931738e+001
1.219663e+003,-4.281073e+001
1.220627e+003,-4.512842e+001
1.221591e+003,-4.623456e+001
1.222555e+003,-4.713757e+001
1.223520e+003,-4.870319e+001
1.224484e+003,-5.063397e+001
1.225448e+003,-5.224591e+001
1.226412e+003,-5.336499e+001
1.227376e+003,-5.474738e+001
1.228341e+003,-5.823010e+001
1.229305e+003,-6.019409e+001
1.230269e+003,-5.736310e+001
1.231233e+003,-5.202490e+001
1.232198e+003,-4.846173e+001
1.233162e+003,-4.757550e+001
1.234126e+003,-4.853137e+001
1.235090e+003,-5.259967e+001
1.236055e+003,-5.701233e+001
1.237019e+003,-5.868451e+001
1.237983e+003,-5.829181e+001
1.238947e+003,-5.727325e+001
1.239911e+003,-5.607800e+001
1.240876e+003,-5.498767e+001
1.241840e+003,-5.452246e+001
1.242804e+003,-5.461749e+001
1.243768e+003,-5.603040e+001
1.244733e+003,-6.256000e+001
1.245697e+003,-6.507758e+001
1.246661e+003,-6.008221e+001
1.247625e+003,-5.407709e+001
1.248590e+003,-5.213446e+001
1.249554e+003,-5.309534e+001
1.250518e+003,-5.208405e+001
1.251482e+003,-4.686725e+001
1.252447e+003,-4.183777e+001
1.253411e+003,-4.258258e+001
1.254375e+003,-4.662848e+001
1.255339e+003,-4.949298e+001
1.256303e+003,-5.073175e+001
1.257268e+003,-4.998364e+001
1.258232e+003,-4.698816e+001
1.259196e+003,-4.283929e+001
1.260160e+003,-3.899792e+001
1.261125e+003,-3.512921e+001
1.262089e+003,-3.170581e+001
1.263053e+003,-2.872137e+001
1.264017e+003,-2.712280e+001
1.264982e+003,-2.813391e+001
1.265946e+003,-2.959082e+001
1.266910e+003,-2.894403e+001
1.267874e+003,-2.663818e+001
1.268839e+003,-2.532855e+001
1.269803e+003,-2.675134e+001
1.270767e+003,-2.992072e+001
1.271731e+003,-3.304919e+001
1.272695e+003,-3.599237e+001
1.273660e+003,-3.934277e+001
1.274624e+003,-4.428369e+001
1.275588e+003,-4.803461e+001
1.276552e+003,-4.816827e+001
1.277517e+003,-4.590094e+001
1.278481e+003,-4.337573e+001
1.279445e+003,-4.066791e+001
1.280409e+003,-3.996796e+001
1.281374e+003,-4.350665e+001
1.282338e+003,-4.711523e+001
1.283302e+003,-4.885925e+001
1.284266e+003,-4.944666e+001
1.285230e+003,-4.934027e+001
1.286195e+003,-4.898523e+001
1.287159e+003,-4.923145e+001
1.288123e+003,-5.064307e+001
1.289087e+003,-5.211810e+001
1.290052e+003,-5.078302e+001
1.291016e+003,-4.520685e+001
1.291980e+003,-4.320947e+001
1.292944e+003,-4.799609e+001
1.293909e+003,-5.249847e+001
1.294873e+003,-5.313263e+001
1.295837e+003,-5.186505e+001
1.296801e+003,-5.174823e+001
1.297766e+003,-5.309918e+001
1.298730e+003,-5.389984e+001
1.299694e+003,-5.317786e+001
1.300658e+003,-5.188635e+001
1.301622e+003,-5.050604e+001
1.302587e+003,-4.920874e+001
1.303551e+003,-4.849139e+001
1.304515e+003,-4.830432e+001
1.305479e+003,-4.838031e+001
1.306444e+003,-4.886743e+001
1.307408e+003,-4.948260e+001
1.308372e+003,-4.837152e+001
1.309336e+003,-4.420306e+001
1.310301e+003,-4.257739e+001
1.311265e+003,-4.569257e+001
1.312229e+003,-4.853125e+001
1.313193e+003,-4.962634e+001
1.314157e+003,-4.989905e+001
1.315122e+003,-5.052264e+001
1.316086e+003,-5.161572e+001
1.317050e+003,-5.244531e+001
1.318014e+003,-5.240381e+001
1.318979e+003,-5.135901e+001
1.319943e+003,-4.873108e+001
1.320907e+003,-4.477191e+001
1.321871e+003,-4.307648e+001
1.322836e+003,-4.481604e+001
1.323800e+003,-4.679169e+001
1.324764e+003,-4.755066e+001
1.325728e+003,-4.723718e+001
1.326693e+003,-4.594592e+001
1.327657e+003,-4.385120e+001
1.328621e+003,-4.243231e+001
1.329585e+003,-4.163495e+001
1.330549e+003,-4.032666e+001
1.331514e+003,-3.785162e+001
1.332478e+003,-3.614740e+001
1.333442e+003,-3.782263e+001
1.334406e+003,-4.168195e+001
1.335371e+003,-4.345001e+001
1.336335e+003,-4.066791e+001
1.337299e+003,-3.636066e+001
1.338263e+003,-3.662158e+001
1.339228e+003,-4.227362e+001
1.340192e+003,-4.456323e+001
1.341156e+003,-4.096552e+001
1.342120e+003,-3.801923e+001
1.343084e+003,-3.743311e+001
1.344049e+003,-3.773199e+001
1.345013e+003,-3.660736e+001
1.345977e+003,-3.485486e+001
1.346941e+003,-3.665948e+001
1.347906e+003,-4.389716e+001
1.348870e+003,-4.943152e+001
1.349834e+003,-4.489453e+001
1.350798e+003,-3.597388e+001
1.351763e+003,-3.348120e+001
1.352727e+003,-3.648688e+001
1.353691e+003,-3.990320e+001
1.354655e+003,-4.215112e+001
1.355620e+003,-4.316986e+001
1.356584e+003,-4.210748e+001
1.357548e+003,-3.925037e+001
1.358512e+003,-3.866791e+001
1.359476e+003,-4.260486e+001
1.360441e+003,-4.448029e+001
1.361405e+003,-4.058270e+001
1.362369e+003,-3.615277e+001
1.363333e+003,-3.256488e+001
1.364298e+003,-3.057782e+001
1.365262e+003,-3.157953e+001
1.366226e+003,-3.526453e+001
1.367190e+003,-3.924005e+001
1.368155e+003,-4.142151e+001
1.369119e+003,-4.165332e+001
1.370083e+003,-3.900397e+001
1.371047e+003,-3.165381e+001
1.372011e+003,-2.888397e+001
1.372976e+003,-3.542047e+001
1.373940e+003,-4.083984e+001
1.374904e+003,-4.015009e+001
1.375868e+003,-3.672272e+001
1.376833e+003,-3.508649e+001
1.377797e+003,-3.545740e+001
1.378761e+003,-3.464880e+001
1.379725e+003,-3.062640e+001
1.380690e+003,-2.697034e+001
1.381654e+003,-2.858618e+001
1.382618e+003,-3.213739e+001
1.383582e+003,-3.315112e+001
1.384547e+003,-3.154468e+001
1.385511e+003,-2.917059e+001
1.386475e+003,-2.687012e+001
1.387439e+003,-2.510626e+001
1.388403e+003,-2.490662e+001
1.389368e+003,-2.629962e+001
1.390332e+003,-2.630029e+001
1.391296e+003,-2.364746e+001
1.392260e+003,-2.149506e+001
1.393225e+003,-1.985797e+001
1.394189e+003,-1.970966e+001
1.395153e+003,-2.328851e+001
1.396117e+003,-2.798218e+001
1.397082e+003,-2.960876e+001
1.398046e+003,-2.727185e+001
1.399010e+003,-2.362952e+001
1.399974e+003,-2.127734e+001
1.400938e+003,-2.046198e+001
1.401903e+003,-2.091022e+001
1.402867e+003,-2.207043e+001
1.403831e+003,-2.263428e+001
1.404795e+003,-2.335626e+001
1.405760e+003,-2.342072e+001
1.406724e+003,-2.258301e+001
1.407688e+003,-2.209888e+001
1.408652e+003,-2.319928e+001
1.409617e+003,-2.518323e+001
1.410581e+003,-2.563300e+001
1.411545e+003,-2.331458e+001
1.412509e+003,-2.088196e+001
1.413474e+003,-2.162000e+001
1.414438e+003,-2.403461e+001
1.415402e+003,-2.473914e+001
1.416366e+003,-2.367767e+001
1.417330e+003,-2.294427e+001
1.418295e+003,-2.351770e+001
1.419259e+003,-2.400677e+001
1.420223e+003,-2.256696e+001
1.421187e+003,-1.985120e+001
1.422152e+003,-1.877484e+001
1.423116e+003,-1.963727e+001
1.424080e+003,-1.999957e+001
1.425044e+003,-1.914282e+001
1.426009e+003,-1.844086e+001
1.426973e+003,-1.860431e+001
1.427937e+003,-1.918201e+001
1.428901e+003,-1.961902e+001
1.429865e+003,-1.960901e+001
1.430830e+003,-1.909509e+001
1.431794e+003,-1.820081e+001
1.432758e+003,-1.697028e+001
1.433722e+003,-1.497559e+001
1.434687e+003,-1.157874e+001
1.435651e+003,-8.705933e+000
1.436615e+003,-8.334900e+000
1.437579e+003,-7.961121e+000
1.438544e+003,-6.714172e+000
1.439508e+003,-5.755859e+000
1.440472e+003,-5.546753e+000
1.441436e+003,-5.853821e+000
1.442401e+003,-6.787109e+000
1.443365e+003,-8.320313e+000
1.444329e+003,-9.173279e+000
1.445293e+003,-8.076599e+000
1.446257e+003,-6.217163e+000
1.447222e+003,-6.531433e+000
1.448186e+003,-8.461182e+000
1.449150e+003,-8.331116e+000
1.450114e+003,-5.320007e+000
1.451079e+003,-2.853821e+000
1.452043e+003,-2.676208e+000
1.453007e+003,-3.526123e+000
1.453971e+003,-4.079346e+000
1.454936e+003,-4.484131e+000
1.455900e+003,-4.938782e+000
1.456864e+003,-5.280884e+000
1.457828e+003,-5.701538e+000
1.458792e+003,-6.733093e+000
1.459757e+003,-7.983948e+000
1.460721e+003,-9.381409e+000
1.461685e+003,-1.066376e+001
1.462649e+003,-1.112738e+001
1.463614e+003,-1.052368e+001
1.464578e+003,-9.586182e+000
1.465542e+003,-9.070129e+000
1.466506e+003,-8.984680e+000
1.467471e+003,-9.002441e+000
1.468435e+003,-8.814575e+000
1.469399e+003,-8.174622e+000
1.470363e+003,-7.164856e+000
1.471328e+003,-6.453247e+000
1.472292e+003,-6.793579e+000
1.473256e+003,-7.590210e+000
1.474220e+003,-8.439392e+000
1.475184e+003,-8.588562e+000
1.476149e+003,-6.742065e+000
1.477113e+003,-3.141968e+000
1.478077e+003,-4.421387e-001
1.479041e+003,-1.016357e+000
1.480006e+003,-3.285828e+000
1.480970e+003,-2.608276e+000
1.481934e+003,1.951172e+000
1.482898e+003,3.754700e+000
1.483863e+003,4.821777e-002
1.484827e+003,-2.394226e+000
1.485791e+003,-9.029541e-001
1.486755e+003,2.407837e+000
1.487719e+003,5.930603e+000
1.488684e+003,9.117065e+000
1.489648e+003,1.133533e+001
1.490612e+003,1.262891e+001
1.491576e+003,1.484180e+001
1.492541e+003,1.975629e+001
1.493505e+003,2.562048e+001
1.494469e+003,2.788812e+001
1.495433e+003,2.700922e+001
1.496398e+003,2.858386e+001
1.497362e+003,3.451202e+001
1.498326e+003,4.085516e+001
1.499290e+003,4.503784e+001
1.500255e+003,4.873566e+001
1.501219e+003,5.399182e+001
1.502183e+003,6.063080e+001
1.503147e+003,6.747656e+001
1.504111e+003,7.383118e+001
1.505076e+003,8.277185e+001
1.506040e+003,9.788782e+001
1.507004e+003,1.147219e+002
1.507968e+003,1.286534e+002
1.508933e+003,1.409077e+002
1.509897e+003,1.533221e+002
1.510861e+003,1.670395e+002
1.511825e+003,1.849692e+002
1.512790e+003,2.097654e+002
1.513754e+003,2.375898e+002
1.514718e+003,2.613063e+002
1.515682e+003,2.806014e+002
1.516646e+003,3.018649e+002
1.517611e+003,3.284457e+002
1.518575e+003,3.511621e+002
1.519539e+003,3.678192e+002
1.520503e+003,3.799008e+002
1.521468e+003,3.869816e+002
1.522432e+003,3.900765e+002
1.523396e+003,3.911448e+002
1.524360e+003,3.898346e+002
1.525325e+003,3.830688e+002
1.526289e+003,3.689344e+002
1.527253e+003,3.508325e+002
1.528217e+003,3.349181e+002
1.529182e+003,3.215746e+002
1.530146e+003,3.030212e+002
1.531110e+003,2.765654e+002
1.532074e+003,2.490333e+002
1.533039e+003,2.179597e+002
1.534003e+003,1.880451e+002
1.534967e+003,1.627809e+002
1.535931e+003,1.402020e+002
1.536896e+003,1.165852e+002
1.537860e+003,9.307477e+001
1.538824e+003,7.447614e+001
1.539788e+003,6.298053e+001
1.540752e+003,5.582184e+001
1.541717e+003,4.981226e+001
1.542681e+003,4.507526e+001
1.543645e+003,4.120618e+001
1.544609e+003,3.910858e+001
1.545573e+003,3.659503e+001
1.546538e+003,3.129535e+001
1.547502e+003,2.762793e+001
1.548466e+003,2.853326e+001
1.549430e+003,3.166510e+001
1.550395e+003,3.462335e+001
1.551359e+003,3.708832e+001
1.552323e+003,4.021722e+001
1.553287e+003,4.425714e+001
1.554252e+003,4.636615e+001
1.555216e+003,4.388507e+001
1.556180e+003,3.803070e+001
1.557144e+003,3.095197e+001
1.558109e+003,2.278363e+001
1.559073e+003,1.716742e+001
1.560037e+003,1.430383e+001
1.561001e+003,1.257239e+001
1.561966e+003,1.209851e+001
1.562930e+003,1.289899e+001
1.563894e+003,1.561603e+001
1.564858e+003,1.900250e+001
1.565823e+003,2.007037e+001
1.566787e+003,1.833472e+001
1.567751e+003,1.662079e+001
1.568715e+003,1.659692e+001
1.569679e+003,1.746643e+001
1.570644e+003,1.836951e+001
1.571608e+003,1.891638e+001
1.572572e+003,1.839697e+001
1.573536e+003,1.697961e+001
1.574500e+003,1.693536e+001
1.575465e+003,1.949866e+001
1.576429e+003,2.256787e+001
1.577393e+003,2.417633e+001
1.578357e+003,2.497272e+001
1.579322e+003,2.701569e+001
1.580286e+003,3.030908e+001
1.581250e+003,3.159753e+001
1.582214e+003,2.939642e+001
1.583179e+003,2.671484e+001
1.584143e+003,2.436133e+001
1.585107e+003,2.369623e+001
1.586071e+003,2.883771e+001
1.587036e+003,3.760736e+001
1.588000e+003,4.109509e+001
1.588964e+003,3.679382e+001
1.589928e+003,3.275891e+001
1.590893e+003,3.527209e+001
1.591857e+003,4.023053e+001
1.592821e+003,4.134546e+001
1.593785e+003,3.932593e+001
1.594750e+003,3.780200e+001
1.595714e+003,3.699323e+001
1.596678e+003,3.694647e+001
1.597642e+003,3.789661e+001
1.598606e+003,3.942029e+001
1.599571e+003,4.173297e+001
1.600535e+003,4.427521e+001
1.601499e+003,4.601727e+001
1.602463e+003,4.700690e+001
1.603427e+003,4.844427e+001
1.604392e+003,5.098059e+001
1.605356e+003,5.304358e+001
1.606320e+003,5.237396e+001
1.607284e+003,5.025616e+001
1.608249e+003,5.087549e+001
1.609213e+003,5.437988e+001
1.610177e+003,5.571722e+001
1.611141e+003,5.313080e+001
1.612106e+003,5.068341e+001
1.613070e+003,5.027942e+001
1.614034e+003,5.073077e+001
1.614998e+003,5.199823e+001
1.615963e+003,5.324719e+001
1.616927e+003,5.246118e+001
1.617891e+003,4.970135e+001
1.618855e+003,4.804633e+001
1.619820e+003,4.937390e+001
1.620784e+003,5.122778e+001
1.621748e+003,5.015845e+001
1.622712e+003,4.737421e+001
1.623677e+003,4.772308e+001
1.624641e+003,5.192810e+001
1.625605e+003,5.544427e+001
1.626569e+003,5.615973e+001
1.627533e+003,5.610577e+001
1.628498e+003,5.683704e+001
1.629462e+003,5.762341e+001
1.630426e+003,5.762152e+001
1.631390e+003,5.703870e+001
1.632354e+003,5.622852e+001
1.633319e+003,5.539771e+001
1.634283e+003,5.558398e+001
1.635247e+003,5.783728e+001
1.636211e+003,6.042877e+001
1.637176e+003,6.003699e+001
1.638140e+003,5.707635e+001
1.639104e+003,5.550305e+001
1.640068e+003,5.557690e+001
1.641033e+003,5.569409e+001
1.641997e+003,5.464142e+001
1.642961e+003,5.516461e+001
1.643925e+003,6.098016e+001
1.644890e+003,6.693066e+001
1.645854e+003,6.704156e+001
1.646818e+003,6.289221e+001
1.647782e+003,5.963196e+001
1.648747e+003,5.885126e+001
1.649711e+003,5.883069e+001
1.650675e+003,5.847516e+001
1.651639e+003,5.793542e+001
1.652604e+003,5.667706e+001
1.653568e+003,5.458221e+001
1.654532e+003,5.443250e+001
1.655496e+003,5.741504e+001
1.656460e+003,5.857080e+001
1.657425e+003,5.522095e+001
1.658389e+003,5.173480e+001
1.659353e+003,5.047089e+001
1.660317e+003,5.021613e+001
1.661281e+003,5.004999e+001
1.662246e+003,4.953925e+001
1.663210e+003,4.781256e+001
1.664174e+003,4.480621e+001
1.665138e+003,4.285327e+001
1.666103e+003,4.436554e+001
1.667067e+003,4.698297e+001
1.668031e+003,4.548608e+001
1.668995e+003,4.037018e+001
1.669960e+003,3.767188e+001
1.670924e+003,3.820117e+001
1.671888e+003,4.008698e+001
1.672852e+003,4.394122e+001
1.673817e+003,4.692218e+001
1.674781e+003,4.740582e+001
1.675745e+003,4.599963e+001
1.676709e+003,4.204156e+001
1.677674e+003,3.681677e+001
1.678638e+003,3.416821e+001
1.679602e+003,3.528857e+001
1.680566e+003,3.680725e+001
1.681531e+003,3.643292e+001
1.682495e+003,3.496515e+001
1.683459e+003,3.283539e+001
1.684423e+003,3.017108e+001
1.685387e+003,2.932556e+001
1.686352e+003,3.086096e+001
1.687316e+003,3.240680e+001
1.688280e+003,3.376404e+001
1.689244e+003,3.388489e+001
1.690208e+003,3.046130e+001
1.691173e+003,2.623535e+001
1.692137e+003,2.458685e+001
1.693101e+003,2.513293e+001
1.694065e+003,2.530078e+001
1.695030e+003,2.414569e+001
1.695994e+003,2.345190e+001
1.696958e+003,2.537585e+001
1.697922e+003,2.739307e+001
1.698887e+003,2.540771e+001
1.699851e+003,2.116272e+001
1.700815e+003,2.021185e+001
1.701779e+003,2.278033e+001
1.702744e+003,2.400391e+001
1.703708e+003,2.244940e+001
1.704672e+003,2.048077e+001
1.705636e+003,1.915436e+001
1.706601e+003,1.807037e+001
1.707565e+003,1.725287e+001
1.708529e+003,1.686249e+001
1.709493e+003,1.667358e+001
1.710458e+003,1.661224e+001
1.711422e+003,1.668848e+001
1.712386e+003,1.732507e+001
1.713350e+003,1.812677e+001
1.714314e+003,1.882544e+001
1.715279e+003,1.885315e+001
1.716243e+003,1.730200e+001
1.717207e+003,1.446100e+001
1.718171e+003,1.134357e+001
1.719135e+003,8.306091e+000
1.720100e+003,7.025513e+000
1.721064e+003,8.874512e+000
1.722028e+003,1.186835e+001
1.722992e+003,1.367871e+001
1.723957e+003,1.469385e+001
1.724921e+003,1.523553e+001
1.725885e+003,1.481305e+001
1.726849e+003,1.353723e+001
1.727814e+003,1.146887e+001
1.728778e+003,9.716064e+000
1.729742e+003,8.248108e+000
1.730706e+003,7.514709e+000
1.731671e+003,8.041626e+000
1.732635e+003,8.991699e+000
1.733599e+003,9.957947e+000
1.734563e+003,1.071967e+001
1.735528e+003,9.331848e+000
1.736492e+003,4.627930e+000
1.737456e+003,-1.181091e+000
1.738420e+003,-5.856140e+000
1.739385e+003,-8.830505e+000
1.740349e+003,-6.580383e+000
1.741313e+003,3.122864e+000
1.742277e+003,7.870361e+000
1.743241e+003,5.048035e+000
1.744206e+003,2.297668e+000
1.745170e+003,-3.804932e-001
1.746134e+003,-2.041199e+000
1.747098e+003,-1.506531e+000
1.748063e+003,-2.380981e-001
1.749027e+003,4.261475e-001
1.749991e+003,2.980957e-001
1.750955e+003,-1.122437e+000
1.751919e+003,-3.555664e+000
1.752884e+003,-4.188965e+000
1.753848e+003,-6.232910e-001
1.754812e+003,4.347229e+000
1.755776e+003,5.074097e+000
1.756741e+003,2.013855e+000
1.757705e+003,9.490356e-001
1.758669e+003,2.071777e+000
1.759633e+003,3.910217e+000
1.760598e+003,7.690613e+000
1.761562e+003,9.653137e+000
1.762526e+003,7.826477e+000
1.763490e+003,5.353760e+000
1.764455e+003,4.008057e+000
1.765419e+003,3.814819e+000
1.766383e+003,4.932800e+000
1.767347e+003,6.669006e+000
1.768312e+003,6.838379e+000
1.769276e+003,4.284424e+000
1.770240e+003,1.418152e+000
1.771204e+003,1.617004e+000
1.772168e+003,3.382385e+000
1.773133e+003,1.527954e+000
1.774097e+003,-3.269775e+000
1.775061e+003,-3.137695e+000
1.776025e+003,3.259644e+000
1.776990e+003,7.801941e+000
1.777954e+003,8.065308e+000
1.778918e+003,6.347717e+000
1.779882e+003,2.293762e+000
1.780846e+003,-1.820496e+000
1.781811e+003,-2.304077e+000
1.782775e+003,4.614258e-002
1.783739e+003,2.665955e+000
1.784703e+003,5.442078e+000
1.785668e+003,6.946960e+000
1.786632e+003,5.126831e+000
1.787596e+003,3.033203e+000
1.788560e+003,3.963806e+000
1.789525e+003,6.051208e+000
1.790489e+003,6.150513e+000
1.791453e+003,4.502747e+000
1.792417e+003,2.534058e+000
1.793382e+003,8.077393e-001
1.794346e+003,8.614502e-001
1.795310e+003,3.609253e+000
1.796274e+003,6.670715e+000
1.797239e+003,7.632813e+000
1.798203e+003,7.116333e+000
1.799167e+003,5.738831e+000
1.800131e+003,2.632874e+000
1.801095e+003,-1.040039e-001
1.802060e+003,-3.465637e+000
1.803024e+003,-3.681152e+000
1.803988e+003,2.362244e+000
1.804952e+003,7.778442e+000
1.805917e+003,8.948853e+000
1.806881e+003,8.219727e+000
1.807845e+003,7.894897e+000
1.808809e+003,8.062622e+000
1.809773e+003,7.976196e+000
1.810738e+003,7.494324e+000
1.811702e+003,6.912292e+000
1.812666e+003,6.413086e+000
1.813630e+003,6.672241e+000
1.814595e+003,8.872192e+000
1.815559e+003,1.215454e+001
1.816523e+003,1.301123e+001
1.817487e+003,1.118335e+001
1.818452e+003,1.096564e+001
1.819416e+003,1.395526e+001
1.820380e+003,1.531207e+001
1.821344e+003,1.219147e+001
1.822309e+003,8.670105e+000
1.823273e+003,7.116577e+000
1.824237e+003,6.806030e+000
1.825201e+003,7.059937e+000
1.826166e+003,7.644287e+000
1.827130e+003,8.383728e+000
1.828094e+003,9.122864e+000
1.829058e+003,9.576782e+000
1.830022e+003,9.696716e+000
1.830987e+003,9.843262e+000
1.831951e+003,1.071423e+001
1.832915e+003,1.151532e+001
1.833879e+003,1.085876e+001
1.834844e+003,9.113281e+000
1.835808e+003,7.212585e+000
1.836772e+003,5.520752e+000
1.837736e+003,5.192444e+000
1.838700e+003,6.645813e+000
1.839665e+003,7.912781e+000
1.840629e+003,7.205750e+000
1.841593e+003,5.713013e+000
1.842557e+003,5.870483e+000
1.843522e+003,7.622009e+000
1.844486e+003,7.858948e+000
1.845450e+003,5.093018e+000
1.846414e+003,4.518433e+000
1.847379e+003,7.689026e+000
1.848343e+003,9.855103e+000
1.849307e+003,8.624084e+000
1.850271e+003,7.339294e+000
1.851236e+003,9.327942e+000
1.852200e+003,1.253656e+001
1.853164e+003,1.326831e+001
1.854128e+003,1.160199e+001
1.855093e+003,1.054132e+001
1.856057e+003,1.140387e+001
1.857021e+003,1.242908e+001
1.857985e+003,1.196814e+001
1.858949e+003,1.065588e+001
1.859914e+003,9.440125e+000
1.860878e+003,8.507935e+000
1.861842e+003,8.384766e+000
1.862806e+003,8.967957e+000
1.863771e+003,1.057605e+001
1.864735e+003,1.357892e+001
1.865699e+003,1.549750e+001
1.866663e+003,1.516742e+001
1.867627e+003,1.416284e+001
1.868592e+003,1.329541e+001
1.869556e+003,1.243707e+001
1.870520e+003,1.189484e+001
1.871484e+003,1.161401e+001
1.872449e+003,1.136566e+001
1.873413e+003,1.170709e+001
1.874377e+003,1.338959e+001
1.875341e+003,1.713702e+001
1.876306e+003,2.007983e+001
1.877270e+003,2.021320e+001
1.878234e+003,1.904700e+001
1.879198e+003,1.841077e+001
1.880163e+003,1.774481e+001
1.881127e+003,1.488531e+001
1.882091e+003,1.062695e+001
1.883055e+003,8.979004e+000
1.884020e+003,1.136810e+001
1.884984e+003,1.480029e+001
1.885948e+003,1.661035e+001
1.886912e+003,1.719629e+001
1.887876e+003,1.724335e+001
1.888841e+003,1.687006e+001
1.889805e+003,1.722107e+001
1.890769e+003,1.851770e+001
1.891733e+003,1.932300e+001
1.892698e+003,1.909467e+001
1.893662e+003,1.873584e+001
1.894626e+003,1.828888e+001
1.895590e+003,1.837756e+001
1.896554e+003,2.033331e+001
1.897519e+003,2.272894e+001
1.898483e+003,2.329071e+001
1.899447e+003,2.229828e+001
1.900411e+003,2.173669e+001
1.901376e+003,2.201617e+001
1.902340e+003,2.314191e+001
1.903304e+003,2.610120e+001
1.904268e+003,2.823016e+001
1.905233e+003,2.762030e+001
1.906197e+003,2.591827e+001
1.907161e+003,2.432104e+001
1.908125e+003,2.326947e+001
1.909090e+003,2.317633e+001
1.910054e+003,2.376599e+001
1.911018e+003,2.478900e+001
1.911982e+003,2.610559e+001
1.912947e+003,2.643390e+001
1.913911e+003,2.473773e+001
1.914875e+003,2.295679e+001
1.915839e+003,2.421454e+001
1.916803e+003,2.741113e+001
1.917768e+003,2.780463e+001
1.918732e+003,2.486804e+001
1.919696e+003,2.427826e+001
1.920660e+003,2.759833e+001
1.921625e+003,2.951324e+001
1.922589e+003,2.782721e+001
1.923553e+003,2.583459e+001
1.924517e+003,2.538971e+001
1.925481e+003,2.535840e+001
1.926446e+003,2.404694e+001
1.927410e+003,2.271710e+001
1.928374e+003,2.438800e+001
1.929338e+003,2.875183e+001
1.930303e+003,3.151318e+001
1.931267e+003,3.150739e+001
1.932231e+003,3.172809e+001
1.933195e+003,3.409637e+001
1.934160e+003,3.578973e+001
1.935124e+003,3.410474e+001
1.936088e+003,3.093280e+001
1.937052e+003,2.862744e+001
1.938017e+003,2.731104e+001
1.938981e+003,2.619983e+001
1.939945e+003,2.523621e+001
1.940909e+003,2.519897e+001
1.941874e+003,2.632007e+001
1.942838e+003,2.793140e+001
1.943802e+003,2.972284e+001
1.944766e+003,3.165063e+001
1.945730e+003,3.305469e+001
1.946695e+003,3.373633e+001
1.947659e+003,3.375708e+001
1.948623e+003,3.299939e+001
1.949587e+003,3.197479e+001
1.950552e+003,3.086285e+001
1.951516e+003,2.956848e+001
1.952480e+003,2.758862e+001
1.953444e+003,2.638275e+001
1.954408e+003,2.705133e+001
1.955373e+003,2.859491e+001
1.956337e+003,3.031512e+001
1.957301e+003,3.233002e+001
1.958265e+003,3.389716e+001
1.959230e+003,3.496924e+001
1.960194e+003,3.621033e+001
1.961158e+003,3.701172e+001
1.962122e+003,3.801630e+001
1.963087e+003,4.085883e+001
1.964051e+003,4.231927e+001
1.965015e+003,3.878467e+001
1.965979e+003,3.511536e+001
1.966944e+003,3.731726e+001
1.967908e+003,4.210175e+001
1.968872e+003,4.241431e+001
1.969836e+003,3.831805e+001
1.970801e+003,3.572253e+001
1.971765e+003,3.710785e+001
1.972729e+003,3.929279e+001
1.973693e+003,3.956537e+001
1.974657e+003,3.912354e+001
1.975622e+003,3.940448e+001
1.976586e+003,4.029889e+001
1.977550e+003,4.244421e+001
1.978514e+003,4.546997e+001
1.979479e+003,4.650970e+001
1.980443e+003,4.518805e+001
1.981407e+003,4.395874e+001
1.982371e+003,4.386139e+001
1.983335e+003,4.371155e+001
1.984300e+003,4.229755e+001
1.985264e+003,4.085901e+001
1.986228e+003,4.165265e+001
1.987192e+003,4.415710e+001
1.988157e+003,4.573743e+001
1.989121e+003,4.647766e+001
1.990085e+003,4.642926e+001
1.991049e+003,4.522272e+001
1.992014e+003,4.433405e+001
1.992978e+003,4.336859e+001
1.993942e+003,4.318396e+001
1.994906e+003,4.451251e+001
1.995871e+003,4.628406e+001
1.996835e+003,4.852966e+001
1.997799e+003,5.043988e+001
1.998763e+003,5.003381e+001
1.999728e+003,4.786627e+001
