5.003444e+002,2.688321e+001
5.013087e+002,2.687025e+001
5.022729e+002,2.745305e+001
5.032371e+002,2.840915e+001
5.042014e+002,2.869073e+001
5.051656e+002,2.836736e+001
5.061298e+002,2.720448e+001
5.070941e+002,2.475082e+001
5.080583e+002,2.032773e+001
5.090225e+002,1.830058e+001
5.099868e+002,1.932713e+001
5.109510e+002,2.115115e+001
5.119152e+002,2.301221e+001
5.128795e+002,2.492003e+001
5.138437e+002,2.607767e+001
5.148079e+002,2.644409e+001
5.157722e+002,2.591751e+001
5.167364e+002,2.376666e+001
5.177006e+002,2.025864e+001
5.186649e+002,1.670059e+001
5.196291e+002,1.461504e+001
5.205933e+002,1.383386e+001
5.215576e+002,1.425591e+001
5.225218e+002,1.562390e+001
5.234860e+002,1.745386e+001
5.244503e+002,1.909863e+001
5.254145e+002,2.079945e+001
5.263787e+002,2.114188e+001
5.273430e+002,1.908194e+001
5.283072e+002,1.637157e+001
5.292714e+002,1.559123e+001
5.302357e+002,1.807707e+001
5.311999e+002,1.912164e+001
5.321641e+002,1.753546e+001
5.331284e+002,1.537776e+001
5.340926e+002,1.420006e+001
5.350568e+002,1.454131e+001
5.360211e+002,1.505923e+001
5.369853e+002,1.481702e+001
5.379495e+002,1.426097e+001
5.389138e+002,1.354198e+001
5.398780e+002,1.275830e+001
5.408422e+002,1.203349e+001
5.418065e+002,1.198274e+001
5.427707e+002,1.245619e+001
5.437349e+002,1.210347e+001
5.446992e+002,1.014381e+001
5.456634e+002,7.343506e+000
5.466276e+002,6.481750e+000
5.475919e+002,1.005487e+001
5.485561e+002,1.278043e+001
5.495203e+002,1.439281e+001
5.504846e+002,1.496315e+001
5.514488e+002,1.454890e+001
5.524130e+002,1.281924e+001
5.533773e+002,1.101364e+001
5.543415e+002,9.724518e+000
5.553057e+002,8.746002e+000
5.562700e+002,7.677856e+000
5.572342e+002,6.268753e+000
5.581984e+002,5.084503e+000
5.591627e+002,6.232269e+000
5.601269e+002,8.787903e+000
5.610911e+002,1.055493e+001
5.620554e+002,1.030136e+001
5.630196e+002,8.271927e+000
5.639838e+002,7.173447e+000
5.649481e+002,7.589752e+000
5.659123e+002,8.083038e+000
5.668765e+002,8.833664e+000
5.678408e+002,9.710175e+000
5.688050e+002,1.008835e+001
5.697692e+002,9.267548e+000
5.707335e+002,8.180542e+000
5.716977e+002,7.179230e+000
5.726619e+002,6.203033e+000
5.736262e+002,4.955978e+000
5.745904e+002,3.107300e+000
5.755546e+002,1.662598e+000
5.765189e+002,2.235580e+000
5.774831e+002,3.958511e+000
5.784473e+002,5.643143e+000
5.794116e+002,6.530853e+000
5.803758e+002,6.739594e+000
5.813400e+002,6.414352e+000
5.823043e+002,5.123871e+000
5.832685e+002,4.032761e+000
5.842327e+002,3.665970e+000
5.851970e+002,4.040421e+000
5.861612e+002,4.710205e+000
5.871254e+002,6.310425e+000
5.880897e+002,7.202560e+000
5.890539e+002,6.343445e+000
5.900181e+002,4.626144e+000
5.909824e+002,3.770569e+000
5.919466e+002,5.417664e+000
5.929108e+002,7.035110e+000
5.938751e+002,5.390594e+000
5.948393e+002,2.077484e+000
5.958035e+002,-4.996796e-001
5.967678e+002,-5.692749e-001
5.977320e+002,1.593430e+000
5.986962e+002,3.961456e+000
5.996605e+002,6.565735e+000
6.006247e+002,8.159668e+000
6.015889e+002,7.766800e+000
6.025532e+002,5.563980e+000
6.035174e+002,3.985184e+000
6.044816e+002,3.647522e+000
6.054459e+002,3.388443e+000
6.064101e+002,3.004242e+000
6.073743e+002,2.585205e+000
6.083386e+002,2.413193e+000
6.093028e+002,2.867569e+000
6.102670e+002,3.183868e+000
6.112313e+002,2.355957e+000
6.121955e+002,1.153793e+000
6.131597e+002,7.257996e-001
6.141240e+002,1.827911e+000
6.150882e+002,3.885651e+000
6.160524e+002,4.275543e+000
6.170167e+002,3.366379e+000
6.179809e+002,2.868439e+000
6.189451e+002,3.666931e+000
6.199094e+002,5.456863e+000
6.208736e+002,6.369995e+000
6.218378e+002,5.602676e+000
6.228021e+002,5.094635e+000
6.237663e+002,5.429199e+000
6.247305e+002,6.059235e+000
6.256948e+002,5.976288e+000
6.266590e+002,4.449280e+000
6.276232e+002,2.572540e+000
6.285875e+002,7.898407e-001
6.295517e+002,-5.787201e-001
6.305159e+002,-1.159210e+000
6.314802e+002,-8.110046e-001
6.324444e+002,9.625244e-002
6.334086e+002,9.036713e-001
6.343729e+002,1.714157e+000
6.353371e+002,2.630295e+000
6.363013e+002,3.823441e+000
6.372656e+002,4.844589e+000
6.382298e+002,4.140884e+000
6.391940e+002,-8.762970e-001
6.401583e+002,-4.343704e+000
6.411225e+002,-5.689941e+000
6.420867e+002,-5.485001e+000
6.430510e+002,-4.070435e+000
6.440152e+002,-9.680481e-001
6.449794e+002,9.650879e-001
6.459437e+002,-5.945892e-001
6.469079e+002,-3.046509e+000
6.478721e+002,-4.314270e+000
6.488364e+002,-3.686142e+000
6.498006e+002,-2.235855e+000
6.507648e+002,-1.869049e+000
6.517291e+002,-2.279449e+000
6.526933e+002,-2.687149e+000
6.536575e+002,-2.963257e+000
6.546218e+002,-3.140869e+000
6.555860e+002,-3.254639e+000
6.565502e+002,-3.116562e+000
6.575145e+002,-3.442444e+000
6.584787e+002,-4.939957e+000
6.594429e+002,-6.268066e+000
6.604072e+002,-6.049103e+000
6.613714e+002,-3.889893e+000
6.623356e+002,-2.275925e+000
6.632999e+002,-3.213257e+000
6.642641e+002,-4.447693e+000
6.652283e+002,-4.781448e+000
6.661926e+002,-4.057480e+000
6.671568e+002,-2.821762e+000
6.681210e+002,-1.620071e+000
6.690853e+002,-6.594238e-001
6.700495e+002,-3.726349e-001
6.710137e+002,-6.986389e-001
6.719780e+002,-8.564911e-001
6.729422e+002,1.223602e-001
6.739064e+002,2.731293e+000
6.748707e+002,2.973770e+000
6.758349e+002,-6.127014e-001
6.767991e+002,-4.176834e+000
6.777634e+002,-6.255753e+000
6.787276e+002,-6.783859e+000
6.796918e+002,-6.328491e+000
6.806561e+002,-4.366714e+000
6.816203e+002,-2.392700e+000
6.825845e+002,-7.104797e-001
6.835488e+002,5.374756e-001
6.845130e+002,1.111679e+000
6.854772e+002,7.799835e-001
6.864415e+002,1.829071e-001
6.874057e+002,7.781677e-001
6.883699e+002,2.008163e+000
6.893342e+002,2.733063e+000
6.902984e+002,2.321228e+000
6.912626e+002,1.002396e+000
6.922269e+002,9.263611e-002
6.931911e+002,3.671570e-001
6.941553e+002,3.526459e-001
6.951196e+002,-5.430756e-001
6.960838e+002,-1.857773e+000
6.970480e+002,-2.842209e+000
6.980123e+002,-3.414398e+000
6.989765e+002,-3.183136e+000
6.999407e+002,-1.369812e+000
7.009050e+002,6.105042e-001
7.018692e+002,1.537949e+000
7.028334e+002,1.040894e+000
7.037977e+002,-1.374207e-001
7.047619e+002,-1.003342e+000
7.057261e+002,-1.438904e+000
7.066904e+002,-1.294022e+000
7.076546e+002,-5.492249e-001
7.086188e+002,4.899750e-001
7.095831e+002,1.370544e+000
7.105473e+002,2.119659e+000
7.115115e+002,2.265457e+000
7.124758e+002,1.438553e+000
7.134400e+002,4.318542e-001
7.144042e+002,-3.358002e-001
7.153685e+002,-7.813263e-001
7.163327e+002,-8.853607e-001
7.172969e+002,-6.811523e-002
7.182612e+002,6.040344e-001
7.192254e+002,4.043427e-001
7.201896e+002,-3.494720e-001
7.211539e+002,-8.479614e-001
7.221181e+002,-3.390198e-001
7.230823e+002,6.284790e-001
7.240466e+002,1.949310e-001
7.250108e+002,-1.126053e+000
7.259750e+002,-1.391922e+000
7.269393e+002,7.100067e-001
7.279035e+002,4.523117e+000
7.288677e+002,5.668655e+000
7.298320e+002,9.223175e-001
7.307962e+002,-2.003250e+000
7.317604e+002,-1.610062e+000
7.327247e+002,5.074158e-001
7.336889e+002,2.101227e+000
7.346531e+002,2.370483e+000
7.356174e+002,2.100616e+000
7.365816e+002,1.780151e+000
7.375458e+002,1.613815e+000
7.385101e+002,1.829315e+000
7.394743e+002,2.417847e+000
7.404385e+002,3.116150e+000
7.414028e+002,3.576294e+000
7.423670e+002,3.424728e+000
7.433312e+002,2.340256e+000
7.442955e+002,3.978271e-001
7.452597e+002,-1.522491e+000
7.462239e+002,-2.624374e+000
7.471882e+002,-2.964539e+000
7.481524e+002,-2.318268e+000
7.491166e+002,1.426697e-002
7.500809e+002,1.984802e+000
7.510451e+002,2.768982e+000
7.520093e+002,2.539322e+000
7.529736e+002,2.095139e+000
7.539378e+002,1.793198e+000
7.549020e+002,1.714584e+000
7.558663e+002,1.917709e+000
7.568306e+002,2.287247e+000
7.577948e+002,2.678101e+000
7.587590e+002,2.949203e+000
7.597233e+002,2.988251e+000
7.606875e+002,2.579422e+000
7.616517e+002,1.887146e+000
7.626160e+002,1.619354e+000
7.635802e+002,2.223740e+000
7.645444e+002,3.136307e+000
7.655087e+002,3.001053e+000
7.664729e+002,8.256073e-001
7.674371e+002,-2.651672e-001
7.684014e+002,5.305481e-002
7.693656e+002,1.107819e+000
7.703298e+002,3.157867e+000
7.712941e+002,5.931503e+000
7.722583e+002,7.524597e+000
7.732225e+002,5.235886e+000
7.741868e+002,2.377945e+000
7.751510e+002,1.439041e+000
7.761152e+002,2.222839e+000
7.770795e+002,3.887451e+000
7.780437e+002,5.696808e+000
7.790079e+002,7.443787e+000
7.799722e+002,7.246536e+000
7.809364e+002,4.999496e+000
7.819006e+002,2.919647e+000
7.828649e+002,1.867416e+000
7.838291e+002,1.742706e+000
7.847933e+002,2.099442e+000
7.857576e+002,3.459015e+000
7.867218e+002,3.925781e+000
7.876860e+002,2.473907e+000
7.886503e+002,8.698883e-001
7.896145e+002,8.375092e-001
7.905787e+002,2.716354e+000
7.915430e+002,4.733521e+000
7.925072e+002,4.586960e+000
7.934714e+002,3.527939e+000
7.944357e+002,3.212921e+000
7.953999e+002,3.709106e+000
7.963641e+002,4.011749e+000
7.973284e+002,2.873672e+000
7.982926e+002,1.362762e-001
7.992568e+002,-6.922455e-001
8.002211e+002,1.090515e+000
8.011853e+002,2.451294e+000
8.021495e+002,2.253860e+000
8.031138e+002,1.082504e+000
8.040780e+002,5.007935e-001
8.050422e+002,1.005600e+000
8.060065e+002,1.374496e+000
8.069707e+002,7.477722e-001
8.079349e+002,-7.315063e-002
8.088992e+002,-5.169678e-002
8.098634e+002,1.135803e+000
8.108276e+002,2.534927e+000
8.117919e+002,2.281586e+000
8.127561e+002,1.127640e+000
8.137203e+002,1.296692e+000
8.146846e+002,3.139969e+000
8.156488e+002,5.277710e+000
8.166130e+002,5.876083e+000
8.175773e+002,4.561157e+000
8.185415e+002,3.717148e+000
8.195057e+002,3.411179e+000
8.204700e+002,3.145309e+000
8.214342e+002,2.625778e+000
8.223984e+002,2.033112e+000
8.233627e+002,1.878555e+000
8.243269e+002,2.501007e+000
8.252911e+002,3.406326e+000
8.262554e+002,4.478409e+000
8.272196e+002,5.477036e+000
8.281838e+002,6.110718e+000
8.291481e+002,6.288895e+000
8.301123e+002,6.184219e+000
8.310765e+002,6.063843e+000
8.320408e+002,5.899887e+000
8.330050e+002,5.801270e+000
8.339692e+002,5.861572e+000
8.349335e+002,5.828613e+000
8.358977e+002,5.222977e+000
8.368619e+002,3.872177e+000
8.378262e+002,3.810257e+000
8.387904e+002,7.104630e+000
8.397546e+002,9.142654e+000
8.407189e+002,7.676025e+000
8.416831e+002,4.467667e+000
8.426473e+002,2.865387e+000
8.436116e+002,4.695557e+000
8.445758e+002,7.027710e+000
8.455400e+002,5.743561e+000
8.465043e+002,3.340469e+000
8.474685e+002,3.404678e+000
8.484327e+002,6.681000e+000
8.493970e+002,1.059587e+001
8.503612e+002,1.057076e+001
8.513254e+002,5.625214e+000
8.522897e+002,3.089020e+000
8.532539e+002,3.695435e+000
8.542181e+002,5.203705e+000
8.551824e+002,6.744919e+000
8.561466e+002,8.406891e+000
8.571108e+002,9.929245e+000
8.580751e+002,1.139481e+001
8.590393e+002,1.173283e+001
8.600035e+002,9.403397e+000
8.609678e+002,6.670898e+000
8.619320e+002,6.247147e+000
8.628962e+002,9.099899e+000
8.638605e+002,1.328513e+001
8.648247e+002,1.669910e+001
8.657889e+002,1.887914e+001
8.667532e+002,1.817599e+001
8.677174e+002,1.438533e+001
8.686816e+002,1.018782e+001
8.696459e+002,8.755005e+000
8.706101e+002,1.059097e+001
8.715743e+002,1.205724e+001
8.725386e+002,1.292987e+001
8.735028e+002,1.379007e+001
8.744670e+002,1.489366e+001
8.754313e+002,1.587335e+001
8.763955e+002,1.599733e+001
8.773597e+002,1.478612e+001
8.783240e+002,1.381705e+001
8.792882e+002,1.465207e+001
8.802524e+002,1.583490e+001
8.812167e+002,1.560565e+001
8.821809e+002,1.402864e+001
8.831451e+002,1.308617e+001
8.841094e+002,1.552934e+001
8.850736e+002,2.122763e+001
8.860378e+002,2.437682e+001
8.870021e+002,2.447072e+001
8.879663e+002,2.403014e+001
8.889305e+002,2.449722e+001
8.898948e+002,2.553703e+001
8.908590e+002,2.559918e+001
8.918232e+002,2.415474e+001
8.927875e+002,2.257092e+001
8.937517e+002,2.046135e+001
8.947159e+002,1.883096e+001
8.956802e+002,1.861543e+001
8.966444e+002,1.982607e+001
8.976086e+002,2.148956e+001
8.985729e+002,2.306075e+001
8.995371e+002,2.432394e+001
9.005013e+002,2.430801e+001
9.014656e+002,2.345778e+001
9.024298e+002,2.384483e+001
9.033940e+002,2.719054e+001
9.043583e+002,3.274789e+001
9.053225e+002,3.535648e+001
9.062867e+002,3.174857e+001
9.072510e+002,2.902396e+001
9.082152e+002,2.751993e+001
9.091794e+002,2.713924e+001
9.101437e+002,2.817628e+001
9.111079e+002,3.068906e+001
9.120721e+002,3.279596e+001
9.130364e+002,3.383595e+001
9.140006e+002,3.336404e+001
9.149648e+002,2.969862e+001
9.159291e+002,2.458731e+001
9.168933e+002,2.151335e+001
9.178575e+002,2.280603e+001
9.188218e+002,2.675937e+001
9.197860e+002,2.757449e+001
9.207502e+002,2.513699e+001
9.217145e+002,2.319435e+001
9.226787e+002,2.271596e+001
9.236429e+002,2.304640e+001
9.246072e+002,2.323007e+001
9.255714e+002,2.311365e+001
9.265356e+002,2.315958e+001
9.274999e+002,2.419121e+001
9.284641e+002,2.447304e+001
9.294283e+002,2.312645e+001
9.303926e+002,2.074498e+001
9.313568e+002,1.803902e+001
9.323210e+002,1.526041e+001
9.332853e+002,1.333908e+001
9.342495e+002,1.511888e+001
9.352137e+002,1.848439e+001
9.361780e+002,2.032335e+001
9.371422e+002,2.005212e+001
9.381064e+002,1.870741e+001
9.390707e+002,1.743382e+001
9.400349e+002,1.598563e+001
9.409991e+002,1.538741e+001
9.419634e+002,1.572884e+001
9.429276e+002,1.659178e+001
9.438918e+002,1.830885e+001
9.448561e+002,2.039452e+001
9.458203e+002,2.237733e+001
9.467845e+002,2.443253e+001
9.477488e+002,2.507524e+001
9.487130e+002,2.102550e+001
9.496772e+002,1.659169e+001
9.506415e+002,1.567570e+001
9.516057e+002,1.806128e+001
9.525699e+002,2.079103e+001
9.535342e+002,2.093985e+001
9.544984e+002,1.886481e+001
9.554626e+002,1.826402e+001
9.564269e+002,1.978590e+001
9.573911e+002,2.044661e+001
9.583553e+002,1.843585e+001
9.593196e+002,1.547310e+001
9.602838e+002,1.473070e+001
9.612480e+002,1.703850e+001
9.622123e+002,1.833704e+001
9.631765e+002,1.601288e+001
9.641407e+002,1.396587e+001
9.651050e+002,1.456387e+001
9.660692e+002,1.676056e+001
9.670334e+002,1.796280e+001
9.679977e+002,1.659962e+001
9.689619e+002,1.428206e+001
9.699261e+002,1.453522e+001
9.708904e+002,1.640709e+001
9.718546e+002,1.741481e+001
9.728188e+002,1.678033e+001
9.737831e+002,1.591153e+001
9.747473e+002,1.694806e+001
9.757115e+002,2.045332e+001
9.766758e+002,2.303899e+001
9.776400e+002,2.283984e+001
9.786042e+002,2.420720e+001
9.795685e+002,3.077904e+001
9.805327e+002,3.818945e+001
9.814969e+002,4.006506e+001
9.824612e+002,3.433272e+001
9.834254e+002,2.698668e+001
9.843896e+002,2.309796e+001
9.853539e+002,2.104065e+001
9.863181e+002,1.954103e+001
9.872823e+002,1.826915e+001
9.882466e+002,1.695117e+001
9.892108e+002,1.546399e+001
9.901750e+002,1.408621e+001
9.911393e+002,1.367812e+001
9.921035e+002,1.468303e+001
9.930677e+002,1.528708e+001
9.940320e+002,1.539664e+001
9.949962e+002,1.535445e+001
9.959604e+002,1.530399e+001
9.969247e+002,1.531619e+001
9.978889e+002,1.582939e+001
9.988531e+002,1.696648e+001
9.998174e+002,1.846007e+001
1.000782e+003,2.047527e+001
1.001746e+003,2.278372e+001
1.002710e+003,2.544315e+001
1.003674e+003,2.823814e+001
1.004639e+003,3.006610e+001
1.005603e+003,2.878064e+001
1.006567e+003,2.395717e+001
1.007531e+003,2.072391e+001
1.008495e+003,1.945018e+001
1.009460e+003,1.890813e+001
1.010424e+003,1.880756e+001
1.011388e+003,1.896417e+001
1.012352e+003,1.837856e+001
1.013317e+003,1.618556e+001
1.014281e+003,1.465053e+001
1.015245e+003,1.475467e+001
1.016209e+003,1.524403e+001
1.017174e+003,1.544414e+001
1.018138e+003,1.517236e+001
1.019102e+003,1.446791e+001
1.020066e+003,1.335301e+001
1.021031e+003,1.204080e+001
1.021995e+003,1.082521e+001
1.022959e+003,9.594177e+000
1.023923e+003,8.511917e+000
1.024887e+003,7.484604e+000
1.025852e+003,6.828278e+000
1.026816e+003,7.452682e+000
1.027780e+003,1.004697e+001
1.028744e+003,1.108487e+001
1.029709e+003,8.382370e+000
1.030673e+003,6.309738e+000
1.031637e+003,6.800690e+000
1.032601e+003,8.359085e+000
1.033566e+003,8.841034e+000
1.034530e+003,7.534775e+000
1.035494e+003,5.560120e+000
1.036458e+003,3.751984e+000
1.037422e+003,2.218475e+000
1.038387e+003,8.452301e-001
1.039351e+003,-2.503815e-001
1.040315e+003,6.517029e-002
1.041279e+003,2.946075e+000
1.042244e+003,7.664963e+000
1.043208e+003,1.033722e+001
1.044172e+003,9.741653e+000
1.045136e+003,8.666443e+000
1.046101e+003,6.659866e+000
1.047065e+003,4.864548e+000
1.048029e+003,4.138672e+000
1.048993e+003,4.250458e+000
1.049958e+003,4.297379e+000
1.050922e+003,3.946304e+000
1.051886e+003,3.391876e+000
1.052850e+003,2.658508e+000
1.053814e+003,1.899567e+000
1.054779e+003,1.001068e+000
1.055743e+003,9.532166e-002
1.056707e+003,1.788025e-001
1.057671e+003,2.617661e+000
1.058636e+003,7.410721e+000
1.059600e+003,9.582825e+000
1.060564e+003,6.986191e+000
1.061528e+003,5.351990e+000
1.062493e+003,6.006226e+000
1.063457e+003,7.348755e+000
1.064421e+003,7.575226e+000
1.065385e+003,6.554779e+000
1.066349e+003,5.933167e+000
1.067314e+003,7.039124e+000
1.068278e+003,8.210358e+000
1.069242e+003,8.293457e+000
1.070206e+003,7.700760e+000
1.071171e+003,7.007965e+000
1.072135e+003,6.444199e+000
1.073099e+003,5.871582e+000
1.074063e+003,5.118744e+000
1.075028e+003,4.165207e+000
1.075992e+003,4.183990e+000
1.076956e+003,5.454803e+000
1.077920e+003,6.819336e+000
1.078885e+003,8.715240e+000
1.079849e+003,1.030984e+001
1.080813e+003,9.470612e+000
1.081777e+003,5.344528e+000
1.082741e+003,2.093155e+000
1.083706e+003,2.525772e+000
1.084670e+003,3.604462e+000
1.085634e+003,3.716568e+000
1.086598e+003,3.191772e+000
1.087563e+003,3.348083e+000
1.088527e+003,4.847595e+000
1.089491e+003,6.418671e+000
1.090455e+003,5.112106e+000
1.091420e+003,4.281006e-001
1.092384e+003,-1.739334e+000
1.093348e+003,-5.898438e-001
1.094312e+003,1.325363e+000
1.095276e+003,2.988525e+000
1.096241e+003,4.411041e+000
1.097205e+003,5.430389e+000
1.098169e+003,6.040863e+000
1.099133e+003,5.906982e+000
1.100098e+003,4.334457e+000
1.101062e+003,2.684692e+000
1.102026e+003,1.707382e+000
1.102990e+003,1.403976e+000
1.103955e+003,1.497650e+000
1.104919e+003,1.787201e+000
1.105883e+003,2.221130e+000
1.106847e+003,2.889816e+000
1.107812e+003,3.739578e+000
1.108776e+003,3.576889e+000
1.109740e+003,1.829834e+000
1.110704e+003,1.540833e-001
1.111668e+003,-5.963135e-002
1.112633e+003,9.471130e-001
1.113597e+003,1.790131e+000
1.114561e+003,2.102417e+000
1.115525e+003,2.597488e+000
1.116490e+003,4.089478e+000
1.117454e+003,5.237457e+000
1.118418e+003,4.825043e+000
1.119382e+003,3.457321e+000
1.120347e+003,2.652512e+000
1.121311e+003,3.247665e+000
1.122275e+003,4.465668e+000
1.123239e+003,5.025345e+000
1.124203e+003,5.140259e+000
1.125168e+003,5.679779e+000
1.126132e+003,6.793289e+000
1.127096e+003,8.206085e+000
1.128060e+003,1.003400e+001
1.129025e+003,1.197435e+001
1.129989e+003,1.262439e+001
1.130953e+003,1.121062e+001
1.131917e+003,9.906845e+000
1.132882e+003,9.136475e+000
1.133846e+003,8.884598e+000
1.134810e+003,9.371307e+000
1.135774e+003,1.035921e+001
1.136739e+003,1.127492e+001
1.137703e+003,1.179671e+001
1.138667e+003,1.243008e+001
1.139631e+003,1.433347e+001
1.140595e+003,1.725275e+001
1.141560e+003,1.906023e+001
1.142524e+003,1.937953e+001
1.143488e+003,1.993761e+001
1.144452e+003,2.201445e+001
1.145417e+003,2.521953e+001
1.146381e+003,2.795189e+001
1.147345e+003,2.941180e+001
1.148309e+003,3.239896e+001
1.149274e+003,3.873462e+001
1.150238e+003,4.557455e+001
1.151202e+003,5.212953e+001
1.152166e+003,5.804266e+001
1.153130e+003,6.275742e+001
1.154095e+003,6.600943e+001
1.155059e+003,6.868971e+001
1.156023e+003,7.285110e+001
1.156987e+003,7.766412e+001
1.157952e+003,7.729697e+001
1.158916e+003,7.117772e+001
1.159880e+003,6.452524e+001
1.160844e+003,5.962903e+001
1.161809e+003,5.579451e+001
1.162773e+003,5.196928e+001
1.163737e+003,4.827185e+001
1.164701e+003,4.405968e+001
1.165666e+003,3.787933e+001
1.166630e+003,3.268623e+001
1.167594e+003,3.008063e+001
1.168558e+003,2.889198e+001
1.169522e+003,2.754326e+001
1.170487e+003,2.552687e+001
1.171451e+003,2.355029e+001
1.172415e+003,2.244417e+001
1.173379e+003,2.192430e+001
1.174344e+003,2.030695e+001
1.175308e+003,1.745227e+001
1.176272e+003,1.590399e+001
1.177236e+003,1.737453e+001
1.178201e+003,1.993637e+001
1.179165e+003,2.129042e+001
1.180129e+003,2.136040e+001
1.181093e+003,2.016782e+001
1.182057e+003,1.625983e+001
1.183022e+003,1.340678e+001
1.183986e+003,1.374690e+001
1.184950e+003,1.514793e+001
1.185914e+003,1.578775e+001
1.186879e+003,1.535486e+001
1.187843e+003,1.434909e+001
1.188807e+003,1.311903e+001
1.189771e+003,1.186418e+001
1.190736e+003,1.132880e+001
1.191700e+003,1.154312e+001
1.192664e+003,1.226897e+001
1.193628e+003,1.432809e+001
1.194593e+003,1.594397e+001
1.195557e+003,1.551523e+001
1.196521e+003,1.356377e+001
1.197485e+003,1.198096e+001
1.198449e+003,1.113739e+001
1.199414e+003,1.044444e+001
1.200378e+003,1.013518e+001
1.201342e+003,9.459137e+000
1.202306e+003,7.236115e+000
1.203271e+003,4.302933e+000
1.204235e+003,2.538742e+000
1.205199e+003,2.813660e+000
1.206163e+003,4.001999e+000
1.207128e+003,4.148575e+000
1.208092e+003,3.172470e+000
1.209056e+003,3.457642e+000
1.210020e+003,6.064713e+000
1.210984e+003,7.643219e+000
1.211949e+003,6.816742e+000
1.212913e+003,4.670639e+000
1.213877e+003,2.444778e+000
1.214841e+003,2.876587e-001
1.215806e+003,-1.775879e+000
1.216770e+003,-4.256271e+000
1.217734e+003,-5.794128e+000
1.218698e+003,-4.687195e+000
1.219663e+003,-2.832748e+000
1.220627e+003,-2.910477e+000
1.221591e+003,-5.053513e+000
1.222555e+003,-6.997971e+000
1.223520e+003,-6.598236e+000
1.224484e+003,-4.400421e+000
1.225448e+003,-3.219482e+000
1.226412e+003,-3.159164e+000
1.227376e+003,-4.212708e+000
1.228341e+003,-7.952774e+000
1.229305e+003,-1.108090e+001
1.230269e+003,-1.153780e+001
1.231233e+003,-1.019656e+001
1.232198e+003,-8.850708e+000
1.233162e+003,-7.911652e+000
1.234126e+003,-6.737030e+000
1.235090e+003,-4.027100e+000
1.236055e+003,-1.893112e+000
1.237019e+003,-3.406647e+000
1.237983e+003,-7.258301e+000
1.238947e+003,-9.787430e+000
1.239911e+003,-9.423355e+000
1.240876e+003,-7.666733e+000
1.241840e+003,-6.747253e+000
1.242804e+003,-6.708664e+000
1.243768e+003,-6.580002e+000
1.244733e+003,-6.527969e+000
1.245697e+003,-6.114655e+000
1.246661e+003,-4.728455e+000
1.247625e+003,-3.679260e+000
1.248590e+003,-4.054504e+000
1.249554e+003,-5.508545e+000
1.250518e+003,-7.228302e+000
1.251482e+003,-9.025299e+000
1.252447e+003,-9.829361e+000
1.253411e+003,-7.301727e+000
1.254375e+003,-3.185669e+000
1.255339e+003,-1.373627e+000
1.256303e+003,-1.931732e+000
1.257268e+003,-3.016754e+000
1.258232e+003,-3.889923e+000
1.259196e+003,-4.507599e+000
1.260160e+003,-4.407654e+000
1.261125e+003,-3.252167e+000
1.262089e+003,-2.927597e+000
1.263053e+003,-5.605179e+000
1.264017e+003,-6.780960e+000
1.264982e+003,-3.943054e+000
1.265946e+003,-1.517639e-001
1.266910e+003,1.944656e+000
1.267874e+003,2.044998e+000
1.268839e+003,1.100220e+000
1.269803e+003,-2.734375e-001
1.270767e+003,-1.923080e+000
1.271731e+003,-3.725021e+000
1.272695e+003,-5.544754e+000
1.273660e+003,-6.202545e+000
1.274624e+003,-5.484177e+000
1.275588e+003,-4.535645e+000
1.276552e+003,-3.520889e+000
1.277517e+003,-2.689651e+000
1.278481e+003,-2.880066e+000
1.279445e+003,-4.281372e+000
1.280409e+003,-5.086258e+000
1.281374e+003,-4.296219e+000
1.282338e+003,-3.295059e+000
1.283302e+003,-2.646301e+000
1.284266e+003,-2.320557e+000
1.285230e+003,-2.294174e+000
1.286195e+003,-2.548004e+000
1.287159e+003,-3.000504e+000
1.288123e+003,-3.541092e+000
1.289087e+003,-4.192657e+000
1.290052e+003,-5.240524e+000
1.291016e+003,-6.955780e+000
1.291980e+003,-8.404495e+000
1.292944e+003,-1.050385e+001
1.293909e+003,-1.139261e+001
1.294873e+003,-9.035187e+000
1.295837e+003,-5.636673e+000
1.296801e+003,-4.523590e+000
1.297766e+003,-5.996933e+000
1.298730e+003,-7.459702e+000
1.299694e+003,-7.682129e+000
1.300658e+003,-7.306870e+000
1.301622e+003,-6.743134e+000
1.302587e+003,-6.141602e+000
1.303551e+003,-5.790344e+000
1.304515e+003,-5.706345e+000
1.305479e+003,-5.825287e+000
1.306444e+003,-6.244293e+000
1.307408e+003,-6.767929e+000
1.308372e+003,-6.366302e+000
1.309336e+003,-4.258530e+000
1.310301e+003,-3.705917e+000
1.311265e+003,-6.388351e+000
1.312229e+003,-8.608841e+000
1.313193e+003,-9.025742e+000
1.314157e+003,-8.671051e+000
1.315122e+003,-8.809387e+000
1.316086e+003,-9.483337e+000
1.317050e+003,-9.645691e+000
1.318014e+003,-8.521118e+000
1.318979e+003,-6.884079e+000
1.319943e+003,-6.242737e+000
1.320907e+003,-6.425369e+000
1.321871e+003,-6.148972e+000
1.322836e+003,-5.371185e+000
1.323800e+003,-4.577744e+000
1.324764e+003,-3.607986e+000
1.325728e+003,-2.953445e+000
1.326693e+003,-4.027634e+000
1.327657e+003,-6.964462e+000
1.328621e+003,-8.346161e+000
1.329585e+003,-6.025162e+000
1.330549e+003,-3.557129e+000
1.331514e+003,-2.899979e+000
1.332478e+003,-3.281235e+000
1.333442e+003,-4.133011e+000
1.334406e+003,-5.175140e+000
1.335371e+003,-6.287231e+000
1.336335e+003,-7.375107e+000
1.337299e+003,-8.117218e+000
1.338263e+003,-7.873535e+000
1.339228e+003,-6.471405e+000
1.340192e+003,-5.669708e+000
1.341156e+003,-5.750687e+000
1.342120e+003,-5.972595e+000
1.343084e+003,-6.545288e+000
1.344049e+003,-7.119125e+000
1.345013e+003,-7.189514e+000
1.345977e+003,-6.882706e+000
1.346941e+003,-6.998795e+000
1.347906e+003,-7.900146e+000
1.348870e+003,-8.135345e+000
1.349834e+003,-5.569534e+000
1.350798e+003,-2.176483e+000
1.351763e+003,-1.951736e+000
1.352727e+003,-4.327667e+000
1.353691e+003,-5.928329e+000
1.354655e+003,-5.350601e+000
1.355620e+003,-4.220688e+000
1.356584e+003,-4.738480e+000
1.357548e+003,-6.576981e+000
1.358512e+003,-6.885818e+000
1.359476e+003,-4.921051e+000
1.360441e+003,-3.478714e+000
1.361405e+003,-2.933990e+000
1.362369e+003,-3.295334e+000
1.363333e+003,-5.621597e+000
1.364298e+003,-8.360428e+000
1.365262e+003,-9.224838e+000
1.366226e+003,-7.877869e+000
1.367190e+003,-6.021149e+000
1.368155e+003,-5.175247e+000
1.369119e+003,-4.891174e+000
1.370083e+003,-3.607498e+000
1.371047e+003,-5.023956e-001
1.372011e+003,-7.014465e-002
1.372976e+003,-5.232407e+000
1.373940e+003,-9.301208e+000
1.374904e+003,-9.112823e+000
1.375868e+003,-6.878204e+000
1.376833e+003,-5.010361e+000
1.377797e+003,-3.908478e+000
1.378761e+003,-3.742340e+000
1.379725e+003,-4.858490e+000
1.380690e+003,-5.956635e+000
1.381654e+003,-5.319717e+000
1.382618e+003,-3.968231e+000
1.383582e+003,-3.477020e+000
1.384547e+003,-3.782990e+000
1.385511e+003,-3.587097e+000
1.386475e+003,-2.136459e+000
1.387439e+003,-4.113159e-001
1.388403e+003,1.440887e-001
1.389368e+003,-4.790802e-001
1.390332e+003,-1.612137e+000
1.391296e+003,-3.837021e+000
1.392260e+003,-5.198868e+000
1.393225e+003,-4.479187e+000
1.394189e+003,-3.763184e+000
1.395153e+003,-4.782852e+000
1.396117e+003,-6.345947e+000
1.397082e+003,-6.204147e+000
1.398046e+003,-4.016556e+000
1.399010e+003,-1.688721e+000
1.399974e+003,-1.026566e+000
1.400938e+003,-1.720032e+000
1.401903e+003,-2.572845e+000
1.402867e+003,-3.574142e+000
1.403831e+003,-3.341995e+000
1.404795e+003,-8.914642e-001
1.405760e+003,1.161514e+000
1.406724e+003,2.095963e+000
1.407688e+003,1.711121e+000
1.408652e+003,-8.902740e-001
1.409617e+003,-4.945389e+000
1.410581e+003,-7.253754e+000
1.411545e+003,-6.411911e+000
1.412509e+003,-4.334915e+000
1.413474e+003,-2.397278e+000
1.414438e+003,-8.498688e-001
1.415402e+003,1.737671e-001
1.416366e+003,7.301331e-001
1.417330e+003,5.705872e-001
1.418295e+003,-5.759583e-001
1.419259e+003,-1.804169e+000
1.420223e+003,-2.077072e+000
1.421187e+003,-1.583252e+000
1.422152e+003,-1.100571e+000
1.423116e+003,-5.287018e-001
1.424080e+003,2.011108e-002
1.425044e+003,6.222382e-001
1.426009e+003,8.555908e-001
1.426973e+003,4.214783e-001
1.427937e+003,-4.234924e-001
1.428901e+003,-1.668900e+000
1.429865e+003,-2.964325e+000
1.430830e+003,-3.407593e+000
1.431794e+003,-2.470642e+000
1.432758e+003,-8.311005e-001
1.433722e+003,3.478546e-001
1.434687e+003,1.246597e+000
1.435651e+003,1.331329e+000
1.436615e+003,-1.257813e+000
1.437579e+003,-2.549347e+000
1.438544e+003,-1.512909e+000
1.439508e+003,3.090973e-001
1.440472e+003,2.791260e+000
1.441436e+003,5.106140e+000
1.442401e+003,5.355637e+000
1.443365e+003,3.335312e+000
1.444329e+003,1.901840e+000
1.445293e+003,3.452209e+000
1.446257e+003,6.104538e+000
1.447222e+003,6.052567e+000
1.448186e+003,3.778244e+000
1.449150e+003,1.839188e+000
1.450114e+003,3.524933e-001
1.451079e+003,-5.599518e-001
1.452043e+003,-7.064514e-001
1.453007e+003,-1.970062e-001
1.453971e+003,1.085495e+000
1.454936e+003,2.914612e+000
1.455900e+003,3.878494e+000
1.456864e+003,3.490036e+000
1.457828e+003,3.114975e+000
1.458792e+003,4.050034e+000
1.459757e+003,4.695450e+000
1.460721e+003,2.961060e+000
1.461685e+003,1.450348e-001
1.462649e+003,-7.020264e-001
1.463614e+003,1.067734e+000
1.464578e+003,2.864548e+000
1.465542e+003,2.336563e+000
1.466506e+003,1.612854e-001
1.467471e+003,-1.808975e+000
1.468435e+003,-3.735443e+000
1.469399e+003,-4.084366e+000
1.470363e+003,-1.601135e+000
1.471328e+003,6.098480e-001
1.472292e+003,1.455093e+000
1.473256e+003,1.993469e+000
1.474220e+003,3.723801e+000
1.475184e+003,5.767197e+000
1.476149e+003,5.669357e+000
1.477113e+003,3.014679e+000
1.478077e+003,7.464752e-001
1.479041e+003,1.857193e+000
1.480006e+003,5.191879e+000
1.480970e+003,6.695755e+000
1.481934e+003,5.812103e+000
1.482898e+003,4.864243e+000
1.483863e+003,3.398575e+000
1.484827e+003,2.469803e+000
1.485791e+003,2.615936e+000
1.486755e+003,3.358521e+000
1.487719e+003,4.405777e+000
1.488684e+003,5.534271e+000
1.489648e+003,6.458923e+000
1.490612e+003,7.137390e+000
1.491576e+003,7.706390e+000
1.492541e+003,8.227676e+000
1.493505e+003,8.667648e+000
1.494469e+003,8.885773e+000
1.495433e+003,8.841461e+000
1.496398e+003,8.967300e+000
1.497362e+003,9.427521e+000
1.498326e+003,1.023987e+001
1.499290e+003,1.125659e+001
1.500255e+003,1.270616e+001
1.501219e+003,1.501117e+001
1.502183e+003,1.802251e+001
1.503147e+003,2.108659e+001
1.504111e+003,2.411386e+001
1.505076e+003,2.688620e+001
1.506040e+003,2.902707e+001
1.507004e+003,3.117216e+001
1.507968e+003,3.399646e+001
1.508933e+003,3.727931e+001
1.509897e+003,4.042279e+001
1.510861e+003,4.350574e+001
1.511825e+003,4.757037e+001
1.512790e+003,5.348238e+001
1.513754e+003,6.020546e+001
1.514718e+003,6.558548e+001
1.515682e+003,6.954800e+001
1.516646e+003,7.528558e+001
1.517611e+003,8.439003e+001
1.518575e+003,9.230939e+001
1.519539e+003,9.779199e+001
1.520503e+003,1.017434e+002
1.521468e+003,1.045462e+002
1.522432e+003,1.060207e+002
1.523396e+003,1.056437e+002
1.524360e+003,1.035777e+002
1.525325e+003,1.007951e+002
1.526289e+003,9.797534e+001
1.527253e+003,9.461688e+001
1.528217e+003,8.955693e+001
1.529182e+003,8.283894e+001
1.530146e+003,7.758093e+001
1.531110e+003,7.531479e+001
1.532074e+003,7.144765e+001
1.533039e+003,6.467769e+001
1.534003e+003,5.712025e+001
1.534967e+003,4.924574e+001
1.535931e+003,4.179041e+001
1.536896e+003,3.553374e+001
1.537860e+003,3.038083e+001
1.538824e+003,2.539841e+001
1.539788e+003,2.012134e+001
1.540752e+003,1.555122e+001
1.541717e+003,1.312321e+001
1.542681e+003,1.255209e+001
1.543645e+003,1.160190e+001
1.544609e+003,9.956360e+000
1.545573e+003,9.064819e+000
1.546538e+003,9.267548e+000
1.547502e+003,9.456604e+000
1.548466e+003,9.319412e+000
1.549430e+003,9.169006e+000
1.550395e+003,9.205551e+000
1.551359e+003,9.405151e+000
1.552323e+003,9.890198e+000
1.553287e+003,1.065570e+001
1.554252e+003,1.090739e+001
1.555216e+003,9.827408e+000
1.556180e+003,8.043777e+000
1.557144e+003,7.057312e+000
1.558109e+003,6.945038e+000
1.559073e+003,6.624283e+000
1.560037e+003,5.746811e+000
1.561001e+003,5.025040e+000
1.561966e+003,4.755188e+000
1.562930e+003,4.952698e+000
1.563894e+003,5.881729e+000
1.564858e+003,7.099594e+000
1.565823e+003,7.623184e+000
1.566787e+003,7.266296e+000
1.567751e+003,6.536316e+000
1.568715e+003,5.630615e+000
1.569679e+003,4.845856e+000
1.570644e+003,4.391434e+000
1.571608e+003,4.306732e+000
1.572572e+003,5.115021e+000
1.573536e+003,6.932449e+000
1.574500e+003,7.921844e+000
1.575465e+003,6.716141e+000
1.576429e+003,5.638443e+000
1.577393e+003,7.372452e+000
1.578357e+003,1.012569e+001
1.579322e+003,9.946762e+000
1.580286e+003,6.886536e+000
1.581250e+003,4.903198e+000
1.582214e+003,5.330414e+000
1.583179e+003,6.570053e+000
1.584143e+003,8.128815e+000
1.585107e+003,9.134445e+000
1.586071e+003,8.194504e+000
1.587036e+003,6.043167e+000
1.588000e+003,4.650620e+000
1.588964e+003,4.383087e+000
1.589928e+003,4.414703e+000
1.590893e+003,4.095825e+000
1.591857e+003,3.914108e+000
1.592821e+003,5.000229e+000
1.593785e+003,7.020096e+000
1.594750e+003,7.541626e+000
1.595714e+003,5.804474e+000
1.596678e+003,5.467178e+000
1.597642e+003,9.362030e+000
1.598606e+003,1.308232e+001
1.599571e+003,1.209691e+001
1.600535e+003,9.532883e+000
1.601499e+003,9.929031e+000
1.602463e+003,1.286905e+001
1.603427e+003,1.424690e+001
1.604392e+003,1.223102e+001
1.605356e+003,9.682190e+000
1.606320e+003,9.549698e+000
1.607284e+003,1.111334e+001
1.608249e+003,1.262210e+001
1.609213e+003,1.410623e+001
1.610177e+003,1.419379e+001
1.611141e+003,1.215717e+001
1.612106e+003,9.978790e+000
1.613070e+003,8.436646e+000
1.614034e+003,7.246887e+000
1.614998e+003,5.610825e+000
1.615963e+003,4.450455e+000
1.616927e+003,6.090286e+000
1.617891e+003,1.029379e+001
1.618855e+003,1.320166e+001
1.619820e+003,1.235670e+001
1.620784e+003,9.747284e+000
1.621748e+003,8.167099e+000
1.622712e+003,7.600494e+000
1.623677e+003,7.058014e+000
1.624641e+003,6.438858e+000
1.625605e+003,6.511078e+000
1.626569e+003,7.683777e+000
1.627533e+003,8.670898e+000
1.628498e+003,8.967941e+000
1.629462e+003,8.952789e+000
1.630426e+003,8.406281e+000
1.631390e+003,7.894577e+000
1.632354e+003,8.948822e+000
1.633319e+003,1.169272e+001
1.634283e+003,1.384822e+001
1.635247e+003,1.362292e+001
1.636211e+003,1.213045e+001
1.637176e+003,1.145609e+001
1.638140e+003,1.156291e+001
1.639104e+003,1.093277e+001
1.640068e+003,8.963348e+000
1.641033e+003,8.293030e+000
1.641997e+003,1.073468e+001
1.642961e+003,1.305215e+001
1.643925e+003,1.383141e+001
1.644890e+003,1.358139e+001
1.645854e+003,1.221123e+001
1.646818e+003,1.032539e+001
1.647782e+003,9.199753e+000
1.648747e+003,9.220123e+000
1.649711e+003,9.996109e+000
1.650675e+003,1.151930e+001
1.651639e+003,1.308568e+001
1.652604e+003,1.287708e+001
1.653568e+003,1.091888e+001
1.654532e+003,9.295502e+000
1.655496e+003,7.915833e+000
1.656460e+003,7.661545e+000
1.657425e+003,1.023750e+001
1.658389e+003,1.210452e+001
1.659353e+003,1.048782e+001
1.660317e+003,7.892929e+000
1.661281e+003,6.986664e+000
1.662246e+003,7.511826e+000
1.663210e+003,7.961380e+000
1.664174e+003,7.869873e+000
1.665138e+003,7.845016e+000
1.666103e+003,8.462112e+000
1.667067e+003,9.252869e+000
1.668031e+003,9.262772e+000
1.668995e+003,8.572922e+000
1.669960e+003,8.070023e+000
1.670924e+003,7.924164e+000
1.671888e+003,7.586151e+000
1.672852e+003,6.439301e+000
1.673817e+003,5.611526e+000
1.674781e+003,5.937531e+000
1.675745e+003,6.815567e+000
1.676709e+003,8.053879e+000
1.677674e+003,9.221451e+000
1.678638e+003,8.960281e+000
1.679602e+003,6.875748e+000
1.680566e+003,5.149673e+000
1.681531e+003,5.812775e+000
1.682495e+003,7.490417e+000
1.683459e+003,7.468262e+000
1.684423e+003,6.085724e+000
1.685387e+003,6.255524e+000
1.686352e+003,8.621002e+000
1.687316e+003,9.475372e+000
1.688280e+003,6.926056e+000
1.689244e+003,3.931274e+000
1.690208e+003,2.238174e+000
1.691173e+003,1.525986e+000
1.692137e+003,1.809555e+000
1.693101e+003,2.903641e+000
1.694065e+003,4.232086e+000
1.695030e+003,5.599777e+000
1.695994e+003,6.464066e+000
1.696958e+003,6.623260e+000
1.697922e+003,6.041931e+000
1.698887e+003,3.980515e+000
1.699851e+003,1.270111e+000
1.700815e+003,7.456360e-001
1.701779e+003,2.543655e+000
1.702744e+003,3.668167e+000
1.703708e+003,3.144958e+000
1.704672e+003,2.357498e+000
1.705636e+003,2.167358e+000
1.706601e+003,2.138947e+000
1.707565e+003,1.677628e+000
1.708529e+003,1.024750e+000
1.709493e+003,7.930603e-001
1.710458e+003,1.081436e+000
1.711422e+003,1.364624e+000
1.712386e+003,1.363861e+000
1.713350e+003,1.502731e+000
1.714314e+003,2.413666e+000
1.715279e+003,3.358002e+000
1.716243e+003,2.853149e+000
1.717207e+003,1.209045e+000
1.718171e+003,3.891449e-001
1.719135e+003,9.543457e-001
1.720100e+003,1.668411e+000
1.721064e+003,1.749222e+000
1.722028e+003,1.339355e+000
1.722992e+003,6.805725e-001
1.723957e+003,-1.369629e-001
1.724921e+003,-1.258850e+000
1.725885e+003,-3.051697e+000
1.726849e+003,-3.889496e+000
1.727814e+003,-2.920151e+000
1.728778e+003,-1.447357e+000
1.729742e+003,7.749786e-001
1.730706e+003,2.469650e+000
1.731671e+003,1.690079e+000
1.732635e+003,-4.998932e-001
1.733599e+003,-1.517822e+000
1.734563e+003,-9.423828e-001
1.735528e+003,-1.069641e-001
1.736492e+003,2.362213e-001
1.737456e+003,-1.046448e-001
1.738420e+003,-1.501175e+000
1.739385e+003,-3.506165e+000
1.740349e+003,-4.207642e+000
1.741313e+003,-3.397507e+000
1.742277e+003,-1.977432e+000
1.743241e+003,1.246277e+000
1.744206e+003,3.327591e+000
1.745170e+003,3.181335e+000
1.746134e+003,2.536148e+000
1.747098e+003,2.224564e+000
1.748063e+003,2.006241e+000
1.749027e+003,1.516739e+000
1.749991e+003,8.138123e-001
1.750955e+003,-2.136230e-002
1.751919e+003,-8.514404e-001
1.752884e+003,-1.073654e+000
1.753848e+003,-1.726990e-001
1.754812e+003,1.245651e+000
1.755776e+003,2.090469e+000
1.756741e+003,2.435043e+000
1.757705e+003,1.910370e+000
1.758669e+003,-1.579895e-001
1.759633e+003,-1.311737e+000
1.760598e+003,-6.767578e-001
1.761562e+003,-1.291046e-001
1.762526e+003,1.198273e-001
1.763490e+003,-8.139038e-002
1.764455e+003,-1.352692e+000
1.765419e+003,-2.855515e+000
1.766383e+003,-3.239670e+000
1.767347e+003,-2.567184e+000
1.768312e+003,-2.005295e+000
1.769276e+003,-2.128555e+000
1.770240e+003,-2.470856e+000
1.771204e+003,-2.470718e+000
1.772168e+003,-2.162079e+000
1.773133e+003,-1.702881e+000
1.774097e+003,-1.141632e+000
1.775061e+003,-1.028717e+000
1.776025e+003,-1.593262e+000
1.776990e+003,-1.962372e+000
1.777954e+003,-1.713089e+000
1.778918e+003,-1.201248e+000
1.779882e+003,-5.985413e-001
1.780846e+003,-1.070251e-001
1.781811e+003,1.387024e-002
1.782775e+003,-8.992004e-002
1.783739e+003,3.634644e-002
1.784703e+003,5.167847e-001
1.785668e+003,8.764954e-001
1.786632e+003,1.060852e+000
1.787596e+003,6.595764e-001
1.788560e+003,-1.309250e+000
1.789525e+003,-3.329956e+000
1.790489e+003,-3.090820e+000
1.791453e+003,-1.186310e+000
1.792417e+003,4.676666e-001
1.793382e+003,1.388794e+000
1.794346e+003,1.553452e+000
1.795310e+003,8.885651e-001
1.796274e+003,7.168579e-002
1.797239e+003,-3.396606e-002
1.798203e+003,3.830109e-001
1.799167e+003,3.492126e-001
1.800131e+003,-4.436646e-001
1.801095e+003,-8.651276e-001
1.802060e+003,-2.235413e-001
1.803024e+003,-6.500244e-003
1.803988e+003,-9.001617e-001
1.804952e+003,-1.700211e+000
1.805917e+003,-1.725464e+000
1.806881e+003,-1.484085e+000
1.807845e+003,-1.461090e+000
1.808809e+003,-1.574890e+000
1.809773e+003,-1.588593e+000
1.810738e+003,-1.429199e+000
1.811702e+003,-1.134171e+000
1.812666e+003,-7.349243e-001
1.813630e+003,-1.406860e-001
1.814595e+003,9.409180e-001
1.815559e+003,2.076874e+000
1.816523e+003,1.131927e+000
1.817487e+003,-2.225662e+000
1.818452e+003,-3.460297e+000
1.819416e+003,-1.478958e+000
1.820380e+003,3.095856e-001
1.821344e+003,8.783875e-001
1.822309e+003,1.019669e+000
1.823273e+003,1.190323e+000
1.824237e+003,1.320786e+000
1.825201e+003,1.015152e+000
1.826166e+003,5.815735e-001
1.827130e+003,1.283630e+000
1.828094e+003,3.225052e+000
1.829058e+003,3.720444e+000
1.830022e+003,8.991089e-001
1.830987e+003,-2.287704e+000
1.831951e+003,-3.635147e+000
1.832915e+003,-3.692459e+000
1.833879e+003,-3.116806e+000
1.834844e+003,-1.984756e+000
1.835808e+003,1.959381e-001
1.836772e+003,3.181946e+000
1.837736e+003,4.195114e+000
1.838700e+003,1.909180e+000
1.839665e+003,-8.737640e-001
1.840629e+003,-1.627167e+000
1.841593e+003,-9.173279e-001
1.842557e+003,1.880188e-001
1.843522e+003,1.663559e+000
1.844486e+003,1.939011e+000
1.845450e+003,-1.767273e-001
1.846414e+003,-9.576721e-001
1.847379e+003,1.007004e+000
1.848343e+003,2.065781e+000
1.849307e+003,1.309357e-001
1.850271e+003,-1.898392e+000
1.851236e+003,-1.730194e+000
1.852200e+003,-3.709869e-001
1.853164e+003,8.497467e-001
1.854128e+003,1.441452e+000
1.855093e+003,9.501495e-001
1.856057e+003,-5.440063e-001
1.857021e+003,-1.629227e+000
1.857985e+003,-1.106537e+000
1.858949e+003,8.554077e-002
1.859914e+003,2.447357e-001
1.860878e+003,-3.441925e-001
1.861842e+003,-4.014587e-002
1.862806e+003,1.165451e+000
1.863771e+003,1.842728e+000
1.864735e+003,1.711594e+000
1.865699e+003,9.811554e-001
1.866663e+003,-6.827698e-001
1.867627e+003,-1.940674e+000
1.868592e+003,-1.327927e+000
1.869556e+003,1.324463e-001
1.870520e+003,7.457123e-001
1.871484e+003,5.698242e-001
1.872449e+003,-1.161194e-001
1.873413e+003,-1.409210e+000
1.874377e+003,-1.777008e+000
1.875341e+003,-5.142212e-001
1.876306e+003,1.008179e+000
1.877270e+003,2.362076e+000
1.878234e+003,3.303635e+000
1.879198e+003,3.549591e+000
1.880163e+003,3.293823e+000
1.881127e+003,2.850174e+000
1.882091e+003,2.307419e+000
1.883055e+003,1.477661e+000
1.884020e+003,3.643646e-001
1.884984e+003,-2.953949e-001
1.885948e+003,1.814575e-001
1.886912e+003,1.437042e+000
1.887876e+003,2.962570e+000
1.888841e+003,4.640640e+000
1.889805e+003,4.627457e+000
1.890769e+003,2.505264e+000
1.891733e+003,9.331360e-001
1.892698e+003,1.393280e-001
1.893662e+003,-2.141418e-001
1.894626e+003,-1.247711e-001
1.895590e+003,3.022614e-001
1.896554e+003,1.126572e+000
1.897519e+003,2.229233e+000
1.898483e+003,3.594711e+000
1.899447e+003,4.976059e+000
1.900411e+003,5.971558e+000
1.901376e+003,6.577499e+000
1.902340e+003,6.186935e+000
1.903304e+003,3.734406e+000
1.904268e+003,1.517441e+000
1.905233e+003,8.245544e-001
1.906197e+003,1.202484e+000
1.907161e+003,2.940887e+000
1.908125e+003,5.052094e+000
1.909090e+003,5.548828e+000
1.910054e+003,4.607544e+000
1.911018e+003,4.047058e+000
1.911982e+003,4.496399e+000
1.912947e+003,5.149200e+000
1.913911e+003,5.389877e+000
1.914875e+003,5.226059e+000
1.915839e+003,4.575943e+000
1.916803e+003,3.547089e+000
1.917768e+003,3.085709e+000
1.918732e+003,3.376129e+000
1.919696e+003,3.358673e+000
1.920660e+003,2.800140e+000
1.921625e+003,2.715454e+000
1.922589e+003,3.433487e+000
1.923553e+003,4.359573e+000
1.924517e+003,5.940247e+000
1.925481e+003,6.930969e+000
1.926446e+003,5.194504e+000
1.927410e+003,2.479156e+000
1.928374e+003,2.822189e+000
1.929338e+003,6.091919e+000
1.930303e+003,7.440735e+000
1.931267e+003,5.262665e+000
1.932231e+003,2.847061e+000
1.933195e+003,8.352661e-001
1.934160e+003,-1.396790e-001
1.935124e+003,9.698792e-001
1.936088e+003,2.852936e+000
1.937052e+003,4.304138e+000
1.938017e+003,5.203171e+000
1.938981e+003,5.449554e+000
1.939945e+003,5.150635e+000
1.940909e+003,4.639191e+000
1.941874e+003,4.099380e+000
1.942838e+003,3.873688e+000
1.943802e+003,4.399246e+000
1.944766e+003,5.080887e+000
1.945730e+003,4.424316e+000
1.946695e+003,2.589279e+000
1.947659e+003,1.131439e+000
1.948623e+003,-1.000977e-001
1.949587e+003,9.325409e-001
1.950552e+003,5.440796e+000
1.951516e+003,8.131058e+000
1.952480e+003,6.230499e+000
1.953444e+003,4.359055e+000
1.954408e+003,6.485062e+000
1.955373e+003,9.548248e+000
1.956337e+003,8.825470e+000
1.957301e+003,5.615555e+000
1.958265e+003,4.248474e+000
1.959230e+003,5.027039e+000
1.960194e+003,5.982285e+000
1.961158e+003,7.350723e+000
1.962122e+003,7.816086e+000
1.963087e+003,5.969955e+000
1.964051e+003,4.478928e+000
1.965015e+003,5.482712e+000
1.965979e+003,7.196381e+000
1.966944e+003,7.664658e+000
1.967908e+003,7.273926e+000
1.968872e+003,7.240067e+000
1.969836e+003,7.675049e+000
1.970801e+003,7.853226e+000
1.971765e+003,7.472458e+000
1.972729e+003,6.797180e+000
1.973693e+003,5.913849e+000
1.974657e+003,5.232330e+000
1.975622e+003,5.524231e+000
1.976586e+003,6.386826e+000
1.977550e+003,6.674713e+000
1.978514e+003,6.582672e+000
1.979479e+003,7.469971e+000
1.980443e+003,9.405457e+000
1.981407e+003,1.038307e+001
1.982371e+003,9.667130e+000
1.983335e+003,8.238037e+000
1.984300e+003,6.606766e+000
1.985264e+003,5.504623e+000
1.986228e+003,6.325745e+000
1.987192e+003,8.510437e+000
1.988157e+003,9.118820e+000
1.989121e+003,7.876694e+000
1.990085e+003,6.606171e+000
1.991049e+003,5.127823e+000
1.992014e+003,4.074341e+000
1.992978e+003,3.061722e+000
1.993942e+003,3.040161e+000
1.994906e+003,5.278580e+000
1.995871e+003,7.644745e+000
1.996835e+003,8.417786e+000
1.997799e+003,8.474472e+000
1.998763e+003,9.497192e+000
1.999728e+003,1.105676e+001
