5.003444e+002,2.147904e+002
5.013087e+002,2.156597e+002
5.022729e+002,2.119885e+002
5.032371e+002,2.058525e+002
5.042014e+002,2.013948e+002
5.051656e+002,1.985724e+002
5.061298e+002,1.961699e+002
5.070941e+002,1.928000e+002
5.080583e+002,1.875536e+002
5.090225e+002,1.838083e+002
5.099868e+002,1.824004e+002
5.109510e+002,1.810311e+002
5.119152e+002,1.782477e+002
5.128795e+002,1.739186e+002
5.138437e+002,1.708177e+002
5.148079e+002,1.710126e+002
5.157722e+002,1.720135e+002
5.167364e+002,1.734342e+002
5.177006e+002,1.743867e+002
5.186649e+002,1.732958e+002
5.196291e+002,1.674817e+002
5.205933e+002,1.607668e+002
5.215576e+002,1.556084e+002
5.225218e+002,1.518815e+002
5.234860e+002,1.494888e+002
5.244503e+002,1.493380e+002
5.254145e+002,1.537180e+002
5.263787e+002,1.549978e+002
5.273430e+002,1.518230e+002
5.283072e+002,1.465115e+002
5.292714e+002,1.415591e+002
5.302357e+002,1.350371e+002
5.311999e+002,1.306581e+002
5.321641e+002,1.320852e+002
5.331284e+002,1.349667e+002
5.340926e+002,1.352144e+002
5.350568e+002,1.307219e+002
5.360211e+002,1.250060e+002
5.369853e+002,1.223840e+002
5.379495e+002,1.213735e+002
5.389138e+002,1.206403e+002
5.398780e+002,1.194479e+002
5.408422e+002,1.178859e+002
5.418065e+002,1.166495e+002
5.427707e+002,1.156492e+002
5.437349e+002,1.142316e+002
5.446992e+002,1.120786e+002
5.456634e+002,1.092141e+002
5.466276e+002,1.059907e+002
5.475919e+002,1.012911e+002
5.485561e+002,9.853418e+001
5.495203e+002,9.859497e+001
5.504846e+002,9.969836e+001
5.514488e+002,9.989880e+001
5.524130e+002,9.942932e+001
5.533773e+002,9.707690e+001
5.543415e+002,9.032178e+001
5.553057e+002,8.283472e+001
5.562700e+002,7.873682e+001
5.572342e+002,8.038855e+001
5.581984e+002,8.447803e+001
5.591627e+002,8.304358e+001
5.601269e+002,7.869849e+001
5.610911e+002,7.586890e+001
5.620554e+002,7.669897e+001
5.630196e+002,8.024756e+001
5.639838e+002,8.094409e+001
5.649481e+002,7.642065e+001
5.659123e+002,7.262512e+001
5.668765e+002,7.294751e+001
5.678408e+002,7.595288e+001
5.688050e+002,7.589111e+001
5.697692e+002,6.667688e+001
5.707335e+002,5.798877e+001
5.716977e+002,5.328235e+001
5.726619e+002,5.133325e+001
5.736262e+002,5.024719e+001
5.745904e+002,4.885193e+001
5.755546e+002,4.838281e+001
5.765189e+002,5.040833e+001
5.774831e+002,5.324243e+001
5.784473e+002,5.523376e+001
5.794116e+002,5.559851e+001
5.803758e+002,5.487378e+001
5.813400e+002,5.225085e+001
5.823043e+002,4.584814e+001
5.832685e+002,3.967944e+001
5.842327e+002,3.570569e+001
5.851970e+002,3.428870e+001
5.861612e+002,3.430298e+001
5.871254e+002,3.686279e+001
5.880897e+002,3.828284e+001
5.890539e+002,3.631995e+001
5.900181e+002,3.256763e+001
5.909824e+002,3.006006e+001
5.919466e+002,3.134570e+001
5.929108e+002,3.393787e+001
5.938751e+002,3.535339e+001
5.948393e+002,3.577319e+001
5.958035e+002,3.527710e+001
5.967678e+002,3.408362e+001
5.977320e+002,3.279150e+001
5.986962e+002,3.420227e+001
5.996605e+002,3.754675e+001
6.006247e+002,3.946484e+001
6.015889e+002,3.758301e+001
6.025532e+002,3.238062e+001
6.035174e+002,2.951160e+001
6.044816e+002,3.218604e+001
6.054459e+002,3.421033e+001
6.064101e+002,3.425989e+001
6.073743e+002,3.305017e+001
6.083386e+002,3.236768e+001
6.093028e+002,3.402649e+001
6.102670e+002,3.491663e+001
6.112313e+002,3.093091e+001
6.121955e+002,2.521277e+001
6.131597e+002,2.249622e+001
6.141240e+002,2.587842e+001
6.150882e+002,3.289502e+001
6.160524e+002,3.234509e+001
6.170167e+002,2.601807e+001
6.179809e+002,2.112964e+001
6.189451e+002,2.105164e+001
6.199094e+002,2.457178e+001
6.208736e+002,2.534192e+001
6.218378e+002,2.022632e+001
6.228021e+002,1.763196e+001
6.237663e+002,1.994983e+001
6.247305e+002,2.507959e+001
6.256948e+002,2.944299e+001
6.266590e+002,3.127991e+001
6.276232e+002,3.085779e+001
6.285875e+002,2.879993e+001
6.295517e+002,2.629236e+001
6.305159e+002,2.393835e+001
6.314802e+002,2.193347e+001
6.324444e+002,2.028870e+001
6.334086e+002,2.175989e+001
6.343729e+002,2.552588e+001
6.353371e+002,2.639404e+001
6.363013e+002,2.168298e+001
6.372656e+002,1.326428e+001
6.382298e+002,8.614014e+000
6.391940e+002,1.301697e+001
6.401583e+002,1.372485e+001
6.411225e+002,8.481812e+000
6.420867e+002,2.223877e+000
6.430510e+002,9.791260e-001
6.440152e+002,7.475830e+000
6.449794e+002,1.190955e+001
6.459437e+002,7.712402e+000
6.469079e+002,9.842529e-001
6.478721e+002,-3.468018e+000
6.488364e+002,-3.794312e+000
6.498006e+002,-1.965332e+000
6.507648e+002,-1.552002e+000
6.517291e+002,-2.382568e+000
6.526933e+002,-3.734375e+000
6.536575e+002,-5.600586e+000
6.546218e+002,-7.283325e+000
6.555860e+002,-7.273071e+000
6.565502e+002,-3.977173e+000
6.575145e+002,-2.789307e+000
6.584787e+002,-5.020020e+000
6.594429e+002,-7.883301e+000
6.604072e+002,-9.524414e+000
6.613714e+002,-9.710083e+000
6.623356e+002,-8.208130e+000
6.632999e+002,-2.862061e+000
6.642641e+002,1.391479e+000
6.652283e+002,2.247192e+000
6.661926e+002,6.237793e-002
6.671568e+002,-3.276123e+000
6.681210e+002,-6.533325e+000
6.690853e+002,-9.400391e+000
6.700495e+002,-1.067908e+001
6.710137e+002,-1.029993e+001
6.719780e+002,-8.162720e+000
6.729422e+002,-3.951782e+000
6.739064e+002,2.857544e+000
6.748707e+002,6.402222e+000
6.758349e+002,6.059326e+000
6.767991e+002,3.974365e+000
6.777634e+002,8.801270e-001
6.787276e+002,-2.437256e+000
6.796918e+002,-4.394897e+000
6.806561e+002,-4.986084e+000
6.816203e+002,-4.819946e+000
6.825845e+002,-3.048096e+000
6.835488e+002,-8.486328e-001
6.845130e+002,-1.334229e-001
6.854772e+002,-2.352905e+000
6.864415e+002,-5.304688e+000
6.874057e+002,-5.137817e+000
6.883699e+002,-3.522461e+000
6.893342e+002,-2.650269e+000
6.902984e+002,-3.602905e+000
6.912626e+002,-5.694702e+000
6.922269e+002,-5.841187e+000
6.931911e+002,3.430176e-001
6.941553e+002,4.730347e+000
6.951196e+002,4.932617e+000
6.960838e+002,2.208374e+000
6.970480e+002,-1.129150e+000
6.980123e+002,-4.833252e+000
6.989765e+002,-7.366089e+000
6.999407e+002,-9.108765e+000
7.009050e+002,-9.457031e+000
7.018692e+002,-6.887695e+000
7.028334e+002,-1.547363e+000
7.037977e+002,3.511963e+000
7.047619e+002,3.364258e+000
7.057261e+002,2.717285e-001
7.066904e+002,-2.767700e+000
7.076546e+002,-5.331299e+000
7.086188e+002,-7.364258e+000
7.095831e+002,-8.884033e+000
7.105473e+002,-1.080359e+001
7.115115e+002,-1.012744e+001
7.124758e+002,-4.264526e+000
7.134400e+002,6.156006e-001
7.144042e+002,3.547363e-001
7.153685e+002,-4.751099e+000
7.163327e+002,-8.814575e+000
7.172969e+002,-7.835815e+000
7.182612e+002,-6.252319e+000
7.192254e+002,-5.979980e+000
7.201896e+002,-6.953003e+000
7.211539e+002,-8.543457e+000
7.221181e+002,-1.031519e+001
7.230823e+002,-1.150732e+001
7.240466e+002,-9.605103e+000
7.250108e+002,-4.776245e+000
7.259750e+002,-1.549072e-001
7.269393e+002,1.683960e+000
7.279035e+002,3.095703e-001
7.288677e+002,-1.002930e+000
7.298320e+002,6.206055e-001
7.307962e+002,1.928345e+000
7.317604e+002,2.218018e+000
7.327247e+002,2.475220e+000
7.336889e+002,3.598389e+000
7.346531e+002,4.972168e+000
7.356174e+002,4.953735e+000
7.365816e+002,4.319214e+000
7.375458e+002,3.781372e+000
7.385101e+002,3.638062e+000
7.394743e+002,3.986084e+000
7.404385e+002,4.703491e+000
7.414028e+002,5.249268e+000
7.423670e+002,4.253906e+000
7.433312e+002,2.981445e+000
7.442955e+002,2.660522e+000
7.452597e+002,3.741455e+000
7.462239e+002,6.357056e+000
7.471882e+002,1.068884e+001
7.481524e+002,1.403979e+001
7.491166e+002,1.528564e+001
7.500809e+002,1.478625e+001
7.510451e+002,1.186084e+001
7.520093e+002,7.243286e+000
7.529736e+002,3.277832e+000
7.539378e+002,2.138794e+000
7.549020e+002,2.457275e+000
7.558663e+002,3.425781e+000
7.568306e+002,4.730347e+000
7.577948e+002,5.663208e+000
7.587590e+002,5.586304e+000
7.597233e+002,4.556763e+000
7.606875e+002,4.870972e+000
7.616517e+002,6.840698e+000
7.626160e+002,7.191284e+000
7.635802e+002,4.550781e+000
7.645444e+002,7.585449e-001
7.655087e+002,-5.200195e-001
7.664729e+002,1.483521e+000
7.674371e+002,4.071899e+000
7.684014e+002,7.913574e+000
7.693656e+002,1.123376e+001
7.703298e+002,1.293872e+001
7.712941e+002,1.305994e+001
7.722583e+002,1.260474e+001
7.732225e+002,1.123340e+001
7.741868e+002,1.055676e+001
7.751510e+002,1.223352e+001
7.761152e+002,1.575635e+001
7.770795e+002,1.981665e+001
7.780437e+002,2.317078e+001
7.790079e+002,2.552136e+001
7.799722e+002,2.585901e+001
7.809364e+002,2.412708e+001
7.819006e+002,2.215405e+001
7.828649e+002,2.106689e+001
7.838291e+002,2.108325e+001
7.847933e+002,2.166248e+001
7.857576e+002,2.228320e+001
7.867218e+002,2.182849e+001
7.876860e+002,2.120569e+001
7.886503e+002,2.037439e+001
7.896145e+002,1.874768e+001
7.905787e+002,1.633130e+001
7.915430e+002,1.465149e+001
7.925072e+002,1.517139e+001
7.934714e+002,1.614050e+001
7.944357e+002,1.686890e+001
7.953999e+002,1.769031e+001
7.963641e+002,1.876001e+001
7.973284e+002,1.994031e+001
7.982926e+002,2.124377e+001
7.992568e+002,2.267224e+001
8.002211e+002,2.352893e+001
8.011853e+002,2.222705e+001
8.021495e+002,1.815601e+001
8.031138e+002,1.352771e+001
8.040780e+002,1.286646e+001
8.050422e+002,1.832849e+001
8.060065e+002,2.332007e+001
8.069707e+002,2.410010e+001
8.079349e+002,2.340979e+001
8.088992e+002,2.486646e+001
8.098634e+002,2.981067e+001
8.108276e+002,3.547217e+001
8.117919e+002,3.681714e+001
8.127561e+002,3.421118e+001
8.137203e+002,3.106030e+001
8.146846e+002,2.861938e+001
8.156488e+002,2.667273e+001
8.166130e+002,2.429736e+001
8.175773e+002,2.098682e+001
8.185415e+002,1.887402e+001
8.195057e+002,1.683777e+001
8.204700e+002,1.554834e+001
8.214342e+002,1.566870e+001
8.223984e+002,1.676941e+001
8.233627e+002,1.763916e+001
8.243269e+002,1.766553e+001
8.252911e+002,1.862708e+001
8.262554e+002,2.225049e+001
8.272196e+002,2.649304e+001
8.281838e+002,2.920508e+001
8.291481e+002,2.956873e+001
8.301123e+002,2.831482e+001
8.310765e+002,2.639343e+001
8.320408e+002,2.378784e+001
8.330050e+002,2.232629e+001
8.339692e+002,2.234106e+001
8.349335e+002,2.345996e+001
8.358977e+002,2.605420e+001
8.368619e+002,3.098877e+001
8.378262e+002,3.449841e+001
8.387904e+002,3.487183e+001
8.397546e+002,3.432922e+001
8.407189e+002,3.289490e+001
8.416831e+002,3.117297e+001
8.426473e+002,2.976904e+001
8.436116e+002,2.883118e+001
8.445758e+002,2.943726e+001
8.455400e+002,3.277002e+001
8.465043e+002,3.640710e+001
8.474685e+002,3.911816e+001
8.484327e+002,4.094067e+001
8.493970e+002,4.180786e+001
8.503612e+002,4.039709e+001
8.513254e+002,3.557568e+001
8.522897e+002,3.484473e+001
8.532539e+002,4.097900e+001
8.542181e+002,4.605432e+001
8.551824e+002,4.428979e+001
8.561466e+002,3.773401e+001
8.571108e+002,3.732483e+001
8.580751e+002,4.865210e+001
8.590393e+002,5.810645e+001
8.600035e+002,6.173865e+001
8.609678e+002,6.251074e+001
8.619320e+002,6.335522e+001
8.628962e+002,6.548474e+001
8.638605e+002,6.848608e+001
8.648247e+002,7.257483e+001
8.657889e+002,7.675220e+001
8.667532e+002,7.934290e+001
8.677174e+002,8.010730e+001
8.686816e+002,7.918005e+001
8.696459e+002,7.642456e+001
8.706101e+002,7.163281e+001
8.715743e+002,7.016980e+001
8.725386e+002,7.252722e+001
8.735028e+002,7.728613e+001
8.744670e+002,8.592151e+001
8.754313e+002,9.519824e+001
8.763955e+002,9.929968e+001
8.773597e+002,9.517712e+001
8.783240e+002,9.145850e+001
8.792882e+002,9.577454e+001
8.802524e+002,1.017067e+002
8.812167e+002,1.030638e+002
8.821809e+002,9.930017e+001
8.831451e+002,9.486475e+001
8.841094e+002,9.570007e+001
8.850736e+002,1.022975e+002
8.860378e+002,1.089780e+002
8.870021e+002,1.158291e+002
8.879663e+002,1.209675e+002
8.889305e+002,1.216669e+002
8.898948e+002,1.188691e+002
8.908590e+002,1.188372e+002
8.918232e+002,1.242467e+002
8.927875e+002,1.303414e+002
8.937517e+002,1.372900e+002
8.947159e+002,1.436412e+002
8.956802e+002,1.474098e+002
8.966444e+002,1.479869e+002
8.976086e+002,1.469263e+002
8.985729e+002,1.462218e+002
8.995371e+002,1.462139e+002
9.005013e+002,1.461095e+002
9.014656e+002,1.464453e+002
9.024298e+002,1.481930e+002
9.033940e+002,1.516929e+002
9.043583e+002,1.560933e+002
9.053225e+002,1.597305e+002
9.062867e+002,1.628771e+002
9.072510e+002,1.633711e+002
9.082152e+002,1.615071e+002
9.091794e+002,1.585535e+002
9.101437e+002,1.542539e+002
9.111079e+002,1.484241e+002
9.120721e+002,1.457472e+002
9.130364e+002,1.528865e+002
9.140006e+002,1.592496e+002
9.149648e+002,1.578997e+002
9.159291e+002,1.519641e+002
9.168933e+002,1.482124e+002
9.178575e+002,1.509615e+002
9.188218e+002,1.572648e+002
9.197860e+002,1.578201e+002
9.207502e+002,1.521003e+002
9.217145e+002,1.482202e+002
9.226787e+002,1.497029e+002
9.236429e+002,1.536514e+002
9.246072e+002,1.553319e+002
9.255714e+002,1.536205e+002
9.265356e+002,1.523713e+002
9.274999e+002,1.548563e+002
9.284641e+002,1.543259e+002
9.294283e+002,1.459380e+002
9.303926e+002,1.340081e+002
9.313568e+002,1.262264e+002
9.323210e+002,1.266530e+002
9.332853e+002,1.302191e+002
9.342495e+002,1.290291e+002
9.352137e+002,1.252163e+002
9.361780e+002,1.224572e+002
9.371422e+002,1.221547e+002
9.381064e+002,1.235072e+002
9.390707e+002,1.247028e+002
9.400349e+002,1.248337e+002
9.409991e+002,1.251718e+002
9.419634e+002,1.276022e+002
9.429276e+002,1.274590e+002
9.438918e+002,1.203986e+002
9.448561e+002,1.113121e+002
9.458203e+002,1.096277e+002
9.467845e+002,1.197643e+002
9.477488e+002,1.294011e+002
9.487130e+002,1.276445e+002
9.496772e+002,1.223420e+002
9.506415e+002,1.184591e+002
9.516057e+002,1.169832e+002
9.525699e+002,1.173866e+002
9.535342e+002,1.191263e+002
9.544984e+002,1.214144e+002
9.554626e+002,1.194340e+002
9.564269e+002,1.132380e+002
9.573911e+002,1.091401e+002
9.583553e+002,1.088440e+002
9.593196e+002,1.110902e+002
9.602838e+002,1.143099e+002
9.612480e+002,1.185601e+002
9.622123e+002,1.220875e+002
9.631765e+002,1.266521e+002
9.641407e+002,1.288058e+002
9.651050e+002,1.245664e+002
9.660692e+002,1.162664e+002
9.670334e+002,1.094269e+002
9.679977e+002,1.079509e+002
9.689619e+002,1.098397e+002
9.699261e+002,1.086958e+002
9.708904e+002,1.054155e+002
9.718546e+002,1.047938e+002
9.728188e+002,1.076375e+002
9.737831e+002,1.129199e+002
9.747473e+002,1.197573e+002
9.757115e+002,1.284963e+002
9.766758e+002,1.385315e+002
9.776400e+002,1.562896e+002
9.786042e+002,1.688250e+002
9.795685e+002,1.705284e+002
9.805327e+002,1.650901e+002
9.814969e+002,1.577645e+002
9.824612e+002,1.507936e+002
9.834254e+002,1.439705e+002
9.843896e+002,1.356498e+002
9.853539e+002,1.266990e+002
9.863181e+002,1.179518e+002
9.872823e+002,1.092449e+002
9.882466e+002,1.009054e+002
9.892108e+002,9.395764e+001
9.901750e+002,8.963928e+001
9.911393e+002,8.937219e+001
9.921035e+002,9.395776e+001
9.930677e+002,9.705237e+001
9.940320e+002,9.835474e+001
9.949962e+002,9.972510e+001
9.959604e+002,1.017858e+002
9.969247e+002,1.049648e+002
9.978889e+002,1.127715e+002
9.988531e+002,1.315742e+002
9.998174e+002,1.470099e+002
1.000782e+003,1.494679e+002
1.001746e+003,1.448738e+002
1.002710e+003,1.413298e+002
1.003674e+003,1.424650e+002
1.004639e+003,1.462006e+002
1.005603e+003,1.490917e+002
1.006567e+003,1.507502e+002
1.007531e+003,1.516892e+002
1.008495e+003,1.524685e+002
1.009460e+003,1.518551e+002
1.010424e+003,1.477329e+002
1.011388e+003,1.417046e+002
1.012352e+003,1.402430e+002
1.013317e+003,1.472803e+002
1.014281e+003,1.513110e+002
1.015245e+003,1.483219e+002
1.016209e+003,1.415233e+002
1.017174e+003,1.325048e+002
1.018138e+003,1.223031e+002
1.019102e+003,1.115917e+002
1.020066e+003,1.008684e+002
1.021031e+003,9.137134e+001
1.021995e+003,8.624548e+001
1.022959e+003,8.376111e+001
1.023923e+003,7.947974e+001
1.024887e+003,7.175281e+001
1.025852e+003,6.158606e+001
1.026816e+003,4.965979e+001
1.027780e+003,3.492285e+001
1.028744e+003,2.654724e+001
1.029709e+003,3.119165e+001
1.030673e+003,3.483789e+001
1.031637e+003,3.191162e+001
1.032601e+003,2.562427e+001
1.033566e+003,2.106018e+001
1.034530e+003,2.023291e+001
1.035494e+003,2.131470e+001
1.036458e+003,2.289417e+001
1.037422e+003,2.404871e+001
1.038387e+003,2.298987e+001
1.039351e+003,1.980603e+001
1.040315e+003,1.712915e+001
1.041279e+003,1.737134e+001
1.042244e+003,2.002429e+001
1.043208e+003,2.083521e+001
1.044172e+003,1.590527e+001
1.045136e+003,1.452563e+001
1.046101e+003,2.045386e+001
1.047065e+003,2.693079e+001
1.048029e+003,2.922778e+001
1.048993e+003,2.777783e+001
1.049958e+003,2.625208e+001
1.050922e+003,2.670410e+001
1.051886e+003,2.799768e+001
1.052850e+003,2.925037e+001
1.053814e+003,3.012952e+001
1.054779e+003,2.972388e+001
1.055743e+003,2.794897e+001
1.056707e+003,2.601941e+001
1.057671e+003,2.537598e+001
1.058636e+003,2.586951e+001
1.059600e+003,2.801904e+001
1.060564e+003,3.544556e+001
1.061528e+003,4.118018e+001
1.062493e+003,4.323315e+001
1.063457e+003,4.236194e+001
1.064421e+003,3.898389e+001
1.065385e+003,3.360352e+001
1.066349e+003,2.963892e+001
1.067314e+003,3.009192e+001
1.068278e+003,3.107214e+001
1.069242e+003,2.963147e+001
1.070206e+003,2.724939e+001
1.071171e+003,2.595044e+001
1.072135e+003,2.629504e+001
1.073099e+003,2.736047e+001
1.074063e+003,2.826379e+001
1.075028e+003,2.933472e+001
1.075992e+003,2.957458e+001
1.076956e+003,2.811597e+001
1.077920e+003,2.620044e+001
1.078885e+003,2.484790e+001
1.079849e+003,2.418079e+001
1.080813e+003,2.390222e+001
1.081777e+003,2.408374e+001
1.082741e+003,2.475916e+001
1.083706e+003,2.494507e+001
1.084670e+003,2.495605e+001
1.085634e+003,2.529395e+001
1.086598e+003,2.557703e+001
1.087563e+003,2.536340e+001
1.088527e+003,2.472754e+001
1.089491e+003,2.408386e+001
1.090455e+003,2.296216e+001
1.091420e+003,2.067493e+001
1.092384e+003,2.013037e+001
1.093348e+003,2.187366e+001
1.094312e+003,2.318518e+001
1.095276e+003,2.275867e+001
1.096241e+003,2.159521e+001
1.097205e+003,2.171436e+001
1.098169e+003,2.379517e+001
1.099133e+003,2.401538e+001
1.100098e+003,1.951843e+001
1.101062e+003,1.488745e+001
1.102026e+003,1.215015e+001
1.102990e+003,1.190686e+001
1.103955e+003,1.492993e+001
1.104919e+003,2.143884e+001
1.105883e+003,2.878113e+001
1.106847e+003,3.169836e+001
1.107812e+003,2.983496e+001
1.108776e+003,2.664441e+001
1.109740e+003,2.109753e+001
1.110704e+003,1.666809e+001
1.111668e+003,1.728198e+001
1.112633e+003,2.215564e+001
1.113597e+003,2.562329e+001
1.114561e+003,2.571484e+001
1.115525e+003,2.630127e+001
1.116490e+003,2.787158e+001
1.117454e+003,3.063293e+001
1.118418e+003,3.639368e+001
1.119382e+003,4.422778e+001
1.120347e+003,5.101440e+001
1.121311e+003,5.426489e+001
1.122275e+003,5.490002e+001
1.123239e+003,5.699280e+001
1.124203e+003,6.121155e+001
1.125168e+003,6.355957e+001
1.126132e+003,6.323022e+001
1.127096e+003,6.301013e+001
1.128060e+003,6.411841e+001
1.129025e+003,6.640015e+001
1.129989e+003,7.096423e+001
1.130953e+003,7.983423e+001
1.131917e+003,8.559229e+001
1.132882e+003,8.412549e+001
1.133846e+003,8.218457e+001
1.134810e+003,8.392334e+001
1.135774e+003,8.879810e+001
1.136739e+003,9.390955e+001
1.137703e+003,9.758313e+001
1.138667e+003,1.015020e+002
1.139631e+003,1.088571e+002
1.140595e+003,1.194622e+002
1.141560e+003,1.315425e+002
1.142524e+003,1.455331e+002
1.143488e+003,1.614475e+002
1.144452e+003,1.781398e+002
1.145417e+003,1.964307e+002
1.146381e+003,2.199658e+002
1.147345e+003,2.505699e+002
1.148309e+003,2.810364e+002
1.149274e+003,3.070718e+002
1.150238e+003,3.357990e+002
1.151202e+003,3.742473e+002
1.152166e+003,4.181523e+002
1.153130e+003,4.596013e+002
1.154095e+003,4.940236e+002
1.155059e+003,5.215365e+002
1.156023e+003,5.441885e+002
1.156987e+003,5.609420e+002
1.157952e+003,5.667468e+002
1.158916e+003,5.624818e+002
1.159880e+003,5.517926e+002
1.160844e+003,5.354645e+002
1.161809e+003,5.116028e+002
1.162773e+003,4.766331e+002
1.163737e+003,4.278682e+002
1.164701e+003,3.806276e+002
1.165666e+003,3.362058e+002
1.166630e+003,2.980483e+002
1.167594e+003,2.686344e+002
1.168558e+003,2.456312e+002
1.169522e+003,2.265634e+002
1.170487e+003,2.103374e+002
1.171451e+003,1.970718e+002
1.172415e+003,1.865974e+002
1.173379e+003,1.790579e+002
1.174344e+003,1.775310e+002
1.175308e+003,1.828138e+002
1.176272e+003,1.847856e+002
1.177236e+003,1.784406e+002
1.178201e+003,1.690631e+002
1.179165e+003,1.627516e+002
1.180129e+003,1.589722e+002
1.181093e+003,1.551697e+002
1.182057e+003,1.523192e+002
1.183022e+003,1.478634e+002
1.183986e+003,1.397533e+002
1.184950e+003,1.307072e+002
1.185914e+003,1.222799e+002
1.186879e+003,1.157648e+002
1.187843e+003,1.134291e+002
1.188807e+003,1.170143e+002
1.189771e+003,1.237635e+002
1.190736e+003,1.259426e+002
1.191700e+003,1.228218e+002
1.192664e+003,1.219302e+002
1.193628e+003,1.268428e+002
1.194593e+003,1.312061e+002
1.195557e+003,1.296117e+002
1.196521e+003,1.235049e+002
1.197485e+003,1.184791e+002
1.198449e+003,1.159526e+002
1.199414e+003,1.130632e+002
1.200378e+003,1.086267e+002
1.201342e+003,1.034316e+002
1.202306e+003,9.660901e+001
1.203271e+003,8.917285e+001
1.204235e+003,8.350195e+001
1.205199e+003,8.075916e+001
1.206163e+003,7.942810e+001
1.207128e+003,7.689929e+001
1.208092e+003,7.322632e+001
1.209056e+003,6.751672e+001
1.210020e+003,5.939197e+001
1.210984e+003,5.061182e+001
1.211949e+003,4.079810e+001
1.212913e+003,3.078394e+001
1.213877e+003,2.254260e+001
1.214841e+003,1.625195e+001
1.215806e+003,8.113892e+000
1.216770e+003,-5.942505e+000
1.217734e+003,-1.833142e+001
1.218698e+003,-2.483362e+001
1.219663e+003,-2.718921e+001
1.220627e+003,-2.559192e+001
1.221591e+003,-2.146057e+001
1.222555e+003,-1.911084e+001
1.223520e+003,-2.250195e+001
1.224484e+003,-3.012561e+001
1.225448e+003,-3.617053e+001
1.226412e+003,-4.096704e+001
1.227376e+003,-4.326514e+001
1.228341e+003,-4.120642e+001
1.229305e+003,-3.931860e+001
1.230269e+003,-4.016248e+001
1.231233e+003,-4.296777e+001
1.232198e+003,-4.592554e+001
1.233162e+003,-4.830640e+001
1.234126e+003,-4.985217e+001
1.235090e+003,-5.084436e+001
1.236055e+003,-5.134009e+001
1.237019e+003,-5.130029e+001
1.237983e+003,-5.094592e+001
1.238947e+003,-4.993127e+001
1.239911e+003,-4.781262e+001
1.240876e+003,-4.577576e+001
1.241840e+003,-4.610950e+001
1.242804e+003,-4.894519e+001
1.243768e+003,-5.091016e+001
1.244733e+003,-5.188538e+001
1.245697e+003,-5.193115e+001
1.246661e+003,-5.100488e+001
1.247625e+003,-5.045325e+001
1.248590e+003,-5.198767e+001
1.249554e+003,-5.392419e+001
1.250518e+003,-5.185803e+001
1.251482e+003,-4.386023e+001
1.252447e+003,-3.503687e+001
1.253411e+003,-3.103479e+001
1.254375e+003,-2.981580e+001
1.255339e+003,-2.745764e+001
1.256303e+003,-2.355969e+001
1.257268e+003,-2.016211e+001
1.258232e+003,-1.933057e+001
1.259196e+003,-2.006909e+001
1.260160e+003,-1.927637e+001
1.261125e+003,-1.616284e+001
1.262089e+003,-1.257141e+001
1.263053e+003,-9.522583e+000
1.264017e+003,-6.254883e+000
1.264982e+003,-8.963623e-001
1.265946e+003,4.046265e+000
1.266910e+003,5.962280e+000
1.267874e+003,5.031372e+000
1.268839e+003,3.380615e+000
1.269803e+003,2.454590e+000
1.270767e+003,1.573975e+000
1.271731e+003,-6.832275e-001
1.272695e+003,-3.946655e+000
1.273660e+003,-6.153564e+000
1.274624e+003,-7.638794e+000
1.275588e+003,-9.962524e+000
1.276552e+003,-1.344641e+001
1.277517e+003,-1.735437e+001
1.278481e+003,-2.190759e+001
1.279445e+003,-2.761755e+001
1.280409e+003,-2.986292e+001
1.281374e+003,-2.367578e+001
1.282338e+003,-1.813721e+001
1.283302e+003,-1.885132e+001
1.284266e+003,-2.232971e+001
1.285230e+003,-2.486047e+001
1.286195e+003,-2.576086e+001
1.287159e+003,-2.608960e+001
1.288123e+003,-2.642957e+001
1.289087e+003,-2.648389e+001
1.290052e+003,-2.661145e+001
1.291016e+003,-2.720593e+001
1.291980e+003,-2.848132e+001
1.292944e+003,-3.114917e+001
1.293909e+003,-3.467590e+001
1.294873e+003,-3.895325e+001
1.295837e+003,-4.287195e+001
1.296801e+003,-4.527820e+001
1.297766e+003,-4.599390e+001
1.298730e+003,-4.521863e+001
1.299694e+003,-4.251172e+001
1.300658e+003,-4.038867e+001
1.301622e+003,-4.193494e+001
1.302587e+003,-4.513525e+001
1.303551e+003,-4.723462e+001
1.304515e+003,-4.751721e+001
1.305479e+003,-4.676416e+001
1.306444e+003,-4.598853e+001
1.307408e+003,-4.511194e+001
1.308372e+003,-4.247668e+001
1.309336e+003,-3.658728e+001
1.310301e+003,-3.382117e+001
1.311265e+003,-3.594128e+001
1.312229e+003,-3.858655e+001
1.313193e+003,-4.189050e+001
1.314157e+003,-4.448535e+001
1.315122e+003,-4.411926e+001
1.316086e+003,-4.162964e+001
1.317050e+003,-4.114233e+001
1.318014e+003,-4.529663e+001
1.318979e+003,-5.048730e+001
1.319943e+003,-5.031201e+001
1.320907e+003,-4.509998e+001
1.321871e+003,-4.130005e+001
1.322836e+003,-4.033533e+001
1.323800e+003,-3.965515e+001
1.324764e+003,-3.714148e+001
1.325728e+003,-3.420276e+001
1.326693e+003,-3.381348e+001
1.327657e+003,-3.644775e+001
1.328621e+003,-3.943567e+001
1.329585e+003,-4.172839e+001
1.330549e+003,-4.107166e+001
1.331514e+003,-3.675671e+001
1.332478e+003,-3.189294e+001
1.333442e+003,-2.837561e+001
1.334406e+003,-2.634534e+001
1.335371e+003,-2.582129e+001
1.336335e+003,-2.675598e+001
1.337299e+003,-2.821484e+001
1.338263e+003,-2.868457e+001
1.339228e+003,-2.814136e+001
1.340192e+003,-2.649902e+001
1.341156e+003,-2.123047e+001
1.342120e+003,-1.867566e+001
1.343084e+003,-2.291248e+001
1.344049e+003,-2.851831e+001
1.345013e+003,-3.007593e+001
1.345977e+003,-2.820544e+001
1.346941e+003,-2.699426e+001
1.347906e+003,-2.798962e+001
1.348870e+003,-2.959070e+001
1.349834e+003,-3.079565e+001
1.350798e+003,-3.182141e+001
1.351763e+003,-3.234009e+001
1.352727e+003,-3.229810e+001
1.353691e+003,-3.250842e+001
1.354655e+003,-3.335010e+001
1.355620e+003,-3.393396e+001
1.356584e+003,-3.307678e+001
1.357548e+003,-3.068298e+001
1.358512e+003,-2.761951e+001
1.359476e+003,-2.397363e+001
1.360441e+003,-2.181592e+001
1.361405e+003,-2.056079e+001
1.362369e+003,-2.131848e+001
1.363333e+003,-2.644861e+001
1.364298e+003,-3.304456e+001
1.365262e+003,-3.732617e+001
1.366226e+003,-3.830164e+001
1.367190e+003,-3.721765e+001
1.368155e+003,-3.514612e+001
1.369119e+003,-3.247437e+001
1.370083e+003,-3.031055e+001
1.371047e+003,-2.843762e+001
1.372011e+003,-2.656104e+001
1.372976e+003,-2.563123e+001
1.373940e+003,-2.488269e+001
1.374904e+003,-2.337195e+001
1.375868e+003,-2.173914e+001
1.376833e+003,-2.134302e+001
1.377797e+003,-2.221851e+001
1.378761e+003,-2.257837e+001
1.379725e+003,-2.116150e+001
1.380690e+003,-2.005493e+001
1.381654e+003,-2.299854e+001
1.382618e+003,-2.649121e+001
1.383582e+003,-2.467188e+001
1.384547e+003,-1.809021e+001
1.385511e+003,-1.315222e+001
1.386475e+003,-1.365881e+001
1.387439e+003,-1.637549e+001
1.388403e+003,-1.583215e+001
1.389368e+003,-1.211414e+001
1.390332e+003,-1.072058e+001
1.391296e+003,-1.314050e+001
1.392260e+003,-1.423230e+001
1.393225e+003,-1.111096e+001
1.394189e+003,-8.643188e+000
1.395153e+003,-1.046570e+001
1.396117e+003,-1.435669e+001
1.397082e+003,-1.664417e+001
1.398046e+003,-1.619653e+001
1.399010e+003,-1.438696e+001
1.399974e+003,-1.280017e+001
1.400938e+003,-1.239819e+001
1.401903e+003,-1.424866e+001
1.402867e+003,-1.751343e+001
1.403831e+003,-1.845068e+001
1.404795e+003,-1.802173e+001
1.405760e+003,-1.582581e+001
1.406724e+003,-1.033032e+001
1.407688e+003,-6.172119e+000
1.408652e+003,-9.071655e+000
1.409617e+003,-1.713623e+001
1.410581e+003,-2.197498e+001
1.411545e+003,-2.003418e+001
1.412509e+003,-1.563696e+001
1.413474e+003,-1.200964e+001
1.414438e+003,-1.033411e+001
1.415402e+003,-1.210730e+001
1.416366e+003,-1.607520e+001
1.417330e+003,-1.800403e+001
1.418295e+003,-1.591541e+001
1.419259e+003,-1.245398e+001
1.420223e+003,-1.097119e+001
1.421187e+003,-1.154053e+001
1.422152e+003,-1.217432e+001
1.423116e+003,-1.244629e+001
1.424080e+003,-1.151672e+001
1.425044e+003,-1.006519e+001
1.426009e+003,-7.622314e+000
1.426973e+003,-2.333618e+000
1.427937e+003,3.014526e+000
1.428901e+003,4.917725e+000
1.429865e+003,3.806641e+000
1.430830e+003,2.760742e+000
1.431794e+003,3.531738e+000
1.432758e+003,5.098877e+000
1.433722e+003,6.221558e+000
1.434687e+003,7.704468e+000
1.435651e+003,1.143604e+001
1.436615e+003,1.732739e+001
1.437579e+003,2.099939e+001
1.438544e+003,2.145581e+001
1.439508e+003,2.081299e+001
1.440472e+003,2.009424e+001
1.441436e+003,2.031604e+001
1.442401e+003,2.354028e+001
1.443365e+003,2.946826e+001
1.444329e+003,3.279443e+001
1.445293e+003,2.931836e+001
1.446257e+003,2.269189e+001
1.447222e+003,1.920313e+001
1.448186e+003,1.824268e+001
1.449150e+003,1.729248e+001
1.450114e+003,1.581189e+001
1.451079e+003,1.474817e+001
1.452043e+003,1.575366e+001
1.453007e+003,1.754187e+001
1.453971e+003,1.754224e+001
1.454936e+003,1.576160e+001
1.455900e+003,1.468665e+001
1.456864e+003,1.536194e+001
1.457828e+003,1.620386e+001
1.458792e+003,1.567847e+001
1.459757e+003,1.462256e+001
1.460721e+003,1.319910e+001
1.461685e+003,1.194202e+001
1.462649e+003,1.235339e+001
1.463614e+003,1.490588e+001
1.464578e+003,1.783630e+001
1.465542e+003,1.936902e+001
1.466506e+003,1.960730e+001
1.467471e+003,1.959741e+001
1.468435e+003,2.007422e+001
1.469399e+003,2.060767e+001
1.470363e+003,2.011304e+001
1.471328e+003,1.948987e+001
1.472292e+003,1.792407e+001
1.473256e+003,1.594287e+001
1.474220e+003,1.485913e+001
1.475184e+003,1.487427e+001
1.476149e+003,1.520313e+001
1.477113e+003,1.525464e+001
1.478077e+003,1.547412e+001
1.479041e+003,1.685083e+001
1.480006e+003,1.945227e+001
1.480970e+003,2.206274e+001
1.481934e+003,2.391394e+001
1.482898e+003,2.595789e+001
1.483863e+003,2.814038e+001
1.484827e+003,3.023767e+001
1.485791e+003,3.281519e+001
1.486755e+003,3.587842e+001
1.487719e+003,3.879871e+001
1.488684e+003,4.152185e+001
1.489648e+003,4.479956e+001
1.490612e+003,4.918958e+001
1.491576e+003,5.437500e+001
1.492541e+003,6.000867e+001
1.493505e+003,6.554871e+001
1.494469e+003,6.965405e+001
1.495433e+003,7.193176e+001
1.496398e+003,7.439429e+001
1.497362e+003,7.793884e+001
1.498326e+003,8.326624e+001
1.499290e+003,9.110645e+001
1.500255e+003,1.004244e+002
1.501219e+003,1.087640e+002
1.502183e+003,1.166466e+002
1.503147e+003,1.286130e+002
1.504111e+003,1.460979e+002
1.505076e+003,1.653663e+002
1.506040e+003,1.844614e+002
1.507004e+003,2.046027e+002
1.507968e+003,2.265679e+002
1.508933e+003,2.504779e+002
1.509897e+003,2.764225e+002
1.510861e+003,3.054739e+002
1.511825e+003,3.390935e+002
1.512790e+003,3.774559e+002
1.513754e+003,4.201558e+002
1.514718e+003,4.688156e+002
1.515682e+003,5.227167e+002
1.516646e+003,5.741989e+002
1.517611e+003,6.245897e+002
1.518575e+003,6.699010e+002
1.519539e+003,7.084039e+002
1.520503e+003,7.434257e+002
1.521468e+003,7.798497e+002
1.522432e+003,8.115311e+002
1.523396e+003,8.304456e+002
1.524360e+003,8.353633e+002
1.525325e+003,8.298918e+002
1.526289e+003,8.166038e+002
1.527253e+003,7.967953e+002
1.528217e+003,7.723722e+002
1.529182e+003,7.439164e+002
1.530146e+003,7.103088e+002
1.531110e+003,6.711041e+002
1.532074e+003,6.258408e+002
1.533039e+003,5.718400e+002
1.534003e+003,5.125209e+002
1.534967e+003,4.469735e+002
1.535931e+003,3.815223e+002
1.536896e+003,3.195370e+002
1.537860e+003,2.642485e+002
1.538824e+003,2.214688e+002
1.539788e+003,1.932621e+002
1.540752e+003,1.718020e+002
1.541717e+003,1.470902e+002
1.542681e+003,1.210892e+002
1.543645e+003,1.035636e+002
1.544609e+003,9.886487e+001
1.545573e+003,9.411230e+001
1.546538e+003,8.782947e+001
1.547502e+003,8.139526e+001
1.548466e+003,7.549512e+001
1.549430e+003,7.131433e+001
1.550395e+003,7.020801e+001
1.551359e+003,7.087805e+001
1.552323e+003,7.056787e+001
1.553287e+003,6.840515e+001
1.554252e+003,6.533850e+001
1.555216e+003,6.202466e+001
1.556180e+003,5.847998e+001
1.557144e+003,5.468152e+001
1.558109e+003,5.090417e+001
1.559073e+003,4.838562e+001
1.560037e+003,4.704565e+001
1.561001e+003,4.489954e+001
1.561966e+003,4.166443e+001
1.562930e+003,3.891211e+001
1.563894e+003,3.730212e+001
1.564858e+003,3.662036e+001
1.565823e+003,3.694141e+001
1.566787e+003,3.811438e+001
1.567751e+003,3.914160e+001
1.568715e+003,3.971509e+001
1.569679e+003,4.007544e+001
1.570644e+003,4.005396e+001
1.571608e+003,3.938013e+001
1.572572e+003,3.815955e+001
1.573536e+003,3.678601e+001
1.574500e+003,3.801807e+001
1.575465e+003,4.464929e+001
1.576429e+003,5.059094e+001
1.577393e+003,4.886914e+001
1.578357e+003,4.342737e+001
1.579322e+003,4.281494e+001
1.580286e+003,4.752380e+001
1.581250e+003,5.276416e+001
1.582214e+003,5.755750e+001
1.583179e+003,6.072583e+001
1.584143e+003,6.017310e+001
1.585107e+003,5.783398e+001
1.586071e+003,5.704272e+001
1.587036e+003,5.815808e+001
1.588000e+003,6.014392e+001
1.588964e+003,6.235535e+001
1.589928e+003,6.391040e+001
1.590893e+003,6.400659e+001
1.591857e+003,6.358777e+001
1.592821e+003,6.377661e+001
1.593785e+003,6.480017e+001
1.594750e+003,6.745874e+001
1.595714e+003,7.179431e+001
1.596678e+003,7.599939e+001
1.597642e+003,7.950745e+001
1.598606e+003,8.262952e+001
1.599571e+003,8.604651e+001
1.600535e+003,8.945569e+001
1.601499e+003,9.237683e+001
1.602463e+003,9.452173e+001
1.603427e+003,9.553284e+001
1.604392e+003,9.526929e+001
1.605356e+003,9.432520e+001
1.606320e+003,9.340796e+001
1.607284e+003,9.231628e+001
1.608249e+003,9.002051e+001
1.609213e+003,8.646619e+001
1.610177e+003,8.382397e+001
1.611141e+003,8.258984e+001
1.612106e+003,8.198999e+001
1.613070e+003,8.188770e+001
1.614034e+003,8.194873e+001
1.614998e+003,8.231995e+001
1.615963e+003,8.259937e+001
1.616927e+003,8.162952e+001
1.617891e+003,7.934167e+001
1.618855e+003,7.707581e+001
1.619820e+003,7.517725e+001
1.620784e+003,7.381946e+001
1.621748e+003,7.510059e+001
1.622712e+003,7.929260e+001
1.623677e+003,8.218616e+001
1.624641e+003,8.375610e+001
1.625605e+003,8.438269e+001
1.626569e+003,8.148132e+001
1.627533e+003,7.859888e+001
1.628498e+003,7.849487e+001
1.629462e+003,7.976917e+001
1.630426e+003,8.196851e+001
1.631390e+003,8.404761e+001
1.632354e+003,8.380457e+001
1.633319e+003,8.093860e+001
1.634283e+003,7.823108e+001
1.635247e+003,7.764063e+001
1.636211e+003,7.823914e+001
1.637176e+003,7.854553e+001
1.638140e+003,7.896118e+001
1.639104e+003,8.169385e+001
1.640068e+003,8.788416e+001
1.641033e+003,9.083887e+001
1.641997e+003,8.668250e+001
1.642961e+003,8.282959e+001
1.643925e+003,8.289502e+001
1.644890e+003,8.488599e+001
1.645854e+003,8.781250e+001
1.646818e+003,9.055054e+001
1.647782e+003,9.074634e+001
1.648747e+003,8.783069e+001
1.649711e+003,8.494543e+001
1.650675e+003,8.517297e+001
1.651639e+003,8.734875e+001
1.652604e+003,8.862305e+001
1.653568e+003,8.860730e+001
1.654532e+003,8.616614e+001
1.655496e+003,8.031384e+001
1.656460e+003,7.540649e+001
1.657425e+003,7.290332e+001
1.658389e+003,7.194080e+001
1.659353e+003,7.281775e+001
1.660317e+003,7.414941e+001
1.661281e+003,7.484387e+001
1.662246e+003,7.439246e+001
1.663210e+003,7.188770e+001
1.664174e+003,6.738892e+001
1.665138e+003,6.364661e+001
1.666103e+003,6.303369e+001
1.667067e+003,6.365259e+001
1.668031e+003,6.163135e+001
1.668995e+003,5.742712e+001
1.669960e+003,5.550635e+001
1.670924e+003,5.680676e+001
1.671888e+003,5.863611e+001
1.672852e+003,6.053455e+001
1.673817e+003,6.149414e+001
1.674781e+003,6.030432e+001
1.675745e+003,5.823767e+001
1.676709e+003,5.669702e+001
1.677674e+003,5.548645e+001
1.678638e+003,5.340503e+001
1.679602e+003,5.013049e+001
1.680566e+003,4.736218e+001
1.681531e+003,4.690100e+001
1.682495e+003,4.793896e+001
1.683459e+003,4.890759e+001
1.684423e+003,4.925867e+001
1.685387e+003,4.711548e+001
1.686352e+003,4.187244e+001
1.687316e+003,4.007898e+001
1.688280e+003,4.646973e+001
1.689244e+003,5.171155e+001
1.690208e+003,4.618726e+001
1.691173e+003,3.733069e+001
1.692137e+003,3.248560e+001
1.693101e+003,3.210400e+001
1.694065e+003,3.617078e+001
1.695030e+003,4.440771e+001
1.695994e+003,4.929126e+001
1.696958e+003,4.495972e+001
1.697922e+003,3.711877e+001
1.698887e+003,3.199475e+001
1.699851e+003,2.947815e+001
1.700815e+003,2.944922e+001
1.701779e+003,3.147986e+001
1.702744e+003,3.150696e+001
1.703708e+003,2.832764e+001
1.704672e+003,2.568945e+001
1.705636e+003,2.588843e+001
1.706601e+003,2.673352e+001
1.707565e+003,2.594495e+001
1.708529e+003,2.441455e+001
1.709493e+003,2.375513e+001
1.710458e+003,2.426404e+001
1.711422e+003,2.354126e+001
1.712386e+003,1.950586e+001
1.713350e+003,1.622827e+001
1.714314e+003,1.706470e+001
1.715279e+003,1.953943e+001
1.716243e+003,2.015747e+001
1.717207e+003,1.901563e+001
1.718171e+003,1.765881e+001
1.719135e+003,1.665369e+001
1.720100e+003,1.659448e+001
1.721064e+003,1.810278e+001
1.722028e+003,1.906128e+001
1.722992e+003,1.635474e+001
1.723957e+003,1.154993e+001
1.724921e+003,1.008093e+001
1.725885e+003,1.140283e+001
1.726849e+003,1.207654e+001
1.727814e+003,1.241528e+001
1.728778e+003,1.322363e+001
1.729742e+003,1.582263e+001
1.730706e+003,1.771094e+001
1.731671e+003,1.440979e+001
1.732635e+003,8.026489e+000
1.733599e+003,4.921509e+000
1.734563e+003,6.342041e+000
1.735528e+003,7.911133e+000
1.736492e+003,7.033936e+000
1.737456e+003,6.357544e+000
1.738420e+003,9.339844e+000
1.739385e+003,1.391040e+001
1.740349e+003,1.416589e+001
1.741313e+003,9.595825e+000
1.742277e+003,5.691040e+000
1.743241e+003,1.263306e+000
1.744206e+003,2.786865e-001
1.745170e+003,6.761719e+000
1.746134e+003,1.206885e+001
1.747098e+003,1.025916e+001
1.748063e+003,5.498535e+000
1.749027e+003,2.448853e+000
1.749991e+003,1.452515e+000
1.750955e+003,9.686279e-001
1.751919e+003,2.407227e-001
1.752884e+003,-7.714844e-001
1.753848e+003,-2.117676e+000
1.754812e+003,-3.417480e+000
1.755776e+003,-3.325073e+000
1.756741e+003,-1.367798e+000
1.757705e+003,-1.075439e-001
1.758669e+003,-3.656006e-001
1.759633e+003,-4.219971e-001
1.760598e+003,-4.313965e-001
1.761562e+003,-7.258301e-001
1.762526e+003,-6.892090e-001
1.763490e+003,-5.211182e-001
1.764455e+003,-6.275635e-001
1.765419e+003,-3.950195e-001
1.766383e+003,1.418701e+000
1.767347e+003,4.028564e+000
1.768312e+003,4.336792e+000
1.769276e+003,6.569824e-001
1.770240e+003,-3.609497e+000
1.771204e+003,-3.908936e+000
1.772168e+003,-1.435913e+000
1.773133e+003,-2.711182e-001
1.774097e+003,-2.884521e-001
1.775061e+003,5.175781e-002
1.776025e+003,3.197021e-001
1.776990e+003,4.172363e-001
1.777954e+003,9.771729e-001
1.778918e+003,2.021729e+000
1.779882e+003,3.411377e+000
1.780846e+003,4.237061e+000
1.781811e+003,3.958252e+000
1.782775e+003,2.873779e+000
1.783739e+003,1.203369e+000
1.784703e+003,-9.458008e-001
1.785668e+003,-2.088135e+000
1.786632e+003,-2.093872e+000
1.787596e+003,-1.796997e+000
1.788560e+003,-6.710205e-001
1.789525e+003,1.226318e+000
1.790489e+003,3.114746e+000
1.791453e+003,4.581055e+000
1.792417e+003,5.477173e+000
1.793382e+003,5.839844e+000
1.794346e+003,5.828491e+000
1.795310e+003,5.415771e+000
1.796274e+003,4.871460e+000
1.797239e+003,4.959351e+000
1.798203e+003,6.022339e+000
1.799167e+003,6.722168e+000
1.800131e+003,5.655518e+000
1.801095e+003,4.750610e+000
1.802060e+003,5.621094e+000
1.803024e+003,6.507324e+000
1.803988e+003,7.837646e+000
1.804952e+003,7.523193e+000
1.805917e+003,2.684692e+000
1.806881e+003,-2.708008e+000
1.807845e+003,-4.442749e+000
1.808809e+003,-3.181396e+000
1.809773e+003,-8.182373e-001
1.810738e+003,1.560791e+000
1.811702e+003,2.229126e+000
1.812666e+003,1.359863e-001
1.813630e+003,-1.916016e+000
1.814595e+003,1.550293e-001
1.815559e+003,4.855103e+000
1.816523e+003,6.614746e+000
1.817487e+003,5.292358e+000
1.818452e+003,4.330078e+000
1.819416e+003,4.714355e+000
1.820380e+003,4.716309e+000
1.821344e+003,1.980835e+000
1.822309e+003,1.934814e-001
1.823273e+003,3.501831e+000
1.824237e+003,8.101929e+000
1.825201e+003,9.885498e+000
1.826166e+003,9.159912e+000
1.827130e+003,6.905273e+000
1.828094e+003,3.234863e+000
1.829058e+003,1.944824e+000
1.830022e+003,6.736572e+000
1.830987e+003,1.142261e+001
1.831951e+003,1.047864e+001
1.832915e+003,6.641602e+000
1.833879e+003,2.994873e+000
1.834844e+003,-2.319336e-003
1.835808e+003,-1.573364e+000
1.836772e+003,-1.590942e+000
1.837736e+003,-8.723145e-001
1.838700e+003,-6.042480e-002
1.839665e+003,1.252808e+000
1.840629e+003,3.955688e+000
1.841593e+003,7.091431e+000
1.842557e+003,8.077393e+000
1.843522e+003,6.913208e+000
1.844486e+003,6.097290e+000
1.845450e+003,6.320801e+000
1.846414e+003,7.150513e+000
1.847379e+003,7.875732e+000
1.848343e+003,8.118896e+000
1.849307e+003,8.876099e+000
1.850271e+003,8.678833e+000
1.851236e+003,5.028809e+000
1.852200e+003,1.273926e+000
1.853164e+003,1.879883e+000
1.854128e+003,5.725220e+000
1.855093e+003,9.038452e+000
1.856057e+003,1.077783e+001
1.857021e+003,1.171094e+001
1.857985e+003,1.210779e+001
1.858949e+003,1.180518e+001
1.859914e+003,1.020129e+001
1.860878e+003,7.942505e+000
1.861842e+003,7.923096e+000
1.862806e+003,9.993774e+000
1.863771e+003,1.228113e+001
1.864735e+003,1.457349e+001
1.865699e+003,1.512598e+001
1.866663e+003,1.221277e+001
1.867627e+003,1.042224e+001
1.868592e+003,1.544910e+001
1.869556e+003,2.203992e+001
1.870520e+003,1.969751e+001
1.871484e+003,1.015186e+001
1.872449e+003,5.895874e+000
1.873413e+003,1.121863e+001
1.874377e+003,1.683337e+001
1.875341e+003,1.747266e+001
1.876306e+003,1.813892e+001
1.877270e+003,2.392908e+001
1.878234e+003,2.840149e+001
1.879198e+003,2.358960e+001
1.880163e+003,1.370923e+001
1.881127e+003,6.310669e+000
1.882091e+003,2.892090e+000
1.883055e+003,2.088745e+000
1.884020e+003,3.040649e+000
1.884984e+003,5.044922e+000
1.885948e+003,7.534302e+000
1.886912e+003,1.025659e+001
1.887876e+003,1.277637e+001
1.888841e+003,1.518738e+001
1.889805e+003,1.765356e+001
1.890769e+003,2.014172e+001
1.891733e+003,2.315967e+001
1.892698e+003,2.765222e+001
1.893662e+003,2.916150e+001
1.894626e+003,2.431335e+001
1.895590e+003,1.893762e+001
1.896554e+003,1.711584e+001
1.897519e+003,1.754382e+001
1.898483e+003,1.856226e+001
1.899447e+003,1.951880e+001
1.900411e+003,2.052161e+001
1.901376e+003,2.186816e+001
1.902340e+003,2.216516e+001
1.903304e+003,1.935168e+001
1.904268e+003,1.754309e+001
1.905233e+003,2.127148e+001
1.906197e+003,2.576941e+001
1.907161e+003,2.558594e+001
1.908125e+003,2.306494e+001
1.909090e+003,2.233191e+001
1.910054e+003,2.320715e+001
1.911018e+003,2.337793e+001
1.911982e+003,2.248535e+001
1.912947e+003,2.255286e+001
1.913911e+003,2.489368e+001
1.914875e+003,2.782788e+001
1.915839e+003,2.837903e+001
1.916803e+003,2.684180e+001
1.917768e+003,2.769727e+001
1.918732e+003,3.232581e+001
1.919696e+003,3.270337e+001
1.920660e+003,2.681140e+001
1.921625e+003,2.324658e+001
1.922589e+003,2.433899e+001
1.923553e+003,2.638037e+001
1.924517e+003,2.693262e+001
1.925481e+003,2.824500e+001
1.926446e+003,3.511609e+001
1.927410e+003,4.318469e+001
1.928374e+003,4.200671e+001
1.929338e+003,3.150281e+001
1.930303e+003,2.452527e+001
1.931267e+003,2.561340e+001
1.932231e+003,2.905298e+001
1.933195e+003,3.391040e+001
1.934160e+003,3.700476e+001
1.935124e+003,3.417041e+001
1.936088e+003,2.940710e+001
1.937052e+003,2.845178e+001
1.938017e+003,3.035083e+001
1.938981e+003,3.138086e+001
1.939945e+003,3.084351e+001
1.940909e+003,3.021460e+001
1.941874e+003,3.002893e+001
1.942838e+003,2.946936e+001
1.943802e+003,2.821240e+001
1.944766e+003,2.756946e+001
1.945730e+003,2.902966e+001
1.946695e+003,3.198962e+001
1.947659e+003,3.557239e+001
1.948623e+003,4.000903e+001
1.949587e+003,4.010425e+001
1.950552e+003,3.425085e+001
1.951516e+003,2.974304e+001
1.952480e+003,2.885999e+001
1.953444e+003,3.012085e+001
1.954408e+003,3.346375e+001
1.955373e+003,3.668481e+001
1.956337e+003,3.681470e+001
1.957301e+003,3.546460e+001
1.958265e+003,3.639270e+001
1.959230e+003,4.012695e+001
1.960194e+003,4.300549e+001
1.961158e+003,4.331592e+001
1.962122e+003,4.251453e+001
1.963087e+003,3.994080e+001
1.964051e+003,3.792529e+001
1.965015e+003,3.899683e+001
1.965979e+003,4.136133e+001
1.966944e+003,4.309241e+001
1.967908e+003,4.351331e+001
1.968872e+003,4.153247e+001
1.969836e+003,3.825671e+001
1.970801e+003,3.793628e+001
1.971765e+003,4.216528e+001
1.972729e+003,4.600635e+001
1.973693e+003,4.479333e+001
1.974657e+003,4.219666e+001
1.975622e+003,4.393774e+001
1.976586e+003,4.812402e+001
1.977550e+003,5.033508e+001
1.978514e+003,5.097180e+001
1.979479e+003,5.203943e+001
1.980443e+003,5.359875e+001
1.981407e+003,5.340198e+001
1.982371e+003,5.074634e+001
1.983335e+003,4.840649e+001
1.984300e+003,4.811719e+001
1.985264e+003,4.877771e+001
1.986228e+003,4.917078e+001
1.987192e+003,4.937073e+001
1.988157e+003,4.987268e+001
1.989121e+003,5.100476e+001
1.990085e+003,5.205481e+001
1.991049e+003,5.385498e+001
1.992014e+003,5.461169e+001
1.992978e+003,5.279138e+001
1.993942e+003,5.099585e+001
1.994906e+003,5.013855e+001
1.995871e+003,4.964417e+001
1.996835e+003,4.938452e+001
1.997799e+003,4.945276e+001
1.998763e+003,4.966309e+001
1.999728e+003,4.972729e+001
