5.003444e+002,2.692563e+001
5.013087e+002,2.980943e+001
5.022729e+002,2.942175e+001
5.032371e+002,2.693690e+001
5.042014e+002,2.641310e+001
5.051656e+002,2.753983e+001
5.061298e+002,2.843251e+001
5.070941e+002,2.716022e+001
5.080583e+002,2.279153e+001
5.090225e+002,2.132588e+001
5.099868e+002,2.513977e+001
5.109510e+002,2.842207e+001
5.119152e+002,2.744586e+001
5.128795e+002,2.174173e+001
5.138437e+002,1.766014e+001
5.148079e+002,1.838275e+001
5.157722e+002,2.026939e+001
5.167364e+002,2.275537e+001
5.177006e+002,2.512671e+001
5.186649e+002,2.619734e+001
5.196291e+002,2.346008e+001
5.205933e+002,1.953047e+001
5.215576e+002,1.713776e+001
5.225218e+002,1.643741e+001
5.234860e+002,1.656017e+001
5.244503e+002,1.611200e+001
5.254145e+002,1.511400e+001
5.263787e+002,1.383876e+001
5.273430e+002,1.153787e+001
5.283072e+002,9.444778e+000
5.292714e+002,9.523224e+000
5.302357e+002,1.330203e+001
5.311999e+002,1.544856e+001
5.321641e+002,1.452789e+001
5.331284e+002,1.299123e+001
5.340926e+002,1.287067e+001
5.350568e+002,1.493472e+001
5.360211e+002,1.677983e+001
5.369853e+002,1.607281e+001
5.379495e+002,1.450926e+001
5.389138e+002,1.319269e+001
5.398780e+002,1.260898e+001
5.408422e+002,1.260292e+001
5.418065e+002,1.305920e+001
5.427707e+002,1.387343e+001
5.437349e+002,1.419580e+001
5.446992e+002,1.363126e+001
5.456634e+002,1.248146e+001
5.466276e+002,1.187509e+001
5.475919e+002,1.268733e+001
5.485561e+002,1.310461e+001
5.495203e+002,1.287183e+001
5.504846e+002,1.215208e+001
5.514488e+002,1.108133e+001
5.524130e+002,9.324066e+000
5.533773e+002,8.407120e+000
5.543415e+002,9.890793e+000
5.553057e+002,1.200710e+001
5.562700e+002,1.265674e+001
5.572342e+002,1.055685e+001
5.581984e+002,7.279892e+000
5.591627e+002,6.962875e+000
5.601269e+002,8.623871e+000
5.610911e+002,1.033322e+001
5.620554e+002,1.108972e+001
5.630196e+002,1.089357e+001
5.639838e+002,1.021358e+001
5.649481e+002,8.072571e+000
5.659123e+002,6.868179e+000
5.668765e+002,8.019043e+000
5.678408e+002,1.064589e+001
5.688050e+002,1.196515e+001
5.697692e+002,1.024515e+001
5.707335e+002,7.994644e+000
5.716977e+002,5.524017e+000
5.726619e+002,3.300293e+000
5.736262e+002,1.912277e+000
5.745904e+002,1.885788e+000
5.755546e+002,2.499847e+000
5.765189e+002,2.336838e+000
5.774831e+002,1.673950e+000
5.784473e+002,1.190643e+000
5.794116e+002,1.407593e+000
5.803758e+002,2.348007e+000
5.813400e+002,3.103455e+000
5.823043e+002,3.518845e+000
5.832685e+002,3.686600e+000
5.842327e+002,3.971283e+000
5.851970e+002,4.336258e+000
5.861612e+002,3.899796e+000
5.871254e+002,7.312622e-001
5.880897e+002,-1.447586e+000
5.890539e+002,-1.558197e+000
5.900181e+002,-3.541260e-001
5.909824e+002,9.700012e-001
5.919466e+002,1.893753e+000
5.929108e+002,2.326828e+000
5.938751e+002,2.004059e+000
5.948393e+002,1.333008e+000
5.958035e+002,1.064758e+000
5.967678e+002,1.753326e+000
5.977320e+002,3.212128e+000
5.986962e+002,3.157379e+000
5.996605e+002,1.301590e+000
6.006247e+002,2.061462e-001
6.015889e+002,1.777206e+000
6.025532e+002,5.738754e+000
6.035174e+002,7.757111e+000
6.044816e+002,5.597076e+000
6.054459e+002,3.776993e+000
6.064101e+002,3.028656e+000
6.073743e+002,3.015808e+000
6.083386e+002,3.027512e+000
6.093028e+002,2.758484e+000
6.102670e+002,2.424591e+000
6.112313e+002,2.331833e+000
6.121955e+002,2.221115e+000
6.131597e+002,1.549942e+000
6.141240e+002,-2.397156e-002
6.150882e+002,-2.025223e+000
6.160524e+002,-1.989853e+000
6.170167e+002,-2.252350e-001
6.179809e+002,1.505173e+000
6.189451e+002,2.358719e+000
6.199094e+002,2.363159e+000
6.208736e+002,2.258865e+000
6.218378e+002,2.188431e+000
6.228021e+002,2.127762e+000
6.237663e+002,1.963211e+000
6.247305e+002,1.882172e+000
6.256948e+002,2.209213e+000
6.266590e+002,3.217972e+000
6.276232e+002,3.933228e+000
6.285875e+002,4.042953e+000
6.295517e+002,3.719315e+000
6.305159e+002,2.923676e+000
6.314802e+002,1.643143e+000
6.324444e+002,1.416016e-001
6.334086e+002,-3.345642e-001
6.343729e+002,-9.573364e-002
6.353371e+002,-6.053925e-001
6.363013e+002,-2.648270e+000
6.372656e+002,-5.543564e+000
6.382298e+002,-6.697769e+000
6.391940e+002,-3.816879e+000
6.401583e+002,-2.223221e+000
6.411225e+002,-2.331665e+000
6.420867e+002,-3.269806e+000
6.430510e+002,-4.164276e+000
6.440152e+002,-4.915405e+000
6.449794e+002,-5.761963e+000
6.459437e+002,-7.569931e+000
6.469079e+002,-9.029953e+000
6.478721e+002,-8.621506e+000
6.488364e+002,-6.034546e+000
6.498006e+002,-2.838074e+000
6.507648e+002,-2.202881e+000
6.517291e+002,-3.174713e+000
6.526933e+002,-3.290604e+000
6.536575e+002,-2.065887e+000
6.546218e+002,-1.483612e-001
6.555860e+002,1.260498e+000
6.565502e+002,2.049072e+000
6.575145e+002,2.342636e+000
6.584787e+002,2.173172e+000
6.594429e+002,1.592880e+000
6.604072e+002,3.278198e-001
6.613714e+002,-1.801437e+000
6.623356e+002,-3.142380e+000
6.632999e+002,-2.616318e+000
6.642641e+002,-1.564240e+000
6.652283e+002,-1.397858e-001
6.661926e+002,1.389130e+000
6.671568e+002,2.533569e+000
6.681210e+002,2.473587e+000
6.690853e+002,1.554581e+000
6.700495e+002,8.319244e-001
6.710137e+002,3.695374e-001
6.719780e+002,4.740906e-001
6.729422e+002,1.599472e+000
6.739064e+002,4.142960e+000
6.748707e+002,4.810852e+000
6.758349e+002,2.127243e+000
6.767991e+002,-2.201538e-001
6.777634e+002,-3.730316e-001
6.787276e+002,1.516388e+000
6.796918e+002,3.444717e+000
6.806561e+002,5.188934e+000
6.816203e+002,5.902496e+000
6.825845e+002,5.024673e+000
6.835488e+002,2.975998e+000
6.845130e+002,3.755188e-002
6.854772e+002,-3.796768e+000
6.864415e+002,-7.031631e+000
6.874057e+002,-6.084442e+000
6.883699e+002,-2.390945e+000
6.893342e+002,1.020554e+000
6.902984e+002,2.533875e+000
6.912626e+002,2.376648e+000
6.922269e+002,1.864059e+000
6.931911e+002,7.827301e-001
6.941553e+002,2.867126e-002
6.951196e+002,-7.949066e-001
6.960838e+002,-1.348175e+000
6.970480e+002,-7.714844e-001
6.980123e+002,1.813461e+000
6.989765e+002,3.923737e+000
6.999407e+002,4.659454e+000
7.009050e+002,4.534393e+000
7.018692e+002,3.600693e+000
7.028334e+002,2.035782e+000
7.037977e+002,4.507599e-001
7.047619e+002,1.477051e-002
7.057261e+002,4.246826e-001
7.066904e+002,8.267822e-001
7.076546e+002,1.081589e+000
7.086188e+002,1.515778e+000
7.095831e+002,2.786758e+000
7.105473e+002,5.749588e+000
7.115115e+002,6.256653e+000
7.124758e+002,2.750809e+000
7.134400e+002,-1.198563e+000
7.144042e+002,-3.542786e+000
7.153685e+002,-4.129730e+000
7.163327e+002,-4.146118e+000
7.172969e+002,-3.790649e+000
7.182612e+002,-3.167999e+000
7.192254e+002,-2.087662e+000
7.201896e+002,-8.515472e-001
7.211539e+002,4.199219e-002
7.221181e+002,1.791077e-001
7.230823e+002,-2.374725e-001
7.240466e+002,-7.426605e-001
7.250108e+002,-1.167984e+000
7.259750e+002,-1.073761e+000
7.269393e+002,-1.701202e-001
7.279035e+002,1.175476e+000
7.288677e+002,1.073334e+000
7.298320e+002,-2.808090e+000
7.307962e+002,-4.617691e+000
7.317604e+002,-2.474777e+000
7.327247e+002,1.394745e+000
7.336889e+002,3.712982e+000
7.346531e+002,3.075104e+000
7.356174e+002,1.972137e+000
7.365816e+002,2.865250e+000
7.375458e+002,3.707657e+000
7.385101e+002,2.087738e+000
7.394743e+002,-2.068451e+000
7.404385e+002,-6.058670e+000
7.414028e+002,-5.421463e+000
7.423670e+002,-1.351364e+000
7.433312e+002,1.118240e+000
7.442955e+002,1.797607e+000
7.452597e+002,1.938187e+000
7.462239e+002,2.987503e+000
7.471882e+002,5.360138e+000
7.481524e+002,6.450989e+000
7.491166e+002,5.387634e+000
7.500809e+002,3.909042e+000
7.510451e+002,2.287521e+000
7.520093e+002,7.543640e-001
7.529736e+002,-2.120972e-003
7.539378e+002,1.465317e+000
7.549020e+002,2.318832e+000
7.558663e+002,-2.131653e-001
7.568306e+002,-4.103775e+000
7.577948e+002,-6.594116e+000
7.587590e+002,-6.092606e+000
7.597233e+002,-3.617081e+000
7.606875e+002,-1.610992e+000
7.616517e+002,5.433655e-002
7.626160e+002,1.537445e+000
7.635802e+002,3.071167e+000
7.645444e+002,4.283173e+000
7.655087e+002,4.093079e+000
7.664729e+002,1.050949e+000
7.674371e+002,-2.024841e-001
7.684014e+002,2.096069e+000
7.693656e+002,4.554840e+000
7.703298e+002,4.705872e+000
7.712941e+002,2.462631e+000
7.722583e+002,4.152985e-001
7.732225e+002,8.784943e-001
7.741868e+002,1.876877e+000
7.751510e+002,1.842361e+000
7.761152e+002,9.902191e-001
7.770795e+002,2.076721e-002
7.780437e+002,-4.738464e-001
7.790079e+002,-5.044861e-001
7.799722e+002,6.241913e-001
7.809364e+002,3.174469e+000
7.819006e+002,4.728363e+000
7.828649e+002,3.551514e+000
7.838291e+002,7.780609e-001
7.847933e+002,2.154694e-001
7.857576e+002,3.956665e+000
7.867218e+002,6.099335e+000
7.876860e+002,4.772202e+000
7.886503e+002,2.546448e+000
7.896145e+002,1.527969e+000
7.905787e+002,2.268234e+000
7.915430e+002,3.571136e+000
7.925072e+002,4.417130e+000
7.934714e+002,4.698288e+000
7.944357e+002,4.235199e+000
7.953999e+002,3.242477e+000
7.963641e+002,2.228928e+000
7.973284e+002,1.686401e+000
7.982926e+002,1.612701e+000
7.992568e+002,2.373810e+000
8.002211e+002,3.986816e+000
8.011853e+002,5.499496e+000
8.021495e+002,7.257065e+000
8.031138e+002,9.095917e+000
8.040780e+002,9.719238e+000
8.050422e+002,7.868134e+000
8.060065e+002,5.953278e+000
8.069707e+002,4.009232e+000
8.079349e+002,2.650116e+000
8.088992e+002,3.066849e+000
8.098634e+002,5.472107e+000
8.108276e+002,7.994232e+000
8.117919e+002,7.428314e+000
8.127561e+002,4.810257e+000
8.137203e+002,2.459335e+000
8.146846e+002,8.233337e-001
8.156488e+002,1.472626e-001
8.166130e+002,7.656097e-001
8.175773e+002,2.979965e+000
8.185415e+002,4.442963e+000
8.195057e+002,4.873230e+000
8.204700e+002,4.827682e+000
8.214342e+002,3.868759e+000
8.223984e+002,2.583145e+000
8.233627e+002,2.678146e+000
8.243269e+002,5.770782e+000
8.252911e+002,8.307251e+000
8.262554e+002,7.807083e+000
8.272196e+002,6.078583e+000
8.281838e+002,4.680847e+000
8.291481e+002,4.333557e+000
8.301123e+002,5.049820e+000
8.310765e+002,7.341690e+000
8.320408e+002,1.077545e+001
8.330050e+002,1.137888e+001
8.339692e+002,8.324066e+000
8.349335e+002,4.462906e+000
8.358977e+002,2.786270e+000
8.368619e+002,3.682983e+000
8.378262e+002,4.432358e+000
8.387904e+002,5.357788e+000
8.397546e+002,5.419586e+000
8.407189e+002,3.132553e+000
8.416831e+002,1.195068e-001
8.426473e+002,-6.172333e-001
8.436116e+002,2.680084e+000
8.445758e+002,6.802475e+000
8.455400e+002,8.446793e+000
8.465043e+002,8.590942e+000
8.474685e+002,8.294968e+000
8.484327e+002,8.013367e+000
8.493970e+002,7.538422e+000
8.503612e+002,6.260818e+000
8.513254e+002,3.784256e+000
8.522897e+002,3.600220e+000
8.532539e+002,7.067368e+000
8.542181e+002,1.056931e+001
8.551824e+002,1.209464e+001
8.561466e+002,1.197586e+001
8.571108e+002,1.187347e+001
8.580751e+002,1.163962e+001
8.590393e+002,1.138757e+001
8.600035e+002,1.114229e+001
8.609678e+002,1.114265e+001
8.619320e+002,1.183647e+001
8.628962e+002,1.330217e+001
8.638605e+002,1.470142e+001
8.648247e+002,1.450592e+001
8.657889e+002,1.334636e+001
8.667532e+002,1.258488e+001
8.677174e+002,1.240033e+001
8.686816e+002,1.253401e+001
8.696459e+002,1.264072e+001
8.706101e+002,1.263988e+001
8.715743e+002,1.385490e+001
8.725386e+002,1.805159e+001
8.735028e+002,2.115804e+001
8.744670e+002,2.158080e+001
8.754313e+002,2.015700e+001
8.763955e+002,1.847702e+001
8.773597e+002,1.687967e+001
8.783240e+002,1.595924e+001
8.792882e+002,1.643141e+001
8.802524e+002,1.735898e+001
8.812167e+002,1.811275e+001
8.821809e+002,1.847629e+001
8.831451e+002,1.838069e+001
8.841094e+002,1.765321e+001
8.850736e+002,1.654143e+001
8.860378e+002,1.762103e+001
8.870021e+002,2.155608e+001
8.879663e+002,2.480257e+001
8.889305e+002,2.489648e+001
8.898948e+002,2.244073e+001
8.908590e+002,2.074490e+001
8.918232e+002,2.033051e+001
8.927875e+002,2.051062e+001
8.937517e+002,2.121968e+001
8.947159e+002,2.231232e+001
8.956802e+002,2.395514e+001
8.966444e+002,2.589891e+001
8.976086e+002,2.712473e+001
8.985729e+002,2.643851e+001
8.995371e+002,2.476917e+001
9.005013e+002,2.315364e+001
9.014656e+002,2.190009e+001
9.024298e+002,2.199384e+001
9.033940e+002,2.426936e+001
9.043583e+002,2.822060e+001
9.053225e+002,3.066016e+001
9.062867e+002,3.040474e+001
9.072510e+002,2.976236e+001
9.082152e+002,2.846741e+001
9.091794e+002,2.731874e+001
9.101437e+002,2.731619e+001
9.111079e+002,2.862012e+001
9.120721e+002,2.955879e+001
9.130364e+002,2.884589e+001
9.140006e+002,2.742421e+001
9.149648e+002,2.530098e+001
9.159291e+002,2.314386e+001
9.168933e+002,2.197586e+001
9.178575e+002,2.243823e+001
9.188218e+002,2.404860e+001
9.197860e+002,2.555347e+001
9.207502e+002,2.692432e+001
9.217145e+002,2.768895e+001
9.226787e+002,2.787408e+001
9.236429e+002,2.762654e+001
9.246072e+002,2.692297e+001
9.255714e+002,2.557149e+001
9.265356e+002,2.419960e+001
9.274999e+002,2.231676e+001
9.284641e+002,2.095758e+001
9.294283e+002,2.095233e+001
9.303926e+002,2.173247e+001
9.313568e+002,2.212070e+001
9.323210e+002,2.145813e+001
9.332853e+002,2.066406e+001
9.342495e+002,2.189539e+001
9.352137e+002,2.383334e+001
9.361780e+002,2.439250e+001
9.371422e+002,2.323544e+001
9.381064e+002,2.141226e+001
9.390707e+002,2.016360e+001
9.400349e+002,1.940292e+001
9.409991e+002,1.881685e+001
9.419634e+002,1.853734e+001
9.429276e+002,1.817055e+001
9.438918e+002,1.695253e+001
9.448561e+002,1.584692e+001
9.458203e+002,1.698087e+001
9.467845e+002,2.157123e+001
9.477488e+002,2.545029e+001
9.487130e+002,2.453209e+001
9.496772e+002,2.222937e+001
9.506415e+002,2.097665e+001
9.516057e+002,2.101140e+001
9.525699e+002,2.131694e+001
9.535342e+002,2.086661e+001
9.544984e+002,1.976414e+001
9.554626e+002,1.943269e+001
9.564269e+002,2.010863e+001
9.573911e+002,2.104526e+001
9.583553e+002,2.241190e+001
9.593196e+002,2.368648e+001
9.602838e+002,2.392426e+001
9.612480e+002,2.282489e+001
9.622123e+002,2.158641e+001
9.631765e+002,2.026631e+001
9.641407e+002,1.925905e+001
9.651050e+002,1.897969e+001
9.660692e+002,1.904750e+001
9.670334e+002,1.860970e+001
9.679977e+002,1.718097e+001
9.689619e+002,1.575050e+001
9.699261e+002,1.688745e+001
9.708904e+002,1.952296e+001
9.718546e+002,2.055040e+001
9.728188e+002,1.888644e+001
9.737831e+002,1.689594e+001
9.747473e+002,1.826956e+001
9.757115e+002,2.409465e+001
9.766758e+002,2.758862e+001
9.776400e+002,2.679942e+001
9.786042e+002,2.627229e+001
9.795685e+002,2.767387e+001
9.805327e+002,2.947301e+001
9.814969e+002,2.949677e+001
9.824612e+002,2.710320e+001
9.834254e+002,2.403897e+001
9.843896e+002,2.117094e+001
9.853539e+002,1.884070e+001
9.863181e+002,1.787378e+001
9.872823e+002,1.795430e+001
9.882466e+002,1.779080e+001
9.892108e+002,1.637704e+001
9.901750e+002,1.423468e+001
9.911393e+002,1.393842e+001
9.921035e+002,1.660948e+001
9.930677e+002,1.866542e+001
9.940320e+002,1.964690e+001
9.949962e+002,2.048378e+001
9.959604e+002,2.229781e+001
9.969247e+002,2.510828e+001
9.978889e+002,2.711673e+001
9.988531e+002,2.643793e+001
9.998174e+002,2.559189e+001
1.000782e+003,2.678725e+001
1.001746e+003,2.882892e+001
1.002710e+003,2.975926e+001
1.003674e+003,2.875841e+001
1.004639e+003,2.672897e+001
1.005603e+003,2.523471e+001
1.006567e+003,2.428439e+001
1.007531e+003,2.343454e+001
1.008495e+003,2.260011e+001
1.009460e+003,2.205104e+001
1.010424e+003,2.189923e+001
1.011388e+003,2.220601e+001
1.012352e+003,2.330869e+001
1.013317e+003,2.614030e+001
1.014281e+003,2.769453e+001
1.015245e+003,2.635760e+001
1.016209e+003,2.420297e+001
1.017174e+003,2.283865e+001
1.018138e+003,2.229503e+001
1.019102e+003,2.133171e+001
1.020066e+003,1.882597e+001
1.021031e+003,1.578589e+001
1.021995e+003,1.548152e+001
1.022959e+003,1.714108e+001
1.023923e+003,1.743361e+001
1.024887e+003,1.487642e+001
1.025852e+003,1.109979e+001
1.026816e+003,8.716995e+000
1.027780e+003,8.080521e+000
1.028744e+003,7.689056e+000
1.029709e+003,7.645126e+000
1.030673e+003,7.521698e+000
1.031637e+003,6.825348e+000
1.032601e+003,6.045837e+000
1.033566e+003,6.135559e+000
1.034530e+003,7.423462e+000
1.035494e+003,8.703049e+000
1.036458e+003,8.450211e+000
1.037422e+003,7.303772e+000
1.038387e+003,6.341949e+000
1.039351e+003,5.585953e+000
1.040315e+003,4.854477e+000
1.041279e+003,4.027939e+000
1.042244e+003,3.248657e+000
1.043208e+003,2.961136e+000
1.044172e+003,3.006516e+000
1.045136e+003,3.689545e+000
1.046101e+003,6.481583e+000
1.047065e+003,8.568283e+000
1.048029e+003,7.346893e+000
1.048993e+003,3.631592e+000
1.049958e+003,9.143982e-001
1.050922e+003,1.060043e+000
1.051886e+003,2.258224e+000
1.052850e+003,2.718796e+000
1.053814e+003,2.896881e+000
1.054779e+003,3.311935e+000
1.055743e+003,4.091919e+000
1.056707e+003,5.216370e+000
1.057671e+003,6.724777e+000
1.058636e+003,8.596451e+000
1.059600e+003,9.479843e+000
1.060564e+003,9.110458e+000
1.061528e+003,8.535233e+000
1.062493e+003,7.314102e+000
1.063457e+003,6.066940e+000
1.064421e+003,5.640366e+000
1.065385e+003,6.167435e+000
1.066349e+003,6.919052e+000
1.067314e+003,7.764038e+000
1.068278e+003,8.455200e+000
1.069242e+003,9.090485e+000
1.070206e+003,9.460114e+000
1.071171e+003,8.924454e+000
1.072135e+003,7.304504e+000
1.073099e+003,5.433868e+000
1.074063e+003,4.845215e+000
1.075028e+003,5.731201e+000
1.075992e+003,6.349030e+000
1.076956e+003,6.758774e+000
1.077920e+003,6.685867e+000
1.078885e+003,5.651566e+000
1.079849e+003,4.373581e+000
1.080813e+003,4.165390e+000
1.081777e+003,5.362244e+000
1.082741e+003,6.830719e+000
1.083706e+003,8.210541e+000
1.084670e+003,9.260651e+000
1.085634e+003,9.935242e+000
1.086598e+003,1.014182e+001
1.087563e+003,9.610367e+000
1.088527e+003,8.318161e+000
1.089491e+003,6.895462e+000
1.090455e+003,6.426392e+000
1.091420e+003,6.940109e+000
1.092384e+003,7.234055e+000
1.093348e+003,7.196564e+000
1.094312e+003,6.966583e+000
1.095276e+003,6.742783e+000
1.096241e+003,6.537582e+000
1.097205e+003,6.123444e+000
1.098169e+003,5.275589e+000
1.099133e+003,4.495361e+000
1.100098e+003,3.989258e+000
1.101062e+003,3.695862e+000
1.102026e+003,3.624710e+000
1.102990e+003,3.747635e+000
1.103955e+003,3.957275e+000
1.104919e+003,4.170258e+000
1.105883e+003,4.526993e+000
1.106847e+003,5.640625e+000
1.107812e+003,7.444504e+000
1.108776e+003,7.533844e+000
1.109740e+003,5.021378e+000
1.110704e+003,2.427155e+000
1.111668e+003,1.538345e+000
1.112633e+003,2.201187e+000
1.113597e+003,3.633438e+000
1.114561e+003,6.362137e+000
1.115525e+003,8.176376e+000
1.116490e+003,8.195282e+000
1.117454e+003,7.408905e+000
1.118418e+003,5.822632e+000
1.119382e+003,4.174515e+000
1.120347e+003,3.685287e+000
1.121311e+003,5.002975e+000
1.122275e+003,7.355591e+000
1.123239e+003,9.905609e+000
1.124203e+003,1.262370e+001
1.125168e+003,1.367474e+001
1.126132e+003,1.264809e+001
1.127096e+003,1.075110e+001
1.128060e+003,7.788681e+000
1.129025e+003,4.402649e+000
1.129989e+003,4.322647e+000
1.130953e+003,9.646057e+000
1.131917e+003,1.394891e+001
1.132882e+003,1.516071e+001
1.133846e+003,1.544502e+001
1.134810e+003,1.565198e+001
1.135774e+003,1.612956e+001
1.136739e+003,1.724690e+001
1.137703e+003,1.917685e+001
1.138667e+003,2.121016e+001
1.139631e+003,2.199078e+001
1.140595e+003,2.166176e+001
1.141560e+003,2.176324e+001
1.142524e+003,2.222403e+001
1.143488e+003,2.398067e+001
1.144452e+003,2.805763e+001
1.145417e+003,3.390903e+001
1.146381e+003,3.968134e+001
1.147345e+003,4.557777e+001
1.148309e+003,5.051721e+001
1.149274e+003,5.293881e+001
1.150238e+003,5.587202e+001
1.151202e+003,6.104831e+001
1.152166e+003,6.800826e+001
1.153130e+003,7.610117e+001
1.154095e+003,8.469498e+001
1.155059e+003,9.209422e+001
1.156023e+003,9.599548e+001
1.156987e+003,9.652808e+001
1.157952e+003,9.597923e+001
1.158916e+003,9.452289e+001
1.159880e+003,9.250948e+001
1.160844e+003,9.039215e+001
1.161809e+003,8.731436e+001
1.162773e+003,8.110091e+001
1.163737e+003,7.069833e+001
1.164701e+003,6.200798e+001
1.165666e+003,5.840637e+001
1.166630e+003,5.502704e+001
1.167594e+003,4.953941e+001
1.168558e+003,4.338510e+001
1.169522e+003,3.860515e+001
1.170487e+003,3.586835e+001
1.171451e+003,3.461586e+001
1.172415e+003,3.442711e+001
1.173379e+003,3.485747e+001
1.174344e+003,3.338731e+001
1.175308e+003,2.990013e+001
1.176272e+003,2.744664e+001
1.177236e+003,2.765837e+001
1.178201e+003,2.895918e+001
1.179165e+003,2.937802e+001
1.180129e+003,2.882381e+001
1.181093e+003,2.772122e+001
1.182057e+003,2.553748e+001
1.183022e+003,2.388551e+001
1.183986e+003,2.408900e+001
1.184950e+003,2.454855e+001
1.185914e+003,2.344318e+001
1.186879e+003,2.092639e+001
1.187843e+003,1.860936e+001
1.188807e+003,1.774980e+001
1.189771e+003,1.815199e+001
1.190736e+003,1.970300e+001
1.191700e+003,2.260272e+001
1.192664e+003,2.427069e+001
1.193628e+003,2.420274e+001
1.194593e+003,2.339375e+001
1.195557e+003,2.229388e+001
1.196521e+003,2.096771e+001
1.197485e+003,1.958803e+001
1.198449e+003,1.795921e+001
1.199414e+003,1.707420e+001
1.200378e+003,1.873349e+001
1.201342e+003,2.007613e+001
1.202306e+003,1.823489e+001
1.203271e+003,1.471439e+001
1.204235e+003,1.340678e+001
1.205199e+003,1.598213e+001
1.206163e+003,1.942535e+001
1.207128e+003,1.847806e+001
1.208092e+003,1.283774e+001
1.209056e+003,9.582626e+000
1.210020e+003,9.669937e+000
1.210984e+003,9.759109e+000
1.211949e+003,9.024658e+000
1.212913e+003,7.655319e+000
1.213877e+003,5.660553e+000
1.214841e+003,3.131683e+000
1.215806e+003,1.199219e+000
1.216770e+003,4.287720e-001
1.217734e+003,1.353149e-001
1.218698e+003,-3.007050e-001
1.219663e+003,-6.643219e-001
1.220627e+003,-3.045959e-001
1.221591e+003,6.067657e-001
1.222555e+003,7.698669e-001
1.223520e+003,-1.051437e+000
1.224484e+003,-4.231689e+000
1.225448e+003,-6.004303e+000
1.226412e+003,-5.788330e+000
1.227376e+003,-5.328064e+000
1.228341e+003,-4.483063e+000
1.229305e+003,-3.641617e+000
1.230269e+003,-2.866669e+000
1.231233e+003,-2.300705e+000
1.232198e+003,-2.150116e+000
1.233162e+003,-2.416718e+000
1.234126e+003,-3.027039e+000
1.235090e+003,-4.194733e+000
1.236055e+003,-5.611679e+000
1.237019e+003,-7.201340e+000
1.237983e+003,-8.746109e+000
1.238947e+003,-9.600098e+000
1.239911e+003,-9.447128e+000
1.240876e+003,-8.620743e+000
1.241840e+003,-7.552902e+000
1.242804e+003,-6.181030e+000
1.243768e+003,-5.585526e+000
1.244733e+003,-7.060913e+000
1.245697e+003,-7.562393e+000
1.246661e+003,-5.901794e+000
1.247625e+003,-4.263870e+000
1.248590e+003,-4.646149e+000
1.249554e+003,-6.375122e+000
1.250518e+003,-7.015228e+000
1.251482e+003,-5.435532e+000
1.252447e+003,-3.602493e+000
1.253411e+003,-3.985107e+000
1.254375e+003,-5.587204e+000
1.255339e+003,-6.650803e+000
1.256303e+003,-6.997223e+000
1.257268e+003,-6.129929e+000
1.258232e+003,-3.479691e+000
1.259196e+003,-1.104279e-001
1.260160e+003,2.139587e+000
1.261125e+003,3.347336e+000
1.262089e+003,3.472198e+000
1.263053e+003,7.959900e-001
1.264017e+003,-1.051834e+000
1.264982e+003,-6.281738e-001
1.265946e+003,6.280365e-001
1.266910e+003,1.521545e+000
1.267874e+003,1.837845e+000
1.268839e+003,1.923599e+000
1.269803e+003,2.014206e+000
1.270767e+003,1.944870e+000
1.271731e+003,1.378448e+000
1.272695e+003,3.526001e-001
1.273660e+003,-8.963165e-001
1.274624e+003,-2.861893e+000
1.275588e+003,-4.174332e+000
1.276552e+003,-3.414200e+000
1.277517e+003,-1.614883e+000
1.278481e+003,-7.346497e-001
1.279445e+003,-9.189758e-001
1.280409e+003,-1.985779e+000
1.281374e+003,-5.310028e+000
1.282338e+003,-7.478821e+000
1.283302e+003,-5.850616e+000
1.284266e+003,-2.799591e+000
1.285230e+003,-8.832703e-001
1.286195e+003,-5.712128e-001
1.287159e+003,-8.313141e-001
1.288123e+003,-7.751617e-001
1.289087e+003,-6.560822e-001
1.290052e+003,-1.493988e+000
1.291016e+003,-3.769867e+000
1.291980e+003,-5.645798e+000
1.292944e+003,-7.497818e+000
1.293909e+003,-8.713715e+000
1.294873e+003,-8.556747e+000
1.295837e+003,-7.740173e+000
1.296801e+003,-7.388489e+000
1.297766e+003,-7.595535e+000
1.298730e+003,-7.243912e+000
1.299694e+003,-5.235367e+000
1.300658e+003,-3.602631e+000
1.301622e+003,-5.581360e+000
1.302587e+003,-8.925980e+000
1.303551e+003,-9.832245e+000
1.304515e+003,-7.754639e+000
1.305479e+003,-5.134552e+000
1.306444e+003,-3.885193e+000
1.307408e+003,-3.791763e+000
1.308372e+003,-4.109161e+000
1.309336e+003,-5.123077e+000
1.310301e+003,-5.680725e+000
1.311265e+003,-5.561676e+000
1.312229e+003,-5.073822e+000
1.313193e+003,-4.034409e+000
1.314157e+003,-2.889038e+000
1.315122e+003,-1.845261e+000
1.316086e+003,-1.164886e+000
1.317050e+003,-1.523651e+000
1.318014e+003,-3.414886e+000
1.318979e+003,-5.671600e+000
1.319943e+003,-6.122696e+000
1.320907e+003,-4.950165e+000
1.321871e+003,-4.499756e+000
1.322836e+003,-5.231720e+000
1.323800e+003,-5.858810e+000
1.324764e+003,-5.486282e+000
1.325728e+003,-4.653336e+000
1.326693e+003,-4.218674e+000
1.327657e+003,-4.262085e+000
1.328621e+003,-5.056015e+000
1.329585e+003,-7.573914e+000
1.330549e+003,-8.686325e+000
1.331514e+003,-5.603989e+000
1.332478e+003,-1.928665e+000
1.333442e+003,-1.461792e+000
1.334406e+003,-3.700150e+000
1.335371e+003,-5.524063e+000
1.336335e+003,-5.043381e+000
1.337299e+003,-3.278641e+000
1.338263e+003,-2.134399e+000
1.339228e+003,-1.578537e+000
1.340192e+003,-1.946503e+000
1.341156e+003,-4.651779e+000
1.342120e+003,-6.162354e+000
1.343084e+003,-5.264496e+000
1.344049e+003,-3.819412e+000
1.345013e+003,-3.293060e+000
1.345977e+003,-3.419495e+000
1.346941e+003,-2.986115e+000
1.347906e+003,-1.512573e+000
1.348870e+003,-2.972107e-001
1.349834e+003,-9.825745e-001
1.350798e+003,-2.444458e+000
1.351763e+003,-1.866760e+000
1.352727e+003,2.595367e-001
1.353691e+003,5.908356e-001
1.354655e+003,-2.499573e+000
1.355620e+003,-6.243393e+000
1.356584e+003,-7.018356e+000
1.357548e+003,-5.221313e+000
1.358512e+003,-4.965927e+000
1.359476e+003,-7.519165e+000
1.360441e+003,-8.981918e+000
1.361405e+003,-7.636642e+000
1.362369e+003,-5.698318e+000
1.363333e+003,-3.302063e+000
1.364298e+003,-1.424820e+000
1.365262e+003,-1.945282e+000
1.366226e+003,-4.688095e+000
1.367190e+003,-6.602814e+000
1.368155e+003,-4.911743e+000
1.369119e+003,-1.199265e+000
1.370083e+003,-6.164703e-001
1.371047e+003,-4.465103e+000
1.372011e+003,-5.519745e+000
1.372976e+003,-1.184189e+000
1.373940e+003,2.154343e+000
1.374904e+003,1.383942e+000
1.375868e+003,-1.062714e+000
1.376833e+003,-2.243073e+000
1.377797e+003,-1.987732e+000
1.378761e+003,-1.579788e+000
1.379725e+003,-1.456055e+000
1.380690e+003,-1.555862e+000
1.381654e+003,-1.997955e+000
1.382618e+003,-2.492996e+000
1.383582e+003,-2.876816e+000
1.384547e+003,-3.023819e+000
1.385511e+003,-2.142654e+000
1.386475e+003,4.154663e-001
1.387439e+003,3.137451e+000
1.388403e+003,3.538239e+000
1.389368e+003,1.613876e+000
1.390332e+003,-4.045105e-002
1.391296e+003,-1.326096e+000
1.392260e+003,-2.243698e+000
1.393225e+003,-3.180618e+000
1.394189e+003,-3.465958e+000
1.395153e+003,-1.773468e+000
1.396117e+003,4.283295e-001
1.397082e+003,5.439301e-001
1.398046e+003,-1.722046e+000
1.399010e+003,-3.946106e+000
1.399974e+003,-3.962982e+000
1.400938e+003,-2.479996e+000
1.401903e+003,-1.343445e+000
1.402867e+003,-3.344574e-001
1.403831e+003,5.527649e-001
1.404795e+003,1.330475e+000
1.405760e+003,1.721161e+000
1.406724e+003,1.399353e+000
1.407688e+003,4.442291e-001
1.408652e+003,-1.336517e+000
1.409617e+003,-3.465424e+000
1.410581e+003,-4.168030e+000
1.411545e+003,-2.530548e+000
1.412509e+003,-5.008698e-001
1.413474e+003,-1.200409e-001
1.414438e+003,-6.275024e-001
1.415402e+003,-4.725189e-001
1.416366e+003,3.330383e-001
1.417330e+003,9.443970e-001
1.418295e+003,1.048126e+000
1.419259e+003,8.115997e-001
1.420223e+003,1.662598e-001
1.421187e+003,-8.204651e-001
1.422152e+003,-1.164322e+000
1.423116e+003,-3.565369e-001
1.424080e+003,-1.389008e-001
1.425044e+003,-1.843155e+000
1.426009e+003,-3.526825e+000
1.426973e+003,-4.872269e+000
1.427937e+003,-5.466629e+000
1.428901e+003,-4.503830e+000
1.429865e+003,-2.209885e+000
1.430830e+003,3.573761e-001
1.431794e+003,2.424561e+000
1.432758e+003,3.701050e+000
1.433722e+003,3.653732e+000
1.434687e+003,2.284576e+000
1.435651e+003,1.657364e+000
1.436615e+003,2.074081e+000
1.437579e+003,2.052628e+000
1.438544e+003,3.816833e-001
1.439508e+003,-5.594025e-001
1.440472e+003,2.009827e+000
1.441436e+003,6.186707e+000
1.442401e+003,7.969147e+000
1.443365e+003,6.516998e+000
1.444329e+003,4.559784e+000
1.445293e+003,4.118851e+000
1.446257e+003,4.414612e+000
1.447222e+003,3.717590e+000
1.448186e+003,2.319168e+000
1.449150e+003,2.105011e+000
1.450114e+003,3.511398e+000
1.451079e+003,4.814697e+000
1.452043e+003,5.210907e+000
1.453007e+003,5.111115e+000
1.453971e+003,4.987045e+000
1.454936e+003,4.774368e+000
1.455900e+003,4.144577e+000
1.456864e+003,2.874573e+000
1.457828e+003,1.945084e+000
1.458792e+003,2.405243e+000
1.459757e+003,2.857651e+000
1.460721e+003,1.540466e+000
1.461685e+003,-4.928131e-001
1.462649e+003,-7.323456e-001
1.463614e+003,1.356277e+000
1.464578e+003,3.660507e+000
1.465542e+003,4.363388e+000
1.466506e+003,3.680237e+000
1.467471e+003,2.087387e+000
1.468435e+003,-7.048950e-001
1.469399e+003,-2.353882e+000
1.470363e+003,-2.354950e+000
1.471328e+003,-1.934052e+000
1.472292e+003,-1.419815e+000
1.473256e+003,-7.461395e-001
1.474220e+003,7.214966e-001
1.475184e+003,2.444931e+000
1.476149e+003,3.069687e+000
1.477113e+003,2.295120e+000
1.478077e+003,1.559265e+000
1.479041e+003,2.362991e+000
1.480006e+003,4.192764e+000
1.480970e+003,5.101944e+000
1.481934e+003,4.718536e+000
1.482898e+003,4.456863e+000
1.483863e+003,4.586319e+000
1.484827e+003,4.402634e+000
1.485791e+003,3.082840e+000
1.486755e+003,2.101883e+000
1.487719e+003,3.100586e+000
1.488684e+003,5.441269e+000
1.489648e+003,7.147400e+000
1.490612e+003,7.674072e+000
1.491576e+003,8.649612e+000
1.492541e+003,1.168839e+001
1.493505e+003,1.542894e+001
1.494469e+003,1.673410e+001
1.495433e+003,1.587300e+001
1.496398e+003,1.489130e+001
1.497362e+003,1.404695e+001
1.498326e+003,1.359846e+001
1.499290e+003,1.335065e+001
1.500255e+003,1.377170e+001
1.501219e+003,1.576817e+001
1.502183e+003,1.905865e+001
1.503147e+003,2.203125e+001
1.504111e+003,2.416466e+001
1.505076e+003,2.687460e+001
1.506040e+003,3.148709e+001
1.507004e+003,3.657201e+001
1.507968e+003,4.043674e+001
1.508933e+003,4.375023e+001
1.509897e+003,4.777103e+001
1.510861e+003,5.294064e+001
1.511825e+003,5.950162e+001
1.512790e+003,6.796637e+001
1.513754e+003,7.694380e+001
1.514718e+003,8.342310e+001
1.515682e+003,8.732666e+001
1.516646e+003,9.339600e+001
1.517611e+003,1.034936e+002
1.518575e+003,1.124483e+002
1.519539e+003,1.187539e+002
1.520503e+003,1.236070e+002
1.521468e+003,1.270758e+002
1.522432e+003,1.296380e+002
1.523396e+003,1.323671e+002
1.524360e+003,1.349344e+002
1.525325e+003,1.354799e+002
1.526289e+003,1.327968e+002
1.527253e+003,1.280363e+002
1.528217e+003,1.232072e+002
1.529182e+003,1.184164e+002
1.530146e+003,1.123090e+002
1.531110e+003,1.041487e+002
1.532074e+003,9.578131e+001
1.533039e+003,8.699759e+001
1.534003e+003,7.798862e+001
1.534967e+003,6.859021e+001
1.535931e+003,5.963023e+001
1.536896e+003,5.241695e+001
1.537860e+003,4.651961e+001
1.538824e+003,3.960562e+001
1.539788e+003,3.060535e+001
1.540752e+003,2.220761e+001
1.541717e+003,1.803200e+001
1.542681e+003,1.756946e+001
1.543645e+003,1.706259e+001
1.544609e+003,1.671390e+001
1.545573e+003,1.606364e+001
1.546538e+003,1.442671e+001
1.547502e+003,1.308040e+001
1.548466e+003,1.293494e+001
1.549430e+003,1.321266e+001
1.550395e+003,1.295195e+001
1.551359e+003,1.224939e+001
1.552323e+003,1.177599e+001
1.553287e+003,1.178723e+001
1.554252e+003,1.215231e+001
1.555216e+003,1.287294e+001
1.556180e+003,1.350137e+001
1.557144e+003,1.286124e+001
1.558109e+003,1.094130e+001
1.559073e+003,9.447495e+000
1.560037e+003,8.560623e+000
1.561001e+003,7.443634e+000
1.561966e+003,5.616104e+000
1.562930e+003,3.918671e+000
1.563894e+003,2.574905e+000
1.564858e+003,1.966324e+000
1.565823e+003,3.647003e+000
1.566787e+003,7.667145e+000
1.567751e+003,1.040167e+001
1.568715e+003,9.593536e+000
1.569679e+003,7.480164e+000
1.570644e+003,6.646530e+000
1.571608e+003,6.651413e+000
1.572572e+003,6.323502e+000
1.573536e+003,5.694077e+000
1.574500e+003,5.341919e+000
1.575465e+003,5.501602e+000
1.576429e+003,5.834457e+000
1.577393e+003,6.027939e+000
1.578357e+003,6.153900e+000
1.579322e+003,6.483490e+000
1.580286e+003,7.041367e+000
1.581250e+003,7.540115e+000
1.582214e+003,7.948349e+000
1.583179e+003,8.008698e+000
1.584143e+003,6.844070e+000
1.585107e+003,5.759598e+000
1.586071e+003,7.188385e+000
1.587036e+003,1.029431e+001
1.588000e+003,1.201530e+001
1.588964e+003,1.157681e+001
1.589928e+003,1.052716e+001
1.590893e+003,9.606552e+000
1.591857e+003,8.956360e+000
1.592821e+003,8.885818e+000
1.593785e+003,9.329910e+000
1.594750e+003,9.812363e+000
1.595714e+003,1.024136e+001
1.596678e+003,1.060103e+001
1.597642e+003,1.083311e+001
1.598606e+003,1.110042e+001
1.599571e+003,1.181682e+001
1.600535e+003,1.254636e+001
1.601499e+003,1.259805e+001
1.602463e+003,1.200626e+001
1.603427e+003,1.130591e+001
1.604392e+003,1.068822e+001
1.605356e+003,1.026555e+001
1.606320e+003,1.012607e+001
1.607284e+003,1.028281e+001
1.608249e+003,1.093721e+001
1.609213e+003,1.212126e+001
1.610177e+003,1.273621e+001
1.611141e+003,1.261740e+001
1.612106e+003,1.188551e+001
1.613070e+003,9.450134e+000
1.614034e+003,7.470261e+000
1.614998e+003,8.014771e+000
1.615963e+003,9.918671e+000
1.616927e+003,1.112358e+001
1.617891e+003,1.131834e+001
1.618855e+003,1.144026e+001
1.619820e+003,1.200128e+001
1.620784e+003,1.261882e+001
1.621748e+003,1.309691e+001
1.622712e+003,1.348875e+001
1.623677e+003,1.299713e+001
1.624641e+003,1.138060e+001
1.625605e+003,1.037260e+001
1.626569e+003,1.033272e+001
1.627533e+003,1.044893e+001
1.628498e+003,1.066670e+001
1.629462e+003,1.080400e+001
1.630426e+003,1.047037e+001
1.631390e+003,9.937592e+000
1.632354e+003,9.950073e+000
1.633319e+003,1.060081e+001
1.634283e+003,1.103661e+001
1.635247e+003,1.056514e+001
1.636211e+003,9.645493e+000
1.637176e+003,9.025818e+000
1.638140e+003,8.766830e+000
1.639104e+003,9.224075e+000
1.640068e+003,1.066397e+001
1.641033e+003,1.164711e+001
1.641997e+003,1.177400e+001
1.642961e+003,1.153174e+001
1.643925e+003,1.102304e+001
1.644890e+003,1.039938e+001
1.645854e+003,9.617371e+000
1.646818e+003,8.845749e+000
1.647782e+003,8.409164e+000
1.648747e+003,8.420929e+000
1.649711e+003,9.052841e+000
1.650675e+003,1.070531e+001
1.651639e+003,1.270009e+001
1.652604e+003,1.371767e+001
1.653568e+003,1.369136e+001
1.654532e+003,1.161644e+001
1.655496e+003,6.188904e+000
1.656460e+003,3.313980e+000
1.657425e+003,6.900314e+000
1.658389e+003,1.050446e+001
1.659353e+003,9.812775e+000
1.660317e+003,7.968063e+000
1.661281e+003,8.830002e+000
1.662246e+003,1.153426e+001
1.663210e+003,1.249182e+001
1.664174e+003,1.061879e+001
1.665138e+003,8.456833e+000
1.666103e+003,8.191666e+000
1.667067e+003,8.816360e+000
1.668031e+003,8.156219e+000
1.668995e+003,6.377136e+000
1.669960e+003,5.693939e+000
1.670924e+003,6.628662e+000
1.671888e+003,7.167328e+000
1.672852e+003,5.941116e+000
1.673817e+003,5.171158e+000
1.674781e+003,7.117233e+000
1.675745e+003,9.576553e+000
1.676709e+003,1.013840e+001
1.677674e+003,9.019394e+000
1.678638e+003,7.252182e+000
1.679602e+003,5.188385e+000
1.680566e+003,3.891968e+000
1.681531e+003,4.631409e+000
1.682495e+003,6.157654e+000
1.683459e+003,6.108170e+000
1.684423e+003,4.702911e+000
1.685387e+003,3.628906e+000
1.686352e+003,3.031876e+000
1.687316e+003,3.112503e+000
1.688280e+003,4.334564e+000
1.689244e+003,5.487595e+000
1.690208e+003,5.633621e+000
1.691173e+003,5.199738e+000
1.692137e+003,4.390427e+000
1.693101e+003,3.502838e+000
1.694065e+003,3.211166e+000
1.695030e+003,3.611420e+000
1.695994e+003,4.139969e+000
1.696958e+003,4.865707e+000
1.697922e+003,5.137634e+000
1.698887e+003,3.440903e+000
1.699851e+003,7.565308e-001
1.700815e+003,4.613190e-001
1.701779e+003,2.720001e+000
1.702744e+003,3.675430e+000
1.703708e+003,1.728638e+000
1.704672e+003,3.302612e-001
1.705636e+003,2.436203e+000
1.706601e+003,5.726868e+000
1.707565e+003,7.258011e+000
1.708529e+003,7.281158e+000
1.709493e+003,5.816696e+000
1.710458e+003,2.586838e+000
1.711422e+003,3.949432e-001
1.712386e+003,1.366898e+000
1.713350e+003,2.750214e+000
1.714314e+003,1.707199e+000
1.715279e+003,-1.781311e-001
1.716243e+003,3.417816e-001
1.717207e+003,2.818939e+000
1.718171e+003,3.757996e+000
1.719135e+003,2.217010e+000
1.720100e+003,5.488739e-001
1.721064e+003,2.071381e-001
1.722028e+003,6.882019e-001
1.722992e+003,1.658997e+000
1.723957e+003,2.975967e+000
1.724921e+003,3.132416e+000
1.725885e+003,1.742538e+000
1.726849e+003,7.060547e-001
1.727814e+003,4.892120e-001
1.728778e+003,7.862701e-001
1.729742e+003,1.843887e+000
1.730706e+003,2.950180e+000
1.731671e+003,3.692657e+000
1.732635e+003,3.658966e+000
1.733599e+003,1.804611e+000
1.734563e+003,-1.462585e+000
1.735528e+003,-3.773865e+000
1.736492e+003,-3.927963e+000
1.737456e+003,-2.371658e+000
1.738420e+003,6.642303e-001
1.739385e+003,4.270813e+000
1.740349e+003,5.291168e+000
1.741313e+003,3.259552e+000
1.742277e+003,1.345612e+000
1.743241e+003,-6.309204e-001
1.744206e+003,-2.066101e+000
1.745170e+003,-2.995346e+000
1.746134e+003,-3.332352e+000
1.747098e+003,-2.525421e+000
1.748063e+003,-1.492508e+000
1.749027e+003,-1.244553e+000
1.749991e+003,-1.703186e+000
1.750955e+003,-2.415314e+000
1.751919e+003,-3.140121e+000
1.752884e+003,-3.603775e+000
1.753848e+003,-3.574738e+000
1.754812e+003,-3.281448e+000
1.755776e+003,-3.171310e+000
1.756741e+003,-3.139587e+000
1.757705e+003,-2.190079e+000
1.758669e+003,3.440857e-001
1.759633e+003,1.576767e+000
1.760598e+003,-1.104584e-001
1.761562e+003,-1.362122e+000
1.762526e+003,-6.416931e-001
1.763490e+003,4.600372e-001
1.764455e+003,1.195847e+000
1.765419e+003,1.383728e+000
1.766383e+003,6.113281e-001
1.767347e+003,-9.737854e-001
1.768312e+003,-2.543716e+000
1.769276e+003,-3.747070e+000
1.770240e+003,-4.483765e+000
1.771204e+003,-4.470032e+000
1.772168e+003,-3.826019e+000
1.773133e+003,-2.827194e+000
1.774097e+003,-1.556732e+000
1.775061e+003,-9.355774e-001
1.776025e+003,-1.249832e+000
1.776990e+003,-1.398560e+000
1.777954e+003,-7.089386e-001
1.778918e+003,-1.718750e-001
1.779882e+003,-1.180878e+000
1.780846e+003,-2.359818e+000
1.781811e+003,-1.049515e+000
1.782775e+003,1.731400e+000
1.783739e+003,2.223007e+000
1.784703e+003,-2.832336e-001
1.785668e+003,-2.494736e+000
1.786632e+003,-3.248856e+000
1.787596e+003,-3.273987e+000
1.788560e+003,-2.704025e+000
1.789525e+003,-1.768005e+000
1.790489e+003,-7.699432e-001
1.791453e+003,1.264496e-001
1.792417e+003,7.459869e-001
1.793382e+003,1.032593e+000
1.794346e+003,7.607269e-001
1.795310e+003,-2.504272e-001
1.796274e+003,-1.303207e+000
1.797239e+003,-1.523438e+000
1.798203e+003,-1.052856e+000
1.799167e+003,-6.308746e-001
1.800131e+003,-3.610687e-001
1.801095e+003,-7.778168e-001
1.802060e+003,-2.483765e+000
1.803024e+003,-3.483185e+000
1.803988e+003,-3.298035e+000
1.804952e+003,-2.857025e+000
1.805917e+003,-2.410446e+000
1.806881e+003,-2.083817e+000
1.807845e+003,-2.048645e+000
1.808809e+003,-2.114441e+000
1.809773e+003,-1.823807e+000
1.810738e+003,-1.194016e+000
1.811702e+003,-8.567200e-001
1.812666e+003,-1.207870e+000
1.813630e+003,-1.849319e+000
1.814595e+003,-2.280106e+000
1.815559e+003,-2.530838e+000
1.816523e+003,-2.559586e+000
1.817487e+003,-2.310608e+000
1.818452e+003,-2.237076e+000
1.819416e+003,-2.375961e+000
1.820380e+003,-2.395615e+000
1.821344e+003,-2.334457e+000
1.822309e+003,-2.132889e+000
1.823273e+003,-1.558533e+000
1.824237e+003,-8.572540e-001
1.825201e+003,2.442932e-002
1.826166e+003,6.809692e-001
1.827130e+003,-2.514648e-001
1.828094e+003,-2.949570e+000
1.829058e+003,-4.565735e+000
1.830022e+003,-3.199982e+000
1.830987e+003,-1.387482e+000
1.831951e+003,-1.180740e+000
1.832915e+003,-1.828888e+000
1.833879e+003,-2.600571e+000
1.834844e+003,-3.226349e+000
1.835808e+003,-3.101013e+000
1.836772e+003,-2.132690e+000
1.837736e+003,-1.785889e-001
1.838700e+003,2.868134e+000
1.839665e+003,4.475967e+000
1.840629e+003,1.986130e+000
1.841593e+003,-2.358307e+000
1.842557e+003,-3.867432e+000
1.843522e+003,-2.581451e+000
1.844486e+003,-1.294220e+000
1.845450e+003,6.510315e-001
1.846414e+003,1.503326e+000
1.847379e+003,2.156219e-001
1.848343e+003,-1.020355e+000
1.849307e+003,-1.771133e+000
1.850271e+003,-1.941879e+000
1.851236e+003,-1.027115e+000
1.852200e+003,2.819824e-001
1.853164e+003,1.047882e+000
1.854128e+003,1.119446e+000
1.855093e+003,7.544403e-001
1.856057e+003,1.935425e-001
1.857021e+003,-2.237396e-001
1.857985e+003,-2.526398e-001
1.858949e+003,-1.030273e-001
1.859914e+003,-1.809692e-001
1.860878e+003,-3.616333e-001
1.861842e+003,2.463074e-001
1.862806e+003,1.661423e+000
1.863771e+003,1.220901e+000
1.864735e+003,-2.256027e+000
1.865699e+003,-4.270309e+000
1.866663e+003,-2.143875e+000
1.867627e+003,8.112335e-001
1.868592e+003,1.777176e+000
1.869556e+003,1.407013e+000
1.870520e+003,1.024384e+000
1.871484e+003,6.012115e-001
1.872449e+003,-1.109009e-001
1.873413e+003,-1.179779e+000
1.874377e+003,-1.365662e+000
1.875341e+003,2.282715e-002
1.876306e+003,1.498459e+000
1.877270e+003,2.588806e+000
1.878234e+003,3.044907e+000
1.879198e+003,2.314148e+000
1.880163e+003,9.922485e-001
1.881127e+003,-1.635437e-001
1.882091e+003,-7.802277e-001
1.883055e+003,-9.539795e-002
1.884020e+003,2.002670e+000
1.884984e+003,3.845322e+000
1.885948e+003,3.916382e+000
1.886912e+003,2.855469e+000
1.887876e+003,1.818024e+000
1.888841e+003,8.657684e-001
1.889805e+003,8.241272e-001
1.890769e+003,1.953918e+000
1.891733e+003,2.592941e+000
1.892698e+003,2.480713e+000
1.893662e+003,1.910172e+000
1.894626e+003,2.626953e-001
1.895590e+003,-8.031769e-001
1.896554e+003,4.382782e-001
1.897519e+003,2.545288e+000
1.898483e+003,3.833237e+000
1.899447e+003,4.332733e+000
1.900411e+003,4.716049e+000
1.901376e+003,5.130829e+000
1.902340e+003,5.249359e+000
1.903304e+003,4.940933e+000
1.904268e+003,4.284363e+000
1.905233e+003,3.232285e+000
1.906197e+003,2.016098e+000
1.907161e+003,1.456451e-001
1.908125e+003,-1.306976e+000
1.909090e+003,3.037567e-001
1.910054e+003,4.092621e+000
1.911018e+003,5.856644e+000
1.911982e+003,4.460114e+000
1.912947e+003,3.022278e+000
1.913911e+003,3.809830e+000
1.914875e+003,5.387466e+000
1.915839e+003,5.460861e+000
1.916803e+003,4.320618e+000
1.917768e+003,3.880890e+000
1.918732e+003,4.401154e+000
1.919696e+003,4.233444e+000
1.920660e+003,2.936127e+000
1.921625e+003,2.348892e+000
1.922589e+003,3.389084e+000
1.923553e+003,4.228195e+000
1.924517e+003,3.522003e+000
1.925481e+003,2.566483e+000
1.926446e+003,2.454086e+000
1.927410e+003,2.942215e+000
1.928374e+003,3.657745e+000
1.929338e+003,4.452759e+000
1.930303e+003,4.699448e+000
1.931267e+003,4.074158e+000
1.932231e+003,3.875504e+000
1.933195e+003,5.285141e+000
1.934160e+003,6.421417e+000
1.935124e+003,5.605103e+000
1.936088e+003,3.942200e+000
1.937052e+003,2.465179e+000
1.938017e+003,1.569321e+000
1.938981e+003,2.137756e+000
1.939945e+003,3.761002e+000
1.940909e+003,4.108871e+000
1.941874e+003,2.282013e+000
1.942838e+003,7.301636e-001
1.943802e+003,1.868378e+000
1.944766e+003,4.267807e+000
1.945730e+003,4.816574e+000
1.946695e+003,3.723297e+000
1.947659e+003,3.258759e+000
1.948623e+003,3.477478e+000
1.949587e+003,3.319489e+000
1.950552e+003,2.478195e+000
1.951516e+003,2.355621e+000
1.952480e+003,3.894104e+000
1.953444e+003,5.206314e+000
1.954408e+003,4.700897e+000
1.955373e+003,3.413055e+000
1.956337e+003,2.772568e+000
1.957301e+003,2.752029e+000
1.958265e+003,2.980362e+000
1.959230e+003,3.496765e+000
1.960194e+003,3.966278e+000
1.961158e+003,4.341568e+000
1.962122e+003,4.372101e+000
1.963087e+003,3.609451e+000
1.964051e+003,2.998505e+000
1.965015e+003,3.259338e+000
1.965979e+003,3.937881e+000
1.966944e+003,4.676559e+000
1.967908e+003,5.228790e+000
1.968872e+003,5.242142e+000
1.969836e+003,4.855759e+000
1.970801e+003,4.647018e+000
1.971765e+003,4.886749e+000
1.972729e+003,5.563171e+000
1.973693e+003,6.786865e+000
1.974657e+003,8.050186e+000
1.975622e+003,8.548523e+000
1.976586e+003,8.444153e+000
1.977550e+003,8.021759e+000
1.978514e+003,7.500870e+000
1.979479e+003,8.238998e+000
1.980443e+003,1.025851e+001
1.981407e+003,1.060005e+001
1.982371e+003,8.088684e+000
1.983335e+003,5.956558e+000
1.984300e+003,6.697739e+000
1.985264e+003,8.500992e+000
1.986228e+003,8.685242e+000
1.987192e+003,7.496017e+000
1.988157e+003,6.130280e+000
1.989121e+003,4.358704e+000
1.990085e+003,3.865799e+000
1.991049e+003,5.621964e+000
1.992014e+003,6.793701e+000
1.992978e+003,6.533508e+000
1.993942e+003,6.246399e+000
1.994906e+003,6.163925e+000
1.995871e+003,6.478912e+000
1.996835e+003,7.899292e+000
1.997799e+003,9.526581e+000
1.998763e+003,9.959564e+000
1.999728e+003,9.267700e+000
