5.003444e+002,1.932692e+002
5.013087e+002,1.934900e+002
5.022729e+002,1.925616e+002
5.032371e+002,1.911674e+002
5.042014e+002,1.886635e+002
5.051656e+002,1.854341e+002
5.061298e+002,1.825355e+002
5.070941e+002,1.808046e+002
5.080583e+002,1.801774e+002
5.090225e+002,1.784730e+002
5.099868e+002,1.746091e+002
5.109510e+002,1.710698e+002
5.119152e+002,1.697867e+002
5.128795e+002,1.711001e+002
5.138437e+002,1.710056e+002
5.148079e+002,1.644393e+002
5.157722e+002,1.599023e+002
5.167364e+002,1.636963e+002
5.177006e+002,1.743262e+002
5.186649e+002,1.824592e+002
5.196291e+002,1.739067e+002
5.205933e+002,1.597527e+002
5.215576e+002,1.513840e+002
5.225218e+002,1.492971e+002
5.234860e+002,1.494379e+002
5.244503e+002,1.452086e+002
5.254145e+002,1.357234e+002
5.263787e+002,1.302415e+002
5.273430e+002,1.303090e+002
5.283072e+002,1.332759e+002
5.292714e+002,1.355432e+002
5.302357e+002,1.362936e+002
5.311999e+002,1.352336e+002
5.321641e+002,1.328699e+002
5.331284e+002,1.305106e+002
5.340926e+002,1.289501e+002
5.350568e+002,1.281500e+002
5.360211e+002,1.262729e+002
5.369853e+002,1.223766e+002
5.379495e+002,1.179185e+002
5.389138e+002,1.131461e+002
5.398780e+002,1.083049e+002
5.408422e+002,1.040691e+002
5.418065e+002,1.034635e+002
5.427707e+002,1.058557e+002
5.437349e+002,1.067380e+002
5.446992e+002,1.044646e+002
5.456634e+002,9.995337e+001
5.466276e+002,9.670081e+001
5.475919e+002,9.536279e+001
5.485561e+002,9.551941e+001
5.495203e+002,9.869421e+001
5.504846e+002,1.022075e+002
5.514488e+002,1.020199e+002
5.524130e+002,9.508606e+001
5.533773e+002,8.933374e+001
5.543415e+002,9.018750e+001
5.553057e+002,9.338696e+001
5.562700e+002,9.435242e+001
5.572342e+002,9.018518e+001
5.581984e+002,8.300476e+001
5.591627e+002,7.783398e+001
5.601269e+002,7.465417e+001
5.610911e+002,7.321167e+001
5.620554e+002,7.331494e+001
5.630196e+002,7.433875e+001
5.639838e+002,7.318604e+001
5.649481e+002,6.770093e+001
5.659123e+002,6.327698e+001
5.668765e+002,6.225061e+001
5.678408e+002,6.398230e+001
5.688050e+002,6.553943e+001
5.697692e+002,6.560608e+001
5.707335e+002,6.370935e+001
5.716977e+002,5.913696e+001
5.726619e+002,5.348096e+001
5.736262e+002,4.842932e+001
5.745904e+002,4.502344e+001
5.755546e+002,4.393835e+001
5.765189e+002,4.617908e+001
5.774831e+002,4.971814e+001
5.784473e+002,5.199353e+001
5.794116e+002,5.157153e+001
5.803758e+002,4.914575e+001
5.813400e+002,4.697510e+001
5.823043e+002,4.378125e+001
5.832685e+002,4.097998e+001
5.842327e+002,3.993408e+001
5.851970e+002,4.087549e+001
5.861612e+002,4.221106e+001
5.871254e+002,4.370239e+001
5.880897e+002,4.450146e+001
5.890539e+002,4.413806e+001
5.900181e+002,4.261145e+001
5.909824e+002,3.993079e+001
5.919466e+002,3.575964e+001
5.929108e+002,3.203198e+001
5.938751e+002,3.047498e+001
5.948393e+002,3.047058e+001
5.958035e+002,3.128796e+001
5.967678e+002,3.248499e+001
5.977320e+002,3.432446e+001
5.986962e+002,3.705969e+001
5.996605e+002,4.003088e+001
6.006247e+002,4.179602e+001
6.015889e+002,4.133276e+001
6.025532e+002,3.890283e+001
6.035174e+002,3.714465e+001
6.044816e+002,3.662500e+001
6.054459e+002,3.654407e+001
6.064101e+002,3.810706e+001
6.073743e+002,3.974780e+001
6.083386e+002,3.844336e+001
6.093028e+002,3.120923e+001
6.102670e+002,2.404773e+001
6.112313e+002,2.119958e+001
6.121955e+002,2.113342e+001
6.131597e+002,2.186548e+001
6.141240e+002,2.201367e+001
6.150882e+002,2.188879e+001
6.160524e+002,2.368176e+001
6.170167e+002,2.737598e+001
6.179809e+002,3.149634e+001
6.189451e+002,3.578601e+001
6.199094e+002,3.941370e+001
6.208736e+002,3.864368e+001
6.218378e+002,2.826855e+001
6.228021e+002,2.077490e+001
6.237663e+002,1.883850e+001
6.247305e+002,2.025037e+001
6.256948e+002,2.075122e+001
6.266590e+002,1.709827e+001
6.276232e+002,1.458850e+001
6.285875e+002,1.916687e+001
6.295517e+002,2.591614e+001
6.305159e+002,2.882898e+001
6.314802e+002,2.463879e+001
6.324444e+002,1.653613e+001
6.334086e+002,1.523877e+001
6.343729e+002,1.887561e+001
6.353371e+002,2.076489e+001
6.363013e+002,1.812219e+001
6.372656e+002,1.210742e+001
6.382298e+002,7.442627e+000
6.391940e+002,4.305420e+000
6.401583e+002,2.164307e+000
6.411225e+002,3.026123e+000
6.420867e+002,5.306274e+000
6.430510e+002,6.380127e+000
6.440152e+002,4.434326e+000
6.449794e+002,2.612671e+000
6.459437e+002,3.305054e+000
6.469079e+002,4.333252e+000
6.478721e+002,4.528320e+000
6.488364e+002,3.462646e+000
6.498006e+002,1.265137e+000
6.507648e+002,-3.504395e+000
6.517291e+002,-9.584595e+000
6.526933e+002,-1.297852e+001
6.536575e+002,-1.289587e+001
6.546218e+002,-1.084082e+001
6.555860e+002,-9.745605e+000
6.565502e+002,-1.110596e+001
6.575145e+002,-1.009497e+001
6.584787e+002,-4.015503e+000
6.594429e+002,2.092285e+000
6.604072e+002,3.793457e+000
6.613714e+002,8.911133e-002
6.623356e+002,-3.478394e+000
6.632999e+002,-5.540527e+000
6.642641e+002,-6.642578e+000
6.652283e+002,-5.678711e+000
6.661926e+002,-2.934082e+000
6.671568e+002,4.870605e-002
6.681210e+002,1.121582e+000
6.690853e+002,2.764893e-001
6.700495e+002,-1.689331e+000
6.710137e+002,-4.555298e+000
6.719780e+002,-6.481323e+000
6.729422e+002,-5.379639e+000
6.739064e+002,-5.477295e-001
6.748707e+002,1.407227e+000
6.758349e+002,-1.480469e+000
6.767991e+002,-4.375854e+000
6.777634e+002,-4.316162e+000
6.787276e+002,-1.270508e+000
6.796918e+002,1.402832e+000
6.806561e+002,-4.113770e-002
6.816203e+002,-4.907227e-001
6.825845e+002,3.978882e+000
6.835488e+002,1.047266e+001
6.845130e+002,1.408032e+001
6.854772e+002,1.107312e+001
6.864415e+002,4.792114e+000
6.874057e+002,1.443970e+000
6.883699e+002,-3.439941e-001
6.893342e+002,-1.975342e+000
6.902984e+002,-3.973755e+000
6.912626e+002,-6.105469e+000
6.922269e+002,-8.254639e+000
6.931911e+002,-9.083618e+000
6.941553e+002,-9.818481e+000
6.951196e+002,-1.218433e+001
6.960838e+002,-1.518042e+001
6.970480e+002,-1.674976e+001
6.980123e+002,-1.611853e+001
6.989765e+002,-1.371533e+001
6.999407e+002,-8.827515e+000
7.009050e+002,-3.631226e+000
7.018692e+002,3.995361e-001
7.028334e+002,2.539429e+000
7.037977e+002,2.667236e+000
7.047619e+002,-5.301514e-001
7.057261e+002,-4.613403e+000
7.066904e+002,-5.078979e+000
7.076546e+002,-1.252686e+000
7.086188e+002,4.162842e+000
7.095831e+002,6.906738e+000
7.105473e+002,5.870972e+000
7.115115e+002,3.942627e+000
7.124758e+002,-6.160889e-001
7.134400e+002,-4.648071e+000
7.144042e+002,-5.334473e+000
7.153685e+002,-2.458740e+000
7.163327e+002,-1.866455e-001
7.172969e+002,-6.665039e-001
7.182612e+002,-1.844849e+000
7.192254e+002,-3.813354e+000
7.201896e+002,-6.153198e+000
7.211539e+002,-8.370117e+000
7.221181e+002,-1.011121e+001
7.230823e+002,-1.069458e+001
7.240466e+002,-7.598511e+000
7.250108e+002,-1.281494e+000
7.259750e+002,4.131348e+000
7.269393e+002,5.514771e+000
7.279035e+002,2.696411e+000
7.288677e+002,2.338867e-001
7.298320e+002,6.601563e-001
7.307962e+002,1.103516e+000
7.317604e+002,8.826904e-001
7.327247e+002,9.501953e-001
7.336889e+002,2.420776e+000
7.346531e+002,5.178101e+000
7.356174e+002,6.220947e+000
7.365816e+002,5.585693e+000
7.375458e+002,4.159668e+000
7.385101e+002,1.483887e+000
7.394743e+002,-1.954468e+000
7.404385e+002,-4.230957e+000
7.414028e+002,-2.191772e+000
7.423670e+002,2.053711e+000
7.433312e+002,5.106567e+000
7.442955e+002,7.935425e+000
7.452597e+002,9.609619e+000
7.462239e+002,7.487915e+000
7.471882e+002,-1.148315e+000
7.481524e+002,-2.651978e+000
7.491166e+002,7.938232e+000
7.500809e+002,1.667969e+001
7.510451e+002,1.816992e+001
7.520093e+002,1.340308e+001
7.529736e+002,6.979370e+000
7.539378e+002,-3.139648e-001
7.549020e+002,-4.670410e+000
7.558663e+002,-2.352051e+000
7.568306e+002,3.148804e+000
7.577948e+002,6.474487e+000
7.587590e+002,4.361450e+000
7.597233e+002,-8.908691e-001
7.606875e+002,-1.376953e-001
7.616517e+002,6.253418e+000
7.626160e+002,1.108276e+001
7.635802e+002,1.234070e+001
7.645444e+002,1.160706e+001
7.655087e+002,1.207837e+001
7.664729e+002,1.478296e+001
7.674371e+002,1.583630e+001
7.684014e+002,1.301599e+001
7.693656e+002,1.041455e+001
7.703298e+002,1.158972e+001
7.712941e+002,1.660132e+001
7.722583e+002,2.085339e+001
7.732225e+002,1.972913e+001
7.741868e+002,1.757532e+001
7.751510e+002,1.782678e+001
7.761152e+002,2.010767e+001
7.770795e+002,2.271021e+001
7.780437e+002,2.403674e+001
7.790079e+002,2.408557e+001
7.799722e+002,2.456946e+001
7.809364e+002,2.550549e+001
7.819006e+002,2.622449e+001
7.828649e+002,2.759338e+001
7.838291e+002,2.931543e+001
7.847933e+002,2.893079e+001
7.857576e+002,2.314294e+001
7.867218e+002,1.864111e+001
7.876860e+002,1.814600e+001
7.886503e+002,1.939722e+001
7.896145e+002,2.050659e+001
7.905787e+002,2.093518e+001
7.915430e+002,2.155664e+001
7.925072e+002,2.258557e+001
7.934714e+002,2.361462e+001
7.944357e+002,2.562927e+001
7.953999e+002,2.874915e+001
7.963641e+002,3.175623e+001
7.973284e+002,3.301514e+001
7.982926e+002,3.246106e+001
7.992568e+002,3.113086e+001
8.002211e+002,2.741125e+001
8.011853e+002,2.281921e+001
8.021495e+002,1.824695e+001
8.031138e+002,1.506189e+001
8.040780e+002,1.525977e+001
8.050422e+002,2.069336e+001
8.060065e+002,2.502002e+001
8.069707e+002,2.501343e+001
8.079349e+002,2.296021e+001
8.088992e+002,2.147083e+001
8.098634e+002,2.172180e+001
8.108276e+002,2.263330e+001
8.117919e+002,2.170691e+001
8.127561e+002,1.891980e+001
8.137203e+002,1.621448e+001
8.146846e+002,1.459534e+001
8.156488e+002,1.508228e+001
8.166130e+002,1.888513e+001
8.175773e+002,2.704333e+001
8.185415e+002,3.091882e+001
8.195057e+002,2.626782e+001
8.204700e+002,2.211829e+001
8.214342e+002,2.245837e+001
8.223984e+002,2.562634e+001
8.233627e+002,2.661853e+001
8.243269e+002,2.243506e+001
8.252911e+002,1.917114e+001
8.262554e+002,2.095679e+001
8.272196e+002,2.469519e+001
8.281838e+002,2.729321e+001
8.291481e+002,2.752588e+001
8.301123e+002,2.626636e+001
8.310765e+002,2.463257e+001
8.320408e+002,2.275720e+001
8.330050e+002,2.323914e+001
8.339692e+002,2.698401e+001
8.349335e+002,3.129321e+001
8.358977e+002,3.353284e+001
8.368619e+002,3.378296e+001
8.378262e+002,3.443213e+001
8.387904e+002,3.585388e+001
8.397546e+002,3.618652e+001
8.407189e+002,3.390918e+001
8.416831e+002,3.060864e+001
8.426473e+002,2.908167e+001
8.436116e+002,3.086853e+001
8.445758e+002,3.392041e+001
8.455400e+002,3.493347e+001
8.465043e+002,3.490967e+001
8.474685e+002,3.692249e+001
8.484327e+002,4.176782e+001
8.493970e+002,4.636646e+001
8.503612e+002,4.438708e+001
8.513254e+002,3.375525e+001
8.522897e+002,2.971826e+001
8.532539e+002,3.543762e+001
8.542181e+002,4.179810e+001
8.551824e+002,4.305017e+001
8.561466e+002,4.080920e+001
8.571108e+002,4.331055e+001
8.580751e+002,5.535852e+001
8.590393e+002,6.474658e+001
8.600035e+002,6.796265e+001
8.609678e+002,6.766589e+001
8.619320e+002,6.602612e+001
8.628962e+002,6.411829e+001
8.638605e+002,6.295544e+001
8.648247e+002,6.493262e+001
8.657889e+002,6.859973e+001
8.667532e+002,7.130518e+001
8.677174e+002,7.269299e+001
8.686816e+002,7.312817e+001
8.696459e+002,7.279419e+001
8.706101e+002,7.152881e+001
8.715743e+002,7.378210e+001
8.725386e+002,8.320801e+001
8.735028e+002,9.131946e+001
8.744670e+002,9.572205e+001
8.754313e+002,9.645142e+001
8.763955e+002,9.324573e+001
8.773597e+002,8.433740e+001
8.783240e+002,7.889001e+001
8.792882e+002,8.650769e+001
8.802524e+002,9.754846e+001
8.812167e+002,1.038400e+002
8.821809e+002,1.038774e+002
8.831451e+002,1.014021e+002
8.841094e+002,1.012716e+002
8.850736e+002,1.039948e+002
8.860378e+002,1.075543e+002
8.870021e+002,1.118940e+002
8.879663e+002,1.156805e+002
8.889305e+002,1.177019e+002
8.898948e+002,1.180540e+002
8.908590e+002,1.181322e+002
8.918232e+002,1.170912e+002
8.927875e+002,1.188458e+002
8.937517e+002,1.269094e+002
8.947159e+002,1.358347e+002
8.956802e+002,1.400544e+002
8.966444e+002,1.384626e+002
8.976086e+002,1.354652e+002
8.985729e+002,1.362219e+002
8.995371e+002,1.391940e+002
9.005013e+002,1.406553e+002
9.014656e+002,1.410914e+002
9.024298e+002,1.419258e+002
9.033940e+002,1.437935e+002
9.043583e+002,1.460876e+002
9.053225e+002,1.483723e+002
9.062867e+002,1.497264e+002
9.072510e+002,1.512959e+002
9.082152e+002,1.550168e+002
9.091794e+002,1.592448e+002
9.101437e+002,1.619010e+002
9.111079e+002,1.625631e+002
9.120721e+002,1.633258e+002
9.130364e+002,1.667694e+002
9.140006e+002,1.680295e+002
9.149648e+002,1.625858e+002
9.159291e+002,1.537594e+002
9.168933e+002,1.476683e+002
9.178575e+002,1.482612e+002
9.188218e+002,1.535581e+002
9.197860e+002,1.591720e+002
9.207502e+002,1.650946e+002
9.217145e+002,1.652279e+002
9.226787e+002,1.560219e+002
9.236429e+002,1.444193e+002
9.246072e+002,1.399714e+002
9.255714e+002,1.440294e+002
9.265356e+002,1.450984e+002
9.274999e+002,1.383875e+002
9.284641e+002,1.309984e+002
9.294283e+002,1.242711e+002
9.303926e+002,1.193873e+002
9.313568e+002,1.178975e+002
9.323210e+002,1.207134e+002
9.332853e+002,1.250646e+002
9.342495e+002,1.278131e+002
9.352137e+002,1.286255e+002
9.361780e+002,1.264890e+002
9.371422e+002,1.217657e+002
9.381064e+002,1.162086e+002
9.390707e+002,1.111711e+002
9.400349e+002,1.054198e+002
9.409991e+002,1.037330e+002
9.419634e+002,1.092340e+002
9.429276e+002,1.138462e+002
9.438918e+002,1.162306e+002
9.448561e+002,1.164491e+002
9.458203e+002,1.139973e+002
9.467845e+002,1.081246e+002
9.477488e+002,1.037927e+002
9.487130e+002,1.065128e+002
9.496772e+002,1.107274e+002
9.506415e+002,1.117460e+002
9.516057e+002,1.096495e+002
9.525699e+002,1.076737e+002
9.535342e+002,1.089418e+002
9.544984e+002,1.126053e+002
9.554626e+002,1.135873e+002
9.564269e+002,1.128735e+002
9.573911e+002,1.111337e+002
9.583553e+002,1.068062e+002
9.593196e+002,1.018505e+002
9.602838e+002,9.959998e+001
9.612480e+002,1.002880e+002
9.622123e+002,1.023097e+002
9.631765e+002,1.085914e+002
9.641407e+002,1.132217e+002
9.651050e+002,1.116979e+002
9.660692e+002,1.059796e+002
9.670334e+002,1.008790e+002
9.679977e+002,9.973950e+001
9.689619e+002,1.017275e+002
9.699261e+002,1.047722e+002
9.708904e+002,1.079443e+002
9.718546e+002,1.093418e+002
9.728188e+002,1.075822e+002
9.737831e+002,1.067235e+002
9.747473e+002,1.135187e+002
9.757115e+002,1.303229e+002
9.766758e+002,1.432670e+002
9.776400e+002,1.533673e+002
9.786042e+002,1.594718e+002
9.795685e+002,1.595791e+002
9.805327e+002,1.551462e+002
9.814969e+002,1.480199e+002
9.824612e+002,1.392405e+002
9.834254e+002,1.304092e+002
9.843896e+002,1.218226e+002
9.853539e+002,1.135103e+002
9.863181e+002,1.057644e+002
9.872823e+002,9.822668e+001
9.882466e+002,9.050110e+001
9.892108e+002,8.282898e+001
9.901750e+002,7.659692e+001
9.911393e+002,7.562244e+001
9.921035e+002,8.165076e+001
9.930677e+002,8.671729e+001
9.940320e+002,9.146838e+001
9.949962e+002,9.578796e+001
9.959604e+002,9.863330e+001
9.969247e+002,1.002754e+002
9.978889e+002,1.044858e+002
9.988531e+002,1.149985e+002
9.998174e+002,1.239866e+002
1.000782e+003,1.269083e+002
1.001746e+003,1.264104e+002
1.002710e+003,1.260928e+002
1.003674e+003,1.274790e+002
1.004639e+003,1.293060e+002
1.005603e+003,1.292637e+002
1.006567e+003,1.268917e+002
1.007531e+003,1.265616e+002
1.008495e+003,1.291467e+002
1.009460e+003,1.321256e+002
1.010424e+003,1.345229e+002
1.011388e+003,1.364386e+002
1.012352e+003,1.378512e+002
1.013317e+003,1.395674e+002
1.014281e+003,1.378926e+002
1.015245e+003,1.297368e+002
1.016209e+003,1.197438e+002
1.017174e+003,1.115588e+002
1.018138e+003,1.053553e+002
1.019102e+003,9.863062e+001
1.020066e+003,8.931775e+001
1.021031e+003,7.916870e+001
1.021995e+003,7.269421e+001
1.022959e+003,6.841260e+001
1.023923e+003,6.217078e+001
1.024887e+003,5.166638e+001
1.025852e+003,3.994434e+001
1.026816e+003,3.226245e+001
1.027780e+003,2.995081e+001
1.028744e+003,2.790723e+001
1.029709e+003,2.463733e+001
1.030673e+003,2.260046e+001
1.031637e+003,2.340967e+001
1.032601e+003,2.514478e+001
1.033566e+003,2.522839e+001
1.034530e+003,2.297974e+001
1.035494e+003,2.043970e+001
1.036458e+003,1.948816e+001
1.037422e+003,1.941089e+001
1.038387e+003,1.940369e+001
1.039351e+003,1.920630e+001
1.040315e+003,1.845593e+001
1.041279e+003,1.693115e+001
1.042244e+003,1.531616e+001
1.043208e+003,1.587415e+001
1.044172e+003,2.039661e+001
1.045136e+003,2.266760e+001
1.046101e+003,2.120178e+001
1.047065e+003,1.957764e+001
1.048029e+003,2.030872e+001
1.048993e+003,2.270313e+001
1.049958e+003,2.405859e+001
1.050922e+003,2.322534e+001
1.051886e+003,2.184277e+001
1.052850e+003,2.096143e+001
1.053814e+003,2.062817e+001
1.054779e+003,2.080554e+001
1.055743e+003,2.146973e+001
1.056707e+003,2.317090e+001
1.057671e+003,2.681494e+001
1.058636e+003,3.229199e+001
1.059600e+003,3.406177e+001
1.060564e+003,2.828076e+001
1.061528e+003,2.619080e+001
1.062493e+003,3.193286e+001
1.063457e+003,3.908081e+001
1.064421e+003,4.050818e+001
1.065385e+003,3.576709e+001
1.066349e+003,3.115393e+001
1.067314e+003,3.014307e+001
1.068278e+003,2.992261e+001
1.069242e+003,2.819543e+001
1.070206e+003,2.623218e+001
1.071171e+003,2.625891e+001
1.072135e+003,2.870459e+001
1.073099e+003,3.124329e+001
1.074063e+003,3.033447e+001
1.075028e+003,2.575281e+001
1.075992e+003,2.385828e+001
1.076956e+003,2.557178e+001
1.077920e+003,2.682788e+001
1.078885e+003,2.722815e+001
1.079849e+003,2.672229e+001
1.080813e+003,2.411536e+001
1.081777e+003,1.868652e+001
1.082741e+003,1.491357e+001
1.083706e+003,1.508875e+001
1.084670e+003,1.633594e+001
1.085634e+003,1.821912e+001
1.086598e+003,1.982153e+001
1.087563e+003,1.982703e+001
1.088527e+003,1.789319e+001
1.089491e+003,1.552222e+001
1.090455e+003,1.469751e+001
1.091420e+003,1.511755e+001
1.092384e+003,1.621887e+001
1.093348e+003,1.855054e+001
1.094312e+003,1.965247e+001
1.095276e+003,1.795764e+001
1.096241e+003,1.470288e+001
1.097205e+003,1.264941e+001
1.098169e+003,1.214038e+001
1.099133e+003,1.125049e+001
1.100098e+003,8.216309e+000
1.101062e+003,6.099487e+000
1.102026e+003,7.207031e+000
1.102990e+003,1.093787e+001
1.103955e+003,1.554114e+001
1.104919e+003,1.980835e+001
1.105883e+003,2.334692e+001
1.106847e+003,2.560938e+001
1.107812e+003,2.642676e+001
1.108776e+003,2.701404e+001
1.109740e+003,2.776086e+001
1.110704e+003,2.760242e+001
1.111668e+003,2.492322e+001
1.112633e+003,2.123376e+001
1.113597e+003,2.209216e+001
1.114561e+003,3.025391e+001
1.115525e+003,3.640198e+001
1.116490e+003,3.626831e+001
1.117454e+003,3.465247e+001
1.118418e+003,3.491150e+001
1.119382e+003,3.711450e+001
1.120347e+003,3.937512e+001
1.121311e+003,4.003564e+001
1.122275e+003,3.911633e+001
1.123239e+003,3.830151e+001
1.124203e+003,3.832397e+001
1.125168e+003,3.780090e+001
1.126132e+003,3.592664e+001
1.127096e+003,3.588733e+001
1.128060e+003,4.081653e+001
1.129025e+003,4.934546e+001
1.129989e+003,5.608313e+001
1.130953e+003,6.053308e+001
1.131917e+003,6.266211e+001
1.132882e+003,5.972400e+001
1.133846e+003,5.800439e+001
1.134810e+003,6.244092e+001
1.135774e+003,7.133459e+001
1.136739e+003,8.006262e+001
1.137703e+003,8.593506e+001
1.138667e+003,8.977820e+001
1.139631e+003,9.197888e+001
1.140595e+003,9.336475e+001
1.141560e+003,1.006833e+002
1.142524e+003,1.153606e+002
1.143488e+003,1.338467e+002
1.144452e+003,1.541451e+002
1.145417e+003,1.761350e+002
1.146381e+003,1.997068e+002
1.147345e+003,2.256501e+002
1.148309e+003,2.503522e+002
1.149274e+003,2.702603e+002
1.150238e+003,2.921541e+002
1.151202e+003,3.214225e+002
1.152166e+003,3.555229e+002
1.153130e+003,3.899170e+002
1.154095e+003,4.215663e+002
1.155059e+003,4.483955e+002
1.156023e+003,4.691713e+002
1.156987e+003,4.829463e+002
1.157952e+003,4.862466e+002
1.158916e+003,4.795492e+002
1.159880e+003,4.676207e+002
1.160844e+003,4.513759e+002
1.161809e+003,4.297811e+002
1.162773e+003,4.017197e+002
1.163737e+003,3.659468e+002
1.164701e+003,3.297063e+002
1.165666e+003,2.913232e+002
1.166630e+003,2.575245e+002
1.167594e+003,2.308723e+002
1.168558e+003,2.101825e+002
1.169522e+003,1.938033e+002
1.170487e+003,1.811713e+002
1.171451e+003,1.737643e+002
1.172415e+003,1.740134e+002
1.173379e+003,1.795446e+002
1.174344e+003,1.780457e+002
1.175308e+003,1.695120e+002
1.176272e+003,1.618101e+002
1.177236e+003,1.587943e+002
1.178201e+003,1.572354e+002
1.179165e+003,1.526442e+002
1.180129e+003,1.445249e+002
1.181093e+003,1.348364e+002
1.182057e+003,1.219835e+002
1.183022e+003,1.113325e+002
1.183986e+003,1.048394e+002
1.184950e+003,1.012179e+002
1.185914e+003,9.987793e+001
1.186879e+003,1.003854e+002
1.187843e+003,1.022803e+002
1.188807e+003,1.050498e+002
1.189771e+003,1.079115e+002
1.190736e+003,1.091653e+002
1.191700e+003,1.085884e+002
1.192664e+003,1.078114e+002
1.193628e+003,1.071956e+002
1.194593e+003,1.068842e+002
1.195557e+003,1.077106e+002
1.196521e+003,1.087582e+002
1.197485e+003,1.066117e+002
1.198449e+003,9.968079e+001
1.199414e+003,9.336597e+001
1.200378e+003,9.215674e+001
1.201342e+003,9.061621e+001
1.202306e+003,8.410876e+001
1.203271e+003,7.430237e+001
1.204235e+003,6.542859e+001
1.205199e+003,5.972192e+001
1.206163e+003,5.590601e+001
1.207128e+003,5.176819e+001
1.208092e+003,4.736157e+001
1.209056e+003,4.275549e+001
1.210020e+003,3.864868e+001
1.210984e+003,3.321350e+001
1.211949e+003,2.502881e+001
1.212913e+003,1.550854e+001
1.213877e+003,6.560791e+000
1.214841e+003,-1.516602e+000
1.215806e+003,-9.307739e+000
1.216770e+003,-1.827283e+001
1.217734e+003,-2.517822e+001
1.218698e+003,-2.729736e+001
1.219663e+003,-2.734192e+001
1.220627e+003,-2.797534e+001
1.221591e+003,-3.002063e+001
1.222555e+003,-3.369995e+001
1.223520e+003,-3.921558e+001
1.224484e+003,-4.565735e+001
1.225448e+003,-4.980518e+001
1.226412e+003,-5.083142e+001
1.227376e+003,-5.137781e+001
1.228341e+003,-5.200720e+001
1.229305e+003,-5.195068e+001
1.230269e+003,-4.980652e+001
1.231233e+003,-4.701599e+001
1.232198e+003,-4.662012e+001
1.233162e+003,-4.927576e+001
1.234126e+003,-5.162915e+001
1.235090e+003,-5.155493e+001
1.236055e+003,-5.047217e+001
1.237019e+003,-4.979065e+001
1.237983e+003,-4.951306e+001
1.238947e+003,-4.866467e+001
1.239911e+003,-4.660291e+001
1.240876e+003,-4.490442e+001
1.241840e+003,-4.650830e+001
1.242804e+003,-5.165820e+001
1.243768e+003,-5.494312e+001
1.244733e+003,-5.466040e+001
1.245697e+003,-5.458691e+001
1.246661e+003,-5.632751e+001
1.247625e+003,-5.819727e+001
1.248590e+003,-5.893042e+001
1.249554e+003,-5.796460e+001
1.250518e+003,-5.468945e+001
1.251482e+003,-4.890967e+001
1.252447e+003,-4.328906e+001
1.253411e+003,-4.079089e+001
1.254375e+003,-4.005579e+001
1.255339e+003,-3.877686e+001
1.256303e+003,-3.660303e+001
1.257268e+003,-3.391638e+001
1.258232e+003,-3.141956e+001
1.259196e+003,-2.918921e+001
1.260160e+003,-2.647498e+001
1.261125e+003,-2.276306e+001
1.262089e+003,-1.873279e+001
1.263053e+003,-1.468750e+001
1.264017e+003,-1.114197e+001
1.264982e+003,-8.474365e+000
1.265946e+003,-5.734741e+000
1.266910e+003,-1.172485e+000
1.267874e+003,4.432373e+000
1.268839e+003,8.232666e+000
1.269803e+003,8.356812e+000
1.270767e+003,5.896973e+000
1.271731e+003,2.633545e+000
1.272695e+003,-1.148926e+000
1.273660e+003,-4.375732e+000
1.274624e+003,-7.602661e+000
1.275588e+003,-1.108691e+001
1.276552e+003,-1.437744e+001
1.277517e+003,-1.729773e+001
1.278481e+003,-1.998962e+001
1.279445e+003,-2.255823e+001
1.280409e+003,-2.609851e+001
1.281374e+003,-3.189404e+001
1.282338e+003,-3.726160e+001
1.283302e+003,-4.247388e+001
1.284266e+003,-4.571130e+001
1.285230e+003,-4.338098e+001
1.286195e+003,-3.648145e+001
1.287159e+003,-3.041785e+001
1.288123e+003,-2.942871e+001
1.289087e+003,-3.175598e+001
1.290052e+003,-3.302673e+001
1.291016e+003,-3.294702e+001
1.291980e+003,-3.459326e+001
1.292944e+003,-4.057422e+001
1.293909e+003,-4.571521e+001
1.294873e+003,-4.721399e+001
1.295837e+003,-4.635889e+001
1.296801e+003,-4.473340e+001
1.297766e+003,-4.271484e+001
1.298730e+003,-4.105994e+001
1.299694e+003,-4.025903e+001
1.300658e+003,-4.067529e+001
1.301622e+003,-4.349841e+001
1.302587e+003,-4.692456e+001
1.303551e+003,-4.811951e+001
1.304515e+003,-4.650964e+001
1.305479e+003,-4.363379e+001
1.306444e+003,-4.078125e+001
1.307408e+003,-3.833289e+001
1.308372e+003,-3.690442e+001
1.309336e+003,-3.680994e+001
1.310301e+003,-3.693042e+001
1.311265e+003,-3.635730e+001
1.312229e+003,-3.643286e+001
1.313193e+003,-3.900415e+001
1.314157e+003,-4.168945e+001
1.315122e+003,-4.112476e+001
1.316086e+003,-3.794421e+001
1.317050e+003,-3.647400e+001
1.318014e+003,-3.945020e+001
1.318979e+003,-4.416211e+001
1.319943e+003,-4.647253e+001
1.320907e+003,-4.616577e+001
1.321871e+003,-4.415369e+001
1.322836e+003,-4.062598e+001
1.323800e+003,-3.732129e+001
1.324764e+003,-3.510461e+001
1.325728e+003,-3.349902e+001
1.326693e+003,-3.119177e+001
1.327657e+003,-2.837903e+001
1.328621e+003,-2.960010e+001
1.329585e+003,-3.754761e+001
1.330549e+003,-4.423865e+001
1.331514e+003,-4.806763e+001
1.332478e+003,-4.932935e+001
1.333442e+003,-4.583716e+001
1.334406e+003,-3.921814e+001
1.335371e+003,-3.493384e+001
1.336335e+003,-3.621997e+001
1.337299e+003,-4.013293e+001
1.338263e+003,-4.132275e+001
1.339228e+003,-3.959753e+001
1.340192e+003,-3.664441e+001
1.341156e+003,-3.069910e+001
1.342120e+003,-2.622644e+001
1.343084e+003,-2.426843e+001
1.344049e+003,-2.458398e+001
1.345013e+003,-2.821875e+001
1.345977e+003,-3.316272e+001
1.346941e+003,-3.411963e+001
1.347906e+003,-2.900208e+001
1.348870e+003,-2.357629e+001
1.349834e+003,-2.347827e+001
1.350798e+003,-2.683374e+001
1.351763e+003,-2.954749e+001
1.352727e+003,-3.145972e+001
1.353691e+003,-3.259839e+001
1.354655e+003,-3.279297e+001
1.355620e+003,-3.263403e+001
1.356584e+003,-3.237781e+001
1.357548e+003,-3.200464e+001
1.358512e+003,-3.328772e+001
1.359476e+003,-3.829944e+001
1.360441e+003,-4.150720e+001
1.361405e+003,-4.003345e+001
1.362369e+003,-3.753638e+001
1.363333e+003,-3.514209e+001
1.364298e+003,-3.309937e+001
1.365262e+003,-3.103064e+001
1.366226e+003,-2.919373e+001
1.367190e+003,-2.930957e+001
1.368155e+003,-3.301257e+001
1.369119e+003,-3.844031e+001
1.370083e+003,-3.940112e+001
1.371047e+003,-3.405725e+001
1.372011e+003,-3.069983e+001
1.372976e+003,-3.111499e+001
1.373940e+003,-3.218555e+001
1.374904e+003,-3.319348e+001
1.375868e+003,-3.350964e+001
1.376833e+003,-3.192529e+001
1.377797e+003,-2.891150e+001
1.378761e+003,-2.748474e+001
1.379725e+003,-2.933948e+001
1.380690e+003,-3.126575e+001
1.381654e+003,-2.921497e+001
1.382618e+003,-2.529419e+001
1.383582e+003,-2.256335e+001
1.384547e+003,-2.103296e+001
1.385511e+003,-1.895483e+001
1.386475e+003,-1.547900e+001
1.387439e+003,-1.189246e+001
1.388403e+003,-1.034119e+001
1.389368e+003,-1.087219e+001
1.390332e+003,-1.012439e+001
1.391296e+003,-5.880981e+000
1.392260e+003,-4.025635e+000
1.393225e+003,-7.136841e+000
1.394189e+003,-1.155811e+001
1.395153e+003,-1.690149e+001
1.396117e+003,-2.141296e+001
1.397082e+003,-2.181116e+001
1.398046e+003,-1.800879e+001
1.399010e+003,-1.459985e+001
1.399974e+003,-1.617078e+001
1.400938e+003,-2.143738e+001
1.401903e+003,-2.469019e+001
1.402867e+003,-2.415906e+001
1.403831e+003,-2.240723e+001
1.404795e+003,-1.886865e+001
1.405760e+003,-1.624451e+001
1.406724e+003,-1.791602e+001
1.407688e+003,-2.103699e+001
1.408652e+003,-2.053589e+001
1.409617e+003,-1.639612e+001
1.410581e+003,-1.348291e+001
1.411545e+003,-1.382629e+001
1.412509e+003,-1.533813e+001
1.413474e+003,-1.703406e+001
1.414438e+003,-1.887720e+001
1.415402e+003,-1.972754e+001
1.416366e+003,-1.921802e+001
1.417330e+003,-1.786230e+001
1.418295e+003,-1.571204e+001
1.419259e+003,-1.327979e+001
1.420223e+003,-1.130444e+001
1.421187e+003,-1.010693e+001
1.422152e+003,-9.863403e+000
1.423116e+003,-1.061865e+001
1.424080e+003,-1.015051e+001
1.425044e+003,-6.934937e+000
1.426009e+003,-4.451050e+000
1.426973e+003,-5.594604e+000
1.427937e+003,-7.450317e+000
1.428901e+003,-5.260132e+000
1.429865e+003,5.449219e-001
1.430830e+003,4.466309e+000
1.431794e+003,2.703979e+000
1.432758e+003,-1.518311e+000
1.433722e+003,-9.299316e-001
1.434687e+003,5.850830e+000
1.435651e+003,9.759888e+000
1.436615e+003,4.628296e+000
1.437579e+003,2.223267e+000
1.438544e+003,6.065430e+000
1.439508e+003,1.084290e+001
1.440472e+003,1.436255e+001
1.441436e+003,1.640564e+001
1.442401e+003,1.627295e+001
1.443365e+003,1.387622e+001
1.444329e+003,1.092908e+001
1.445293e+003,8.668091e+000
1.446257e+003,7.339478e+000
1.447222e+003,7.164307e+000
1.448186e+003,8.016479e+000
1.449150e+003,1.025452e+001
1.450114e+003,1.463293e+001
1.451079e+003,1.671924e+001
1.452043e+003,1.315039e+001
1.453007e+003,7.530273e+000
1.453971e+003,3.983276e+000
1.454936e+003,2.302368e+000
1.455900e+003,1.978516e+000
1.456864e+003,3.269897e+000
1.457828e+003,5.731201e+000
1.458792e+003,1.103845e+001
1.459757e+003,1.490710e+001
1.460721e+003,1.277917e+001
1.461685e+003,6.824097e+000
1.462649e+003,1.189575e+000
1.463614e+003,-2.569336e+000
1.464578e+003,-3.970337e+000
1.465542e+003,-2.401855e+000
1.466506e+003,7.517090e-001
1.467471e+003,1.736694e+000
1.468435e+003,3.665771e-001
1.469399e+003,9.547119e-001
1.470363e+003,4.812134e+000
1.471328e+003,7.786987e+000
1.472292e+003,7.568359e+000
1.473256e+003,6.469849e+000
1.474220e+003,7.145020e+000
1.475184e+003,9.172974e+000
1.476149e+003,1.059790e+001
1.477113e+003,1.050098e+001
1.478077e+003,9.500977e+000
1.479041e+003,8.542847e+000
1.480006e+003,8.526611e+000
1.480970e+003,1.147852e+001
1.481934e+003,1.782751e+001
1.482898e+003,2.295496e+001
1.483863e+003,2.709912e+001
1.484827e+003,2.957092e+001
1.485791e+003,2.919885e+001
1.486755e+003,2.882043e+001
1.487719e+003,3.089075e+001
1.488684e+003,3.458801e+001
1.489648e+003,3.752795e+001
1.490612e+003,3.926501e+001
1.491576e+003,4.226062e+001
1.492541e+003,4.879199e+001
1.493505e+003,5.672192e+001
1.494469e+003,6.099219e+001
1.495433e+003,6.177100e+001
1.496398e+003,6.377649e+001
1.497362e+003,6.875818e+001
1.498326e+003,7.407410e+001
1.499290e+003,7.643457e+001
1.500255e+003,7.952161e+001
1.501219e+003,8.919971e+001
1.502183e+003,1.042511e+002
1.503147e+003,1.175487e+002
1.504111e+003,1.269556e+002
1.505076e+003,1.374547e+002
1.506040e+003,1.510643e+002
1.507004e+003,1.684701e+002
1.507968e+003,1.907822e+002
1.508933e+003,2.167393e+002
1.509897e+003,2.437222e+002
1.510861e+003,2.721051e+002
1.511825e+003,3.039443e+002
1.512790e+003,3.402568e+002
1.513754e+003,3.798263e+002
1.514718e+003,4.219590e+002
1.515682e+003,4.660739e+002
1.516646e+003,5.087058e+002
1.517611e+003,5.509304e+002
1.518575e+003,5.899851e+002
1.519539e+003,6.248716e+002
1.520503e+003,6.576697e+002
1.521468e+003,6.931899e+002
1.522432e+003,7.248364e+002
1.523396e+003,7.445463e+002
1.524360e+003,7.506398e+002
1.525325e+003,7.451364e+002
1.526289e+003,7.295150e+002
1.527253e+003,7.067886e+002
1.528217e+003,6.819463e+002
1.529182e+003,6.554973e+002
1.530146e+003,6.250181e+002
1.531110e+003,5.920574e+002
1.532074e+003,5.505167e+002
1.533039e+003,4.933929e+002
1.534003e+003,4.339333e+002
1.534967e+003,3.770709e+002
1.535931e+003,3.239462e+002
1.536896e+003,2.738290e+002
1.537860e+003,2.278966e+002
1.538824e+003,1.886920e+002
1.539788e+003,1.572206e+002
1.540752e+003,1.324957e+002
1.541717e+003,1.137969e+002
1.542681e+003,1.007821e+002
1.543645e+003,8.882849e+001
1.544609e+003,7.765417e+001
1.545573e+003,7.029150e+001
1.546538e+003,6.755273e+001
1.547502e+003,6.580103e+001
1.548466e+003,6.527832e+001
1.549430e+003,6.528247e+001
1.550395e+003,6.433252e+001
1.551359e+003,6.264380e+001
1.552323e+003,6.207080e+001
1.553287e+003,6.321729e+001
1.554252e+003,6.404968e+001
1.555216e+003,6.281799e+001
1.556180e+003,5.971313e+001
1.557144e+003,5.478406e+001
1.558109e+003,4.818726e+001
1.559073e+003,4.291821e+001
1.560037e+003,3.801733e+001
1.561001e+003,3.485437e+001
1.561966e+003,3.592627e+001
1.562930e+003,3.848975e+001
1.563894e+003,3.976733e+001
1.564858e+003,3.986768e+001
1.565823e+003,3.994104e+001
1.566787e+003,4.009668e+001
1.567751e+003,3.885254e+001
1.568715e+003,3.479419e+001
1.569679e+003,3.156982e+001
1.570644e+003,3.519421e+001
1.571608e+003,4.222534e+001
1.572572e+003,4.275562e+001
1.573536e+003,3.667468e+001
1.574500e+003,3.362012e+001
1.575465e+003,3.790332e+001
1.576429e+003,4.380310e+001
1.577393e+003,4.761401e+001
1.578357e+003,4.908081e+001
1.579322e+003,4.657483e+001
1.580286e+003,4.079980e+001
1.581250e+003,3.943884e+001
1.582214e+003,4.596045e+001
1.583179e+003,5.295123e+001
1.584143e+003,5.467218e+001
1.585107e+003,5.356354e+001
1.586071e+003,5.304608e+001
1.587036e+003,5.380463e+001
1.588000e+003,5.672772e+001
1.588964e+003,6.185382e+001
1.589928e+003,6.509766e+001
1.590893e+003,6.289685e+001
1.591857e+003,5.833911e+001
1.592821e+003,5.527209e+001
1.593785e+003,5.397009e+001
1.594750e+003,5.575439e+001
1.595714e+003,6.094165e+001
1.596678e+003,6.679126e+001
1.597642e+003,7.407288e+001
1.598606e+003,7.901526e+001
1.599571e+003,7.632129e+001
1.600535e+003,7.140552e+001
1.601499e+003,7.120386e+001
1.602463e+003,7.552051e+001
1.603427e+003,8.091699e+001
1.604392e+003,8.631580e+001
1.605356e+003,9.036462e+001
1.606320e+003,9.125977e+001
1.607284e+003,8.996704e+001
1.608249e+003,8.936987e+001
1.609213e+003,8.953882e+001
1.610177e+003,8.799847e+001
1.611141e+003,8.333319e+001
1.612106e+003,7.950616e+001
1.613070e+003,7.902045e+001
1.614034e+003,7.945612e+001
1.614998e+003,7.976080e+001
1.615963e+003,7.956586e+001
1.616927e+003,7.748315e+001
1.617891e+003,7.373572e+001
1.618855e+003,7.162708e+001
1.619820e+003,7.312024e+001
1.620784e+003,7.543640e+001
1.621748e+003,7.553381e+001
1.622712e+003,7.445520e+001
1.623677e+003,7.373547e+001
1.624641e+003,7.317786e+001
1.625605e+003,7.491785e+001
1.626569e+003,8.088293e+001
1.627533e+003,8.393567e+001
1.628498e+003,7.812573e+001
1.629462e+003,7.153467e+001
1.630426e+003,7.120068e+001
1.631390e+003,7.527173e+001
1.632354e+003,7.936414e+001
1.633319e+003,8.207117e+001
1.634283e+003,8.305676e+001
1.635247e+003,8.156677e+001
1.636211e+003,7.945789e+001
1.637176e+003,8.110028e+001
1.638140e+003,8.633136e+001
1.639104e+003,8.871100e+001
1.640068e+003,8.705414e+001
1.641033e+003,8.544696e+001
1.641997e+003,8.556244e+001
1.642961e+003,8.549103e+001
1.643925e+003,8.286499e+001
1.644890e+003,8.061035e+001
1.645854e+003,8.234583e+001
1.646818e+003,8.666870e+001
1.647782e+003,8.994910e+001
1.648747e+003,9.090796e+001
1.649711e+003,8.972449e+001
1.650675e+003,8.630530e+001
1.651639e+003,8.248096e+001
1.652604e+003,8.170679e+001
1.653568e+003,8.356030e+001
1.654532e+003,8.465308e+001
1.655496e+003,8.518811e+001
1.656460e+003,8.353687e+001
1.657425e+003,7.670142e+001
1.658389e+003,7.146643e+001
1.659353e+003,7.319324e+001
1.660317e+003,7.685754e+001
1.661281e+003,7.704382e+001
1.662246e+003,7.409338e+001
1.663210e+003,7.121790e+001
1.664174e+003,6.961499e+001
1.665138e+003,6.718134e+001
1.666103e+003,6.085138e+001
1.667067e+003,5.388849e+001
1.668031e+003,5.483881e+001
1.668995e+003,6.300482e+001
1.669960e+003,6.545819e+001
1.670924e+003,5.968341e+001
1.671888e+003,5.573792e+001
1.672852e+003,5.755994e+001
1.673817e+003,6.012097e+001
1.674781e+003,6.070044e+001
1.675745e+003,5.988855e+001
1.676709e+003,5.810168e+001
1.677674e+003,5.546924e+001
1.678638e+003,5.179675e+001
1.679602e+003,4.708887e+001
1.680566e+003,4.323315e+001
1.681531e+003,4.223401e+001
1.682495e+003,4.289673e+001
1.683459e+003,4.268115e+001
1.684423e+003,4.148523e+001
1.685387e+003,4.069470e+001
1.686352e+003,4.074036e+001
1.687316e+003,3.975000e+001
1.688280e+003,3.546924e+001
1.689244e+003,3.311169e+001
1.690208e+003,4.034619e+001
1.691173e+003,4.865405e+001
1.692137e+003,4.761151e+001
1.693101e+003,4.002069e+001
1.694065e+003,3.477765e+001
1.695030e+003,3.362189e+001
1.695994e+003,3.310699e+001
1.696958e+003,3.082001e+001
1.697922e+003,2.902228e+001
1.698887e+003,3.179736e+001
1.699851e+003,3.729724e+001
1.700815e+003,3.933630e+001
1.701779e+003,3.717700e+001
1.702744e+003,3.302087e+001
1.703708e+003,2.697424e+001
1.704672e+003,2.392499e+001
1.705636e+003,2.906042e+001
1.706601e+003,3.609338e+001
1.707565e+003,3.614233e+001
1.708529e+003,3.135425e+001
1.709493e+003,2.673926e+001
1.710458e+003,2.262415e+001
1.711422e+003,2.020984e+001
1.712386e+003,2.169458e+001
1.713350e+003,2.378351e+001
1.714314e+003,2.330316e+001
1.715279e+003,2.111224e+001
1.716243e+003,1.866809e+001
1.717207e+003,1.638885e+001
1.718171e+003,1.484985e+001
1.719135e+003,1.431061e+001
1.720100e+003,1.589948e+001
1.721064e+003,2.109570e+001
1.722028e+003,2.588135e+001
1.722992e+003,2.429169e+001
1.723957e+003,1.805475e+001
1.724921e+003,1.419434e+001
1.725885e+003,1.200769e+001
1.726849e+003,1.074567e+001
1.727814e+003,1.240509e+001
1.728778e+003,1.392126e+001
1.729742e+003,1.326447e+001
1.730706e+003,1.216943e+001
1.731671e+003,1.210425e+001
1.732635e+003,1.211383e+001
1.733599e+003,1.066388e+001
1.734563e+003,8.302490e+000
1.735528e+003,7.426636e+000
1.736492e+003,9.069153e+000
1.737456e+003,1.139868e+001
1.738420e+003,1.232990e+001
1.739385e+003,1.171600e+001
1.740349e+003,1.033496e+001
1.741313e+003,8.169128e+000
1.742277e+003,7.205566e+000
1.743241e+003,9.412659e+000
1.744206e+003,1.047083e+001
1.745170e+003,8.571838e+000
1.746134e+003,6.347595e+000
1.747098e+003,5.060974e+000
1.748063e+003,4.293274e+000
1.749027e+003,3.516174e+000
1.749991e+003,2.827209e+000
1.750955e+003,2.552979e+000
1.751919e+003,2.692749e+000
1.752884e+003,2.966980e+000
1.753848e+003,3.147339e+000
1.754812e+003,3.189392e+000
1.755776e+003,3.497437e+000
1.756741e+003,4.427979e+000
1.757705e+003,3.290039e+000
1.758669e+003,-2.348572e+000
1.759633e+003,-3.928040e+000
1.760598e+003,3.915100e+000
1.761562e+003,8.618347e+000
1.762526e+003,3.959290e+000
1.763490e+003,-1.566772e+000
1.764455e+003,-1.316589e+000
1.765419e+003,1.901672e+000
1.766383e+003,2.473877e+000
1.767347e+003,2.410889e-002
1.768312e+003,-1.358826e+000
1.769276e+003,1.404419e-001
1.770240e+003,2.062256e+000
1.771204e+003,2.755737e+000
1.772168e+003,2.617859e+000
1.773133e+003,7.321167e-001
1.774097e+003,-2.531738e+000
1.775061e+003,-2.809021e+000
1.776025e+003,2.692871e-001
1.776990e+003,3.188904e+000
1.777954e+003,5.803711e+000
1.778918e+003,7.336548e+000
1.779882e+003,5.486877e+000
1.780846e+003,2.736450e+000
1.781811e+003,3.680359e+000
1.782775e+003,7.092102e+000
1.783739e+003,8.405457e+000
1.784703e+003,7.024475e+000
1.785668e+003,5.011841e+000
1.786632e+003,1.112732e+000
1.787596e+003,-1.521545e+000
1.788560e+003,2.042236e+000
1.789525e+003,7.648438e+000
1.790489e+003,8.284485e+000
1.791453e+003,4.955383e+000
1.792417e+003,2.796509e+000
1.793382e+003,2.907532e+000
1.794346e+003,3.080750e+000
1.795310e+003,2.012817e+000
1.796274e+003,1.492615e+000
1.797239e+003,4.292847e+000
1.798203e+003,9.223816e+000
1.799167e+003,1.048529e+001
1.800131e+003,6.405701e+000
1.801095e+003,3.077515e+000
1.802060e+003,8.054810e-001
1.803024e+003,5.796509e-001
1.803988e+003,3.881470e+000
1.804952e+003,6.861084e+000
1.805917e+003,8.020264e+000
1.806881e+003,7.685913e+000
1.807845e+003,5.648010e+000
1.808809e+003,3.066101e+000
1.809773e+003,1.667664e+000
1.810738e+003,1.826721e+000
1.811702e+003,3.063354e+000
1.812666e+003,4.977417e+000
1.813630e+003,6.337097e+000
1.814595e+003,5.122375e+000
1.815559e+003,2.322144e+000
1.816523e+003,3.283691e+000
1.817487e+003,8.738953e+000
1.818452e+003,1.052203e+001
1.819416e+003,6.772522e+000
1.820380e+003,5.068848e+000
1.821344e+003,8.446838e+000
1.822309e+003,1.197058e+001
1.823273e+003,1.405005e+001
1.824237e+003,1.454248e+001
1.825201e+003,1.135828e+001
1.826166e+003,6.315857e+000
1.827130e+003,4.640869e+000
1.828094e+003,6.993103e+000
1.829058e+003,9.525452e+000
1.830022e+003,1.111005e+001
1.830987e+003,1.169598e+001
1.831951e+003,1.068262e+001
1.832915e+003,9.066528e+000
1.833879e+003,8.156677e+000
1.834844e+003,7.874878e+000
1.835808e+003,7.935669e+000
1.836772e+003,8.264832e+000
1.837736e+003,8.135315e+000
1.838700e+003,6.975769e+000
1.839665e+003,6.088745e+000
1.840629e+003,7.126953e+000
1.841593e+003,8.738525e+000
1.842557e+003,7.431091e+000
1.843522e+003,3.246582e+000
1.844486e+003,1.097534e+000
1.845450e+003,3.277039e+000
1.846414e+003,4.253906e+000
1.847379e+003,2.820435e-001
1.848343e+003,-1.258362e+000
1.849307e+003,5.058289e+000
1.850271e+003,1.164844e+001
1.851236e+003,1.306616e+001
1.852200e+003,1.174817e+001
1.853164e+003,1.037061e+001
1.854128e+003,9.442810e+000
1.855093e+003,9.947815e+000
1.856057e+003,1.228107e+001
1.857021e+003,1.341705e+001
1.857985e+003,1.021466e+001
1.858949e+003,5.808105e+000
1.859914e+003,6.459106e+000
1.860878e+003,1.114929e+001
1.861842e+003,1.294641e+001
1.862806e+003,1.155585e+001
1.863771e+003,1.174030e+001
1.864735e+003,1.443732e+001
1.865699e+003,1.710400e+001
1.866663e+003,1.918372e+001
1.867627e+003,2.072046e+001
1.868592e+003,2.124530e+001
1.869556e+003,2.067670e+001
1.870520e+003,1.962433e+001
1.871484e+003,1.807831e+001
1.872449e+003,1.611163e+001
1.873413e+003,1.454315e+001
1.874377e+003,1.470691e+001
1.875341e+003,1.612811e+001
1.876306e+003,1.815594e+001
1.877270e+003,2.160126e+001
1.878234e+003,2.414893e+001
1.879198e+003,2.256720e+001
1.880163e+003,1.913196e+001
1.881127e+003,1.840979e+001
1.882091e+003,2.052771e+001
1.883055e+003,2.252136e+001
1.884020e+003,2.298151e+001
1.884984e+003,2.203973e+001
1.885948e+003,1.975751e+001
1.886912e+003,1.743896e+001
1.887876e+003,1.803192e+001
1.888841e+003,2.124359e+001
1.889805e+003,2.264343e+001
1.890769e+003,2.181427e+001
1.891733e+003,2.147601e+001
1.892698e+003,2.185687e+001
1.893662e+003,2.186725e+001
1.894626e+003,2.097223e+001
1.895590e+003,2.017877e+001
1.896554e+003,2.006702e+001
1.897519e+003,2.097473e+001
1.898483e+003,2.363147e+001
1.899447e+003,2.693115e+001
1.900411e+003,2.851520e+001
1.901376e+003,2.811987e+001
1.902340e+003,2.691113e+001
1.903304e+003,2.443628e+001
1.904268e+003,2.246606e+001
1.905233e+003,2.264032e+001
1.906197e+003,2.365875e+001
1.907161e+003,2.442749e+001
1.908125e+003,2.511182e+001
1.909090e+003,2.561859e+001
1.910054e+003,2.587134e+001
1.911018e+003,2.654163e+001
1.911982e+003,2.795148e+001
1.912947e+003,2.918365e+001
1.913911e+003,2.943372e+001
1.914875e+003,2.915735e+001
1.915839e+003,2.880237e+001
1.916803e+003,2.824524e+001
1.917768e+003,2.889893e+001
1.918732e+003,3.143756e+001
1.919696e+003,3.291663e+001
1.920660e+003,3.339447e+001
1.921625e+003,3.324646e+001
1.922589e+003,3.136182e+001
1.923553e+003,3.013171e+001
1.924517e+003,3.087836e+001
1.925481e+003,3.292310e+001
1.926446e+003,3.660773e+001
1.927410e+003,4.085577e+001
1.928374e+003,4.356750e+001
1.929338e+003,4.433746e+001
1.930303e+003,4.388428e+001
1.931267e+003,4.260345e+001
1.932231e+003,4.174933e+001
1.933195e+003,4.157220e+001
1.934160e+003,4.134070e+001
1.935124e+003,4.017572e+001
1.936088e+003,3.866980e+001
1.937052e+003,3.840503e+001
1.938017e+003,3.887134e+001
1.938981e+003,3.825647e+001
1.939945e+003,3.630359e+001
1.940909e+003,3.371686e+001
1.941874e+003,3.088715e+001
1.942838e+003,2.888385e+001
1.943802e+003,2.909534e+001
1.944766e+003,3.117212e+001
1.945730e+003,3.370526e+001
1.946695e+003,3.627600e+001
1.947659e+003,3.818359e+001
1.948623e+003,3.939215e+001
1.949587e+003,3.864771e+001
1.950552e+003,3.524298e+001
1.951516e+003,3.333356e+001
1.952480e+003,3.465063e+001
1.953444e+003,3.697803e+001
1.954408e+003,3.914691e+001
1.955373e+003,4.054712e+001
1.956337e+003,4.038934e+001
1.957301e+003,3.967987e+001
1.958265e+003,4.068176e+001
1.959230e+003,4.389478e+001
1.960194e+003,4.543408e+001
1.961158e+003,4.208618e+001
1.962122e+003,3.957227e+001
1.963087e+003,4.044934e+001
1.964051e+003,4.145044e+001
1.965015e+003,4.058539e+001
1.965979e+003,3.989893e+001
1.966944e+003,4.164331e+001
1.967908e+003,4.429272e+001
1.968872e+003,4.486615e+001
1.969836e+003,4.356940e+001
1.970801e+003,4.327002e+001
1.971765e+003,4.519031e+001
1.972729e+003,4.774689e+001
1.973693e+003,4.985382e+001
1.974657e+003,5.096771e+001
1.975622e+003,4.907507e+001
1.976586e+003,4.565436e+001
1.977550e+003,4.574243e+001
1.978514e+003,4.887262e+001
1.979479e+003,5.102844e+001
1.980443e+003,5.149408e+001
1.981407e+003,5.069556e+001
1.982371e+003,4.886633e+001
1.983335e+003,4.782574e+001
1.984300e+003,4.868768e+001
1.985264e+003,5.078583e+001
1.986228e+003,5.375684e+001
1.987192e+003,5.697144e+001
1.988157e+003,5.704639e+001
1.989121e+003,5.338184e+001
1.990085e+003,5.055188e+001
1.991049e+003,4.825653e+001
1.992014e+003,4.794806e+001
1.992978e+003,5.070050e+001
1.993942e+003,5.373877e+001
1.994906e+003,5.715637e+001
1.995871e+003,5.951056e+001
1.996835e+003,5.906512e+001
1.997799e+003,5.758179e+001
1.998763e+003,5.672034e+001
1.999728e+003,5.677814e+001
