5.003444e+002,2.193854e+002
5.013087e+002,2.125609e+002
5.022729e+002,2.059071e+002
5.032371e+002,2.006365e+002
5.042014e+002,1.965105e+002
5.051656e+002,1.936228e+002
5.061298e+002,1.917024e+002
5.070941e+002,1.904646e+002
5.080583e+002,1.898508e+002
5.090225e+002,1.869362e+002
5.099868e+002,1.797251e+002
5.109510e+002,1.729659e+002
5.119152e+002,1.690240e+002
5.128795e+002,1.681614e+002
5.138437e+002,1.689713e+002
5.148079e+002,1.742271e+002
5.157722e+002,1.785585e+002
5.167364e+002,1.789467e+002
5.177006e+002,1.750791e+002
5.186649e+002,1.691421e+002
5.196291e+002,1.631270e+002
5.205933e+002,1.589818e+002
5.215576e+002,1.586085e+002
5.225218e+002,1.609540e+002
5.234860e+002,1.630375e+002
5.244503e+002,1.604197e+002
5.254145e+002,1.525181e+002
5.263787e+002,1.460786e+002
5.273430e+002,1.407759e+002
5.283072e+002,1.370956e+002
5.292714e+002,1.357278e+002
5.302357e+002,1.368833e+002
5.311999e+002,1.370870e+002
5.321641e+002,1.382465e+002
5.331284e+002,1.389648e+002
5.340926e+002,1.368824e+002
5.350568e+002,1.304019e+002
5.360211e+002,1.237284e+002
5.369853e+002,1.232004e+002
5.379495e+002,1.247860e+002
5.389138e+002,1.246793e+002
5.398780e+002,1.213566e+002
5.408422e+002,1.162905e+002
5.418065e+002,1.141940e+002
5.427707e+002,1.145646e+002
5.437349e+002,1.137460e+002
5.446992e+002,1.101176e+002
5.456634e+002,1.048129e+002
5.466276e+002,1.022135e+002
5.475919e+002,1.068580e+002
5.485561e+002,1.094238e+002
5.495203e+002,1.087598e+002
5.504846e+002,1.053800e+002
5.514488e+002,9.999121e+001
5.524130e+002,9.205969e+001
5.533773e+002,8.530115e+001
5.543415e+002,8.109021e+001
5.553057e+002,7.889453e+001
5.562700e+002,7.849438e+001
5.572342e+002,7.960107e+001
5.581984e+002,8.102466e+001
5.591627e+002,8.034387e+001
5.601269e+002,7.882349e+001
5.610911e+002,7.821228e+001
5.620554e+002,7.930127e+001
5.630196e+002,8.123584e+001
5.639838e+002,7.921069e+001
5.649481e+002,6.850659e+001
5.659123e+002,6.080261e+001
5.668765e+002,6.145215e+001
5.678408e+002,6.783105e+001
5.688050e+002,7.080420e+001
5.697692e+002,6.340149e+001
5.707335e+002,5.609167e+001
5.716977e+002,5.290076e+001
5.726619e+002,5.214978e+001
5.736262e+002,5.114563e+001
5.745904e+002,4.800122e+001
5.755546e+002,4.520630e+001
5.765189e+002,4.642798e+001
5.774831e+002,4.932715e+001
5.784473e+002,5.098938e+001
5.794116e+002,4.980359e+001
5.803758e+002,4.657410e+001
5.813400e+002,4.391016e+001
5.823043e+002,4.058899e+001
5.832685e+002,3.723083e+001
5.842327e+002,3.450720e+001
5.851970e+002,3.305505e+001
5.861612e+002,3.336755e+001
5.871254e+002,3.562000e+001
5.880897e+002,3.854590e+001
5.890539e+002,4.288562e+001
5.900181e+002,4.706226e+001
5.909824e+002,4.882654e+001
5.919466e+002,4.661230e+001
5.929108e+002,4.257385e+001
5.938751e+002,3.862769e+001
5.948393e+002,3.499280e+001
5.958035e+002,3.223096e+001
5.967678e+002,3.084448e+001
5.977320e+002,3.097144e+001
5.986962e+002,3.094128e+001
5.996605e+002,2.970642e+001
6.006247e+002,2.859143e+001
6.015889e+002,2.845911e+001
6.025532e+002,2.932593e+001
6.035174e+002,2.987402e+001
6.044816e+002,3.002649e+001
6.054459e+002,3.021753e+001
6.064101e+002,3.005798e+001
6.073743e+002,2.995654e+001
6.083386e+002,3.092078e+001
6.093028e+002,3.436035e+001
6.102670e+002,3.768628e+001
6.112313e+002,3.893701e+001
6.121955e+002,3.863586e+001
6.131597e+002,3.710522e+001
6.141240e+002,3.459497e+001
6.150882e+002,3.158997e+001
6.160524e+002,3.112769e+001
6.170167e+002,3.315552e+001
6.179809e+002,3.549597e+001
6.189451e+002,3.693176e+001
6.199094e+002,3.706555e+001
6.208736e+002,3.602612e+001
6.218378e+002,3.453857e+001
6.228021e+002,3.263354e+001
6.237663e+002,2.933850e+001
6.247305e+002,2.614636e+001
6.256948e+002,2.532275e+001
6.266590e+002,2.798877e+001
6.276232e+002,3.051062e+001
6.285875e+002,3.253052e+001
6.295517e+002,3.359863e+001
6.305159e+002,3.233765e+001
6.314802e+002,2.793701e+001
6.324444e+002,2.165955e+001
6.334086e+002,1.779407e+001
6.343729e+002,1.642212e+001
6.353371e+002,1.707764e+001
6.363013e+002,1.972070e+001
6.372656e+002,2.340259e+001
6.382298e+002,2.552869e+001
6.391940e+002,2.721680e+001
6.401583e+002,2.436462e+001
6.411225e+002,1.395862e+001
6.420867e+002,2.296021e+000
6.430510e+002,-3.402344e+000
6.440152e+002,-5.329590e-001
6.449794e+002,2.856201e+000
6.459437e+002,2.620972e+000
6.469079e+002,1.100708e+000
6.478721e+002,3.879395e-001
6.488364e+002,1.328247e+000
6.498006e+002,2.994995e+000
6.507648e+002,3.377930e+000
6.517291e+002,2.516602e+000
6.526933e+002,7.994385e-001
6.536575e+002,-1.846558e+000
6.546218e+002,-4.600952e+000
6.555860e+002,-5.831177e+000
6.565502e+002,-4.863037e+000
6.575145e+002,-3.786133e+000
6.584787e+002,-1.801270e+000
6.594429e+002,-2.028809e-001
6.604072e+002,-2.036133e-001
6.613714e+002,-2.088013e+000
6.623356e+002,-3.986694e+000
6.632999e+002,-6.611084e+000
6.642641e+002,-8.754272e+000
6.652283e+002,-8.608398e+000
6.661926e+002,-6.157837e+000
6.671568e+002,-2.964233e+000
6.681210e+002,-1.396362e+000
6.690853e+002,-1.066162e+000
6.700495e+002,4.924316e-001
6.710137e+002,3.249512e+000
6.719780e+002,5.633301e+000
6.729422e+002,5.736084e+000
6.739064e+002,2.623169e+000
6.748707e+002,9.598389e-001
6.758349e+002,1.805786e+000
6.767991e+002,2.104736e+000
6.777634e+002,8.874512e-001
6.787276e+002,-1.092407e+000
6.796918e+002,-1.910767e+000
6.806561e+002,-1.347900e+000
6.816203e+002,-4.429932e-001
6.825845e+002,1.426880e+000
6.835488e+002,3.220093e+000
6.845130e+002,3.081787e+000
6.854772e+002,-4.925537e-001
6.864415e+002,-4.666138e+000
6.874057e+002,-4.627808e+000
6.883699e+002,-2.121826e+000
6.893342e+002,1.687622e+000
6.902984e+002,6.760864e+000
6.912626e+002,1.244226e+001
6.922269e+002,1.246362e+001
6.931911e+002,-7.641602e-002
6.941553e+002,-6.393433e+000
6.951196e+002,-1.589233e+000
6.960838e+002,7.631104e+000
6.970480e+002,1.052332e+001
6.980123e+002,2.028564e+000
6.989765e+002,-4.267456e+000
6.999407e+002,-1.572632e+000
7.009050e+002,3.936157e+000
7.018692e+002,7.954590e+000
7.028334e+002,8.649658e+000
7.037977e+002,6.749268e+000
7.047619e+002,2.461060e+000
7.057261e+002,-2.204834e+000
7.066904e+002,-4.059326e+000
7.076546e+002,-2.633301e+000
7.086188e+002,1.907959e-001
7.095831e+002,1.297485e+000
7.105473e+002,-1.048218e+000
7.115115e+002,-7.905273e-001
7.124758e+002,3.086670e+000
7.134400e+002,7.419800e+000
7.144042e+002,1.189978e+001
7.153685e+002,1.656177e+001
7.163327e+002,1.792725e+001
7.172969e+002,1.129407e+001
7.182612e+002,3.728516e+000
7.192254e+002,-4.140869e+000
7.201896e+002,-1.094666e+001
7.211539e+002,-1.457446e+001
7.221181e+002,-1.289966e+001
7.230823e+002,-7.520752e+000
7.240466e+002,-2.149048e+000
7.250108e+002,3.588135e+000
7.259750e+002,7.847656e+000
7.269393e+002,8.639526e+000
7.279035e+002,5.601074e+000
7.288677e+002,2.819092e+000
7.298320e+002,1.542725e+000
7.307962e+002,2.508911e+000
7.317604e+002,7.964478e+000
7.327247e+002,1.505518e+001
7.336889e+002,1.885645e+001
7.346531e+002,1.602246e+001
7.356174e+002,1.171960e+001
7.365816e+002,1.017029e+001
7.375458e+002,1.047327e+001
7.385101e+002,1.212622e+001
7.394743e+002,1.478467e+001
7.404385e+002,1.825574e+001
7.414028e+002,2.253247e+001
7.423670e+002,2.517578e+001
7.433312e+002,2.362109e+001
7.442955e+002,1.869739e+001
7.452597e+002,1.287732e+001
7.462239e+002,7.675781e+000
7.471882e+002,1.988403e+000
7.481524e+002,6.002197e-001
7.491166e+002,4.607788e+000
7.500809e+002,8.440796e+000
7.510451e+002,1.031958e+001
7.520093e+002,1.039148e+001
7.529736e+002,1.001135e+001
7.539378e+002,1.121448e+001
7.549020e+002,1.187329e+001
7.558663e+002,8.722534e+000
7.568306e+002,4.641846e+000
7.577948e+002,4.139526e+000
7.587590e+002,9.371338e+000
7.597233e+002,1.673938e+001
7.606875e+002,1.595801e+001
7.616517e+002,8.750732e+000
7.626160e+002,4.144653e+000
7.635802e+002,5.099365e+000
7.645444e+002,9.501099e+000
7.655087e+002,1.265002e+001
7.664729e+002,1.296704e+001
7.674371e+002,1.501416e+001
7.684014e+002,2.087756e+001
7.693656e+002,2.644409e+001
7.703298e+002,2.934607e+001
7.712941e+002,2.938464e+001
7.722583e+002,2.785962e+001
7.732225e+002,2.354382e+001
7.741868e+002,2.004346e+001
7.751510e+002,2.104541e+001
7.761152e+002,2.540173e+001
7.770795e+002,2.992639e+001
7.780437e+002,3.169946e+001
7.790079e+002,3.082275e+001
7.799722e+002,3.009534e+001
7.809364e+002,2.965259e+001
7.819006e+002,2.848499e+001
7.828649e+002,2.583105e+001
7.838291e+002,2.296765e+001
7.847933e+002,2.317297e+001
7.857576e+002,2.867322e+001
7.867218e+002,3.097510e+001
7.876860e+002,2.726294e+001
7.886503e+002,2.277087e+001
7.896145e+002,2.209766e+001
7.905787e+002,2.628613e+001
7.915430e+002,3.164270e+001
7.925072e+002,3.364185e+001
7.934714e+002,3.349146e+001
7.944357e+002,3.331018e+001
7.953999e+002,3.383447e+001
7.963641e+002,3.498145e+001
7.973284e+002,3.636853e+001
7.982926e+002,3.805469e+001
7.992568e+002,3.874744e+001
8.002211e+002,3.475586e+001
8.011853e+002,3.225085e+001
8.021495e+002,3.818982e+001
8.031138e+002,5.019580e+001
8.040780e+002,5.511865e+001
8.050422e+002,4.282214e+001
8.060065e+002,3.357886e+001
8.069707e+002,3.517493e+001
8.079349e+002,4.077087e+001
8.088992e+002,4.432031e+001
8.098634e+002,4.388354e+001
8.108276e+002,4.220337e+001
8.117919e+002,4.261841e+001
8.127561e+002,4.264172e+001
8.137203e+002,3.971069e+001
8.146846e+002,3.445667e+001
8.156488e+002,2.899670e+001
8.166130e+002,2.504187e+001
8.175773e+002,2.194983e+001
8.185415e+002,2.308069e+001
8.195057e+002,3.087549e+001
8.204700e+002,3.748499e+001
8.214342e+002,4.017346e+001
8.223984e+002,3.971033e+001
8.233627e+002,3.809753e+001
8.243269e+002,3.498718e+001
8.252911e+002,3.369666e+001
8.262554e+002,3.807410e+001
8.272196e+002,4.347498e+001
8.281838e+002,4.409033e+001
8.291481e+002,3.838904e+001
8.301123e+002,3.065808e+001
8.310765e+002,2.847473e+001
8.320408e+002,3.150952e+001
8.330050e+002,3.482910e+001
8.339692e+002,3.872412e+001
8.349335e+002,4.195398e+001
8.358977e+002,4.329651e+001
8.368619e+002,4.297107e+001
8.378262e+002,4.273645e+001
8.387904e+002,4.133850e+001
8.397546e+002,4.019983e+001
8.407189e+002,3.951672e+001
8.416831e+002,3.953284e+001
8.426473e+002,4.063159e+001
8.436116e+002,4.318127e+001
8.445758e+002,4.665356e+001
8.455400e+002,5.056909e+001
8.465043e+002,5.326172e+001
8.474685e+002,5.314893e+001
8.484327e+002,5.080212e+001
8.493970e+002,4.879797e+001
8.503612e+002,5.048157e+001
8.513254e+002,5.624927e+001
8.522897e+002,6.060095e+001
8.532539e+002,6.308264e+001
8.542181e+002,6.392273e+001
8.551824e+002,6.292920e+001
8.561466e+002,6.139270e+001
8.571108e+002,6.339563e+001
8.580751e+002,6.938232e+001
8.590393e+002,7.570459e+001
8.600035e+002,8.351111e+001
8.609678e+002,9.126648e+001
8.619320e+002,9.665649e+001
8.628962e+002,9.882190e+001
8.638605e+002,1.001333e+002
8.648247e+002,1.049189e+002
8.657889e+002,1.111891e+002
8.667532e+002,1.151783e+002
8.677174e+002,1.163735e+002
8.686816e+002,1.155267e+002
8.696459e+002,1.133748e+002
8.706101e+002,1.100336e+002
8.715743e+002,1.080988e+002
8.725386e+002,1.070247e+002
8.735028e+002,1.079927e+002
8.744670e+002,1.115298e+002
8.754313e+002,1.160856e+002
8.763955e+002,1.193617e+002
8.773597e+002,1.205112e+002
8.783240e+002,1.224757e+002
8.792882e+002,1.286343e+002
8.802524e+002,1.349661e+002
8.812167e+002,1.376543e+002
8.821809e+002,1.363253e+002
8.831451e+002,1.334813e+002
8.841094e+002,1.323978e+002
8.850736e+002,1.337714e+002
8.860378e+002,1.373759e+002
8.870021e+002,1.437128e+002
8.879663e+002,1.485861e+002
8.889305e+002,1.483312e+002
8.898948e+002,1.438457e+002
8.908590e+002,1.411028e+002
8.918232e+002,1.416011e+002
8.927875e+002,1.437311e+002
8.937517e+002,1.474275e+002
8.947159e+002,1.521982e+002
8.956802e+002,1.577302e+002
8.966444e+002,1.632029e+002
8.976086e+002,1.672218e+002
8.985729e+002,1.692883e+002
8.995371e+002,1.697355e+002
9.005013e+002,1.672935e+002
9.014656e+002,1.631658e+002
9.024298e+002,1.611135e+002
9.033940e+002,1.636024e+002
9.043583e+002,1.694847e+002
9.053225e+002,1.747817e+002
9.062867e+002,1.804617e+002
9.072510e+002,1.826508e+002
9.082152e+002,1.799437e+002
9.091794e+002,1.764196e+002
9.101437e+002,1.762253e+002
9.111079e+002,1.799615e+002
9.120721e+002,1.832023e+002
9.130364e+002,1.808053e+002
9.140006e+002,1.778970e+002
9.149648e+002,1.787914e+002
9.159291e+002,1.826589e+002
9.168933e+002,1.863058e+002
9.178575e+002,1.871185e+002
9.188218e+002,1.856639e+002
9.197860e+002,1.855088e+002
9.207502e+002,1.864177e+002
9.217145e+002,1.847034e+002
9.226787e+002,1.796617e+002
9.236429e+002,1.736948e+002
9.246072e+002,1.687242e+002
9.255714e+002,1.637424e+002
9.265356e+002,1.617515e+002
9.274999e+002,1.672631e+002
9.284641e+002,1.707161e+002
9.294283e+002,1.680055e+002
9.303926e+002,1.616687e+002
9.313568e+002,1.564431e+002
9.323210e+002,1.547443e+002
9.332853e+002,1.541354e+002
9.342495e+002,1.503904e+002
9.352137e+002,1.449635e+002
9.361780e+002,1.406075e+002
9.371422e+002,1.385366e+002
9.381064e+002,1.385201e+002
9.390707e+002,1.394392e+002
9.400349e+002,1.403167e+002
9.409991e+002,1.429810e+002
9.419634e+002,1.506349e+002
9.429276e+002,1.553654e+002
9.438918e+002,1.527200e+002
9.448561e+002,1.469519e+002
9.458203e+002,1.456504e+002
9.467845e+002,1.518304e+002
9.477488e+002,1.591785e+002
9.487130e+002,1.636594e+002
9.496772e+002,1.664346e+002
9.506415e+002,1.678043e+002
9.516057e+002,1.681389e+002
9.525699e+002,1.679341e+002
9.535342e+002,1.675575e+002
9.544984e+002,1.667335e+002
9.554626e+002,1.659840e+002
9.564269e+002,1.665741e+002
9.573911e+002,1.672715e+002
9.583553e+002,1.668855e+002
9.593196e+002,1.662661e+002
9.602838e+002,1.671578e+002
9.612480e+002,1.698672e+002
9.622123e+002,1.718068e+002
9.631765e+002,1.736824e+002
9.641407e+002,1.738472e+002
9.651050e+002,1.697684e+002
9.660692e+002,1.629325e+002
9.670334e+002,1.567496e+002
9.679977e+002,1.537787e+002
9.689619e+002,1.537706e+002
9.699261e+002,1.553204e+002
9.708904e+002,1.574855e+002
9.718546e+002,1.590938e+002
9.728188e+002,1.589620e+002
9.737831e+002,1.605782e+002
9.747473e+002,1.701439e+002
9.757115e+002,1.901598e+002
9.766758e+002,2.060958e+002
9.776400e+002,2.184093e+002
9.786042e+002,2.274482e+002
9.795685e+002,2.332124e+002
9.805327e+002,2.344142e+002
9.814969e+002,2.291318e+002
9.824612e+002,2.172303e+002
9.834254e+002,2.034745e+002
9.843896e+002,1.892162e+002
9.853539e+002,1.760900e+002
9.863181e+002,1.664424e+002
9.872823e+002,1.597445e+002
9.882466e+002,1.544968e+002
9.892108e+002,1.502078e+002
9.901750e+002,1.483164e+002
9.911393e+002,1.513086e+002
9.921035e+002,1.607998e+002
9.930677e+002,1.681039e+002
9.940320e+002,1.703627e+002
9.949962e+002,1.738926e+002
9.959604e+002,1.861138e+002
9.969247e+002,2.071808e+002
9.978889e+002,2.263011e+002
9.988531e+002,2.355787e+002
9.998174e+002,2.423318e+002
1.000782e+003,2.531444e+002
1.001746e+003,2.653298e+002
1.002710e+003,2.739487e+002
1.003674e+003,2.769352e+002
1.004639e+003,2.767638e+002
1.005603e+003,2.776460e+002
1.006567e+003,2.794138e+002
1.007531e+003,2.830713e+002
1.008495e+003,2.903365e+002
1.009460e+003,2.963898e+002
1.010424e+003,2.982507e+002
1.011388e+003,2.968846e+002
1.012352e+003,2.956099e+002
1.013317e+003,2.959229e+002
1.014281e+003,2.925441e+002
1.015245e+003,2.828251e+002
1.016209e+003,2.699709e+002
1.017174e+003,2.564275e+002
1.018138e+003,2.425303e+002
1.019102e+003,2.267373e+002
1.020066e+003,2.076809e+002
1.021031e+003,1.874634e+002
1.021995e+003,1.702114e+002
1.022959e+003,1.546748e+002
1.023923e+003,1.410432e+002
1.024887e+003,1.293864e+002
1.025852e+003,1.192711e+002
1.026816e+003,1.103889e+002
1.027780e+003,1.034502e+002
1.028744e+003,9.751831e+001
1.029709e+003,9.131702e+001
1.030673e+003,8.712732e+001
1.031637e+003,8.654431e+001
1.032601e+003,8.754138e+001
1.033566e+003,8.804004e+001
1.034530e+003,8.747839e+001
1.035494e+003,8.583606e+001
1.036458e+003,8.192444e+001
1.037422e+003,7.689185e+001
1.038387e+003,7.251001e+001
1.039351e+003,6.883435e+001
1.040315e+003,6.675977e+001
1.041279e+003,6.742761e+001
1.042244e+003,7.056079e+001
1.043208e+003,7.322510e+001
1.044172e+003,7.445483e+001
1.045136e+003,7.514441e+001
1.046101e+003,7.549268e+001
1.047065e+003,7.594824e+001
1.048029e+003,7.665918e+001
1.048993e+003,7.737524e+001
1.049958e+003,7.764709e+001
1.050922e+003,7.731592e+001
1.051886e+003,7.779224e+001
1.052850e+003,8.205615e+001
1.053814e+003,8.691931e+001
1.054779e+003,8.694739e+001
1.055743e+003,8.152759e+001
1.056707e+003,7.600867e+001
1.057671e+003,7.709412e+001
1.058636e+003,8.467847e+001
1.059600e+003,8.809302e+001
1.060564e+003,8.657520e+001
1.061528e+003,8.431238e+001
1.062493e+003,7.911633e+001
1.063457e+003,7.363660e+001
1.064421e+003,7.219507e+001
1.065385e+003,7.545190e+001
1.066349e+003,7.780225e+001
1.067314e+003,7.575281e+001
1.068278e+003,7.274390e+001
1.069242e+003,7.076282e+001
1.070206e+003,7.011255e+001
1.071171e+003,7.115161e+001
1.072135e+003,7.347388e+001
1.073099e+003,7.550916e+001
1.074063e+003,7.521228e+001
1.075028e+003,7.266284e+001
1.075992e+003,7.005286e+001
1.076956e+003,6.631726e+001
1.077920e+003,6.294849e+001
1.078885e+003,6.087708e+001
1.079849e+003,6.043677e+001
1.080813e+003,6.219592e+001
1.081777e+003,6.682678e+001
1.082741e+003,7.105017e+001
1.083706e+003,7.098889e+001
1.084670e+003,7.036157e+001
1.085634e+003,7.225879e+001
1.086598e+003,7.503125e+001
1.087563e+003,7.479919e+001
1.088527e+003,7.004675e+001
1.089491e+003,6.452197e+001
1.090455e+003,6.468115e+001
1.091420e+003,7.067590e+001
1.092384e+003,7.509082e+001
1.093348e+003,7.783289e+001
1.094312e+003,7.816125e+001
1.095276e+003,7.442651e+001
1.096241e+003,6.891821e+001
1.097205e+003,6.781042e+001
1.098169e+003,7.303967e+001
1.099133e+003,7.727026e+001
1.100098e+003,7.777039e+001
1.101062e+003,7.721448e+001
1.102026e+003,7.652893e+001
1.102990e+003,7.635425e+001
1.103955e+003,7.735120e+001
1.104919e+003,7.974683e+001
1.105883e+003,8.261914e+001
1.106847e+003,8.432642e+001
1.107812e+003,8.474231e+001
1.108776e+003,8.608569e+001
1.109740e+003,8.877380e+001
1.110704e+003,9.175769e+001
1.111668e+003,9.522363e+001
1.112633e+003,9.937878e+001
1.113597e+003,1.025267e+002
1.114561e+003,1.024580e+002
1.115525e+003,1.047245e+002
1.116490e+003,1.128156e+002
1.117454e+003,1.214802e+002
1.118418e+003,1.285665e+002
1.119382e+003,1.340720e+002
1.120347e+003,1.378993e+002
1.121311e+003,1.393907e+002
1.122275e+003,1.392063e+002
1.123239e+003,1.406110e+002
1.124203e+003,1.446609e+002
1.125168e+003,1.508749e+002
1.126132e+003,1.605001e+002
1.127096e+003,1.696720e+002
1.128060e+003,1.745020e+002
1.129025e+003,1.756377e+002
1.129989e+003,1.774243e+002
1.130953e+003,1.798889e+002
1.131917e+003,1.827772e+002
1.132882e+003,1.845421e+002
1.133846e+003,1.886273e+002
1.134810e+003,1.976941e+002
1.135774e+003,2.109711e+002
1.136739e+003,2.264105e+002
1.137703e+003,2.427374e+002
1.138667e+003,2.592799e+002
1.139631e+003,2.745250e+002
1.140595e+003,2.888901e+002
1.141560e+003,3.069717e+002
1.142524e+003,3.293271e+002
1.143488e+003,3.565712e+002
1.144452e+003,3.888032e+002
1.145417e+003,4.259733e+002
1.146381e+003,4.677441e+002
1.147345e+003,5.139182e+002
1.148309e+003,5.650474e+002
1.149274e+003,6.243257e+002
1.150238e+003,6.858912e+002
1.151202e+003,7.499658e+002
1.152166e+003,8.143855e+002
1.153130e+003,8.768129e+002
1.154095e+003,9.349033e+002
1.155059e+003,9.846477e+002
1.156023e+003,1.023372e+003
1.156987e+003,1.048763e+003
1.157952e+003,1.052135e+003
1.158916e+003,1.033098e+003
1.159880e+003,1.006170e+003
1.160844e+003,9.787764e+002
1.161809e+003,9.453215e+002
1.162773e+003,8.944996e+002
1.163737e+003,8.228506e+002
1.164701e+003,7.495999e+002
1.165666e+003,6.721953e+002
1.166630e+003,6.034369e+002
1.167594e+003,5.475892e+002
1.168558e+003,5.033105e+002
1.169522e+003,4.688417e+002
1.170487e+003,4.433257e+002
1.171451e+003,4.277721e+002
1.172415e+003,4.240797e+002
1.173379e+003,4.298656e+002
1.174344e+003,4.343929e+002
1.175308e+003,4.383438e+002
1.176272e+003,4.390438e+002
1.177236e+003,4.361066e+002
1.178201e+003,4.297458e+002
1.179165e+003,4.193131e+002
1.180129e+003,4.041069e+002
1.181093e+003,3.858383e+002
1.182057e+003,3.611146e+002
1.183022e+003,3.399694e+002
1.183986e+003,3.258503e+002
1.184950e+003,3.167338e+002
1.185914e+003,3.110872e+002
1.186879e+003,3.086445e+002
1.187843e+003,3.104180e+002
1.188807e+003,3.170972e+002
1.189771e+003,3.264012e+002
1.190736e+003,3.327179e+002
1.191700e+003,3.358099e+002
1.192664e+003,3.365778e+002
1.193628e+003,3.356667e+002
1.194593e+003,3.327550e+002
1.195557e+003,3.269919e+002
1.196521e+003,3.187170e+002
1.197485e+003,3.095626e+002
1.198449e+003,3.000101e+002
1.199414e+003,2.893525e+002
1.200378e+003,2.762433e+002
1.201342e+003,2.630210e+002
1.202306e+003,2.501371e+002
1.203271e+003,2.380232e+002
1.204235e+003,2.278126e+002
1.205199e+003,2.200306e+002
1.206163e+003,2.133031e+002
1.207128e+003,2.051726e+002
1.208092e+003,1.956730e+002
1.209056e+003,1.853771e+002
1.210020e+003,1.755259e+002
1.210984e+003,1.629956e+002
1.211949e+003,1.441786e+002
1.212913e+003,1.234810e+002
1.213877e+003,1.067107e+002
1.214841e+003,9.443726e+001
1.215806e+003,8.443445e+001
1.216770e+003,7.688916e+001
1.217734e+003,6.939526e+001
1.218698e+003,5.846484e+001
1.219663e+003,4.700488e+001
1.220627e+003,3.968213e+001
1.221591e+003,3.655115e+001
1.222555e+003,3.274487e+001
1.223520e+003,2.373669e+001
1.224484e+003,1.168677e+001
1.225448e+003,5.543213e+000
1.226412e+003,8.509033e+000
1.227376e+003,1.035608e+001
1.228341e+003,1.081433e+001
1.229305e+003,1.002686e+001
1.230269e+003,7.166626e+000
1.231233e+003,3.280396e+000
1.232198e+003,7.197266e-001
1.233162e+003,4.396973e-001
1.234126e+003,1.064209e+000
1.235090e+003,1.308105e+000
1.236055e+003,1.336548e+000
1.237019e+003,1.446289e+000
1.237983e+003,1.423950e+000
1.238947e+003,1.088989e+000
1.239911e+003,7.169189e-001
1.240876e+003,1.257080e+000
1.241840e+003,4.187378e+000
1.242804e+003,9.863281e+000
1.243768e+003,1.218909e+001
1.244733e+003,6.915283e+000
1.245697e+003,3.907227e+000
1.246661e+003,3.031006e+000
1.247625e+003,4.106934e+000
1.248590e+003,8.744873e+000
1.249554e+003,1.600769e+001
1.250518e+003,2.241833e+001
1.251482e+003,2.603918e+001
1.252447e+003,2.819531e+001
1.253411e+003,3.103052e+001
1.254375e+003,3.427930e+001
1.255339e+003,3.639392e+001
1.256303e+003,3.770813e+001
1.257268e+003,4.010413e+001
1.258232e+003,4.401575e+001
1.259196e+003,4.881836e+001
1.260160e+003,5.444458e+001
1.261125e+003,6.149377e+001
1.262089e+003,6.940979e+001
1.263053e+003,7.769824e+001
1.264017e+003,8.606946e+001
1.264982e+003,9.635071e+001
1.265946e+003,1.058827e+002
1.266910e+003,1.124615e+002
1.267874e+003,1.157865e+002
1.268839e+003,1.166495e+002
1.269803e+003,1.155988e+002
1.270767e+003,1.125942e+002
1.271731e+003,1.077877e+002
1.272695e+003,1.012021e+002
1.273660e+003,9.035339e+001
1.274624e+003,7.140454e+001
1.275588e+003,5.533228e+001
1.276552e+003,5.135022e+001
1.277517e+003,5.396472e+001
1.278481e+003,5.163354e+001
1.279445e+003,4.312842e+001
1.280409e+003,3.548169e+001
1.281374e+003,3.120361e+001
1.282338e+003,2.824902e+001
1.283302e+003,2.522644e+001
1.284266e+003,2.281543e+001
1.285230e+003,2.266394e+001
1.286195e+003,2.417236e+001
1.287159e+003,2.451404e+001
1.288123e+003,2.163721e+001
1.289087e+003,1.698987e+001
1.290052e+003,1.374316e+001
1.291016e+003,1.199475e+001
1.291980e+003,9.322876e+000
1.292944e+003,2.688843e+000
1.293909e+003,-2.095215e+000
1.294873e+003,2.644043e-001
1.295837e+003,5.097168e+000
1.296801e+003,4.540527e+000
1.297766e+003,-1.890869e+000
1.298730e+003,-5.982300e+000
1.299694e+003,-2.916382e+000
1.300658e+003,2.128784e+000
1.301622e+003,4.563721e+000
1.302587e+003,5.168457e+000
1.303551e+003,4.235474e+000
1.304515e+003,2.247681e+000
1.305479e+003,7.419434e-001
1.306444e+003,5.502930e-001
1.307408e+003,1.314819e+000
1.308372e+003,3.027466e+000
1.309336e+003,6.341553e+000
1.310301e+003,8.383179e+000
1.311265e+003,9.550659e+000
1.312229e+003,9.552246e+000
1.313193e+003,7.941895e+000
1.314157e+003,5.034424e+000
1.315122e+003,-9.436035e-002
1.316086e+003,-6.611206e+000
1.317050e+003,-1.122217e+001
1.318014e+003,-1.143445e+001
1.318979e+003,-8.557129e+000
1.319943e+003,-4.746094e+000
1.320907e+003,6.457520e-002
1.321871e+003,3.765503e+000
1.322836e+003,5.041260e+000
1.323800e+003,6.547607e+000
1.324764e+003,1.102612e+001
1.325728e+003,1.619116e+001
1.326693e+003,1.772046e+001
1.327657e+003,1.510022e+001
1.328621e+003,1.071069e+001
1.329585e+003,4.119141e+000
1.330549e+003,1.440063e+000
1.331514e+003,6.474121e+000
1.332478e+003,1.294263e+001
1.333442e+003,1.566138e+001
1.334406e+003,1.476587e+001
1.335371e+003,1.253381e+001
1.336335e+003,1.043604e+001
1.337299e+003,9.116211e+000
1.338263e+003,9.736938e+000
1.339228e+003,1.272522e+001
1.340192e+003,1.386731e+001
1.341156e+003,1.041418e+001
1.342120e+003,9.205811e+000
1.343084e+003,1.298083e+001
1.344049e+003,1.659302e+001
1.345013e+003,1.568445e+001
1.345977e+003,1.181824e+001
1.346941e+003,9.746094e+000
1.347906e+003,1.118030e+001
1.348870e+003,1.340417e+001
1.349834e+003,1.407727e+001
1.350798e+003,1.316895e+001
1.351763e+003,1.091711e+001
1.352727e+003,7.884521e+000
1.353691e+003,6.467773e+000
1.354655e+003,7.961548e+000
1.355620e+003,1.011963e+001
1.356584e+003,1.005664e+001
1.357548e+003,8.340454e+000
1.358512e+003,8.497437e+000
1.359476e+003,1.123193e+001
1.360441e+003,1.198218e+001
1.361405e+003,8.899048e+000
1.362369e+003,5.103027e+000
1.363333e+003,7.393799e-001
1.364298e+003,-2.677979e+000
1.365262e+003,-2.800171e+000
1.366226e+003,4.599609e-001
1.367190e+003,4.857544e+000
1.368155e+003,8.454590e+000
1.369119e+003,1.078271e+001
1.370083e+003,1.019519e+001
1.371047e+003,5.623535e+000
1.372011e+003,4.400269e+000
1.372976e+003,7.660156e+000
1.373940e+003,1.115955e+001
1.374904e+003,1.384241e+001
1.375868e+003,1.616956e+001
1.376833e+003,1.844543e+001
1.377797e+003,2.054590e+001
1.378761e+003,2.242554e+001
1.379725e+003,2.433435e+001
1.380690e+003,2.576587e+001
1.381654e+003,2.602197e+001
1.382618e+003,2.582007e+001
1.383582e+003,2.556616e+001
1.384547e+003,2.549463e+001
1.385511e+003,2.699866e+001
1.386475e+003,3.105884e+001
1.387439e+003,3.494519e+001
1.388403e+003,3.370581e+001
1.389368e+003,2.729871e+001
1.390332e+003,2.410095e+001
1.391296e+003,2.551917e+001
1.392260e+003,2.882971e+001
1.393225e+003,3.752661e+001
1.394189e+003,4.310828e+001
1.395153e+003,3.753381e+001
1.396117e+003,2.704077e+001
1.397082e+003,2.152991e+001
1.398046e+003,2.363062e+001
1.399010e+003,2.881921e+001
1.399974e+003,3.270447e+001
1.400938e+003,3.429065e+001
1.401903e+003,3.222742e+001
1.402867e+003,2.672375e+001
1.403831e+003,2.493420e+001
1.404795e+003,2.746240e+001
1.405760e+003,3.099023e+001
1.406724e+003,3.489209e+001
1.407688e+003,3.665942e+001
1.408652e+003,3.320386e+001
1.409617e+003,2.630994e+001
1.410581e+003,2.235693e+001
1.411545e+003,2.401526e+001
1.412509e+003,2.822192e+001
1.413474e+003,3.380688e+001
1.414438e+003,3.772205e+001
1.415402e+003,3.466882e+001
1.416366e+003,2.652808e+001
1.417330e+003,2.172620e+001
1.418295e+003,2.397388e+001
1.419259e+003,2.901221e+001
1.420223e+003,3.216357e+001
1.421187e+003,3.318091e+001
1.422152e+003,3.261035e+001
1.423116e+003,3.001782e+001
1.424080e+003,2.985181e+001
1.425044e+003,3.423120e+001
1.426009e+003,3.906555e+001
1.426973e+003,4.396338e+001
1.427937e+003,4.754736e+001
1.428901e+003,4.748901e+001
1.429865e+003,4.486792e+001
1.430830e+003,4.371191e+001
1.431794e+003,4.635815e+001
1.432758e+003,5.071094e+001
1.433722e+003,5.339233e+001
1.434687e+003,5.512634e+001
1.435651e+003,5.889978e+001
1.436615e+003,6.356885e+001
1.437579e+003,6.744507e+001
1.438544e+003,7.026086e+001
1.439508e+003,7.295105e+001
1.440472e+003,7.791211e+001
1.441436e+003,8.344568e+001
1.442401e+003,8.496716e+001
1.443365e+003,8.161914e+001
1.444329e+003,7.850085e+001
1.445293e+003,7.986096e+001
1.446257e+003,8.308704e+001
1.447222e+003,8.244226e+001
1.448186e+003,7.865417e+001
1.449150e+003,7.646960e+001
1.450114e+003,7.665967e+001
1.451079e+003,7.597742e+001
1.452043e+003,7.298230e+001
1.453007e+003,6.896973e+001
1.453971e+003,6.404211e+001
1.454936e+003,5.854150e+001
1.455900e+003,5.750659e+001
1.456864e+003,6.382507e+001
1.457828e+003,6.946301e+001
1.458792e+003,6.820483e+001
1.459757e+003,6.487964e+001
1.460721e+003,6.345764e+001
1.461685e+003,6.304028e+001
1.462649e+003,6.113782e+001
1.463614e+003,5.759326e+001
1.464578e+003,5.536584e+001
1.465542e+003,5.708826e+001
1.466506e+003,6.106152e+001
1.467471e+003,6.314856e+001
1.468435e+003,6.388525e+001
1.469399e+003,6.392554e+001
1.470363e+003,5.956689e+001
1.471328e+003,5.834802e+001
1.472292e+003,6.364380e+001
1.473256e+003,6.956262e+001
1.474220e+003,7.279407e+001
1.475184e+003,7.452319e+001
1.476149e+003,7.708398e+001
1.477113e+003,8.077307e+001
1.478077e+003,8.436243e+001
1.479041e+003,8.726990e+001
1.480006e+003,8.927576e+001
1.480970e+003,8.780115e+001
1.481934e+003,7.999072e+001
1.482898e+003,7.813660e+001
1.483863e+003,8.662024e+001
1.484827e+003,9.387512e+001
1.485791e+003,9.586951e+001
1.486755e+003,9.738782e+001
1.487719e+003,1.024808e+002
1.488684e+003,1.102047e+002
1.489648e+003,1.178210e+002
1.490612e+003,1.247856e+002
1.491576e+003,1.322429e+002
1.492541e+003,1.410038e+002
1.493505e+003,1.502559e+002
1.494469e+003,1.577831e+002
1.495433e+003,1.634058e+002
1.496398e+003,1.711049e+002
1.497362e+003,1.826362e+002
1.498326e+003,1.958225e+002
1.499290e+003,2.084479e+002
1.500255e+003,2.225958e+002
1.501219e+003,2.411144e+002
1.502183e+003,2.634254e+002
1.503147e+003,2.864325e+002
1.504111e+003,3.087892e+002
1.505076e+003,3.352177e+002
1.506040e+003,3.694562e+002
1.507004e+003,4.086826e+002
1.507968e+003,4.486401e+002
1.508933e+003,4.913035e+002
1.509897e+003,5.401720e+002
1.510861e+003,5.973524e+002
1.511825e+003,6.643575e+002
1.512790e+003,7.429561e+002
1.513754e+003,8.285640e+002
1.514718e+003,9.133556e+002
1.515682e+003,9.964015e+002
1.516646e+003,1.085510e+003
1.517611e+003,1.189582e+003
1.518575e+003,1.281465e+003
1.519539e+003,1.350339e+003
1.520503e+003,1.409135e+003
1.521468e+003,1.469221e+003
1.522432e+003,1.520202e+003
1.523396e+003,1.547530e+003
1.524360e+003,1.549535e+003
1.525325e+003,1.534281e+003
1.526289e+003,1.507335e+003
1.527253e+003,1.469278e+003
1.528217e+003,1.420354e+003
1.529182e+003,1.361312e+003
1.530146e+003,1.293495e+003
1.531110e+003,1.217989e+003
1.532074e+003,1.128723e+003
1.533039e+003,1.017614e+003
1.534003e+003,8.999938e+002
1.534967e+003,7.764922e+002
1.535931e+003,6.578263e+002
1.536896e+003,5.522772e+002
1.537860e+003,4.626558e+002
1.538824e+003,3.904279e+002
1.539788e+003,3.354276e+002
1.540752e+003,2.920170e+002
1.541717e+003,2.530702e+002
1.542681e+003,2.198032e+002
1.543645e+003,1.964380e+002
1.544609e+003,1.881899e+002
1.545573e+003,1.792095e+002
1.546538e+003,1.665842e+002
1.547502e+003,1.550200e+002
1.548466e+003,1.468440e+002
1.549430e+003,1.417943e+002
1.550395e+003,1.399960e+002
1.551359e+003,1.399769e+002
1.552323e+003,1.392648e+002
1.553287e+003,1.370344e+002
1.554252e+003,1.336885e+002
1.555216e+003,1.295750e+002
1.556180e+003,1.242408e+002
1.557144e+003,1.158354e+002
1.558109e+003,1.045481e+002
1.559073e+003,9.768616e+001
1.560037e+003,9.655762e+001
1.561001e+003,9.519397e+001
1.561966e+003,9.220630e+001
1.562930e+003,8.948950e+001
1.563894e+003,8.811511e+001
1.564858e+003,8.768872e+001
1.565823e+003,8.770581e+001
1.566787e+003,8.794556e+001
1.567751e+003,8.806982e+001
1.568715e+003,8.807373e+001
1.569679e+003,8.822559e+001
1.570644e+003,8.841406e+001
1.571608e+003,8.837463e+001
1.572572e+003,8.815186e+001
1.573536e+003,8.812695e+001
1.574500e+003,9.107410e+001
1.575465e+003,1.003760e+002
1.576429e+003,1.084435e+002
1.577393e+003,1.066716e+002
1.578357e+003,9.995715e+001
1.579322e+003,9.862561e+001
1.580286e+003,1.032805e+002
1.581250e+003,1.088873e+002
1.582214e+003,1.147679e+002
1.583179e+003,1.179156e+002
1.584143e+003,1.135723e+002
1.585107e+003,1.068127e+002
1.586071e+003,1.050189e+002
1.587036e+003,1.079214e+002
1.588000e+003,1.134871e+002
1.588964e+003,1.211765e+002
1.589928e+003,1.252865e+002
1.590893e+003,1.196641e+002
1.591857e+003,1.108999e+002
1.592821e+003,1.091903e+002
1.593785e+003,1.135861e+002
1.594750e+003,1.180718e+002
1.595714e+003,1.218071e+002
1.596678e+003,1.240984e+002
1.597642e+003,1.228209e+002
1.598606e+003,1.229843e+002
1.599571e+003,1.305454e+002
1.600535e+003,1.410493e+002
1.601499e+003,1.488485e+002
1.602463e+003,1.535358e+002
1.603427e+003,1.570516e+002
1.604392e+003,1.603297e+002
1.605356e+003,1.621226e+002
1.606320e+003,1.608394e+002
1.607284e+003,1.572905e+002
1.608249e+003,1.536268e+002
1.609213e+003,1.498859e+002
1.610177e+003,1.452384e+002
1.611141e+003,1.392606e+002
1.612106e+003,1.331427e+002
1.613070e+003,1.257349e+002
1.614034e+003,1.199164e+002
1.614998e+003,1.195526e+002
1.615963e+003,1.216254e+002
1.616927e+003,1.197551e+002
1.617891e+003,1.136448e+002
1.618855e+003,1.102272e+002
1.619820e+003,1.138606e+002
1.620784e+003,1.187256e+002
1.621748e+003,1.168749e+002
1.622712e+003,1.105128e+002
1.623677e+003,1.075244e+002
1.624641e+003,1.080876e+002
1.625605e+003,1.121549e+002
1.626569e+003,1.214100e+002
1.627533e+003,1.279727e+002
1.628498e+003,1.277230e+002
1.629462e+003,1.251705e+002
1.630426e+003,1.228718e+002
1.631390e+003,1.213114e+002
1.632354e+003,1.213837e+002
1.633319e+003,1.229624e+002
1.634283e+003,1.238115e+002
1.635247e+003,1.220865e+002
1.636211e+003,1.188585e+002
1.637176e+003,1.156725e+002
1.638140e+003,1.129961e+002
1.639104e+003,1.140669e+002
1.640068e+003,1.200598e+002
1.641033e+003,1.244148e+002
1.641997e+003,1.253931e+002
1.642961e+003,1.252390e+002
1.643925e+003,1.248951e+002
1.644890e+003,1.241216e+002
1.645854e+003,1.219730e+002
1.646818e+003,1.190850e+002
1.647782e+003,1.170808e+002
1.648747e+003,1.164498e+002
1.649711e+003,1.171068e+002
1.650675e+003,1.195673e+002
1.651639e+003,1.232555e+002
1.652604e+003,1.264518e+002
1.653568e+003,1.287843e+002
1.654532e+003,1.293936e+002
1.655496e+003,1.280010e+002
1.656460e+003,1.258087e+002
1.657425e+003,1.240546e+002
1.658389e+003,1.208186e+002
1.659353e+003,1.131819e+002
1.660317e+003,1.049529e+002
1.661281e+003,1.005427e+002
1.662246e+003,9.897693e+001
1.663210e+003,9.663660e+001
1.664174e+003,9.256848e+001
1.665138e+003,8.889014e+001
1.666103e+003,8.718726e+001
1.667067e+003,8.646204e+001
1.668031e+003,8.487305e+001
1.668995e+003,8.271936e+001
1.669960e+003,8.245300e+001
1.670924e+003,8.510181e+001
1.671888e+003,8.674084e+001
1.672852e+003,8.532166e+001
1.673817e+003,8.310303e+001
1.674781e+003,8.139661e+001
1.675745e+003,7.969873e+001
1.676709e+003,7.699719e+001
1.677674e+003,7.377942e+001
1.678638e+003,7.212903e+001
1.679602e+003,7.268469e+001
1.680566e+003,7.208545e+001
1.681531e+003,6.731323e+001
1.682495e+003,6.124036e+001
1.683459e+003,5.765564e+001
1.684423e+003,5.617883e+001
1.685387e+003,5.766406e+001
1.686352e+003,6.317932e+001
1.687316e+003,6.499500e+001
1.688280e+003,5.877490e+001
1.689244e+003,5.177588e+001
1.690208e+003,4.821973e+001
1.691173e+003,4.723254e+001
1.692137e+003,5.041077e+001
1.693101e+003,5.605701e+001
1.694065e+003,5.678357e+001
1.695030e+003,5.004895e+001
1.695994e+003,4.380994e+001
1.696958e+003,4.335913e+001
1.697922e+003,4.609888e+001
1.698887e+003,5.076807e+001
1.699851e+003,5.580847e+001
1.700815e+003,5.451965e+001
1.701779e+003,4.628296e+001
1.702744e+003,4.103674e+001
1.703708e+003,4.346094e+001
1.704672e+003,4.583899e+001
1.705636e+003,4.059863e+001
1.706601e+003,3.259753e+001
1.707565e+003,3.091003e+001
1.708529e+003,3.376721e+001
1.709493e+003,3.399609e+001
1.710458e+003,3.037329e+001
1.711422e+003,2.710034e+001
1.712386e+003,2.633386e+001
1.713350e+003,2.692651e+001
1.714314e+003,2.778076e+001
1.715279e+003,2.840686e+001
1.716243e+003,2.882227e+001
1.717207e+003,2.888843e+001
1.718171e+003,2.750183e+001
1.719135e+003,2.449487e+001
1.720100e+003,2.198145e+001
1.721064e+003,2.137427e+001
1.722028e+003,2.100586e+001
1.722992e+003,1.861633e+001
1.723957e+003,1.540979e+001
1.724921e+003,1.520764e+001
1.725885e+003,1.777588e+001
1.726849e+003,1.816748e+001
1.727814e+003,1.535535e+001
1.728778e+003,1.277625e+001
1.729742e+003,1.154114e+001
1.730706e+003,1.108716e+001
1.731671e+003,1.063599e+001
1.732635e+003,9.499878e+000
1.733599e+003,7.203369e+000
1.734563e+003,4.637817e+000
1.735528e+003,4.037720e+000
1.736492e+003,6.308960e+000
1.737456e+003,9.946533e+000
1.738420e+003,1.344836e+001
1.739385e+003,1.591895e+001
1.740349e+003,1.569556e+001
1.741313e+003,1.277698e+001
1.742277e+003,9.355591e+000
1.743241e+003,3.971558e+000
1.744206e+003,1.317993e+000
1.745170e+003,3.718872e+000
1.746134e+003,6.368286e+000
1.747098e+003,6.753296e+000
1.748063e+003,5.769287e+000
1.749027e+003,4.462524e+000
1.749991e+003,3.152954e+000
1.750955e+003,1.619385e+000
1.751919e+003,-1.868896e-001
1.752884e+003,-1.634766e+000
1.753848e+003,-2.194458e+000
1.754812e+003,-2.285400e+000
1.755776e+003,-2.281860e+000
1.756741e+003,-1.702026e+000
1.757705e+003,-1.245361e+000
1.758669e+003,-1.397461e+000
1.759633e+003,-1.640259e+000
1.760598e+003,-2.602905e+000
1.761562e+003,-3.541260e+000
1.762526e+003,-2.798828e+000
1.763490e+003,-2.329956e+000
1.764455e+003,-5.176636e+000
1.765419e+003,-8.227783e+000
1.766383e+003,-5.766479e+000
1.767347e+003,1.295044e+000
1.768312e+003,6.402466e+000
1.769276e+003,6.330200e+000
1.770240e+003,2.671509e+000
1.771204e+003,-3.586182e+000
1.772168e+003,-9.902344e+000
1.773133e+003,-1.131458e+001
1.774097e+003,-8.276855e+000
1.775061e+003,-4.670532e+000
1.776025e+003,-1.117310e+000
1.776990e+003,4.110107e-001
1.777954e+003,-7.231445e-001
1.778918e+003,-2.117554e+000
1.779882e+003,-2.501221e+000
1.780846e+003,-2.902832e+000
1.781811e+003,-4.511719e+000
1.782775e+003,-6.621094e+000
1.783739e+003,-7.192139e+000
1.784703e+003,-5.641113e+000
1.785668e+003,-3.808472e+000
1.786632e+003,-2.879883e+000
1.787596e+003,-2.719727e+000
1.788560e+003,-2.802002e+000
1.789525e+003,-2.400757e+000
1.790489e+003,-1.136719e+000
1.791453e+003,5.050049e-001
1.792417e+003,1.963135e+000
1.793382e+003,3.093262e+000
1.794346e+003,3.644287e+000
1.795310e+003,3.415771e+000
1.796274e+003,2.191284e+000
1.797239e+003,-1.492920e-001
1.798203e+003,-2.383423e+000
1.799167e+003,-2.662109e+000
1.800131e+003,-1.764404e+000
1.801095e+003,-1.773804e+000
1.802060e+003,-1.302612e+000
1.803024e+003,-1.638062e+000
1.803988e+003,-5.046753e+000
1.804952e+003,-7.457275e+000
1.805917e+003,-6.027344e+000
1.806881e+003,-3.489868e+000
1.807845e+003,-2.450684e+000
1.808809e+003,-2.303345e+000
1.809773e+003,-1.172729e+000
1.810738e+003,1.140869e+000
1.811702e+003,3.286011e+000
1.812666e+003,4.334595e+000
1.813630e+003,3.893066e+000
1.814595e+003,9.833984e-001
1.815559e+003,-3.416870e+000
1.816523e+003,-3.997559e+000
1.817487e+003,-8.215332e-002
1.818452e+003,1.313599e+000
1.819416e+003,-9.338379e-001
1.820380e+003,-1.699707e+000
1.821344e+003,1.681519e+000
1.822309e+003,3.874878e+000
1.823273e+003,3.043213e-001
1.824237e+003,-3.978516e+000
1.825201e+003,-3.730713e+000
1.826166e+003,-4.458008e-001
1.827130e+003,2.034546e+000
1.828094e+003,2.788452e+000
1.829058e+003,1.831665e+000
1.830022e+003,-1.091431e+000
1.830987e+003,-4.194092e+000
1.831951e+003,-6.987671e+000
1.832915e+003,-8.330444e+000
1.833879e+003,-5.223022e+000
1.834844e+003,5.196533e-001
1.835808e+003,3.286621e+000
1.836772e+003,2.432129e+000
1.837736e+003,6.795654e-001
1.838700e+003,-1.108154e+000
1.839665e+003,-2.576294e+000
1.840629e+003,-3.167358e+000
1.841593e+003,-2.791138e+000
1.842557e+003,-1.480591e+000
1.843522e+003,7.093506e-001
1.844486e+003,1.684448e+000
1.845450e+003,1.826660e+000
1.846414e+003,1.334839e+000
1.847379e+003,-2.176025e+000
1.848343e+003,-4.869629e+000
1.849307e+003,-3.904419e+000
1.850271e+003,-2.906128e+000
1.851236e+003,-5.081055e+000
1.852200e+003,-7.995239e+000
1.853164e+003,-9.001587e+000
1.854128e+003,-8.187378e+000
1.855093e+003,-5.612061e+000
1.856057e+003,-1.265625e+000
1.857021e+003,1.998169e+000
1.857985e+003,1.298828e+000
1.858949e+003,-1.229980e+000
1.859914e+003,-1.563354e+000
1.860878e+003,-6.005859e-002
1.861842e+003,-9.179688e-002
1.862806e+003,-1.941650e+000
1.863771e+003,-1.370728e+000
1.864735e+003,2.850708e+000
1.865699e+003,5.828491e+000
1.866663e+003,5.209229e+000
1.867627e+003,4.196167e+000
1.868592e+003,5.688354e+000
1.869556e+003,7.542847e+000
1.870520e+003,6.332397e+000
1.871484e+003,2.499512e+000
1.872449e+003,-8.937988e-001
1.873413e+003,-2.655884e+000
1.874377e+003,-1.238525e+000
1.875341e+003,4.908447e+000
1.876306e+003,1.018555e+001
1.877270e+003,1.111938e+001
1.878234e+003,9.862915e+000
1.879198e+003,8.057007e+000
1.880163e+003,6.435059e+000
1.881127e+003,6.071167e+000
1.882091e+003,6.852783e+000
1.883055e+003,7.686279e+000
1.884020e+003,7.962158e+000
1.884984e+003,7.267212e+000
1.885948e+003,5.194946e+000
1.886912e+003,2.795776e+000
1.887876e+003,2.182007e+000
1.888841e+003,3.363403e+000
1.889805e+003,6.333984e+000
1.890769e+003,1.207764e+001
1.891733e+003,1.384583e+001
1.892698e+003,8.169800e+000
1.893662e+003,4.483521e+000
1.894626e+003,8.718750e+000
1.895590e+003,1.265710e+001
1.896554e+003,9.056641e+000
1.897519e+003,3.750610e+000
1.898483e+003,2.933838e+000
1.899447e+003,5.689697e+000
1.900411e+003,1.032312e+001
1.901376e+003,1.703406e+001
1.902340e+003,2.072571e+001
1.903304e+003,1.742944e+001
1.904268e+003,1.370496e+001
1.905233e+003,1.459363e+001
1.906197e+003,1.641211e+001
1.907161e+003,1.444458e+001
1.908125e+003,1.128955e+001
1.909090e+003,1.250769e+001
1.910054e+003,1.689453e+001
1.911018e+003,1.788940e+001
1.911982e+003,1.403088e+001
1.912947e+003,1.101843e+001
1.913911e+003,1.287415e+001
1.914875e+003,1.697131e+001
1.915839e+003,1.904346e+001
1.916803e+003,1.920544e+001
1.917768e+003,2.036865e+001
1.918732e+003,2.326709e+001
1.919696e+003,2.480579e+001
1.920660e+003,2.465576e+001
1.921625e+003,2.494568e+001
1.922589e+003,2.609497e+001
1.923553e+003,2.703137e+001
1.924517e+003,2.711743e+001
1.925481e+003,2.696301e+001
1.926446e+003,2.663733e+001
1.927410e+003,2.669043e+001
1.928374e+003,2.855591e+001
1.929338e+003,3.174231e+001
1.930303e+003,3.320886e+001
1.931267e+003,3.285999e+001
1.932231e+003,3.142676e+001
1.933195e+003,2.650476e+001
1.934160e+003,2.257874e+001
1.935124e+003,2.443408e+001
1.936088e+003,2.759167e+001
1.937052e+003,2.688782e+001
1.938017e+003,2.370276e+001
1.938981e+003,2.112512e+001
1.939945e+003,1.983533e+001
1.940909e+003,1.953564e+001
1.941874e+003,1.986426e+001
1.942838e+003,2.017529e+001
1.943802e+003,2.032690e+001
1.944766e+003,2.076038e+001
1.945730e+003,2.109155e+001
1.946695e+003,2.113184e+001
1.947659e+003,2.299841e+001
1.948623e+003,2.696411e+001
1.949587e+003,2.748926e+001
1.950552e+003,2.294885e+001
1.951516e+003,2.061658e+001
1.952480e+003,2.369568e+001
1.953444e+003,2.780469e+001
1.954408e+003,3.057922e+001
1.955373e+003,3.136121e+001
1.956337e+003,2.843848e+001
1.957301e+003,2.388684e+001
1.958265e+003,2.368127e+001
1.959230e+003,2.875989e+001
1.960194e+003,3.185535e+001
1.961158e+003,2.936011e+001
1.962122e+003,2.697327e+001
1.963087e+003,2.625122e+001
1.964051e+003,2.617273e+001
1.965015e+003,2.695215e+001
1.965979e+003,2.839758e+001
1.966944e+003,3.003052e+001
1.967908e+003,3.131836e+001
1.968872e+003,3.169983e+001
1.969836e+003,3.152148e+001
1.970801e+003,3.217236e+001
1.971765e+003,3.419482e+001
1.972729e+003,3.578394e+001
1.973693e+003,3.514551e+001
1.974657e+003,3.386572e+001
1.975622e+003,3.425891e+001
1.976586e+003,3.552820e+001
1.977550e+003,3.637573e+001
1.978514e+003,3.685413e+001
1.979479e+003,3.600659e+001
1.980443e+003,3.374084e+001
1.981407e+003,3.263623e+001
1.982371e+003,3.385815e+001
1.983335e+003,3.699084e+001
1.984300e+003,4.183337e+001
1.985264e+003,4.589795e+001
1.986228e+003,4.547620e+001
1.987192e+003,4.146265e+001
1.988157e+003,3.846643e+001
1.989121e+003,3.651685e+001
1.990085e+003,3.683569e+001
1.991049e+003,4.259009e+001
1.992014e+003,4.481396e+001
1.992978e+003,3.813196e+001
1.993942e+003,3.306982e+001
1.994906e+003,3.376746e+001
1.995871e+003,3.677966e+001
1.996835e+003,4.155078e+001
1.997799e+003,4.622632e+001
1.998763e+003,4.687610e+001
1.999728e+003,4.441467e+001
