5.003444e+002,3.377869e+001
5.013087e+002,3.240091e+001
5.022729e+002,3.154663e+001
5.032371e+002,3.135257e+001
5.042014e+002,3.138190e+001
5.051656e+002,3.163080e+001
5.061298e+002,3.185880e+001
5.070941e+002,3.185233e+001
5.080583e+002,3.160696e+001
5.090225e+002,3.029367e+001
5.099868e+002,2.686948e+001
5.109510e+002,2.378314e+001
5.119152e+002,2.224884e+001
5.128795e+002,2.238297e+001
5.138437e+002,2.338101e+001
5.148079e+002,2.708136e+001
5.157722e+002,2.977911e+001
5.167364e+002,2.903247e+001
5.177006e+002,2.503616e+001
5.186649e+002,2.054742e+001
5.196291e+002,1.913443e+001
5.205933e+002,1.943933e+001
5.215576e+002,1.976520e+001
5.225218e+002,1.973801e+001
5.234860e+002,1.961511e+001
5.244503e+002,2.013025e+001
5.254145e+002,2.192010e+001
5.263787e+002,2.217850e+001
5.273430e+002,1.963681e+001
5.283072e+002,1.642096e+001
5.292714e+002,1.559375e+001
5.302357e+002,1.851794e+001
5.311999e+002,2.034650e+001
5.321641e+002,2.083057e+001
5.331284e+002,2.047733e+001
5.340926e+002,1.917313e+001
5.350568e+002,1.666437e+001
5.360211e+002,1.443982e+001
5.369853e+002,1.474167e+001
5.379495e+002,1.583856e+001
5.389138e+002,1.615378e+001
5.398780e+002,1.510001e+001
5.408422e+002,1.335556e+001
5.418065e+002,1.295178e+001
5.427707e+002,1.369110e+001
5.437349e+002,1.435184e+001
5.446992e+002,1.459836e+001
5.456634e+002,1.451166e+001
5.466276e+002,1.444803e+001
5.475919e+002,1.429507e+001
5.485561e+002,1.452191e+001
5.495203e+002,1.583914e+001
5.504846e+002,1.715765e+001
5.514488e+002,1.684146e+001
5.524130e+002,1.375052e+001
5.533773e+002,1.050491e+001
5.543415e+002,7.854614e+000
5.553057e+002,6.069183e+000
5.562700e+002,5.678345e+000
5.572342e+002,6.959351e+000
5.581984e+002,8.947845e+000
5.591627e+002,9.451569e+000
5.601269e+002,9.069733e+000
5.610911e+002,8.655426e+000
5.620554e+002,8.579132e+000
5.630196e+002,8.722992e+000
5.639838e+002,8.708893e+000
5.649481e+002,8.447083e+000
5.659123e+002,8.183716e+000
5.668765e+002,8.292877e+000
5.678408e+002,8.705475e+000
5.688050e+002,8.879303e+000
5.697692e+002,8.042999e+000
5.707335e+002,7.232422e+000
5.716977e+002,7.083221e+000
5.726619e+002,7.199066e+000
5.736262e+002,6.888367e+000
5.745904e+002,5.570831e+000
5.755546e+002,4.349915e+000
5.765189e+002,5.039185e+000
5.774831e+002,6.688934e+000
5.784473e+002,7.965057e+000
5.794116e+002,8.038391e+000
5.803758e+002,7.110779e+000
5.813400e+002,5.945648e+000
5.823043e+002,4.056335e+000
5.832685e+002,2.445465e+000
5.842327e+002,1.665894e+000
5.851970e+002,1.757324e+000
5.861612e+002,2.178955e+000
5.871254e+002,3.123718e+000
5.880897e+002,3.852844e+000
5.890539e+002,4.101654e+000
5.900181e+002,3.954926e+000
5.909824e+002,3.623169e+000
5.919466e+002,3.265503e+000
5.929108e+002,2.879059e+000
5.938751e+002,2.359650e+000
5.948393e+002,1.815735e+000
5.958035e+002,1.474060e+000
5.967678e+002,1.520905e+000
5.977320e+002,1.953674e+000
5.986962e+002,1.994934e+000
5.996605e+002,1.323853e+000
6.006247e+002,1.167969e+000
6.015889e+002,2.745087e+000
6.025532e+002,5.849823e+000
6.035174e+002,7.151123e+000
6.044816e+002,3.847198e+000
6.054459e+002,1.763031e+000
6.064101e+002,2.375549e+000
6.073743e+002,4.651306e+000
6.083386e+002,6.727600e+000
6.093028e+002,7.868347e+000
6.102670e+002,8.201843e+000
6.112313e+002,7.883087e+000
6.121955e+002,7.023529e+000
6.131597e+002,5.485687e+000
6.141240e+002,3.212219e+000
6.150882e+002,6.843872e-001
6.160524e+002,4.286804e-001
6.170167e+002,2.119995e+000
6.179809e+002,3.999329e+000
6.189451e+002,5.298859e+000
6.199094e+002,5.949890e+000
6.208736e+002,6.128723e+000
6.218378e+002,5.878265e+000
6.228021e+002,5.425995e+000
6.237663e+002,4.500977e+000
6.247305e+002,3.517822e+000
6.256948e+002,3.160492e+000
6.266590e+002,3.906097e+000
6.276232e+002,4.318298e+000
6.285875e+002,3.194336e+000
6.295517e+002,1.787628e+000
6.305159e+002,1.693085e+000
6.314802e+002,3.615662e+000
6.324444e+002,6.175293e+000
6.334086e+002,5.100555e+000
6.343729e+002,1.739502e+000
6.353371e+002,-9.489746e-001
6.363013e+002,-2.013519e+000
6.372656e+002,-1.729980e+000
6.382298e+002,-8.656616e-001
6.391940e+002,2.397797e+000
6.401583e+002,3.485474e+000
6.411225e+002,1.145782e+000
6.420867e+002,-2.363922e+000
6.430510e+002,-4.494049e+000
6.440152e+002,-4.454407e+000
6.449794e+002,-4.178040e+000
6.459437e+002,-4.965210e+000
6.469079e+002,-5.797455e+000
6.478721e+002,-5.679413e+000
6.488364e+002,-4.311523e+000
6.498006e+002,-2.387909e+000
6.507648e+002,-9.296265e-001
6.517291e+002,-9.045410e-002
6.526933e+002,-5.899048e-001
6.536575e+002,-2.691986e+000
6.546218e+002,-5.028687e+000
6.555860e+002,-4.788879e+000
6.565502e+002,5.309143e-001
6.575145e+002,2.818146e+000
6.584787e+002,8.880615e-002
6.594429e+002,-3.621368e+000
6.604072e+002,-5.113403e+000
6.613714e+002,-3.775208e+000
6.623356e+002,-2.143066e+000
6.632999e+002,-7.903137e-001
6.642641e+002,-2.280579e-001
6.652283e+002,-9.665527e-001
6.661926e+002,-2.715881e+000
6.671568e+002,-4.735840e+000
6.681210e+002,-6.575928e+000
6.690853e+002,-7.746857e+000
6.700495e+002,-6.774048e+000
6.710137e+002,-3.781616e+000
6.719780e+002,-6.645203e-001
6.729422e+002,4.967957e-001
6.739064e+002,-8.482056e-001
6.748707e+002,-1.390594e+000
6.758349e+002,1.741638e-001
6.767991e+002,7.788391e-001
6.777634e+002,-1.894989e+000
6.787276e+002,-7.036255e+000
6.796918e+002,-9.578247e+000
6.806561e+002,-4.874268e+000
6.816203e+002,-5.481567e-001
6.825845e+002,-1.433411e-001
6.835488e+002,-2.031677e+000
6.845130e+002,-3.176453e+000
6.854772e+002,-1.225006e+000
6.864415e+002,2.487000e+000
6.874057e+002,4.741119e+000
6.883699e+002,5.713867e+000
6.893342e+002,6.319244e+000
6.902984e+002,7.177124e+000
6.912626e+002,8.064819e+000
6.922269e+002,7.027924e+000
6.931911e+002,1.493439e+000
6.941553e+002,-1.890594e+000
6.951196e+002,-1.687378e+000
6.960838e+002,3.017578e-001
6.970480e+002,1.343353e+000
6.980123e+002,5.852356e-001
6.989765e+002,-1.178894e-001
6.999407e+002,-1.209106e-001
7.009050e+002,2.539978e-001
7.018692e+002,1.084412e+000
7.028334e+002,2.196899e+000
7.037977e+002,2.775208e+000
7.047619e+002,8.104248e-001
7.057261e+002,-2.150391e+000
7.066904e+002,-2.867523e+000
7.076546e+002,-8.361206e-001
7.086188e+002,2.156494e+000
7.095831e+002,3.231384e+000
7.105473e+002,1.406677e+000
7.115115e+002,3.277893e-001
7.124758e+002,4.391479e-001
7.134400e+002,5.720825e-001
7.144042e+002,-1.329956e-001
7.153685e+002,-1.593903e+000
7.163327e+002,-2.376373e+000
7.172969e+002,-1.347595e+000
7.182612e+002,1.835022e-001
7.192254e+002,2.392029e+000
7.201896e+002,4.546448e+000
7.211539e+002,5.293823e+000
7.221181e+002,3.318665e+000
7.230823e+002,1.358032e-002
7.240466e+002,-7.603455e-001
7.250108e+002,6.253967e-001
7.259750e+002,2.598694e+000
7.269393e+002,4.283173e+000
7.279035e+002,5.351318e+000
7.288677e+002,4.704926e+000
7.298320e+002,-2.138367e-001
7.307962e+002,-2.852448e+000
7.317604e+002,-1.375824e+000
7.327247e+002,2.106476e+000
7.336889e+002,4.559723e+000
7.346531e+002,4.779846e+000
7.356174e+002,4.268799e+000
7.365816e+002,4.465271e+000
7.375458e+002,4.659729e+000
7.385101e+002,3.944550e+000
7.394743e+002,2.298096e+000
7.404385e+002,7.987061e-001
7.414028e+002,1.345734e+000
7.423670e+002,2.935272e+000
7.433312e+002,2.452637e+000
7.442955e+002,-2.155457e-001
7.452597e+002,-3.030334e+000
7.462239e+002,-3.790009e+000
7.471882e+002,-2.075836e+000
7.481524e+002,-3.518982e-001
7.491166e+002,1.699249e+000
7.500809e+002,2.899261e+000
7.510451e+002,2.186127e+000
7.520093e+002,1.575317e-001
7.529736e+002,-1.086090e+000
7.539378e+002,-5.416870e-002
7.549020e+002,1.778839e+000
7.558663e+002,3.716309e+000
7.568306e+002,5.566925e+000
7.577948e+002,7.173737e+000
7.587590e+002,8.347473e+000
7.597233e+002,8.829742e+000
7.606875e+002,7.946716e+000
7.616517e+002,6.008301e+000
7.626160e+002,3.996857e+000
7.635802e+002,2.072388e+000
7.645444e+002,3.774109e-001
7.655087e+002,-9.043274e-001
7.664729e+002,-2.145020e+000
7.674371e+002,-2.067108e+000
7.684014e+002,6.431885e-001
7.693656e+002,3.267487e+000
7.703298e+002,3.967072e+000
7.712941e+002,2.639252e+000
7.722583e+002,8.966675e-001
7.732225e+002,-6.642456e-001
7.741868e+002,-1.609283e+000
7.751510e+002,-1.369019e+000
7.761152e+002,-2.113953e-001
7.770795e+002,1.128967e+000
7.780437e+002,1.976532e+000
7.790079e+002,2.428314e+000
7.799722e+002,4.391388e+000
7.809364e+002,8.284790e+000
7.819006e+002,1.054645e+001
7.828649e+002,9.155365e+000
7.838291e+002,5.270874e+000
7.847933e+002,2.382843e+000
7.857576e+002,3.538818e-001
7.867218e+002,-5.821228e-001
7.876860e+002,8.410645e-001
7.886503e+002,2.661255e+000
7.896145e+002,2.997101e+000
7.905787e+002,1.452515e+000
7.915430e+002,-1.909790e-001
7.925072e+002,-7.015991e-002
7.934714e+002,7.558899e-001
7.944357e+002,1.822144e+000
7.953999e+002,2.934387e+000
7.963641e+002,3.320770e+000
7.973284e+002,1.954681e+000
7.982926e+002,-1.336670e+000
7.992568e+002,-2.820984e+000
8.002211e+002,-2.464172e+000
8.011853e+002,-1.823578e+000
8.021495e+002,-1.071655e+000
8.031138e+002,3.884888e-002
8.040780e+002,1.600433e+000
8.050422e+002,3.609955e+000
8.060065e+002,5.581665e+000
8.069707e+002,7.825470e+000
8.079349e+002,9.486633e+000
8.088992e+002,9.582825e+000
8.098634e+002,7.965057e+000
8.108276e+002,5.810791e+000
8.117919e+002,4.644989e+000
8.127561e+002,3.737335e+000
8.137203e+002,1.953888e+000
8.146846e+002,-5.976868e-001
8.156488e+002,-2.584290e+000
8.166130e+002,-2.289032e+000
8.175773e+002,9.432678e-001
8.185415e+002,2.118835e+000
8.195057e+002,-1.127563e+000
8.204700e+002,-3.484833e+000
8.214342e+002,-2.416718e+000
8.223984e+002,9.022217e-001
8.233627e+002,3.100067e+000
8.243269e+002,2.459473e+000
8.252911e+002,1.899689e+000
8.262554e+002,3.275848e+000
8.272196e+002,5.448395e+000
8.281838e+002,7.403809e+000
8.291481e+002,8.666016e+000
8.301123e+002,9.299164e+000
8.310765e+002,9.305115e+000
8.320408e+002,8.653320e+000
8.330050e+002,7.921509e+000
8.339692e+002,7.049469e+000
8.349335e+002,6.531494e+000
8.358977e+002,7.258759e+000
8.368619e+002,9.664978e+000
8.378262e+002,1.089819e+001
8.387904e+002,9.392792e+000
8.397546e+002,8.115234e+000
8.407189e+002,8.245575e+000
8.416831e+002,9.019440e+000
8.426473e+002,8.823486e+000
8.436116e+002,6.714020e+000
8.445758e+002,4.625549e+000
8.455400e+002,4.364716e+000
8.465043e+002,4.987183e+000
8.474685e+002,6.026611e+000
8.484327e+002,7.344025e+000
8.493970e+002,8.657959e+000
8.503612e+002,9.219299e+000
8.513254e+002,8.730164e+000
8.522897e+002,9.168304e+000
8.532539e+002,1.126334e+001
8.542181e+002,1.298886e+001
8.551824e+002,1.295871e+001
8.561466e+002,1.163086e+001
8.571108e+002,1.138959e+001
8.580751e+002,1.340320e+001
8.590393e+002,1.468893e+001
8.600035e+002,1.397327e+001
8.609678e+002,1.256549e+001
8.619320e+002,1.187961e+001
8.628962e+002,1.246594e+001
8.638605e+002,1.370340e+001
8.648247e+002,1.491888e+001
8.657889e+002,1.600375e+001
8.667532e+002,1.683517e+001
8.677174e+002,1.739066e+001
8.686816e+002,1.759946e+001
8.696459e+002,1.729208e+001
8.706101e+002,1.637134e+001
8.715743e+002,1.649561e+001
8.725386e+002,1.873975e+001
8.735028e+002,2.060159e+001
8.744670e+002,2.105893e+001
8.754313e+002,2.053772e+001
8.763955e+002,2.006836e+001
8.773597e+002,2.009985e+001
8.783240e+002,2.017120e+001
8.792882e+002,1.975934e+001
8.802524e+002,1.918661e+001
8.812167e+002,1.840582e+001
8.821809e+002,1.768753e+001
8.831451e+002,1.794083e+001
8.841094e+002,2.052844e+001
8.850736e+002,2.539209e+001
8.860378e+002,2.810471e+001
8.870021e+002,2.827826e+001
8.879663e+002,2.775052e+001
8.889305e+002,2.709540e+001
8.898948e+002,2.636047e+001
8.908590e+002,2.615912e+001
8.918232e+002,2.714597e+001
8.927875e+002,2.799393e+001
8.937517e+002,2.839008e+001
8.947159e+002,2.859146e+001
8.956802e+002,2.855545e+001
8.966444e+002,2.827243e+001
8.976086e+002,2.805066e+001
8.985729e+002,2.841611e+001
8.995371e+002,2.929181e+001
9.005013e+002,3.042947e+001
9.014656e+002,3.179831e+001
9.024298e+002,3.301868e+001
9.033940e+002,3.370013e+001
9.043583e+002,3.371182e+001
9.053225e+002,3.319028e+001
9.062867e+002,3.078879e+001
9.072510e+002,2.940900e+001
9.082152e+002,3.043820e+001
9.091794e+002,3.206122e+001
9.101437e+002,3.225485e+001
9.111079e+002,3.066660e+001
9.120721e+002,2.917557e+001
9.130364e+002,2.880289e+001
9.140006e+002,2.860693e+001
9.149648e+002,2.813519e+001
9.159291e+002,2.765720e+001
9.168933e+002,2.755606e+001
9.178575e+002,2.802106e+001
9.188218e+002,2.898959e+001
9.197860e+002,3.083698e+001
9.207502e+002,3.355096e+001
9.217145e+002,3.511987e+001
9.226787e+002,3.520917e+001
9.236429e+002,3.439853e+001
9.246072e+002,3.318768e+001
9.255714e+002,3.139383e+001
9.265356e+002,2.936304e+001
9.274999e+002,2.626099e+001
9.284641e+002,2.374591e+001
9.294283e+002,2.257144e+001
9.303926e+002,2.250470e+001
9.313568e+002,2.322189e+001
9.323210e+002,2.462128e+001
9.332853e+002,2.583945e+001
9.342495e+002,2.480289e+001
9.352137e+002,2.273999e+001
9.361780e+002,2.187091e+001
9.371422e+002,2.278769e+001
9.381064e+002,2.421188e+001
9.390707e+002,2.416656e+001
9.400349e+002,2.210175e+001
9.409991e+002,2.099976e+001
9.419634e+002,2.146225e+001
9.429276e+002,2.187598e+001
9.438918e+002,2.157352e+001
9.448561e+002,2.111316e+001
9.458203e+002,2.161868e+001
9.467845e+002,2.365335e+001
9.477488e+002,2.568964e+001
9.487130e+002,2.651083e+001
9.496772e+002,2.682220e+001
9.506415e+002,2.700146e+001
9.516057e+002,2.717349e+001
9.525699e+002,2.736194e+001
9.535342e+002,2.756702e+001
9.544984e+002,2.771945e+001
9.554626e+002,2.792020e+001
9.564269e+002,2.857968e+001
9.573911e+002,2.883014e+001
9.583553e+002,2.800131e+001
9.593196e+002,2.669995e+001
9.602838e+002,2.570303e+001
9.612480e+002,2.472678e+001
9.622123e+002,2.519263e+001
9.631765e+002,2.994382e+001
9.641407e+002,3.391873e+001
9.651050e+002,3.427094e+001
9.660692e+002,3.183817e+001
9.670334e+002,2.859641e+001
9.679977e+002,2.580646e+001
9.689619e+002,2.429022e+001
9.699261e+002,2.715668e+001
9.708904e+002,3.248947e+001
9.718546e+002,3.473389e+001
9.728188e+002,3.222269e+001
9.737831e+002,2.784448e+001
9.747473e+002,2.529425e+001
9.757115e+002,2.483713e+001
9.766758e+002,2.521298e+001
9.776400e+002,2.731561e+001
9.786042e+002,2.945770e+001
9.795685e+002,3.147244e+001
9.805327e+002,3.294714e+001
9.814969e+002,3.353491e+001
9.824612e+002,3.323233e+001
9.834254e+002,3.239243e+001
9.843896e+002,3.058459e+001
9.853539e+002,2.854306e+001
9.863181e+002,2.742700e+001
9.872823e+002,2.694061e+001
9.882466e+002,2.568799e+001
9.892108e+002,2.259045e+001
9.901750e+002,1.841895e+001
9.911393e+002,1.714951e+001
9.921035e+002,2.035242e+001
9.930677e+002,2.309744e+001
9.940320e+002,2.527094e+001
9.949962e+002,2.724292e+001
9.959604e+002,2.939841e+001
9.969247e+002,3.177493e+001
9.978889e+002,3.377472e+001
9.988531e+002,3.415100e+001
9.998174e+002,3.472595e+001
1.000782e+003,3.730563e+001
1.001746e+003,4.084818e+001
1.002710e+003,4.363293e+001
1.003674e+003,4.492905e+001
1.004639e+003,4.560797e+001
1.005603e+003,4.734042e+001
1.006567e+003,5.017712e+001
1.007531e+003,5.092075e+001
1.008495e+003,4.876645e+001
1.009460e+003,4.634012e+001
1.010424e+003,4.493402e+001
1.011388e+003,4.455908e+001
1.012352e+003,4.543112e+001
1.013317e+003,4.898157e+001
1.014281e+003,5.053561e+001
1.015245e+003,4.776459e+001
1.016209e+003,4.359421e+001
1.017174e+003,3.995316e+001
1.018138e+003,3.716437e+001
1.019102e+003,3.443307e+001
1.020066e+003,3.108264e+001
1.021031e+003,2.772305e+001
1.021995e+003,2.595020e+001
1.022959e+003,2.527512e+001
1.023923e+003,2.463599e+001
1.024887e+003,2.380380e+001
1.025852e+003,2.256873e+001
1.026816e+003,2.040436e+001
1.027780e+003,1.701056e+001
1.028744e+003,1.483636e+001
1.029709e+003,1.447635e+001
1.030673e+003,1.477048e+001
1.031637e+003,1.623169e+001
1.032601e+003,1.769159e+001
1.033566e+003,1.751050e+001
1.034530e+003,1.520840e+001
1.035494e+003,1.234003e+001
1.036458e+003,1.017722e+001
1.037422e+003,8.706421e+000
1.038387e+003,8.053986e+000
1.039351e+003,8.106598e+000
1.040315e+003,8.402008e+000
1.041279e+003,8.661194e+000
1.042244e+003,9.011230e+000
1.043208e+003,9.791931e+000
1.044172e+003,1.177072e+001
1.045136e+003,1.237207e+001
1.046101e+003,1.033618e+001
1.047065e+003,8.375641e+000
1.048029e+003,8.690216e+000
1.048993e+003,1.063226e+001
1.049958e+003,1.122537e+001
1.050922e+003,8.402405e+000
1.051886e+003,5.970764e+000
1.052850e+003,9.084747e+000
1.053814e+003,1.422092e+001
1.054779e+003,1.685825e+001
1.055743e+003,1.600540e+001
1.056707e+003,1.341229e+001
1.057671e+003,1.111755e+001
1.058636e+003,9.084137e+000
1.059600e+003,7.594910e+000
1.060564e+003,6.600677e+000
1.061528e+003,6.613556e+000
1.062493e+003,8.545197e+000
1.063457e+003,1.064688e+001
1.064421e+003,1.085806e+001
1.065385e+003,9.063599e+000
1.066349e+003,7.506836e+000
1.067314e+003,7.583191e+000
1.068278e+003,7.948029e+000
1.069242e+003,7.361633e+000
1.070206e+003,6.563293e+000
1.071171e+003,6.920776e+000
1.072135e+003,8.795258e+000
1.073099e+003,1.091931e+001
1.074063e+003,1.123047e+001
1.075028e+003,9.552246e+000
1.075992e+003,9.223755e+000
1.076956e+003,1.124841e+001
1.077920e+003,1.243466e+001
1.078885e+003,1.081940e+001
1.079849e+003,8.130615e+000
1.080813e+003,7.902039e+000
1.081777e+003,1.125107e+001
1.082741e+003,1.359958e+001
1.083706e+003,1.103223e+001
1.084670e+003,7.815857e+000
1.085634e+003,5.801361e+000
1.086598e+003,5.070160e+000
1.087563e+003,5.642029e+000
1.088527e+003,7.454529e+000
1.089491e+003,9.575531e+000
1.090455e+003,9.792023e+000
1.091420e+003,7.696198e+000
1.092384e+003,6.604950e+000
1.093348e+003,6.635651e+000
1.094312e+003,7.133667e+000
1.095276e+003,8.249664e+000
1.096241e+003,9.739563e+000
1.097205e+003,1.047284e+001
1.098169e+003,1.000577e+001
1.099133e+003,9.268799e+000
1.100098e+003,8.071472e+000
1.101062e+003,7.383209e+000
1.102026e+003,8.205933e+000
1.102990e+003,1.005435e+001
1.103955e+003,1.176688e+001
1.104919e+003,1.259863e+001
1.105883e+003,1.267120e+001
1.106847e+003,1.209854e+001
1.107812e+003,1.089233e+001
1.108776e+003,1.116281e+001
1.109740e+003,1.389740e+001
1.110704e+003,1.625537e+001
1.111668e+003,1.580331e+001
1.112633e+003,1.340286e+001
1.113597e+003,1.250247e+001
1.114561e+003,1.416086e+001
1.115525e+003,1.520334e+001
1.116490e+003,1.325604e+001
1.117454e+003,1.168860e+001
1.118418e+003,1.351666e+001
1.119382e+003,1.779645e+001
1.120347e+003,2.141776e+001
1.121311e+003,2.234000e+001
1.122275e+003,2.154602e+001
1.123239e+003,2.136902e+001
1.124203e+003,2.200073e+001
1.125168e+003,2.274991e+001
1.126132e+003,2.373642e+001
1.127096e+003,2.455646e+001
1.128060e+003,2.441449e+001
1.129025e+003,2.361813e+001
1.129989e+003,2.412030e+001
1.130953e+003,2.681207e+001
1.131917e+003,2.886194e+001
1.132882e+003,2.922812e+001
1.133846e+003,2.926010e+001
1.134810e+003,2.956653e+001
1.135774e+003,3.029092e+001
1.136739e+003,3.140134e+001
1.137703e+003,3.286191e+001
1.138667e+003,3.460165e+001
1.139631e+003,3.636295e+001
1.140595e+003,3.832126e+001
1.141560e+003,4.186011e+001
1.142524e+003,4.738443e+001
1.143488e+003,5.380319e+001
1.144452e+003,6.062698e+001
1.145417e+003,6.770450e+001
1.146381e+003,7.418732e+001
1.147345e+003,7.907745e+001
1.148309e+003,8.596716e+001
1.149274e+003,9.675031e+001
1.150238e+003,1.087007e+002
1.151202e+003,1.211312e+002
1.152166e+003,1.337329e+002
1.153130e+003,1.466908e+002
1.154095e+003,1.597410e+002
1.155059e+003,1.710816e+002
1.156023e+003,1.786823e+002
1.156987e+003,1.822165e+002
1.157952e+003,1.813617e+002
1.158916e+003,1.758811e+002
1.159880e+003,1.697075e+002
1.160844e+003,1.653799e+002
1.161809e+003,1.609290e+002
1.162773e+003,1.519419e+002
1.163737e+003,1.372402e+002
1.164701e+003,1.233659e+002
1.165666e+003,1.124450e+002
1.166630e+003,1.024665e+002
1.167594e+003,9.223508e+001
1.168558e+003,8.264749e+001
1.169522e+003,7.487433e+001
1.170487e+003,6.934195e+001
1.171451e+003,6.611490e+001
1.172415e+003,6.553958e+001
1.173379e+003,6.688315e+001
1.174344e+003,6.616150e+001
1.175308e+003,6.326736e+001
1.176272e+003,6.147079e+001
1.177236e+003,6.320425e+001
1.178201e+003,6.561441e+001
1.179165e+003,6.466211e+001
1.180129e+003,6.017154e+001
1.181093e+003,5.557748e+001
1.182057e+003,5.064786e+001
1.183022e+003,4.738483e+001
1.183986e+003,4.768671e+001
1.184950e+003,4.896893e+001
1.185914e+003,4.873062e+001
1.186879e+003,4.687006e+001
1.187843e+003,4.493533e+001
1.188807e+003,4.412213e+001
1.189771e+003,4.412152e+001
1.190736e+003,4.424686e+001
1.191700e+003,4.445432e+001
1.192664e+003,4.517053e+001
1.193628e+003,4.686703e+001
1.194593e+003,4.873914e+001
1.195557e+003,5.079953e+001
1.196521e+003,5.254907e+001
1.197485e+003,5.199747e+001
1.198449e+003,4.813959e+001
1.199414e+003,4.432770e+001
1.200378e+003,4.212405e+001
1.201342e+003,4.045151e+001
1.202306e+003,3.862036e+001
1.203271e+003,3.669363e+001
1.204235e+003,3.512140e+001
1.205199e+003,3.412219e+001
1.206163e+003,3.333676e+001
1.207128e+003,3.210526e+001
1.208092e+003,3.041641e+001
1.209056e+003,2.893399e+001
1.210020e+003,2.808197e+001
1.210984e+003,2.663080e+001
1.211949e+003,2.367374e+001
1.212913e+003,2.019077e+001
1.213877e+003,1.748074e+001
1.214841e+003,1.567462e+001
1.215806e+003,1.426657e+001
1.216770e+003,1.349023e+001
1.217734e+003,1.226712e+001
1.218698e+003,9.409332e+000
1.219663e+003,5.898438e+000
1.220627e+003,2.773865e+000
1.221591e+003,3.702087e-001
1.222555e+003,-1.362396e+000
1.223520e+003,-2.443390e+000
1.224484e+003,-2.729736e+000
1.225448e+003,-1.817871e+000
1.226412e+003,1.687439e+000
1.227376e+003,2.996796e+000
1.228341e+003,6.482239e-001
1.229305e+003,-2.273071e+000
1.230269e+003,-4.814758e+000
1.231233e+003,-6.564178e+000
1.232198e+003,-6.476440e+000
1.233162e+003,-4.106750e+000
1.234126e+003,-1.681122e+000
1.235090e+003,-1.009369e+000
1.236055e+003,-1.102295e+000
1.237019e+003,-6.736450e-001
1.237983e+003,-9.393311e-002
1.238947e+003,-4.474487e-001
1.239911e+003,-2.091522e+000
1.240876e+003,-4.001740e+000
1.241840e+003,-4.727570e+000
1.242804e+003,-4.197693e+000
1.243768e+003,-3.658752e+000
1.244733e+003,-3.273590e+000
1.245697e+003,-2.625092e+000
1.246661e+003,-1.315918e+000
1.247625e+003,-3.558350e-001
1.248590e+003,-8.804626e-001
1.249554e+003,-2.219055e+000
1.250518e+003,-2.252472e+000
1.251482e+003,2.792358e-002
1.252447e+003,2.209564e+000
1.253411e+003,9.671021e-001
1.254375e+003,-2.002533e+000
1.255339e+003,-3.247986e+000
1.256303e+003,-2.574310e+000
1.257268e+003,-1.235352e+000
1.258232e+003,-4.833984e-002
1.259196e+003,1.151855e+000
1.260160e+003,3.284912e+000
1.261125e+003,6.865143e+000
1.262089e+003,8.972626e+000
1.263053e+003,7.169800e+000
1.264017e+003,6.213196e+000
1.264982e+003,8.272247e+000
1.265946e+003,1.100906e+001
1.266910e+003,1.221896e+001
1.267874e+003,1.181219e+001
1.268839e+003,1.106003e+001
1.269803e+003,1.081210e+001
1.270767e+003,1.061252e+001
1.271731e+003,9.461182e+000
1.272695e+003,7.480316e+000
1.273660e+003,6.164886e+000
1.274624e+003,5.423340e+000
1.275588e+003,5.006989e+000
1.276552e+003,5.235687e+000
1.277517e+003,5.791473e+000
1.278481e+003,6.062531e+000
1.279445e+003,6.015198e+000
1.280409e+003,4.932495e+000
1.281374e+003,1.652588e+000
1.282338e+003,-1.417389e+000
1.283302e+003,-3.087891e+000
1.284266e+003,-3.897552e+000
1.285230e+003,-4.489777e+000
1.286195e+003,-4.959015e+000
1.287159e+003,-4.843964e+000
1.288123e+003,-3.695953e+000
1.289087e+003,-1.865631e+000
1.290052e+003,-7.260437e-001
1.291016e+003,-5.827026e-001
1.291980e+003,-5.429993e-001
1.292944e+003,-1.104340e+000
1.293909e+003,-1.402954e+000
1.294873e+003,-2.920227e-001
1.295837e+003,1.064575e+000
1.296801e+003,5.755005e-001
1.297766e+003,-1.839142e+000
1.298730e+003,-3.472321e+000
1.299694e+003,-2.400055e+000
1.300658e+003,-1.229828e+000
1.301622e+003,-3.849243e+000
1.302587e+003,-7.795563e+000
1.303551e+003,-8.717743e+000
1.304515e+003,-6.053040e+000
1.305479e+003,-3.251648e+000
1.306444e+003,-3.278900e+000
1.307408e+003,-5.197479e+000
1.308372e+003,-5.531860e+000
1.309336e+003,-3.632477e+000
1.310301e+003,-2.180817e+000
1.311265e+003,-1.060150e+000
1.312229e+003,-5.263062e-001
1.313193e+003,-1.144806e+000
1.314157e+003,-2.149445e+000
1.315122e+003,-2.641052e+000
1.316086e+003,-2.679260e+000
1.317050e+003,-3.212036e+000
1.318014e+003,-4.860626e+000
1.318979e+003,-6.656464e+000
1.319943e+003,-7.027740e+000
1.320907e+003,-5.930695e+000
1.321871e+003,-3.873566e+000
1.322836e+003,-5.469360e-001
1.323800e+003,1.857941e+000
1.324764e+003,1.866425e+000
1.325728e+003,4.569702e-001
1.326693e+003,-1.074310e+000
1.327657e+003,-2.782074e+000
1.328621e+003,-3.716492e+000
1.329585e+003,-2.835785e+000
1.330549e+003,-1.593323e+000
1.331514e+003,-1.101563e+000
1.332478e+003,-1.025146e+000
1.333442e+003,-8.411255e-001
1.334406e+003,-5.459290e-001
1.335371e+003,-6.734924e-001
1.336335e+003,-1.516632e+000
1.337299e+003,-2.407928e+000
1.338263e+003,-2.069885e+000
1.339228e+003,-2.959595e-001
1.340192e+003,8.287354e-001
1.341156e+003,1.001312e+000
1.342120e+003,1.015594e+000
1.343084e+003,6.732788e-001
1.344049e+003,2.105713e-001
1.345013e+003,-2.615051e-001
1.345977e+003,-4.668579e-001
1.346941e+003,2.527466e-001
1.347906e+003,2.184845e+000
1.348870e+003,4.118469e+000
1.349834e+003,5.230255e+000
1.350798e+003,5.175446e+000
1.351763e+003,3.045868e+000
1.352727e+003,-6.199036e-001
1.353691e+003,-2.905121e+000
1.354655e+003,-2.620850e+000
1.355620e+003,-1.059967e+000
1.356584e+003,5.151978e-001
1.357548e+003,2.138550e+000
1.358512e+003,3.802277e+000
1.359476e+003,5.874695e+000
1.360441e+003,6.450684e+000
1.361405e+003,3.958527e+000
1.362369e+003,1.256378e+000
1.363333e+003,-8.911133e-002
1.364298e+003,-8.409729e-001
1.365262e+003,-2.556946e+000
1.366226e+003,-5.319183e+000
1.367190e+003,-7.552673e+000
1.368155e+003,-7.869019e+000
1.369119e+003,-6.424683e+000
1.370083e+003,-3.452728e+000
1.371047e+003,2.116699e+000
1.372011e+003,4.639740e+000
1.372976e+003,1.647339e+000
1.373940e+003,-1.302673e+000
1.374904e+003,-2.098053e+000
1.375868e+003,-1.663300e+000
1.376833e+003,-8.377991e-001
1.377797e+003,5.142212e-002
1.378761e+003,2.410889e-002
1.379725e+003,-1.591675e+000
1.380690e+003,-3.265656e+000
1.381654e+003,-3.474060e+000
1.382618e+003,-2.637878e+000
1.383582e+003,-8.952942e-001
1.384547e+003,1.507477e+000
1.385511e+003,3.266266e+000
1.386475e+003,3.574341e+000
1.387439e+003,3.183899e+000
1.388403e+003,3.617401e+000
1.389368e+003,4.849884e+000
1.390332e+003,3.855042e+000
1.391296e+003,-1.421814e+000
1.392260e+003,-4.677765e+000
1.393225e+003,-3.440491e+000
1.394189e+003,-1.282959e+000
1.395153e+003,2.528381e-001
1.396117e+003,1.172333e+000
1.397082e+003,1.943237e+000
1.398046e+003,2.654633e+000
1.399010e+003,2.842529e+000
1.399974e+003,1.973206e+000
1.400938e+003,1.550293e-001
1.401903e+003,-1.894897e+000
1.402867e+003,-4.177917e+000
1.403831e+003,-4.431122e+000
1.404795e+003,-1.417206e+000
1.405760e+003,1.471466e+000
1.406724e+003,2.959137e+000
1.407688e+003,3.290100e+000
1.408652e+003,2.842072e+000
1.409617e+003,1.951385e+000
1.410581e+003,9.536438e-001
1.411545e+003,-1.783142e-001
1.412509e+003,-5.621033e-001
1.413474e+003,1.186432e+000
1.414438e+003,3.656097e+000
1.415402e+003,4.860779e+000
1.416366e+003,4.985138e+000
1.417330e+003,4.719177e+000
1.418295e+003,4.318207e+000
1.419259e+003,3.671173e+000
1.420223e+003,2.328918e+000
1.421187e+003,3.931885e-001
1.422152e+003,-9.199829e-001
1.423116e+003,-1.445862e+000
1.424080e+003,-1.232483e+000
1.425044e+003,-7.211304e-002
1.426009e+003,1.329254e+000
1.426973e+003,3.050537e+000
1.427937e+003,4.618774e+000
1.428901e+003,5.433533e+000
1.429865e+003,5.622528e+000
1.430830e+003,5.747253e+000
1.431794e+003,6.123444e+000
1.432758e+003,6.802338e+000
1.433722e+003,8.187317e+000
1.434687e+003,1.068478e+001
1.435651e+003,1.169159e+001
1.436615e+003,9.267273e+000
1.437579e+003,7.187500e+000
1.438544e+003,5.912933e+000
1.439508e+003,5.082916e+000
1.440472e+003,4.619324e+000
1.441436e+003,4.550232e+000
1.442401e+003,4.588562e+000
1.443365e+003,4.738464e+000
1.444329e+003,6.258148e+000
1.445293e+003,1.060461e+001
1.446257e+003,1.556705e+001
1.447222e+003,1.653574e+001
1.448186e+003,1.414111e+001
1.449150e+003,1.154248e+001
1.450114e+003,8.686157e+000
1.451079e+003,6.675018e+000
1.452043e+003,6.574127e+000
1.453007e+003,7.495880e+000
1.453971e+003,8.553345e+000
1.454936e+003,9.493439e+000
1.455900e+003,8.814575e+000
1.456864e+003,5.607483e+000
1.457828e+003,3.164124e+000
1.458792e+003,3.727509e+000
1.459757e+003,5.374298e+000
1.460721e+003,7.123688e+000
1.461685e+003,8.592773e+000
1.462649e+003,9.186615e+000
1.463614e+003,8.853638e+000
1.464578e+003,8.122650e+000
1.465542e+003,7.309357e+000
1.466506e+003,6.512085e+000
1.467471e+003,6.253510e+000
1.468435e+003,6.816498e+000
1.469399e+003,7.390564e+000
1.470363e+003,7.380096e+000
1.471328e+003,7.819000e+000
1.472292e+003,9.418182e+000
1.473256e+003,1.076218e+001
1.474220e+003,1.106360e+001
1.475184e+003,1.059946e+001
1.476149e+003,9.597504e+000
1.477113e+003,8.259369e+000
1.478077e+003,7.324402e+000
1.479041e+003,7.654785e+000
1.480006e+003,9.027039e+000
1.480970e+003,1.041489e+001
1.481934e+003,1.177997e+001
1.482898e+003,1.254416e+001
1.483863e+003,1.215869e+001
1.484827e+003,1.193771e+001
1.485791e+003,1.243729e+001
1.486755e+003,1.332114e+001
1.487719e+003,1.407669e+001
1.488684e+003,1.479312e+001
1.489648e+003,1.615384e+001
1.490612e+003,1.841815e+001
1.491576e+003,2.055499e+001
1.492541e+003,2.155933e+001
1.493505e+003,2.198041e+001
1.494469e+003,2.284259e+001
1.495433e+003,2.400827e+001
1.496398e+003,2.601361e+001
1.497362e+003,2.935043e+001
1.498326e+003,3.301260e+001
1.499290e+003,3.674942e+001
1.500255e+003,4.026495e+001
1.501219e+003,4.305649e+001
1.502183e+003,4.513519e+001
1.503147e+003,4.651859e+001
1.504111e+003,4.677713e+001
1.505076e+003,4.856558e+001
1.506040e+003,5.351453e+001
1.507004e+003,6.080972e+001
1.507968e+003,7.046695e+001
1.508933e+003,8.132712e+001
1.509897e+003,9.083130e+001
1.510861e+003,9.884470e+001
1.511825e+003,1.074273e+002
1.512790e+003,1.176474e+002
1.513754e+003,1.294208e+002
1.514718e+003,1.434189e+002
1.515682e+003,1.594468e+002
1.516646e+003,1.738208e+002
1.517611e+003,1.852458e+002
1.518575e+003,1.979138e+002
1.519539e+003,2.161727e+002
1.520503e+003,2.331920e+002
1.521468e+003,2.466759e+002
1.522432e+003,2.558744e+002
1.523396e+003,2.592229e+002
1.524360e+003,2.574176e+002
1.525325e+003,2.539550e+002
1.526289e+003,2.512046e+002
1.527253e+003,2.478040e+002
1.528217e+003,2.412383e+002
1.529182e+003,2.316447e+002
1.530146e+003,2.198277e+002
1.531110e+003,2.045541e+002
1.532074e+003,1.888966e+002
1.533039e+003,1.734591e+002
1.534003e+003,1.565313e+002
1.534967e+003,1.361339e+002
1.535931e+003,1.154369e+002
1.536896e+003,9.793799e+001
1.537860e+003,8.370792e+001
1.538824e+003,7.015326e+001
1.539788e+003,5.600491e+001
1.540752e+003,4.380405e+001
1.541717e+003,3.710873e+001
1.542681e+003,3.515213e+001
1.543645e+003,3.219128e+001
1.544609e+003,2.747510e+001
1.545573e+003,2.420786e+001
1.546538e+003,2.272308e+001
1.547502e+003,2.172183e+001
1.548466e+003,2.105621e+001
1.549430e+003,2.080011e+001
1.550395e+003,2.140479e+001
1.551359e+003,2.224689e+001
1.552323e+003,2.152554e+001
1.553287e+003,1.877509e+001
1.554252e+003,1.628821e+001
1.555216e+003,1.616098e+001
1.556180e+003,1.734442e+001
1.557144e+003,1.750803e+001
1.558109e+003,1.666138e+001
1.559073e+003,1.546323e+001
1.560037e+003,1.312399e+001
1.561001e+003,1.162640e+001
1.561966e+003,1.316315e+001
1.562930e+003,1.480157e+001
1.563894e+003,1.273239e+001
1.564858e+003,8.657043e+000
1.565823e+003,7.556793e+000
1.566787e+003,1.017358e+001
1.567751e+003,1.180481e+001
1.568715e+003,9.376678e+000
1.569679e+003,6.494232e+000
1.570644e+003,8.526917e+000
1.571608e+003,1.323990e+001
1.572572e+003,1.413501e+001
1.573536e+003,1.105295e+001
1.574500e+003,8.237885e+000
1.575465e+003,6.380798e+000
1.576429e+003,6.139526e+000
1.577393e+003,9.556152e+000
1.578357e+003,1.423511e+001
1.579322e+003,1.489877e+001
1.580286e+003,1.162708e+001
1.581250e+003,9.846405e+000
1.582214e+003,1.147879e+001
1.583179e+003,1.385788e+001
1.584143e+003,1.535373e+001
1.585107e+003,1.607318e+001
1.586071e+003,1.633408e+001
1.587036e+003,1.635980e+001
1.588000e+003,1.629044e+001
1.588964e+003,1.604404e+001
1.589928e+003,1.556232e+001
1.590893e+003,1.451959e+001
1.591857e+003,1.355933e+001
1.592821e+003,1.384348e+001
1.593785e+003,1.517850e+001
1.594750e+003,1.636670e+001
1.595714e+003,1.726736e+001
1.596678e+003,1.740039e+001
1.597642e+003,1.567139e+001
1.598606e+003,1.451309e+001
1.599571e+003,1.689600e+001
1.600535e+003,2.044125e+001
1.601499e+003,2.189584e+001
1.602463e+003,2.130792e+001
1.603427e+003,2.061929e+001
1.604392e+003,2.060693e+001
1.605356e+003,2.088055e+001
1.606320e+003,2.123547e+001
1.607284e+003,2.152393e+001
1.608249e+003,2.119598e+001
1.609213e+003,2.022842e+001
1.610177e+003,1.934473e+001
1.611141e+003,1.842603e+001
1.612106e+003,1.821072e+001
1.613070e+003,2.042651e+001
1.614034e+003,2.216147e+001
1.614998e+003,2.036554e+001
1.615963e+003,1.701151e+001
1.616927e+003,1.556906e+001
1.617891e+003,1.642667e+001
1.618855e+003,1.782379e+001
1.619820e+003,1.887854e+001
1.620784e+003,1.873273e+001
1.621748e+003,1.513168e+001
1.622712e+003,9.342316e+000
1.623677e+003,8.970123e+000
1.624641e+003,1.541324e+001
1.625605e+003,1.929645e+001
1.626569e+003,1.678091e+001
1.627533e+003,1.374243e+001
1.628498e+003,1.309097e+001
1.629462e+003,1.345016e+001
1.630426e+003,1.378961e+001
1.631390e+003,1.409100e+001
1.632354e+003,1.468387e+001
1.633319e+003,1.558545e+001
1.634283e+003,1.628668e+001
1.635247e+003,1.635779e+001
1.636211e+003,1.608527e+001
1.637176e+003,1.626822e+001
1.638140e+003,1.688196e+001
1.639104e+003,1.623398e+001
1.640068e+003,1.364526e+001
1.641033e+003,1.198245e+001
1.641997e+003,1.285547e+001
1.642961e+003,1.365829e+001
1.643925e+003,1.255984e+001
1.644890e+003,1.116922e+001
1.645854e+003,1.115103e+001
1.646818e+003,1.216562e+001
1.647782e+003,1.288348e+001
1.648747e+003,1.293454e+001
1.649711e+003,1.347641e+001
1.650675e+003,1.580084e+001
1.651639e+003,1.880048e+001
1.652604e+003,1.990540e+001
1.653568e+003,1.909988e+001
1.654532e+003,1.804022e+001
1.655496e+003,1.662561e+001
1.656460e+003,1.565277e+001
1.657425e+003,1.596457e+001
1.658389e+003,1.606097e+001
1.659353e+003,1.476538e+001
1.660317e+003,1.310934e+001
1.661281e+003,1.241776e+001
1.662246e+003,1.229993e+001
1.663210e+003,1.114087e+001
1.664174e+003,8.534363e+000
1.665138e+003,6.564301e+000
1.666103e+003,7.158112e+000
1.667067e+003,9.029175e+000
1.668031e+003,9.638580e+000
1.668995e+003,9.117554e+000
1.669960e+003,8.965027e+000
1.670924e+003,9.419006e+000
1.671888e+003,9.863007e+000
1.672852e+003,1.021033e+001
1.673817e+003,1.018036e+001
1.674781e+003,9.095734e+000
1.675745e+003,7.909790e+000
1.676709e+003,7.691467e+000
1.677674e+003,8.306946e+000
1.678638e+003,9.225067e+000
1.679602e+003,1.027026e+001
1.680566e+003,1.099622e+001
1.681531e+003,1.126691e+001
1.682495e+003,1.092740e+001
1.683459e+003,8.911072e+000
1.684423e+003,5.627899e+000
1.685387e+003,4.640808e+000
1.686352e+003,6.681030e+000
1.687316e+003,7.921112e+000
1.688280e+003,6.691376e+000
1.689244e+003,5.229614e+000
1.690208e+003,5.275269e+000
1.691173e+003,5.826263e+000
1.692137e+003,5.896729e+000
1.693101e+003,5.683502e+000
1.694065e+003,5.499695e+000
1.695030e+003,5.267059e+000
1.695994e+003,5.645264e+000
1.696958e+003,7.789185e+000
1.697922e+003,9.988617e+000
1.698887e+003,9.938232e+000
1.699851e+003,8.267456e+000
1.700815e+003,6.552246e+000
1.701779e+003,4.893311e+000
1.702744e+003,3.846710e+000
1.703708e+003,3.954498e+000
1.704672e+003,3.841736e+000
1.705636e+003,1.715729e+000
1.706601e+003,-7.500610e-001
1.707565e+003,-5.409851e-001
1.708529e+003,1.673309e+000
1.709493e+003,3.844360e+000
1.710458e+003,5.880127e+000
1.711422e+003,6.310852e+000
1.712386e+003,3.428619e+000
1.713350e+003,2.906189e-001
1.714314e+003,-7.522583e-001
1.715279e+003,-6.828613e-001
1.716243e+003,-1.102051e+000
1.717207e+003,-1.907532e+000
1.718171e+003,-2.012177e+000
1.719135e+003,-1.089966e+000
1.720100e+003,4.962463e-001
1.721064e+003,2.691498e+000
1.722028e+003,4.687500e+000
1.722992e+003,5.583618e+000
1.723957e+003,5.485962e+000
1.724921e+003,3.889008e+000
1.725885e+003,6.600952e-002
1.726849e+003,-2.211609e+000
1.727814e+003,-1.696045e+000
1.728778e+003,6.927490e-002
1.729742e+003,4.152069e+000
1.730706e+003,7.541016e+000
1.731671e+003,6.434967e+000
1.732635e+003,2.383850e+000
1.733599e+003,-9.597168e-001
1.734563e+003,-2.695923e+000
1.735528e+003,-3.657166e+000
1.736492e+003,-4.364685e+000
1.737456e+003,-5.000366e+000
1.738420e+003,-5.892426e+000
1.739385e+003,-6.695557e+000
1.740349e+003,-5.579834e+000
1.741313e+003,-1.775055e+000
1.742277e+003,5.389404e-001
1.743241e+003,5.954895e-001
1.744206e+003,7.091370e-001
1.745170e+003,1.347168e+000
1.746134e+003,1.740448e+000
1.747098e+003,9.472656e-001
1.748063e+003,3.668213e-002
1.749027e+003,1.012054e+000
1.749991e+003,2.915314e+000
1.750955e+003,2.316498e+000
1.751919e+003,-1.477295e+000
1.752884e+003,-4.754547e+000
1.753848e+003,-4.423950e+000
1.754812e+003,-2.057465e+000
1.755776e+003,-5.867004e-001
1.756741e+003,1.155701e-001
1.757705e+003,3.018188e-002
1.758669e+003,-1.449219e+000
1.759633e+003,-2.255707e+000
1.760598e+003,-1.582916e+000
1.761562e+003,-1.298828e+000
1.762526e+003,-2.605743e+000
1.763490e+003,-3.569061e+000
1.764455e+003,-2.088470e+000
1.765419e+003,3.147888e-001
1.766383e+003,1.018860e+000
1.767347e+003,-1.646729e-001
1.768312e+003,-1.759552e+000
1.769276e+003,-3.135468e+000
1.770240e+003,-3.757355e+000
1.771204e+003,-2.365814e+000
1.772168e+003,-9.884644e-002
1.773133e+003,-3.905029e-001
1.774097e+003,-2.859558e+000
1.775061e+003,-3.377808e+000
1.776025e+003,-1.429565e+000
1.776990e+003,5.935364e-001
1.777954e+003,2.414215e+000
1.778918e+003,3.478943e+000
1.779882e+003,2.926666e+000
1.780846e+003,1.476349e+000
1.781811e+003,-1.374817e-001
1.782775e+003,-1.609619e+000
1.783739e+003,-1.798248e+000
1.784703e+003,-3.465881e-001
1.785668e+003,6.002502e-001
1.786632e+003,-4.645386e-001
1.787596e+003,-1.804291e+000
1.788560e+003,-1.717133e+000
1.789525e+003,-1.079010e+000
1.790489e+003,-1.561401e+000
1.791453e+003,-2.809845e+000
1.792417e+003,-3.220062e+000
1.793382e+003,-2.479736e+000
1.794346e+003,-1.245026e+000
1.795310e+003,2.051392e-001
1.796274e+003,8.794861e-001
1.797239e+003,-4.466858e-001
1.798203e+003,-2.898010e+000
1.799167e+003,-4.253021e+000
1.800131e+003,-4.728668e+000
1.801095e+003,-4.608887e+000
1.802060e+003,-3.415680e+000
1.803024e+003,-1.922089e+000
1.803988e+003,2.607117e-001
1.804952e+003,1.964966e+000
1.805917e+003,3.066864e+000
1.806881e+003,3.055847e+000
1.807845e+003,5.168152e-001
1.808809e+003,-3.053955e+000
1.809773e+003,-4.835663e+000
1.810738e+003,-4.274200e+000
1.811702e+003,-2.718536e+000
1.812666e+003,-1.058075e+000
1.813630e+003,5.646057e-001
1.814595e+003,2.140869e+000
1.815559e+003,3.246552e+000
1.816523e+003,1.778198e+000
1.817487e+003,-2.616608e+000
1.818452e+003,-5.070068e+000
1.819416e+003,-4.792755e+000
1.820380e+003,-3.778168e+000
1.821344e+003,-2.023193e+000
1.822309e+003,-7.047424e-001
1.823273e+003,-4.668274e-001
1.824237e+003,-8.052673e-001
1.825201e+003,-1.738251e+000
1.826166e+003,-2.867767e+000
1.827130e+003,-2.923615e+000
1.828094e+003,-1.788910e+000
1.829058e+003,-1.352936e+000
1.830022e+003,-2.818024e+000
1.830987e+003,-4.336304e+000
1.831951e+003,-4.063751e+000
1.832915e+003,-3.139862e+000
1.833879e+003,-3.758545e+000
1.834844e+003,-5.115692e+000
1.835808e+003,-4.014221e+000
1.836772e+003,-3.171692e-001
1.837736e+003,2.227142e+000
1.838700e+003,1.905304e+000
1.839665e+003,3.159180e-001
1.840629e+003,-1.277924e+000
1.841593e+003,-2.355438e+000
1.842557e+003,-1.662720e+000
1.843522e+003,7.466125e-001
1.844486e+003,1.329803e+000
1.845450e+003,-1.848297e+000
1.846414e+003,-2.731720e+000
1.847379e+003,1.158356e+000
1.848343e+003,3.450775e+000
1.849307e+003,6.545715e-001
1.850271e+003,-2.495056e+000
1.851236e+003,-1.966583e+000
1.852200e+003,1.354370e-001
1.853164e+003,2.035217e-001
1.854128e+003,-1.667175e+000
1.855093e+003,-2.956299e+000
1.856057e+003,-2.583282e+000
1.857021e+003,-1.445831e+000
1.857985e+003,-3.011780e-001
1.858949e+003,7.574463e-001
1.859914e+003,1.877991e+000
1.860878e+003,2.893219e+000
1.861842e+003,2.283722e+000
1.862806e+003,-5.908203e-002
1.863771e+003,-1.393219e+000
1.864735e+003,-1.211792e+000
1.865699e+003,-5.321960e-001
1.866663e+003,4.962463e-001
1.867627e+003,1.600372e+000
1.868592e+003,2.723267e+000
1.869556e+003,3.381927e+000
1.870520e+003,2.629486e+000
1.871484e+003,7.139893e-001
1.872449e+003,-6.064453e-001
1.873413e+003,-7.289734e-001
1.874377e+003,-4.043579e-001
1.875341e+003,2.079163e-001
1.876306e+003,4.725342e-001
1.877270e+003,-4.989929e-001
1.878234e+003,-1.566040e+000
1.879198e+003,-1.154449e+000
1.880163e+003,-6.600952e-002
1.881127e+003,4.727173e-002
1.882091e+003,-8.608398e-001
1.883055e+003,-1.943359e+000
1.884020e+003,-2.743256e+000
1.884984e+003,-2.664703e+000
1.885948e+003,-1.096283e+000
1.886912e+003,8.062439e-001
1.887876e+003,4.612122e-001
1.888841e+003,-1.786926e+000
1.889805e+003,-1.580475e+000
1.890769e+003,1.702911e+000
1.891733e+003,4.144958e+000
1.892698e+003,5.402954e+000
1.893662e+003,5.418304e+000
1.894626e+003,3.016205e+000
1.895590e+003,9.671631e-001
1.896554e+003,1.925964e+000
1.897519e+003,3.883331e+000
1.898483e+003,4.527161e+000
1.899447e+003,3.840424e+000
1.900411e+003,2.159668e+000
1.901376e+003,-5.458069e-001
1.902340e+003,-1.773193e+000
1.903304e+003,7.979126e-001
1.904268e+003,2.830017e+000
1.905233e+003,8.136597e-001
1.906197e+003,-2.087128e+000
1.907161e+003,-2.980957e+000
1.908125e+003,-2.104614e+000
1.909090e+003,5.039673e-001
1.910054e+003,3.867706e+000
1.911018e+003,5.241577e+000
1.911982e+003,3.982544e+000
1.912947e+003,2.329315e+000
1.913911e+003,1.882599e+000
1.914875e+003,2.369141e+000
1.915839e+003,3.394135e+000
1.916803e+003,4.728668e+000
1.917768e+003,5.777161e+000
1.918732e+003,6.649506e+000
1.919696e+003,7.227051e+000
1.920660e+003,7.822296e+000
1.921625e+003,7.368530e+000
1.922589e+003,4.478638e+000
1.923553e+003,2.188202e+000
1.924517e+003,2.615692e+000
1.925481e+003,3.926422e+000
1.926446e+003,4.826324e+000
1.927410e+003,5.336578e+000
1.928374e+003,5.446777e+000
1.929338e+003,5.118256e+000
1.930303e+003,4.708710e+000
1.931267e+003,4.375854e+000
1.932231e+003,4.420654e+000
1.933195e+003,5.306030e+000
1.934160e+003,5.931396e+000
1.935124e+003,5.129242e+000
1.936088e+003,3.832642e+000
1.937052e+003,3.395660e+000
1.938017e+003,3.573761e+000
1.938981e+003,3.587616e+000
1.939945e+003,3.165283e+000
1.940909e+003,1.952393e+000
1.941874e+003,-9.066772e-002
1.942838e+003,-1.558472e+000
1.943802e+003,-9.848022e-001
1.944766e+003,6.577759e-001
1.945730e+003,1.075989e+000
1.946695e+003,3.964844e-001
1.947659e+003,4.944458e-001
1.948623e+003,1.421600e+000
1.949587e+003,2.153107e+000
1.950552e+003,2.642548e+000
1.951516e+003,3.011292e+000
1.952480e+003,3.373871e+000
1.953444e+003,3.416748e+000
1.954408e+003,2.490753e+000
1.955373e+003,1.384308e+000
1.956337e+003,1.569855e+000
1.957301e+003,2.765076e+000
1.958265e+003,3.534821e+000
1.959230e+003,3.859650e+000
1.960194e+003,3.798462e+000
1.961158e+003,2.141937e+000
1.962122e+003,1.511200e+000
1.963087e+003,3.853668e+000
1.964051e+003,5.912903e+000
1.965015e+003,5.745209e+000
1.965979e+003,4.716400e+000
1.966944e+003,4.012085e+000
1.967908e+003,3.462372e+000
1.968872e+003,2.299561e+000
1.969836e+003,7.473145e-001
1.970801e+003,2.984619e-002
1.971765e+003,6.522217e-001
1.972729e+003,1.899506e+000
1.973693e+003,3.301300e+000
1.974657e+003,4.551666e+000
1.975622e+003,4.903046e+000
1.976586e+003,4.754456e+000
1.977550e+003,5.557861e+000
1.978514e+003,7.131805e+000
1.979479e+003,8.035889e+000
1.980443e+003,8.038696e+000
1.981407e+003,7.562469e+000
1.982371e+003,6.776825e+000
1.983335e+003,6.358063e+000
1.984300e+003,6.813385e+000
1.985264e+003,7.447266e+000
1.986228e+003,7.299347e+000
1.987192e+003,6.459381e+000
1.988157e+003,5.394135e+000
1.989121e+003,4.122681e+000
1.990085e+003,2.757507e+000
1.991049e+003,6.134949e-001
1.992014e+003,-7.336426e-002
1.992978e+003,2.185699e+000
1.993942e+003,4.122131e+000
1.994906e+003,4.480591e+000
1.995871e+003,4.290100e+000
1.996835e+003,3.608398e+000
1.997799e+003,3.352386e+000
1.998763e+003,5.547211e+000
1.999728e+003,9.306061e+000
