5.003444e+002,1.942473e+002
5.013087e+002,1.966907e+002
5.022729e+002,1.981222e+002
5.032371e+002,1.980332e+002
5.042014e+002,1.921179e+002
5.051656e+002,1.816172e+002
5.061298e+002,1.723015e+002
5.070941e+002,1.695263e+002
5.080583e+002,1.747167e+002
5.090225e+002,1.763475e+002
5.099868e+002,1.732789e+002
5.109510e+002,1.691157e+002
5.119152e+002,1.652404e+002
5.128795e+002,1.617393e+002
5.138437e+002,1.594344e+002
5.148079e+002,1.598135e+002
5.157722e+002,1.606388e+002
5.167364e+002,1.616641e+002
5.177006e+002,1.620891e+002
5.186649e+002,1.602856e+002
5.196291e+002,1.526186e+002
5.205933e+002,1.440239e+002
5.215576e+002,1.392642e+002
5.225218e+002,1.382405e+002
5.234860e+002,1.389335e+002
5.244503e+002,1.384354e+002
5.254145e+002,1.371810e+002
5.263787e+002,1.360855e+002
5.273430e+002,1.352883e+002
5.283072e+002,1.345602e+002
5.292714e+002,1.333676e+002
5.302357e+002,1.307227e+002
5.311999e+002,1.275027e+002
5.321641e+002,1.245037e+002
5.331284e+002,1.220670e+002
5.340926e+002,1.201776e+002
5.350568e+002,1.185161e+002
5.360211e+002,1.164858e+002
5.369853e+002,1.143806e+002
5.379495e+002,1.125184e+002
5.389138e+002,1.107725e+002
5.398780e+002,1.090470e+002
5.408422e+002,1.074625e+002
5.418065e+002,1.068831e+002
5.427707e+002,1.071213e+002
5.437349e+002,1.068521e+002
5.446992e+002,1.055078e+002
5.456634e+002,1.033632e+002
5.466276e+002,1.016425e+002
5.475919e+002,1.019803e+002
5.485561e+002,1.010905e+002
5.495203e+002,9.793988e+001
5.504846e+002,9.329626e+001
5.514488e+002,8.836041e+001
5.524130e+002,8.354041e+001
5.533773e+002,7.953955e+001
5.543415e+002,7.641095e+001
5.553057e+002,7.415820e+001
5.562700e+002,7.282770e+001
5.572342e+002,7.235291e+001
5.581984e+002,7.226929e+001
5.591627e+002,7.168756e+001
5.601269e+002,7.128870e+001
5.610911e+002,7.229144e+001
5.620554e+002,7.532770e+001
5.630196e+002,7.960718e+001
5.639838e+002,7.999603e+001
5.649481e+002,7.352258e+001
5.659123e+002,6.761755e+001
5.668765e+002,6.444879e+001
5.678408e+002,6.356543e+001
5.688050e+002,6.266205e+001
5.697692e+002,5.984473e+001
5.707335e+002,5.694019e+001
5.716977e+002,5.521747e+001
5.726619e+002,5.401611e+001
5.736262e+002,5.205707e+001
5.745904e+002,4.823615e+001
5.755546e+002,4.505762e+001
5.765189e+002,4.709564e+001
5.774831e+002,5.134814e+001
5.784473e+002,5.290967e+001
5.794116e+002,4.872919e+001
5.803758e+002,3.993250e+001
5.813400e+002,3.598602e+001
5.823043e+002,3.699622e+001
5.832685e+002,3.822644e+001
5.842327e+002,3.896136e+001
5.851970e+002,3.958679e+001
5.861612e+002,4.006427e+001
5.871254e+002,3.993066e+001
5.880897e+002,3.912012e+001
5.890539e+002,3.623175e+001
5.900181e+002,3.257495e+001
5.909824e+002,3.061804e+001
5.919466e+002,3.272858e+001
5.929108e+002,3.585339e+001
5.938751e+002,3.679901e+001
5.948393e+002,3.622522e+001
5.958035e+002,3.504871e+001
5.967678e+002,3.404413e+001
5.977320e+002,3.345654e+001
5.986962e+002,3.364838e+001
5.996605e+002,3.413281e+001
6.006247e+002,3.339478e+001
6.015889e+002,2.996454e+001
6.025532e+002,2.421417e+001
6.035174e+002,2.051019e+001
6.044816e+002,2.021185e+001
6.054459e+002,2.105255e+001
6.064101e+002,2.395087e+001
6.073743e+002,2.754065e+001
6.083386e+002,2.937793e+001
6.093028e+002,2.736041e+001
6.102670e+002,2.542908e+001
6.112313e+002,2.759882e+001
6.121955e+002,3.124060e+001
6.131597e+002,3.248218e+001
6.141240e+002,2.873016e+001
6.150882e+002,2.170471e+001
6.160524e+002,1.921143e+001
6.170167e+002,2.071759e+001
6.179809e+002,2.373700e+001
6.189451e+002,2.771112e+001
6.199094e+002,3.187671e+001
6.208736e+002,3.251978e+001
6.218378e+002,2.581073e+001
6.228021e+002,2.100848e+001
6.237663e+002,2.028918e+001
6.247305e+002,2.179108e+001
6.256948e+002,2.184906e+001
6.266590e+002,1.743036e+001
6.276232e+002,1.390314e+001
6.285875e+002,1.671344e+001
6.295517e+002,2.163678e+001
6.305159e+002,2.347925e+001
6.314802e+002,1.943860e+001
6.324444e+002,1.236688e+001
6.334086e+002,1.187109e+001
6.343729e+002,1.614825e+001
6.353371e+002,1.927667e+001
6.363013e+002,1.883313e+001
6.372656e+002,1.577643e+001
6.382298e+002,1.407806e+001
6.391940e+002,1.620831e+001
6.401583e+002,1.589630e+001
6.411225e+002,1.223529e+001
6.420867e+002,7.756531e+000
6.430510e+002,4.861816e+000
6.440152e+002,3.720947e+000
6.449794e+002,3.674072e+000
6.459437e+002,4.717712e+000
6.469079e+002,6.218201e+000
6.478721e+002,8.615601e+000
6.488364e+002,1.177753e+001
6.498006e+002,1.421118e+001
6.507648e+002,1.197601e+001
6.517291e+002,6.555542e+000
6.526933e+002,1.844543e+000
6.536575e+002,-1.496277e+000
6.546218e+002,-3.859802e+000
6.555860e+002,-5.998596e+000
6.565502e+002,-8.089905e+000
6.575145e+002,-9.595947e+000
6.584787e+002,-1.113245e+001
6.594429e+002,-1.163727e+001
6.604072e+002,-9.462036e+000
6.613714e+002,-3.946228e+000
6.623356e+002,7.141113e-002
6.632999e+002,-1.730408e+000
6.642641e+002,-4.585266e+000
6.652283e+002,-5.913025e+000
6.661926e+002,-5.155518e+000
6.671568e+002,-3.120544e+000
6.681210e+002,-5.427246e-001
6.690853e+002,1.584656e+000
6.700495e+002,1.186584e+000
6.710137e+002,-1.539490e+000
6.719780e+002,-3.977783e+000
6.729422e+002,-3.202454e+000
6.739064e+002,1.640869e+000
6.748707e+002,3.135803e+000
6.758349e+002,-1.201050e+000
6.767991e+002,-5.231628e+000
6.777634e+002,-5.593933e+000
6.787276e+002,-2.353455e+000
6.796918e+002,9.808350e-001
6.806561e+002,2.999146e+000
6.816203e+002,3.824524e+000
6.825845e+002,3.133911e+000
6.835488e+002,1.435364e+000
6.845130e+002,-6.346436e-001
6.854772e+002,-2.593079e+000
6.864415e+002,-3.774353e+000
6.874057e+002,-3.512268e+000
6.883699e+002,-2.751648e+000
6.893342e+002,-2.359192e+000
6.902984e+002,-2.650757e+000
6.912626e+002,-3.391724e+000
6.922269e+002,-4.153076e+000
6.931911e+002,-3.916443e+000
6.941553e+002,-3.490112e+000
6.951196e+002,-4.022461e+000
6.960838e+002,-5.023254e+000
6.970480e+002,-5.293701e+000
6.980123e+002,-4.274170e+000
6.989765e+002,-2.402283e+000
6.999407e+002,6.924438e-001
7.009050e+002,3.747681e+000
7.018692e+002,6.023621e+000
7.028334e+002,7.052063e+000
7.037977e+002,6.388245e+000
7.047619e+002,2.443481e+000
7.057261e+002,-2.713379e+000
7.066904e+002,-5.681885e+000
7.076546e+002,-5.936218e+000
7.086188e+002,-4.508789e+000
7.095831e+002,-2.986389e+000
7.105473e+002,-1.723145e+000
7.115115e+002,-1.443481e-001
7.124758e+002,3.416443e+000
7.134400e+002,5.322388e+000
7.144042e+002,2.288635e+000
7.153685e+002,-5.329590e+000
7.163327e+002,-1.068317e+001
7.172969e+002,-7.844360e+000
7.182612e+002,-4.420898e+000
7.192254e+002,-3.605225e+000
7.201896e+002,-4.973999e+000
7.211539e+002,-6.957886e+000
7.221181e+002,-8.366638e+000
7.230823e+002,-8.740906e+000
7.240466e+002,-5.982727e+000
7.250108e+002,-6.135864e-001
7.259750e+002,3.048096e+000
7.269393e+002,1.698975e+000
7.279035e+002,-4.466858e+000
7.288677e+002,-8.969177e+000
7.298320e+002,-9.819641e+000
7.307962e+002,-8.968384e+000
7.317604e+002,-5.676941e+000
7.327247e+002,-9.216919e-001
7.336889e+002,3.986267e+000
7.346531e+002,8.512939e+000
7.356174e+002,1.010370e+001
7.365816e+002,7.356689e+000
7.375458e+002,3.684326e+000
7.385101e+002,1.530518e+000
7.394743e+002,1.483643e+000
7.404385e+002,2.170410e+000
7.414028e+002,9.845581e-001
7.423670e+002,-2.334290e+000
7.433312e+002,-3.317627e+000
7.442955e+002,-5.753174e-001
7.452597e+002,3.112915e+000
7.462239e+002,3.649902e+000
7.471882e+002,-8.600464e-001
7.481524e+002,-1.223145e+000
7.491166e+002,5.508301e+000
7.500809e+002,1.065808e+001
7.510451e+002,1.013281e+001
7.520093e+002,5.175781e+000
7.529736e+002,9.929810e-001
7.539378e+002,1.322510e+000
7.549020e+002,2.397583e+000
7.558663e+002,1.871826e+000
7.568306e+002,2.460327e-001
7.577948e+002,-2.518188e+000
7.587590e+002,-6.408691e+000
7.597233e+002,-1.042371e+001
7.606875e+002,-9.462463e+000
7.616517e+002,-3.803894e+000
7.626160e+002,1.663757e+000
7.635802e+002,6.163574e+000
7.645444e+002,9.632996e+000
7.655087e+002,1.161053e+001
7.664729e+002,1.120178e+001
7.674371e+002,1.070538e+001
7.684014e+002,9.453003e+000
7.693656e+002,8.772949e+000
7.703298e+002,1.042468e+001
7.712941e+002,1.427081e+001
7.722583e+002,1.694147e+001
7.732225e+002,1.398376e+001
7.741868e+002,1.071497e+001
7.751510e+002,1.193933e+001
7.761152e+002,1.656006e+001
7.770795e+002,2.132330e+001
7.780437e+002,2.329150e+001
7.790079e+002,2.254688e+001
7.799722e+002,2.062610e+001
7.809364e+002,1.743542e+001
7.819006e+002,1.440131e+001
7.828649e+002,1.220532e+001
7.838291e+002,1.114178e+001
7.847933e+002,1.151343e+001
7.857576e+002,1.451239e+001
7.867218e+002,1.503680e+001
7.876860e+002,1.041809e+001
7.886503e+002,5.660950e+000
7.896145e+002,5.593811e+000
7.905787e+002,1.117090e+001
7.915430e+002,1.748413e+001
7.925072e+002,1.820386e+001
7.934714e+002,1.638739e+001
7.944357e+002,1.591241e+001
7.953999e+002,1.738776e+001
7.963641e+002,1.979291e+001
7.973284e+002,2.180902e+001
7.982926e+002,2.343915e+001
7.992568e+002,2.450977e+001
8.002211e+002,2.436182e+001
8.011853e+002,2.256952e+001
8.021495e+002,1.853107e+001
8.031138e+002,1.410986e+001
8.040780e+002,1.385229e+001
8.050422e+002,2.138605e+001
8.060065e+002,2.671973e+001
8.069707e+002,2.470856e+001
8.079349e+002,1.976288e+001
8.088992e+002,1.632501e+001
8.098634e+002,1.623773e+001
8.108276e+002,1.791992e+001
8.117919e+002,1.905701e+001
8.127561e+002,1.891815e+001
8.137203e+002,1.766278e+001
8.146846e+002,1.593658e+001
8.156488e+002,1.483118e+001
8.166130e+002,1.540070e+001
8.175773e+002,1.792316e+001
8.185415e+002,1.945166e+001
8.195057e+002,1.877032e+001
8.204700e+002,1.775653e+001
8.214342e+002,1.675189e+001
8.223984e+002,1.592548e+001
8.233627e+002,1.567871e+001
8.243269e+002,1.655237e+001
8.252911e+002,1.773163e+001
8.262554e+002,1.862073e+001
8.272196e+002,1.941260e+001
8.281838e+002,2.030353e+001
8.291481e+002,2.130725e+001
8.301123e+002,2.220996e+001
8.310765e+002,2.263361e+001
8.320408e+002,2.242517e+001
8.330050e+002,2.194104e+001
8.339692e+002,2.116888e+001
8.349335e+002,2.068109e+001
8.358977e+002,2.142828e+001
8.368619e+002,2.395941e+001
8.378262e+002,2.608777e+001
8.387904e+002,2.715179e+001
8.397546e+002,2.756708e+001
8.407189e+002,2.690479e+001
8.416831e+002,2.588910e+001
8.426473e+002,2.572888e+001
8.436116e+002,2.712561e+001
8.445758e+002,2.920044e+001
8.455400e+002,3.035571e+001
8.465043e+002,3.072882e+001
8.474685e+002,3.137714e+001
8.484327e+002,3.291534e+001
8.493970e+002,3.494672e+001
8.503612e+002,3.607928e+001
8.513254e+002,3.585004e+001
8.522897e+002,3.592847e+001
8.532539e+002,3.595465e+001
8.542181e+002,3.596173e+001
8.551824e+002,3.616705e+001
8.561466e+002,3.725238e+001
8.571108e+002,4.046912e+001
8.580751e+002,4.669452e+001
8.590393e+002,5.144763e+001
8.600035e+002,5.375293e+001
8.609678e+002,5.468811e+001
8.619320e+002,5.483807e+001
8.628962e+002,5.454974e+001
8.638605e+002,5.487177e+001
8.648247e+002,5.830585e+001
8.657889e+002,6.326154e+001
8.667532e+002,6.663483e+001
8.677174e+002,6.800714e+001
8.686816e+002,6.817731e+001
8.696459e+002,6.804993e+001
8.706101e+002,6.782648e+001
8.715743e+002,6.813269e+001
8.725386e+002,6.772150e+001
8.735028e+002,6.940308e+001
8.744670e+002,7.509369e+001
8.754313e+002,8.229565e+001
8.763955e+002,8.680573e+001
8.773597e+002,8.708337e+001
8.783240e+002,8.630634e+001
8.792882e+002,8.518079e+001
8.802524e+002,8.470679e+001
8.812167e+002,8.673566e+001
8.821809e+002,9.105017e+001
8.831451e+002,9.535052e+001
8.841094e+002,9.665588e+001
8.850736e+002,9.551172e+001
8.860378e+002,9.634906e+001
8.870021e+002,9.934180e+001
8.879663e+002,1.021522e+002
8.889305e+002,1.025905e+002
8.898948e+002,1.012156e+002
8.908590e+002,1.019241e+002
8.918232e+002,1.067412e+002
8.927875e+002,1.118839e+002
8.937517e+002,1.179503e+002
8.947159e+002,1.230369e+002
8.956802e+002,1.241523e+002
8.966444e+002,1.210623e+002
8.976086e+002,1.178981e+002
8.985729e+002,1.198951e+002
8.995371e+002,1.247686e+002
9.005013e+002,1.277245e+002
9.014656e+002,1.291734e+002
9.024298e+002,1.307468e+002
9.033940e+002,1.333447e+002
9.043583e+002,1.363513e+002
9.053225e+002,1.384697e+002
9.062867e+002,1.378022e+002
9.072510e+002,1.378873e+002
9.082152e+002,1.410800e+002
9.091794e+002,1.448218e+002
9.101437e+002,1.459832e+002
9.111079e+002,1.439787e+002
9.120721e+002,1.422675e+002
9.130364e+002,1.434604e+002
9.140006e+002,1.439474e+002
9.149648e+002,1.414238e+002
9.159291e+002,1.373088e+002
9.168933e+002,1.340325e+002
9.178575e+002,1.330452e+002
9.188218e+002,1.336360e+002
9.197860e+002,1.348389e+002
9.207502e+002,1.364996e+002
9.217145e+002,1.362146e+002
9.226787e+002,1.333262e+002
9.236429e+002,1.298392e+002
9.246072e+002,1.281490e+002
9.255714e+002,1.283326e+002
9.265356e+002,1.275420e+002
9.274999e+002,1.244902e+002
9.284641e+002,1.208087e+002
9.294283e+002,1.169250e+002
9.303926e+002,1.132612e+002
9.313568e+002,1.100557e+002
9.323210e+002,1.073586e+002
9.332853e+002,1.052841e+002
9.342495e+002,1.047382e+002
9.352137e+002,1.046849e+002
9.361780e+002,1.040937e+002
9.371422e+002,1.031392e+002
9.381064e+002,1.020674e+002
9.390707e+002,1.004082e+002
9.400349e+002,9.704736e+001
9.409991e+002,9.676300e+001
9.419634e+002,1.020664e+002
9.429276e+002,1.064933e+002
9.438918e+002,1.091625e+002
9.448561e+002,1.098772e+002
9.458203e+002,1.078068e+002
9.467845e+002,1.021937e+002
9.477488e+002,9.737415e+001
9.487130e+002,9.632635e+001
9.496772e+002,9.733850e+001
9.506415e+002,1.010247e+002
9.516057e+002,1.059674e+002
9.525699e+002,1.079720e+002
9.535342e+002,1.027272e+002
9.544984e+002,9.136401e+001
9.554626e+002,8.607001e+001
9.564269e+002,8.834430e+001
9.573911e+002,9.128833e+001
9.583553e+002,9.188562e+001
9.593196e+002,9.231744e+001
9.602838e+002,9.780707e+001
9.612480e+002,1.110534e+002
9.622123e+002,1.176534e+002
9.631765e+002,1.076082e+002
9.641407e+002,9.645514e+001
9.651050e+002,9.035889e+001
9.660692e+002,8.872247e+001
9.670334e+002,8.907227e+001
9.679977e+002,9.026495e+001
9.689619e+002,9.178790e+001
9.699261e+002,9.010742e+001
9.708904e+002,8.636945e+001
9.718546e+002,8.585046e+001
9.728188e+002,8.985901e+001
9.737831e+002,9.569403e+001
9.747473e+002,9.933795e+001
9.757115e+002,9.971045e+001
9.766758e+002,1.050228e+002
9.776400e+002,1.240754e+002
9.786042e+002,1.382574e+002
9.795685e+002,1.411904e+002
9.805327e+002,1.367220e+002
9.814969e+002,1.304536e+002
9.824612e+002,1.245869e+002
9.834254e+002,1.180721e+002
9.843896e+002,1.080024e+002
9.853539e+002,9.671277e+001
9.863181e+002,8.590100e+001
9.872823e+002,7.601190e+001
9.882466e+002,6.873407e+001
9.892108e+002,6.611176e+001
9.901750e+002,6.834601e+001
9.911393e+002,7.162219e+001
9.921035e+002,7.573169e+001
9.930677e+002,7.809552e+001
9.940320e+002,7.781067e+001
9.949962e+002,7.743628e+001
9.959604e+002,7.909888e+001
9.969247e+002,8.306494e+001
9.978889e+002,8.863464e+001
9.988531e+002,9.609222e+001
9.998174e+002,1.027095e+002
1.000782e+003,1.082902e+002
1.001746e+003,1.124417e+002
1.002710e+003,1.138353e+002
1.003674e+003,1.121542e+002
1.004639e+003,1.093054e+002
1.005603e+003,1.087786e+002
1.006567e+003,1.106449e+002
1.007531e+003,1.114069e+002
1.008495e+003,1.115035e+002
1.009460e+003,1.100096e+002
1.010424e+003,1.052068e+002
1.011388e+003,9.838696e+001
1.012352e+003,9.475323e+001
1.013317e+003,9.695319e+001
1.014281e+003,9.745691e+001
1.015245e+003,9.199072e+001
1.016209e+003,8.550604e+001
1.017174e+003,8.294861e+001
1.018138e+003,8.356018e+001
1.019102e+003,8.179333e+001
1.020066e+003,7.284015e+001
1.021031e+003,6.016827e+001
1.021995e+003,5.281641e+001
1.022959e+003,4.925885e+001
1.023923e+003,4.632532e+001
1.024887e+003,4.328644e+001
1.025852e+003,3.964880e+001
1.026816e+003,3.435059e+001
1.027780e+003,2.697296e+001
1.028744e+003,2.196515e+001
1.029709e+003,2.075897e+001
1.030673e+003,2.039258e+001
1.031637e+003,2.063202e+001
1.032601e+003,2.062500e+001
1.033566e+003,1.925140e+001
1.034530e+003,1.632770e+001
1.035494e+003,1.366479e+001
1.036458e+003,1.307288e+001
1.037422e+003,1.378900e+001
1.038387e+003,1.524762e+001
1.039351e+003,1.702679e+001
1.040315e+003,1.743933e+001
1.041279e+003,1.516528e+001
1.042244e+003,1.119537e+001
1.043208e+003,9.485657e+000
1.044172e+003,1.136823e+001
1.045136e+003,1.232147e+001
1.046101e+003,1.231970e+001
1.047065e+003,1.187738e+001
1.048029e+003,1.022723e+001
1.048993e+003,8.074280e+000
1.049958e+003,8.355957e+000
1.050922e+003,1.358264e+001
1.051886e+003,1.961078e+001
1.052850e+003,2.237494e+001
1.053814e+003,2.308002e+001
1.054779e+003,2.265161e+001
1.055743e+003,2.147101e+001
1.056707e+003,2.028809e+001
1.057671e+003,2.008582e+001
1.058636e+003,2.076709e+001
1.059600e+003,2.040588e+001
1.060564e+003,1.694226e+001
1.061528e+003,1.674286e+001
1.062493e+003,2.326819e+001
1.063457e+003,3.077618e+001
1.064421e+003,3.348822e+001
1.065385e+003,3.094586e+001
1.066349e+003,2.574347e+001
1.067314e+003,1.603949e+001
1.068278e+003,7.910828e+000
1.069242e+003,6.462402e+000
1.070206e+003,9.254700e+000
1.071171e+003,1.232684e+001
1.072135e+003,1.368982e+001
1.073099e+003,1.396436e+001
1.074063e+003,1.452582e+001
1.075028e+003,1.555267e+001
1.075992e+003,1.770087e+001
1.076956e+003,2.209351e+001
1.077920e+003,2.478992e+001
1.078885e+003,2.435645e+001
1.079849e+003,2.201746e+001
1.080813e+003,1.915167e+001
1.081777e+003,1.561847e+001
1.082741e+003,1.383234e+001
1.083706e+003,1.639197e+001
1.084670e+003,1.886615e+001
1.085634e+003,1.876288e+001
1.086598e+003,1.668164e+001
1.087563e+003,1.434003e+001
1.088527e+003,1.293903e+001
1.089491e+003,1.223950e+001
1.090455e+003,1.083679e+001
1.091420e+003,8.214417e+000
1.092384e+003,8.282471e+000
1.093348e+003,1.267126e+001
1.094312e+003,1.599628e+001
1.095276e+003,1.413690e+001
1.096241e+003,9.449585e+000
1.097205e+003,8.873169e+000
1.098169e+003,1.488495e+001
1.099133e+003,1.889130e+001
1.100098e+003,1.600085e+001
1.101062e+003,1.227643e+001
1.102026e+003,1.167218e+001
1.102990e+003,1.350671e+001
1.103955e+003,1.475653e+001
1.104919e+003,1.350543e+001
1.105883e+003,1.126208e+001
1.106847e+003,1.180450e+001
1.107812e+003,1.509094e+001
1.108776e+003,1.644702e+001
1.109740e+003,1.456647e+001
1.110704e+003,1.308105e+001
1.111668e+003,1.570636e+001
1.112633e+003,2.163654e+001
1.113597e+003,2.590491e+001
1.114561e+003,2.729163e+001
1.115525e+003,2.769537e+001
1.116490e+003,2.656360e+001
1.117454e+003,2.572980e+001
1.118418e+003,2.748993e+001
1.119382e+003,3.108704e+001
1.120347e+003,3.353632e+001
1.121311e+003,3.262140e+001
1.122275e+003,2.981757e+001
1.123239e+003,2.982483e+001
1.124203e+003,3.289532e+001
1.125168e+003,3.353015e+001
1.126132e+003,3.025348e+001
1.127096e+003,2.777380e+001
1.128060e+003,3.027155e+001
1.129025e+003,3.636615e+001
1.129989e+003,4.001910e+001
1.130953e+003,3.905591e+001
1.131917e+003,3.924884e+001
1.132882e+003,4.266095e+001
1.133846e+003,4.739728e+001
1.134810e+003,5.309637e+001
1.135774e+003,5.913116e+001
1.136739e+003,6.413837e+001
1.137703e+003,6.736798e+001
1.138667e+003,7.064923e+001
1.139631e+003,7.771527e+001
1.140595e+003,8.805792e+001
1.141560e+003,9.733270e+001
1.142524e+003,1.052216e+002
1.143488e+003,1.139995e+002
1.144452e+003,1.242306e+002
1.145417e+003,1.363473e+002
1.146381e+003,1.520745e+002
1.147345e+003,1.717225e+002
1.148309e+003,1.940012e+002
1.149274e+003,2.197400e+002
1.150238e+003,2.470764e+002
1.151202e+003,2.770239e+002
1.152166e+003,3.079470e+002
1.153130e+003,3.381797e+002
1.154095e+003,3.660573e+002
1.155059e+003,3.878691e+002
1.156023e+003,3.992374e+002
1.156987e+003,3.999121e+002
1.157952e+003,3.924340e+002
1.158916e+003,3.767896e+002
1.159880e+003,3.592158e+002
1.160844e+003,3.430453e+002
1.161809e+003,3.253361e+002
1.162773e+003,2.996576e+002
1.163737e+003,2.634896e+002
1.164701e+003,2.309402e+002
1.165666e+003,2.077100e+002
1.166630e+003,1.874019e+002
1.167594e+003,1.674662e+002
1.168558e+003,1.490134e+002
1.169522e+003,1.337891e+002
1.170487e+003,1.223911e+002
1.171451e+003,1.146877e+002
1.172415e+003,1.107256e+002
1.173379e+003,1.097786e+002
1.174344e+003,1.090958e+002
1.175308e+003,1.090579e+002
1.176272e+003,1.074323e+002
1.177236e+003,1.029672e+002
1.178201e+003,9.730487e+001
1.179165e+003,9.165033e+001
1.180129e+003,8.561145e+001
1.181093e+003,8.133704e+001
1.182057e+003,8.144702e+001
1.183022e+003,8.064545e+001
1.183986e+003,7.538672e+001
1.184950e+003,6.956940e+001
1.185914e+003,6.679517e+001
1.186879e+003,6.764209e+001
1.187843e+003,7.118964e+001
1.188807e+003,7.665961e+001
1.189771e+003,8.232019e+001
1.190736e+003,8.288275e+001
1.191700e+003,7.755859e+001
1.192664e+003,7.487274e+001
1.193628e+003,7.778613e+001
1.194593e+003,8.115381e+001
1.195557e+003,8.138293e+001
1.196521e+003,7.894580e+001
1.197485e+003,7.568842e+001
1.198449e+003,7.191217e+001
1.199414e+003,6.749500e+001
1.200378e+003,6.186786e+001
1.201342e+003,5.613837e+001
1.202306e+003,5.014581e+001
1.203271e+003,4.447638e+001
1.204235e+003,4.049585e+001
1.205199e+003,3.883514e+001
1.206163e+003,3.847375e+001
1.207128e+003,3.780176e+001
1.208092e+003,3.693713e+001
1.209056e+003,3.225531e+001
1.210020e+003,2.143298e+001
1.210984e+003,1.220367e+001
1.211949e+003,7.805481e+000
1.212913e+003,5.296082e+000
1.213877e+003,1.132446e+000
1.214841e+003,-4.797302e+000
1.215806e+003,-1.066589e+001
1.216770e+003,-1.584460e+001
1.217734e+003,-2.094055e+001
1.218698e+003,-2.753271e+001
1.219663e+003,-3.405768e+001
1.220627e+003,-3.812933e+001
1.221591e+003,-3.963525e+001
1.222555e+003,-4.059448e+001
1.223520e+003,-4.280048e+001
1.224484e+003,-4.573663e+001
1.225448e+003,-4.781927e+001
1.226412e+003,-4.914825e+001
1.227376e+003,-4.938422e+001
1.228341e+003,-4.742883e+001
1.229305e+003,-4.595758e+001
1.230269e+003,-4.727667e+001
1.231233e+003,-4.992889e+001
1.232198e+003,-5.043921e+001
1.233162e+003,-4.761133e+001
1.234126e+003,-4.446271e+001
1.235090e+003,-4.317737e+001
1.236055e+003,-4.328021e+001
1.237019e+003,-4.467688e+001
1.237983e+003,-4.693311e+001
1.238947e+003,-4.847791e+001
1.239911e+003,-4.846252e+001
1.240876e+003,-4.803577e+001
1.241840e+003,-4.926007e+001
1.242804e+003,-5.225226e+001
1.243768e+003,-5.422327e+001
1.244733e+003,-5.469220e+001
1.245697e+003,-5.460339e+001
1.246661e+003,-5.523962e+001
1.247625e+003,-5.506085e+001
1.248590e+003,-5.165778e+001
1.249554e+003,-4.589227e+001
1.250518e+003,-4.119989e+001
1.251482e+003,-3.938245e+001
1.252447e+003,-3.888263e+001
1.253411e+003,-3.740155e+001
1.254375e+003,-3.550433e+001
1.255339e+003,-3.512878e+001
1.256303e+003,-3.606616e+001
1.257268e+003,-3.626581e+001
1.258232e+003,-3.508447e+001
1.259196e+003,-3.281305e+001
1.260160e+003,-2.890149e+001
1.261125e+003,-2.252692e+001
1.262089e+003,-1.731458e+001
1.263053e+003,-1.434277e+001
1.264017e+003,-1.270135e+001
1.264982e+003,-1.276410e+001
1.265946e+003,-1.327295e+001
1.266910e+003,-1.252679e+001
1.267874e+003,-1.100708e+001
1.268839e+003,-1.120081e+001
1.269803e+003,-1.476208e+001
1.270767e+003,-1.972510e+001
1.271731e+003,-2.237842e+001
1.272695e+003,-2.244592e+001
1.273660e+003,-2.138293e+001
1.274624e+003,-1.919714e+001
1.275588e+003,-1.781616e+001
1.276552e+003,-1.750494e+001
1.277517e+003,-1.825659e+001
1.278481e+003,-2.144647e+001
1.279445e+003,-2.763129e+001
1.280409e+003,-3.124084e+001
1.281374e+003,-2.817322e+001
1.282338e+003,-2.505945e+001
1.283302e+003,-2.532959e+001
1.284266e+003,-2.753235e+001
1.285230e+003,-3.064941e+001
1.286195e+003,-3.397546e+001
1.287159e+003,-3.625964e+001
1.288123e+003,-3.627887e+001
1.289087e+003,-3.467462e+001
1.290052e+003,-3.422754e+001
1.291016e+003,-3.564618e+001
1.291980e+003,-3.698755e+001
1.292944e+003,-3.908862e+001
1.293909e+003,-4.080273e+001
1.294873e+003,-4.065503e+001
1.295837e+003,-3.978271e+001
1.296801e+003,-4.010675e+001
1.297766e+003,-4.178314e+001
1.298730e+003,-4.323932e+001
1.299694e+003,-4.381390e+001
1.300658e+003,-4.421149e+001
1.301622e+003,-4.476019e+001
1.302587e+003,-4.546716e+001
1.303551e+003,-4.700476e+001
1.304515e+003,-4.915460e+001
1.305479e+003,-5.005371e+001
1.306444e+003,-4.829980e+001
1.307408e+003,-4.468213e+001
1.308372e+003,-4.092145e+001
1.309336e+003,-3.611755e+001
1.310301e+003,-3.417523e+001
1.311265e+003,-3.772931e+001
1.312229e+003,-4.058411e+001
1.313193e+003,-4.046497e+001
1.314157e+003,-3.926758e+001
1.315122e+003,-3.913763e+001
1.316086e+003,-4.034937e+001
1.317050e+003,-4.178088e+001
1.318014e+003,-4.255164e+001
1.318979e+003,-4.263422e+001
1.319943e+003,-4.225525e+001
1.320907e+003,-4.120190e+001
1.321871e+003,-3.942285e+001
1.322836e+003,-3.723560e+001
1.323800e+003,-3.512939e+001
1.324764e+003,-3.299786e+001
1.325728e+003,-3.112750e+001
1.326693e+003,-3.037299e+001
1.327657e+003,-3.100018e+001
1.328621e+003,-3.160724e+001
1.329585e+003,-3.037067e+001
1.330549e+003,-2.921576e+001
1.331514e+003,-3.067810e+001
1.332478e+003,-3.321600e+001
1.333442e+003,-3.518536e+001
1.334406e+003,-3.620844e+001
1.335371e+003,-3.647192e+001
1.336335e+003,-3.615375e+001
1.337299e+003,-3.576221e+001
1.338263e+003,-3.648108e+001
1.339228e+003,-3.852637e+001
1.340192e+003,-3.947382e+001
1.341156e+003,-3.900244e+001
1.342120e+003,-3.804596e+001
1.343084e+003,-3.672913e+001
1.344049e+003,-3.570258e+001
1.345013e+003,-3.532526e+001
1.345977e+003,-3.514038e+001
1.346941e+003,-3.425909e+001
1.347906e+003,-3.235834e+001
1.348870e+003,-3.026794e+001
1.349834e+003,-2.830408e+001
1.350798e+003,-2.743347e+001
1.351763e+003,-2.941504e+001
1.352727e+003,-3.358667e+001
1.353691e+003,-3.674585e+001
1.354655e+003,-3.767487e+001
1.355620e+003,-3.728687e+001
1.356584e+003,-3.622247e+001
1.357548e+003,-3.447797e+001
1.358512e+003,-3.331183e+001
1.359476e+003,-3.352722e+001
1.360441e+003,-3.376349e+001
1.361405e+003,-3.342151e+001
1.362369e+003,-3.285889e+001
1.363333e+003,-3.208673e+001
1.364298e+003,-3.123981e+001
1.365262e+003,-3.043396e+001
1.366226e+003,-2.971661e+001
1.367190e+003,-2.910437e+001
1.368155e+003,-2.861420e+001
1.369119e+003,-2.823999e+001
1.370083e+003,-2.790070e+001
1.371047e+003,-2.744775e+001
1.372011e+003,-2.667535e+001
1.372976e+003,-2.588062e+001
1.373940e+003,-2.529309e+001
1.374904e+003,-2.432727e+001
1.375868e+003,-2.368030e+001
1.376833e+003,-2.515656e+001
1.377797e+003,-2.844989e+001
1.378761e+003,-3.007910e+001
1.379725e+003,-2.818652e+001
1.380690e+003,-2.509314e+001
1.381654e+003,-2.275006e+001
1.382618e+003,-2.072144e+001
1.383582e+003,-1.791772e+001
1.384547e+003,-1.467041e+001
1.385511e+003,-1.371259e+001
1.386475e+003,-1.708777e+001
1.387439e+003,-2.177728e+001
1.388403e+003,-2.282611e+001
1.389368e+003,-2.028839e+001
1.390332e+003,-1.838593e+001
1.391296e+003,-1.715674e+001
1.392260e+003,-1.615399e+001
1.393225e+003,-1.539679e+001
1.394189e+003,-1.487177e+001
1.395153e+003,-1.466669e+001
1.396117e+003,-1.462067e+001
1.397082e+003,-1.416833e+001
1.398046e+003,-1.330756e+001
1.399010e+003,-1.334058e+001
1.399974e+003,-1.579987e+001
1.400938e+003,-1.971429e+001
1.401903e+003,-2.051227e+001
1.402867e+003,-1.602686e+001
1.403831e+003,-1.267426e+001
1.404795e+003,-1.135681e+001
1.405760e+003,-1.091797e+001
1.406724e+003,-1.237701e+001
1.407688e+003,-1.492303e+001
1.408652e+003,-1.711798e+001
1.409617e+003,-1.830231e+001
1.410581e+003,-1.822345e+001
1.411545e+003,-1.672626e+001
1.412509e+003,-1.431006e+001
1.413474e+003,-1.082959e+001
1.414438e+003,-7.896667e+000
1.415402e+003,-7.568665e+000
1.416366e+003,-9.212585e+000
1.417330e+003,-1.106561e+001
1.418295e+003,-1.264722e+001
1.419259e+003,-1.341174e+001
1.420223e+003,-1.284711e+001
1.421187e+003,-1.130328e+001
1.422152e+003,-9.290527e+000
1.423116e+003,-6.273193e+000
1.424080e+003,-2.991150e+000
1.425044e+003,1.110840e+000
1.426009e+003,3.695313e+000
1.426973e+003,3.217468e+000
1.427937e+003,9.464111e-001
1.428901e+003,-2.151672e+000
1.429865e+003,-5.166443e+000
1.430830e+003,-6.867676e+000
1.431794e+003,-6.648682e+000
1.432758e+003,-5.086060e+000
1.433722e+003,-2.698608e+000
1.434687e+003,1.238098e+000
1.435651e+003,4.835876e+000
1.436615e+003,6.599609e+000
1.437579e+003,7.392334e+000
1.438544e+003,7.239014e+000
1.439508e+003,6.555786e+000
1.440472e+003,5.133789e+000
1.441436e+003,4.086426e+000
1.442401e+003,5.805481e+000
1.443365e+003,1.029150e+001
1.444329e+003,1.304480e+001
1.445293e+003,1.028601e+001
1.446257e+003,5.746155e+000
1.447222e+003,7.008057e+000
1.448186e+003,1.274261e+001
1.449150e+003,1.615570e+001
1.450114e+003,1.653564e+001
1.451079e+003,1.462830e+001
1.452043e+003,8.888733e+000
1.453007e+003,2.972595e+000
1.453971e+003,2.321838e+000
1.454936e+003,6.106812e+000
1.455900e+003,9.003113e+000
1.456864e+003,1.014899e+001
1.457828e+003,1.029181e+001
1.458792e+003,7.918213e+000
1.459757e+003,5.936707e+000
1.460721e+003,8.543152e+000
1.461685e+003,1.291290e+001
1.462649e+003,1.261810e+001
1.463614e+003,6.555969e+000
1.464578e+003,3.349609e-001
1.465542e+003,-1.301086e+000
1.466506e+003,3.344727e-001
1.467471e+003,2.189819e+000
1.468435e+003,4.976624e+000
1.469399e+003,6.858521e+000
1.470363e+003,5.613831e+000
1.471328e+003,5.481934e+000
1.472292e+003,9.539917e+000
1.473256e+003,1.215771e+001
1.474220e+003,7.825256e+000
1.475184e+003,3.084106e-001
1.476149e+003,-3.317932e+000
1.477113e+003,-1.103210e+000
1.478077e+003,3.480530e+000
1.479041e+003,7.487122e+000
1.480006e+003,1.115741e+001
1.480970e+003,1.427496e+001
1.481934e+003,1.621844e+001
1.482898e+003,1.829736e+001
1.483863e+003,2.109143e+001
1.484827e+003,2.298932e+001
1.485791e+003,2.286938e+001
1.486755e+003,2.298547e+001
1.487719e+003,2.552563e+001
1.488684e+003,2.958038e+001
1.489648e+003,3.256445e+001
1.490612e+003,3.391541e+001
1.491576e+003,3.609448e+001
1.492541e+003,4.125403e+001
1.493505e+003,4.774408e+001
1.494469e+003,5.153680e+001
1.495433e+003,5.282385e+001
1.496398e+003,5.609082e+001
1.497362e+003,6.328680e+001
1.498326e+003,7.021674e+001
1.499290e+003,7.255017e+001
1.500255e+003,7.476312e+001
1.501219e+003,8.379053e+001
1.502183e+003,9.839020e+001
1.503147e+003,1.109467e+002
1.504111e+003,1.192438e+002
1.505076e+003,1.282452e+002
1.506040e+003,1.404805e+002
1.507004e+003,1.554236e+002
1.507968e+003,1.725597e+002
1.508933e+003,1.916436e+002
1.509897e+003,2.122410e+002
1.510861e+003,2.349270e+002
1.511825e+003,2.601870e+002
1.512790e+003,2.876811e+002
1.513754e+003,3.177081e+002
1.514718e+003,3.528394e+002
1.515682e+003,3.925754e+002
1.516646e+003,4.286693e+002
1.517611e+003,4.612031e+002
1.518575e+003,4.896178e+002
1.519539e+003,5.133134e+002
1.520503e+003,5.342195e+002
1.521468e+003,5.557035e+002
1.522432e+003,5.732881e+002
1.523396e+003,5.808112e+002
1.524360e+003,5.776781e+002
1.525325e+003,5.672980e+002
1.526289e+003,5.520735e+002
1.527253e+003,5.332678e+002
1.528217e+003,5.129291e+002
1.529182e+003,4.914618e+002
1.530146e+003,4.661008e+002
1.531110e+003,4.359810e+002
1.532074e+003,4.024188e+002
1.533039e+003,3.620405e+002
1.534003e+003,3.208469e+002
1.534967e+003,2.816571e+002
1.535931e+003,2.447446e+002
1.536896e+003,2.089042e+002
1.537860e+003,1.751887e+002
1.538824e+003,1.463657e+002
1.539788e+003,1.235906e+002
1.540752e+003,1.053317e+002
1.541717e+003,8.983032e+001
1.542681e+003,7.748529e+001
1.543645e+003,6.905890e+001
1.544609e+003,6.684760e+001
1.545573e+003,6.413226e+001
1.546538e+003,5.817914e+001
1.547502e+003,5.405408e+001
1.548466e+003,5.526337e+001
1.549430e+003,5.891022e+001
1.550395e+003,6.283105e+001
1.551359e+003,6.578009e+001
1.552323e+003,6.575348e+001
1.553287e+003,6.229773e+001
1.554252e+003,5.828888e+001
1.555216e+003,5.643347e+001
1.556180e+003,5.496265e+001
1.557144e+003,4.880695e+001
1.558109e+003,3.798712e+001
1.559073e+003,3.270697e+001
1.560037e+003,3.558282e+001
1.561001e+003,3.748993e+001
1.561966e+003,3.481750e+001
1.562930e+003,3.169318e+001
1.563894e+003,3.176575e+001
1.564858e+003,3.391833e+001
1.565823e+003,3.555951e+001
1.566787e+003,3.608368e+001
1.567751e+003,3.560809e+001
1.568715e+003,3.391211e+001
1.569679e+003,3.272772e+001
1.570644e+003,3.526807e+001
1.571608e+003,3.920746e+001
1.572572e+003,3.775006e+001
1.573536e+003,3.082239e+001
1.574500e+003,2.676801e+001
1.575465e+003,2.928748e+001
1.576429e+003,3.355859e+001
1.577393e+003,3.594232e+001
1.578357e+003,3.699622e+001
1.579322e+003,3.792413e+001
1.580286e+003,3.899609e+001
1.581250e+003,4.072058e+001
1.582214e+003,4.350543e+001
1.583179e+003,4.596301e+001
1.584143e+003,4.670459e+001
1.585107e+003,4.642078e+001
1.586071e+003,4.653339e+001
1.587036e+003,4.735394e+001
1.588000e+003,4.841516e+001
1.588964e+003,4.932257e+001
1.589928e+003,5.002893e+001
1.590893e+003,5.041113e+001
1.591857e+003,5.082141e+001
1.592821e+003,5.204944e+001
1.593785e+003,5.394232e+001
1.594750e+003,5.487280e+001
1.595714e+003,5.415033e+001
1.596678e+003,5.444879e+001
1.597642e+003,5.770795e+001
1.598606e+003,6.113568e+001
1.599571e+003,6.200885e+001
1.600535e+003,6.227228e+001
1.601499e+003,6.490314e+001
1.602463e+003,6.935382e+001
1.603427e+003,7.209131e+001
1.604392e+003,7.155591e+001
1.605356e+003,7.036652e+001
1.606320e+003,7.165765e+001
1.607284e+003,7.424042e+001
1.608249e+003,7.424658e+001
1.609213e+003,7.156213e+001
1.610177e+003,7.001837e+001
1.611141e+003,7.060992e+001
1.612106e+003,7.149945e+001
1.613070e+003,7.252698e+001
1.614034e+003,7.273877e+001
1.614998e+003,7.104816e+001
1.615963e+003,6.824829e+001
1.616927e+003,6.497632e+001
1.617891e+003,6.164380e+001
1.618855e+003,6.008850e+001
1.619820e+003,6.147015e+001
1.620784e+003,6.346838e+001
1.621748e+003,6.319440e+001
1.622712e+003,6.170740e+001
1.623677e+003,6.212274e+001
1.624641e+003,6.478680e+001
1.625605e+003,6.778528e+001
1.626569e+003,6.999768e+001
1.627533e+003,7.152087e+001
1.628498e+003,7.310925e+001
1.629462e+003,7.444775e+001
1.630426e+003,7.485596e+001
1.631390e+003,7.468140e+001
1.632354e+003,7.465649e+001
1.633319e+003,7.499170e+001
1.634283e+003,7.603217e+001
1.635247e+003,7.834967e+001
1.636211e+003,8.026062e+001
1.637176e+003,7.815808e+001
1.638140e+003,7.262610e+001
1.639104e+003,6.977484e+001
1.640068e+003,7.001917e+001
1.641033e+003,7.128839e+001
1.641997e+003,7.482446e+001
1.642961e+003,7.722815e+001
1.643925e+003,7.548260e+001
1.644890e+003,7.291003e+001
1.645854e+003,7.318689e+001
1.646818e+003,7.529211e+001
1.647782e+003,7.590363e+001
1.648747e+003,7.401117e+001
1.649711e+003,7.142346e+001
1.650675e+003,6.953448e+001
1.651639e+003,6.894366e+001
1.652604e+003,7.106879e+001
1.653568e+003,7.552771e+001
1.654532e+003,7.777496e+001
1.655496e+003,7.733362e+001
1.656460e+003,7.554663e+001
1.657425e+003,7.206683e+001
1.658389e+003,6.861115e+001
1.659353e+003,6.562646e+001
1.660317e+003,6.339600e+001
1.661281e+003,6.259302e+001
1.662246e+003,6.262982e+001
1.663210e+003,6.204669e+001
1.664174e+003,6.052881e+001
1.665138e+003,5.911078e+001
1.666103e+003,5.838483e+001
1.667067e+003,5.821320e+001
1.668031e+003,5.932910e+001
1.668995e+003,6.156653e+001
1.669960e+003,6.040771e+001
1.670924e+003,5.446564e+001
1.671888e+003,5.019604e+001
1.672852e+003,4.985315e+001
1.673817e+003,5.082428e+001
1.674781e+003,5.305432e+001
1.675745e+003,5.441864e+001
1.676709e+003,5.118329e+001
1.677674e+003,4.499677e+001
1.678638e+003,4.141022e+001
1.679602e+003,4.216473e+001
1.680566e+003,4.433356e+001
1.681531e+003,4.670789e+001
1.682495e+003,4.829120e+001
1.683459e+003,4.580103e+001
1.684423e+003,4.001636e+001
1.685387e+003,3.791309e+001
1.686352e+003,4.075275e+001
1.687316e+003,4.297931e+001
1.688280e+003,4.241785e+001
1.689244e+003,4.158990e+001
1.690208e+003,4.324500e+001
1.691173e+003,4.476233e+001
1.692137e+003,4.266187e+001
1.693101e+003,3.833569e+001
1.694065e+003,3.572168e+001
1.695030e+003,3.547479e+001
1.695994e+003,3.532227e+001
1.696958e+003,3.376044e+001
1.697922e+003,3.215149e+001
1.698887e+003,3.266400e+001
1.699851e+003,3.454047e+001
1.700815e+003,3.507422e+001
1.701779e+003,3.386407e+001
1.702744e+003,3.202527e+001
1.703708e+003,3.004504e+001
1.704672e+003,2.878345e+001
1.705636e+003,2.857446e+001
1.706601e+003,2.864447e+001
1.707565e+003,2.923102e+001
1.708529e+003,2.994189e+001
1.709493e+003,2.801691e+001
1.710458e+003,2.270892e+001
1.711422e+003,1.828735e+001
1.712386e+003,1.654156e+001
1.713350e+003,1.683612e+001
1.714314e+003,1.977167e+001
1.715279e+003,2.308179e+001
1.716243e+003,2.270270e+001
1.717207e+003,1.927710e+001
1.718171e+003,1.708124e+001
1.719135e+003,1.737988e+001
1.720100e+003,1.849866e+001
1.721064e+003,1.951251e+001
1.722028e+003,1.967719e+001
1.722992e+003,1.787653e+001
1.723957e+003,1.495892e+001
1.724921e+003,1.369885e+001
1.725885e+003,1.377295e+001
1.726849e+003,1.316718e+001
1.727814e+003,1.200824e+001
1.728778e+003,1.093591e+001
1.729742e+003,9.541748e+000
1.730706e+003,8.689331e+000
1.731671e+003,9.404602e+000
1.732635e+003,1.054321e+001
1.733599e+003,1.021320e+001
1.734563e+003,8.742737e+000
1.735528e+003,8.307678e+000
1.736492e+003,9.882996e+000
1.737456e+003,1.226666e+001
1.738420e+003,1.419751e+001
1.739385e+003,1.520416e+001
1.740349e+003,1.457990e+001
1.741313e+003,1.223633e+001
1.742277e+003,1.014935e+001
1.743241e+003,8.105896e+000
1.744206e+003,7.232727e+000
1.745170e+003,8.122375e+000
1.746134e+003,9.299194e+000
1.747098e+003,1.023267e+001
1.748063e+003,1.074683e+001
1.749027e+003,1.077795e+001
1.749991e+003,1.037695e+001
1.750955e+003,9.336304e+000
1.751919e+003,7.691040e+000
1.752884e+003,6.316650e+000
1.753848e+003,5.953552e+000
1.754812e+003,5.899231e+000
1.755776e+003,4.842773e+000
1.756741e+003,3.184143e+000
1.757705e+003,3.645630e+000
1.758669e+003,7.020630e+000
1.759633e+003,9.268250e+000
1.760598e+003,8.803833e+000
1.761562e+003,8.287231e+000
1.762526e+003,9.673218e+000
1.763490e+003,1.080334e+001
1.764455e+003,9.903625e+000
1.765419e+003,7.944031e+000
1.766383e+003,5.957336e+000
1.767347e+003,4.219788e+000
1.768312e+003,3.303406e+000
1.769276e+003,3.381226e+000
1.770240e+003,3.900208e+000
1.771204e+003,4.930664e+000
1.772168e+003,6.470520e+000
1.773133e+003,7.818420e+000
1.774097e+003,8.938293e+000
1.775061e+003,9.464294e+000
1.776025e+003,8.863342e+000
1.776990e+003,8.667236e+000
1.777954e+003,1.041077e+001
1.778918e+003,1.159265e+001
1.779882e+003,8.720703e+000
1.780846e+003,4.935608e+000
1.781811e+003,5.679993e+000
1.782775e+003,9.491089e+000
1.783739e+003,1.107513e+001
1.784703e+003,9.671448e+000
1.785668e+003,7.847229e+000
1.786632e+003,4.991699e+000
1.787596e+003,3.352661e+000
1.788560e+003,7.018250e+000
1.789525e+003,1.213177e+001
1.790489e+003,1.161731e+001
1.791453e+003,7.183777e+000
1.792417e+003,6.642212e+000
1.793382e+003,1.112109e+001
1.794346e+003,1.340424e+001
1.795310e+003,9.465149e+000
1.796274e+003,3.467651e+000
1.797239e+003,-7.116699e-002
1.798203e+003,-5.437622e-001
1.799167e+003,3.135254e+000
1.800131e+003,1.137927e+001
1.801095e+003,1.578516e+001
1.802060e+003,1.528387e+001
1.803024e+003,1.448303e+001
1.803988e+003,1.314911e+001
1.804952e+003,1.189404e+001
1.805917e+003,1.081024e+001
1.806881e+003,1.008533e+001
1.807845e+003,1.029950e+001
1.808809e+003,1.109509e+001
1.809773e+003,1.170306e+001
1.810738e+003,1.186304e+001
1.811702e+003,1.153613e+001
1.812666e+003,1.068805e+001
1.813630e+003,9.921204e+000
1.814595e+003,1.007776e+001
1.815559e+003,1.086066e+001
1.816523e+003,1.154895e+001
1.817487e+003,1.223792e+001
1.818452e+003,1.288007e+001
1.819416e+003,1.427563e+001
1.820380e+003,1.418921e+001
1.821344e+003,9.900391e+000
1.822309e+003,6.262756e+000
1.823273e+003,7.566650e+000
1.824237e+003,1.025885e+001
1.825201e+003,9.716187e+000
1.826166e+003,7.370605e+000
1.827130e+003,8.497803e+000
1.828094e+003,1.370624e+001
1.829058e+003,1.624799e+001
1.830022e+003,1.155426e+001
1.830987e+003,6.846619e+000
1.831951e+003,9.273071e+000
1.832915e+003,1.447162e+001
1.833879e+003,1.594922e+001
1.834844e+003,1.461530e+001
1.835808e+003,1.407117e+001
1.836772e+003,1.494611e+001
1.837736e+003,1.645026e+001
1.838700e+003,1.812817e+001
1.839665e+003,1.863391e+001
1.840629e+003,1.662091e+001
1.841593e+003,1.360162e+001
1.842557e+003,1.249432e+001
1.843522e+003,1.326062e+001
1.844486e+003,1.429205e+001
1.845450e+003,1.694427e+001
1.846414e+003,1.809558e+001
1.847379e+003,1.552911e+001
1.848343e+003,1.331366e+001
1.849307e+003,1.275848e+001
1.850271e+003,1.323480e+001
1.851236e+003,1.514709e+001
1.852200e+003,1.755054e+001
1.853164e+003,1.899005e+001
1.854128e+003,1.906097e+001
1.855093e+003,1.812207e+001
1.856057e+003,1.675006e+001
1.857021e+003,1.562109e+001
1.857985e+003,1.499634e+001
1.858949e+003,1.514795e+001
1.859914e+003,1.749969e+001
1.860878e+003,2.139734e+001
1.861842e+003,2.202545e+001
1.862806e+003,1.913428e+001
1.863771e+003,1.771820e+001
1.864735e+003,1.882251e+001
1.865699e+003,1.955975e+001
1.866663e+003,1.872668e+001
1.867627e+003,1.769720e+001
1.868592e+003,1.716260e+001
1.869556e+003,1.687689e+001
1.870520e+003,1.732983e+001
1.871484e+003,1.825934e+001
1.872449e+003,1.797113e+001
1.873413e+003,1.675476e+001
1.874377e+003,1.669666e+001
1.875341e+003,1.799390e+001
1.876306e+003,1.930609e+001
1.877270e+003,1.977521e+001
1.878234e+003,1.982794e+001
1.879198e+003,1.994556e+001
1.880163e+003,2.023785e+001
1.881127e+003,2.124939e+001
1.882091e+003,2.260101e+001
1.883055e+003,2.229291e+001
1.884020e+003,1.971680e+001
1.884984e+003,1.747870e+001
1.885948e+003,1.798120e+001
1.886912e+003,2.018695e+001
1.887876e+003,2.216882e+001
1.888841e+003,2.397150e+001
1.889805e+003,2.563373e+001
1.890769e+003,2.727515e+001
1.891733e+003,2.806390e+001
1.892698e+003,2.727942e+001
1.893662e+003,2.651654e+001
1.894626e+003,2.674438e+001
1.895590e+003,2.685095e+001
1.896554e+003,2.594818e+001
1.897519e+003,2.496503e+001
1.898483e+003,2.422247e+001
1.899447e+003,2.382410e+001
1.900411e+003,2.544000e+001
1.901376e+003,2.964923e+001
1.902340e+003,3.266156e+001
1.903304e+003,3.269568e+001
1.904268e+003,3.163153e+001
1.905233e+003,2.979279e+001
1.906197e+003,2.845734e+001
1.907161e+003,2.948981e+001
1.908125e+003,3.186499e+001
1.909090e+003,3.346649e+001
1.910054e+003,3.393060e+001
1.911018e+003,3.410144e+001
1.911982e+003,3.439734e+001
1.912947e+003,3.414917e+001
1.913911e+003,3.275562e+001
1.914875e+003,3.129468e+001
1.915839e+003,3.128979e+001
1.916803e+003,3.239862e+001
1.917768e+003,3.462091e+001
1.918732e+003,3.865063e+001
1.919696e+003,4.086481e+001
1.920660e+003,4.089404e+001
1.921625e+003,4.065973e+001
1.922589e+003,4.049750e+001
1.923553e+003,3.974622e+001
1.924517e+003,3.715692e+001
1.925481e+003,3.474237e+001
1.926446e+003,3.465698e+001
1.927410e+003,3.591284e+001
1.928374e+003,3.622577e+001
1.929338e+003,3.536108e+001
1.930303e+003,3.542944e+001
1.931267e+003,3.810925e+001
1.932231e+003,3.984033e+001
1.933195e+003,3.748370e+001
1.934160e+003,3.465582e+001
1.935124e+003,3.425140e+001
1.936088e+003,3.444916e+001
1.937052e+003,3.229077e+001
1.938017e+003,2.967438e+001
1.938981e+003,3.206140e+001
1.939945e+003,3.864655e+001
1.940909e+003,4.154236e+001
1.941874e+003,3.744092e+001
1.942838e+003,3.223962e+001
1.943802e+003,3.167621e+001
1.944766e+003,3.442242e+001
1.945730e+003,3.750488e+001
1.946695e+003,4.049591e+001
1.947659e+003,4.182227e+001
1.948623e+003,4.132465e+001
1.949587e+003,3.957281e+001
1.950552e+003,3.605078e+001
1.951516e+003,3.455389e+001
1.952480e+003,3.705640e+001
1.953444e+003,4.029480e+001
1.954408e+003,4.207764e+001
1.955373e+003,4.284424e+001
1.956337e+003,4.416071e+001
1.957301e+003,4.567731e+001
1.958265e+003,4.396429e+001
1.959230e+003,3.822540e+001
1.960194e+003,3.603522e+001
1.961158e+003,4.037805e+001
1.962122e+003,4.416364e+001
1.963087e+003,4.586786e+001
1.964051e+003,4.640179e+001
1.965015e+003,4.618707e+001
1.965979e+003,4.581427e+001
1.966944e+003,4.566077e+001
1.967908e+003,4.516003e+001
1.968872e+003,4.271655e+001
1.969836e+003,3.915393e+001
1.970801e+003,3.814722e+001
1.971765e+003,4.115613e+001
1.972729e+003,4.533423e+001
1.973693e+003,4.859149e+001
1.974657e+003,5.065930e+001
1.975622e+003,5.005768e+001
1.976586e+003,4.808771e+001
1.977550e+003,4.964331e+001
1.978514e+003,5.388916e+001
1.979479e+003,5.403040e+001
1.980443e+003,4.935858e+001
1.981407e+003,4.725665e+001
1.982371e+003,5.070465e+001
1.983335e+003,5.554224e+001
1.984300e+003,5.872681e+001
1.985264e+003,5.986371e+001
1.986228e+003,5.823914e+001
1.987192e+003,5.459442e+001
1.988157e+003,5.292578e+001
1.989121e+003,5.391309e+001
1.990085e+003,5.412097e+001
1.991049e+003,5.328351e+001
1.992014e+003,5.262085e+001
1.992978e+003,5.166071e+001
1.993942e+003,5.134204e+001
1.994906e+003,5.248572e+001
1.995871e+003,5.388959e+001
1.996835e+003,5.555237e+001
1.997799e+003,5.662872e+001
1.998763e+003,5.462469e+001
1.999728e+003,5.048077e+001
