5.003444e+002,3.984189e+001
5.013087e+002,3.960823e+001
5.022729e+002,4.229156e+001
5.032371e+002,4.643236e+001
5.042014e+002,4.632373e+001
5.051656e+002,4.268279e+001
5.061298e+002,3.878229e+001
5.070941e+002,3.759328e+001
5.080583e+002,3.971957e+001
5.090225e+002,4.082239e+001
5.099868e+002,4.082138e+001
5.109510e+002,4.027405e+001
5.119152e+002,3.909953e+001
5.128795e+002,3.723535e+001
5.138437e+002,3.623500e+001
5.148079e+002,3.801471e+001
5.157722e+002,3.956670e+001
5.167364e+002,3.940746e+001
5.177006e+002,3.745576e+001
5.186649e+002,3.487560e+001
5.196291e+002,3.262170e+001
5.205933e+002,3.118089e+001
5.215576e+002,3.123532e+001
5.225218e+002,3.258711e+001
5.234860e+002,3.443729e+001
5.244503e+002,3.554265e+001
5.254145e+002,3.589561e+001
5.263787e+002,3.534805e+001
5.273430e+002,3.312851e+001
5.283072e+002,3.052612e+001
5.292714e+002,2.950099e+001
5.302357e+002,3.125159e+001
5.311999e+002,3.146426e+001
5.321641e+002,2.860521e+001
5.331284e+002,2.536522e+001
5.340926e+002,2.385580e+001
5.350568e+002,2.485721e+001
5.360211e+002,2.638869e+001
5.369853e+002,2.724266e+001
5.379495e+002,2.762131e+001
5.389138e+002,2.751819e+001
5.398780e+002,2.693750e+001
5.408422e+002,2.590781e+001
5.418065e+002,2.422542e+001
5.427707e+002,2.205708e+001
5.437349e+002,2.079005e+001
5.446992e+002,2.086940e+001
5.456634e+002,2.201854e+001
5.466276e+002,2.334731e+001
5.475919e+002,2.618948e+001
5.485561e+002,2.744005e+001
5.495203e+002,2.595126e+001
5.504846e+002,2.306180e+001
5.514488e+002,2.068381e+001
5.524130e+002,1.959285e+001
5.533773e+002,1.904820e+001
5.543415e+002,1.876147e+001
5.553057e+002,1.859814e+001
5.562700e+002,1.836153e+001
5.572342e+002,1.791745e+001
5.581984e+002,1.744337e+001
5.591627e+002,1.752969e+001
5.601269e+002,1.805420e+001
5.610911e+002,1.881958e+001
5.620554e+002,1.975993e+001
5.630196e+002,2.065807e+001
5.639838e+002,1.989493e+001
5.649481e+002,1.520877e+001
5.659123e+002,1.215143e+001
5.668765e+002,1.280116e+001
5.678408e+002,1.595979e+001
5.688050e+002,1.797931e+001
5.697692e+002,1.691936e+001
5.707335e+002,1.564282e+001
5.716977e+002,1.550003e+001
5.726619e+002,1.565033e+001
5.736262e+002,1.457724e+001
5.745904e+002,1.095998e+001
5.755546e+002,7.175293e+000
5.765189e+002,6.861038e+000
5.774831e+002,8.767639e+000
5.784473e+002,1.128018e+001
5.794116e+002,1.333736e+001
5.803758e+002,1.495258e+001
5.813400e+002,1.486917e+001
5.823043e+002,1.252884e+001
5.832685e+002,1.008485e+001
5.842327e+002,8.154984e+000
5.851970e+002,6.825790e+000
5.861612e+002,6.154022e+000
5.871254e+002,6.602127e+000
5.880897e+002,7.122726e+000
5.890539e+002,7.582367e+000
5.900181e+002,7.902420e+000
5.909824e+002,8.041748e+000
5.919466e+002,7.989639e+000
5.929108e+002,7.818298e+000
5.938751e+002,7.482330e+000
5.948393e+002,7.128479e+000
5.958035e+002,7.130661e+000
5.967678e+002,7.761658e+000
5.977320e+002,8.862717e+000
5.986962e+002,8.464966e+000
5.996605e+002,6.381958e+000
6.006247e+002,4.690643e+000
6.015889e+002,4.524063e+000
6.025532e+002,5.784286e+000
6.035174e+002,6.739365e+000
6.044816e+002,7.612640e+000
6.054459e+002,7.883545e+000
6.064101e+002,6.634232e+000
6.073743e+002,4.843628e+000
6.083386e+002,4.512131e+000
6.093028e+002,7.677643e+000
6.102670e+002,1.047232e+001
6.112313e+002,9.430283e+000
6.121955e+002,6.424042e+000
6.131597e+002,3.851410e+000
6.141240e+002,3.352127e+000
6.150882e+002,4.375519e+000
6.160524e+002,4.719711e+000
6.170167e+002,4.564209e+000
6.179809e+002,4.414810e+000
6.189451e+002,4.440674e+000
6.199094e+002,4.556931e+000
6.208736e+002,4.546280e+000
6.218378e+002,3.948364e+000
6.228021e+002,4.065430e+000
6.237663e+002,5.819016e+000
6.247305e+002,8.195724e+000
6.256948e+002,9.416443e+000
6.266590e+002,8.249771e+000
6.276232e+002,6.765884e+000
6.285875e+002,6.463394e+000
6.295517e+002,6.687698e+000
6.305159e+002,6.687149e+000
6.314802e+002,6.028839e+000
6.324444e+002,5.003403e+000
6.334086e+002,4.736267e+000
6.343729e+002,5.025162e+000
6.353371e+002,4.943130e+000
6.363013e+002,4.036743e+000
6.372656e+002,2.608932e+000
6.382298e+002,1.870270e+000
6.391940e+002,3.215958e+000
6.401583e+002,3.248505e+000
6.411225e+002,1.040359e+000
6.420867e+002,-1.797104e+000
6.430510e+002,-3.460297e+000
6.440152e+002,-3.420578e+000
6.449794e+002,-2.785904e+000
6.459437e+002,-1.610840e+000
6.469079e+002,-5.640259e-001
6.478721e+002,-1.751251e-001
6.488364e+002,-5.830383e-001
6.498006e+002,-1.459747e+000
6.507648e+002,-2.751755e+000
6.517291e+002,-4.046921e+000
6.526933e+002,-4.009064e+000
6.536575e+002,-2.333084e+000
6.546218e+002,2.229767e-001
6.555860e+002,2.244324e+000
6.565502e+002,3.545074e+000
6.575145e+002,4.525818e+000
6.584787e+002,5.680252e+000
6.594429e+002,6.216690e+000
6.604072e+002,5.096786e+000
6.613714e+002,1.955841e+000
6.623356e+002,-5.419159e-001
6.632999e+002,-5.537109e-001
6.642641e+002,-2.577972e-001
6.652283e+002,-8.896027e-001
6.661926e+002,-2.317657e+000
6.671568e+002,-3.389053e+000
6.681210e+002,-2.632095e+000
6.690853e+002,-6.842194e-001
6.700495e+002,9.081726e-001
6.710137e+002,2.080887e+000
6.719780e+002,2.590958e+000
6.729422e+002,2.052048e+000
6.739064e+002,5.435181e-002
6.748707e+002,-6.992493e-001
6.758349e+002,7.642059e-001
6.767991e+002,1.929443e+000
6.777634e+002,1.378586e+000
6.787276e+002,-5.049896e-001
6.796918e+002,-1.306671e+000
6.806561e+002,8.974609e-001
6.816203e+002,3.034409e+000
6.825845e+002,4.235352e+000
6.835488e+002,4.491577e+000
6.845130e+002,3.906616e+000
6.854772e+002,2.514740e+000
6.864415e+002,6.881714e-001
6.874057e+002,-1.539383e+000
6.883699e+002,-3.840668e+000
6.893342e+002,-4.559631e+000
6.902984e+002,-2.558426e+000
6.912626e+002,1.580627e+000
6.922269e+002,3.586029e+000
6.931911e+002,1.544235e+000
6.941553e+002,2.673340e-001
6.951196e+002,4.427490e-001
6.960838e+002,1.265381e+000
6.970480e+002,1.406128e+000
6.980123e+002,1.287994e-001
6.989765e+002,-4.143219e-001
6.999407e+002,1.300537e+000
7.009050e+002,3.440750e+000
7.018692e+002,4.402878e+000
7.028334e+002,3.720703e+000
7.037977e+002,2.481537e+000
7.047619e+002,2.529648e+000
7.057261e+002,3.400803e+000
7.066904e+002,4.114365e+000
7.076546e+002,4.503159e+000
7.086188e+002,4.368011e+000
7.095831e+002,3.275269e+000
7.105473e+002,4.609222e-001
7.115115e+002,-9.541626e-001
7.124758e+002,-1.473846e-001
7.134400e+002,8.554993e-001
7.144042e+002,8.776093e-001
7.153685e+002,-8.151245e-002
7.163327e+002,-1.038666e+000
7.172969e+002,-1.778214e+000
7.182612e+002,-2.163239e+000
7.192254e+002,-2.215958e+000
7.201896e+002,-1.903320e+000
7.211539e+002,-9.425507e-001
7.221181e+002,1.076172e+000
7.230823e+002,3.287827e+000
7.240466e+002,3.065140e+000
7.250108e+002,1.092773e+000
7.259750e+002,-2.133179e-001
7.269393e+002,6.652679e-001
7.279035e+002,3.159988e+000
7.288677e+002,3.476608e+000
7.298320e+002,-1.754562e+000
7.307962e+002,-4.469482e+000
7.317604e+002,-2.551987e+000
7.327247e+002,1.569672e+000
7.336889e+002,4.656799e+000
7.346531e+002,5.826401e+000
7.356174e+002,5.363037e+000
7.365816e+002,2.931915e+000
7.375458e+002,4.945374e-002
7.385101e+002,-2.543152e+000
7.394743e+002,-4.421890e+000
7.404385e+002,-5.215424e+000
7.414028e+002,-3.946991e+000
7.423670e+002,-1.390900e+000
7.433312e+002,-2.782593e-001
7.442955e+002,-6.970978e-001
7.452597e+002,-1.643265e+000
7.462239e+002,-2.116272e+000
7.471882e+002,-2.079056e+000
7.481524e+002,-1.904541e+000
7.491166e+002,-1.824097e+000
7.500809e+002,-1.692734e+000
7.510451e+002,-1.284698e+000
7.520093e+002,-7.394867e-001
7.529736e+002,-5.006561e-001
7.539378e+002,-6.565552e-001
7.549020e+002,-1.124298e+000
7.558663e+002,-2.392410e+000
7.568306e+002,-3.740601e+000
7.577948e+002,-4.126724e+000
7.587590e+002,-3.003296e+000
7.597233e+002,-9.880676e-001
7.606875e+002,4.675598e-001
7.616517e+002,1.479492e+000
7.626160e+002,1.886902e+000
7.635802e+002,1.352310e+000
7.645444e+002,5.182648e-001
7.655087e+002,8.566895e-001
7.664729e+002,3.406143e+000
7.674371e+002,4.714096e+000
7.684014e+002,3.794785e+000
7.693656e+002,2.504578e+000
7.703298e+002,2.157806e+000
7.712941e+002,2.853302e+000
7.722583e+002,3.421860e+000
7.732225e+002,3.204300e+000
7.741868e+002,2.230988e+000
7.751510e+002,-2.268066e-001
7.761152e+002,-3.400040e+000
7.770795e+002,-5.608643e+000
7.780437e+002,-5.366623e+000
7.790079e+002,-3.051208e+000
7.799722e+002,-1.583664e+000
7.809364e+002,-9.678802e-001
7.819006e+002,-5.175018e-001
7.828649e+002,2.090149e-001
7.838291e+002,1.082611e+000
7.847933e+002,1.353806e+000
7.857576e+002,-1.690216e-001
7.867218e+002,-5.135803e-001
7.876860e+002,2.385208e+000
7.886503e+002,5.607559e+000
7.896145e+002,6.267242e+000
7.905787e+002,3.787598e+000
7.915430e+002,1.097778e+000
7.925072e+002,1.430634e+000
7.934714e+002,3.104797e+000
7.944357e+002,4.976074e+000
7.953999e+002,6.720428e+000
7.963641e+002,7.670105e+000
7.973284e+002,6.958267e+000
7.982926e+002,4.431320e+000
7.992568e+002,3.306091e+000
8.002211e+002,3.814178e+000
8.011853e+002,4.360870e+000
8.021495e+002,4.750305e+000
8.031138e+002,5.058640e+000
8.040780e+002,4.967133e+000
8.050422e+002,3.673065e+000
8.060065e+002,2.907364e+000
8.069707e+002,3.619202e+000
8.079349e+002,4.679642e+000
8.088992e+002,4.793015e+000
8.098634e+002,3.662277e+000
8.108276e+002,2.631317e+000
8.117919e+002,4.112411e+000
8.127561e+002,6.622055e+000
8.137203e+002,7.324600e+000
8.146846e+002,6.041718e+000
8.156488e+002,4.271713e+000
8.166130e+002,3.818604e+000
8.175773e+002,4.999710e+000
8.185415e+002,5.360504e+000
8.195057e+002,4.156082e+000
8.204700e+002,3.007645e+000
8.214342e+002,2.134430e+000
8.223984e+002,1.742249e+000
8.233627e+002,2.483475e+000
8.243269e+002,5.432785e+000
8.252911e+002,7.908188e+000
8.262554e+002,8.276855e+000
8.272196e+002,7.563187e+000
8.281838e+002,6.539139e+000
8.291481e+002,5.636475e+000
8.301123e+002,5.103622e+000
8.310765e+002,5.628098e+000
8.320408e+002,6.971451e+000
8.330050e+002,6.933105e+000
8.339692e+002,5.186066e+000
8.349335e+002,2.818512e+000
8.358977e+002,5.494232e-001
8.368619e+002,-1.819382e+000
8.378262e+002,-2.138733e+000
8.387904e+002,2.140396e+000
8.397546e+002,5.400314e+000
8.407189e+002,5.625473e+000
8.416831e+002,4.068893e+000
8.426473e+002,3.020935e+000
8.436116e+002,3.513916e+000
8.445758e+002,4.724457e+000
8.455400e+002,6.050110e+000
8.465043e+002,7.160950e+000
8.474685e+002,7.878235e+000
8.484327e+002,8.194611e+000
8.493970e+002,8.018951e+000
8.503612e+002,6.994232e+000
8.513254e+002,4.804062e+000
8.522897e+002,3.906219e+000
8.532539e+002,4.819946e+000
8.542181e+002,6.012146e+000
8.551824e+002,6.954712e+000
8.561466e+002,7.710205e+000
8.571108e+002,7.824997e+000
8.580751e+002,5.850159e+000
8.590393e+002,4.492722e+000
8.600035e+002,4.786194e+000
8.609678e+002,6.205688e+000
8.619320e+002,8.599075e+000
8.628962e+002,1.170625e+001
8.638605e+002,1.422737e+001
8.648247e+002,1.340776e+001
8.657889e+002,1.071164e+001
8.667532e+002,9.212250e+000
8.677174e+002,9.315063e+000
8.686816e+002,1.055617e+001
8.696459e+002,1.275978e+001
8.706101e+002,1.639288e+001
8.715743e+002,1.769743e+001
8.725386e+002,1.429417e+001
8.735028e+002,1.183971e+001
8.744670e+002,1.208681e+001
8.754313e+002,1.399406e+001
8.763955e+002,1.559161e+001
8.773597e+002,1.622363e+001
8.783240e+002,1.683186e+001
8.792882e+002,1.866917e+001
8.802524e+002,2.035831e+001
8.812167e+002,2.020261e+001
8.821809e+002,1.824654e+001
8.831451e+002,1.622845e+001
8.841094e+002,1.647755e+001
8.850736e+002,1.898615e+001
8.860378e+002,2.060042e+001
8.870021e+002,2.111119e+001
8.879663e+002,2.140068e+001
8.889305e+002,2.189211e+001
8.898948e+002,2.249158e+001
8.908590e+002,2.289656e+001
8.918232e+002,2.315555e+001
8.927875e+002,2.326819e+001
8.937517e+002,2.284306e+001
8.947159e+002,2.257428e+001
8.956802e+002,2.320894e+001
8.966444e+002,2.469826e+001
8.976086e+002,2.598021e+001
8.985729e+002,2.589706e+001
8.995371e+002,2.525494e+001
9.005013e+002,2.542218e+001
9.014656e+002,2.632373e+001
9.024298e+002,2.713994e+001
9.033940e+002,2.714265e+001
9.043583e+002,2.640637e+001
9.053225e+002,2.625577e+001
9.062867e+002,2.751315e+001
9.072510e+002,2.812158e+001
9.082152e+002,2.773686e+001
9.091794e+002,2.713463e+001
9.101437e+002,2.712292e+001
9.111079e+002,2.782358e+001
9.120721e+002,2.838554e+001
9.130364e+002,2.798593e+001
9.140006e+002,2.736363e+001
9.149648e+002,2.696501e+001
9.159291e+002,2.684811e+001
9.168933e+002,2.686226e+001
9.178575e+002,2.685396e+001
9.188218e+002,2.688358e+001
9.197860e+002,2.748967e+001
9.207502e+002,2.865746e+001
9.217145e+002,2.924194e+001
9.226787e+002,2.898114e+001
9.236429e+002,2.836226e+001
9.246072e+002,2.789217e+001
9.255714e+002,2.750087e+001
9.265356e+002,2.716142e+001
9.274999e+002,2.709755e+001
9.284641e+002,2.674007e+001
9.294283e+002,2.569206e+001
9.303926e+002,2.433565e+001
9.313568e+002,2.325551e+001
9.323210e+002,2.273422e+001
9.332853e+002,2.263477e+001
9.342495e+002,2.338481e+001
9.352137e+002,2.424690e+001
9.361780e+002,2.382773e+001
9.371422e+002,2.193860e+001
9.381064e+002,1.977502e+001
9.390707e+002,1.887274e+001
9.400349e+002,1.934157e+001
9.409991e+002,1.951665e+001
9.419634e+002,1.933412e+001
9.429276e+002,1.893547e+001
9.438918e+002,1.765472e+001
9.448561e+002,1.644711e+001
9.458203e+002,1.728079e+001
9.467845e+002,2.119444e+001
9.477488e+002,2.483699e+001
9.487130e+002,2.555086e+001
9.496772e+002,2.500624e+001
9.506415e+002,2.418475e+001
9.516057e+002,2.331137e+001
9.525699e+002,2.222995e+001
9.535342e+002,2.075500e+001
9.544984e+002,1.892308e+001
9.554626e+002,1.725162e+001
9.564269e+002,1.539763e+001
9.573911e+002,1.539146e+001
9.583553e+002,1.935875e+001
9.593196e+002,2.474707e+001
9.602838e+002,2.723813e+001
9.612480e+002,2.604887e+001
9.622123e+002,2.437115e+001
9.631765e+002,2.293777e+001
9.641407e+002,2.150307e+001
9.651050e+002,1.958549e+001
9.660692e+002,1.754271e+001
9.670334e+002,1.620885e+001
9.679977e+002,1.617390e+001
9.689619e+002,1.696696e+001
9.699261e+002,1.759155e+001
9.708904e+002,1.797754e+001
9.718546e+002,1.788780e+001
9.728188e+002,1.703058e+001
9.737831e+002,1.648572e+001
9.747473e+002,1.810591e+001
9.757115e+002,2.260448e+001
9.766758e+002,2.556964e+001
9.776400e+002,2.580966e+001
9.786042e+002,2.614540e+001
9.795685e+002,2.767685e+001
9.805327e+002,2.931439e+001
9.814969e+002,2.955539e+001
9.824612e+002,2.796623e+001
9.834254e+002,2.572787e+001
9.843896e+002,2.354613e+001
9.853539e+002,2.137219e+001
9.863181e+002,1.913593e+001
9.872823e+002,1.682199e+001
9.882466e+002,1.456758e+001
9.892108e+002,1.259251e+001
9.901750e+002,1.105690e+001
9.911393e+002,1.017079e+001
9.921035e+002,9.559891e+000
9.930677e+002,9.759735e+000
9.940320e+002,1.171227e+001
9.949962e+002,1.399080e+001
9.959604e+002,1.501651e+001
9.969247e+002,1.477602e+001
9.978889e+002,1.526431e+001
9.988531e+002,1.837611e+001
9.998174e+002,2.087601e+001
1.000782e+003,2.063199e+001
1.001746e+003,1.879686e+001
1.002710e+003,1.687262e+001
1.003674e+003,1.560490e+001
1.004639e+003,1.488275e+001
1.005603e+003,1.452440e+001
1.006567e+003,1.453940e+001
1.007531e+003,1.504077e+001
1.008495e+003,1.610709e+001
1.009460e+003,1.749049e+001
1.010424e+003,1.989696e+001
1.011388e+003,2.268155e+001
1.012352e+003,2.267433e+001
1.013317e+003,1.731824e+001
1.014281e+003,1.351305e+001
1.015245e+003,1.468814e+001
1.016209e+003,1.663040e+001
1.017174e+003,1.611137e+001
1.018138e+003,1.318929e+001
1.019102e+003,1.024225e+001
1.020066e+003,9.258408e+000
1.021031e+003,9.560196e+000
1.021995e+003,8.878784e+000
1.022959e+003,7.363617e+000
1.023923e+003,6.359268e+000
1.024887e+003,6.400650e+000
1.025852e+003,6.933243e+000
1.026816e+003,7.124405e+000
1.027780e+003,6.961411e+000
1.028744e+003,6.903854e+000
1.029709e+003,7.314285e+000
1.030673e+003,7.404083e+000
1.031637e+003,6.741852e+000
1.032601e+003,5.630249e+000
1.033566e+003,4.470978e+000
1.034530e+003,3.444336e+000
1.035494e+003,2.658325e+000
1.036458e+003,2.397797e+000
1.037422e+003,2.258530e+000
1.038387e+003,1.346039e+000
1.039351e+003,-2.459717e-001
1.040315e+003,-1.384247e+000
1.041279e+003,-1.178436e+000
1.042244e+003,2.103271e-001
1.043208e+003,1.888229e+000
1.044172e+003,4.701996e+000
1.045136e+003,5.978851e+000
1.046101e+003,5.097260e+000
1.047065e+003,3.472168e+000
1.048029e+003,1.187057e+000
1.048993e+003,-1.173111e+000
1.049958e+003,-1.657883e+000
1.050922e+003,1.447968e+000
1.051886e+003,4.771271e+000
1.052850e+003,4.190994e+000
1.053814e+003,2.015701e+000
1.054779e+003,1.283829e+000
1.055743e+003,2.569595e+000
1.056707e+003,4.274780e+000
1.057671e+003,4.427551e+000
1.058636e+003,2.994186e+000
1.059600e+003,2.921036e+000
1.060564e+003,6.587067e+000
1.061528e+003,8.367020e+000
1.062493e+003,5.622986e+000
1.063457e+003,1.681702e+000
1.064421e+003,4.170837e-001
1.065385e+003,2.274933e+000
1.066349e+003,4.442917e+000
1.067314e+003,6.021515e+000
1.068278e+003,6.836609e+000
1.069242e+003,6.667389e+000
1.070206e+003,5.838913e+000
1.071171e+003,4.535477e+000
1.072135e+003,2.930130e+000
1.073099e+003,1.563492e+000
1.074063e+003,1.480103e+000
1.075028e+003,2.879944e+000
1.075992e+003,3.632492e+000
1.076956e+003,3.322281e+000
1.077920e+003,3.028244e+000
1.078885e+003,3.410522e+000
1.079849e+003,4.109528e+000
1.080813e+003,4.309326e+000
1.081777e+003,3.793976e+000
1.082741e+003,3.476089e+000
1.083706e+003,4.076599e+000
1.084670e+003,4.567825e+000
1.085634e+003,4.168640e+000
1.086598e+003,3.253220e+000
1.087563e+003,2.551666e+000
1.088527e+003,2.544434e+000
1.089491e+003,3.338257e+000
1.090455e+003,5.252930e+000
1.091420e+003,8.373474e+000
1.092384e+003,9.065689e+000
1.093348e+003,6.517487e+000
1.094312e+003,2.982254e+000
1.095276e+003,-1.045914e+000
1.096241e+003,-4.923019e+000
1.097205e+003,-6.589691e+000
1.098169e+003,-5.239349e+000
1.099133e+003,-3.529541e+000
1.100098e+003,-2.007477e+000
1.101062e+003,-8.018494e-001
1.102026e+003,-1.976318e-001
1.102990e+003,4.499817e-002
1.103955e+003,4.641571e-001
1.104919e+003,1.364853e+000
1.105883e+003,2.370483e+000
1.106847e+003,2.683487e+000
1.107812e+003,2.269241e+000
1.108776e+003,2.071915e+000
1.109740e+003,2.264175e+000
1.110704e+003,2.400238e+000
1.111668e+003,2.155716e+000
1.112633e+003,1.693649e+000
1.113597e+003,1.445862e+000
1.114561e+003,1.361710e+000
1.115525e+003,1.530182e+000
1.116490e+003,2.073608e+000
1.117454e+003,2.713745e+000
1.118418e+003,3.432922e+000
1.119382e+003,4.191040e+000
1.120347e+003,4.937027e+000
1.121311e+003,5.559952e+000
1.122275e+003,5.715851e+000
1.123239e+003,4.708954e+000
1.124203e+003,2.813583e+000
1.125168e+003,1.887512e+000
1.126132e+003,2.277344e+000
1.127096e+003,3.172958e+000
1.128060e+003,3.979965e+000
1.129025e+003,4.714432e+000
1.129989e+003,5.676819e+000
1.130953e+003,7.150192e+000
1.131917e+003,8.117142e+000
1.132882e+003,7.495224e+000
1.133846e+003,7.211487e+000
1.134810e+003,9.029388e+000
1.135774e+003,1.213602e+001
1.136739e+003,1.442978e+001
1.137703e+003,1.472583e+001
1.138667e+003,1.393922e+001
1.139631e+003,1.346416e+001
1.140595e+003,1.336992e+001
1.141560e+003,1.405907e+001
1.142524e+003,1.580283e+001
1.143488e+003,1.772810e+001
1.144452e+003,1.894670e+001
1.145417e+003,1.982550e+001
1.146381e+003,2.173445e+001
1.147345e+003,2.480847e+001
1.148309e+003,2.861041e+001
1.149274e+003,3.353592e+001
1.150238e+003,3.866360e+001
1.151202e+003,4.364407e+001
1.152166e+003,4.854524e+001
1.153130e+003,5.372748e+001
1.154095e+003,5.919994e+001
1.155059e+003,6.410126e+001
1.156023e+003,6.751208e+001
1.156987e+003,6.924837e+001
1.157952e+003,6.885468e+001
1.158916e+003,6.626567e+001
1.159880e+003,6.310019e+001
1.160844e+003,6.005235e+001
1.161809e+003,5.670892e+001
1.162773e+003,5.222260e+001
1.163737e+003,4.621561e+001
1.164701e+003,4.082162e+001
1.165666e+003,3.701588e+001
1.166630e+003,3.362483e+001
1.167594e+003,3.033197e+001
1.168558e+003,2.711650e+001
1.169522e+003,2.377959e+001
1.170487e+003,2.042734e+001
1.171451e+003,1.792430e+001
1.172415e+003,1.735139e+001
1.173379e+003,1.825790e+001
1.174344e+003,1.828520e+001
1.175308e+003,1.742888e+001
1.176272e+003,1.673700e+001
1.177236e+003,1.659015e+001
1.178201e+003,1.679797e+001
1.179165e+003,1.732794e+001
1.180129e+003,1.812895e+001
1.181093e+003,1.784688e+001
1.182057e+003,1.529634e+001
1.183022e+003,1.307100e+001
1.183986e+003,1.250874e+001
1.184950e+003,1.243494e+001
1.185914e+003,1.161418e+001
1.186879e+003,1.006383e+001
1.187843e+003,8.633362e+000
1.188807e+003,7.965302e+000
1.189771e+003,8.149292e+000
1.190736e+003,1.003406e+001
1.191700e+003,1.397110e+001
1.192664e+003,1.541579e+001
1.193628e+003,1.217163e+001
1.194593e+003,8.842346e+000
1.195557e+003,9.404190e+000
1.196521e+003,1.253964e+001
1.197485e+003,1.338928e+001
1.198449e+003,1.049817e+001
1.199414e+003,7.716156e+000
1.200378e+003,7.329559e+000
1.201342e+003,7.147858e+000
1.202306e+003,5.247345e+000
1.203271e+003,2.489624e+000
1.204235e+003,1.135437e+000
1.205199e+003,2.189896e+000
1.206163e+003,4.070572e+000
1.207128e+003,3.996368e+000
1.208092e+003,1.810791e+000
1.209056e+003,1.764694e+000
1.210020e+003,5.445663e+000
1.210984e+003,7.766846e+000
1.211949e+003,6.542099e+000
1.212913e+003,3.607559e+000
1.213877e+003,1.304214e+000
1.214841e+003,-1.875153e-001
1.215806e+003,-2.028336e+000
1.216770e+003,-5.288300e+000
1.217734e+003,-8.029480e+000
1.218698e+003,-8.655792e+000
1.219663e+003,-8.347427e+000
1.220627e+003,-8.383636e+000
1.221591e+003,-9.084702e+000
1.222555e+003,-1.032965e+001
1.223520e+003,-1.203844e+001
1.224484e+003,-1.384560e+001
1.225448e+003,-1.414619e+001
1.226412e+003,-1.173297e+001
1.227376e+003,-1.056863e+001
1.228341e+003,-1.165982e+001
1.229305e+003,-1.287796e+001
1.230269e+003,-1.309715e+001
1.231233e+003,-1.262840e+001
1.232198e+003,-1.199257e+001
1.233162e+003,-1.124217e+001
1.234126e+003,-1.103452e+001
1.235090e+003,-1.255040e+001
1.236055e+003,-1.428104e+001
1.237019e+003,-1.448656e+001
1.237983e+003,-1.358000e+001
1.238947e+003,-1.255000e+001
1.239911e+003,-1.178342e+001
1.240876e+003,-1.146712e+001
1.241840e+003,-1.210632e+001
1.242804e+003,-1.382321e+001
1.243768e+003,-1.418404e+001
1.244733e+003,-1.102425e+001
1.245697e+003,-9.399933e+000
1.246661e+003,-1.143721e+001
1.247625e+003,-1.370963e+001
1.248590e+003,-1.309795e+001
1.249554e+003,-1.032117e+001
1.250518e+003,-8.463089e+000
1.251482e+003,-8.995453e+000
1.252447e+003,-1.039243e+001
1.253411e+003,-1.097510e+001
1.254375e+003,-1.091983e+001
1.255339e+003,-1.057574e+001
1.256303e+003,-9.953125e+000
1.257268e+003,-9.493881e+000
1.258232e+003,-9.635315e+000
1.259196e+003,-1.002614e+001
1.260160e+003,-9.809982e+000
1.261125e+003,-8.842911e+000
1.262089e+003,-7.696869e+000
1.263053e+003,-5.940460e+000
1.264017e+003,-4.817535e+000
1.264982e+003,-4.654343e+000
1.265946e+003,-5.149170e+000
1.266910e+003,-6.486557e+000
1.267874e+003,-8.223373e+000
1.268839e+003,-9.141266e+000
1.269803e+003,-8.409317e+000
1.270767e+003,-6.905380e+000
1.271731e+003,-6.314819e+000
1.272695e+003,-6.586105e+000
1.273660e+003,-6.542679e+000
1.274624e+003,-5.977493e+000
1.275588e+003,-5.929108e+000
1.276552e+003,-7.540558e+000
1.277517e+003,-9.650787e+000
1.278481e+003,-9.817932e+000
1.279445e+003,-7.747620e+000
1.280409e+003,-6.609589e+000
1.281374e+003,-8.784439e+000
1.282338e+003,-1.018414e+001
1.283302e+003,-7.144012e+000
1.284266e+003,-3.211990e+000
1.285230e+003,-3.101196e+000
1.286195e+003,-6.828323e+000
1.287159e+003,-1.033269e+001
1.288123e+003,-1.023483e+001
1.289087e+003,-7.794083e+000
1.290052e+003,-7.032562e+000
1.291016e+003,-8.612213e+000
1.291980e+003,-9.836243e+000
1.292944e+003,-1.101395e+001
1.293909e+003,-1.163161e+001
1.294873e+003,-1.102328e+001
1.295837e+003,-9.878250e+000
1.296801e+003,-9.089539e+000
1.297766e+003,-8.799881e+000
1.298730e+003,-8.896515e+000
1.299694e+003,-9.566177e+000
1.300658e+003,-1.027361e+001
1.301622e+003,-1.037926e+001
1.302587e+003,-1.008182e+001
1.303551e+003,-9.563156e+000
1.304515e+003,-8.889359e+000
1.305479e+003,-8.467026e+000
1.306444e+003,-8.718048e+000
1.307408e+003,-9.450439e+000
1.308372e+003,-9.900925e+000
1.309336e+003,-1.000775e+001
1.310301e+003,-1.003311e+001
1.311265e+003,-9.812576e+000
1.312229e+003,-9.645798e+000
1.313193e+003,-9.809830e+000
1.314157e+003,-9.979050e+000
1.315122e+003,-9.529877e+000
1.316086e+003,-8.677292e+000
1.317050e+003,-8.662125e+000
1.318014e+003,-1.036226e+001
1.318979e+003,-1.239037e+001
1.319943e+003,-1.204710e+001
1.320907e+003,-9.621552e+000
1.321871e+003,-8.272186e+000
1.322836e+003,-8.390137e+000
1.323800e+003,-8.980896e+000
1.324764e+003,-9.970291e+000
1.325728e+003,-1.084669e+001
1.326693e+003,-1.050235e+001
1.327657e+003,-8.924271e+000
1.328621e+003,-8.000122e+000
1.329585e+003,-8.421066e+000
1.330549e+003,-8.798630e+000
1.331514e+003,-8.232880e+000
1.332478e+003,-7.737213e+000
1.333442e+003,-8.776077e+000
1.334406e+003,-1.076601e+001
1.335371e+003,-1.139775e+001
1.336335e+003,-9.346405e+000
1.337299e+003,-6.298996e+000
1.338263e+003,-5.545563e+000
1.339228e+003,-7.406586e+000
1.340192e+003,-8.523056e+000
1.341156e+003,-8.426788e+000
1.342120e+003,-8.347153e+000
1.343084e+003,-8.295898e+000
1.344049e+003,-8.595871e+000
1.345013e+003,-9.935913e+000
1.345977e+003,-1.172824e+001
1.346941e+003,-1.222997e+001
1.347906e+003,-1.076167e+001
1.348870e+003,-8.962845e+000
1.349834e+003,-8.395966e+000
1.350798e+003,-8.506699e+000
1.351763e+003,-7.855377e+000
1.352727e+003,-6.649048e+000
1.353691e+003,-6.433029e+000
1.354655e+003,-8.057983e+000
1.355620e+003,-9.782761e+000
1.356584e+003,-8.933945e+000
1.357548e+003,-5.961349e+000
1.358512e+003,-5.502335e+000
1.359476e+003,-9.177963e+000
1.360441e+003,-1.177832e+001
1.361405e+003,-1.152512e+001
1.362369e+003,-1.035429e+001
1.363333e+003,-8.340820e+000
1.364298e+003,-6.399216e+000
1.365262e+003,-5.862579e+000
1.366226e+003,-6.821014e+000
1.367190e+003,-7.983002e+000
1.368155e+003,-8.201797e+000
1.369119e+003,-7.703171e+000
1.370083e+003,-7.145721e+000
1.371047e+003,-6.417313e+000
1.372011e+003,-5.974716e+000
1.372976e+003,-5.930084e+000
1.373940e+003,-6.172974e+000
1.374904e+003,-7.023529e+000
1.375868e+003,-7.840820e+000
1.376833e+003,-7.753082e+000
1.377797e+003,-6.801468e+000
1.378761e+003,-5.638931e+000
1.379725e+003,-4.306931e+000
1.380690e+003,-3.524902e+000
1.381654e+003,-4.915375e+000
1.382618e+003,-6.850204e+000
1.383582e+003,-6.728287e+000
1.384547e+003,-4.711838e+000
1.385511e+003,-3.148407e+000
1.386475e+003,-3.322632e+000
1.387439e+003,-4.249268e+000
1.388403e+003,-4.313889e+000
1.389368e+003,-3.529099e+000
1.390332e+003,-3.444885e+000
1.391296e+003,-4.445724e+000
1.392260e+003,-5.359161e+000
1.393225e+003,-6.125381e+000
1.394189e+003,-6.572571e+000
1.395153e+003,-6.568466e+000
1.396117e+003,-6.184799e+000
1.397082e+003,-5.410965e+000
1.398046e+003,-4.325928e+000
1.399010e+003,-3.170135e+000
1.399974e+003,-2.197159e+000
1.400938e+003,-1.636658e+000
1.401903e+003,-2.034637e+000
1.402867e+003,-3.549515e+000
1.403831e+003,-4.344971e+000
1.404795e+003,-4.521439e+000
1.405760e+003,-4.099869e+000
1.406724e+003,-2.400208e+000
1.407688e+003,-8.434143e-001
1.408652e+003,-1.329514e+000
1.409617e+003,-3.477859e+000
1.410581e+003,-4.966782e+000
1.411545e+003,-4.823669e+000
1.412509e+003,-4.169662e+000
1.413474e+003,-4.094742e+000
1.414438e+003,-4.299225e+000
1.415402e+003,-3.845200e+000
1.416366e+003,-2.876694e+000
1.417330e+003,-2.930481e+000
1.418295e+003,-4.923264e+000
1.419259e+003,-6.911697e+000
1.420223e+003,-6.312164e+000
1.421187e+003,-3.661118e+000
1.422152e+003,-2.014191e+000
1.423116e+003,-1.450638e+000
1.424080e+003,-1.560059e+000
1.425044e+003,-3.487396e+000
1.426009e+003,-4.871399e+000
1.426973e+003,-4.482574e+000
1.427937e+003,-3.154160e+000
1.428901e+003,-1.480042e+000
1.429865e+003,1.333008e-001
1.430830e+003,1.010468e+000
1.431794e+003,6.850586e-001
1.432758e+003,-4.569244e-001
1.433722e+003,-1.594193e+000
1.434687e+003,-2.655045e+000
1.435651e+003,-3.183121e+000
1.436615e+003,-3.271072e+000
1.437579e+003,-3.221741e+000
1.438544e+003,-3.282837e+000
1.439508e+003,-2.914230e+000
1.440472e+003,-1.143265e+000
1.441436e+003,1.205933e+000
1.442401e+003,2.520493e+000
1.443365e+003,2.412155e+000
1.444329e+003,1.576889e+000
1.445293e+003,3.759766e-001
1.446257e+003,-7.370453e-001
1.447222e+003,-7.543945e-001
1.448186e+003,8.866882e-002
1.449150e+003,6.448517e-001
1.450114e+003,8.453674e-001
1.451079e+003,5.479736e-001
1.452043e+003,-8.116608e-001
1.453007e+003,-2.262436e+000
1.453971e+003,-2.121674e+000
1.454936e+003,-7.204895e-001
1.455900e+003,-6.774292e-001
1.456864e+003,-3.069916e+000
1.457828e+003,-4.807785e+000
1.458792e+003,-3.498184e+000
1.459757e+003,-1.425217e+000
1.460721e+003,-2.363739e-001
1.461685e+003,2.198944e-001
1.462649e+003,4.702911e-001
1.463614e+003,6.856384e-001
1.464578e+003,6.860199e-001
1.465542e+003,2.883606e-001
1.466506e+003,-5.024567e-001
1.467471e+003,-1.813156e+000
1.468435e+003,-3.940323e+000
1.469399e+003,-4.647781e+000
1.470363e+003,-2.925079e+000
1.471328e+003,-1.174042e+000
1.472292e+003,4.303284e-001
1.473256e+003,1.398087e+000
1.474220e+003,1.003845e+000
1.475184e+003,3.010559e-002
1.476149e+003,-4.226685e-002
1.477113e+003,1.102646e+000
1.478077e+003,2.324265e+000
1.479041e+003,2.581436e+000
1.480006e+003,2.161102e+000
1.480970e+003,1.834229e+000
1.481934e+003,1.568344e+000
1.482898e+003,1.162170e+000
1.483863e+003,1.379089e-001
1.484827e+003,-3.770142e-001
1.485791e+003,2.570190e-001
1.486755e+003,1.358459e+000
1.487719e+003,2.556747e+000
1.488684e+003,3.556839e+000
1.489648e+003,3.498016e+000
1.490612e+003,2.232605e+000
1.491576e+003,2.052994e+000
1.492541e+003,5.271973e+000
1.493505e+003,9.921768e+000
1.494469e+003,1.131044e+001
1.495433e+003,9.979553e+000
1.496398e+003,9.878540e+000
1.497362e+003,1.210321e+001
1.498326e+003,1.394540e+001
1.499290e+003,1.359526e+001
1.500255e+003,1.233470e+001
1.501219e+003,1.140158e+001
1.502183e+003,1.099576e+001
1.503147e+003,1.220242e+001
1.504111e+003,1.550264e+001
1.505076e+003,1.916502e+001
1.506040e+003,2.228674e+001
1.507004e+003,2.527196e+001
1.507968e+003,2.880946e+001
1.508933e+003,3.246286e+001
1.509897e+003,3.482147e+001
1.510861e+003,3.591499e+001
1.511825e+003,3.864609e+001
1.512790e+003,4.555055e+001
1.513754e+003,5.410846e+001
1.514718e+003,5.918730e+001
1.515682e+003,6.074086e+001
1.516646e+003,6.398959e+001
1.517611e+003,7.008067e+001
1.518575e+003,7.628091e+001
1.519539e+003,8.262564e+001
1.520503e+003,8.808781e+001
1.521468e+003,9.229102e+001
1.522432e+003,9.510341e+001
1.523396e+003,9.589717e+001
1.524360e+003,9.506371e+001
1.525325e+003,9.451656e+001
1.526289e+003,9.554637e+001
1.527253e+003,9.664723e+001
1.528217e+003,9.501985e+001
1.529182e+003,9.070036e+001
1.530146e+003,8.609499e+001
1.531110e+003,8.137968e+001
1.532074e+003,7.584218e+001
1.533039e+003,6.881535e+001
1.534003e+003,6.141537e+001
1.534967e+003,5.412086e+001
1.535931e+003,4.706679e+001
1.536896e+003,4.010220e+001
1.537860e+003,3.344193e+001
1.538824e+003,2.753232e+001
1.539788e+003,2.257443e+001
1.540752e+003,1.851901e+001
1.541717e+003,1.534351e+001
1.542681e+003,1.308142e+001
1.543645e+003,1.158783e+001
1.544609e+003,1.113611e+001
1.545573e+003,1.107361e+001
1.546538e+003,1.214294e+001
1.547502e+003,1.238243e+001
1.548466e+003,1.048688e+001
1.549430e+003,8.121613e+000
1.550395e+003,6.857315e+000
1.551359e+003,6.570496e+000
1.552323e+003,6.411865e+000
1.553287e+003,6.101715e+000
1.554252e+003,6.135727e+000
1.555216e+003,7.040726e+000
1.556180e+003,8.298813e+000
1.557144e+003,8.785934e+000
1.558109e+003,8.488907e+000
1.559073e+003,7.421524e+000
1.560037e+003,4.602371e+000
1.561001e+003,2.848267e+000
1.561966e+003,4.124924e+000
1.562930e+003,6.084427e+000
1.563894e+003,6.502029e+000
1.564858e+003,5.780975e+000
1.565823e+003,5.151489e+000
1.566787e+003,4.857910e+000
1.567751e+003,4.573242e+000
1.568715e+003,4.073883e+000
1.569679e+003,3.758545e+000
1.570644e+003,4.354919e+000
1.571608e+003,5.372452e+000
1.572572e+003,5.340927e+000
1.573536e+003,4.235458e+000
1.574500e+003,3.862579e+000
1.575465e+003,5.354843e+000
1.576429e+003,6.823517e+000
1.577393e+003,6.279953e+000
1.578357e+003,4.794815e+000
1.579322e+003,4.603745e+000
1.580286e+003,5.804489e+000
1.581250e+003,7.198227e+000
1.582214e+003,8.632538e+000
1.583179e+003,9.346191e+000
1.584143e+003,7.975525e+000
1.585107e+003,6.218658e+000
1.586071e+003,6.928101e+000
1.587036e+003,9.281662e+000
1.588000e+003,1.021693e+001
1.588964e+003,8.929733e+000
1.589928e+003,7.739563e+000
1.590893e+003,8.362411e+000
1.591857e+003,9.788895e+000
1.592821e+003,1.069882e+001
1.593785e+003,1.109950e+001
1.594750e+003,1.076447e+001
1.595714e+003,9.434158e+000
1.596678e+003,8.652374e+000
1.597642e+003,9.339157e+000
1.598606e+003,1.034018e+001
1.599571e+003,1.076819e+001
1.600535e+003,1.096780e+001
1.601499e+003,1.133975e+001
1.602463e+003,1.187886e+001
1.603427e+003,1.244685e+001
1.604392e+003,1.301418e+001
1.605356e+003,1.345360e+001
1.606320e+003,1.358272e+001
1.607284e+003,1.351199e+001
1.608249e+003,1.343842e+001
1.609213e+003,1.334688e+001
1.610177e+003,1.403577e+001
1.611141e+003,1.648735e+001
1.612106e+003,1.759848e+001
1.613070e+003,1.382111e+001
1.614034e+003,1.001694e+001
1.614998e+003,1.019029e+001
1.615963e+003,1.259575e+001
1.616927e+003,1.430826e+001
1.617891e+003,1.474069e+001
1.618855e+003,1.431841e+001
1.619820e+003,1.309253e+001
1.620784e+003,1.189029e+001
1.621748e+003,1.229031e+001
1.622712e+003,1.407011e+001
1.623677e+003,1.521129e+001
1.624641e+003,1.571805e+001
1.625605e+003,1.546031e+001
1.626569e+003,1.355247e+001
1.627533e+003,1.189908e+001
1.628498e+003,1.144095e+001
1.629462e+003,1.175789e+001
1.630426e+003,1.289330e+001
1.631390e+003,1.437941e+001
1.632354e+003,1.550426e+001
1.633319e+003,1.601881e+001
1.634283e+003,1.561678e+001
1.635247e+003,1.385939e+001
1.636211e+003,1.166809e+001
1.637176e+003,1.061710e+001
1.638140e+003,1.072156e+001
1.639104e+003,1.193030e+001
1.640068e+003,1.478175e+001
1.641033e+003,1.647275e+001
1.641997e+003,1.534492e+001
1.642961e+003,1.438095e+001
1.643925e+003,1.552028e+001
1.644890e+003,1.713733e+001
1.645854e+003,1.779166e+001
1.646818e+003,1.746991e+001
1.647782e+003,1.629648e+001
1.648747e+003,1.443497e+001
1.649711e+003,1.321124e+001
1.650675e+003,1.393025e+001
1.651639e+003,1.565016e+001
1.652604e+003,1.638776e+001
1.653568e+003,1.612778e+001
1.654532e+003,1.542328e+001
1.655496e+003,1.401181e+001
1.656460e+003,1.322186e+001
1.657425e+003,1.395625e+001
1.658389e+003,1.476042e+001
1.659353e+003,1.503046e+001
1.660317e+003,1.482339e+001
1.661281e+003,1.393045e+001
1.662246e+003,1.262094e+001
1.663210e+003,1.170279e+001
1.664174e+003,1.144696e+001
1.665138e+003,1.119792e+001
1.666103e+003,1.022745e+001
1.667067e+003,9.077072e+000
1.668031e+003,9.072266e+000
1.668995e+003,1.012625e+001
1.669960e+003,1.064735e+001
1.670924e+003,1.043135e+001
1.671888e+003,1.014592e+001
1.672852e+003,9.746094e+000
1.673817e+003,9.606644e+000
1.674781e+003,1.009230e+001
1.675745e+003,1.082954e+001
1.676709e+003,1.162978e+001
1.677674e+003,1.229581e+001
1.678638e+003,1.226134e+001
1.679602e+003,1.136154e+001
1.680566e+003,1.049626e+001
1.681531e+003,1.060483e+001
1.682495e+003,1.092950e+001
1.683459e+003,9.819656e+000
1.684423e+003,7.540985e+000
1.685387e+003,6.003204e+000
1.686352e+003,5.380707e+000
1.687316e+003,5.790573e+000
1.688280e+003,8.019791e+000
1.689244e+003,9.870422e+000
1.690208e+003,9.020874e+000
1.691173e+003,7.354797e+000
1.692137e+003,7.164154e+000
1.693101e+003,8.023300e+000
1.694065e+003,7.881317e+000
1.695030e+003,6.124649e+000
1.695994e+003,4.935379e+000
1.696958e+003,6.400894e+000
1.697922e+003,8.286621e+000
1.698887e+003,7.110199e+000
1.699851e+003,4.192413e+000
1.700815e+003,4.199631e+000
1.701779e+003,7.377213e+000
1.702744e+003,8.013977e+000
1.703708e+003,3.536545e+000
1.704672e+003,-2.520752e-001
1.705636e+003,1.474243e+000
1.706601e+003,5.387360e+000
1.707565e+003,6.975143e+000
1.708529e+003,6.715469e+000
1.709493e+003,5.592651e+000
1.710458e+003,3.575607e+000
1.711422e+003,1.946411e+000
1.712386e+003,1.349487e+000
1.713350e+003,1.287216e+000
1.714314e+003,1.097412e+000
1.715279e+003,1.196533e+000
1.716243e+003,3.069702e+000
1.717207e+003,6.113129e+000
1.718171e+003,6.817352e+000
1.719135e+003,4.234955e+000
1.720100e+003,2.008072e+000
1.721064e+003,2.736893e+000
1.722028e+003,4.352310e+000
1.722992e+003,3.815170e+000
1.723957e+003,1.669296e+000
1.724921e+003,6.308441e-001
1.725885e+003,6.564026e-001
1.726849e+003,1.081436e+000
1.727814e+003,2.389725e+000
1.728778e+003,3.544769e+000
1.729742e+003,3.994095e+000
1.730706e+003,4.142059e+000
1.731671e+003,4.373978e+000
1.732635e+003,4.493057e+000
1.733599e+003,4.088257e+000
1.734563e+003,3.248749e+000
1.735528e+003,2.491669e+000
1.736492e+003,2.056763e+000
1.737456e+003,1.986343e+000
1.738420e+003,2.403946e+000
1.739385e+003,3.019455e+000
1.740349e+003,2.946884e+000
1.741313e+003,2.088699e+000
1.742277e+003,1.299805e+000
1.743241e+003,6.461182e-001
1.744206e+003,6.838989e-002
1.745170e+003,-8.853455e-001
1.746134e+003,-1.321976e+000
1.747098e+003,-2.200317e-001
1.748063e+003,1.257523e+000
1.749027e+003,1.710770e+000
1.749991e+003,1.319870e+000
1.750955e+003,1.172256e+000
1.751919e+003,1.538635e+000
1.752884e+003,1.393417e+000
1.753848e+003,-1.419373e-001
1.754812e+003,-1.963242e+000
1.755776e+003,-1.623367e+000
1.756741e+003,8.359528e-001
1.757705e+003,1.926956e+000
1.758669e+003,8.303223e-001
1.759633e+003,6.184540e-001
1.760598e+003,2.384537e+000
1.761562e+003,3.813141e+000
1.762526e+003,4.373764e+000
1.763490e+003,4.350845e+000
1.764455e+003,3.826080e+000
1.765419e+003,2.942123e+000
1.766383e+003,1.565536e+000
1.767347e+003,-9.944153e-002
1.768312e+003,-1.208038e+000
1.769276e+003,-1.381454e+000
1.770240e+003,-9.812775e-001
1.771204e+003,-6.436157e-002
1.772168e+003,1.049713e+000
1.773133e+003,1.318130e+000
1.774097e+003,8.605499e-001
1.775061e+003,1.031799e+000
1.776025e+003,2.023621e+000
1.776990e+003,2.685577e+000
1.777954e+003,2.822449e+000
1.778918e+003,2.338470e+000
1.779882e+003,3.354797e-001
1.780846e+003,-1.793381e+000
1.781811e+003,-1.860214e+000
1.782775e+003,-4.213867e-001
1.783739e+003,6.667328e-001
1.784703e+003,1.163803e+000
1.785668e+003,1.394928e+000
1.786632e+003,1.158493e+000
1.787596e+003,9.769440e-001
1.788560e+003,1.497223e+000
1.789525e+003,2.292664e+000
1.790489e+003,2.734604e+000
1.791453e+003,2.787048e+000
1.792417e+003,2.422562e+000
1.793382e+003,1.744003e+000
1.794346e+003,1.691605e+000
1.795310e+003,2.825668e+000
1.796274e+003,3.834396e+000
1.797239e+003,3.185364e+000
1.798203e+003,1.474670e+000
1.799167e+003,2.719879e-001
1.800131e+003,-6.035919e-001
1.801095e+003,-7.028198e-001
1.802060e+003,1.142853e+000
1.803024e+003,2.082535e+000
1.803988e+003,8.333893e-001
1.804952e+003,-2.233276e-001
1.805917e+003,7.215881e-001
1.806881e+003,1.817032e+000
1.807845e+003,4.627991e-001
1.808809e+003,-1.984329e+000
1.809773e+003,-2.172867e+000
1.810738e+003,2.720184e-001
1.811702e+003,2.719604e+000
1.812666e+003,3.497284e+000
1.813630e+003,3.031799e+000
1.814595e+003,1.698776e+000
1.815559e+003,-1.556091e-001
1.816523e+003,-9.667358e-001
1.817487e+003,-6.371155e-001
1.818452e+003,-5.632019e-002
1.819416e+003,1.097626e+000
1.820380e+003,1.564224e+000
1.821344e+003,1.267853e-001
1.822309e+003,-9.564362e-001
1.823273e+003,2.701569e-001
1.824237e+003,2.077408e+000
1.825201e+003,2.593674e+000
1.826166e+003,2.175461e+000
1.827130e+003,1.990265e+000
1.828094e+003,2.225952e+000
1.829058e+003,2.655930e+000
1.830022e+003,3.484161e+000
1.830987e+003,3.928040e+000
1.831951e+003,2.858170e+000
1.832915e+003,1.362701e+000
1.833879e+003,1.004837e+000
1.834844e+003,1.602463e+000
1.835808e+003,2.599136e+000
1.836772e+003,3.790955e+000
1.837736e+003,4.514206e+000
1.838700e+003,4.448822e+000
1.839665e+003,3.663223e+000
1.840629e+003,2.029648e+000
1.841593e+003,3.934937e-001
1.842557e+003,6.764679e-001
1.843522e+003,2.835373e+000
1.844486e+003,3.782059e+000
1.845450e+003,2.697159e+000
1.846414e+003,2.126190e+000
1.847379e+003,2.554962e+000
1.848343e+003,2.607025e+000
1.849307e+003,1.369949e+000
1.850271e+003,2.301025e-001
1.851236e+003,2.571564e-001
1.852200e+003,1.026459e+000
1.853164e+003,2.046524e+000
1.854128e+003,2.961563e+000
1.855093e+003,3.223679e+000
1.856057e+003,2.780441e+000
1.857021e+003,2.582306e+000
1.857985e+003,3.479126e+000
1.858949e+003,4.573776e+000
1.859914e+003,3.986191e+000
1.860878e+003,2.193909e+000
1.861842e+003,1.994751e+000
1.862806e+003,3.423706e+000
1.863771e+003,4.513397e+000
1.864735e+003,4.952011e+000
1.865699e+003,4.831848e+000
1.866663e+003,3.995560e+000
1.867627e+003,3.104004e+000
1.868592e+003,2.595764e+000
1.869556e+003,2.383606e+000
1.870520e+003,2.506287e+000
1.871484e+003,2.892136e+000
1.872449e+003,3.117325e+000
1.873413e+003,3.312210e+000
1.874377e+003,3.439362e+000
1.875341e+003,2.911530e+000
1.876306e+003,2.731155e+000
1.877270e+003,3.825806e+000
1.878234e+003,5.124619e+000
1.879198e+003,5.375977e+000
1.880163e+003,5.138184e+000
1.881127e+003,5.693192e+000
1.882091e+003,7.012695e+000
1.883055e+003,8.105133e+000
1.884020e+003,8.519043e+000
1.884984e+003,8.435455e+000
1.885948e+003,8.025513e+000
1.886912e+003,7.199280e+000
1.887876e+003,5.557785e+000
1.888841e+003,3.296524e+000
1.889805e+003,2.981552e+000
1.890769e+003,4.988174e+000
1.891733e+003,7.098206e+000
1.892698e+003,9.818634e+000
1.893662e+003,1.068013e+001
1.894626e+003,7.287231e+000
1.895590e+003,3.878754e+000
1.896554e+003,3.411758e+000
1.897519e+003,4.553833e+000
1.898483e+003,6.297775e+000
1.899447e+003,8.159393e+000
1.900411e+003,8.988678e+000
1.901376e+003,8.593521e+000
1.902340e+003,7.656143e+000
1.903304e+003,5.891525e+000
1.904268e+003,4.469681e+000
1.905233e+003,4.380981e+000
1.906197e+003,4.762360e+000
1.907161e+003,4.627167e+000
1.908125e+003,4.378815e+000
1.909090e+003,5.054810e+000
1.910054e+003,6.362778e+000
1.911018e+003,6.867477e+000
1.911982e+003,6.193314e+000
1.912947e+003,5.294968e+000
1.913911e+003,4.851410e+000
1.914875e+003,4.917236e+000
1.915839e+003,5.660141e+000
1.916803e+003,6.763382e+000
1.917768e+003,6.717377e+000
1.918732e+003,5.281738e+000
1.919696e+003,4.576172e+000
1.920660e+003,4.795563e+000
1.921625e+003,5.440918e+000
1.922589e+003,6.867340e+000
1.923553e+003,7.861130e+000
1.924517e+003,7.147186e+000
1.925481e+003,6.302917e+000
1.926446e+003,7.079422e+000
1.927410e+003,8.597961e+000
1.928374e+003,9.076874e+000
1.929338e+003,8.390182e+000
1.930303e+003,7.320984e+000
1.931267e+003,5.737061e+000
1.932231e+003,5.141434e+000
1.933195e+003,7.025055e+000
1.934160e+003,9.023941e+000
1.935124e+003,9.518967e+000
1.936088e+003,9.040207e+000
1.937052e+003,7.765076e+000
1.938017e+003,6.409592e+000
1.938981e+003,6.464890e+000
1.939945e+003,7.824310e+000
1.940909e+003,8.891205e+000
1.941874e+003,8.908875e+000
1.942838e+003,8.397079e+000
1.943802e+003,7.879105e+000
1.944766e+003,7.337112e+000
1.945730e+003,6.386337e+000
1.946695e+003,5.199753e+000
1.947659e+003,5.907440e+000
1.948623e+003,8.750397e+000
1.949587e+003,1.056866e+001
1.950552e+003,1.099142e+001
1.951516e+003,1.059325e+001
1.952480e+003,8.986572e+000
1.953444e+003,7.846786e+000
1.954408e+003,8.756653e+000
1.955373e+003,1.028270e+001
1.956337e+003,1.032112e+001
1.957301e+003,9.418579e+000
1.958265e+003,9.472305e+000
1.959230e+003,1.074974e+001
1.960194e+003,1.107944e+001
1.961158e+003,8.839157e+000
1.962122e+003,7.438538e+000
1.963087e+003,8.598938e+000
1.964051e+003,9.823761e+000
1.965015e+003,9.422958e+000
1.965979e+003,8.744415e+000
1.966944e+003,9.450806e+000
1.967908e+003,1.075156e+001
1.968872e+003,1.076845e+001
1.969836e+003,9.616287e+000
1.970801e+003,9.253922e+000
1.971765e+003,1.045975e+001
1.972729e+003,1.173013e+001
1.973693e+003,1.182265e+001
1.974657e+003,1.118901e+001
1.975622e+003,1.001355e+001
1.976586e+003,8.772400e+000
1.977550e+003,9.130569e+000
1.978514e+003,1.079663e+001
1.979479e+003,1.191162e+001
1.980443e+003,1.217772e+001
1.981407e+003,1.181351e+001
1.982371e+003,1.087759e+001
1.983335e+003,1.022798e+001
1.984300e+003,1.049736e+001
1.985264e+003,1.125209e+001
1.986228e+003,1.193852e+001
1.987192e+003,1.248867e+001
1.988157e+003,1.250727e+001
1.989121e+003,1.182168e+001
1.990085e+003,1.166146e+001
1.991049e+003,1.253522e+001
1.992014e+003,1.297922e+001
1.992978e+003,1.236302e+001
1.993942e+003,1.184608e+001
1.994906e+003,1.181694e+001
1.995871e+003,1.203441e+001
1.996835e+003,1.271912e+001
1.997799e+003,1.334548e+001
1.998763e+003,1.293127e+001
1.999728e+003,1.166857e+001
