5.003444e+002,4.266980e+001
5.013087e+002,4.410248e+001
5.022729e+002,4.217563e+001
5.032371e+002,3.812967e+001
5.042014e+002,3.554602e+001
5.051656e+002,3.432813e+001
5.061298e+002,3.423489e+001
5.070941e+002,3.516510e+001
5.080583e+002,3.740976e+001
5.090225e+002,3.828967e+001
5.099868e+002,3.766913e+001
5.109510e+002,3.634763e+001
5.119152e+002,3.423178e+001
5.128795e+002,3.123550e+001
5.138437e+002,2.948520e+001
5.148079e+002,3.134726e+001
5.157722e+002,3.318149e+001
5.167364e+002,3.337268e+001
5.177006e+002,3.172260e+001
5.186649e+002,2.924387e+001
5.196291e+002,2.655991e+001
5.205933e+002,2.457748e+001
5.215576e+002,2.425195e+001
5.225218e+002,2.544434e+001
5.234860e+002,2.747076e+001
5.244503e+002,2.937161e+001
5.254145e+002,3.142654e+001
5.263787e+002,3.256244e+001
5.273430e+002,3.248074e+001
5.283072e+002,3.170184e+001
5.292714e+002,3.081781e+001
5.302357e+002,2.953070e+001
5.311999e+002,2.814917e+001
5.321641e+002,2.709668e+001
5.331284e+002,2.613684e+001
5.340926e+002,2.463818e+001
5.350568e+002,2.216995e+001
5.360211e+002,2.045065e+001
5.369853e+002,2.269479e+001
5.379495e+002,2.579855e+001
5.389138e+002,2.695499e+001
5.398780e+002,2.514096e+001
5.408422e+002,2.154221e+001
5.418065e+002,1.917569e+001
5.427707e+002,1.794672e+001
5.437349e+002,1.772507e+001
5.446992e+002,1.873581e+001
5.456634e+002,2.054803e+001
5.466276e+002,2.172617e+001
5.475919e+002,2.221600e+001
5.485561e+002,2.207376e+001
5.495203e+002,2.033322e+001
5.504846e+002,1.813934e+001
5.514488e+002,1.741183e+001
5.524130e+002,1.976883e+001
5.533773e+002,2.176535e+001
5.543415e+002,2.156577e+001
5.553057e+002,2.023456e+001
5.562700e+002,1.869849e+001
5.572342e+002,1.750574e+001
5.581984e+002,1.650674e+001
5.591627e+002,1.514752e+001
5.601269e+002,1.384268e+001
5.610911e+002,1.365109e+001
5.620554e+002,1.518433e+001
5.630196e+002,1.801019e+001
5.639838e+002,1.878778e+001
5.649481e+002,1.527676e+001
5.659123e+002,1.300064e+001
5.668765e+002,1.411917e+001
5.678408e+002,1.742651e+001
5.688050e+002,1.912964e+001
5.697692e+002,1.684586e+001
5.707335e+002,1.418350e+001
5.716977e+002,1.171783e+001
5.726619e+002,9.880585e+000
5.736262e+002,9.349457e+000
5.745904e+002,1.085843e+001
5.755546e+002,1.288193e+001
5.765189e+002,1.246576e+001
5.774831e+002,1.057895e+001
5.784473e+002,9.256561e+000
5.794116e+002,9.949829e+000
5.803758e+002,1.249207e+001
5.813400e+002,1.308212e+001
5.823043e+002,1.100790e+001
5.832685e+002,8.851318e+000
5.842327e+002,7.828186e+000
5.851970e+002,7.815857e+000
5.861612e+002,7.221527e+000
5.871254e+002,3.915955e+000
5.880897e+002,1.975647e+000
5.890539e+002,2.740082e+000
5.900181e+002,5.184875e+000
5.909824e+002,7.842133e+000
5.919466e+002,1.033823e+001
5.929108e+002,1.158334e+001
5.938751e+002,1.009216e+001
5.948393e+002,7.131561e+000
5.958035e+002,4.600189e+000
5.967678e+002,3.907440e+000
5.977320e+002,4.889526e+000
5.986962e+002,6.106995e+000
5.996605e+002,7.504974e+000
6.006247e+002,8.079773e+000
6.015889e+002,6.864044e+000
6.025532e+002,4.066406e+000
6.035174e+002,2.458893e+000
6.044816e+002,3.238251e+000
6.054459e+002,4.122498e+000
6.064101e+002,4.644623e+000
6.073743e+002,5.068420e+000
6.083386e+002,6.179504e+000
6.093028e+002,9.102112e+000
6.102670e+002,1.132193e+001
6.112313e+002,1.039349e+001
6.121955e+002,7.906616e+000
6.131597e+002,6.093506e+000
6.141240e+002,6.443390e+000
6.150882e+002,8.082123e+000
6.160524e+002,6.672272e+000
6.170167e+002,2.868561e+000
6.179809e+002,2.508850e-001
6.189451e+002,6.693420e-001
6.199094e+002,3.581879e+000
6.208736e+002,5.432190e+000
6.218378e+002,5.888184e+000
6.228021e+002,5.864227e+000
6.237663e+002,4.950836e+000
6.247305e+002,3.777649e+000
6.256948e+002,3.326050e+000
6.266590e+002,4.137909e+000
6.276232e+002,4.909302e+000
6.285875e+002,4.514099e+000
6.295517e+002,4.037415e+000
6.305159e+002,4.990295e+000
6.314802e+002,8.012299e+000
6.324444e+002,1.159814e+001
6.334086e+002,1.116397e+001
6.343729e+002,8.093719e+000
6.353371e+002,5.202942e+000
6.363013e+002,3.357056e+000
6.372656e+002,2.385620e+000
6.382298e+002,1.854187e+000
6.391940e+002,2.662567e+000
6.401583e+002,2.537659e+000
6.411225e+002,9.815979e-001
6.420867e+002,-9.118347e-001
6.430510e+002,-1.940857e+000
6.440152e+002,-1.750854e+000
6.449794e+002,-1.467712e+000
6.459437e+002,-1.689026e+000
6.469079e+002,-2.060608e+000
6.478721e+002,-2.143463e+000
6.488364e+002,-1.816437e+000
6.498006e+002,-1.492340e+000
6.507648e+002,-2.338470e+000
6.517291e+002,-3.832184e+000
6.526933e+002,-4.548340e+000
6.536575e+002,-4.220306e+000
6.546218e+002,-3.093323e+000
6.555860e+002,-1.533997e+000
6.565502e+002,1.210144e+000
6.575145e+002,2.501312e+000
6.584787e+002,1.834778e+000
6.594429e+002,3.757019e-001
6.604072e+002,-1.256378e+000
6.613714e+002,-3.066101e+000
6.623356e+002,-4.173004e+000
6.632999e+002,-3.955139e+000
6.642641e+002,-3.352783e+000
6.652283e+002,-2.392181e+000
6.661926e+002,-1.247772e+000
6.671568e+002,-3.705444e-001
6.681210e+002,-6.592102e-001
6.690853e+002,-1.497223e+000
6.700495e+002,-8.386841e-001
6.710137e+002,1.249695e+000
6.719780e+002,3.247345e+000
6.729422e+002,3.418823e+000
6.739064e+002,1.159393e+000
6.748707e+002,3.222656e-001
6.758349e+002,2.030762e+000
6.767991e+002,3.368439e+000
6.777634e+002,2.935547e+000
6.787276e+002,1.092499e+000
6.796918e+002,-1.206055e-001
6.806561e+002,3.536072e-001
6.816203e+002,9.580078e-001
6.825845e+002,1.342438e+000
6.835488e+002,1.400024e+000
6.845130e+002,9.601135e-001
6.854772e+002,-1.537781e-001
6.864415e+002,-1.280243e+000
6.874057e+002,-1.019745e+000
6.883699e+002,2.960205e-003
6.893342e+002,5.372009e-001
6.902984e+002,-1.450195e-001
6.912626e+002,-1.657532e+000
6.922269e+002,-1.676147e+000
6.931911e+002,2.488007e+000
6.941553e+002,4.931244e+000
6.951196e+002,3.565125e+000
6.960838e+002,4.720154e-001
6.970480e+002,-6.871338e-001
6.980123e+002,1.894043e+000
6.989765e+002,3.949677e+000
6.999407e+002,3.766174e+000
7.009050e+002,2.409637e+000
7.018692e+002,1.786499e-001
7.028334e+002,-2.571655e+000
7.037977e+002,-4.982605e+000
7.047619e+002,-5.390442e+000
7.057261e+002,-4.235199e+000
7.066904e+002,-2.373596e+000
7.076546e+002,4.510498e-002
7.086188e+002,2.484009e+000
7.095831e+002,4.124451e+000
7.105473e+002,4.945221e+000
7.115115e+002,4.362396e+000
7.124758e+002,1.215881e+000
7.134400e+002,-1.991730e+000
7.144042e+002,-3.585419e+000
7.153685e+002,-3.465271e+000
7.163327e+002,-3.286591e+000
7.172969e+002,-3.815887e+000
7.182612e+002,-4.372406e+000
7.192254e+002,-4.886932e+000
7.201896e+002,-5.283020e+000
7.211539e+002,-5.439056e+000
7.221181e+002,-5.215607e+000
7.230823e+002,-4.701508e+000
7.240466e+002,-4.141327e+000
7.250108e+002,-3.409027e+000
7.259750e+002,-2.441620e+000
7.269393e+002,-1.234222e+000
7.279035e+002,-1.053772e-001
7.288677e+002,-2.359619e-001
7.298320e+002,-3.157928e+000
7.307962e+002,-4.723663e+000
7.317604e+002,-4.046082e+000
7.327247e+002,-2.064972e+000
7.336889e+002,8.905029e-002
7.346531e+002,2.279938e+000
7.356174e+002,2.948120e+000
7.365816e+002,4.243774e-001
7.375458e+002,-2.488831e+000
7.385101e+002,-3.673218e+000
7.394743e+002,-2.624207e+000
7.404385e+002,-3.563538e-001
7.414028e+002,1.976959e+000
7.423670e+002,3.652100e+000
7.433312e+002,3.174835e+000
7.442955e+002,4.929199e-001
7.452597e+002,-2.324890e+000
7.462239e+002,-2.974579e+000
7.471882e+002,-9.048767e-001
7.481524e+002,6.885986e-001
7.491166e+002,1.587952e+000
7.500809e+002,1.881622e+000
7.510451e+002,1.156647e+000
7.520093e+002,-2.059937e-001
7.529736e+002,-8.417664e-001
7.539378e+002,9.371643e-001
7.549020e+002,2.343842e+000
7.558663e+002,8.814392e-001
7.568306e+002,-1.810669e+000
7.577948e+002,-3.459381e+000
7.587590e+002,-2.787537e+000
7.597233e+002,-7.618408e-001
7.606875e+002,1.591797e-001
7.616517e+002,2.295532e-001
7.626160e+002,3.287659e-001
7.635802e+002,7.097778e-001
7.645444e+002,1.263824e+000
7.655087e+002,1.693573e+000
7.664729e+002,1.794495e+000
7.674371e+002,2.113373e+000
7.684014e+002,3.134125e+000
7.693656e+002,3.916382e+000
7.703298e+002,3.721252e+000
7.712941e+002,2.572449e+000
7.722583e+002,1.414520e+000
7.732225e+002,8.599243e-001
7.741868e+002,6.435242e-001
7.751510e+002,7.221069e-001
7.761152e+002,9.692993e-001
7.770795e+002,1.075195e+000
7.780437e+002,7.369385e-001
7.790079e+002,2.117920e-002
7.799722e+002,-1.956177e-002
7.809364e+002,5.695801e-001
7.819006e+002,1.376373e+000
7.828649e+002,2.815735e+000
7.838291e+002,4.559326e+000
7.847933e+002,5.107574e+000
7.857576e+002,3.208313e+000
7.867218e+002,1.577789e+000
7.876860e+002,1.031616e+000
7.886503e+002,9.902039e-001
7.896145e+002,8.697205e-001
7.905787e+002,5.394592e-001
7.915430e+002,5.239258e-001
7.925072e+002,1.391815e+000
7.934714e+002,2.631561e+000
7.944357e+002,4.231262e+000
7.953999e+002,6.086029e+000
7.963641e+002,7.636658e+000
7.973284e+002,8.191589e+000
7.982926e+002,7.720093e+000
7.992568e+002,6.537628e+000
8.002211e+002,3.634949e+000
8.011853e+002,1.112305e+000
8.021495e+002,9.509277e-002
8.031138e+002,5.538940e-001
8.040780e+002,1.620850e+000
8.050422e+002,3.247650e+000
8.060065e+002,4.822632e+000
8.069707e+002,6.544373e+000
8.079349e+002,7.705292e+000
8.088992e+002,7.262299e+000
8.098634e+002,5.126587e+000
8.108276e+002,3.007904e+000
8.117919e+002,3.759644e+000
8.127561e+002,5.722412e+000
8.137203e+002,6.025543e+000
8.146846e+002,4.536469e+000
8.156488e+002,2.389832e+000
8.166130e+002,7.097473e-001
8.175773e+002,-7.204590e-001
8.185415e+002,-5.777893e-001
8.195057e+002,2.670013e+000
8.204700e+002,4.996643e+000
8.214342e+002,4.174072e+000
8.223984e+002,1.415588e+000
8.233627e+002,2.476501e-001
8.243269e+002,2.974457e+000
8.252911e+002,5.307251e+000
8.262554e+002,4.056854e+000
8.272196e+002,1.599365e+000
8.281838e+002,1.743774e-001
8.291481e+002,6.820068e-001
8.301123e+002,2.655487e+000
8.310765e+002,5.774078e+000
8.320408e+002,9.619324e+000
8.330050e+002,1.081863e+001
8.339692e+002,8.729492e+000
8.349335e+002,5.556732e+000
8.358977e+002,3.626953e+000
8.368619e+002,3.275665e+000
8.378262e+002,2.356781e+000
8.387904e+002,-4.119568e-001
8.397546e+002,-2.623749e+000
8.407189e+002,-4.071045e+000
8.416831e+002,-4.427917e+000
8.426473e+002,-2.803711e+000
8.436116e+002,1.753143e+000
8.445758e+002,6.102783e+000
8.455400e+002,6.034149e+000
8.465043e+002,3.982269e+000
8.474685e+002,2.811615e+000
8.484327e+002,3.445068e+000
8.493970e+002,4.918762e+000
8.503612e+002,5.377533e+000
8.513254e+002,4.480804e+000
8.522897e+002,4.510468e+000
8.532539e+002,6.100128e+000
8.542181e+002,7.454315e+000
8.551824e+002,7.613037e+000
8.561466e+002,6.868683e+000
8.571108e+002,6.187775e+000
8.580751e+002,4.558014e+000
8.590393e+002,3.863617e+000
8.600035e+002,5.536743e+000
8.609678e+002,8.268158e+000
8.619320e+002,1.067648e+001
8.628962e+002,1.213684e+001
8.638605e+002,1.294662e+001
8.648247e+002,1.335779e+001
8.657889e+002,1.346143e+001
8.667532e+002,1.343994e+001
8.677174e+002,1.331808e+001
8.686816e+002,1.335681e+001
8.696459e+002,1.392844e+001
8.706101e+002,1.519788e+001
8.715743e+002,1.645978e+001
8.725386e+002,1.795886e+001
8.735028e+002,1.919196e+001
8.744670e+002,1.983041e+001
8.754313e+002,1.991083e+001
8.763955e+002,1.964853e+001
8.773597e+002,1.913828e+001
8.783240e+002,1.854526e+001
8.792882e+002,1.756277e+001
8.802524e+002,1.667307e+001
8.812167e+002,1.646811e+001
8.821809e+002,1.698071e+001
8.831451e+002,1.781128e+001
8.841094e+002,1.851450e+001
8.850736e+002,1.916043e+001
8.860378e+002,1.893289e+001
8.870021e+002,1.710098e+001
8.879663e+002,1.647601e+001
8.889305e+002,1.983780e+001
8.898948e+002,2.597791e+001
8.908590e+002,2.868509e+001
8.918232e+002,2.516556e+001
8.927875e+002,2.230789e+001
8.937517e+002,2.172845e+001
8.947159e+002,2.220798e+001
8.956802e+002,2.252667e+001
8.966444e+002,2.238428e+001
8.976086e+002,2.266037e+001
8.985729e+002,2.499075e+001
8.995371e+002,2.794238e+001
9.005013e+002,2.856607e+001
9.014656e+002,2.731003e+001
9.024298e+002,2.638040e+001
9.033940e+002,2.741727e+001
9.043583e+002,2.992834e+001
9.053225e+002,3.105075e+001
9.062867e+002,2.914816e+001
9.072510e+002,2.762973e+001
9.082152e+002,2.684045e+001
9.091794e+002,2.667908e+001
9.101437e+002,2.716016e+001
9.111079e+002,2.827798e+001
9.120721e+002,2.932291e+001
9.130364e+002,3.030707e+001
9.140006e+002,3.032114e+001
9.149648e+002,2.790402e+001
9.159291e+002,2.439490e+001
9.168933e+002,2.237430e+001
9.178575e+002,2.354321e+001
9.188218e+002,2.679553e+001
9.197860e+002,2.875912e+001
9.207502e+002,2.938330e+001
9.217145e+002,2.930264e+001
9.226787e+002,2.873389e+001
9.236429e+002,2.781195e+001
9.246072e+002,2.625861e+001
9.255714e+002,2.359692e+001
9.265356e+002,2.213168e+001
9.274999e+002,2.385416e+001
9.284641e+002,2.491641e+001
9.294283e+002,2.321313e+001
9.303926e+002,2.020221e+001
9.313568e+002,1.882025e+001
9.323210e+002,2.067255e+001
9.332853e+002,2.334207e+001
9.342495e+002,2.261008e+001
9.352137e+002,2.007245e+001
9.361780e+002,1.785825e+001
9.371422e+002,1.659692e+001
9.381064e+002,1.652783e+001
9.390707e+002,1.801965e+001
9.400349e+002,2.134653e+001
9.409991e+002,2.310553e+001
9.419634e+002,2.302197e+001
9.429276e+002,2.190726e+001
9.438918e+002,1.870593e+001
9.448561e+002,1.507013e+001
9.458203e+002,1.409094e+001
9.467845e+002,1.717935e+001
9.477488e+002,2.036633e+001
9.487130e+002,1.994763e+001
9.496772e+002,1.880792e+001
9.506415e+002,1.941422e+001
9.516057e+002,2.169736e+001
9.525699e+002,2.389050e+001
9.535342e+002,2.423651e+001
9.544984e+002,2.293497e+001
9.554626e+002,2.228397e+001
9.564269e+002,2.254523e+001
9.573911e+002,2.313657e+001
9.583553e+002,2.417838e+001
9.593196e+002,2.523904e+001
9.602838e+002,2.565887e+001
9.612480e+002,2.533807e+001
9.622123e+002,2.438800e+001
9.631765e+002,2.177625e+001
9.641407e+002,1.972733e+001
9.651050e+002,1.967706e+001
9.660692e+002,2.087601e+001
9.670334e+002,2.180457e+001
9.679977e+002,2.162485e+001
9.689619e+002,2.081311e+001
9.699261e+002,1.966049e+001
9.708904e+002,1.825201e+001
9.718546e+002,1.719760e+001
9.728188e+002,1.645734e+001
9.737831e+002,1.649969e+001
9.747473e+002,1.827118e+001
9.757115e+002,2.226135e+001
9.766758e+002,2.565891e+001
9.776400e+002,2.954404e+001
9.786042e+002,3.179550e+001
9.795685e+002,3.052444e+001
9.805327e+002,2.764053e+001
9.814969e+002,2.597119e+001
9.824612e+002,2.657550e+001
9.834254e+002,2.749033e+001
9.843896e+002,2.650876e+001
9.853539e+002,2.461496e+001
9.863181e+002,2.270358e+001
9.872823e+002,2.082724e+001
9.882466e+002,1.904822e+001
9.892108e+002,1.760245e+001
9.901750e+002,1.666736e+001
9.911393e+002,1.587015e+001
9.921035e+002,1.404114e+001
9.930677e+002,1.342209e+001
9.940320e+002,1.532196e+001
9.949962e+002,1.786847e+001
9.959604e+002,1.895053e+001
9.969247e+002,1.856357e+001
9.978889e+002,1.945828e+001
9.988531e+002,2.376776e+001
9.998174e+002,2.815500e+001
1.000782e+003,3.090314e+001
1.001746e+003,3.256757e+001
1.002710e+003,3.403311e+001
1.003674e+003,3.564642e+001
1.004639e+003,3.694296e+001
1.005603e+003,3.701862e+001
1.006567e+003,3.566672e+001
1.007531e+003,3.531458e+001
1.008495e+003,3.655447e+001
1.009460e+003,3.763049e+001
1.010424e+003,3.769162e+001
1.011388e+003,3.683945e+001
1.012352e+003,3.513672e+001
1.013317e+003,3.174112e+001
1.014281e+003,2.901584e+001
1.015245e+003,2.811084e+001
1.016209e+003,2.745877e+001
1.017174e+003,2.585611e+001
1.018138e+003,2.337912e+001
1.019102e+003,2.101810e+001
1.020066e+003,1.963953e+001
1.021031e+003,1.898834e+001
1.021995e+003,1.815356e+001
1.022959e+003,1.698343e+001
1.023923e+003,1.524417e+001
1.024887e+003,1.253998e+001
1.025852e+003,9.708099e+000
1.026816e+003,8.349487e+000
1.027780e+003,9.059906e+000
1.028744e+003,9.063416e+000
1.029709e+003,7.629028e+000
1.030673e+003,6.009796e+000
1.031637e+003,4.065857e+000
1.032601e+003,2.257965e+000
1.033566e+003,1.423950e+000
1.034530e+003,1.863007e+000
1.035494e+003,2.484467e+000
1.036458e+003,1.678802e+000
1.037422e+003,4.149475e-001
1.038387e+003,5.549622e-001
1.039351e+003,1.986084e+000
1.040315e+003,3.431274e+000
1.041279e+003,4.002533e+000
1.042244e+003,3.939667e+000
1.043208e+003,4.068939e+000
1.044172e+003,4.269379e+000
1.045136e+003,4.560455e+000
1.046101e+003,5.370544e+000
1.047065e+003,6.012238e+000
1.048029e+003,5.742493e+000
1.048993e+003,4.794281e+000
1.049958e+003,4.271362e+000
1.050922e+003,4.889130e+000
1.051886e+003,5.855499e+000
1.052850e+003,6.902832e+000
1.053814e+003,7.482574e+000
1.054779e+003,6.249390e+000
1.055743e+003,3.197876e+000
1.056707e+003,3.193054e-001
1.057671e+003,9.878540e-002
1.058636e+003,2.524109e+000
1.059600e+003,3.635315e+000
1.060564e+003,2.409058e+000
1.061528e+003,1.855530e+000
1.062493e+003,3.119110e+000
1.063457e+003,4.423035e+000
1.064421e+003,3.564545e+000
1.065385e+003,4.224854e-001
1.066349e+003,-2.323853e+000
1.067314e+003,-3.596130e+000
1.068278e+003,-3.604584e+000
1.069242e+003,-1.754730e+000
1.070206e+003,9.457092e-001
1.071171e+003,2.800507e+000
1.072135e+003,3.088989e+000
1.073099e+003,2.667542e+000
1.074063e+003,3.131561e+000
1.075028e+003,4.680420e+000
1.075992e+003,5.360474e+000
1.076956e+003,4.771851e+000
1.077920e+003,3.908020e+000
1.078885e+003,3.307007e+000
1.079849e+003,2.836395e+000
1.080813e+003,1.891937e+000
1.081777e+003,1.699219e-001
1.082741e+003,-6.218262e-001
1.083706e+003,1.029175e+000
1.084670e+003,2.992615e+000
1.085634e+003,4.623627e+000
1.086598e+003,5.565826e+000
1.087563e+003,5.217468e+000
1.088527e+003,3.438812e+000
1.089491e+003,1.374451e+000
1.090455e+003,1.185638e+000
1.091420e+003,3.004364e+000
1.092384e+003,3.075409e+000
1.093348e+003,7.928467e-002
1.094312e+003,-2.487366e+000
1.095276e+003,-1.631531e+000
1.096241e+003,1.380676e+000
1.097205e+003,2.001007e+000
1.098169e+003,-1.630066e+000
1.099133e+003,-4.115112e+000
1.100098e+003,-2.411163e+000
1.101062e+003,1.714478e-001
1.102026e+003,1.826080e+000
1.102990e+003,2.598511e+000
1.103955e+003,3.374756e+000
1.104919e+003,4.655365e+000
1.105883e+003,5.760468e+000
1.106847e+003,5.041901e+000
1.107812e+003,2.475586e+000
1.108776e+003,1.544434e+000
1.109740e+003,3.091095e+000
1.110704e+003,4.832581e+000
1.111668e+003,5.315491e+000
1.112633e+003,4.843536e+000
1.113597e+003,4.210480e+000
1.114561e+003,3.236115e+000
1.115525e+003,2.354919e+000
1.116490e+003,1.028564e+000
1.117454e+003,3.806458e-001
1.118418e+003,1.612823e+000
1.119382e+003,4.325500e+000
1.120347e+003,7.361877e+000
1.121311e+003,9.882050e+000
1.122275e+003,1.157980e+001
1.123239e+003,1.221103e+001
1.124203e+003,1.198108e+001
1.125168e+003,1.111383e+001
1.126132e+003,9.277405e+000
1.127096e+003,7.834808e+000
1.128060e+003,7.880554e+000
1.129025e+003,9.092316e+000
1.129989e+003,1.020157e+001
1.130953e+003,1.089191e+001
1.131917e+003,1.187613e+001
1.132882e+003,1.398727e+001
1.133846e+003,1.593286e+001
1.134810e+003,1.666354e+001
1.135774e+003,1.661298e+001
1.136739e+003,1.692059e+001
1.137703e+003,1.821060e+001
1.138667e+003,1.990619e+001
1.139631e+003,2.081009e+001
1.140595e+003,2.117230e+001
1.141560e+003,2.322180e+001
1.142524e+003,2.744382e+001
1.143488e+003,3.246869e+001
1.144452e+003,3.724301e+001
1.145417e+003,4.201773e+001
1.146381e+003,4.787509e+001
1.147345e+003,5.536136e+001
1.148309e+003,6.235587e+001
1.149274e+003,6.698883e+001
1.150238e+003,7.256369e+001
1.151202e+003,8.177194e+001
1.152166e+003,9.315237e+001
1.153130e+003,1.038335e+002
1.154095e+003,1.122985e+002
1.155059e+003,1.192165e+002
1.156023e+003,1.262535e+002
1.156987e+003,1.327339e+002
1.157952e+003,1.341567e+002
1.158916e+003,1.299999e+002
1.159880e+003,1.257603e+002
1.160844e+003,1.253346e+002
1.161809e+003,1.258872e+002
1.162773e+003,1.211919e+002
1.163737e+003,1.102632e+002
1.164701e+003,9.853519e+001
1.165666e+003,8.598932e+001
1.166630e+003,7.458405e+001
1.167594e+003,6.485992e+001
1.168558e+003,5.675586e+001
1.169522e+003,5.007053e+001
1.170487e+003,4.477377e+001
1.171451e+003,4.136099e+001
1.172415e+003,4.057214e+001
1.173379e+003,4.181403e+001
1.174344e+003,4.192755e+001
1.175308e+003,4.083469e+001
1.176272e+003,4.067563e+001
1.177236e+003,4.363174e+001
1.178201e+003,4.683347e+001
1.179165e+003,4.598901e+001
1.180129e+003,4.092050e+001
1.181093e+003,3.641644e+001
1.182057e+003,3.305014e+001
1.183022e+003,3.126312e+001
1.183986e+003,3.264496e+001
1.184950e+003,3.447717e+001
1.185914e+003,3.383066e+001
1.186879e+003,3.084555e+001
1.187843e+003,2.794754e+001
1.188807e+003,2.705115e+001
1.189771e+003,2.762619e+001
1.190736e+003,2.841565e+001
1.191700e+003,2.942389e+001
1.192664e+003,3.042715e+001
1.193628e+003,3.157587e+001
1.194593e+003,3.270645e+001
1.195557e+003,3.426266e+001
1.196521e+003,3.568588e+001
1.197485e+003,3.461243e+001
1.198449e+003,2.963678e+001
1.199414e+003,2.562137e+001
1.200378e+003,2.605862e+001
1.201342e+003,2.702335e+001
1.202306e+003,2.589270e+001
1.203271e+003,2.323401e+001
1.204235e+003,2.093497e+001
1.205199e+003,1.991525e+001
1.206163e+003,1.914514e+001
1.207128e+003,1.668817e+001
1.208092e+003,1.239642e+001
1.209056e+003,1.102063e+001
1.210020e+003,1.418768e+001
1.210984e+003,1.649762e+001
1.211949e+003,1.656018e+001
1.212913e+003,1.479199e+001
1.213877e+003,1.113815e+001
1.214841e+003,5.778076e+000
1.215806e+003,1.406860e+000
1.216770e+003,-5.622559e-001
1.217734e+003,-1.938324e+000
1.218698e+003,-4.095215e+000
1.219663e+003,-6.573120e+000
1.220627e+003,-9.076263e+000
1.221591e+003,-1.131223e+001
1.222555e+003,-1.252896e+001
1.223520e+003,-1.194046e+001
1.224484e+003,-1.005698e+001
1.225448e+003,-9.632996e+000
1.226412e+003,-1.149652e+001
1.227376e+003,-1.318518e+001
1.228341e+003,-1.530194e+001
1.229305e+003,-1.669202e+001
1.230269e+003,-1.627875e+001
1.231233e+003,-1.483224e+001
1.232198e+003,-1.387378e+001
1.233162e+003,-1.374176e+001
1.234126e+003,-1.360754e+001
1.235090e+003,-1.271347e+001
1.236055e+003,-1.192828e+001
1.237019e+003,-1.259280e+001
1.237983e+003,-1.411304e+001
1.238947e+003,-1.460501e+001
1.239911e+003,-1.322690e+001
1.240876e+003,-1.126111e+001
1.241840e+003,-1.076483e+001
1.242804e+003,-1.184634e+001
1.243768e+003,-1.223050e+001
1.244733e+003,-1.135681e+001
1.245697e+003,-1.045471e+001
1.246661e+003,-9.413086e+000
1.247625e+003,-8.827972e+000
1.248590e+003,-9.223969e+000
1.249554e+003,-1.027609e+001
1.250518e+003,-1.135510e+001
1.251482e+003,-1.231873e+001
1.252447e+003,-1.277225e+001
1.253411e+003,-1.175845e+001
1.254375e+003,-9.868744e+000
1.255339e+003,-8.462219e+000
1.256303e+003,-7.535400e+000
1.257268e+003,-6.854980e+000
1.258232e+003,-6.644226e+000
1.259196e+003,-6.478821e+000
1.260160e+003,-4.870911e+000
1.261125e+003,-1.207184e+000
1.262089e+003,8.517761e-001
1.263053e+003,-1.256561e+000
1.264017e+003,-2.586212e+000
1.264982e+003,-8.921814e-001
1.265946e+003,1.402557e+000
1.266910e+003,1.633636e+000
1.267874e+003,4.888916e-002
1.268839e+003,-7.651367e-001
1.269803e+003,9.439392e-001
1.270767e+003,3.291962e+000
1.271731e+003,2.266602e+000
1.272695e+003,-1.915405e+000
1.273660e+003,-4.039490e+000
1.274624e+003,-3.620422e+000
1.275588e+003,-2.751892e+000
1.276552e+003,-1.979187e+000
1.277517e+003,-1.464172e+000
1.278481e+003,-1.798889e+000
1.279445e+003,-3.116852e+000
1.280409e+003,-4.524414e+000
1.281374e+003,-5.869049e+000
1.282338e+003,-7.002563e+000
1.283302e+003,-7.684113e+000
1.284266e+003,-8.269623e+000
1.285230e+003,-9.368774e+000
1.286195e+003,-1.089026e+001
1.287159e+003,-1.183914e+001
1.288123e+003,-1.132275e+001
1.289087e+003,-1.017413e+001
1.290052e+003,-1.139532e+001
1.291016e+003,-1.670178e+001
1.291980e+003,-1.831982e+001
1.292944e+003,-1.359677e+001
1.293909e+003,-9.242065e+000
1.294873e+003,-7.849365e+000
1.295837e+003,-8.055176e+000
1.296801e+003,-8.137604e+000
1.297766e+003,-7.823303e+000
1.298730e+003,-7.483673e+000
1.299694e+003,-7.275360e+000
1.300658e+003,-7.426086e+000
1.301622e+003,-8.707581e+000
1.302587e+003,-1.016357e+001
1.303551e+003,-9.747345e+000
1.304515e+003,-7.309540e+000
1.305479e+003,-5.645386e+000
1.306444e+003,-7.367462e+000
1.307408e+003,-1.124081e+001
1.308372e+003,-1.269672e+001
1.309336e+003,-1.074561e+001
1.310301e+003,-9.444397e+000
1.311265e+003,-9.077759e+000
1.312229e+003,-9.101349e+000
1.313193e+003,-1.020590e+001
1.314157e+003,-1.113849e+001
1.315122e+003,-9.800659e+000
1.316086e+003,-6.778259e+000
1.317050e+003,-5.524994e+000
1.318014e+003,-8.395874e+000
1.318979e+003,-1.276907e+001
1.319943e+003,-1.404523e+001
1.320907e+003,-1.243176e+001
1.321871e+003,-1.090503e+001
1.322836e+003,-9.615448e+000
1.323800e+003,-8.961151e+000
1.324764e+003,-9.337555e+000
1.325728e+003,-1.032782e+001
1.326693e+003,-1.158670e+001
1.327657e+003,-1.319730e+001
1.328621e+003,-1.375989e+001
1.329585e+003,-1.201013e+001
1.330549e+003,-9.818237e+000
1.331514e+003,-8.061127e+000
1.332478e+003,-7.042542e+000
1.333442e+003,-7.329254e+000
1.334406e+003,-8.471466e+000
1.335371e+003,-9.226776e+000
1.336335e+003,-8.860504e+000
1.337299e+003,-7.979065e+000
1.338263e+003,-7.824677e+000
1.339228e+003,-8.552277e+000
1.340192e+003,-8.462952e+000
1.341156e+003,-6.582611e+000
1.342120e+003,-5.384033e+000
1.343084e+003,-5.829987e+000
1.344049e+003,-6.792969e+000
1.345013e+003,-7.240723e+000
1.345977e+003,-7.190460e+000
1.346941e+003,-7.357910e+000
1.347906e+003,-8.059021e+000
1.348870e+003,-8.293091e+000
1.349834e+003,-6.878937e+000
1.350798e+003,-4.681061e+000
1.351763e+003,-2.819275e+000
1.352727e+003,-1.425385e+000
1.353691e+003,-1.617889e+000
1.354655e+003,-4.139679e+000
1.355620e+003,-7.106445e+000
1.356584e+003,-8.250427e+000
1.357548e+003,-7.711456e+000
1.358512e+003,-7.090240e+000
1.359476e+003,-6.413239e+000
1.360441e+003,-6.225983e+000
1.361405e+003,-7.000763e+000
1.362369e+003,-7.762695e+000
1.363333e+003,-7.911255e+000
1.364298e+003,-7.793213e+000
1.365262e+003,-8.145996e+000
1.366226e+003,-8.968018e+000
1.367190e+003,-9.243744e+000
1.368155e+003,-8.040985e+000
1.369119e+003,-5.993469e+000
1.370083e+003,-5.094788e+000
1.371047e+003,-5.588715e+000
1.372011e+003,-5.995087e+000
1.372976e+003,-6.439850e+000
1.373940e+003,-6.956390e+000
1.374904e+003,-7.631042e+000
1.375868e+003,-8.208496e+000
1.376833e+003,-8.459229e+000
1.377797e+003,-8.384399e+000
1.378761e+003,-7.929535e+000
1.379725e+003,-6.900177e+000
1.380690e+003,-5.891510e+000
1.381654e+003,-5.305237e+000
1.382618e+003,-5.186401e+000
1.383582e+003,-6.277161e+000
1.384547e+003,-8.241577e+000
1.385511e+003,-8.651306e+000
1.386475e+003,-6.022156e+000
1.387439e+003,-2.437744e+000
1.388403e+003,-1.071686e+000
1.389368e+003,-1.934448e+000
1.390332e+003,-2.875031e+000
1.391296e+003,-3.796875e+000
1.392260e+003,-4.682922e+000
1.393225e+003,-6.389343e+000
1.394189e+003,-7.254791e+000
1.395153e+003,-5.236298e+000
1.396117e+003,-2.207062e+000
1.397082e+003,-1.368073e+000
1.398046e+003,-3.215790e+000
1.399010e+003,-5.174469e+000
1.399974e+003,-4.962646e+000
1.400938e+003,-3.433716e+000
1.401903e+003,-2.786560e+000
1.402867e+003,-2.863556e+000
1.403831e+003,-2.816681e+000
1.404795e+003,-2.796295e+000
1.405760e+003,-2.833923e+000
1.406724e+003,-3.436432e+000
1.407688e+003,-4.253754e+000
1.408652e+003,-4.422272e+000
1.409617e+003,-3.912872e+000
1.410581e+003,-3.784027e+000
1.411545e+003,-4.584442e+000
1.412509e+003,-5.169189e+000
1.413474e+003,-4.117706e+000
1.414438e+003,-2.600769e+000
1.415402e+003,-2.521271e+000
1.416366e+003,-3.512177e+000
1.417330e+003,-3.707245e+000
1.418295e+003,-2.119537e+000
1.419259e+003,-4.831848e-001
1.420223e+003,-1.100189e+000
1.421187e+003,-3.690247e+000
1.422152e+003,-6.096252e+000
1.423116e+003,-8.489868e+000
1.424080e+003,-9.408661e+000
1.425044e+003,-7.502991e+000
1.426009e+003,-5.291595e+000
1.426973e+003,-3.654022e+000
1.427937e+003,-2.386169e+000
1.428901e+003,-8.216553e-001
1.429865e+003,8.699646e-001
1.430830e+003,1.359009e+000
1.431794e+003,-2.508240e-001
1.432758e+003,-2.619812e+000
1.433722e+003,-2.816742e+000
1.434687e+003,-3.785706e-001
1.435651e+003,1.050690e+000
1.436615e+003,-3.936768e-003
1.437579e+003,-8.779907e-001
1.438544e+003,-1.721100e+000
1.439508e+003,-1.802338e+000
1.440472e+003,4.078674e-001
1.441436e+003,3.553436e+000
1.442401e+003,4.702728e+000
1.443365e+003,3.281097e+000
1.444329e+003,1.715149e+000
1.445293e+003,1.848450e+000
1.446257e+003,2.890228e+000
1.447222e+003,3.317261e+000
1.448186e+003,3.224518e+000
1.449150e+003,3.112854e+000
1.450114e+003,2.827850e+000
1.451079e+003,3.093658e+000
1.452043e+003,5.286316e+000
1.453007e+003,7.738312e+000
1.453971e+003,8.017426e+000
1.454936e+003,6.194794e+000
1.455900e+003,3.187531e+000
1.456864e+003,-1.467590e+000
1.457828e+003,-4.710571e+000
1.458792e+003,-3.933685e+000
1.459757e+003,-1.897949e+000
1.460721e+003,-5.803223e-001
1.461685e+003,1.868896e-001
1.462649e+003,1.125641e+000
1.463614e+003,2.436615e+000
1.464578e+003,3.567627e+000
1.465542e+003,4.044708e+000
1.466506e+003,3.742401e+000
1.467471e+003,2.047302e+000
1.468435e+003,-1.588287e+000
1.469399e+003,-2.974548e+000
1.470363e+003,-4.257507e-001
1.471328e+003,2.011536e+000
1.472292e+003,3.880524e+000
1.473256e+003,4.644012e+000
1.474220e+003,3.374695e+000
1.475184e+003,1.267609e+000
1.476149e+003,4.416809e-001
1.477113e+003,1.356598e+000
1.478077e+003,2.392303e+000
1.479041e+003,2.074890e+000
1.480006e+003,1.114899e+000
1.480970e+003,1.605804e+000
1.481934e+003,3.900574e+000
1.482898e+003,5.479645e+000
1.483863e+003,6.175568e+000
1.484827e+003,6.403717e+000
1.485791e+003,5.680725e+000
1.486755e+003,5.294434e+000
1.487719e+003,6.795441e+000
1.488684e+003,9.416565e+000
1.489648e+003,1.084961e+001
1.490612e+003,1.049081e+001
1.491576e+003,1.059778e+001
1.492541e+003,1.317242e+001
1.493505e+003,1.693835e+001
1.494469e+003,1.927161e+001
1.495433e+003,2.018204e+001
1.496398e+003,2.039520e+001
1.497362e+003,1.998926e+001
1.498326e+003,1.974228e+001
1.499290e+003,1.969400e+001
1.500255e+003,2.023230e+001
1.501219e+003,2.191299e+001
1.502183e+003,2.461316e+001
1.503147e+003,2.783347e+001
1.504111e+003,3.148486e+001
1.505076e+003,3.554279e+001
1.506040e+003,4.003488e+001
1.507004e+003,4.499136e+001
1.507968e+003,5.061945e+001
1.508933e+003,5.663174e+001
1.509897e+003,6.199738e+001
1.510861e+003,6.690317e+001
1.511825e+003,7.390973e+001
1.512790e+003,8.517456e+001
1.513754e+003,9.841861e+001
1.514718e+003,1.094002e+002
1.515682e+003,1.179858e+002
1.516646e+003,1.271447e+002
1.517611e+003,1.375031e+002
1.518575e+003,1.478979e+002
1.519539e+003,1.589178e+002
1.520503e+003,1.691982e+002
1.521468e+003,1.785153e+002
1.522432e+003,1.862508e+002
1.523396e+003,1.918505e+002
1.524360e+003,1.950752e+002
1.525325e+003,1.958690e+002
1.526289e+003,1.942271e+002
1.527253e+003,1.904067e+002
1.528217e+003,1.846081e+002
1.529182e+003,1.769372e+002
1.530146e+003,1.695963e+002
1.531110e+003,1.641317e+002
1.532074e+003,1.556899e+002
1.533039e+003,1.424831e+002
1.534003e+003,1.275493e+002
1.534967e+003,1.112343e+002
1.535931e+003,9.526724e+001
1.536896e+003,8.145651e+001
1.537860e+003,6.972641e+001
1.538824e+003,5.821860e+001
1.539788e+003,4.605356e+001
1.540752e+003,3.557043e+001
1.541717e+003,3.007733e+001
1.542681e+003,2.882544e+001
1.543645e+003,2.626019e+001
1.544609e+003,2.160025e+001
1.545573e+003,1.809439e+001
1.546538e+003,1.512350e+001
1.547502e+003,1.360580e+001
1.548466e+003,1.565353e+001
1.549430e+003,1.827457e+001
1.550395e+003,1.797260e+001
1.551359e+003,1.533374e+001
1.552323e+003,1.313190e+001
1.553287e+003,1.237146e+001
1.554252e+003,1.197098e+001
1.555216e+003,1.090421e+001
1.556180e+003,9.726807e+000
1.557144e+003,1.004327e+001
1.558109e+003,1.196750e+001
1.559073e+003,1.252115e+001
1.560037e+003,1.071875e+001
1.561001e+003,8.988403e+000
1.561966e+003,8.551300e+000
1.562930e+003,8.546448e+000
1.563894e+003,7.841705e+000
1.564858e+003,6.807465e+000
1.565823e+003,6.757965e+000
1.566787e+003,7.848022e+000
1.567751e+003,8.551147e+000
1.568715e+003,8.006104e+000
1.569679e+003,6.940369e+000
1.570644e+003,5.897186e+000
1.571608e+003,4.987671e+000
1.572572e+003,4.907806e+000
1.573536e+003,5.801239e+000
1.574500e+003,6.549042e+000
1.575465e+003,6.353973e+000
1.576429e+003,6.465149e+000
1.577393e+003,8.512573e+000
1.578357e+003,1.119360e+001
1.579322e+003,1.179059e+001
1.580286e+003,1.033621e+001
1.581250e+003,9.177399e+000
1.582214e+003,8.946838e+000
1.583179e+003,9.451843e+000
1.584143e+003,1.114670e+001
1.585107e+003,1.280194e+001
1.586071e+003,1.253613e+001
1.587036e+003,1.123074e+001
1.588000e+003,1.140015e+001
1.588964e+003,1.359012e+001
1.589928e+003,1.518607e+001
1.590893e+003,1.376080e+001
1.591857e+003,1.150824e+001
1.592821e+003,1.222705e+001
1.593785e+003,1.529166e+001
1.594750e+003,1.668445e+001
1.595714e+003,1.557471e+001
1.596678e+003,1.458398e+001
1.597642e+003,1.490659e+001
1.598606e+003,1.548303e+001
1.599571e+003,1.554379e+001
1.600535e+003,1.538858e+001
1.601499e+003,1.532639e+001
1.602463e+003,1.533551e+001
1.603427e+003,1.523123e+001
1.604392e+003,1.489465e+001
1.605356e+003,1.487808e+001
1.606320e+003,1.634409e+001
1.607284e+003,1.838583e+001
1.608249e+003,1.782883e+001
1.609213e+003,1.453900e+001
1.610177e+003,1.321960e+001
1.611141e+003,1.565753e+001
1.612106e+003,1.757507e+001
1.613070e+003,1.594952e+001
1.614034e+003,1.389148e+001
1.614998e+003,1.403149e+001
1.615963e+003,1.515442e+001
1.616927e+003,1.468948e+001
1.617891e+003,1.248254e+001
1.618855e+003,1.102277e+001
1.619820e+003,1.188187e+001
1.620784e+003,1.319388e+001
1.621748e+003,1.210455e+001
1.622712e+003,9.402649e+000
1.623677e+003,9.062225e+000
1.624641e+003,1.165604e+001
1.625605e+003,1.346860e+001
1.626569e+003,1.291748e+001
1.627533e+003,1.203067e+001
1.628498e+003,1.158911e+001
1.629462e+003,1.176556e+001
1.630426e+003,1.322281e+001
1.631390e+003,1.520953e+001
1.632354e+003,1.616068e+001
1.633319e+003,1.572635e+001
1.634283e+003,1.474289e+001
1.635247e+003,1.369836e+001
1.636211e+003,1.276547e+001
1.637176e+003,1.229626e+001
1.638140e+003,1.235498e+001
1.639104e+003,1.301785e+001
1.640068e+003,1.450497e+001
1.641033e+003,1.548572e+001
1.641997e+003,1.567294e+001
1.642961e+003,1.536981e+001
1.643925e+003,1.442004e+001
1.644890e+003,1.332654e+001
1.645854e+003,1.241681e+001
1.646818e+003,1.177011e+001
1.647782e+003,1.158652e+001
1.648747e+003,1.186890e+001
1.649711e+003,1.206213e+001
1.650675e+003,1.167801e+001
1.651639e+003,1.127902e+001
1.652604e+003,1.211234e+001
1.653568e+003,1.402319e+001
1.654532e+003,1.468536e+001
1.655496e+003,1.343762e+001
1.656460e+003,1.296335e+001
1.657425e+003,1.539099e+001
1.658389e+003,1.699911e+001
1.659353e+003,1.473053e+001
1.660317e+003,1.145950e+001
1.661281e+003,1.007724e+001
1.662246e+003,1.045486e+001
1.663210e+003,1.177997e+001
1.664174e+003,1.372421e+001
1.665138e+003,1.455975e+001
1.666103e+003,1.230869e+001
1.667067e+003,8.668060e+000
1.668031e+003,7.133514e+000
1.668995e+003,7.636414e+000
1.669960e+003,8.827362e+000
1.670924e+003,1.108145e+001
1.671888e+003,1.215222e+001
1.672852e+003,1.045264e+001
1.673817e+003,8.525452e+000
1.674781e+003,7.864960e+000
1.675745e+003,7.888794e+000
1.676709e+003,7.998840e+000
1.677674e+003,8.207581e+000
1.678638e+003,8.916656e+000
1.679602e+003,1.023810e+001
1.680566e+003,1.130032e+001
1.681531e+003,1.178772e+001
1.682495e+003,1.133313e+001
1.683459e+003,8.193115e+000
1.684423e+003,3.027832e+000
1.685387e+003,1.057800e+000
1.686352e+003,3.230957e+000
1.687316e+003,4.924774e+000
1.688280e+003,4.237579e+000
1.689244e+003,3.548645e+000
1.690208e+003,5.198303e+000
1.691173e+003,7.289948e+000
1.692137e+003,7.680420e+000
1.693101e+003,6.858582e+000
1.694065e+003,6.238647e+000
1.695030e+003,6.019104e+000
1.695994e+003,6.130371e+000
1.696958e+003,6.978241e+000
1.697922e+003,7.746033e+000
1.698887e+003,7.436615e+000
1.699851e+003,6.249512e+000
1.700815e+003,4.210266e+000
1.701779e+003,1.328888e+000
1.702744e+003,-7.565308e-002
1.703708e+003,1.112274e+000
1.704672e+003,3.056366e+000
1.705636e+003,4.689514e+000
1.706601e+003,5.662506e+000
1.707565e+003,5.454803e+000
1.708529e+003,4.501862e+000
1.709493e+003,3.929413e+000
1.710458e+003,3.934509e+000
1.711422e+003,3.431641e+000
1.712386e+003,1.633972e+000
1.713350e+003,-1.852112e-001
1.714314e+003,-1.710815e+000
1.715279e+003,-2.475616e+000
1.716243e+003,-9.182129e-001
1.717207e+003,2.418884e+000
1.718171e+003,4.652435e+000
1.719135e+003,5.016876e+000
1.720100e+003,4.557983e+000
1.721064e+003,3.795990e+000
1.722028e+003,2.760590e+000
1.722992e+003,1.474152e+000
1.723957e+003,2.117004e-001
1.724921e+003,-3.063965e-001
1.725885e+003,-2.685242e-001
1.726849e+003,-1.394653e-002
1.727814e+003,1.192322e+000
1.728778e+003,2.074158e+000
1.729742e+003,1.565704e+000
1.730706e+003,8.524780e-001
1.731671e+003,1.119385e+000
1.732635e+003,1.817902e+000
1.733599e+003,2.047028e+000
1.734563e+003,1.742310e+000
1.735528e+003,9.659729e-001
1.736492e+003,-3.086243e-001
1.737456e+003,-1.242981e+000
1.738420e+003,-7.095642e-001
1.739385e+003,5.502930e-001
1.740349e+003,1.109009e-001
1.741313e+003,-2.536316e+000
1.742277e+003,-3.735901e+000
1.743241e+003,-2.114594e+000
1.744206e+003,-1.065399e+000
1.745170e+003,-1.427948e+000
1.746134e+003,-2.126587e+000
1.747098e+003,-2.882111e+000
1.748063e+003,-3.440308e+000
1.749027e+003,-3.279846e+000
1.749991e+003,-2.722900e+000
1.750955e+003,-3.021667e+000
1.751919e+003,-4.353699e+000
1.752884e+003,-4.771790e+000
1.753848e+003,-2.624390e+000
1.754812e+003,4.254761e-001
1.755776e+003,1.049622e+000
1.756741e+003,-5.458679e-001
1.757705e+003,-1.797058e+000
1.758669e+003,-2.945618e+000
1.759633e+003,-3.361237e+000
1.760598e+003,-2.518585e+000
1.761562e+003,-1.800964e+000
1.762526e+003,-1.219940e+000
1.763490e+003,-1.034637e+000
1.764455e+003,-1.515411e+000
1.765419e+003,-2.425537e+000
1.766383e+003,-3.889893e+000
1.767347e+003,-5.608002e+000
1.768312e+003,-6.183533e+000
1.769276e+003,-4.976166e+000
1.770240e+003,-3.442871e+000
1.771204e+003,-2.888031e+000
1.772168e+003,-2.857697e+000
1.773133e+003,-2.535919e+000
1.774097e+003,-1.999237e+000
1.775061e+003,-2.168396e+000
1.776025e+003,-3.464661e+000
1.776990e+003,-3.998505e+000
1.777954e+003,-2.672424e+000
1.778918e+003,-1.004608e+000
1.779882e+003,3.363037e-002
1.780846e+003,4.329529e-001
1.781811e+003,2.329407e-001
1.782775e+003,-3.978271e-001
1.783739e+003,-1.033783e+000
1.784703e+003,-1.565216e+000
1.785668e+003,-2.147949e+000
1.786632e+003,-3.474640e+000
1.787596e+003,-4.376648e+000
1.788560e+003,-3.253967e+000
1.789525e+003,-1.348633e+000
1.790489e+003,-5.361938e-001
1.791453e+003,-7.623291e-001
1.792417e+003,-1.256195e+000
1.793382e+003,-1.811340e+000
1.794346e+003,-2.591980e+000
1.795310e+003,-3.760132e+000
1.796274e+003,-4.545715e+000
1.797239e+003,-3.894379e+000
1.798203e+003,-2.095703e+000
1.799167e+003,-4.993286e-001
1.800131e+003,7.599792e-001
1.801095e+003,6.773071e-001
1.802060e+003,-1.374786e+000
1.803024e+003,-3.066681e+000
1.803988e+003,-4.390747e+000
1.804952e+003,-5.254242e+000
1.805917e+003,-5.821106e+000
1.806881e+003,-5.740692e+000
1.807845e+003,-3.831177e+000
1.808809e+003,-1.215881e+000
1.809773e+003,-3.804932e-001
1.810738e+003,-1.593719e+000
1.811702e+003,-2.811096e+000
1.812666e+003,-2.759644e+000
1.813630e+003,-2.008820e+000
1.814595e+003,-1.205963e+000
1.815559e+003,-5.337524e-001
1.816523e+003,-6.113281e-001
1.817487e+003,-1.441132e+000
1.818452e+003,-2.783051e+000
1.819416e+003,-5.208984e+000
1.820380e+003,-5.961487e+000
1.821344e+003,-3.040131e+000
1.822309e+003,-3.502808e-001
1.823273e+003,-1.126221e+000
1.824237e+003,-2.293457e+000
1.825201e+003,-1.220703e-003
1.826166e+003,4.257935e+000
1.827130e+003,6.225739e+000
1.828094e+003,5.147583e+000
1.829058e+003,3.496124e+000
1.830022e+003,2.574677e+000
1.830987e+003,1.376556e+000
1.831951e+003,-1.692932e+000
1.832915e+003,-4.985809e+000
1.833879e+003,-5.976929e+000
1.834844e+003,-5.131622e+000
1.835808e+003,-4.000610e+000
1.836772e+003,-2.902405e+000
1.837736e+003,-1.934387e+000
1.838700e+003,-1.204315e+000
1.839665e+003,-8.533020e-001
1.840629e+003,-1.036133e+000
1.841593e+003,-1.343353e+000
1.842557e+003,-9.281616e-001
1.843522e+003,1.842957e-001
1.844486e+003,6.059265e-001
1.845450e+003,1.395569e-001
1.846414e+003,-3.077393e-001
1.847379e+003,-1.818268e+000
1.848343e+003,-2.278168e+000
1.849307e+003,8.547058e-001
1.850271e+003,3.402924e+000
1.851236e+003,1.486145e+000
1.852200e+003,-2.204285e+000
1.853164e+003,-4.167633e+000
1.854128e+003,-4.176544e+000
1.855093e+003,-3.124054e+000
1.856057e+003,-1.472809e+000
1.857021e+003,-4.541016e-001
1.857985e+003,-1.277191e+000
1.858949e+003,-2.885559e+000
1.859914e+003,-3.651947e+000
1.860878e+003,-3.517456e+000
1.861842e+003,-1.828278e+000
1.862806e+003,1.439850e+000
1.863771e+003,2.320831e+000
1.864735e+003,-6.010742e-001
1.865699e+003,-2.648865e+000
1.866663e+003,-1.333191e+000
1.867627e+003,8.428040e-001
1.868592e+003,1.662445e+000
1.869556e+003,1.628967e+000
1.870520e+003,2.049194e+000
1.871484e+003,2.769745e+000
1.872449e+003,2.788147e+000
1.873413e+003,2.180786e+000
1.874377e+003,1.832092e+000
1.875341e+003,1.460449e+000
1.876306e+003,1.386536e+000
1.877270e+003,2.209473e+000
1.878234e+003,2.936096e+000
1.879198e+003,1.983643e+000
1.880163e+003,5.696411e-001
1.881127e+003,1.575958e+000
1.882091e+003,4.606689e+000
1.883055e+003,6.298737e+000
1.884020e+003,5.309204e+000
1.884984e+003,3.489471e+000
1.885948e+003,2.522491e+000
1.886912e+003,1.963165e+000
1.887876e+003,8.318176e-001
1.888841e+003,-7.347107e-001
1.889805e+003,-1.138611e+000
1.890769e+003,-2.270203e-001
1.891733e+003,1.242554e+000
1.892698e+003,4.088959e+000
1.893662e+003,4.942932e+000
1.894626e+003,8.229065e-001
1.895590e+003,-3.099121e+000
1.896554e+003,-2.775391e+000
1.897519e+003,-5.233765e-001
1.898483e+003,1.158386e+000
1.899447e+003,2.128174e+000
1.900411e+003,2.790924e+000
1.901376e+003,3.257019e+000
1.902340e+003,3.434296e+000
1.903304e+003,3.020569e+000
1.904268e+003,2.678040e+000
1.905233e+003,3.214874e+000
1.906197e+003,3.744415e+000
1.907161e+003,2.948853e+000
1.908125e+003,1.733337e+000
1.909090e+003,1.733490e+000
1.910054e+003,2.846802e+000
1.911018e+003,4.247589e+000
1.911982e+003,5.567810e+000
1.912947e+003,6.164429e+000
1.913911e+003,5.527069e+000
1.914875e+003,4.367706e+000
1.915839e+003,3.702087e+000
1.916803e+003,3.422607e+000
1.917768e+003,3.617767e+000
1.918732e+003,4.498016e+000
1.919696e+003,5.133972e+000
1.920660e+003,5.578064e+000
1.921625e+003,5.841461e+000
1.922589e+003,5.908539e+000
1.923553e+003,5.624237e+000
1.924517e+003,4.509979e+000
1.925481e+003,3.401154e+000
1.926446e+003,3.233856e+000
1.927410e+003,3.539063e+000
1.928374e+003,3.202087e+000
1.929338e+003,2.146729e+000
1.930303e+003,1.494202e+000
1.931267e+003,1.812866e+000
1.932231e+003,2.307251e+000
1.933195e+003,2.512787e+000
1.934160e+003,2.593872e+000
1.935124e+003,2.709717e+000
1.936088e+003,2.658020e+000
1.937052e+003,1.880249e+000
1.938017e+003,1.079224e+000
1.938981e+003,2.298218e+000
1.939945e+003,5.066437e+000
1.940909e+003,5.672913e+000
1.941874e+003,2.662933e+000
1.942838e+003,-3.856812e-001
1.943802e+003,-1.065063e-002
1.944766e+003,2.452209e+000
1.945730e+003,4.235229e+000
1.946695e+003,5.248627e+000
1.947659e+003,5.251312e+000
1.948623e+003,4.022308e+000
1.949587e+003,4.242828e+000
1.950552e+003,7.041534e+000
1.951516e+003,7.923126e+000
1.952480e+003,4.286774e+000
1.953444e+003,7.610474e-001
1.954408e+003,6.486511e-001
1.955373e+003,2.160950e+000
1.956337e+003,3.214722e+000
1.957301e+003,4.047455e+000
1.958265e+003,5.105804e+000
1.959230e+003,6.502502e+000
1.960194e+003,7.363953e+000
1.961158e+003,7.409698e+000
1.962122e+003,6.681763e+000
1.963087e+003,3.818939e+000
1.964051e+003,1.926239e+000
1.965015e+003,4.142761e+000
1.965979e+003,7.247345e+000
1.966944e+003,7.588593e+000
1.967908e+003,6.149170e+000
1.968872e+003,5.309052e+000
1.969836e+003,5.555664e+000
1.970801e+003,6.448822e+000
1.971765e+003,7.715027e+000
1.972729e+003,8.366913e+000
1.973693e+003,7.336945e+000
1.974657e+003,5.896851e+000
1.975622e+003,6.109589e+000
1.976586e+003,7.258942e+000
1.977550e+003,7.267609e+000
1.978514e+003,6.501312e+000
1.979479e+003,7.404877e+000
1.980443e+003,1.013953e+001
1.981407e+003,1.154138e+001
1.982371e+003,1.044046e+001
1.983335e+003,8.775085e+000
1.984300e+003,7.795776e+000
1.985264e+003,7.586426e+000
1.986228e+003,8.596313e+000
1.987192e+003,1.033752e+001
1.988157e+003,1.012946e+001
1.989121e+003,7.280457e+000
1.990085e+003,6.452759e+000
1.991049e+003,9.365631e+000
1.992014e+003,1.098584e+001
1.992978e+003,9.871674e+000
1.993942e+003,8.376007e+000
1.994906e+003,6.807922e+000
1.995871e+003,5.659607e+000
1.996835e+003,5.321472e+000
1.997799e+003,5.707855e+000
1.998763e+003,7.037811e+000
1.999728e+003,8.841156e+000
