5.003444e+002,3.128278e+001
5.013087e+002,3.157065e+001
5.022729e+002,3.237781e+001
5.032371e+002,3.357593e+001
5.042014e+002,3.435416e+001
5.051656e+002,3.475089e+001
5.061298e+002,3.440215e+001
5.070941e+002,3.271098e+001
5.080583e+002,2.889415e+001
5.090225e+002,2.806465e+001
5.099868e+002,3.251564e+001
5.109510e+002,3.656343e+001
5.119152e+002,3.692445e+001
5.128795e+002,3.323857e+001
5.138437e+002,2.994975e+001
5.148079e+002,2.840387e+001
5.157722e+002,2.777420e+001
5.167364e+002,2.847595e+001
5.177006e+002,3.001187e+001
5.186649e+002,3.079105e+001
5.196291e+002,2.784891e+001
5.205933e+002,2.406454e+001
5.215576e+002,2.271252e+001
5.225218e+002,2.387573e+001
5.234860e+002,2.607715e+001
5.244503e+002,2.684955e+001
5.254145e+002,2.589214e+001
5.263787e+002,2.478252e+001
5.273430e+002,2.315660e+001
5.283072e+002,2.161391e+001
5.292714e+002,2.100996e+001
5.302357e+002,2.167879e+001
5.311999e+002,2.215880e+001
5.321641e+002,2.296443e+001
5.331284e+002,2.342989e+001
5.340926e+002,2.255501e+001
5.350568e+002,1.976584e+001
5.360211e+002,1.724661e+001
5.369853e+002,1.767368e+001
5.379495e+002,1.919955e+001
5.389138e+002,2.041013e+001
5.398780e+002,2.068588e+001
5.408422e+002,2.035760e+001
5.418065e+002,2.050806e+001
5.427707e+002,2.100348e+001
5.437349e+002,2.056998e+001
5.446992e+002,1.849921e+001
5.456634e+002,1.545668e+001
5.466276e+002,1.385951e+001
5.475919e+002,1.571120e+001
5.485561e+002,1.676289e+001
5.495203e+002,1.630492e+001
5.504846e+002,1.502379e+001
5.514488e+002,1.387209e+001
5.524130e+002,1.304054e+001
5.533773e+002,1.299532e+001
5.543415e+002,1.455408e+001
5.553057e+002,1.650607e+001
5.562700e+002,1.753015e+001
5.572342e+002,1.680325e+001
5.581984e+002,1.503516e+001
5.591627e+002,1.370016e+001
5.601269e+002,1.287552e+001
5.610911e+002,1.297849e+001
5.620554e+002,1.430374e+001
5.630196e+002,1.647318e+001
5.639838e+002,1.648172e+001
5.649481e+002,1.205762e+001
5.659123e+002,8.803467e+000
5.668765e+002,8.618423e+000
5.678408e+002,1.049956e+001
5.688050e+002,1.124409e+001
5.697692e+002,8.394073e+000
5.707335e+002,6.279846e+000
5.716977e+002,7.128632e+000
5.726619e+002,9.268616e+000
5.736262e+002,1.022070e+001
5.745904e+002,8.097717e+000
5.755546e+002,5.233932e+000
5.765189e+002,5.537613e+000
5.774831e+002,7.578659e+000
5.784473e+002,9.073639e+000
5.794116e+002,8.534500e+000
5.803758e+002,6.264359e+000
5.813400e+002,4.843338e+000
5.823043e+002,4.132858e+000
5.832685e+002,3.674393e+000
5.842327e+002,3.597809e+000
5.851970e+002,3.923325e+000
5.861612e+002,4.162476e+000
5.871254e+002,3.384659e+000
5.880897e+002,3.350311e+000
5.890539e+002,4.831635e+000
5.900181e+002,7.117493e+000
5.909824e+002,9.202896e+000
5.919466e+002,1.074420e+001
5.929108e+002,1.126967e+001
5.938751e+002,1.036813e+001
5.948393e+002,8.498840e+000
5.958035e+002,6.151733e+000
5.967678e+002,3.723557e+000
5.977320e+002,1.449753e+000
5.986962e+002,9.918213e-001
5.996605e+002,2.107498e+000
6.006247e+002,3.385498e+000
6.015889e+002,4.520172e+000
6.025532e+002,5.473907e+000
6.035174e+002,5.523788e+000
6.044816e+002,3.043411e+000
6.054459e+002,1.458618e+000
6.064101e+002,1.803375e+000
6.073743e+002,3.279053e+000
6.083386e+002,4.382950e+000
6.093028e+002,4.212448e+000
6.102670e+002,3.872009e+000
6.112313e+002,4.367401e+000
6.121955e+002,5.186310e+000
6.131597e+002,5.570267e+000
6.141240e+002,5.010574e+000
6.150882e+002,3.838715e+000
6.160524e+002,3.754745e+000
6.170167e+002,4.626984e+000
6.179809e+002,5.267365e+000
6.189451e+002,4.988358e+000
6.199094e+002,3.862518e+000
6.208736e+002,2.981918e+000
6.218378e+002,2.382675e+000
6.228021e+002,2.369415e+000
6.237663e+002,3.409317e+000
6.247305e+002,4.992996e+000
6.256948e+002,6.356552e+000
6.266590e+002,7.289963e+000
6.276232e+002,7.318359e+000
6.285875e+002,5.935608e+000
6.295517e+002,4.118561e+000
6.305159e+002,3.016006e+000
6.314802e+002,3.153717e+000
6.324444e+002,3.674820e+000
6.334086e+002,1.542480e+000
6.343729e+002,-2.094574e+000
6.353371e+002,-4.047882e+000
6.363013e+002,-3.040024e+000
6.372656e+002,1.009216e-001
6.382298e+002,2.567871e+000
6.391940e+002,4.485733e+000
6.401583e+002,5.175049e+000
6.411225e+002,4.374649e+000
6.420867e+002,2.802994e+000
6.430510e+002,1.039856e+000
6.440152e+002,-1.061691e+000
6.449794e+002,-2.882446e+000
6.459437e+002,-4.618668e+000
6.469079e+002,-5.700317e+000
6.478721e+002,-5.074036e+000
6.488364e+002,-2.642242e+000
6.498006e+002,4.974365e-002
6.507648e+002,-5.365601e-001
6.517291e+002,-2.972595e+000
6.526933e+002,-3.344025e+000
6.536575e+002,-8.178558e-001
6.546218e+002,2.953186e+000
6.555860e+002,4.800659e+000
6.565502e+002,3.632187e+000
6.575145e+002,2.532059e+000
6.584787e+002,1.385162e+000
6.594429e+002,4.034119e-001
6.604072e+002,-2.837067e-001
6.613714e+002,-6.655884e-001
6.623356e+002,-6.301117e-001
6.632999e+002,3.780975e-001
6.642641e+002,1.202057e+000
6.652283e+002,1.085403e+000
6.661926e+002,2.220001e-001
6.671568e+002,-4.667969e-001
6.681210e+002,1.931458e-001
6.690853e+002,1.581955e+000
6.700495e+002,2.371689e+000
6.710137e+002,2.511032e+000
6.719780e+002,1.781326e+000
6.729422e+002,-3.060913e-001
6.739064e+002,-4.460754e+000
6.748707e+002,-5.665054e+000
6.758349e+002,-1.798294e+000
6.767991e+002,1.609695e+000
6.777634e+002,1.631989e+000
6.787276e+002,-1.095016e+000
6.796918e+002,-2.130707e+000
6.806561e+002,2.536972e+000
6.816203e+002,6.250519e+000
6.825845e+002,5.569412e+000
6.835488e+002,2.345154e+000
6.845130e+002,-8.480835e-002
6.854772e+002,8.659821e-001
6.864415e+002,3.575684e+000
6.874057e+002,4.116241e+000
6.883699e+002,2.966263e+000
6.893342e+002,1.508148e+000
6.902984e+002,5.379791e-001
6.912626e+002,-8.834839e-003
6.922269e+002,-8.931732e-001
6.931911e+002,-3.166977e+000
6.941553e+002,-3.886215e+000
6.951196e+002,-2.030182e+000
6.960838e+002,1.014313e+000
6.970480e+002,3.253281e+000
6.980123e+002,4.342133e+000
6.989765e+002,4.521240e+000
6.999407e+002,3.726685e+000
7.009050e+002,2.445313e+000
7.018692e+002,7.247009e-001
7.028334e+002,-1.261124e+000
7.037977e+002,-2.895294e+000
7.047619e+002,-2.904831e+000
7.057261e+002,-1.689133e+000
7.066904e+002,2.864075e-002
7.076546e+002,2.119141e+000
7.086188e+002,3.968872e+000
7.095831e+002,4.549088e+000
7.105473e+002,3.319595e+000
7.115115e+002,2.127106e+000
7.124758e+002,7.468262e-001
7.134400e+002,-4.817352e-001
7.144042e+002,-1.276306e+000
7.153685e+002,-1.583466e+000
7.163327e+002,-1.686737e+000
7.172969e+002,-1.439499e+000
7.182612e+002,-1.224869e+000
7.192254e+002,-1.239868e+000
7.201896e+002,-1.486252e+000
7.211539e+002,-1.982162e+000
7.221181e+002,-2.801346e+000
7.230823e+002,-3.555878e+000
7.240466e+002,-3.199997e+000
7.250108e+002,-1.847092e+000
7.259750e+002,-9.355164e-002
7.269393e+002,1.753510e+000
7.279035e+002,3.403473e+000
7.288677e+002,3.623337e+000
7.298320e+002,7.035675e-001
7.307962e+002,-9.699249e-001
7.317604e+002,-2.689972e-001
7.327247e+002,1.532227e+000
7.336889e+002,2.553406e+000
7.346531e+002,1.977249e+000
7.356174e+002,9.094849e-001
7.365816e+002,1.063690e-001
7.375458e+002,-4.649353e-001
7.385101e+002,-9.066315e-001
7.394743e+002,-1.212936e+000
7.404385e+002,-1.193680e+000
7.414028e+002,-3.804016e-001
7.423670e+002,6.258850e-001
7.433312e+002,2.710419e-001
7.442955e+002,-1.480774e+000
7.452597e+002,-3.227997e+000
7.462239e+002,-3.431976e+000
7.471882e+002,-1.749374e+000
7.481524e+002,-1.986542e-001
7.491166e+002,9.102020e-001
7.500809e+002,1.875870e+000
7.510451e+002,3.189026e+000
7.520093e+002,4.526031e+000
7.529736e+002,4.739883e+000
7.539378e+002,2.787186e+000
7.549020e+002,6.623383e-001
7.558663e+002,-9.391632e-001
7.568306e+002,-1.753448e+000
7.577948e+002,-1.122818e+000
7.587590e+002,1.177658e+000
7.597233e+002,4.092010e+000
7.606875e+002,4.327484e+000
7.616517e+002,2.346725e+000
7.626160e+002,1.026123e+000
7.635802e+002,1.295670e+000
7.645444e+002,2.445251e+000
7.655087e+002,2.947723e+000
7.664729e+002,2.378555e+000
7.674371e+002,1.953384e+000
7.684014e+002,1.579239e+000
7.693656e+002,1.458466e+000
7.703298e+002,2.238556e+000
7.712941e+002,3.770035e+000
7.722583e+002,4.283813e+000
7.732225e+002,1.096558e+000
7.741868e+002,-2.329315e+000
7.751510e+002,-3.136383e+000
7.761152e+002,-1.787598e+000
7.770795e+002,7.482910e-002
7.780437e+002,9.886627e-001
7.790079e+002,1.094223e+000
7.799722e+002,2.328369e+000
7.809364e+002,4.977295e+000
7.819006e+002,6.526123e+000
7.828649e+002,5.255234e+000
7.838291e+002,2.260452e+000
7.847933e+002,1.142365e+000
7.857576e+002,3.435226e+000
7.867218e+002,4.804581e+000
7.876860e+002,4.050293e+000
7.886503e+002,2.780655e+000
7.896145e+002,2.292847e+000
7.905787e+002,2.932526e+000
7.915430e+002,4.022964e+000
7.925072e+002,5.149918e+000
7.934714e+002,5.873154e+000
7.944357e+002,5.517365e+000
7.953999e+002,4.357971e+000
7.963641e+002,3.491776e+000
7.973284e+002,4.145493e+000
7.982926e+002,6.463791e+000
7.992568e+002,7.510559e+000
8.002211e+002,6.711853e+000
8.011853e+002,5.450256e+000
8.021495e+002,4.452667e+000
8.031138e+002,3.773911e+000
8.040780e+002,2.776947e+000
8.050422e+002,-5.862427e-002
8.060065e+002,-1.071182e+000
8.069707e+002,2.085632e+000
8.079349e+002,6.469711e+000
8.088992e+002,9.268387e+000
8.098634e+002,9.566559e+000
8.108276e+002,8.908401e+000
8.117919e+002,9.509598e+000
8.127561e+002,1.033757e+001
8.137203e+002,9.483978e+000
8.146846e+002,6.916672e+000
8.156488e+002,4.146240e+000
8.166130e+002,2.989151e+000
8.175773e+002,3.778992e+000
8.185415e+002,3.910645e+000
8.195057e+002,2.120575e+000
8.204700e+002,1.064728e+000
8.214342e+002,2.032455e+000
8.223984e+002,4.422699e+000
8.233627e+002,6.703796e+000
8.243269e+002,8.764008e+000
8.252911e+002,9.858002e+000
8.262554e+002,9.280151e+000
8.272196e+002,7.964218e+000
8.281838e+002,6.451920e+000
8.291481e+002,5.170944e+000
8.301123e+002,4.844070e+000
8.310765e+002,7.396698e+000
8.320408e+002,1.221602e+001
8.330050e+002,1.301332e+001
8.339692e+002,8.521179e+000
8.349335e+002,3.022614e+000
8.358977e+002,1.134750e+000
8.368619e+002,3.526443e+000
8.378262e+002,5.092636e+000
8.387904e+002,4.753555e+000
8.397546e+002,4.417542e+000
8.407189e+002,4.540237e+000
8.416831e+002,5.010605e+000
8.426473e+002,5.661636e+000
8.436116e+002,6.548080e+000
8.445758e+002,7.132187e+000
8.455400e+002,6.304306e+000
8.465043e+002,4.865219e+000
8.474685e+002,3.658585e+000
8.484327e+002,3.142517e+000
8.493970e+002,3.680725e+000
8.503612e+002,5.831573e+000
8.513254e+002,1.002713e+001
8.522897e+002,1.174878e+001
8.532539e+002,9.667557e+000
8.542181e+002,7.024490e+000
8.551824e+002,5.711060e+000
8.561466e+002,5.748428e+000
8.571108e+002,6.179916e+000
8.580751e+002,6.420486e+000
8.590393e+002,6.966797e+000
8.600035e+002,8.209290e+000
8.609678e+002,9.922958e+000
8.619320e+002,1.207983e+001
8.628962e+002,1.455588e+001
8.638605e+002,1.667232e+001
8.648247e+002,1.716431e+001
8.657889e+002,1.652342e+001
8.667532e+002,1.558253e+001
8.677174e+002,1.445699e+001
8.686816e+002,1.385692e+001
8.696459e+002,1.491479e+001
8.706101e+002,1.820128e+001
8.715743e+002,1.926276e+001
8.725386e+002,1.634988e+001
8.735028e+002,1.371114e+001
8.744670e+002,1.173300e+001
8.754313e+002,1.069154e+001
8.763955e+002,1.137196e+001
8.773597e+002,1.462814e+001
8.783240e+002,1.785834e+001
8.792882e+002,1.957553e+001
8.802524e+002,2.008127e+001
8.812167e+002,1.883572e+001
8.821809e+002,1.629105e+001
8.831451e+002,1.414412e+001
8.841094e+002,1.469426e+001
8.850736e+002,1.795345e+001
8.860378e+002,2.061327e+001
8.870021e+002,2.287660e+001
8.879663e+002,2.387837e+001
8.889305e+002,2.195474e+001
8.898948e+002,1.794991e+001
8.908590e+002,1.667513e+001
8.918232e+002,2.083983e+001
8.927875e+002,2.408011e+001
8.937517e+002,2.459583e+001
8.947159e+002,2.410939e+001
8.956802e+002,2.393410e+001
8.966444e+002,2.431313e+001
8.976086e+002,2.459000e+001
8.985729e+002,2.416211e+001
8.995371e+002,2.346750e+001
9.005013e+002,2.292320e+001
9.014656e+002,2.267445e+001
9.024298e+002,2.305031e+001
9.033940e+002,2.428070e+001
9.043583e+002,2.612415e+001
9.053225e+002,2.750797e+001
9.062867e+002,2.844647e+001
9.072510e+002,2.856813e+001
9.082152e+002,2.695370e+001
9.091794e+002,2.542180e+001
9.101437e+002,2.607304e+001
9.111079e+002,2.924916e+001
9.120721e+002,3.226241e+001
9.130364e+002,3.417043e+001
9.140006e+002,3.451563e+001
9.149648e+002,3.201120e+001
9.159291e+002,2.797058e+001
9.168933e+002,2.456630e+001
9.178575e+002,2.327919e+001
9.188218e+002,2.386610e+001
9.197860e+002,2.646593e+001
9.207502e+002,3.116333e+001
9.217145e+002,3.354730e+001
9.226787e+002,3.217957e+001
9.236429e+002,2.905597e+001
9.246072e+002,2.634769e+001
9.255714e+002,2.376723e+001
9.265356e+002,2.256219e+001
9.274999e+002,2.425494e+001
9.284641e+002,2.578874e+001
9.294283e+002,2.612793e+001
9.303926e+002,2.565544e+001
9.313568e+002,2.518260e+001
9.323210e+002,2.510957e+001
9.332853e+002,2.519608e+001
9.342495e+002,2.538106e+001
9.352137e+002,2.536194e+001
9.361780e+002,2.456032e+001
9.371422e+002,2.296582e+001
9.381064e+002,2.112854e+001
9.390707e+002,1.961459e+001
9.400349e+002,1.825031e+001
9.409991e+002,1.742381e+001
9.419634e+002,1.750084e+001
9.429276e+002,1.749864e+001
9.438918e+002,1.670209e+001
9.448561e+002,1.586586e+001
9.458203e+002,1.659052e+001
9.467845e+002,1.973741e+001
9.477488e+002,2.255191e+001
9.487130e+002,2.239229e+001
9.496772e+002,2.138962e+001
9.506415e+002,2.097072e+001
9.516057e+002,2.135861e+001
9.525699e+002,2.223586e+001
9.535342e+002,2.329529e+001
9.544984e+002,2.440103e+001
9.554626e+002,2.480409e+001
9.564269e+002,2.478046e+001
9.573911e+002,2.419420e+001
9.583553e+002,2.206192e+001
9.593196e+002,1.966252e+001
9.602838e+002,1.957634e+001
9.612480e+002,2.271870e+001
9.622123e+002,2.445303e+001
9.631765e+002,2.169038e+001
9.641407e+002,1.910042e+001
9.651050e+002,1.929440e+001
9.660692e+002,2.127802e+001
9.670334e+002,2.239267e+001
9.679977e+002,2.102272e+001
9.689619e+002,1.896622e+001
9.699261e+002,2.087997e+001
9.708904e+002,2.506351e+001
9.718546e+002,2.626685e+001
9.728188e+002,2.271545e+001
9.737831e+002,1.826598e+001
9.747473e+002,1.863680e+001
9.757115e+002,2.523059e+001
9.766758e+002,2.926312e+001
9.776400e+002,2.913960e+001
9.786042e+002,2.860297e+001
9.795685e+002,2.822870e+001
9.805327e+002,2.784627e+001
9.814969e+002,2.731850e+001
9.824612e+002,2.669215e+001
9.834254e+002,2.571155e+001
9.843896e+002,2.339432e+001
9.853539e+002,2.076743e+001
9.863181e+002,1.897704e+001
9.872823e+002,1.797925e+001
9.882466e+002,1.732433e+001
9.892108e+002,1.676869e+001
9.901750e+002,1.651022e+001
9.911393e+002,1.669945e+001
9.921035e+002,1.744084e+001
9.930677e+002,1.771463e+001
9.940320e+002,1.700499e+001
9.949962e+002,1.644073e+001
9.959604e+002,1.721062e+001
9.969247e+002,1.936794e+001
9.978889e+002,2.159149e+001
9.988531e+002,2.304404e+001
9.998174e+002,2.428632e+001
1.000782e+003,2.597427e+001
1.001746e+003,2.780965e+001
1.002710e+003,2.924286e+001
1.003674e+003,3.003609e+001
1.004639e+003,3.046231e+001
1.005603e+003,3.101334e+001
1.006567e+003,3.165627e+001
1.007531e+003,3.207082e+001
1.008495e+003,3.220421e+001
1.009460e+003,3.228357e+001
1.010424e+003,3.272545e+001
1.011388e+003,3.332298e+001
1.012352e+003,3.298651e+001
1.013317e+003,3.092696e+001
1.014281e+003,2.908350e+001
1.015245e+003,2.832768e+001
1.016209e+003,2.761555e+001
1.017174e+003,2.626134e+001
1.018138e+003,2.422714e+001
1.019102e+003,2.174760e+001
1.020066e+003,1.892903e+001
1.021031e+003,1.627776e+001
1.021995e+003,1.530110e+001
1.022959e+003,1.552393e+001
1.023923e+003,1.550511e+001
1.024887e+003,1.475523e+001
1.025852e+003,1.353114e+001
1.026816e+003,1.220912e+001
1.027780e+003,1.080476e+001
1.028744e+003,9.732224e+000
1.029709e+003,8.941910e+000
1.030673e+003,8.514893e+000
1.031637e+003,8.708817e+000
1.032601e+003,9.112732e+000
1.033566e+003,9.237381e+000
1.034530e+003,8.948441e+000
1.035494e+003,8.482040e+000
1.036458e+003,7.783707e+000
1.037422e+003,7.184540e+000
1.038387e+003,7.684174e+000
1.039351e+003,9.057022e+000
1.040315e+003,9.547791e+000
1.041279e+003,7.703354e+000
1.042244e+003,4.259979e+000
1.043208e+003,2.665863e+000
1.044172e+003,4.148438e+000
1.045136e+003,5.274780e+000
1.046101e+003,6.199310e+000
1.047065e+003,6.679352e+000
1.048029e+003,6.037933e+000
1.048993e+003,4.689606e+000
1.049958e+003,4.249756e+000
1.050922e+003,5.827484e+000
1.051886e+003,7.833176e+000
1.052850e+003,8.851715e+000
1.053814e+003,9.144760e+000
1.054779e+003,8.781616e+000
1.055743e+003,7.871185e+000
1.056707e+003,6.858170e+000
1.057671e+003,6.279083e+000
1.058636e+003,6.110794e+000
1.059600e+003,6.071259e+000
1.060564e+003,6.417877e+000
1.061528e+003,6.832565e+000
1.062493e+003,7.227615e+000
1.063457e+003,7.459824e+000
1.064421e+003,7.420441e+000
1.065385e+003,7.154663e+000
1.066349e+003,6.909195e+000
1.067314e+003,7.039307e+000
1.068278e+003,6.929993e+000
1.069242e+003,5.736526e+000
1.070206e+003,4.231155e+000
1.071171e+003,3.739258e+000
1.072135e+003,4.667450e+000
1.073099e+003,6.017273e+000
1.074063e+003,6.197769e+000
1.075028e+003,5.131058e+000
1.075992e+003,4.261353e+000
1.076956e+003,3.347122e+000
1.077920e+003,2.751480e+000
1.078885e+003,2.877853e+000
1.079849e+003,3.479630e+000
1.080813e+003,4.066467e+000
1.081777e+003,4.608368e+000
1.082741e+003,5.056488e+000
1.083706e+003,4.872940e+000
1.084670e+003,4.778244e+000
1.085634e+003,5.407394e+000
1.086598e+003,6.408844e+000
1.087563e+003,7.070282e+000
1.088527e+003,7.066803e+000
1.089491e+003,6.843994e+000
1.090455e+003,7.153305e+000
1.091420e+003,7.970703e+000
1.092384e+003,7.965103e+000
1.093348e+003,6.625031e+000
1.094312e+003,5.226822e+000
1.095276e+003,4.700455e+000
1.096241e+003,4.827454e+000
1.097205e+003,4.648514e+000
1.098169e+003,3.715408e+000
1.099133e+003,3.183121e+000
1.100098e+003,3.937134e+000
1.101062e+003,4.885849e+000
1.102026e+003,5.390182e+000
1.102990e+003,5.517288e+000
1.103955e+003,5.633270e+000
1.104919e+003,5.934875e+000
1.105883e+003,6.181229e+000
1.106847e+003,5.761673e+000
1.107812e+003,4.683243e+000
1.108776e+003,4.888321e+000
1.109740e+003,7.474197e+000
1.110704e+003,9.244476e+000
1.111668e+003,6.592728e+000
1.112633e+003,1.115326e+000
1.113597e+003,1.101074e-001
1.114561e+003,6.839386e+000
1.115525e+003,1.168504e+001
1.116490e+003,1.016406e+001
1.117454e+003,7.477066e+000
1.118418e+003,6.693375e+000
1.119382e+003,7.866806e+000
1.120347e+003,9.832367e+000
1.121311e+003,1.176984e+001
1.122275e+003,1.325650e+001
1.123239e+003,1.378641e+001
1.124203e+003,1.348109e+001
1.125168e+003,1.216928e+001
1.126132e+003,9.233017e+000
1.127096e+003,6.955276e+000
1.128060e+003,7.362915e+000
1.129025e+003,9.870270e+000
1.129989e+003,1.186774e+001
1.130953e+003,1.283574e+001
1.131917e+003,1.398289e+001
1.132882e+003,1.621555e+001
1.133846e+003,1.825365e+001
1.134810e+003,1.920975e+001
1.135774e+003,1.933740e+001
1.136739e+003,1.931799e+001
1.137703e+003,1.953569e+001
1.138667e+003,1.992569e+001
1.139631e+003,2.024835e+001
1.140595e+003,2.065605e+001
1.141560e+003,2.232887e+001
1.142524e+003,2.564236e+001
1.143488e+003,2.944403e+001
1.144452e+003,3.260213e+001
1.145417e+003,3.556897e+001
1.146381e+003,4.008989e+001
1.147345e+003,4.659770e+001
1.148309e+003,5.357567e+001
1.149274e+003,6.154301e+001
1.150238e+003,6.907307e+001
1.151202e+003,7.496077e+001
1.152166e+003,8.011174e+001
1.153130e+003,8.665027e+001
1.154095e+003,9.524811e+001
1.155059e+003,1.031644e+002
1.156023e+003,1.063950e+002
1.156987e+003,1.054668e+002
1.157952e+003,1.054323e+002
1.158916e+003,1.067354e+002
1.159880e+003,1.078886e+002
1.160844e+003,1.089039e+002
1.161809e+003,1.085492e+002
1.162773e+003,1.039706e+002
1.163737e+003,9.429834e+001
1.164701e+003,8.439679e+001
1.165666e+003,7.529088e+001
1.166630e+003,6.656053e+001
1.167594e+003,5.724190e+001
1.168558e+003,4.851570e+001
1.169522e+003,4.179741e+001
1.170487e+003,3.759853e+001
1.171451e+003,3.601360e+001
1.172415e+003,3.759938e+001
1.173379e+003,4.126920e+001
1.174344e+003,4.073798e+001
1.175308e+003,3.573302e+001
1.176272e+003,3.265160e+001
1.177236e+003,3.512842e+001
1.178201e+003,3.939912e+001
1.179165e+003,4.051770e+001
1.180129e+003,3.836664e+001
1.181093e+003,3.591769e+001
1.182057e+003,3.362956e+001
1.183022e+003,3.142960e+001
1.183986e+003,2.902927e+001
1.184950e+003,2.687650e+001
1.185914e+003,2.548242e+001
1.186879e+003,2.485396e+001
1.187843e+003,2.458356e+001
1.188807e+003,2.429646e+001
1.189771e+003,2.412259e+001
1.190736e+003,2.476654e+001
1.191700e+003,2.636235e+001
1.192664e+003,2.711678e+001
1.193628e+003,2.612376e+001
1.194593e+003,2.539882e+001
1.195557e+003,2.702364e+001
1.196521e+003,3.007370e+001
1.197485e+003,3.118080e+001
1.198449e+003,2.936772e+001
1.199414e+003,2.718530e+001
1.200378e+003,2.578412e+001
1.201342e+003,2.442421e+001
1.202306e+003,2.234460e+001
1.203271e+003,1.990912e+001
1.204235e+003,1.809123e+001
1.205199e+003,1.733534e+001
1.206163e+003,1.691853e+001
1.207128e+003,1.552687e+001
1.208092e+003,1.308572e+001
1.209056e+003,1.197881e+001
1.210020e+003,1.297929e+001
1.210984e+003,1.354370e+001
1.211949e+003,1.283971e+001
1.212913e+003,1.133006e+001
1.213877e+003,9.538589e+000
1.214841e+003,7.554642e+000
1.215806e+003,5.573990e+000
1.216770e+003,3.670670e+000
1.217734e+003,1.711639e+000
1.218698e+003,-7.082062e-001
1.219663e+003,-3.149475e+000
1.220627e+003,-4.978363e+000
1.221591e+003,-6.141754e+000
1.222555e+003,-7.167419e+000
1.223520e+003,-8.541748e+000
1.224484e+003,-9.999542e+000
1.225448e+003,-1.049188e+001
1.226412e+003,-9.690872e+000
1.227376e+003,-8.568680e+000
1.228341e+003,-6.411163e+000
1.229305e+003,-4.815674e+000
1.230269e+003,-4.835251e+000
1.231233e+003,-5.995468e+000
1.232198e+003,-7.406464e+000
1.233162e+003,-8.826065e+000
1.234126e+003,-9.889084e+000
1.235090e+003,-1.028656e+001
1.236055e+003,-1.036050e+001
1.237019e+003,-1.048911e+001
1.237983e+003,-1.063826e+001
1.238947e+003,-1.058051e+001
1.239911e+003,-1.017091e+001
1.240876e+003,-9.514740e+000
1.241840e+003,-8.789490e+000
1.242804e+003,-7.974472e+000
1.243768e+003,-7.361359e+000
1.244733e+003,-7.141556e+000
1.245697e+003,-6.873718e+000
1.246661e+003,-6.651489e+000
1.247625e+003,-6.460434e+000
1.248590e+003,-6.033493e+000
1.249554e+003,-5.498062e+000
1.250518e+003,-5.410339e+000
1.251482e+003,-6.103821e+000
1.252447e+003,-7.187698e+000
1.253411e+003,-8.615417e+000
1.254375e+003,-9.691727e+000
1.255339e+003,-8.712921e+000
1.256303e+003,-5.672440e+000
1.257268e+003,-2.796585e+000
1.258232e+003,-1.398239e+000
1.259196e+003,-1.093521e+000
1.260160e+003,-9.591522e-001
1.261125e+003,-8.678131e-001
1.262089e+003,-1.141373e+000
1.263053e+003,-3.116348e+000
1.264017e+003,-3.977310e+000
1.264982e+003,-1.627853e+000
1.265946e+003,1.137085e+000
1.266910e+003,1.130035e+000
1.267874e+003,-1.212601e+000
1.268839e+003,-2.544724e+000
1.269803e+003,-6.119995e-001
1.270767e+003,2.424362e+000
1.271731e+003,2.123032e+000
1.272695e+003,-1.354523e+000
1.273660e+003,-3.275040e+000
1.274624e+003,-3.342422e+000
1.275588e+003,-2.796570e+000
1.276552e+003,-1.853531e+000
1.277517e+003,-7.287292e-001
1.278481e+003,2.494049e-001
1.279445e+003,1.092575e+000
1.280409e+003,7.923279e-001
1.281374e+003,-2.415436e+000
1.282338e+003,-4.832489e+000
1.283302e+003,-3.589066e+000
1.284266e+003,-1.204102e+000
1.285230e+003,-6.265869e-001
1.286195e+003,-2.177765e+000
1.287159e+003,-4.216980e+000
1.288123e+003,-5.354218e+000
1.289087e+003,-5.753235e+000
1.290052e+003,-6.102249e+000
1.291016e+003,-6.448029e+000
1.291980e+003,-6.892456e+000
1.292944e+003,-7.646713e+000
1.293909e+003,-8.402573e+000
1.294873e+003,-9.325500e+000
1.295837e+003,-9.865677e+000
1.296801e+003,-8.782120e+000
1.297766e+003,-6.142715e+000
1.298730e+003,-4.580856e+000
1.299694e+003,-5.942383e+000
1.300658e+003,-8.209320e+000
1.301622e+003,-9.504837e+000
1.302587e+003,-9.926147e+000
1.303551e+003,-9.194626e+000
1.304515e+003,-7.402863e+000
1.305479e+003,-6.020966e+000
1.306444e+003,-6.423309e+000
1.307408e+003,-7.999893e+000
1.308372e+003,-8.497284e+000
1.309336e+003,-7.559570e+000
1.310301e+003,-6.647217e+000
1.311265e+003,-5.249023e+000
1.312229e+003,-4.490372e+000
1.313193e+003,-5.206100e+000
1.314157e+003,-6.447479e+000
1.315122e+003,-7.361816e+000
1.316086e+003,-7.773087e+000
1.317050e+003,-7.714417e+000
1.318014e+003,-7.105331e+000
1.318979e+003,-6.476547e+000
1.319943e+003,-7.052612e+000
1.320907e+003,-8.596909e+000
1.321871e+003,-9.302689e+000
1.322836e+003,-9.064163e+000
1.323800e+003,-8.613129e+000
1.324764e+003,-8.167572e+000
1.325728e+003,-7.794937e+000
1.326693e+003,-7.743301e+000
1.327657e+003,-8.081650e+000
1.328621e+003,-8.278946e+000
1.329585e+003,-8.113708e+000
1.330549e+003,-7.318390e+000
1.331514e+003,-5.163498e+000
1.332478e+003,-3.277847e+000
1.333442e+003,-3.667175e+000
1.334406e+003,-5.762131e+000
1.335371e+003,-7.187943e+000
1.336335e+003,-6.533386e+000
1.337299e+003,-4.917313e+000
1.338263e+003,-4.510605e+000
1.339228e+003,-5.460419e+000
1.340192e+003,-6.207474e+000
1.341156e+003,-6.884567e+000
1.342120e+003,-7.200012e+000
1.343084e+003,-6.854019e+000
1.344049e+003,-6.538849e+000
1.345013e+003,-7.005508e+000
1.345977e+003,-7.849625e+000
1.346941e+003,-7.754776e+000
1.347906e+003,-6.194290e+000
1.348870e+003,-4.692307e+000
1.349834e+003,-5.048218e+000
1.350798e+003,-6.143448e+000
1.351763e+003,-5.061157e+000
1.352727e+003,-2.368271e+000
1.353691e+003,-1.988739e+000
1.354655e+003,-5.994156e+000
1.355620e+003,-1.041092e+001
1.356584e+003,-9.902176e+000
1.357548e+003,-5.126709e+000
1.358512e+003,-2.366837e+000
1.359476e+003,-2.369461e+000
1.360441e+003,-3.331192e+000
1.361405e+003,-6.395325e+000
1.362369e+003,-8.461777e+000
1.363333e+003,-7.005173e+000
1.364298e+003,-4.054443e+000
1.365262e+003,-2.525497e+000
1.366226e+003,-3.078033e+000
1.367190e+003,-4.292999e+000
1.368155e+003,-4.912323e+000
1.369119e+003,-5.155716e+000
1.370083e+003,-5.733582e+000
1.371047e+003,-6.879593e+000
1.372011e+003,-6.977585e+000
1.372976e+003,-5.530518e+000
1.373940e+003,-3.974823e+000
1.374904e+003,-2.520218e+000
1.375868e+003,-1.355057e+000
1.376833e+003,-8.253937e-001
1.377797e+003,-9.264069e-001
1.378761e+003,-1.296707e+000
1.379725e+003,-1.829483e+000
1.380690e+003,-2.351852e+000
1.381654e+003,-2.931778e+000
1.382618e+003,-3.206650e+000
1.383582e+003,-2.136139e+000
1.384547e+003,-1.065063e-002
1.385511e+003,8.322601e-001
1.386475e+003,-1.109833e+000
1.387439e+003,-3.914047e+000
1.388403e+003,-4.413727e+000
1.389368e+003,-2.628006e+000
1.390332e+003,-1.630264e+000
1.391296e+003,-1.824295e+000
1.392260e+003,-2.025665e+000
1.393225e+003,-2.334549e+000
1.394189e+003,-2.249344e+000
1.395153e+003,-7.429504e-001
1.396117e+003,1.035263e+000
1.397082e+003,1.069427e+000
1.398046e+003,-8.711395e-001
1.399010e+003,-2.952499e+000
1.399974e+003,-3.556946e+000
1.400938e+003,-3.158615e+000
1.401903e+003,-2.900558e+000
1.402867e+003,-2.595795e+000
1.403831e+003,-1.958176e+000
1.404795e+003,-8.011017e-001
1.405760e+003,1.654510e-001
1.406724e+003,2.621613e-001
1.407688e+003,-1.998901e-003
1.408652e+003,4.923553e-001
1.409617e+003,1.618637e+000
1.410581e+003,1.743347e+000
1.411545e+003,1.040802e-001
1.412509e+003,-2.105270e+000
1.413474e+003,-4.669830e+000
1.414438e+003,-6.566986e+000
1.415402e+003,-5.156693e+000
1.416366e+003,-9.875641e-001
1.417330e+003,1.943497e+000
1.418295e+003,1.934555e+000
1.419259e+003,7.697601e-001
1.420223e+003,3.409882e-001
1.421187e+003,4.532013e-001
1.422152e+003,2.729187e-001
1.423116e+003,-1.891327e-001
1.424080e+003,-6.524963e-001
1.425044e+003,-1.227951e+000
1.426009e+003,-1.798737e+000
1.426973e+003,-2.908813e+000
1.427937e+003,-3.634430e+000
1.428901e+003,-2.479126e+000
1.429865e+003,3.470917e-001
1.430830e+003,3.354248e+000
1.431794e+003,5.474197e+000
1.432758e+003,6.325180e+000
1.433722e+003,5.094162e+000
1.434687e+003,1.614471e+000
1.435651e+003,2.488556e-001
1.436615e+003,2.602875e+000
1.437579e+003,3.945786e+000
1.438544e+003,3.378265e+000
1.439508e+003,2.289383e+000
1.440472e+003,1.453018e+000
1.441436e+003,9.691162e-001
1.442401e+003,8.541412e-001
1.443365e+003,1.022293e+000
1.444329e+003,1.033005e+000
1.445293e+003,4.993896e-001
1.446257e+003,-6.687927e-002
1.447222e+003,4.179688e-001
1.448186e+003,1.718155e+000
1.449150e+003,2.564468e+000
1.450114e+003,2.685654e+000
1.451079e+003,2.875183e+000
1.452043e+003,3.787628e+000
1.453007e+003,4.955521e+000
1.453971e+003,6.022690e+000
1.454936e+003,6.769348e+000
1.455900e+003,5.521255e+000
1.456864e+003,1.003433e+000
1.457828e+003,-2.034821e+000
1.458792e+003,9.250336e-001
1.459757e+003,4.778946e+000
1.460721e+003,4.940033e+000
1.461685e+003,2.894119e+000
1.462649e+003,2.252090e+000
1.463614e+003,3.876328e+000
1.464578e+003,5.412964e+000
1.465542e+003,4.698135e+000
1.466506e+003,2.404694e+000
1.467471e+003,5.270996e-001
1.468435e+003,-8.444519e-001
1.469399e+003,-1.691711e+000
1.470363e+003,-2.251236e+000
1.471328e+003,-2.126526e+000
1.472292e+003,-5.651398e-001
1.473256e+003,8.533936e-001
1.474220e+003,7.230988e-001
1.475184e+003,-1.117859e-001
1.476149e+003,1.298676e-001
1.477113e+003,1.837036e+000
1.478077e+003,3.728897e+000
1.479041e+003,4.655746e+000
1.480006e+003,4.827866e+000
1.480970e+003,4.637238e+000
1.481934e+003,3.706543e+000
1.482898e+003,3.600372e+000
1.483863e+003,4.764236e+000
1.484827e+003,5.974319e+000
1.485791e+003,7.140564e+000
1.486755e+003,8.198425e+000
1.487719e+003,8.964523e+000
1.488684e+003,9.476761e+000
1.489648e+003,9.957642e+000
1.490612e+003,1.053189e+001
1.491576e+003,1.116949e+001
1.492541e+003,1.178651e+001
1.493505e+003,1.241422e+001
1.494469e+003,1.318600e+001
1.495433e+003,1.396382e+001
1.496398e+003,1.458295e+001
1.497362e+003,1.512251e+001
1.498326e+003,1.576968e+001
1.499290e+003,1.611206e+001
1.500255e+003,1.693773e+001
1.501219e+003,1.982651e+001
1.502183e+003,2.429195e+001
1.503147e+003,2.729059e+001
1.504111e+003,2.770343e+001
1.505076e+003,2.901512e+001
1.506040e+003,3.385947e+001
1.507004e+003,3.994922e+001
1.507968e+003,4.503877e+001
1.508933e+003,4.953389e+001
1.509897e+003,5.415347e+001
1.510861e+003,5.925270e+001
1.511825e+003,6.527628e+001
1.512790e+003,7.254990e+001
1.513754e+003,8.053735e+001
1.514718e+003,8.815656e+001
1.515682e+003,9.530649e+001
1.516646e+003,1.040105e+002
1.517611e+003,1.154330e+002
1.518575e+003,1.262725e+002
1.519539e+003,1.359624e+002
1.520503e+003,1.445525e+002
1.521468e+003,1.521752e+002
1.522432e+003,1.585603e+002
1.523396e+003,1.637981e+002
1.524360e+003,1.674889e+002
1.525325e+003,1.683865e+002
1.526289e+003,1.656865e+002
1.527253e+003,1.606650e+002
1.528217e+003,1.554578e+002
1.529182e+003,1.501670e+002
1.530146e+003,1.446799e+002
1.531110e+003,1.403356e+002
1.532074e+003,1.329194e+002
1.533039e+003,1.207239e+002
1.534003e+003,1.069125e+002
1.534967e+003,9.109860e+001
1.535931e+003,7.612720e+001
1.536896e+003,6.590466e+001
1.537860e+003,5.953906e+001
1.538824e+003,5.211945e+001
1.539788e+003,4.123067e+001
1.540752e+003,3.034521e+001
1.541717e+003,2.402196e+001
1.542681e+003,2.181793e+001
1.543645e+003,2.030457e+001
1.544609e+003,2.002966e+001
1.545573e+003,1.935538e+001
1.546538e+003,1.793285e+001
1.547502e+003,1.626950e+001
1.548466e+003,1.403897e+001
1.549430e+003,1.233774e+001
1.550395e+003,1.264658e+001
1.551359e+003,1.428316e+001
1.552323e+003,1.524901e+001
1.553287e+003,1.486580e+001
1.554252e+003,1.396138e+001
1.555216e+003,1.318636e+001
1.556180e+003,1.252345e+001
1.557144e+003,1.202501e+001
1.558109e+003,1.173743e+001
1.559073e+003,1.104807e+001
1.560037e+003,9.570618e+000
1.561001e+003,8.139755e+000
1.561966e+003,7.179291e+000
1.562930e+003,6.520950e+000
1.563894e+003,5.615219e+000
1.564858e+003,4.837723e+000
1.565823e+003,5.703278e+000
1.566787e+003,8.307571e+000
1.567751e+003,9.520752e+000
1.568715e+003,7.120193e+000
1.569679e+003,4.185760e+000
1.570644e+003,5.004044e+000
1.571608e+003,8.104111e+000
1.572572e+003,9.261398e+000
1.573536e+003,8.389862e+000
1.574500e+003,7.597015e+000
1.575465e+003,7.489090e+000
1.576429e+003,7.688797e+000
1.577393e+003,8.070374e+000
1.578357e+003,8.409012e+000
1.579322e+003,8.217270e+000
1.580286e+003,7.554520e+000
1.581250e+003,7.136017e+000
1.582214e+003,7.153534e+000
1.583179e+003,7.535492e+000
1.584143e+003,8.319580e+000
1.585107e+003,9.265320e+000
1.586071e+003,1.042587e+001
1.587036e+003,1.167880e+001
1.588000e+003,1.220085e+001
1.588964e+003,1.171266e+001
1.589928e+003,1.090424e+001
1.590893e+003,9.903915e+000
1.591857e+003,9.194092e+000
1.592821e+003,9.862701e+000
1.593785e+003,1.160518e+001
1.594750e+003,1.232880e+001
1.595714e+003,1.149193e+001
1.596678e+003,1.126573e+001
1.597642e+003,1.310570e+001
1.598606e+003,1.497112e+001
1.599571e+003,1.499521e+001
1.600535e+003,1.428943e+001
1.601499e+003,1.438336e+001
1.602463e+003,1.515147e+001
1.603427e+003,1.531894e+001
1.604392e+003,1.430855e+001
1.605356e+003,1.311613e+001
1.606320e+003,1.249088e+001
1.607284e+003,1.255063e+001
1.608249e+003,1.404050e+001
1.609213e+003,1.703906e+001
1.610177e+003,1.882181e+001
1.611141e+003,1.886266e+001
1.612106e+003,1.786987e+001
1.613070e+003,1.491406e+001
1.614034e+003,1.218123e+001
1.614998e+003,1.168817e+001
1.615963e+003,1.236295e+001
1.616927e+003,1.209724e+001
1.617891e+003,1.070576e+001
1.618855e+003,9.817474e+000
1.619820e+003,1.036598e+001
1.620784e+003,1.167987e+001
1.621748e+003,1.351256e+001
1.622712e+003,1.568584e+001
1.623677e+003,1.576183e+001
1.624641e+003,1.322333e+001
1.625605e+003,1.165199e+001
1.626569e+003,1.192368e+001
1.627533e+003,1.255875e+001
1.628498e+003,1.315607e+001
1.629462e+003,1.374210e+001
1.630426e+003,1.451321e+001
1.631390e+003,1.519241e+001
1.632354e+003,1.518800e+001
1.633319e+003,1.438107e+001
1.634283e+003,1.316844e+001
1.635247e+003,1.172789e+001
1.636211e+003,1.033917e+001
1.637176e+003,9.473679e+000
1.638140e+003,9.183762e+000
1.639104e+003,9.598785e+000
1.640068e+003,1.076619e+001
1.641033e+003,1.237314e+001
1.641997e+003,1.559309e+001
1.642961e+003,1.752872e+001
1.643925e+003,1.558199e+001
1.644890e+003,1.272478e+001
1.645854e+003,1.170074e+001
1.646818e+003,1.231870e+001
1.647782e+003,1.357771e+001
1.648747e+003,1.505734e+001
1.649711e+003,1.616861e+001
1.650675e+003,1.647752e+001
1.651639e+003,1.622614e+001
1.652604e+003,1.573587e+001
1.653568e+003,1.495309e+001
1.654532e+003,1.375206e+001
1.655496e+003,1.163287e+001
1.656460e+003,1.097424e+001
1.657425e+003,1.430644e+001
1.658389e+003,1.681291e+001
1.659353e+003,1.482878e+001
1.660317e+003,1.155951e+001
1.661281e+003,1.041043e+001
1.662246e+003,1.106862e+001
1.663210e+003,1.172084e+001
1.664174e+003,1.177960e+001
1.665138e+003,1.154417e+001
1.666103e+003,1.112497e+001
1.667067e+003,1.067575e+001
1.668031e+003,1.075461e+001
1.668995e+003,1.130829e+001
1.669960e+003,1.104309e+001
1.670924e+003,9.615021e+000
1.671888e+003,8.572556e+000
1.672852e+003,8.442719e+000
1.673817e+003,8.630417e+000
1.674781e+003,8.918640e+000
1.675745e+003,9.168167e+000
1.676709e+003,9.049515e+000
1.677674e+003,8.753922e+000
1.678638e+003,9.110916e+000
1.679602e+003,1.036139e+001
1.680566e+003,1.104266e+001
1.681531e+003,9.784973e+000
1.682495e+003,7.742462e+000
1.683459e+003,6.814117e+000
1.684423e+003,6.764984e+000
1.685387e+003,6.514343e+000
1.686352e+003,6.026001e+000
1.687316e+003,5.075073e+000
1.688280e+003,3.120148e+000
1.689244e+003,1.554443e+000
1.690208e+003,1.563431e+000
1.691173e+003,2.376968e+000
1.692137e+003,3.823990e+000
1.693101e+003,5.457977e+000
1.694065e+003,5.467422e+000
1.695030e+003,3.247009e+000
1.695994e+003,1.475998e+000
1.696958e+003,2.225967e+000
1.697922e+003,3.856400e+000
1.698887e+003,4.336609e+000
1.699851e+003,4.039154e+000
1.700815e+003,4.137268e+000
1.701779e+003,4.664490e+000
1.702744e+003,4.344559e+000
1.703708e+003,2.493668e+000
1.704672e+003,1.351959e+000
1.705636e+003,2.959244e+000
1.706601e+003,5.485443e+000
1.707565e+003,6.516296e+000
1.708529e+003,6.380554e+000
1.709493e+003,5.655014e+000
1.710458e+003,4.298798e+000
1.711422e+003,3.223831e+000
1.712386e+003,3.325058e+000
1.713350e+003,3.362198e+000
1.714314e+003,1.764435e+000
1.715279e+003,-3.979340e-001
1.716243e+003,-1.144653e+000
1.717207e+003,-5.796051e-001
1.718171e+003,-1.742554e-002
1.719135e+003,1.963501e-001
1.720100e+003,3.156433e-001
1.721064e+003,4.334564e-001
1.722028e+003,6.128540e-001
1.722992e+003,1.159363e+000
1.723957e+003,2.007248e+000
1.724921e+003,2.058945e+000
1.725885e+003,9.033966e-001
1.726849e+003,5.443268e-001
1.727814e+003,2.481140e+000
1.728778e+003,4.001022e+000
1.729742e+003,3.423553e+000
1.730706e+003,2.310547e+000
1.731671e+003,2.290405e+000
1.732635e+003,2.733505e+000
1.733599e+003,2.178314e+000
1.734563e+003,6.010742e-001
1.735528e+003,-9.813538e-001
1.736492e+003,-2.072327e+000
1.737456e+003,-2.197433e+000
1.738420e+003,-6.506195e-001
1.739385e+003,1.955032e+000
1.740349e+003,3.691864e+000
1.741313e+003,4.700806e+000
1.742277e+003,4.435028e+000
1.743241e+003,1.978210e+000
1.744206e+003,-6.352234e-002
1.745170e+003,-1.710281e+000
1.746134e+003,-2.571259e+000
1.747098e+003,-2.009293e+000
1.748063e+003,-8.842010e-001
1.749027e+003,-1.072693e-002
1.749991e+003,5.141449e-001
1.750955e+003,8.870697e-001
1.751919e+003,1.142227e+000
1.752884e+003,1.029327e+000
1.753848e+003,3.272400e-001
1.754812e+003,-5.127563e-001
1.755776e+003,-3.994293e-001
1.756741e+003,6.895294e-001
1.757705e+003,6.310272e-001
1.758669e+003,-1.417877e+000
1.759633e+003,-2.333740e+000
1.760598e+003,-7.811432e-001
1.761562e+003,3.185577e-001
1.762526e+003,-6.427002e-002
1.763490e+003,-8.383331e-001
1.764455e+003,-1.405563e+000
1.765419e+003,-1.727936e+000
1.766383e+003,-2.000427e+000
1.767347e+003,-2.201080e+000
1.768312e+003,-1.807129e+000
1.769276e+003,-5.745697e-001
1.770240e+003,3.207855e-001
1.771204e+003,-5.317688e-001
1.772168e+003,-2.126541e+000
1.773133e+003,-2.316589e+000
1.774097e+003,-1.220245e+000
1.775061e+003,2.679596e-001
1.776025e+003,2.183456e+000
1.776990e+003,2.782608e+000
1.777954e+003,1.107483e+000
1.778918e+003,-8.762665e-001
1.779882e+003,-2.307938e+000
1.780846e+003,-2.971298e+000
1.781811e+003,-2.111191e+000
1.782775e+003,-2.082977e-001
1.783739e+003,1.163849e+000
1.784703e+003,1.833923e+000
1.785668e+003,1.793411e+000
1.786632e+003,1.687012e-001
1.787596e+003,-1.229446e+000
1.788560e+003,-4.436646e-001
1.789525e+003,1.157288e+000
1.790489e+003,1.423843e+000
1.791453e+003,6.343231e-001
1.792417e+003,3.517609e-001
1.793382e+003,8.369446e-001
1.794346e+003,8.353271e-001
1.795310e+003,-3.861542e-001
1.796274e+003,-1.698914e+000
1.797239e+003,-1.751724e+000
1.798203e+003,-7.429962e-001
1.799167e+003,5.138855e-001
1.800131e+003,2.115387e+000
1.801095e+003,1.979385e+000
1.802060e+003,-1.727646e+000
1.803024e+003,-3.711594e+000
1.803988e+003,-2.718994e+000
1.804952e+003,-9.619446e-001
1.805917e+003,1.576263e+000
1.806881e+003,3.472809e+000
1.807845e+003,2.565186e+000
1.808809e+003,3.237305e-001
1.809773e+003,9.626770e-002
1.810738e+003,2.288757e+000
1.811702e+003,4.349991e+000
1.812666e+003,4.660126e+000
1.813630e+003,3.760162e+000
1.814595e+003,2.218689e+000
1.815559e+003,2.611084e-001
1.816523e+003,-1.083191e+000
1.817487e+003,-1.771973e+000
1.818452e+003,-1.953186e+000
1.819416e+003,-1.337830e+000
1.820380e+003,-8.612213e-001
1.821344e+003,-1.210373e+000
1.822309e+003,-1.313293e+000
1.823273e+003,-6.764221e-002
1.824237e+003,1.479202e+000
1.825201e+003,2.053848e+000
1.826166e+003,1.986328e+000
1.827130e+003,2.519791e+000
1.828094e+003,3.800522e+000
1.829058e+003,4.320572e+000
1.830022e+003,3.040527e+000
1.830987e+003,1.649017e+000
1.831951e+003,1.583969e+000
1.832915e+003,2.228104e+000
1.833879e+003,3.034393e+000
1.834844e+003,3.698471e+000
1.835808e+003,3.181717e+000
1.836772e+003,1.528748e+000
1.837736e+003,6.873932e-001
1.838700e+003,1.520187e+000
1.839665e+003,1.738113e+000
1.840629e+003,-1.051285e+000
1.841593e+003,-4.798981e+000
1.842557e+003,-5.080627e+000
1.843522e+003,-1.956009e+000
1.844486e+003,3.815918e-001
1.845450e+003,1.974030e+000
1.846414e+003,2.858414e+000
1.847379e+003,2.400604e+000
1.848343e+003,1.808899e+000
1.849307e+003,1.594131e+000
1.850271e+003,1.301697e+000
1.851236e+003,2.096405e-001
1.852200e+003,-8.502045e-001
1.853164e+003,-4.850769e-001
1.854128e+003,8.586731e-001
1.855093e+003,1.394531e+000
1.856057e+003,6.112976e-001
1.857021e+003,-1.072083e-001
1.857985e+003,3.905182e-001
1.858949e+003,1.318558e+000
1.859914e+003,1.169937e+000
1.860878e+003,2.615509e-001
1.861842e+003,3.452759e-001
1.862806e+003,1.422699e+000
1.863771e+003,2.454895e+000
1.864735e+003,3.289032e+000
1.865699e+003,3.830017e+000
1.866663e+003,4.069168e+000
1.867627e+003,4.109390e+000
1.868592e+003,3.956894e+000
1.869556e+003,3.541672e+000
1.870520e+003,2.916626e+000
1.871484e+003,2.071426e+000
1.872449e+003,8.234406e-001
1.873413e+003,-9.901123e-001
1.874377e+003,-1.668900e+000
1.875341e+003,-5.948029e-001
1.876306e+003,1.118240e+000
1.877270e+003,4.009644e+000
1.878234e+003,6.178909e+000
1.879198e+003,4.684540e+000
1.880163e+003,1.602066e+000
1.881127e+003,1.195435e+000
1.882091e+003,3.422729e+000
1.883055e+003,4.926010e+000
1.884020e+003,4.333237e+000
1.884984e+003,3.366486e+000
1.885948e+003,3.612991e+000
1.886912e+003,4.296097e+000
1.887876e+003,3.700333e+000
1.888841e+003,2.040100e+000
1.889805e+003,2.085144e+000
1.890769e+003,4.298416e+000
1.891733e+003,5.725128e+000
1.892698e+003,5.931595e+000
1.893662e+003,5.518097e+000
1.894626e+003,4.081207e+000
1.895590e+003,2.937698e+000
1.896554e+003,3.364639e+000
1.897519e+003,4.400848e+000
1.898483e+003,4.869904e+000
1.899447e+003,4.801544e+000
1.900411e+003,4.806839e+000
1.901376e+003,5.041489e+000
1.902340e+003,4.863312e+000
1.903304e+003,3.636856e+000
1.904268e+003,2.525024e+000
1.905233e+003,2.174225e+000
1.906197e+003,2.400543e+000
1.907161e+003,3.567352e+000
1.908125e+003,4.924377e+000
1.909090e+003,4.928680e+000
1.910054e+003,3.692825e+000
1.911018e+003,2.442429e+000
1.911982e+003,1.712509e+000
1.912947e+003,1.441727e+000
1.913911e+003,1.554184e+000
1.914875e+003,2.395889e+000
1.915839e+003,4.632797e+000
1.916803e+003,7.730957e+000
1.917768e+003,9.266586e+000
1.918732e+003,9.111435e+000
1.919696e+003,8.598526e+000
1.920660e+003,7.542496e+000
1.921625e+003,6.922226e+000
1.922589e+003,7.349426e+000
1.923553e+003,7.468582e+000
1.924517e+003,5.768631e+000
1.925481e+003,4.198303e+000
1.926446e+003,5.182236e+000
1.927410e+003,7.274124e+000
1.928374e+003,7.277130e+000
1.929338e+003,5.114212e+000
1.930303e+003,3.699707e+000
1.931267e+003,4.100418e+000
1.932231e+003,4.611969e+000
1.933195e+003,4.282227e+000
1.934160e+003,3.830368e+000
1.935124e+003,3.923401e+000
1.936088e+003,4.025818e+000
1.937052e+003,3.171082e+000
1.938017e+003,2.032883e+000
1.938981e+003,2.490540e+000
1.939945e+003,4.324203e+000
1.940909e+003,4.846298e+000
1.941874e+003,3.010193e+000
1.942838e+003,1.551117e+000
1.943802e+003,3.164490e+000
1.944766e+003,6.194122e+000
1.945730e+003,7.060974e+000
1.946695e+003,6.019669e+000
1.947659e+003,5.689804e+000
1.948623e+003,6.119568e+000
1.949587e+003,6.502457e+000
1.950552e+003,6.904877e+000
1.951516e+003,6.750046e+000
1.952480e+003,5.363312e+000
1.953444e+003,4.430161e+000
1.954408e+003,5.595108e+000
1.955373e+003,7.283554e+000
1.956337e+003,7.083908e+000
1.957301e+003,5.733963e+000
1.958265e+003,5.782974e+000
1.959230e+003,7.583649e+000
1.960194e+003,8.291214e+000
1.961158e+003,6.233154e+000
1.962122e+003,4.722427e+000
1.963087e+003,5.212860e+000
1.964051e+003,5.775558e+000
1.965015e+003,4.879807e+000
1.965979e+003,4.057419e+000
1.966944e+003,5.224197e+000
1.967908e+003,7.376678e+000
1.968872e+003,8.623749e+000
1.969836e+003,8.715790e+000
1.970801e+003,8.358871e+000
1.971765e+003,7.911133e+000
1.972729e+003,7.583023e+000
1.973693e+003,7.549438e+000
1.974657e+003,7.702698e+000
1.975622e+003,8.107346e+000
1.976586e+003,8.432220e+000
1.977550e+003,7.247330e+000
1.978514e+003,5.133026e+000
1.979479e+003,5.914764e+000
1.980443e+003,9.859589e+000
1.981407e+003,1.170421e+001
1.982371e+003,9.429062e+000
1.983335e+003,6.718826e+000
1.984300e+003,6.261490e+000
1.985264e+003,6.914368e+000
1.986228e+003,7.007492e+000
1.987192e+003,6.714859e+000
1.988157e+003,6.970108e+000
1.989121e+003,7.918564e+000
1.990085e+003,8.849701e+000
1.991049e+003,9.850677e+000
1.992014e+003,1.077069e+001
1.992978e+003,1.214305e+001
1.993942e+003,1.255894e+001
1.994906e+003,1.035770e+001
1.995871e+003,8.259125e+000
1.996835e+003,8.885468e+000
1.997799e+003,1.056343e+001
1.998763e+003,1.050107e+001
1.999728e+003,8.958420e+000
