5.003444e+002,3.815070e+001
5.013087e+002,3.969096e+001
5.022729e+002,3.942816e+001
5.032371e+002,3.769177e+001
5.042014e+002,3.517155e+001
5.051656e+002,3.210036e+001
5.061298e+002,2.970595e+001
5.070941e+002,2.914288e+001
5.080583e+002,3.074840e+001
5.090225e+002,3.197589e+001
5.099868e+002,3.348766e+001
5.109510e+002,3.413396e+001
5.119152e+002,3.290213e+001
5.128795e+002,2.963152e+001
5.138437e+002,2.691312e+001
5.148079e+002,2.535567e+001
5.157722e+002,2.480861e+001
5.167364e+002,2.591252e+001
5.177006e+002,2.824574e+001
5.186649e+002,3.025060e+001
5.196291e+002,2.977058e+001
5.205933e+002,2.828542e+001
5.215576e+002,2.708795e+001
5.225218e+002,2.629401e+001
5.234860e+002,2.576118e+001
5.244503e+002,2.538977e+001
5.254145e+002,2.545561e+001
5.263787e+002,2.515465e+001
5.273430e+002,2.414690e+001
5.283072e+002,2.300050e+001
5.292714e+002,2.249184e+001
5.302357e+002,2.280986e+001
5.311999e+002,2.298022e+001
5.321641e+002,2.308781e+001
5.331284e+002,2.318648e+001
5.340926e+002,2.320929e+001
5.350568e+002,2.305124e+001
5.360211e+002,2.283299e+001
5.369853e+002,2.287392e+001
5.379495e+002,2.306703e+001
5.389138e+002,2.348842e+001
5.398780e+002,2.403545e+001
5.408422e+002,2.429398e+001
5.418065e+002,2.266542e+001
5.427707e+002,1.951042e+001
5.437349e+002,1.757611e+001
5.446992e+002,1.781676e+001
5.456634e+002,1.958032e+001
5.466276e+002,2.062045e+001
5.475919e+002,2.052106e+001
5.485561e+002,2.015012e+001
5.495203e+002,1.918518e+001
5.504846e+002,1.798273e+001
5.514488e+002,1.707204e+001
5.524130e+002,1.671503e+001
5.533773e+002,1.675859e+001
5.543415e+002,1.737407e+001
5.553057e+002,1.810463e+001
5.562700e+002,1.840503e+001
5.572342e+002,1.792854e+001
5.581984e+002,1.703310e+001
5.591627e+002,1.671254e+001
5.601269e+002,1.682620e+001
5.610911e+002,1.701440e+001
5.620554e+002,1.708345e+001
5.630196e+002,1.693694e+001
5.639838e+002,1.611339e+001
5.649481e+002,1.370842e+001
5.659123e+002,1.195239e+001
5.668765e+002,1.167278e+001
5.678408e+002,1.249840e+001
5.688050e+002,1.319081e+001
5.697692e+002,1.332077e+001
5.707335e+002,1.302249e+001
5.716977e+002,1.236093e+001
5.726619e+002,1.143721e+001
5.736262e+002,1.021594e+001
5.745904e+002,8.568054e+000
5.755546e+002,7.216522e+000
5.765189e+002,7.163925e+000
5.774831e+002,7.908234e+000
5.784473e+002,8.914902e+000
5.794116e+002,9.866486e+000
5.803758e+002,1.079828e+001
5.813400e+002,1.089366e+001
5.823043e+002,9.709534e+000
5.832685e+002,8.620300e+000
5.842327e+002,8.462708e+000
5.851970e+002,9.103149e+000
5.861612e+002,9.104065e+000
5.871254e+002,6.845062e+000
5.880897e+002,5.350754e+000
5.890539e+002,5.324356e+000
5.900181e+002,6.352234e+000
5.909824e+002,7.861511e+000
5.919466e+002,9.882950e+000
5.929108e+002,1.149763e+001
5.938751e+002,1.192459e+001
5.948393e+002,1.144000e+001
5.958035e+002,1.030298e+001
5.967678e+002,8.739716e+000
5.977320e+002,6.947754e+000
5.986962e+002,6.157333e+000
5.996605e+002,6.180786e+000
6.006247e+002,6.287354e+000
6.015889e+002,6.291046e+000
6.025532e+002,6.189682e+000
6.035174e+002,5.747620e+000
6.044816e+002,3.935562e+000
6.054459e+002,2.993057e+000
6.064101e+002,3.585587e+000
6.073743e+002,5.208038e+000
6.083386e+002,7.167679e+000
6.093028e+002,9.771881e+000
6.102670e+002,1.121082e+001
6.112313e+002,9.483017e+000
6.121955e+002,6.267380e+000
6.131597e+002,3.741455e+000
6.141240e+002,3.385834e+000
6.150882e+002,4.603226e+000
6.160524e+002,4.901566e+000
6.170167e+002,4.507568e+000
6.179809e+002,4.349716e+000
6.189451e+002,4.813187e+000
6.199094e+002,5.762756e+000
6.208736e+002,6.610031e+000
6.218378e+002,7.839844e+000
6.228021e+002,8.616028e+000
6.237663e+002,8.906738e+000
6.247305e+002,8.728943e+000
6.256948e+002,7.915009e+000
6.266590e+002,5.872955e+000
6.276232e+002,4.092606e+000
6.285875e+002,3.384018e+000
6.295517e+002,3.525620e+000
6.305159e+002,4.626251e+000
6.314802e+002,6.598480e+000
6.324444e+002,8.626892e+000
6.334086e+002,8.095718e+000
6.343729e+002,5.910614e+000
6.353371e+002,3.883560e+000
6.363013e+002,2.499084e+000
6.372656e+002,1.810196e+000
6.382298e+002,2.157791e+000
6.391940e+002,5.232452e+000
6.401583e+002,7.002594e+000
6.411225e+002,7.363953e+000
6.420867e+002,6.725952e+000
6.430510e+002,5.133011e+000
6.440152e+002,1.955597e+000
6.449794e+002,-4.686890e-001
6.459437e+002,-5.108032e-001
6.469079e+002,2.203369e-001
6.478721e+002,6.161652e-001
6.488364e+002,2.785797e-001
6.498006e+002,-3.696442e-001
6.507648e+002,-8.273621e-001
6.517291e+002,-1.055420e+000
6.526933e+002,-6.236725e-001
6.536575e+002,5.983276e-001
6.546218e+002,1.928162e+000
6.555860e+002,1.971344e+000
6.565502e+002,-6.060333e-001
6.575145e+002,-1.522034e+000
6.584787e+002,4.904633e-001
6.594429e+002,2.937958e+000
6.604072e+002,3.759781e+000
6.613714e+002,2.534531e+000
6.623356e+002,1.296265e+000
6.632999e+002,1.142670e+000
6.642641e+002,9.605103e-001
6.652283e+002,-2.636719e-002
6.661926e+002,-1.598206e+000
6.671568e+002,-2.779800e+000
6.681210e+002,-2.343872e+000
6.690853e+002,-7.988434e-001
6.700495e+002,5.877380e-001
6.710137e+002,1.764984e+000
6.719780e+002,2.559052e+000
6.729422e+002,2.735825e+000
6.739064e+002,2.100983e+000
6.748707e+002,1.708008e+000
6.758349e+002,1.924286e+000
6.767991e+002,1.854263e+000
6.777634e+002,8.000946e-001
6.787276e+002,-9.259644e-001
6.796918e+002,-1.632126e+000
6.806561e+002,1.315308e-002
6.816203e+002,1.878540e+000
6.825845e+002,3.592972e+000
6.835488e+002,4.869110e+000
6.845130e+002,5.231186e+000
6.854772e+002,4.229630e+000
6.864415e+002,2.836197e+000
6.874057e+002,3.272186e+000
6.883699e+002,4.818680e+000
6.893342e+002,6.003387e+000
6.902984e+002,6.030273e+000
6.912626e+002,5.097519e+000
6.922269e+002,4.325455e+000
6.931911e+002,3.912964e+000
6.941553e+002,3.752808e+000
6.951196e+002,3.795364e+000
6.960838e+002,3.888779e+000
6.970480e+002,3.839523e+000
6.980123e+002,3.510757e+000
6.989765e+002,3.492584e+000
6.999407e+002,4.337082e+000
7.009050e+002,5.257599e+000
7.018692e+002,5.573273e+000
7.028334e+002,5.071335e+000
7.037977e+002,4.175644e+000
7.047619e+002,3.654984e+000
7.057261e+002,3.345093e+000
7.066904e+002,2.534683e+000
7.076546e+002,1.110382e+000
7.086188e+002,-2.566833e-001
7.095831e+002,-4.131927e-001
7.105473e+002,1.310760e+000
7.115115e+002,1.865341e+000
7.124758e+002,7.404327e-001
7.134400e+002,-8.424835e-001
7.144042e+002,-2.490860e+000
7.153685e+002,-4.069794e+000
7.163327e+002,-4.676376e+000
7.172969e+002,-2.477142e+000
7.182612e+002,-4.579315e-001
7.192254e+002,-3.722076e-001
7.201896e+002,-1.487885e+000
7.211539e+002,-2.016037e+000
7.221181e+002,-3.695984e-001
7.230823e+002,2.524277e+000
7.240466e+002,4.273819e+000
7.250108e+002,5.146255e+000
7.259750e+002,5.493912e+000
7.269393e+002,5.362366e+000
7.279035e+002,4.683289e+000
7.288677e+002,3.941116e+000
7.298320e+002,2.805328e+000
7.307962e+002,2.582428e+000
7.317604e+002,4.387421e+000
7.327247e+002,6.782471e+000
7.336889e+002,7.483551e+000
7.346531e+002,5.247223e+000
7.356174e+002,2.789459e+000
7.365816e+002,1.824249e+000
7.375458e+002,1.561371e+000
7.385101e+002,1.510864e+000
7.394743e+002,1.469788e+000
7.404385e+002,1.445908e+000
7.414028e+002,1.322632e+000
7.423670e+002,1.009094e+000
7.433312e+002,1.253098e+000
7.442955e+002,2.360199e+000
7.452597e+002,3.595062e+000
7.462239e+002,3.993500e+000
7.471882e+002,3.260406e+000
7.481524e+002,2.667267e+000
7.491166e+002,1.810394e+000
7.500809e+002,1.167831e+000
7.510451e+002,1.010620e+000
7.520093e+002,1.251373e+000
7.529736e+002,1.583664e+000
7.539378e+002,2.141907e+000
7.549020e+002,2.636414e+000
7.558663e+002,3.281601e+000
7.568306e+002,3.614182e+000
7.577948e+002,2.522949e+000
7.587590e+002,-5.434418e-001
7.597233e+002,-4.391769e+000
7.606875e+002,-4.786301e+000
7.616517e+002,-2.079132e+000
7.626160e+002,9.168091e-001
7.635802e+002,3.801163e+000
7.645444e+002,6.370697e+000
7.655087e+002,8.128784e+000
7.664729e+002,8.864166e+000
7.674371e+002,9.001144e+000
7.684014e+002,8.264465e+000
7.693656e+002,7.339127e+000
7.703298e+002,6.782318e+000
7.712941e+002,6.619461e+000
7.722583e+002,6.219147e+000
7.732225e+002,5.076950e+000
7.741868e+002,3.476257e+000
7.751510e+002,1.068466e+000
7.761152e+002,-1.585876e+000
7.770795e+002,-3.337799e+000
7.780437e+002,-3.175079e+000
7.790079e+002,-1.362961e+000
7.799722e+002,4.089966e-001
7.809364e+002,2.311600e+000
7.819006e+002,3.425674e+000
7.828649e+002,3.001312e+000
7.838291e+002,1.621094e+000
7.847933e+002,1.058029e+000
7.857576e+002,1.611343e+000
7.867218e+002,2.299744e+000
7.876860e+002,3.483093e+000
7.886503e+002,4.560822e+000
7.896145e+002,4.970474e+000
7.905787e+002,4.589935e+000
7.915430e+002,3.900284e+000
7.925072e+002,2.899918e+000
7.934714e+002,2.009384e+000
7.944357e+002,2.105820e+000
7.953999e+002,3.144272e+000
7.963641e+002,4.264725e+000
7.973284e+002,4.430634e+000
7.982926e+002,3.548126e+000
7.992568e+002,3.576981e+000
8.002211e+002,4.755920e+000
8.011853e+002,5.627258e+000
8.021495e+002,5.886124e+000
8.031138e+002,5.761642e+000
8.040780e+002,5.420776e+000
8.050422e+002,4.052719e+000
8.060065e+002,3.598099e+000
8.069707e+002,5.473526e+000
8.079349e+002,7.803528e+000
8.088992e+002,8.626877e+000
8.098634e+002,7.400375e+000
8.108276e+002,5.678284e+000
8.117919e+002,5.895721e+000
8.127561e+002,6.814896e+000
8.137203e+002,5.912109e+000
8.146846e+002,3.087723e+000
8.156488e+002,4.637756e-001
8.166130e+002,7.588501e-001
8.175773e+002,4.753662e+000
8.185415e+002,6.715988e+000
8.195057e+002,5.157211e+000
8.204700e+002,3.601883e+000
8.214342e+002,3.195374e+000
8.223984e+002,3.692871e+000
8.233627e+002,4.263184e+000
8.243269e+002,4.525040e+000
8.252911e+002,5.207077e+000
8.262554e+002,7.127457e+000
8.272196e+002,9.314026e+000
8.281838e+002,1.085818e+001
8.291481e+002,1.136945e+001
8.301123e+002,1.092740e+001
8.310765e+002,9.291321e+000
8.320408e+002,6.728394e+000
8.330050e+002,6.396790e+000
8.339692e+002,9.162582e+000
8.349335e+002,1.210831e+001
8.358977e+002,1.199304e+001
8.368619e+002,8.343536e+000
8.378262e+002,5.681137e+000
8.387904e+002,4.327011e+000
8.397546e+002,3.569656e+000
8.407189e+002,3.429321e+000
8.416831e+002,3.756454e+000
8.426473e+002,4.428284e+000
8.436116e+002,5.489716e+000
8.445758e+002,6.554581e+000
8.455400e+002,7.098694e+000
8.465043e+002,7.226563e+000
8.474685e+002,7.064636e+000
8.484327e+002,6.807419e+000
8.493970e+002,6.756104e+000
8.503612e+002,7.283203e+000
8.513254e+002,8.469711e+000
8.522897e+002,9.249252e+000
8.532539e+002,9.247482e+000
8.542181e+002,9.215027e+000
8.551824e+002,1.007445e+001
8.561466e+002,1.173529e+001
8.571108e+002,1.234708e+001
8.580751e+002,9.922287e+000
8.590393e+002,7.899429e+000
8.600035e+002,7.201584e+000
8.609678e+002,7.748383e+000
8.619320e+002,9.803482e+000
8.628962e+002,1.328246e+001
8.638605e+002,1.682191e+001
8.648247e+002,1.810509e+001
8.657889e+002,1.790643e+001
8.667532e+002,1.789969e+001
8.677174e+002,1.829652e+001
8.686816e+002,1.868810e+001
8.696459e+002,1.860683e+001
8.706101e+002,1.803433e+001
8.715743e+002,1.763359e+001
8.725386e+002,1.706708e+001
8.735028e+002,1.708481e+001
8.744670e+002,1.826030e+001
8.754313e+002,1.988783e+001
8.763955e+002,2.074605e+001
8.773597e+002,2.037253e+001
8.783240e+002,1.967238e+001
8.792882e+002,1.884789e+001
8.802524e+002,1.821741e+001
8.812167e+002,1.817847e+001
8.821809e+002,1.875929e+001
8.831451e+002,1.977408e+001
8.841094e+002,2.108505e+001
8.850736e+002,2.266541e+001
8.860378e+002,2.263509e+001
8.870021e+002,2.027881e+001
8.879663e+002,1.867461e+001
8.889305e+002,2.033571e+001
8.898948e+002,2.434792e+001
8.908590e+002,2.604170e+001
8.918232e+002,2.351767e+001
8.927875e+002,2.142140e+001
8.937517e+002,2.047647e+001
8.947159e+002,2.048141e+001
8.956802e+002,2.158540e+001
8.966444e+002,2.350577e+001
8.976086e+002,2.508815e+001
8.985729e+002,2.497675e+001
8.995371e+002,2.423445e+001
9.005013e+002,2.478212e+001
9.014656e+002,2.643488e+001
9.024298e+002,2.779578e+001
9.033940e+002,2.768190e+001
9.043583e+002,2.623262e+001
9.053225e+002,2.535910e+001
9.062867e+002,2.529808e+001
9.072510e+002,2.542300e+001
9.082152e+002,2.598538e+001
9.091794e+002,2.682874e+001
9.101437e+002,2.807156e+001
9.111079e+002,2.973486e+001
9.120721e+002,3.051695e+001
9.130364e+002,2.852635e+001
9.140006e+002,2.610849e+001
9.149648e+002,2.428162e+001
9.159291e+002,2.333888e+001
9.168933e+002,2.343732e+001
9.178575e+002,2.461516e+001
9.188218e+002,2.661885e+001
9.197860e+002,2.909256e+001
9.207502e+002,3.207651e+001
9.217145e+002,3.340111e+001
9.226787e+002,3.222304e+001
9.236429e+002,2.991280e+001
9.246072e+002,2.795795e+001
9.255714e+002,2.616270e+001
9.265356e+002,2.524535e+001
9.274999e+002,2.660577e+001
9.284641e+002,2.735461e+001
9.294283e+002,2.595364e+001
9.303926e+002,2.343504e+001
9.313568e+002,2.170122e+001
9.323210e+002,2.173938e+001
9.332853e+002,2.259312e+001
9.342495e+002,2.329994e+001
9.352137e+002,2.362775e+001
9.361780e+002,2.306897e+001
9.371422e+002,2.161763e+001
9.381064e+002,1.969000e+001
9.390707e+002,1.760416e+001
9.400349e+002,1.501563e+001
9.409991e+002,1.377008e+001
9.419634e+002,1.450626e+001
9.429276e+002,1.549124e+001
9.438918e+002,1.642432e+001
9.448561e+002,1.732814e+001
9.458203e+002,1.832521e+001
9.467845e+002,1.952370e+001
9.477488e+002,2.065942e+001
9.487130e+002,2.192749e+001
9.496772e+002,2.272685e+001
9.506415e+002,2.219450e+001
9.516057e+002,2.055438e+001
9.525699e+002,1.876968e+001
9.535342e+002,1.774352e+001
9.544984e+002,1.742825e+001
9.554626e+002,1.806206e+001
9.564269e+002,2.004643e+001
9.573911e+002,2.171539e+001
9.583553e+002,2.257718e+001
9.593196e+002,2.281328e+001
9.602838e+002,2.272334e+001
9.612480e+002,2.230472e+001
9.622123e+002,2.140610e+001
9.631765e+002,1.899120e+001
9.641407e+002,1.715573e+001
9.651050e+002,1.738928e+001
9.660692e+002,1.886282e+001
9.670334e+002,1.972722e+001
9.679977e+002,1.888403e+001
9.689619e+002,1.740608e+001
9.699261e+002,1.747263e+001
9.708904e+002,1.851817e+001
9.718546e+002,1.928244e+001
9.728188e+002,1.939096e+001
9.737831e+002,1.934766e+001
9.747473e+002,2.003479e+001
9.757115e+002,2.178809e+001
9.766758e+002,2.264302e+001
9.776400e+002,2.152054e+001
9.786042e+002,2.101259e+001
9.795685e+002,2.244199e+001
9.805327e+002,2.436252e+001
9.814969e+002,2.481976e+001
9.824612e+002,2.323535e+001
9.834254e+002,2.103973e+001
9.843896e+002,1.897659e+001
9.853539e+002,1.724452e+001
9.863181e+002,1.613144e+001
9.872823e+002,1.557410e+001
9.882466e+002,1.558464e+001
9.892108e+002,1.634309e+001
9.901750e+002,1.776048e+001
9.911393e+002,1.792488e+001
9.921035e+002,1.502594e+001
9.930677e+002,1.313515e+001
9.940320e+002,1.239606e+001
9.949962e+002,1.295027e+001
9.959604e+002,1.572273e+001
9.969247e+002,2.058647e+001
9.978889e+002,2.422218e+001
9.988531e+002,2.403157e+001
9.998174e+002,2.303217e+001
1.000782e+003,2.288423e+001
1.001746e+003,2.348468e+001
1.002710e+003,2.475864e+001
1.003674e+003,2.649879e+001
1.004639e+003,2.799699e+001
1.005603e+003,2.791379e+001
1.006567e+003,2.601694e+001
1.007531e+003,2.500592e+001
1.008495e+003,2.521098e+001
1.009460e+003,2.561496e+001
1.010424e+003,2.619800e+001
1.011388e+003,2.663129e+001
1.012352e+003,2.504396e+001
1.013317e+003,1.916956e+001
1.014281e+003,1.540611e+001
1.015245e+003,1.661121e+001
1.016209e+003,1.921802e+001
1.017174e+003,2.151428e+001
1.018138e+003,2.271844e+001
1.019102e+003,2.208057e+001
1.020066e+003,1.874762e+001
1.021031e+003,1.414232e+001
1.021995e+003,1.233316e+001
1.022959e+003,1.265105e+001
1.023923e+003,1.313773e+001
1.024887e+003,1.338542e+001
1.025852e+003,1.306775e+001
1.026816e+003,1.123325e+001
1.027780e+003,7.182587e+000
1.028744e+003,5.425308e+000
1.029709e+003,8.849213e+000
1.030673e+003,1.153726e+001
1.031637e+003,1.121872e+001
1.032601e+003,9.254395e+000
1.033566e+003,7.823349e+000
1.034530e+003,7.708405e+000
1.035494e+003,7.615967e+000
1.036458e+003,5.533981e+000
1.037422e+003,2.841553e+000
1.038387e+003,1.970200e+000
1.039351e+003,2.869095e+000
1.040315e+003,4.375900e+000
1.041279e+003,5.769913e+000
1.042244e+003,7.029938e+000
1.043208e+003,7.810623e+000
1.044172e+003,8.018646e+000
1.045136e+003,7.537125e+000
1.046101e+003,5.735123e+000
1.047065e+003,4.035461e+000
1.048029e+003,3.315094e+000
1.048993e+003,3.468063e+000
1.049958e+003,4.055603e+000
1.050922e+003,5.261353e+000
1.051886e+003,6.029297e+000
1.052850e+003,4.313980e+000
1.053814e+003,1.959152e+000
1.054779e+003,1.812164e+000
1.055743e+003,4.217880e+000
1.056707e+003,6.815964e+000
1.057671e+003,6.692276e+000
1.058636e+003,3.800613e+000
1.059600e+003,2.522369e+000
1.060564e+003,4.587692e+000
1.061528e+003,5.950287e+000
1.062493e+003,5.118271e+000
1.063457e+003,3.753067e+000
1.064421e+003,4.159073e+000
1.065385e+003,6.575516e+000
1.066349e+003,8.083023e+000
1.067314e+003,6.489975e+000
1.068278e+003,4.358643e+000
1.069242e+003,3.348526e+000
1.070206e+003,3.188782e+000
1.071171e+003,3.344635e+000
1.072135e+003,3.517929e+000
1.073099e+003,3.745819e+000
1.074063e+003,4.203522e+000
1.075028e+003,4.983627e+000
1.075992e+003,5.284164e+000
1.076956e+003,4.835190e+000
1.077920e+003,4.276840e+000
1.078885e+003,3.530273e+000
1.079849e+003,3.082260e+000
1.080813e+003,4.216934e+000
1.081777e+003,7.612885e+000
1.082741e+003,9.861603e+000
1.083706e+003,7.639465e+000
1.084670e+003,4.897583e+000
1.085634e+003,3.634521e+000
1.086598e+003,3.587433e+000
1.087563e+003,3.825546e+000
1.088527e+003,3.876755e+000
1.089491e+003,4.133133e+000
1.090455e+003,5.324249e+000
1.091420e+003,7.491013e+000
1.092384e+003,8.520981e+000
1.093348e+003,8.141205e+000
1.094312e+003,7.019684e+000
1.095276e+003,5.241165e+000
1.096241e+003,3.162796e+000
1.097205e+003,1.686646e+000
1.098169e+003,8.756714e-001
1.099133e+003,5.314178e-001
1.100098e+003,8.909302e-001
1.101062e+003,1.454239e+000
1.102026e+003,1.870361e+000
1.102990e+003,2.244843e+000
1.103955e+003,3.028091e+000
1.104919e+003,4.454910e+000
1.105883e+003,5.869064e+000
1.106847e+003,5.750549e+000
1.107812e+003,4.061523e+000
1.108776e+003,3.308990e+000
1.109740e+003,4.021088e+000
1.110704e+003,4.794418e+000
1.111668e+003,4.563660e+000
1.112633e+003,3.666779e+000
1.113597e+003,3.333359e+000
1.114561e+003,3.905045e+000
1.115525e+003,4.274994e+000
1.116490e+003,3.988708e+000
1.117454e+003,3.506088e+000
1.118418e+003,2.795532e+000
1.119382e+003,2.298569e+000
1.120347e+003,2.921982e+000
1.121311e+003,5.126709e+000
1.122275e+003,7.744873e+000
1.123239e+003,8.573914e+000
1.124203e+003,7.891602e+000
1.125168e+003,7.737335e+000
1.126132e+003,8.378372e+000
1.127096e+003,9.322754e+000
1.128060e+003,1.022038e+001
1.129025e+003,1.103456e+001
1.129989e+003,1.173801e+001
1.130953e+003,1.214777e+001
1.131917e+003,1.275491e+001
1.132882e+003,1.391345e+001
1.133846e+003,1.515428e+001
1.134810e+003,1.658385e+001
1.135774e+003,1.782123e+001
1.136739e+003,1.785603e+001
1.137703e+003,1.615538e+001
1.138667e+003,1.411302e+001
1.139631e+003,1.418408e+001
1.140595e+003,1.630006e+001
1.141560e+003,1.909900e+001
1.142524e+003,2.273532e+001
1.143488e+003,2.664699e+001
1.144452e+003,3.022693e+001
1.145417e+003,3.373129e+001
1.146381e+003,3.835332e+001
1.147345e+003,4.496237e+001
1.148309e+003,5.025035e+001
1.149274e+003,5.149045e+001
1.150238e+003,5.337994e+001
1.151202e+003,5.901256e+001
1.152166e+003,6.707962e+001
1.153130e+003,7.508263e+001
1.154095e+003,8.162820e+001
1.155059e+003,8.646065e+001
1.156023e+003,8.933612e+001
1.156987e+003,9.025717e+001
1.157952e+003,9.006825e+001
1.158916e+003,8.903757e+001
1.159880e+003,8.683366e+001
1.160844e+003,8.302515e+001
1.161809e+003,7.758345e+001
1.162773e+003,7.046481e+001
1.163737e+003,6.116081e+001
1.164701e+003,5.254372e+001
1.165666e+003,4.501302e+001
1.166630e+003,3.888419e+001
1.167594e+003,3.459758e+001
1.168558e+003,3.164262e+001
1.169522e+003,2.951953e+001
1.170487e+003,2.798192e+001
1.171451e+003,2.702498e+001
1.172415e+003,2.672691e+001
1.173379e+003,2.682681e+001
1.174344e+003,2.589920e+001
1.175308e+003,2.388016e+001
1.176272e+003,2.255629e+001
1.177236e+003,2.320201e+001
1.178201e+003,2.435941e+001
1.179165e+003,2.400591e+001
1.180129e+003,2.204430e+001
1.181093e+003,1.991928e+001
1.182057e+003,1.708095e+001
1.183022e+003,1.558447e+001
1.183986e+003,1.733548e+001
1.184950e+003,1.981160e+001
1.185914e+003,2.034764e+001
1.186879e+003,1.899840e+001
1.187843e+003,1.795816e+001
1.188807e+003,1.900259e+001
1.189771e+003,2.123625e+001
1.190736e+003,2.209778e+001
1.191700e+003,2.144142e+001
1.192664e+003,2.059743e+001
1.193628e+003,1.949721e+001
1.194593e+003,1.859991e+001
1.195557e+003,1.848293e+001
1.196521e+003,1.881004e+001
1.197485e+003,1.844373e+001
1.198449e+003,1.717033e+001
1.199414e+003,1.540730e+001
1.200378e+003,1.222455e+001
1.201342e+003,9.644470e+000
1.202306e+003,9.285599e+000
1.203271e+003,1.047588e+001
1.204235e+003,1.186487e+001
1.205199e+003,1.270914e+001
1.206163e+003,1.291821e+001
1.207128e+003,1.220471e+001
1.208092e+003,1.049875e+001
1.209056e+003,9.996887e+000
1.210020e+003,1.190343e+001
1.210984e+003,1.248502e+001
1.211949e+003,9.685165e+000
1.212913e+003,5.558350e+000
1.213877e+003,2.678268e+000
1.214841e+003,1.254074e+000
1.215806e+003,2.851105e-001
1.216770e+003,-7.377472e-001
1.217734e+003,-1.186188e+000
1.218698e+003,1.794586e-001
1.219663e+003,1.716339e+000
1.220627e+003,1.139343e+000
1.221591e+003,-1.679428e+000
1.222555e+003,-5.039825e+000
1.223520e+003,-7.382034e+000
1.224484e+003,-8.710434e+000
1.225448e+003,-9.259460e+000
1.226412e+003,-8.586807e+000
1.227376e+003,-8.121063e+000
1.228341e+003,-8.008820e+000
1.229305e+003,-8.000565e+000
1.230269e+003,-7.915649e+000
1.231233e+003,-7.863739e+000
1.232198e+003,-8.165894e+000
1.233162e+003,-8.894577e+000
1.234126e+003,-9.288849e+000
1.235090e+003,-8.707291e+000
1.236055e+003,-7.726746e+000
1.237019e+003,-6.714706e+000
1.237983e+003,-5.871811e+000
1.238947e+003,-5.769791e+000
1.239911e+003,-6.578217e+000
1.240876e+003,-7.273682e+000
1.241840e+003,-6.163116e+000
1.242804e+003,-3.045349e+000
1.243768e+003,-1.712097e+000
1.244733e+003,-5.076935e+000
1.245697e+003,-6.307190e+000
1.246661e+003,-2.750153e+000
1.247625e+003,9.868774e-001
1.248590e+003,1.147324e+000
1.249554e+003,-1.480103e+000
1.250518e+003,-3.627319e+000
1.251482e+003,-3.863007e+000
1.252447e+003,-3.595169e+000
1.253411e+003,-4.496643e+000
1.254375e+003,-5.934097e+000
1.255339e+003,-6.640808e+000
1.256303e+003,-6.532898e+000
1.257268e+003,-6.199921e+000
1.258232e+003,-6.153580e+000
1.259196e+003,-6.072525e+000
1.260160e+003,-4.840286e+000
1.261125e+003,-1.991348e+000
1.262089e+003,-3.945923e-001
1.263053e+003,-2.073257e+000
1.264017e+003,-3.073395e+000
1.264982e+003,-1.279755e+000
1.265946e+003,7.998962e-001
1.266910e+003,1.260376e-001
1.267874e+003,-2.769363e+000
1.268839e+003,-4.363251e+000
1.269803e+003,-2.274139e+000
1.270767e+003,1.026382e+000
1.271731e+003,4.032745e-001
1.272695e+003,-3.944778e+000
1.273660e+003,-6.135666e+000
1.274624e+003,-5.529587e+000
1.275588e+003,-4.518250e+000
1.276552e+003,-4.165253e+000
1.277517e+003,-4.160629e+000
1.278481e+003,-4.013275e+000
1.279445e+003,-3.709320e+000
1.280409e+003,-3.592529e+000
1.281374e+003,-4.147812e+000
1.282338e+003,-4.355072e+000
1.283302e+003,-2.796738e+000
1.284266e+003,-1.195969e+000
1.285230e+003,-2.034866e+000
1.286195e+003,-5.169296e+000
1.287159e+003,-8.055252e+000
1.288123e+003,-8.552734e+000
1.289087e+003,-7.432495e+000
1.290052e+003,-7.272537e+000
1.291016e+003,-8.698318e+000
1.291980e+003,-9.037643e+000
1.292944e+003,-7.893738e+000
1.293909e+003,-6.469681e+000
1.294873e+003,-4.482407e+000
1.295837e+003,-2.738907e+000
1.296801e+003,-2.774994e+000
1.297766e+003,-4.612015e+000
1.298730e+003,-5.999710e+000
1.299694e+003,-5.575897e+000
1.300658e+003,-4.765640e+000
1.301622e+003,-5.252701e+000
1.302587e+003,-6.313660e+000
1.303551e+003,-6.735703e+000
1.304515e+003,-6.337723e+000
1.305479e+003,-6.066208e+000
1.306444e+003,-6.833466e+000
1.307408e+003,-8.225830e+000
1.308372e+003,-8.682709e+000
1.309336e+003,-8.000000e+000
1.310301e+003,-7.005630e+000
1.311265e+003,-4.667389e+000
1.312229e+003,-3.251633e+000
1.313193e+003,-4.434586e+000
1.314157e+003,-6.250839e+000
1.315122e+003,-6.345734e+000
1.316086e+003,-4.787262e+000
1.317050e+003,-3.558502e+000
1.318014e+003,-3.917664e+000
1.318979e+003,-5.232285e+000
1.319943e+003,-6.798859e+000
1.320907e+003,-8.392822e+000
1.321871e+003,-8.648697e+000
1.322836e+003,-7.424210e+000
1.323800e+003,-5.631363e+000
1.324764e+003,-2.743896e+000
1.325728e+003,-5.882263e-002
1.326693e+003,-2.629547e-001
1.327657e+003,-3.528076e+000
1.328621e+003,-6.531326e+000
1.329585e+003,-8.652405e+000
1.330549e+003,-9.374817e+000
1.331514e+003,-7.912338e+000
1.332478e+003,-5.992020e+000
1.333442e+003,-5.168045e+000
1.334406e+003,-5.394852e+000
1.335371e+003,-5.802017e+000
1.336335e+003,-5.857574e+000
1.337299e+003,-5.812149e+000
1.338263e+003,-6.215607e+000
1.339228e+003,-7.180573e+000
1.340192e+003,-7.481491e+000
1.341156e+003,-6.432846e+000
1.342120e+003,-5.784714e+000
1.343084e+003,-6.383041e+000
1.344049e+003,-7.102402e+000
1.345013e+003,-6.782913e+000
1.345977e+003,-5.649033e+000
1.346941e+003,-4.728653e+000
1.347906e+003,-4.395889e+000
1.348870e+003,-4.315948e+000
1.349834e+003,-4.211487e+000
1.350798e+003,-4.231049e+000
1.351763e+003,-4.606308e+000
1.352727e+003,-5.242416e+000
1.353691e+003,-5.745209e+000
1.354655e+003,-5.969406e+000
1.355620e+003,-5.987198e+000
1.356584e+003,-5.788712e+000
1.357548e+003,-5.381927e+000
1.358512e+003,-5.132538e+000
1.359476e+003,-5.207321e+000
1.360441e+003,-5.370316e+000
1.361405e+003,-5.815018e+000
1.362369e+003,-5.961273e+000
1.363333e+003,-4.897064e+000
1.364298e+003,-3.641785e+000
1.365262e+003,-3.947510e+000
1.366226e+003,-5.922363e+000
1.367190e+003,-7.710098e+000
1.368155e+003,-7.635864e+000
1.369119e+003,-6.433502e+000
1.370083e+003,-6.458603e+000
1.371047e+003,-8.229965e+000
1.372011e+003,-8.717834e+000
1.372976e+003,-7.478592e+000
1.373940e+003,-5.827072e+000
1.374904e+003,-3.597321e+000
1.375868e+003,-1.548157e+000
1.376833e+003,-1.004288e+000
1.377797e+003,-1.838562e+000
1.378761e+003,-2.049881e+000
1.379725e+003,-3.760834e-001
1.380690e+003,8.800201e-001
1.381654e+003,-1.858154e+000
1.382618e+003,-5.861725e+000
1.383582e+003,-7.157806e+000
1.384547e+003,-5.811859e+000
1.385511e+003,-4.363525e+000
1.386475e+003,-4.120895e+000
1.387439e+003,-4.380676e+000
1.388403e+003,-3.963608e+000
1.389368e+003,-2.883453e+000
1.390332e+003,-2.388550e+000
1.391296e+003,-2.921692e+000
1.392260e+003,-3.068695e+000
1.393225e+003,-1.956253e+000
1.394189e+003,-1.048111e+000
1.395153e+003,-1.270798e+000
1.396117e+003,-2.204071e+000
1.397082e+003,-3.246323e+000
1.398046e+003,-4.098022e+000
1.399010e+003,-4.632553e+000
1.399974e+003,-4.780777e+000
1.400938e+003,-4.711548e+000
1.401903e+003,-4.640335e+000
1.402867e+003,-4.328812e+000
1.403831e+003,-3.870316e+000
1.404795e+003,-3.159851e+000
1.405760e+003,-2.687347e+000
1.406724e+003,-3.221207e+000
1.407688e+003,-3.983978e+000
1.408652e+003,-3.837631e+000
1.409617e+003,-2.716339e+000
1.410581e+003,-1.211502e+000
1.411545e+003,5.828094e-001
1.412509e+003,1.931870e+000
1.413474e+003,1.686386e+000
1.414438e+003,6.115265e-001
1.415402e+003,2.142944e-001
1.416366e+003,5.017090e-001
1.417330e+003,7.578278e-001
1.418295e+003,6.990967e-001
1.419259e+003,5.558624e-001
1.420223e+003,8.205872e-001
1.421187e+003,1.217667e+000
1.422152e+003,3.096008e-002
1.423116e+003,-3.623718e+000
1.424080e+003,-5.674850e+000
1.425044e+003,-3.911911e+000
1.426009e+003,-1.641602e+000
1.426973e+003,1.176300e-001
1.427937e+003,1.430252e+000
1.428901e+003,2.674744e+000
1.429865e+003,3.765060e+000
1.430830e+003,3.990112e+000
1.431794e+003,2.858444e+000
1.432758e+003,9.243317e-001
1.433722e+003,-6.538544e-001
1.434687e+003,-1.799957e+000
1.435651e+003,-1.782166e+000
1.436615e+003,-2.516632e-001
1.437579e+003,1.260880e+000
1.438544e+003,2.849396e+000
1.439508e+003,4.237045e+000
1.440472e+003,5.436295e+000
1.441436e+003,6.362701e+000
1.442401e+003,6.830597e+000
1.443365e+003,6.756836e+000
1.444329e+003,5.996460e+000
1.445293e+003,4.281876e+000
1.446257e+003,2.396088e+000
1.447222e+003,1.836380e+000
1.448186e+003,2.398102e+000
1.449150e+003,3.230347e+000
1.450114e+003,4.377853e+000
1.451079e+003,5.191727e+000
1.452043e+003,5.244431e+000
1.453007e+003,4.979599e+000
1.453971e+003,5.130417e+000
1.454936e+003,5.511734e+000
1.455900e+003,4.783356e+000
1.456864e+003,2.275482e+000
1.457828e+003,2.102966e-001
1.458792e+003,-8.285522e-003
1.459757e+003,5.392303e-001
1.460721e+003,1.281387e+000
1.461685e+003,2.030426e+000
1.462649e+003,2.446838e+000
1.463614e+003,2.530823e+000
1.464578e+003,2.911942e+000
1.465542e+003,4.295959e+000
1.466506e+003,5.948502e+000
1.467471e+003,5.560089e+000
1.468435e+003,2.649475e+000
1.469399e+003,7.002411e-001
1.470363e+003,5.599976e-002
1.471328e+003,-2.691650e-002
1.472292e+003,4.231720e-001
1.473256e+003,1.034210e+000
1.474220e+003,1.830139e+000
1.475184e+003,2.712402e+000
1.476149e+003,3.397522e+000
1.477113e+003,3.771576e+000
1.478077e+003,4.144012e+000
1.479041e+003,4.911316e+000
1.480006e+003,5.844223e+000
1.480970e+003,5.906082e+000
1.481934e+003,4.614151e+000
1.482898e+003,4.064606e+000
1.483863e+003,4.460434e+000
1.484827e+003,5.173767e+000
1.485791e+003,6.753677e+000
1.486755e+003,8.137497e+000
1.487719e+003,7.685135e+000
1.488684e+003,6.184631e+000
1.489648e+003,6.129578e+000
1.490612e+003,8.330963e+000
1.491576e+003,1.108249e+001
1.492541e+003,1.309845e+001
1.493505e+003,1.447485e+001
1.494469e+003,1.533617e+001
1.495433e+003,1.563599e+001
1.496398e+003,1.568524e+001
1.497362e+003,1.573413e+001
1.498326e+003,1.541055e+001
1.499290e+003,1.325223e+001
1.500255e+003,1.147575e+001
1.501219e+003,1.395399e+001
1.502183e+003,1.982486e+001
1.503147e+003,2.364388e+001
1.504111e+003,2.376256e+001
1.505076e+003,2.418297e+001
1.506040e+003,2.741000e+001
1.507004e+003,3.186052e+001
1.507968e+003,3.579520e+001
1.508933e+003,3.967007e+001
1.509897e+003,4.451894e+001
1.510861e+003,5.066684e+001
1.511825e+003,5.758092e+001
1.512790e+003,6.501987e+001
1.513754e+003,7.243823e+001
1.514718e+003,7.870009e+001
1.515682e+003,8.372061e+001
1.516646e+003,8.961922e+001
1.517611e+003,9.720169e+001
1.518575e+003,1.044081e+002
1.519539e+003,1.116234e+002
1.520503e+003,1.174266e+002
1.521468e+003,1.205109e+002
1.522432e+003,1.218814e+002
1.523396e+003,1.230385e+002
1.524360e+003,1.240906e+002
1.525325e+003,1.242857e+002
1.526289e+003,1.231490e+002
1.527253e+003,1.202454e+002
1.528217e+003,1.144070e+002
1.529182e+003,1.056635e+002
1.530146e+003,9.883615e+001
1.531110e+003,9.573660e+001
1.532074e+003,9.095439e+001
1.533039e+003,8.327347e+001
1.534003e+003,7.452113e+001
1.534967e+003,6.478819e+001
1.535931e+003,5.532701e+001
1.536896e+003,4.753416e+001
1.537860e+003,4.129015e+001
1.538824e+003,3.513831e+001
1.539788e+003,2.837021e+001
1.540752e+003,2.244398e+001
1.541717e+003,1.937718e+001
1.542681e+003,1.885252e+001
1.543645e+003,1.844231e+001
1.544609e+003,1.876117e+001
1.545573e+003,1.778006e+001
1.546538e+003,1.361575e+001
1.547502e+003,1.036639e+001
1.548466e+003,1.084685e+001
1.549430e+003,1.212254e+001
1.550395e+003,1.044273e+001
1.551359e+003,6.749710e+000
1.552323e+003,4.774155e+000
1.553287e+003,5.804184e+000
1.554252e+003,8.219589e+000
1.555216e+003,1.091713e+001
1.556180e+003,1.315463e+001
1.557144e+003,1.301334e+001
1.558109e+003,1.042233e+001
1.559073e+003,7.731201e+000
1.560037e+003,4.364044e+000
1.561001e+003,1.916672e+000
1.561966e+003,1.401672e+000
1.562930e+003,1.814896e+000
1.563894e+003,2.353851e+000
1.564858e+003,2.917023e+000
1.565823e+003,3.603653e+000
1.566787e+003,4.378311e+000
1.567751e+003,4.481552e+000
1.568715e+003,3.158249e+000
1.569679e+003,2.150269e+000
1.570644e+003,4.450577e+000
1.571608e+003,8.438293e+000
1.572572e+003,9.288605e+000
1.573536e+003,6.854111e+000
1.574500e+003,5.032364e+000
1.575465e+003,5.018524e+000
1.576429e+003,6.006882e+000
1.577393e+003,8.223648e+000
1.578357e+003,1.056001e+001
1.579322e+003,1.051237e+001
1.580286e+003,8.156357e+000
1.581250e+003,6.323807e+000
1.582214e+003,5.922531e+000
1.583179e+003,5.964447e+000
1.584143e+003,5.581375e+000
1.585107e+003,5.305710e+000
1.586071e+003,6.592239e+000
1.587036e+003,8.736450e+000
1.588000e+003,8.802444e+000
1.588964e+003,5.938370e+000
1.589928e+003,3.420227e+000
1.590893e+003,3.631500e+000
1.591857e+003,5.226715e+000
1.592821e+003,6.453400e+000
1.593785e+003,7.317474e+000
1.594750e+003,7.566132e+000
1.595714e+003,6.928848e+000
1.596678e+003,6.979675e+000
1.597642e+003,8.848221e+000
1.598606e+003,1.088565e+001
1.599571e+003,1.229192e+001
1.600535e+003,1.285358e+001
1.601499e+003,1.171091e+001
1.602463e+003,9.226685e+000
1.603427e+003,7.205902e+000
1.604392e+003,6.306015e+000
1.605356e+003,6.642288e+000
1.606320e+003,9.315094e+000
1.607284e+003,1.300317e+001
1.608249e+003,1.333492e+001
1.609213e+003,1.015056e+001
1.610177e+003,8.819992e+000
1.611141e+003,1.122112e+001
1.612106e+003,1.303339e+001
1.613070e+003,1.126007e+001
1.614034e+003,8.938080e+000
1.614998e+003,8.122284e+000
1.615963e+003,8.341980e+000
1.616927e+003,8.837631e+000
1.617891e+003,9.340210e+000
1.618855e+003,9.407669e+000
1.619820e+003,8.635300e+000
1.620784e+003,7.729599e+000
1.621748e+003,8.054947e+000
1.622712e+003,9.481689e+000
1.623677e+003,1.034303e+001
1.624641e+003,1.057678e+001
1.625605e+003,1.058839e+001
1.626569e+003,1.001646e+001
1.627533e+003,9.475464e+000
1.628498e+003,9.435165e+000
1.629462e+003,9.620071e+000
1.630426e+003,9.878754e+000
1.631390e+003,1.010294e+001
1.632354e+003,1.008008e+001
1.633319e+003,9.787949e+000
1.634283e+003,9.586578e+000
1.635247e+003,9.780823e+000
1.636211e+003,1.003407e+001
1.637176e+003,9.556046e+000
1.638140e+003,8.493927e+000
1.639104e+003,8.646378e+000
1.640068e+003,1.049712e+001
1.641033e+003,1.168675e+001
1.641997e+003,1.118321e+001
1.642961e+003,1.064964e+001
1.643925e+003,1.118095e+001
1.644890e+003,1.185454e+001
1.645854e+003,1.151762e+001
1.646818e+003,1.053506e+001
1.647782e+003,1.014992e+001
1.648747e+003,1.069600e+001
1.649711e+003,1.124373e+001
1.650675e+003,1.104785e+001
1.651639e+003,1.050952e+001
1.652604e+003,1.043805e+001
1.653568e+003,1.074652e+001
1.654532e+003,1.027945e+001
1.655496e+003,8.513916e+000
1.656460e+003,7.688065e+000
1.657425e+003,9.317062e+000
1.658389e+003,1.092213e+001
1.659353e+003,1.107080e+001
1.660317e+003,1.057872e+001
1.661281e+003,1.023021e+001
1.662246e+003,1.001833e+001
1.663210e+003,9.650620e+000
1.664174e+003,9.073090e+000
1.665138e+003,8.630737e+000
1.666103e+003,8.707825e+000
1.667067e+003,8.822739e+000
1.668031e+003,7.803711e+000
1.668995e+003,5.803772e+000
1.669960e+003,4.811005e+000
1.670924e+003,5.284866e+000
1.671888e+003,5.480743e+000
1.672852e+003,4.201523e+000
1.673817e+003,3.391953e+000
1.674781e+003,4.717346e+000
1.675745e+003,6.772781e+000
1.676709e+003,8.352798e+000
1.677674e+003,9.248596e+000
1.678638e+003,9.093170e+000
1.679602e+003,7.790100e+000
1.680566e+003,6.690338e+000
1.681531e+003,7.209946e+000
1.682495e+003,8.174118e+000
1.683459e+003,7.050995e+000
1.684423e+003,4.262192e+000
1.685387e+003,3.009323e+000
1.686352e+003,3.781815e+000
1.687316e+003,4.660629e+000
1.688280e+003,5.177933e+000
1.689244e+003,5.388184e+000
1.690208e+003,4.931763e+000
1.691173e+003,4.407883e+000
1.692137e+003,4.809860e+000
1.693101e+003,5.819077e+000
1.694065e+003,5.970337e+000
1.695030e+003,4.787430e+000
1.695994e+003,3.790863e+000
1.696958e+003,4.283432e+000
1.697922e+003,5.093018e+000
1.698887e+003,4.765045e+000
1.699851e+003,3.576584e+000
1.700815e+003,2.087234e+000
1.701779e+003,3.359985e-001
1.702744e+003,-1.153961e+000
1.703708e+003,-2.505829e+000
1.704672e+003,-1.836472e+000
1.705636e+003,3.884369e+000
1.706601e+003,1.041351e+001
1.707565e+003,1.109920e+001
1.708529e+003,7.577637e+000
1.709493e+003,4.343582e+000
1.710458e+003,1.798157e+000
1.711422e+003,4.325256e-001
1.712386e+003,1.368896e+000
1.713350e+003,2.591797e+000
1.714314e+003,1.976883e+000
1.715279e+003,7.202606e-001
1.716243e+003,1.208679e+000
1.717207e+003,3.176743e+000
1.718171e+003,4.591812e+000
1.719135e+003,4.912979e+000
1.720100e+003,4.123062e+000
1.721064e+003,1.868851e+000
1.722028e+003,-7.043610e-001
1.722992e+003,-2.005142e+000
1.723957e+003,-1.995804e+000
1.724921e+003,-7.856598e-001
1.725885e+003,1.872971e+000
1.726849e+003,3.164368e+000
1.727814e+003,1.729538e+000
1.728778e+003,4.470673e-001
1.729742e+003,5.081787e-001
1.730706e+003,1.241180e+000
1.731671e+003,2.414459e+000
1.732635e+003,3.403275e+000
1.733599e+003,3.195770e+000
1.734563e+003,1.834641e+000
1.735528e+003,-6.520081e-002
1.736492e+003,-2.211899e+000
1.737456e+003,-3.128143e+000
1.738420e+003,-7.522430e-001
1.739385e+003,3.481827e+000
1.740349e+003,4.388275e+000
1.741313e+003,1.034668e+000
1.742277e+003,-5.588379e-001
1.743241e+003,1.122955e+000
1.744206e+003,2.214249e+000
1.745170e+003,1.745239e+000
1.746134e+003,1.048019e+000
1.747098e+003,8.820038e-001
1.748063e+003,8.567505e-001
1.749027e+003,4.246368e-001
1.749991e+003,-3.026123e-001
1.750955e+003,-9.431763e-001
1.751919e+003,-1.342529e+000
1.752884e+003,-1.429718e+000
1.753848e+003,-1.134811e+000
1.754812e+003,-7.799683e-001
1.755776e+003,-9.972382e-001
1.756741e+003,-1.682831e+000
1.757705e+003,-2.035263e+000
1.758669e+003,-2.246613e+000
1.759633e+003,-1.750305e+000
1.760598e+003,2.769775e-001
1.761562e+003,1.767273e+000
1.762526e+003,2.023087e+000
1.763490e+003,1.807861e+000
1.764455e+003,1.871933e+000
1.765419e+003,1.751038e+000
1.766383e+003,2.647400e-002
1.767347e+003,-2.917389e+000
1.768312e+003,-4.460114e+000
1.769276e+003,-3.372498e+000
1.770240e+003,-1.537064e+000
1.771204e+003,-7.565308e-001
1.772168e+003,-4.959412e-001
1.773133e+003,5.201111e-001
1.774097e+003,2.127884e+000
1.775061e+003,2.618744e+000
1.776025e+003,1.642288e+000
1.776990e+003,7.202148e-002
1.777954e+003,-2.322937e+000
1.778918e+003,-3.782623e+000
1.779882e+003,-2.448441e+000
1.780846e+003,-8.921814e-002
1.781811e+003,1.339615e+000
1.782775e+003,1.841843e+000
1.783739e+003,1.119308e+000
1.784703e+003,-9.799957e-001
1.785668e+003,-2.659119e+000
1.786632e+003,-3.388458e+000
1.787596e+003,-3.412735e+000
1.788560e+003,-2.148987e+000
1.789525e+003,-5.951691e-001
1.790489e+003,-6.497803e-001
1.791453e+003,-1.781326e+000
1.792417e+003,-1.702774e+000
1.793382e+003,-7.952881e-002
1.794346e+003,9.951019e-001
1.795310e+003,3.504791e-001
1.796274e+003,-5.706482e-001
1.797239e+003,3.538513e-002
1.798203e+003,1.613724e+000
1.799167e+003,1.967728e+000
1.800131e+003,6.153870e-001
1.801095e+003,1.568604e-002
1.802060e+003,1.366623e+000
1.803024e+003,1.837021e+000
1.803988e+003,1.465759e-001
1.804952e+003,-1.359299e+000
1.805917e+003,-1.556885e+000
1.806881e+003,-1.056747e+000
1.807845e+003,-8.770752e-002
1.808809e+003,9.146881e-001
1.809773e+003,1.127960e+000
1.810738e+003,5.468445e-001
1.811702e+003,1.795349e-001
1.812666e+003,6.409302e-001
1.813630e+003,1.393448e+000
1.814595e+003,1.772827e+000
1.815559e+003,1.740936e+000
1.816523e+003,9.487305e-001
1.817487e+003,-7.802429e-001
1.818452e+003,-6.931610e-001
1.819416e+003,2.637405e+000
1.820380e+003,4.116776e+000
1.821344e+003,3.430939e-001
1.822309e+003,-2.884003e+000
1.823273e+003,-1.164124e+000
1.824237e+003,2.068909e+000
1.825201e+003,3.617371e+000
1.826166e+003,3.626953e+000
1.827130e+003,2.780045e+000
1.828094e+003,1.224808e+000
1.829058e+003,1.203461e-001
1.830022e+003,1.461792e-001
1.830987e+003,6.594391e-001
1.831951e+003,1.713913e+000
1.832915e+003,2.513382e+000
1.833879e+003,1.364868e+000
1.834844e+003,-9.850159e-001
1.835808e+003,-2.289261e+000
1.836772e+003,-2.160217e+000
1.837736e+003,-8.321381e-001
1.838700e+003,1.626770e+000
1.839665e+003,3.326736e+000
1.840629e+003,2.365509e+000
1.841593e+003,1.692352e-001
1.842557e+003,-2.137909e-001
1.843522e+003,1.176605e+000
1.844486e+003,1.567184e+000
1.845450e+003,1.250153e-001
1.846414e+003,-4.859161e-001
1.847379e+003,-4.159546e-002
1.848343e+003,6.318665e-001
1.849307e+003,1.929962e+000
1.850271e+003,2.818268e+000
1.851236e+003,2.328201e+000
1.852200e+003,1.214249e+000
1.853164e+003,2.409821e-001
1.854128e+003,-4.093475e-001
1.855093e+003,-6.200256e-001
1.856057e+003,-2.816162e-001
1.857021e+003,6.656342e-001
1.857985e+003,2.366455e+000
1.858949e+003,3.954132e+000
1.859914e+003,3.550812e+000
1.860878e+003,1.685364e+000
1.861842e+003,1.441803e+000
1.862806e+003,2.854065e+000
1.863771e+003,3.580185e+000
1.864735e+003,3.036255e+000
1.865699e+003,2.577332e+000
1.866663e+003,3.012619e+000
1.867627e+003,3.439941e+000
1.868592e+003,2.813080e+000
1.869556e+003,1.638336e+000
1.870520e+003,1.164078e+000
1.871484e+003,1.223862e+000
1.872449e+003,5.101013e-001
1.873413e+003,-1.492676e+000
1.874377e+003,-1.791534e+000
1.875341e+003,2.056732e+000
1.876306e+003,5.327759e+000
1.877270e+003,4.858078e+000
1.878234e+003,3.147980e+000
1.879198e+003,2.612213e+000
1.880163e+003,2.902817e+000
1.881127e+003,2.946671e+000
1.882091e+003,2.673843e+000
1.883055e+003,2.762802e+000
1.884020e+003,3.434769e+000
1.884984e+003,4.048615e+000
1.885948e+003,4.034958e+000
1.886912e+003,3.461853e+000
1.887876e+003,2.247665e+000
1.888841e+003,5.784912e-001
1.889805e+003,1.013458e+000
1.890769e+003,4.190567e+000
1.891733e+003,5.990173e+000
1.892698e+003,5.610474e+000
1.893662e+003,4.661758e+000
1.894626e+003,3.289291e+000
1.895590e+003,2.083435e+000
1.896554e+003,1.519669e+000
1.897519e+003,1.380066e+000
1.898483e+003,1.286224e+000
1.899447e+003,1.259827e+000
1.900411e+003,1.894257e+000
1.901376e+003,3.398849e+000
1.902340e+003,4.053726e+000
1.903304e+003,2.517670e+000
1.904268e+003,1.043564e+000
1.905233e+003,1.382462e+000
1.906197e+003,2.151855e+000
1.907161e+003,1.718735e+000
1.908125e+003,8.030548e-001
1.909090e+003,7.275238e-001
1.910054e+003,1.513031e+000
1.911018e+003,2.843597e+000
1.911982e+003,4.455002e+000
1.912947e+003,5.180389e+000
1.913911e+003,4.138748e+000
1.914875e+003,2.514359e+000
1.915839e+003,2.070251e+000
1.916803e+003,2.660049e+000
1.917768e+003,4.172806e+000
1.918732e+003,7.066101e+000
1.919696e+003,8.202698e+000
1.920660e+003,6.968933e+000
1.921625e+003,5.748611e+000
1.922589e+003,4.936600e+000
1.923553e+003,4.281631e+000
1.924517e+003,3.574905e+000
1.925481e+003,3.076706e+000
1.926446e+003,3.023254e+000
1.927410e+003,3.348068e+000
1.928374e+003,4.161667e+000
1.929338e+003,5.294952e+000
1.930303e+003,5.441879e+000
1.931267e+003,4.052933e+000
1.932231e+003,2.828476e+000
1.933195e+003,2.247116e+000
1.934160e+003,2.221451e+000
1.935124e+003,3.149551e+000
1.936088e+003,4.175690e+000
1.937052e+003,4.171722e+000
1.938017e+003,3.599548e+000
1.938981e+003,3.689743e+000
1.939945e+003,4.434280e+000
1.940909e+003,4.524826e+000
1.941874e+003,3.456818e+000
1.942838e+003,2.757645e+000
1.943802e+003,4.001511e+000
1.944766e+003,5.865738e+000
1.945730e+003,5.151932e+000
1.946695e+003,2.348175e+000
1.947659e+003,2.341812e+000
1.948623e+003,5.443466e+000
1.949587e+003,7.612976e+000
1.950552e+003,8.518997e+000
1.951516e+003,8.199677e+000
1.952480e+003,5.986649e+000
1.953444e+003,3.983582e+000
1.954408e+003,3.713760e+000
1.955373e+003,4.293060e+000
1.956337e+003,4.806839e+000
1.957301e+003,5.290375e+000
1.958265e+003,5.544083e+000
1.959230e+003,5.560150e+000
1.960194e+003,5.470520e+000
1.961158e+003,4.850677e+000
1.962122e+003,4.509521e+000
1.963087e+003,5.276627e+000
1.964051e+003,5.667099e+000
1.965015e+003,4.141769e+000
1.965979e+003,2.596664e+000
1.966944e+003,3.240616e+000
1.967908e+003,5.066620e+000
1.968872e+003,5.999939e+000
1.969836e+003,5.865005e+000
1.970801e+003,5.981216e+000
1.971765e+003,6.862778e+000
1.972729e+003,7.136230e+000
1.973693e+003,5.278122e+000
1.974657e+003,3.233582e+000
1.975622e+003,4.531830e+000
1.976586e+003,7.660538e+000
1.977550e+003,8.357666e+000
1.978514e+003,7.046707e+000
1.979479e+003,6.630661e+000
1.980443e+003,7.462448e+000
1.981407e+003,7.935608e+000
1.982371e+003,7.470917e+000
1.983335e+003,6.893555e+000
1.984300e+003,6.734192e+000
1.985264e+003,6.950180e+000
1.986228e+003,7.647247e+000
1.987192e+003,8.589691e+000
1.988157e+003,8.457443e+000
1.989121e+003,6.816391e+000
1.990085e+003,6.624298e+000
1.991049e+003,9.364182e+000
1.992014e+003,1.064963e+001
1.992978e+003,8.737198e+000
1.993942e+003,6.871368e+000
1.994906e+003,6.056747e+000
1.995871e+003,5.783997e+000
1.996835e+003,5.876465e+000
1.997799e+003,6.217545e+000
1.998763e+003,6.734634e+000
1.999728e+003,7.284302e+000
