5.003444e+002,3.088281e+001
5.013087e+002,3.049557e+001
5.022729e+002,3.014725e+001
5.032371e+002,2.993875e+001
5.042014e+002,2.956857e+001
5.051656e+002,2.907379e+001
5.061298e+002,2.820929e+001
5.070941e+002,2.661203e+001
5.080583e+002,2.387576e+001
5.090225e+002,2.217755e+001
5.099868e+002,2.155728e+001
5.109510e+002,2.150543e+001
5.119152e+002,2.175375e+001
5.128795e+002,2.229095e+001
5.138437e+002,2.350412e+001
5.148079e+002,2.713739e+001
5.157722e+002,3.012366e+001
5.167364e+002,3.070215e+001
5.177006e+002,2.887585e+001
5.186649e+002,2.628094e+001
5.196291e+002,2.453125e+001
5.205933e+002,2.386014e+001
5.215576e+002,2.483200e+001
5.225218e+002,2.704349e+001
5.234860e+002,2.914380e+001
5.244503e+002,2.889612e+001
5.254145e+002,2.565845e+001
5.263787e+002,2.315405e+001
5.273430e+002,2.143524e+001
5.283072e+002,2.039099e+001
5.292714e+002,2.001251e+001
5.302357e+002,2.079050e+001
5.311999e+002,2.039642e+001
5.321641e+002,1.795630e+001
5.331284e+002,1.537094e+001
5.340926e+002,1.416989e+001
5.350568e+002,1.488950e+001
5.360211e+002,1.566971e+001
5.369853e+002,1.500354e+001
5.379495e+002,1.386911e+001
5.389138e+002,1.268311e+001
5.398780e+002,1.170990e+001
5.408422e+002,1.120010e+001
5.418065e+002,1.250482e+001
5.427707e+002,1.525534e+001
5.437349e+002,1.649948e+001
5.446992e+002,1.490414e+001
5.456634e+002,1.156168e+001
5.466276e+002,1.044882e+001
5.475919e+002,1.516656e+001
5.485561e+002,1.787201e+001
5.495203e+002,1.704337e+001
5.504846e+002,1.429968e+001
5.514488e+002,1.197794e+001
5.524130e+002,1.095895e+001
5.533773e+002,1.059622e+001
5.543415e+002,1.043225e+001
5.553057e+002,1.057712e+001
5.562700e+002,1.130853e+001
5.572342e+002,1.275681e+001
5.581984e+002,1.429187e+001
5.591627e+002,1.454700e+001
5.601269e+002,1.400253e+001
5.610911e+002,1.319498e+001
5.620554e+002,1.232718e+001
5.630196e+002,1.131143e+001
5.639838e+002,1.003159e+001
5.649481e+002,7.852722e+000
5.659123e+002,6.342743e+000
5.668765e+002,6.333099e+000
5.678408e+002,7.471710e+000
5.688050e+002,8.492706e+000
5.697692e+002,9.105469e+000
5.707335e+002,8.822266e+000
5.716977e+002,6.825531e+000
5.726619e+002,4.294098e+000
5.736262e+002,2.784576e+000
5.745904e+002,3.467163e+000
5.755546e+002,5.295929e+000
5.765189e+002,6.799347e+000
5.774831e+002,7.714996e+000
5.784473e+002,7.602325e+000
5.794116e+002,6.251038e+000
5.803758e+002,3.949280e+000
5.813400e+002,2.765717e+000
5.823043e+002,2.475372e+000
5.832685e+002,2.597168e+000
5.842327e+002,3.221100e+000
5.851970e+002,4.441956e+000
5.861612e+002,6.064362e+000
5.871254e+002,8.699036e+000
5.880897e+002,1.074142e+001
5.890539e+002,1.224298e+001
5.900181e+002,1.276425e+001
5.909824e+002,1.144159e+001
5.919466e+002,7.054810e+000
5.929108e+002,2.359222e+000
5.938751e+002,6.838989e-002
5.948393e+002,-5.359192e-001
5.958035e+002,-4.960022e-001
5.967678e+002,-5.520325e-001
5.977320e+002,-4.785461e-001
5.986962e+002,1.478668e+000
5.996605e+002,5.207214e+000
6.006247e+002,8.087982e+000
6.015889e+002,8.819397e+000
6.025532e+002,7.538055e+000
6.035174e+002,6.058594e+000
6.044816e+002,3.544861e+000
6.054459e+002,1.866638e+000
6.064101e+002,2.255188e+000
6.073743e+002,3.494019e+000
6.083386e+002,3.184906e+000
6.093028e+002,-8.095398e-001
6.102670e+002,-4.597351e+000
6.112313e+002,-5.086304e+000
6.121955e+002,-3.684875e+000
6.131597e+002,-2.326782e+000
6.141240e+002,-2.321899e+000
6.150882e+002,-3.068695e+000
6.160524e+002,-1.230774e+000
6.170167e+002,2.796997e+000
6.179809e+002,6.153748e+000
6.189451e+002,7.443054e+000
6.199094e+002,6.754181e+000
6.208736e+002,5.512238e+000
6.218378e+002,2.450470e+000
6.228021e+002,7.784119e-001
6.237663e+002,1.865448e+000
6.247305e+002,4.302307e+000
6.256948e+002,5.702789e+000
6.266590e+002,4.705170e+000
6.276232e+002,3.053314e+000
6.285875e+002,1.915649e+000
6.295517e+002,1.146332e+000
6.305159e+002,4.210205e-001
6.314802e+002,-4.598999e-001
6.324444e+002,-1.267303e+000
6.334086e+002,-5.495605e-001
6.343729e+002,1.246094e+000
6.353371e+002,2.396790e+000
6.363013e+002,2.212891e+000
6.372656e+002,9.108887e-001
6.382298e+002,-6.056824e-001
6.391940e+002,-3.324432e+000
6.401583e+002,-4.961090e+000
6.411225e+002,-4.586426e+000
6.420867e+002,-3.202118e+000
6.430510e+002,-2.090057e+000
6.440152e+002,-1.771881e+000
6.449794e+002,-1.754852e+000
6.459437e+002,-1.930908e+000
6.469079e+002,-2.109711e+000
6.478721e+002,-2.158997e+000
6.488364e+002,-1.954742e+000
6.498006e+002,-1.346405e+000
6.507648e+002,2.639771e-001
6.517291e+002,2.281128e+000
6.526933e+002,3.352020e+000
6.536575e+002,3.193695e+000
6.546218e+002,2.104553e+000
6.555860e+002,5.769958e-001
6.565502e+002,-2.175232e+000
6.575145e+002,-3.529602e+000
6.584787e+002,-2.941406e+000
6.594429e+002,-1.581360e+000
6.604072e+002,1.858521e-002
6.613714e+002,1.925812e+000
6.623356e+002,2.814148e+000
6.632999e+002,1.031891e+000
6.642641e+002,-1.273895e+000
6.652283e+002,-3.314758e+000
6.661926e+002,-4.635742e+000
6.671568e+002,-4.860352e+000
6.681210e+002,-3.186859e+000
6.690853e+002,-6.023254e-001
6.700495e+002,5.589294e-001
6.710137e+002,2.933044e-001
6.719780e+002,-7.804871e-001
6.729422e+002,-2.165405e+000
6.739064e+002,-4.187439e+000
6.748707e+002,-4.768311e+000
6.758349e+002,-2.815094e+000
6.767991e+002,-1.197998e+000
6.777634e+002,-1.214325e+000
6.787276e+002,-2.530365e+000
6.796918e+002,-3.371582e+000
6.806561e+002,-3.134277e+000
6.816203e+002,-2.561676e+000
6.825845e+002,-1.427948e+000
6.835488e+002,-2.516174e-001
6.845130e+002,9.619141e-002
6.854772e+002,-1.099304e+000
6.864415e+002,-2.790344e+000
6.874057e+002,-2.852234e+000
6.883699e+002,-1.933807e+000
6.893342e+002,-1.075592e+000
6.902984e+002,-7.950745e-001
6.912626e+002,-9.560852e-001
6.922269e+002,-1.008179e+000
6.931911e+002,-4.643250e-001
6.941553e+002,7.205200e-002
6.951196e+002,3.269958e-001
6.960838e+002,2.931824e-001
6.970480e+002,1.068420e-001
6.980123e+002,-1.252441e-001
6.989765e+002,-4.648132e-001
6.999407e+002,-1.458710e+000
7.009050e+002,-2.272949e+000
7.018692e+002,-2.040375e+000
7.028334e+002,-6.070251e-001
7.037977e+002,1.127197e+000
7.047619e+002,1.731659e+000
7.057261e+002,1.829559e+000
7.066904e+002,2.602203e+000
7.076546e+002,4.212738e+000
7.086188e+002,5.780487e+000
7.095831e+002,5.825592e+000
7.105473e+002,3.508270e+000
7.115115e+002,1.922699e+000
7.124758e+002,1.251678e+000
7.134400e+002,8.298950e-001
7.144042e+002,4.736328e-001
7.153685e+002,2.173157e-001
7.163327e+002,-1.949158e-001
7.172969e+002,-1.315643e+000
7.182612e+002,-2.156464e+000
7.192254e+002,-2.583191e+000
7.201896e+002,-2.473053e+000
7.211539e+002,-1.312195e+000
7.221181e+002,1.625000e+000
7.230823e+002,4.845978e+000
7.240466e+002,4.010345e+000
7.250108e+002,1.895752e-001
7.259750e+002,-3.380554e+000
7.269393e+002,-5.100983e+000
7.279035e+002,-5.240845e+000
7.288677e+002,-4.479340e+000
7.298320e+002,-5.875549e-001
7.307962e+002,2.189606e+000
7.317604e+002,3.108704e+000
7.327247e+002,3.001343e+000
7.336889e+002,2.862732e+000
7.346531e+002,2.718719e+000
7.356174e+002,2.001068e+000
7.365816e+002,3.228760e-001
7.375458e+002,-1.225037e+000
7.385101e+002,-1.763092e+000
7.394743e+002,-1.133240e+000
7.404385e+002,6.875610e-002
7.414028e+002,9.181824e-001
7.423670e+002,1.142181e+000
7.433312e+002,1.506714e+000
7.442955e+002,2.407776e+000
7.452597e+002,3.264557e+000
7.462239e+002,3.059723e+000
7.471882e+002,1.143219e+000
7.481524e+002,6.729431e-001
7.491166e+002,2.567352e+000
7.500809e+002,4.036652e+000
7.510451e+002,3.561127e+000
7.520093e+002,1.714386e+000
7.529736e+002,8.921814e-001
7.539378e+002,3.589722e+000
7.549020e+002,5.849426e+000
7.558663e+002,4.638763e+000
7.568306e+002,1.615692e+000
7.577948e+002,-1.314026e+000
7.587590e+002,-2.967743e+000
7.597233e+002,-3.377136e+000
7.606875e+002,-1.290619e+000
7.616517e+002,3.016541e+000
7.626160e+002,5.478333e+000
7.635802e+002,4.445465e+000
7.645444e+002,1.725311e+000
7.655087e+002,1.222260e+000
7.664729e+002,4.620392e+000
7.674371e+002,6.397675e+000
7.684014e+002,5.474945e+000
7.693656e+002,3.801422e+000
7.703298e+002,2.333466e+000
7.712941e+002,1.345398e+000
7.722583e+002,1.003632e+000
7.732225e+002,1.965942e+000
7.741868e+002,3.133301e+000
7.751510e+002,3.515656e+000
7.761152e+002,3.354736e+000
7.770795e+002,3.380463e+000
7.780437e+002,4.216766e+000
7.790079e+002,5.660767e+000
7.799722e+002,6.611816e+000
7.809364e+002,7.325165e+000
7.819006e+002,6.862000e+000
7.828649e+002,3.925568e+000
7.838291e+002,-3.137207e-001
7.847933e+002,-2.032715e+000
7.857576e+002,7.971191e-001
7.867218e+002,2.362183e+000
7.876860e+002,1.053619e+000
7.886503e+002,-9.500122e-001
7.896145e+002,-2.035889e+000
7.905787e+002,-1.721619e+000
7.915430e+002,-4.881897e-001
7.925072e+002,1.417114e+000
7.934714e+002,3.528412e+000
7.944357e+002,6.090912e+000
7.953999e+002,8.897369e+000
7.963641e+002,1.072366e+001
7.973284e+002,1.001239e+001
7.982926e+002,6.517426e+000
7.992568e+002,5.431122e+000
8.002211e+002,7.605316e+000
8.011853e+002,9.155487e+000
8.021495e+002,8.508118e+000
8.031138e+002,6.596863e+000
8.040780e+002,6.017517e+000
8.050422e+002,8.047699e+000
8.060065e+002,9.484863e+000
8.069707e+002,8.673920e+000
8.079349e+002,6.996307e+000
8.088992e+002,5.778442e+000
8.098634e+002,5.615417e+000
8.108276e+002,6.267639e+000
8.117919e+002,7.783112e+000
8.127561e+002,9.201447e+000
8.137203e+002,9.085968e+000
8.146846e+002,7.498840e+000
8.156488e+002,5.388184e+000
8.166130e+002,3.636810e+000
8.175773e+002,1.995117e+000
8.185415e+002,1.977234e+000
8.195057e+002,4.681122e+000
8.204700e+002,6.966248e+000
8.214342e+002,7.675293e+000
8.223984e+002,7.173096e+000
8.233627e+002,6.468781e+000
8.243269e+002,5.707458e+000
8.252911e+002,5.366272e+000
8.262554e+002,5.914185e+000
8.272196e+002,6.738312e+000
8.281838e+002,7.156158e+000
8.291481e+002,6.936615e+000
8.301123e+002,6.414642e+000
8.310765e+002,6.133942e+000
8.320408e+002,6.071533e+000
8.330050e+002,6.392853e+000
8.339692e+002,7.417877e+000
8.349335e+002,8.036316e+000
8.358977e+002,6.560455e+000
8.368619e+002,2.474213e+000
8.378262e+002,9.984131e-001
8.387904e+002,4.533844e+000
8.397546e+002,7.771271e+000
8.407189e+002,9.763489e+000
8.416831e+002,1.053601e+001
8.426473e+002,1.009143e+001
8.436116e+002,8.106842e+000
8.445758e+002,6.436951e+000
8.455400e+002,7.396271e+000
8.465043e+002,9.167694e+000
8.474685e+002,9.941437e+000
8.484327e+002,9.398468e+000
8.493970e+002,8.493042e+000
8.503612e+002,8.612000e+000
8.513254e+002,9.937500e+000
8.522897e+002,1.011420e+001
8.532539e+002,8.272217e+000
8.542181e+002,6.312500e+000
8.551824e+002,5.099976e+000
8.561466e+002,4.915100e+000
8.571108e+002,6.712555e+000
8.580751e+002,1.297424e+001
8.590393e+002,1.714819e+001
8.600035e+002,1.628171e+001
8.609678e+002,1.314960e+001
8.619320e+002,1.042419e+001
8.628962e+002,9.307404e+000
8.638605e+002,9.681061e+000
8.648247e+002,1.242981e+001
8.657889e+002,1.624301e+001
8.667532e+002,1.826505e+001
8.677174e+002,1.811853e+001
8.686816e+002,1.706778e+001
8.696459e+002,1.655884e+001
8.706101e+002,1.678464e+001
8.715743e+002,1.693240e+001
8.725386e+002,1.645175e+001
8.735028e+002,1.661871e+001
8.744670e+002,1.855927e+001
8.754313e+002,2.090207e+001
8.763955e+002,2.085703e+001
8.773597e+002,1.678308e+001
8.783240e+002,1.325153e+001
8.792882e+002,1.416290e+001
8.802524e+002,1.647766e+001
8.812167e+002,1.764175e+001
8.821809e+002,1.718887e+001
8.831451e+002,1.632004e+001
8.841094e+002,1.660550e+001
8.850736e+002,1.818781e+001
8.860378e+002,2.017508e+001
8.870021e+002,2.275906e+001
8.879663e+002,2.469717e+001
8.889305e+002,2.483319e+001
8.898948e+002,2.350867e+001
8.908590e+002,2.281595e+001
8.918232e+002,2.342493e+001
8.927875e+002,2.416446e+001
8.937517e+002,2.473209e+001
8.947159e+002,2.535605e+001
8.956802e+002,2.643881e+001
8.966444e+002,2.777670e+001
8.976086e+002,2.821136e+001
8.985729e+002,2.609241e+001
8.995371e+002,2.322049e+001
9.005013e+002,2.267722e+001
9.014656e+002,2.421072e+001
9.024298e+002,2.573102e+001
9.033940e+002,2.546536e+001
9.043583e+002,2.363467e+001
9.053225e+002,2.324277e+001
9.062867e+002,2.601904e+001
9.072510e+002,2.775958e+001
9.082152e+002,2.849100e+001
9.091794e+002,2.849182e+001
9.101437e+002,2.743378e+001
9.111079e+002,2.521600e+001
9.120721e+002,2.409177e+001
9.130364e+002,2.689478e+001
9.140006e+002,2.956589e+001
9.149648e+002,2.908575e+001
9.159291e+002,2.688437e+001
9.168933e+002,2.634811e+001
9.178575e+002,2.970419e+001
9.188218e+002,3.518427e+001
9.197860e+002,3.680222e+001
9.207502e+002,3.445804e+001
9.217145e+002,3.163141e+001
9.226787e+002,2.853146e+001
9.236429e+002,2.604547e+001
9.246072e+002,2.539392e+001
9.255714e+002,2.674991e+001
9.265356e+002,2.826355e+001
9.274999e+002,3.061417e+001
9.284641e+002,3.183569e+001
9.294283e+002,3.028439e+001
9.303926e+002,2.747183e+001
9.313568e+002,2.633844e+001
9.323210e+002,2.851492e+001
9.332853e+002,3.128131e+001
9.342495e+002,2.953220e+001
9.352137e+002,2.549237e+001
9.361780e+002,2.235275e+001
9.371422e+002,2.097769e+001
9.381064e+002,2.102957e+001
9.390707e+002,2.206134e+001
9.400349e+002,2.419287e+001
9.409991e+002,2.506714e+001
9.419634e+002,2.443356e+001
9.429276e+002,2.298410e+001
9.438918e+002,2.013425e+001
9.448561e+002,1.689383e+001
9.458203e+002,1.481537e+001
9.467845e+002,1.437149e+001
9.477488e+002,1.516031e+001
9.487130e+002,1.766895e+001
9.496772e+002,2.060712e+001
9.506415e+002,2.334937e+001
9.516057e+002,2.557523e+001
9.525699e+002,2.681125e+001
9.535342e+002,2.656058e+001
9.544984e+002,2.494751e+001
9.554626e+002,2.367328e+001
9.564269e+002,2.304431e+001
9.573911e+002,2.256079e+001
9.583553e+002,2.172034e+001
9.593196e+002,2.099460e+001
9.602838e+002,2.146686e+001
9.612480e+002,2.360150e+001
9.622123e+002,2.481805e+001
9.631765e+002,2.344006e+001
9.641407e+002,2.207498e+001
9.651050e+002,2.215692e+001
9.660692e+002,2.307129e+001
9.670334e+002,2.324417e+001
9.679977e+002,2.177316e+001
9.689619e+002,1.998175e+001
9.699261e+002,2.105060e+001
9.708904e+002,2.374387e+001
9.718546e+002,2.464865e+001
9.728188e+002,2.263449e+001
9.737831e+002,1.988144e+001
9.747473e+002,1.952774e+001
9.757115e+002,2.222586e+001
9.766758e+002,2.416138e+001
9.776400e+002,2.434451e+001
9.786042e+002,2.528317e+001
9.795685e+002,2.894678e+001
9.805327e+002,3.283423e+001
9.814969e+002,3.335034e+001
9.824612e+002,2.940048e+001
9.834254e+002,2.458429e+001
9.843896e+002,2.202164e+001
9.853539e+002,2.038791e+001
9.863181e+002,1.821817e+001
9.872823e+002,1.548315e+001
9.882466e+002,1.311407e+001
9.892108e+002,1.208347e+001
9.901750e+002,1.254208e+001
9.911393e+002,1.376102e+001
9.921035e+002,1.598251e+001
9.930677e+002,1.750540e+001
9.940320e+002,1.810013e+001
9.949962e+002,1.847687e+001
9.959604e+002,1.931732e+001
9.969247e+002,2.068417e+001
9.978889e+002,2.192761e+001
9.988531e+002,2.232565e+001
9.998174e+002,2.244861e+001
1.000782e+003,2.268484e+001
1.001746e+003,2.320093e+001
1.002710e+003,2.446423e+001
1.003674e+003,2.645209e+001
1.004639e+003,2.798459e+001
1.005603e+003,2.674307e+001
1.006567e+003,2.233414e+001
1.007531e+003,2.078986e+001
1.008495e+003,2.322766e+001
1.009460e+003,2.615750e+001
1.010424e+003,2.772528e+001
1.011388e+003,2.820163e+001
1.012352e+003,2.845642e+001
1.013317e+003,2.846201e+001
1.014281e+003,2.822760e+001
1.015245e+003,2.810736e+001
1.016209e+003,2.736984e+001
1.017174e+003,2.519681e+001
1.018138e+003,2.188312e+001
1.019102e+003,1.843405e+001
1.020066e+003,1.558994e+001
1.021031e+003,1.372800e+001
1.021995e+003,1.434122e+001
1.022959e+003,1.666556e+001
1.023923e+003,1.763110e+001
1.024887e+003,1.595615e+001
1.025852e+003,1.288193e+001
1.026816e+003,1.030353e+001
1.027780e+003,8.350586e+000
1.028744e+003,7.027649e+000
1.029709e+003,6.458191e+000
1.030673e+003,6.279419e+000
1.031637e+003,6.875122e+000
1.032601e+003,7.486420e+000
1.033566e+003,6.774567e+000
1.034530e+003,4.401398e+000
1.035494e+003,2.536285e+000
1.036458e+003,4.250275e+000
1.037422e+003,7.468140e+000
1.038387e+003,8.663635e+000
1.039351e+003,7.799835e+000
1.040315e+003,6.492737e+000
1.041279e+003,5.958435e+000
1.042244e+003,6.146393e+000
1.043208e+003,6.452545e+000
1.044172e+003,6.786865e+000
1.045136e+003,7.010498e+000
1.046101e+003,7.592896e+000
1.047065e+003,7.808777e+000
1.048029e+003,6.511841e+000
1.048993e+003,4.259460e+000
1.049958e+003,3.456268e+000
1.050922e+003,5.929962e+000
1.051886e+003,8.653442e+000
1.052850e+003,8.057800e+000
1.053814e+003,5.986023e+000
1.054779e+003,4.719116e+000
1.055743e+003,4.733734e+000
1.056707e+003,5.086212e+000
1.057671e+003,4.596497e+000
1.058636e+003,3.217926e+000
1.059600e+003,3.268005e+000
1.060564e+003,6.476563e+000
1.061528e+003,9.007416e+000
1.062493e+003,1.014471e+001
1.063457e+003,1.014642e+001
1.064421e+003,8.999084e+000
1.065385e+003,6.843872e+000
1.066349e+003,5.276886e+000
1.067314e+003,5.359314e+000
1.068278e+003,6.050476e+000
1.069242e+003,6.969757e+000
1.070206e+003,7.910126e+000
1.071171e+003,8.588684e+000
1.072135e+003,8.773834e+000
1.073099e+003,8.280701e+000
1.074063e+003,6.897736e+000
1.075028e+003,4.575653e+000
1.075992e+003,2.860168e+000
1.076956e+003,9.911499e-001
1.077920e+003,4.396667e-001
1.078885e+003,3.022278e+000
1.079849e+003,7.074371e+000
1.080813e+003,9.337402e+000
1.081777e+003,9.155365e+000
1.082741e+003,8.616333e+000
1.083706e+003,8.157898e+000
1.084670e+003,7.746002e+000
1.085634e+003,7.700592e+000
1.086598e+003,7.641266e+000
1.087563e+003,6.723633e+000
1.088527e+003,4.657227e+000
1.089491e+003,2.464630e+000
1.090455e+003,1.937439e+000
1.091420e+003,3.154297e+000
1.092384e+003,4.120911e+000
1.093348e+003,4.656677e+000
1.094312e+003,5.010712e+000
1.095276e+003,5.662933e+000
1.096241e+003,6.460205e+000
1.097205e+003,6.407593e+000
1.098169e+003,4.760925e+000
1.099133e+003,3.670197e+000
1.100098e+003,4.207947e+000
1.101062e+003,5.411957e+000
1.102026e+003,7.320892e+000
1.102990e+003,9.355072e+000
1.103955e+003,1.035159e+001
1.104919e+003,9.595764e+000
1.105883e+003,7.926483e+000
1.106847e+003,7.236786e+000
1.107812e+003,7.534637e+000
1.108776e+003,7.686462e+000
1.109740e+003,7.646057e+000
1.110704e+003,7.464233e+000
1.111668e+003,7.149536e+000
1.112633e+003,6.921021e+000
1.113597e+003,7.317596e+000
1.114561e+003,8.621460e+000
1.115525e+003,9.624054e+000
1.116490e+003,1.020151e+001
1.117454e+003,1.015054e+001
1.118418e+003,8.555359e+000
1.119382e+003,6.477203e+000
1.120347e+003,6.453308e+000
1.121311e+003,9.871948e+000
1.122275e+003,1.414648e+001
1.123239e+003,1.418048e+001
1.124203e+003,1.054810e+001
1.125168e+003,8.242737e+000
1.126132e+003,7.967926e+000
1.127096e+003,8.266876e+000
1.128060e+003,7.500763e+000
1.129025e+003,6.138458e+000
1.129989e+003,7.108704e+000
1.130953e+003,1.220090e+001
1.131917e+003,1.574008e+001
1.132882e+003,1.486377e+001
1.133846e+003,1.367188e+001
1.134810e+003,1.504706e+001
1.135774e+003,1.821945e+001
1.136739e+003,2.058511e+001
1.137703e+003,2.068051e+001
1.138667e+003,1.993762e+001
1.139631e+003,2.092645e+001
1.140595e+003,2.347821e+001
1.141560e+003,2.586777e+001
1.142524e+003,2.804633e+001
1.143488e+003,3.052777e+001
1.144452e+003,3.346017e+001
1.145417e+003,3.689154e+001
1.146381e+003,4.117059e+001
1.147345e+003,4.665790e+001
1.148309e+003,5.180838e+001
1.149274e+003,5.624780e+001
1.150238e+003,6.046945e+001
1.151202e+003,6.428192e+001
1.152166e+003,6.833646e+001
1.153130e+003,7.381116e+001
1.154095e+003,8.099338e+001
1.155059e+003,8.835754e+001
1.156023e+003,9.428647e+001
1.156987e+003,9.859308e+001
1.157952e+003,1.006569e+002
1.158916e+003,1.007408e+002
1.159880e+003,9.924799e+001
1.160844e+003,9.540576e+001
1.161809e+003,8.980176e+001
1.162773e+003,8.436823e+001
1.163737e+003,7.935938e+001
1.164701e+003,7.354218e+001
1.165666e+003,6.505408e+001
1.166630e+003,5.758475e+001
1.167594e+003,5.274826e+001
1.168558e+003,4.962097e+001
1.169522e+003,4.714908e+001
1.170487e+003,4.483069e+001
1.171451e+003,4.245377e+001
1.172415e+003,3.965314e+001
1.173379e+003,3.661386e+001
1.174344e+003,3.452795e+001
1.175308e+003,3.338531e+001
1.176272e+003,3.302582e+001
1.177236e+003,3.414474e+001
1.178201e+003,3.557498e+001
1.179165e+003,3.563290e+001
1.180129e+003,3.417542e+001
1.181093e+003,3.247955e+001
1.182057e+003,3.076810e+001
1.183022e+003,2.908008e+001
1.183986e+003,2.709970e+001
1.184950e+003,2.539319e+001
1.185914e+003,2.460861e+001
1.186879e+003,2.476065e+001
1.187843e+003,2.543588e+001
1.188807e+003,2.625983e+001
1.189771e+003,2.702014e+001
1.190736e+003,2.728040e+001
1.191700e+003,2.698538e+001
1.192664e+003,2.644174e+001
1.193628e+003,2.543338e+001
1.194593e+003,2.472250e+001
1.195557e+003,2.528287e+001
1.196521e+003,2.654324e+001
1.197485e+003,2.634674e+001
1.198449e+003,2.381946e+001
1.199414e+003,2.170547e+001
1.200378e+003,2.214487e+001
1.201342e+003,2.261743e+001
1.202306e+003,2.113705e+001
1.203271e+003,1.835974e+001
1.204235e+003,1.593692e+001
1.205199e+003,1.475235e+001
1.206163e+003,1.446072e+001
1.207128e+003,1.450348e+001
1.208092e+003,1.492734e+001
1.209056e+003,1.494049e+001
1.210020e+003,1.468384e+001
1.210984e+003,1.388916e+001
1.211949e+003,1.232111e+001
1.212913e+003,1.019040e+001
1.213877e+003,7.721985e+000
1.214841e+003,5.002045e+000
1.215806e+003,2.341187e+000
1.216770e+003,-4.780273e-001
1.217734e+003,-2.727325e+000
1.218698e+003,-4.111328e+000
1.219663e+003,-4.822113e+000
1.220627e+003,-4.714325e+000
1.221591e+003,-4.028168e+000
1.222555e+003,-3.768768e+000
1.223520e+003,-4.881714e+000
1.224484e+003,-6.792969e+000
1.225448e+003,-7.065948e+000
1.226412e+003,-4.532074e+000
1.227376e+003,-3.037933e+000
1.228341e+003,-3.059540e+000
1.229305e+003,-3.659058e+000
1.230269e+003,-4.398041e+000
1.231233e+003,-5.355774e+000
1.232198e+003,-7.063293e+000
1.233162e+003,-9.679840e+000
1.234126e+003,-1.113174e+001
1.235090e+003,-9.057648e+000
1.236055e+003,-6.115143e+000
1.237019e+003,-5.327698e+000
1.237983e+003,-6.097290e+000
1.238947e+003,-6.482788e+000
1.239911e+003,-5.590576e+000
1.240876e+003,-4.087799e+000
1.241840e+003,-2.988007e+000
1.242804e+003,-2.276581e+000
1.243768e+003,-2.025848e+000
1.244733e+003,-2.449707e+000
1.245697e+003,-3.097076e+000
1.246661e+003,-4.817810e+000
1.247625e+003,-6.288574e+000
1.248590e+003,-6.174072e+000
1.249554e+003,-4.719269e+000
1.250518e+003,-3.095123e+000
1.251482e+003,-1.874969e+000
1.252447e+003,-1.175720e+000
1.253411e+003,-1.141968e+000
1.254375e+003,-1.489655e+000
1.255339e+003,-1.909760e+000
1.256303e+003,-2.279694e+000
1.257268e+003,-2.082001e+000
1.258232e+003,-9.208679e-001
1.259196e+003,4.288330e-001
1.260160e+003,4.824829e-001
1.261125e+003,-9.147034e-001
1.262089e+003,-1.674744e+000
1.263053e+003,-1.643158e+000
1.264017e+003,-1.155670e+000
1.264982e+003,2.921143e-001
1.265946e+003,1.851044e+000
1.266910e+003,2.584900e+000
1.267874e+003,2.609100e+000
1.268839e+003,3.005890e+000
1.269803e+003,4.521057e+000
1.270767e+003,6.061188e+000
1.271731e+003,5.174866e+000
1.272695e+003,2.064667e+000
1.273660e+003,7.236633e-001
1.274624e+003,1.615479e+000
1.275588e+003,2.559601e+000
1.276552e+003,2.692230e+000
1.277517e+003,2.283539e+000
1.278481e+003,1.498871e+000
1.279445e+003,2.467346e-001
1.280409e+003,-7.536011e-001
1.281374e+003,-1.190125e+000
1.282338e+003,-1.348877e+000
1.283302e+003,-1.142456e+000
1.284266e+003,-9.555359e-001
1.285230e+003,-1.191284e+000
1.286195e+003,-1.938019e+000
1.287159e+003,-3.134949e+000
1.288123e+003,-4.666260e+000
1.289087e+003,-6.174927e+000
1.290052e+003,-6.913513e+000
1.291016e+003,-7.061951e+000
1.291980e+003,-5.995331e+000
1.292944e+003,-1.886414e+000
1.293909e+003,6.974792e-001
1.294873e+003,-9.335327e-001
1.295837e+003,-4.307007e+000
1.296801e+003,-6.193634e+000
1.297766e+003,-6.148254e+000
1.298730e+003,-5.341980e+000
1.299694e+003,-3.957336e+000
1.300658e+003,-3.098022e+000
1.301622e+003,-4.736115e+000
1.302587e+003,-7.228149e+000
1.303551e+003,-7.596466e+000
1.304515e+003,-5.475830e+000
1.305479e+003,-3.586792e+000
1.306444e+003,-4.396973e+000
1.307408e+003,-6.922913e+000
1.308372e+003,-7.474487e+000
1.309336e+003,-5.294525e+000
1.310301e+003,-3.496796e+000
1.311265e+003,-1.752380e+000
1.312229e+003,-8.084717e-001
1.313193e+003,-1.391479e+000
1.314157e+003,-2.645142e+000
1.315122e+003,-3.809662e+000
1.316086e+003,-4.746613e+000
1.317050e+003,-5.643890e+000
1.318014e+003,-6.562500e+000
1.318979e+003,-7.333374e+000
1.319943e+003,-8.018341e+000
1.320907e+003,-8.345581e+000
1.321871e+003,-6.583679e+000
1.322836e+003,-1.849548e+000
1.323800e+003,1.274048e+000
1.324764e+003,-9.825439e-001
1.325728e+003,-5.604492e+000
1.326693e+003,-7.511200e+000
1.327657e+003,-6.612976e+000
1.328621e+003,-5.319977e+000
1.329585e+003,-3.587708e+000
1.330549e+003,-1.717468e+000
1.331514e+003,3.680115e-001
1.332478e+003,1.672455e+000
1.333442e+003,8.509521e-001
1.334406e+003,-1.503143e+000
1.335371e+003,-3.498840e+000
1.336335e+003,-3.989960e+000
1.337299e+003,-3.517700e+000
1.338263e+003,-3.135315e+000
1.339228e+003,-2.833191e+000
1.340192e+003,-2.646393e+000
1.341156e+003,-2.373535e+000
1.342120e+003,-2.511444e+000
1.343084e+003,-3.715271e+000
1.344049e+003,-5.126465e+000
1.345013e+003,-6.152466e+000
1.345977e+003,-6.527985e+000
1.346941e+003,-5.668793e+000
1.347906e+003,-3.278229e+000
1.348870e+003,-1.283844e+000
1.349834e+003,-2.069824e+000
1.350798e+003,-4.078735e+000
1.351763e+003,-4.036835e+000
1.352727e+003,-2.191132e+000
1.353691e+003,-1.852722e-001
1.354655e+003,1.654022e+000
1.355620e+003,2.627472e+000
1.356584e+003,1.252502e+000
1.357548e+003,-1.999268e+000
1.358512e+003,-3.071625e+000
1.359476e+003,-8.572083e-001
1.360441e+003,3.905334e-001
1.361405e+003,-1.442688e+000
1.362369e+003,-3.162323e+000
1.363333e+003,-2.805908e+000
1.364298e+003,-1.525970e+000
1.365262e+003,-1.145447e+000
1.366226e+003,-2.024963e+000
1.367190e+003,-3.130920e+000
1.368155e+003,-3.551117e+000
1.369119e+003,-3.392212e+000
1.370083e+003,-2.909210e+000
1.371047e+003,-1.853210e+000
1.372011e+003,-1.187317e+000
1.372976e+003,-1.492188e+000
1.373940e+003,-1.764923e+000
1.374904e+003,-1.459717e+000
1.375868e+003,-8.923035e-001
1.376833e+003,-3.884277e-001
1.377797e+003,-9.024048e-002
1.378761e+003,-3.955383e-001
1.379725e+003,-1.639526e+000
1.380690e+003,-2.834534e+000
1.381654e+003,-2.683105e+000
1.382618e+003,-1.907501e+000
1.383582e+003,-1.516327e+000
1.384547e+003,-1.535370e+000
1.385511e+003,-1.530914e+000
1.386475e+003,-1.305267e+000
1.387439e+003,-1.170959e+000
1.388403e+003,-1.961426e+000
1.389368e+003,-3.684937e+000
1.390332e+003,-3.390686e+000
1.391296e+003,8.892822e-001
1.392260e+003,3.561951e+000
1.393225e+003,2.183502e+000
1.394189e+003,2.562256e-001
1.395153e+003,-3.161316e-001
1.396117e+003,-7.415771e-002
1.397082e+003,-2.479553e-001
1.398046e+003,-1.024811e+000
1.399010e+003,-1.349365e+000
1.399974e+003,-3.135986e-001
1.400938e+003,1.244354e+000
1.401903e+003,1.168945e+000
1.402867e+003,-5.842285e-001
1.403831e+003,-1.868988e+000
1.404795e+003,-3.551758e+000
1.405760e+003,-4.083313e+000
1.406724e+003,-2.078644e+000
1.407688e+003,2.092896e-001
1.408652e+003,-4.775391e-001
1.409617e+003,-3.269104e+000
1.410581e+003,-2.694305e+000
1.411545e+003,4.198730e+000
1.412509e+003,1.054855e+001
1.413474e+003,8.233032e+000
1.414438e+003,1.708984e+000
1.415402e+003,-1.490143e+000
1.416366e+003,-1.358368e+000
1.417330e+003,4.125977e-002
1.418295e+003,2.205994e+000
1.419259e+003,4.296906e+000
1.420223e+003,5.118530e+000
1.421187e+003,4.769684e+000
1.422152e+003,4.631805e+000
1.423116e+003,5.179321e+000
1.424080e+003,5.101868e+000
1.425044e+003,2.848877e+000
1.426009e+003,8.451233e-001
1.426973e+003,-2.456665e-002
1.427937e+003,-2.511597e-002
1.428901e+003,9.253845e-001
1.429865e+003,2.520508e+000
1.430830e+003,3.862427e+000
1.431794e+003,4.278015e+000
1.432758e+003,3.833008e+000
1.433722e+003,2.729889e+000
1.434687e+003,1.002045e+000
1.435651e+003,1.425934e+000
1.436615e+003,5.881348e+000
1.437579e+003,8.517670e+000
1.438544e+003,8.404907e+000
1.439508e+003,6.915558e+000
1.440472e+003,3.820160e+000
1.441436e+003,6.488953e-001
1.442401e+003,2.128296e-001
1.443365e+003,2.894043e+000
1.444329e+003,5.986206e+000
1.445293e+003,7.724701e+000
1.446257e+003,8.312866e+000
1.447222e+003,7.616211e+000
1.448186e+003,5.873291e+000
1.449150e+003,4.547516e+000
1.450114e+003,3.776764e+000
1.451079e+003,3.120056e+000
1.452043e+003,2.157532e+000
1.453007e+003,1.550385e+000
1.453971e+003,2.279480e+000
1.454936e+003,4.121948e+000
1.455900e+003,5.981964e+000
1.456864e+003,7.908173e+000
1.457828e+003,9.204132e+000
1.458792e+003,9.102264e+000
1.459757e+003,8.261505e+000
1.460721e+003,6.772827e+000
1.461685e+003,5.090179e+000
1.462649e+003,4.135529e+000
1.463614e+003,4.180481e+000
1.464578e+003,4.636871e+000
1.465542e+003,4.946442e+000
1.466506e+003,5.128052e+000
1.467471e+003,5.520203e+000
1.468435e+003,6.465393e+000
1.469399e+003,6.888885e+000
1.470363e+003,5.678375e+000
1.471328e+003,5.040466e+000
1.472292e+003,5.942810e+000
1.473256e+003,6.771973e+000
1.474220e+003,6.704285e+000
1.475184e+003,5.923065e+000
1.476149e+003,4.373840e+000
1.477113e+003,2.261902e+000
1.478077e+003,9.529114e-001
1.479041e+003,1.966431e+000
1.480006e+003,4.551331e+000
1.480970e+003,5.772003e+000
1.481934e+003,4.765259e+000
1.482898e+003,5.363068e+000
1.483863e+003,9.744446e+000
1.484827e+003,1.240604e+001
1.485791e+003,1.072308e+001
1.486755e+003,8.029297e+000
1.487719e+003,7.113770e+000
1.488684e+003,7.679657e+000
1.489648e+003,8.373810e+000
1.490612e+003,8.824890e+000
1.491576e+003,9.321045e+000
1.492541e+003,9.952148e+000
1.493505e+003,1.080408e+001
1.494469e+003,1.230823e+001
1.495433e+003,1.415173e+001
1.496398e+003,1.548502e+001
1.497362e+003,1.633612e+001
1.498326e+003,1.719717e+001
1.499290e+003,1.799158e+001
1.500255e+003,1.910956e+001
1.501219e+003,2.106607e+001
1.502183e+003,2.375778e+001
1.503147e+003,2.704700e+001
1.504111e+003,3.118585e+001
1.505076e+003,3.438998e+001
1.506040e+003,3.469864e+001
1.507004e+003,3.465576e+001
1.507968e+003,3.659225e+001
1.508933e+003,4.011810e+001
1.509897e+003,4.444125e+001
1.510861e+003,4.961865e+001
1.511825e+003,5.626544e+001
1.512790e+003,6.501581e+001
1.513754e+003,7.453986e+001
1.514718e+003,8.225751e+001
1.515682e+003,8.804874e+001
1.516646e+003,9.493552e+001
1.517611e+003,1.037972e+002
1.518575e+003,1.126848e+002
1.519539e+003,1.218980e+002
1.520503e+003,1.303362e+002
1.521468e+003,1.380620e+002
1.522432e+003,1.441571e+002
1.523396e+003,1.467851e+002
1.524360e+003,1.463441e+002
1.525325e+003,1.459853e+002
1.526289e+003,1.478379e+002
1.527253e+003,1.496402e+002
1.528217e+003,1.472478e+002
1.529182e+003,1.407519e+002
1.530146e+003,1.327341e+002
1.531110e+003,1.215879e+002
1.532074e+003,1.116406e+002
1.533039e+003,1.041384e+002
1.534003e+003,9.589966e+001
1.534967e+003,8.570712e+001
1.535931e+003,7.459296e+001
1.536896e+003,6.287320e+001
1.537860e+003,5.144006e+001
1.538824e+003,4.219028e+001
1.539788e+003,3.590094e+001
1.540752e+003,3.057602e+001
1.541717e+003,2.346667e+001
1.542681e+003,1.558627e+001
1.543645e+003,1.284583e+001
1.544609e+003,1.875696e+001
1.545573e+003,2.132855e+001
1.546538e+003,1.822855e+001
1.547502e+003,1.447974e+001
1.548466e+003,1.150330e+001
1.549430e+003,9.491821e+000
1.550395e+003,8.170532e+000
1.551359e+003,7.703491e+000
1.552323e+003,9.490845e+000
1.553287e+003,1.376892e+001
1.554252e+003,1.675552e+001
1.555216e+003,1.473065e+001
1.556180e+003,1.018106e+001
1.557144e+003,9.110687e+000
1.558109e+003,1.173892e+001
1.559073e+003,1.332675e+001
1.560037e+003,1.364554e+001
1.561001e+003,1.260968e+001
1.561966e+003,8.891144e+000
1.562930e+003,5.499664e+000
1.563894e+003,5.843781e+000
1.564858e+003,8.352051e+000
1.565823e+003,8.727142e+000
1.566787e+003,6.272125e+000
1.567751e+003,4.643829e+000
1.568715e+003,6.109161e+000
1.569679e+003,8.841339e+000
1.570644e+003,1.125955e+001
1.571608e+003,1.269077e+001
1.572572e+003,1.109317e+001
1.573536e+003,6.426270e+000
1.574500e+003,3.248138e+000
1.575465e+003,3.545044e+000
1.576429e+003,4.827667e+000
1.577393e+003,4.619019e+000
1.578357e+003,4.105316e+000
1.579322e+003,6.731567e+000
1.580286e+003,1.231561e+001
1.581250e+003,1.474512e+001
1.582214e+003,1.122244e+001
1.583179e+003,7.793152e+000
1.584143e+003,9.460236e+000
1.585107e+003,1.295438e+001
1.586071e+003,1.418228e+001
1.587036e+003,1.381696e+001
1.588000e+003,1.332056e+001
1.588964e+003,1.286942e+001
1.589928e+003,1.234018e+001
1.590893e+003,1.174435e+001
1.591857e+003,1.100674e+001
1.592821e+003,9.597107e+000
1.593785e+003,7.864655e+000
1.594750e+003,7.783661e+000
1.595714e+003,9.700958e+000
1.596678e+003,1.217413e+001
1.597642e+003,1.563879e+001
1.598606e+003,1.800952e+001
1.599571e+003,1.626364e+001
1.600535e+003,1.344012e+001
1.601499e+003,1.402676e+001
1.602463e+003,1.753479e+001
1.603427e+003,1.966299e+001
1.604392e+003,1.850317e+001
1.605356e+003,1.704147e+001
1.606320e+003,1.934210e+001
1.607284e+003,2.337100e+001
1.608249e+003,2.232141e+001
1.609213e+003,1.594672e+001
1.610177e+003,1.263058e+001
1.611141e+003,1.490924e+001
1.612106e+003,1.743158e+001
1.613070e+003,1.817950e+001
1.614034e+003,1.763596e+001
1.614998e+003,1.495810e+001
1.615963e+003,1.170404e+001
1.616927e+003,1.056653e+001
1.617891e+003,1.175150e+001
1.618855e+003,1.339810e+001
1.619820e+003,1.442352e+001
1.620784e+003,1.478616e+001
1.621748e+003,1.452271e+001
1.622712e+003,1.398300e+001
1.623677e+003,1.397806e+001
1.624641e+003,1.468103e+001
1.625605e+003,1.501831e+001
1.626569e+003,1.401132e+001
1.627533e+003,1.300183e+001
1.628498e+003,1.287299e+001
1.629462e+003,1.319415e+001
1.630426e+003,1.381918e+001
1.631390e+003,1.445697e+001
1.632354e+003,1.443002e+001
1.633319e+003,1.367703e+001
1.634283e+003,1.329114e+001
1.635247e+003,1.415817e+001
1.636211e+003,1.550214e+001
1.637176e+003,1.607422e+001
1.638140e+003,1.597620e+001
1.639104e+003,1.559888e+001
1.640068e+003,1.483008e+001
1.641033e+003,1.387289e+001
1.641997e+003,1.203110e+001
1.642961e+003,1.127994e+001
1.643925e+003,1.387238e+001
1.644890e+003,1.685880e+001
1.645854e+003,1.707071e+001
1.646818e+003,1.513269e+001
1.647782e+003,1.309167e+001
1.648747e+003,1.168054e+001
1.649711e+003,1.125293e+001
1.650675e+003,1.233969e+001
1.651639e+003,1.437146e+001
1.652604e+003,1.646994e+001
1.653568e+003,1.847092e+001
1.654532e+003,1.755853e+001
1.655496e+003,1.231650e+001
1.656460e+003,8.743988e+000
1.657425e+003,9.235565e+000
1.658389e+003,1.103091e+001
1.659353e+003,1.373618e+001
1.660317e+003,1.602100e+001
1.661281e+003,1.580634e+001
1.662246e+003,1.390146e+001
1.663210e+003,1.324280e+001
1.664174e+003,1.480048e+001
1.665138e+003,1.648041e+001
1.666103e+003,1.660535e+001
1.667067e+003,1.534698e+001
1.668031e+003,1.238068e+001
1.668995e+003,8.027405e+000
1.669960e+003,6.756378e+000
1.670924e+003,9.917877e+000
1.671888e+003,1.193814e+001
1.672852e+003,1.027698e+001
1.673817e+003,8.080719e+000
1.674781e+003,7.014435e+000
1.675745e+003,6.700714e+000
1.676709e+003,6.679779e+000
1.677674e+003,7.033173e+000
1.678638e+003,8.493408e+000
1.679602e+003,1.125717e+001
1.680566e+003,1.328571e+001
1.681531e+003,1.265430e+001
1.682495e+003,1.104553e+001
1.683459e+003,1.155804e+001
1.684423e+003,1.359567e+001
1.685387e+003,1.381476e+001
1.686352e+003,1.180328e+001
1.687316e+003,9.303711e+000
1.688280e+003,6.167908e+000
1.689244e+003,3.963898e+000
1.690208e+003,4.663116e+000
1.691173e+003,6.301270e+000
1.692137e+003,7.212280e+000
1.693101e+003,7.373047e+000
1.694065e+003,6.321045e+000
1.695030e+003,3.725189e+000
1.695994e+003,1.737244e+000
1.696958e+003,2.194824e+000
1.697922e+003,3.490814e+000
1.698887e+003,3.392151e+000
1.699851e+003,2.558411e+000
1.700815e+003,3.323120e+000
1.701779e+003,5.730682e+000
1.702744e+003,6.288727e+000
1.703708e+003,3.489014e+000
1.704672e+003,1.110962e+000
1.705636e+003,2.197906e+000
1.706601e+003,4.449890e+000
1.707565e+003,4.489471e+000
1.708529e+003,3.155365e+000
1.709493e+003,2.811432e+000
1.710458e+003,3.812012e+000
1.711422e+003,4.720642e+000
1.712386e+003,4.839539e+000
1.713350e+003,5.050751e+000
1.714314e+003,6.548370e+000
1.715279e+003,8.035797e+000
1.716243e+003,6.942017e+000
1.717207e+003,3.788513e+000
1.718171e+003,1.755219e+000
1.719135e+003,1.755127e+000
1.720100e+003,2.471527e+000
1.721064e+003,3.068604e+000
1.722028e+003,3.653107e+000
1.722992e+003,4.701538e+000
1.723957e+003,6.151154e+000
1.724921e+003,6.768494e+000
1.725885e+003,6.346649e+000
1.726849e+003,4.851898e+000
1.727814e+003,1.250305e+000
1.728778e+003,-1.435669e+000
1.729742e+003,-1.368439e+000
1.730706e+003,-4.195557e-001
1.731671e+003,-5.823059e-001
1.732635e+003,-1.556671e+000
1.733599e+003,-2.067352e+000
1.734563e+003,-1.753876e+000
1.735528e+003,-1.228180e+000
1.736492e+003,-8.798828e-001
1.737456e+003,8.923340e-002
1.738420e+003,2.888702e+000
1.739385e+003,6.358765e+000
1.740349e+003,6.523407e+000
1.741313e+003,2.562805e+000
1.742277e+003,7.965088e-002
1.743241e+003,2.531433e-001
1.744206e+003,2.127991e-001
1.745170e+003,-1.156250e+000
1.746134e+003,-2.108795e+000
1.747098e+003,-1.286499e+000
1.748063e+003,1.506348e-001
1.749027e+003,1.139374e+000
1.749991e+003,1.441467e+000
1.750955e+003,6.630859e-001
1.751919e+003,-1.059509e+000
1.752884e+003,-2.153625e+000
1.753848e+003,-1.296234e+000
1.754812e+003,4.668884e-001
1.755776e+003,1.119293e+000
1.756741e+003,8.408508e-001
1.757705e+003,1.089600e+000
1.758669e+003,2.422211e+000
1.759633e+003,2.196075e+000
1.760598e+003,-2.234955e+000
1.761562e+003,-5.016144e+000
1.762526e+003,-2.156189e+000
1.763490e+003,9.016724e-001
1.764455e+003,-4.396362e-001
1.765419e+003,-3.741974e+000
1.766383e+003,-5.055817e+000
1.767347e+003,-4.032196e+000
1.768312e+003,-2.142578e+000
1.769276e+003,-7.452393e-002
1.770240e+003,5.969238e-001
1.771204e+003,-2.515594e+000
1.772168e+003,-6.975647e+000
1.773133e+003,-6.962738e+000
1.774097e+003,-3.011078e+000
1.775061e+003,-6.086426e-001
1.776025e+003,-6.667786e-001
1.776990e+003,-4.123840e-001
1.777954e+003,1.856842e+000
1.778918e+003,3.396362e+000
1.779882e+003,9.510193e-001
1.780846e+003,-2.615387e+000
1.781811e+003,-3.103851e+000
1.782775e+003,-1.260071e+000
1.783739e+003,3.425293e-001
1.784703e+003,1.389496e+000
1.785668e+003,2.374420e+000
1.786632e+003,3.341858e+000
1.787596e+003,4.122284e+000
1.788560e+003,5.327728e+000
1.789525e+003,6.176239e+000
1.790489e+003,4.842438e+000
1.791453e+003,1.943787e+000
1.792417e+003,-4.217529e-001
1.793382e+003,-1.702393e+000
1.794346e+003,-1.822113e+000
1.795310e+003,-6.925659e-001
1.796274e+003,7.543030e-001
1.797239e+003,1.656586e+000
1.798203e+003,2.126251e+000
1.799167e+003,1.851501e+000
1.800131e+003,3.833313e-001
1.801095e+003,-1.115753e+000
1.802060e+003,-2.750519e+000
1.803024e+003,-3.621429e+000
1.803988e+003,-3.471069e+000
1.804952e+003,-2.979065e+000
1.805917e+003,-1.966431e+000
1.806881e+003,-1.198639e+000
1.807845e+003,-1.949310e+000
1.808809e+003,-3.225769e+000
1.809773e+003,-2.567993e+000
1.810738e+003,7.766724e-002
1.811702e+003,1.782990e+000
1.812666e+003,7.372131e-001
1.813630e+003,-1.067383e+000
1.814595e+003,-8.272400e-001
1.815559e+003,6.946716e-001
1.816523e+003,3.616638e-001
1.817487e+003,-2.012543e+000
1.818452e+003,-3.808563e+000
1.819416e+003,-5.128143e+000
1.820380e+003,-4.615234e+000
1.821344e+003,1.196594e-001
1.822309e+003,3.558655e+000
1.823273e+003,6.221619e-001
1.824237e+003,-3.442627e+000
1.825201e+003,-2.689484e+000
1.826166e+003,1.147186e+000
1.827130e+003,3.052826e+000
1.828094e+003,2.098328e+000
1.829058e+003,5.993652e-002
1.830022e+003,-2.759857e+000
1.830987e+003,-5.003387e+000
1.831951e+003,-5.302216e+000
1.832915e+003,-4.515930e+000
1.833879e+003,-3.742889e+000
1.834844e+003,-3.022919e+000
1.835808e+003,-1.988617e+000
1.836772e+003,-7.135925e-001
1.837736e+003,-5.848389e-001
1.838700e+003,-2.327942e+000
1.839665e+003,-4.347046e+000
1.840629e+003,-5.275513e+000
1.841593e+003,-4.908234e+000
1.842557e+003,-2.553589e+000
1.843522e+003,1.722595e+000
1.844486e+003,3.508667e+000
1.845450e+003,1.368988e+000
1.846414e+003,-1.591187e-001
1.847379e+003,-1.055359e+000
1.848343e+003,-1.885376e+000
1.849307e+003,-3.180695e+000
1.850271e+003,-3.905579e+000
1.851236e+003,-2.780182e+000
1.852200e+003,-8.145752e-001
1.853164e+003,6.872559e-001
1.854128e+003,1.279480e+000
1.855093e+003,8.295288e-001
1.856057e+003,-4.695740e-001
1.857021e+003,-1.955231e+000
1.857985e+003,-3.285767e+000
1.858949e+003,-4.016022e+000
1.859914e+003,-2.832794e+000
1.860878e+003,-1.896057e-001
1.861842e+003,8.694763e-001
1.862806e+003,2.241516e-001
1.863771e+003,4.679871e-001
1.864735e+003,2.431763e+000
1.865699e+003,2.948517e+000
1.866663e+003,-3.475952e-002
1.867627e+003,-3.308655e+000
1.868592e+003,-4.285034e+000
1.869556e+003,-3.821350e+000
1.870520e+003,-2.840515e+000
1.871484e+003,-1.571381e+000
1.872449e+003,-1.664551e+000
1.873413e+003,-3.424408e+000
1.874377e+003,-4.202698e+000
1.875341e+003,-2.813751e+000
1.876306e+003,-1.598297e+000
1.877270e+003,-2.176117e+000
1.878234e+003,-3.275482e+000
1.879198e+003,-3.553741e+000
1.880163e+003,-3.269958e+000
1.881127e+003,-3.165771e+000
1.882091e+003,-3.227539e+000
1.883055e+003,-2.800842e+000
1.884020e+003,-1.692200e+000
1.884984e+003,-6.597900e-001
1.885948e+003,-3.836365e-001
1.886912e+003,-5.929565e-001
1.887876e+003,-7.948608e-001
1.888841e+003,-9.420471e-001
1.889805e+003,-4.827576e-001
1.890769e+003,8.901672e-001
1.891733e+003,1.066803e+000
1.892698e+003,-1.033997e+000
1.893662e+003,-2.446411e+000
1.894626e+003,-1.398254e+000
1.895590e+003,-2.664490e-001
1.896554e+003,-1.332581e+000
1.897519e+003,-2.605255e+000
1.898483e+003,-1.356812e+000
1.899447e+003,1.530701e+000
1.900411e+003,3.261627e+000
1.901376e+003,3.412506e+000
1.902340e+003,2.938995e+000
1.903304e+003,1.755524e+000
1.904268e+003,6.733093e-001
1.905233e+003,2.273865e-001
1.906197e+003,1.980896e-001
1.907161e+003,5.306396e-001
1.908125e+003,1.087616e+000
1.909090e+003,1.518524e+000
1.910054e+003,1.746826e+000
1.911018e+003,2.151642e+000
1.911982e+003,2.828705e+000
1.912947e+003,2.912537e+000
1.913911e+003,1.720428e+000
1.914875e+003,2.249451e-001
1.915839e+003,-6.741333e-002
1.916803e+003,4.505615e-001
1.917768e+003,2.675781e-001
1.918732e+003,-7.551880e-001
1.919696e+003,-6.867981e-001
1.920660e+003,1.373993e+000
1.921625e+003,2.198456e+000
1.922589e+003,-1.481628e-001
1.923553e+003,-2.044434e+000
1.924517e+003,-6.856995e-001
1.925481e+003,1.189270e+000
1.926446e+003,7.703247e-001
1.927410e+003,-7.064514e-001
1.928374e+003,-4.617920e-001
1.929338e+003,1.409851e+000
1.930303e+003,1.983429e+000
1.931267e+003,1.445618e-001
1.932231e+003,-1.005463e+000
1.933195e+003,2.903442e-001
1.934160e+003,1.973785e+000
1.935124e+003,2.807098e+000
1.936088e+003,2.884918e+000
1.937052e+003,2.019531e+000
1.938017e+003,9.394226e-001
1.938981e+003,1.335785e+000
1.939945e+003,2.960999e+000
1.940909e+003,3.376099e+000
1.941874e+003,1.559570e+000
1.942838e+003,-5.289001e-001
1.943802e+003,-9.356689e-001
1.944766e+003,-3.293152e-001
1.945730e+003,-4.460449e-001
1.946695e+003,-1.206757e+000
1.947659e+003,-9.629517e-001
1.948623e+003,3.572998e-001
1.949587e+003,1.341705e+000
1.950552e+003,1.727905e+000
1.951516e+003,2.718475e+000
1.952480e+003,5.306854e+000
1.953444e+003,7.282135e+000
1.954408e+003,6.723969e+000
1.955373e+003,4.886841e+000
1.956337e+003,3.370605e+000
1.957301e+003,2.378967e+000
1.958265e+003,2.215607e+000
1.959230e+003,3.062347e+000
1.960194e+003,3.417877e+000
1.961158e+003,2.226501e+000
1.962122e+003,1.309479e+000
1.963087e+003,1.434296e+000
1.964051e+003,1.668884e+000
1.965015e+003,1.413666e+000
1.965979e+003,1.353729e+000
1.966944e+003,2.329712e+000
1.967908e+003,3.697906e+000
1.968872e+003,4.471039e+000
1.969836e+003,4.483429e+000
1.970801e+003,3.749634e+000
1.971765e+003,2.398132e+000
1.972729e+003,1.694977e+000
1.973693e+003,2.887360e+000
1.974657e+003,4.711639e+000
1.975622e+003,5.305420e+000
1.976586e+003,4.925720e+000
1.977550e+003,4.347687e+000
1.978514e+003,3.670471e+000
1.979479e+003,2.914215e+000
1.980443e+003,2.073425e+000
1.981407e+003,1.470184e+000
1.982371e+003,1.283813e+000
1.983335e+003,1.418884e+000
1.984300e+003,1.763428e+000
1.985264e+003,2.046692e+000
1.986228e+003,1.954498e+000
1.987192e+003,1.525177e+000
1.988157e+003,9.341431e-001
1.989121e+003,7.843018e-002
1.990085e+003,-4.647827e-002
1.991049e+003,1.131378e+000
1.992014e+003,2.058624e+000
1.992978e+003,2.035919e+000
1.993942e+003,2.273621e+000
1.994906e+003,3.629791e+000
1.995871e+003,4.945282e+000
1.996835e+003,5.668579e+000
1.997799e+003,5.733124e+000
1.998763e+003,4.728058e+000
1.999728e+003,2.852600e+000
