5.003444e+002,3.740787e+001
5.013087e+002,3.825861e+001
5.022729e+002,3.689444e+001
5.032371e+002,3.445697e+001
5.042014e+002,3.419406e+001
5.051656e+002,3.580591e+001
5.061298e+002,3.765884e+001
5.070941e+002,3.824725e+001
5.080583e+002,3.723834e+001
5.090225e+002,3.593268e+001
5.099868e+002,3.386111e+001
5.109510e+002,3.204181e+001
5.119152e+002,3.103732e+001
5.128795e+002,3.091931e+001
5.138437e+002,3.113904e+001
5.148079e+002,3.189160e+001
5.157722e+002,3.269827e+001
5.167364e+002,3.335144e+001
5.177006e+002,3.372308e+001
5.186649e+002,3.379413e+001
5.196291e+002,3.393829e+001
5.205933e+002,3.388541e+001
5.215576e+002,3.251202e+001
5.225218e+002,2.978894e+001
5.234860e+002,2.682086e+001
5.244503e+002,2.586578e+001
5.254145e+002,2.806668e+001
5.263787e+002,2.909247e+001
5.273430e+002,2.839453e+001
5.283072e+002,2.691064e+001
5.292714e+002,2.580319e+001
5.302357e+002,2.491983e+001
5.311999e+002,2.408316e+001
5.321641e+002,2.354752e+001
5.331284e+002,2.331903e+001
5.340926e+002,2.352420e+001
5.350568e+002,2.416095e+001
5.360211e+002,2.409772e+001
5.369853e+002,2.134702e+001
5.379495e+002,1.845013e+001
5.389138e+002,1.777817e+001
5.398780e+002,2.004370e+001
5.408422e+002,2.389590e+001
5.418065e+002,2.596280e+001
5.427707e+002,2.640479e+001
5.437349e+002,2.569611e+001
5.446992e+002,2.347864e+001
5.456634e+002,2.038330e+001
5.466276e+002,1.872635e+001
5.475919e+002,2.028937e+001
5.485561e+002,2.143689e+001
5.495203e+002,2.182516e+001
5.504846e+002,2.161084e+001
5.514488e+002,2.106955e+001
5.524130e+002,2.024539e+001
5.533773e+002,1.954446e+001
5.543415e+002,1.926361e+001
5.553057e+002,1.913898e+001
5.562700e+002,1.894211e+001
5.572342e+002,1.849622e+001
5.581984e+002,1.766266e+001
5.591627e+002,1.578998e+001
5.601269e+002,1.353943e+001
5.610911e+002,1.225125e+001
5.620554e+002,1.262277e+001
5.630196e+002,1.430890e+001
5.639838e+002,1.494559e+001
5.649481e+002,1.358868e+001
5.659123e+002,1.259076e+001
5.668765e+002,1.291455e+001
5.678408e+002,1.419107e+001
5.688050e+002,1.503763e+001
5.697692e+002,1.477478e+001
5.707335e+002,1.371011e+001
5.716977e+002,1.142596e+001
5.726619e+002,8.809906e+000
5.736262e+002,6.903503e+000
5.745904e+002,6.425079e+000
5.755546e+002,7.147980e+000
5.765189e+002,9.081818e+000
5.774831e+002,1.129153e+001
5.784473e+002,1.217542e+001
5.794116e+002,1.074326e+001
5.803758e+002,7.428528e+000
5.813400e+002,6.006378e+000
5.823043e+002,6.567627e+000
5.832685e+002,7.176575e+000
5.842327e+002,7.651428e+000
5.851970e+002,8.056427e+000
5.861612e+002,7.876923e+000
5.871254e+002,5.840790e+000
5.880897e+002,4.180176e+000
5.890539e+002,2.796539e+000
5.900181e+002,2.049164e+000
5.909824e+002,2.864044e+000
5.919466e+002,6.800903e+000
5.929108e+002,1.040494e+001
5.938751e+002,9.683289e+000
5.948393e+002,6.444489e+000
5.958035e+002,3.319550e+000
5.967678e+002,2.270691e+000
5.977320e+002,3.130707e+000
5.986962e+002,4.229889e+000
5.996605e+002,5.367798e+000
6.006247e+002,6.186615e+000
6.015889e+002,6.693909e+000
6.025532e+002,6.879944e+000
6.035174e+002,6.286499e+000
6.044816e+002,2.906616e+000
6.054459e+002,1.067719e+000
6.064101e+002,2.479218e+000
6.073743e+002,5.669830e+000
6.083386e+002,7.979889e+000
6.093028e+002,7.885132e+000
6.102670e+002,6.997955e+000
6.112313e+002,6.125122e+000
6.121955e+002,5.545135e+000
6.131597e+002,5.789490e+000
6.141240e+002,7.183624e+000
6.150882e+002,9.224060e+000
6.160524e+002,9.961334e+000
6.170167e+002,9.732635e+000
6.179809e+002,8.776306e+000
6.189451e+002,6.727905e+000
6.199094e+002,3.755096e+000
6.208736e+002,1.962402e+000
6.218378e+002,2.746979e+000
6.228021e+002,3.697174e+000
6.237663e+002,5.075073e+000
6.247305e+002,6.455261e+000
6.256948e+002,7.029724e+000
6.266590e+002,5.994171e+000
6.276232e+002,4.661133e+000
6.285875e+002,3.962433e+000
6.295517e+002,3.726593e+000
6.305159e+002,3.852844e+000
6.314802e+002,4.181061e+000
6.324444e+002,4.365021e+000
6.334086e+002,3.675842e+000
6.343729e+002,2.462860e+000
6.353371e+002,6.955872e-001
6.363013e+002,-1.931763e+000
6.372656e+002,-4.900787e+000
6.382298e+002,-6.133728e+000
6.391940e+002,-3.333466e+000
6.401583e+002,-1.890228e+000
6.411225e+002,-2.508453e+000
6.420867e+002,-3.744537e+000
6.430510e+002,-3.903687e+000
6.440152e+002,-2.344452e+000
6.449794e+002,-1.228180e+000
6.459437e+002,-2.121826e+000
6.469079e+002,-3.491302e+000
6.478721e+002,-4.031799e+000
6.488364e+002,-3.289185e+000
6.498006e+002,-1.974030e+000
6.507648e+002,-1.439087e+000
6.517291e+002,-1.469635e+000
6.526933e+002,-1.392365e+000
6.536575e+002,-1.090668e+000
6.546218e+002,-6.983337e-001
6.555860e+002,-4.425354e-001
6.565502e+002,-2.968750e-001
6.575145e+002,-5.028076e-001
6.584787e+002,-1.309753e+000
6.594429e+002,-2.186737e+000
6.604072e+002,-2.928711e+000
6.613714e+002,-3.577728e+000
6.623356e+002,-3.280640e+000
6.632999e+002,-5.169678e-002
6.642641e+002,2.596558e+000
6.652283e+002,2.352753e+000
6.661926e+002,-3.818665e-001
6.671568e+002,-3.190002e+000
6.681210e+002,-3.140686e+000
6.690853e+002,-1.363373e+000
6.700495e+002,-1.127808e+000
6.710137e+002,-2.357452e+000
6.719780e+002,-3.176849e+000
6.729422e+002,-1.434540e+000
6.739064e+002,3.579254e+000
6.748707e+002,6.293976e+000
6.758349e+002,6.225830e+000
6.767991e+002,5.120483e+000
6.777634e+002,3.463989e+000
6.787276e+002,1.526306e+000
6.796918e+002,-2.288818e-002
6.806561e+002,-1.089508e+000
6.816203e+002,-1.911316e+000
6.825845e+002,-2.670532e+000
6.835488e+002,-3.221222e+000
6.845130e+002,-3.145325e+000
6.854772e+002,-2.001007e+000
6.864415e+002,-3.933105e-001
6.874057e+002,-2.349854e-002
6.883699e+002,-7.680969e-001
6.893342e+002,-2.050781e+000
6.902984e+002,-3.579742e+000
6.912626e+002,-5.110840e+000
6.922269e+002,-5.403809e+000
6.931911e+002,-2.738342e+000
6.941553e+002,-5.612488e-001
6.951196e+002,3.212585e-001
6.960838e+002,3.992004e-001
6.970480e+002,7.649841e-001
6.980123e+002,2.217133e+000
6.989765e+002,2.660431e+000
6.999407e+002,2.539063e-002
7.009050e+002,-2.954376e+000
7.018692e+002,-3.545532e+000
7.028334e+002,-1.171356e+000
7.037977e+002,1.513916e+000
7.047619e+002,-5.450134e-001
7.057261e+002,-4.823456e+000
7.066904e+002,-6.141968e+000
7.076546e+002,-3.690063e+000
7.086188e+002,3.549805e-001
7.095831e+002,2.593719e+000
7.105473e+002,2.425201e+000
7.115115e+002,1.618622e+000
7.124758e+002,-2.120972e-001
7.134400e+002,-2.281677e+000
7.144042e+002,-4.317505e+000
7.153685e+002,-6.177826e+000
7.163327e+002,-7.182617e+000
7.172969e+002,-6.082794e+000
7.182612e+002,-4.805298e+000
7.192254e+002,-4.283447e+000
7.201896e+002,-4.312683e+000
7.211539e+002,-4.176178e+000
7.221181e+002,-3.201721e+000
7.230823e+002,-1.850555e+000
7.240466e+002,-1.477081e+000
7.250108e+002,-1.681030e+000
7.259750e+002,-1.496857e+000
7.269393e+002,-4.251099e-001
7.279035e+002,1.103790e+000
7.288677e+002,1.307495e+000
7.298320e+002,-1.188385e+000
7.307962e+002,-2.437500e+000
7.317604e+002,-1.311096e+000
7.327247e+002,9.105835e-001
7.336889e+002,2.304626e+000
7.346531e+002,1.966492e+000
7.356174e+002,8.437500e-001
7.365816e+002,-1.563110e-001
7.375458e+002,-1.084808e+000
7.385101e+002,-2.304474e+000
7.394743e+002,-3.730957e+000
7.404385e+002,-4.661682e+000
7.414028e+002,-3.855103e+000
7.423670e+002,-2.109924e+000
7.433312e+002,-1.304749e+000
7.442955e+002,-1.278656e+000
7.452597e+002,-1.495758e+000
7.462239e+002,-1.611664e+000
7.471882e+002,-1.838165e+000
7.481524e+002,-1.404449e+000
7.491166e+002,-5.136108e-001
7.500809e+002,5.149231e-001
7.510451e+002,2.219360e+000
7.520093e+002,4.089050e+000
7.529736e+002,4.406494e+000
7.539378e+002,1.588593e+000
7.549020e+002,-1.263062e+000
7.558663e+002,-2.198242e+000
7.568306e+002,-1.982086e+000
7.577948e+002,-1.831757e+000
7.587590e+002,-2.517822e+000
7.597233e+002,-3.643158e+000
7.606875e+002,-3.511017e+000
7.616517e+002,-2.117004e+000
7.626160e+002,-3.250122e-002
7.635802e+002,3.134003e+000
7.645444e+002,6.478912e+000
7.655087e+002,7.988281e+000
7.664729e+002,6.935272e+000
7.674371e+002,5.221710e+000
7.684014e+002,1.967712e+000
7.693656e+002,-9.100342e-001
7.703298e+002,-1.910126e+000
7.712941e+002,-9.705200e-001
7.722583e+002,2.775879e-001
7.732225e+002,1.036591e+000
7.741868e+002,1.190948e+000
7.751510e+002,4.962158e-002
7.761152e+002,-1.755676e+000
7.770795e+002,-2.793304e+000
7.780437e+002,-1.810638e+000
7.790079e+002,7.977905e-001
7.799722e+002,2.215759e+000
7.809364e+002,2.574860e+000
7.819006e+002,2.151917e+000
7.828649e+002,3.554077e-001
7.838291e+002,-1.976105e+000
7.847933e+002,-2.102051e+000
7.857576e+002,2.157440e+000
7.867218e+002,4.318878e+000
7.876860e+002,2.481323e+000
7.886503e+002,-6.033020e-001
7.896145e+002,-3.156555e+000
7.905787e+002,-4.540833e+000
7.915430e+002,-4.525299e+000
7.925072e+002,-1.755981e+000
7.934714e+002,1.569672e+000
7.944357e+002,3.375549e+000
7.953999e+002,3.643860e+000
7.963641e+002,2.982971e+000
7.973284e+002,1.894989e+000
7.982926e+002,2.661133e-001
7.992568e+002,1.001892e+000
8.002211e+002,5.534393e+000
8.011853e+002,8.469849e+000
8.021495e+002,7.302643e+000
8.031138e+002,3.463379e+000
8.040780e+002,1.130890e+000
8.050422e+002,1.233673e+000
8.060065e+002,2.117920e+000
8.069707e+002,3.951324e+000
8.079349e+002,5.500946e+000
8.088992e+002,5.314484e+000
8.098634e+002,3.150146e+000
8.108276e+002,7.640686e-001
8.117919e+002,5.094299e-001
8.127561e+002,1.452545e+000
8.137203e+002,2.851288e+000
8.146846e+002,4.783142e+000
8.156488e+002,6.166107e+000
8.166130e+002,5.294067e+000
8.175773e+002,1.395477e+000
8.185415e+002,-4.409180e-001
8.195057e+002,2.137146e-001
8.204700e+002,1.514832e+000
8.214342e+002,3.192261e+000
8.223984e+002,5.067627e+000
8.233627e+002,6.890503e+000
8.243269e+002,8.975006e+000
8.252911e+002,1.028891e+001
8.262554e+002,1.003366e+001
8.272196e+002,9.029510e+000
8.281838e+002,7.968964e+000
8.291481e+002,7.167328e+000
8.301123e+002,6.574677e+000
8.310765e+002,6.177917e+000
8.320408e+002,5.890137e+000
8.330050e+002,5.440460e+000
8.339692e+002,4.901428e+000
8.349335e+002,4.126801e+000
8.358977e+002,2.609772e+000
8.368619e+002,9.545898e-002
8.378262e+002,-3.200989e-001
8.387904e+002,4.084564e+000
8.397546e+002,7.183319e+000
8.407189e+002,6.937744e+000
8.416831e+002,4.525940e+000
8.426473e+002,1.926605e+000
8.436116e+002,-1.788940e-001
8.445758e+002,-1.296112e+000
8.455400e+002,-1.001251e+000
8.465043e+002,3.503418e-002
8.474685e+002,1.934784e+000
8.484327e+002,4.601624e+000
8.493970e+002,7.012054e+000
8.503612e+002,7.101837e+000
8.513254e+002,4.229858e+000
8.522897e+002,2.722900e+000
8.532539e+002,2.651947e+000
8.542181e+002,3.331970e+000
8.551824e+002,4.983093e+000
8.561466e+002,7.649048e+000
8.571108e+002,9.961182e+000
8.580751e+002,1.106769e+001
8.590393e+002,1.135605e+001
8.600035e+002,1.054361e+001
8.609678e+002,9.618774e+000
8.619320e+002,9.741486e+000
8.628962e+002,1.128699e+001
8.638605e+002,1.324396e+001
8.648247e+002,1.408838e+001
8.657889e+002,1.417706e+001
8.667532e+002,1.425085e+001
8.677174e+002,1.440573e+001
8.686816e+002,1.485446e+001
8.696459e+002,1.605753e+001
8.706101e+002,1.838953e+001
8.715743e+002,1.941022e+001
8.725386e+002,1.794321e+001
8.735028e+002,1.684473e+001
8.744670e+002,1.660278e+001
8.754313e+002,1.694879e+001
8.763955e+002,1.766507e+001
8.773597e+002,1.902505e+001
8.783240e+002,1.999167e+001
8.792882e+002,1.935010e+001
8.802524e+002,1.815015e+001
8.812167e+002,1.707990e+001
8.821809e+002,1.646317e+001
8.831451e+002,1.659683e+001
8.841094e+002,1.800366e+001
8.850736e+002,2.071957e+001
8.860378e+002,2.221719e+001
8.870021e+002,2.231799e+001
8.879663e+002,2.171317e+001
8.889305e+002,1.987460e+001
8.898948e+002,1.727563e+001
8.908590e+002,1.688535e+001
8.918232e+002,2.072852e+001
8.927875e+002,2.424536e+001
8.937517e+002,2.739227e+001
8.947159e+002,2.925372e+001
8.956802e+002,2.816162e+001
8.966444e+002,2.416034e+001
8.976086e+002,1.997662e+001
8.985729e+002,1.849237e+001
8.995371e+002,1.903931e+001
9.005013e+002,2.025412e+001
9.014656e+002,2.203040e+001
9.024298e+002,2.375717e+001
9.033940e+002,2.479578e+001
9.043583e+002,2.513937e+001
9.053225e+002,2.609988e+001
9.062867e+002,2.900342e+001
9.072510e+002,3.039389e+001
9.082152e+002,2.930649e+001
9.091794e+002,2.772879e+001
9.101437e+002,2.774771e+001
9.111079e+002,2.968588e+001
9.120721e+002,3.142477e+001
9.130364e+002,3.159372e+001
9.140006e+002,3.085489e+001
9.149648e+002,2.928586e+001
9.159291e+002,2.742914e+001
9.168933e+002,2.589459e+001
9.178575e+002,2.502133e+001
9.188218e+002,2.469971e+001
9.197860e+002,2.515161e+001
9.207502e+002,2.631796e+001
9.217145e+002,2.690536e+001
9.226787e+002,2.678772e+001
9.236429e+002,2.638535e+001
9.246072e+002,2.613058e+001
9.255714e+002,2.599820e+001
9.265356e+002,2.526160e+001
9.274999e+002,2.307626e+001
9.284641e+002,2.088318e+001
9.294283e+002,1.894687e+001
9.303926e+002,1.757309e+001
9.313568e+002,1.724435e+001
9.323210e+002,1.825412e+001
9.332853e+002,1.963480e+001
9.342495e+002,1.988617e+001
9.352137e+002,1.938962e+001
9.361780e+002,1.887415e+001
9.371422e+002,1.864371e+001
9.381064e+002,1.814261e+001
9.390707e+002,1.615433e+001
9.400349e+002,1.181747e+001
9.409991e+002,1.043527e+001
9.419634e+002,1.412360e+001
9.429276e+002,1.750299e+001
9.438918e+002,1.944763e+001
9.448561e+002,2.021109e+001
9.458203e+002,1.985513e+001
9.467845e+002,1.798822e+001
9.477488e+002,1.743182e+001
9.487130e+002,2.261206e+001
9.496772e+002,2.824405e+001
9.506415e+002,2.982309e+001
9.516057e+002,2.738873e+001
9.525699e+002,2.357440e+001
9.535342e+002,2.087369e+001
9.544984e+002,1.924939e+001
9.554626e+002,1.954260e+001
9.564269e+002,2.246552e+001
9.573911e+002,2.494650e+001
9.583553e+002,2.632962e+001
9.593196e+002,2.660083e+001
9.602838e+002,2.547998e+001
9.612480e+002,2.249451e+001
9.622123e+002,1.974469e+001
9.631765e+002,1.735590e+001
9.641407e+002,1.592404e+001
9.651050e+002,1.612631e+001
9.660692e+002,1.734796e+001
9.670334e+002,1.850787e+001
9.679977e+002,1.904706e+001
9.689619e+002,1.954608e+001
9.699261e+002,2.137091e+001
9.708904e+002,2.371155e+001
9.718546e+002,2.413992e+001
9.728188e+002,2.164108e+001
9.737831e+002,1.870468e+001
9.747473e+002,1.912741e+001
9.757115e+002,2.393619e+001
9.766758e+002,2.691171e+001
9.776400e+002,2.635013e+001
9.786042e+002,2.637418e+001
9.795685e+002,2.865491e+001
9.805327e+002,3.146054e+001
9.814969e+002,3.230853e+001
9.824612e+002,3.049438e+001
9.834254e+002,2.848474e+001
9.843896e+002,2.910733e+001
9.853539e+002,3.017828e+001
9.863181e+002,2.906427e+001
9.872823e+002,2.583527e+001
9.882466e+002,2.239001e+001
9.892108e+002,2.055978e+001
9.901750e+002,2.037033e+001
9.911393e+002,1.992557e+001
9.921035e+002,1.782574e+001
9.930677e+002,1.661423e+001
9.940320e+002,1.680695e+001
9.949962e+002,1.801999e+001
9.959604e+002,2.042551e+001
9.969247e+002,2.393408e+001
9.978889e+002,2.654166e+001
9.988531e+002,2.586801e+001
9.998174e+002,2.518094e+001
1.000782e+003,2.759241e+001
1.001746e+003,3.125543e+001
1.002710e+003,3.294958e+001
1.003674e+003,3.144269e+001
1.004639e+003,2.882779e+001
1.005603e+003,2.895679e+001
1.006567e+003,3.207077e+001
1.007531e+003,3.291837e+001
1.008495e+003,3.019803e+001
1.009460e+003,2.798105e+001
1.010424e+003,2.925168e+001
1.011388e+003,3.317358e+001
1.012352e+003,3.630841e+001
1.013317e+003,3.861414e+001
1.014281e+003,3.890372e+001
1.015245e+003,3.600668e+001
1.016209e+003,3.202530e+001
1.017174e+003,2.791528e+001
1.018138e+003,2.429410e+001
1.019102e+003,2.206482e+001
1.020066e+003,2.228372e+001
1.021031e+003,2.363760e+001
1.021995e+003,2.114801e+001
1.022959e+003,1.551053e+001
1.023923e+003,1.128598e+001
1.024887e+003,1.023007e+001
1.025852e+003,1.068277e+001
1.026816e+003,1.000937e+001
1.027780e+003,7.963959e+000
1.028744e+003,6.768616e+000
1.029709e+003,7.579926e+000
1.030673e+003,7.994751e+000
1.031637e+003,6.675690e+000
1.032601e+003,4.659302e+000
1.033566e+003,3.601746e+000
1.034530e+003,4.124512e+000
1.035494e+003,5.185760e+000
1.036458e+003,5.705780e+000
1.037422e+003,5.796631e+000
1.038387e+003,5.836334e+000
1.039351e+003,5.739197e+000
1.040315e+003,4.919220e+000
1.041279e+003,2.724487e+000
1.042244e+003,-4.125977e-002
1.043208e+003,4.821167e-001
1.044172e+003,8.208130e+000
1.045136e+003,1.192188e+001
1.046101e+003,8.620483e+000
1.047065e+003,4.497070e+000
1.048029e+003,3.315613e+000
1.048993e+003,4.777283e+000
1.049958e+003,6.677765e+000
1.050922e+003,8.423645e+000
1.051886e+003,9.589325e+000
1.052850e+003,9.510345e+000
1.053814e+003,8.716949e+000
1.054779e+003,7.670532e+000
1.055743e+003,6.530823e+000
1.056707e+003,5.493622e+000
1.057671e+003,4.797363e+000
1.058636e+003,4.400940e+000
1.059600e+003,4.361053e+000
1.060564e+003,5.470825e+000
1.061528e+003,6.304138e+000
1.062493e+003,5.893829e+000
1.063457e+003,5.222961e+000
1.064421e+003,6.059509e+000
1.065385e+003,8.599792e+000
1.066349e+003,9.663727e+000
1.067314e+003,6.097046e+000
1.068278e+003,2.419098e+000
1.069242e+003,2.129852e+000
1.070206e+003,3.896332e+000
1.071171e+003,5.576691e+000
1.072135e+003,6.087585e+000
1.073099e+003,5.600525e+000
1.074063e+003,4.493286e+000
1.075028e+003,2.730469e+000
1.075992e+003,2.087524e+000
1.076956e+003,3.147797e+000
1.077920e+003,3.801453e+000
1.078885e+003,2.920532e+000
1.079849e+003,1.540222e+000
1.080813e+003,1.616577e+000
1.081777e+003,3.714020e+000
1.082741e+003,5.739044e+000
1.083706e+003,5.838470e+000
1.084670e+003,5.842529e+000
1.085634e+003,7.043427e+000
1.086598e+003,8.898865e+000
1.087563e+003,1.049966e+001
1.088527e+003,1.135120e+001
1.089491e+003,1.127701e+001
1.090455e+003,9.391479e+000
1.091420e+003,5.271606e+000
1.092384e+003,2.658295e+000
1.093348e+003,1.784882e+000
1.094312e+003,1.587189e+000
1.095276e+003,1.956238e+000
1.096241e+003,2.762482e+000
1.097205e+003,3.071411e+000
1.098169e+003,2.188110e+000
1.099133e+003,2.061401e+000
1.100098e+003,5.179230e+000
1.101062e+003,7.819336e+000
1.102026e+003,6.795044e+000
1.102990e+003,3.384491e+000
1.103955e+003,1.049927e+000
1.104919e+003,1.831421e+000
1.105883e+003,4.125946e+000
1.106847e+003,4.653961e+000
1.107812e+003,3.310028e+000
1.108776e+003,1.839783e+000
1.109740e+003,-1.408081e-001
1.110704e+003,-1.299072e+000
1.111668e+003,-3.927612e-002
1.112633e+003,3.170959e+000
1.113597e+003,5.781189e+000
1.114561e+003,7.505981e+000
1.115525e+003,8.260437e+000
1.116490e+003,7.291351e+000
1.117454e+003,6.138489e+000
1.118418e+003,5.693176e+000
1.119382e+003,6.184753e+000
1.120347e+003,7.592590e+000
1.121311e+003,9.737244e+000
1.122275e+003,1.195630e+001
1.123239e+003,1.363800e+001
1.124203e+003,1.494482e+001
1.125168e+003,1.503360e+001
1.126132e+003,1.354099e+001
1.127096e+003,1.176712e+001
1.128060e+003,1.008310e+001
1.129025e+003,8.674225e+000
1.129989e+003,8.988708e+000
1.130953e+003,1.186450e+001
1.131917e+003,1.461011e+001
1.132882e+003,1.665512e+001
1.133846e+003,1.839520e+001
1.134810e+003,1.996548e+001
1.135774e+003,2.148294e+001
1.136739e+003,2.336105e+001
1.137703e+003,2.577444e+001
1.138667e+003,2.747278e+001
1.139631e+003,2.531711e+001
1.140595e+003,2.018484e+001
1.141560e+003,1.987830e+001
1.142524e+003,2.592755e+001
1.143488e+003,3.320007e+001
1.144452e+003,3.783749e+001
1.145417e+003,4.083932e+001
1.146381e+003,4.602454e+001
1.147345e+003,5.416034e+001
1.148309e+003,6.253470e+001
1.149274e+003,7.132217e+001
1.150238e+003,7.951816e+001
1.151202e+003,8.546475e+001
1.152166e+003,9.091388e+001
1.153130e+003,9.969763e+001
1.154095e+003,1.130616e+002
1.155059e+003,1.262863e+002
1.156023e+003,1.327249e+002
1.156987e+003,1.329814e+002
1.157952e+003,1.336189e+002
1.158916e+003,1.352885e+002
1.159880e+003,1.360512e+002
1.160844e+003,1.354092e+002
1.161809e+003,1.322925e+002
1.162773e+003,1.240058e+002
1.163737e+003,1.090976e+002
1.164701e+003,9.575876e+001
1.165666e+003,8.713101e+001
1.166630e+003,7.967722e+001
1.167594e+003,7.214005e+001
1.168558e+003,6.492621e+001
1.169522e+003,5.872562e+001
1.170487e+003,5.378632e+001
1.171451e+003,5.009552e+001
1.172415e+003,4.771255e+001
1.173379e+003,4.633536e+001
1.174344e+003,4.429788e+001
1.175308e+003,4.145810e+001
1.176272e+003,4.029254e+001
1.177236e+003,4.331830e+001
1.178201e+003,4.723108e+001
1.179165e+003,4.736160e+001
1.180129e+003,4.351794e+001
1.181093e+003,3.974414e+001
1.182057e+003,3.662341e+001
1.183022e+003,3.428375e+001
1.183986e+003,3.346695e+001
1.184950e+003,3.287961e+001
1.185914e+003,3.068771e+001
1.186879e+003,2.735269e+001
1.187843e+003,2.540793e+001
1.188807e+003,2.688165e+001
1.189771e+003,3.065964e+001
1.190736e+003,3.398245e+001
1.191700e+003,3.691092e+001
1.192664e+003,3.802298e+001
1.193628e+003,3.669345e+001
1.194593e+003,3.444360e+001
1.195557e+003,3.153558e+001
1.196521e+003,2.845844e+001
1.197485e+003,2.739081e+001
1.198449e+003,2.947668e+001
1.199414e+003,3.109650e+001
1.200378e+003,3.052658e+001
1.201342e+003,2.907452e+001
1.202306e+003,2.664484e+001
1.203271e+003,2.398917e+001
1.204235e+003,2.270056e+001
1.205199e+003,2.344345e+001
1.206163e+003,2.471634e+001
1.207128e+003,2.384543e+001
1.208092e+003,2.068707e+001
1.209056e+003,1.920358e+001
1.210020e+003,2.089243e+001
1.210984e+003,2.107449e+001
1.211949e+003,1.726630e+001
1.212913e+003,1.185925e+001
1.213877e+003,7.758881e+000
1.214841e+003,5.251007e+000
1.215806e+003,3.845306e+000
1.216770e+003,4.090179e+000
1.217734e+003,4.132965e+000
1.218698e+003,1.898773e+000
1.219663e+003,-9.511414e-001
1.220627e+003,-1.914825e+000
1.221591e+003,-9.079590e-001
1.222555e+003,-2.188110e-001
1.223520e+003,-1.970764e+000
1.224484e+003,-5.433441e+000
1.225448e+003,-7.503906e+000
1.226412e+003,-7.789093e+000
1.227376e+003,-7.414429e+000
1.228341e+003,-5.369141e+000
1.229305e+003,-3.951965e+000
1.230269e+003,-4.891907e+000
1.231233e+003,-7.235962e+000
1.232198e+003,-8.895355e+000
1.233162e+003,-9.223328e+000
1.234126e+003,-9.322693e+000
1.235090e+003,-1.032013e+001
1.236055e+003,-1.139014e+001
1.237019e+003,-1.153931e+001
1.237983e+003,-1.105856e+001
1.238947e+003,-1.053128e+001
1.239911e+003,-1.011545e+001
1.240876e+003,-9.866425e+000
1.241840e+003,-1.006161e+001
1.242804e+003,-1.075400e+001
1.243768e+003,-1.072821e+001
1.244733e+003,-9.165833e+000
1.245697e+003,-7.923279e+000
1.246661e+003,-7.264435e+000
1.247625e+003,-7.208527e+000
1.248590e+003,-7.785248e+000
1.249554e+003,-8.725067e+000
1.250518e+003,-9.842529e+000
1.251482e+003,-1.124527e+001
1.252447e+003,-1.205511e+001
1.253411e+003,-1.026770e+001
1.254375e+003,-7.288025e+000
1.255339e+003,-6.682587e+000
1.256303e+003,-8.388855e+000
1.257268e+003,-9.365173e+000
1.258232e+003,-7.825836e+000
1.259196e+003,-5.091431e+000
1.260160e+003,-3.590485e+000
1.261125e+003,-3.414215e+000
1.262089e+003,-2.876953e+000
1.263053e+003,-1.864166e+000
1.264017e+003,-7.663574e-001
1.264982e+003,1.139313e+000
1.265946e+003,2.641876e+000
1.266910e+003,1.882019e+000
1.267874e+003,-4.993896e-001
1.268839e+003,-1.629089e+000
1.269803e+003,4.337463e-001
1.270767e+003,3.874725e+000
1.271731e+003,5.199310e+000
1.272695e+003,4.509827e+000
1.273660e+003,4.167389e+000
1.274624e+003,4.183929e+000
1.275588e+003,3.832001e+000
1.276552e+003,2.540466e+000
1.277517e+003,1.033112e+000
1.278481e+003,6.504822e-001
1.279445e+003,1.512939e+000
1.280409e+003,1.843994e+000
1.281374e+003,7.436829e-001
1.282338e+003,-5.193787e-001
1.283302e+003,-1.251129e+000
1.284266e+003,-1.835663e+000
1.285230e+003,-2.921051e+000
1.286195e+003,-4.439056e+000
1.287159e+003,-5.464172e+000
1.288123e+003,-5.146271e+000
1.289087e+003,-4.061432e+000
1.290052e+003,-4.391815e+000
1.291016e+003,-6.951172e+000
1.291980e+003,-8.551117e+000
1.292944e+003,-8.905182e+000
1.293909e+003,-9.109955e+000
1.294873e+003,-9.301147e+000
1.295837e+003,-9.444672e+000
1.296801e+003,-9.715515e+000
1.297766e+003,-1.006934e+001
1.298730e+003,-9.856384e+000
1.299694e+003,-8.682129e+000
1.300658e+003,-7.186340e+000
1.301622e+003,-5.663116e+000
1.302587e+003,-4.294525e+000
1.303551e+003,-3.366760e+000
1.304515e+003,-2.916870e+000
1.305479e+003,-3.318390e+000
1.306444e+003,-5.184662e+000
1.307408e+003,-7.971069e+000
1.308372e+003,-9.602905e+000
1.309336e+003,-1.007895e+001
1.310301e+003,-9.379303e+000
1.311265e+003,-4.936981e+000
1.312229e+003,-2.318298e+000
1.313193e+003,-5.197571e+000
1.314157e+003,-9.442596e+000
1.315122e+003,-1.034689e+001
1.316086e+003,-7.836243e+000
1.317050e+003,-5.113037e+000
1.318014e+003,-4.100830e+000
1.318979e+003,-4.697815e+000
1.319943e+003,-7.726685e+000
1.320907e+003,-1.252695e+001
1.321871e+003,-1.403220e+001
1.322836e+003,-1.156003e+001
1.323800e+003,-8.432098e+000
1.324764e+003,-5.861084e+000
1.325728e+003,-3.925201e+000
1.326693e+003,-2.888031e+000
1.327657e+003,-2.865021e+000
1.328621e+003,-3.584167e+000
1.329585e+003,-5.218811e+000
1.330549e+003,-6.103821e+000
1.331514e+003,-5.276093e+000
1.332478e+003,-4.288086e+000
1.333442e+003,-4.436035e+000
1.334406e+003,-5.637878e+000
1.335371e+003,-7.503174e+000
1.336335e+003,-9.709259e+000
1.337299e+003,-1.110437e+001
1.338263e+003,-9.309082e+000
1.339228e+003,-3.652374e+000
1.340192e+003,-1.088379e+000
1.341156e+003,-4.438354e+000
1.342120e+003,-6.513641e+000
1.343084e+003,-5.262695e+000
1.344049e+003,-3.652313e+000
1.345013e+003,-4.446777e+000
1.345977e+003,-6.751678e+000
1.346941e+003,-7.438171e+000
1.347906e+003,-5.323944e+000
1.348870e+003,-2.690887e+000
1.349834e+003,-1.478699e+000
1.350798e+003,-1.438507e+000
1.351763e+003,-1.396179e+000
1.352727e+003,-1.523560e+000
1.353691e+003,-3.632874e+000
1.354655e+003,-9.136963e+000
1.355620e+003,-1.410287e+001
1.356584e+003,-1.288126e+001
1.357548e+003,-6.287537e+000
1.358512e+003,-2.328033e+000
1.359476e+003,-2.177124e+000
1.360441e+003,-2.927002e+000
1.361405e+003,-4.237610e+000
1.362369e+003,-5.617310e+000
1.363333e+003,-7.163086e+000
1.364298e+003,-8.454071e+000
1.365262e+003,-8.893433e+000
1.366226e+003,-8.402710e+000
1.367190e+003,-7.333649e+000
1.368155e+003,-5.974762e+000
1.369119e+003,-4.640839e+000
1.370083e+003,-4.385162e+000
1.371047e+003,-5.609711e+000
1.372011e+003,-5.688782e+000
1.372976e+003,-3.580627e+000
1.373940e+003,-2.164124e+000
1.374904e+003,-3.080963e+000
1.375868e+003,-4.719330e+000
1.376833e+003,-4.894897e+000
1.377797e+003,-3.692993e+000
1.378761e+003,-3.080505e+000
1.379725e+003,-3.945587e+000
1.380690e+003,-5.261047e+000
1.381654e+003,-6.555359e+000
1.382618e+003,-7.247101e+000
1.383582e+003,-6.261505e+000
1.384547e+003,-3.729187e+000
1.385511e+003,-8.064880e-001
1.386475e+003,2.022644e+000
1.387439e+003,4.304749e+000
1.388403e+003,5.541138e+000
1.389368e+003,5.708649e+000
1.390332e+003,4.075378e+000
1.391296e+003,-7.771301e-001
1.392260e+003,-4.329742e+000
1.393225e+003,-5.414886e+000
1.394189e+003,-5.381042e+000
1.395153e+003,-4.341034e+000
1.396117e+003,-2.944244e+000
1.397082e+003,-1.872101e+000
1.398046e+003,-1.330536e+000
1.399010e+003,-1.214447e+000
1.399974e+003,-1.552673e+000
1.400938e+003,-2.467621e+000
1.401903e+003,-3.797302e+000
1.402867e+003,-5.313019e+000
1.403831e+003,-5.767487e+000
1.404795e+003,-5.115387e+000
1.405760e+003,-4.011353e+000
1.406724e+003,-2.437317e+000
1.407688e+003,-1.324768e+000
1.408652e+003,-1.979858e+000
1.409617e+003,-3.764099e+000
1.410581e+003,-3.800293e+000
1.411545e+003,-6.170044e-001
1.412509e+003,2.666840e+000
1.413474e+003,2.456879e+000
1.414438e+003,4.350586e-001
1.415402e+003,1.567383e-001
1.416366e+003,1.433136e+000
1.417330e+003,1.378510e+000
1.418295e+003,-1.530487e+000
1.419259e+003,-4.576630e+000
1.420223e+003,-4.003448e+000
1.421187e+003,-7.360535e-001
1.422152e+003,-3.025513e-001
1.423116e+003,-3.937714e+000
1.424080e+003,-5.973969e+000
1.425044e+003,-3.570160e+000
1.426009e+003,-1.016754e+000
1.426973e+003,8.819580e-003
1.427937e+003,1.398315e-001
1.428901e+003,4.275513e-002
1.429865e+003,9.368896e-002
1.430830e+003,7.984619e-001
1.431794e+003,2.363129e+000
1.432758e+003,3.677490e+000
1.433722e+003,2.619415e+000
1.434687e+003,-8.814392e-001
1.435651e+003,-2.114349e+000
1.436615e+003,1.268005e-001
1.437579e+003,1.519073e+000
1.438544e+003,4.716492e-001
1.439508e+003,-1.109314e-001
1.440472e+003,2.875336e+000
1.441436e+003,7.587952e+000
1.442401e+003,1.011377e+001
1.443365e+003,9.544220e+000
1.444329e+003,8.066864e+000
1.445293e+003,7.270050e+000
1.446257e+003,6.778778e+000
1.447222e+003,5.428772e+000
1.448186e+003,3.537079e+000
1.449150e+003,3.423279e+000
1.450114e+003,5.824280e+000
1.451079e+003,7.525452e+000
1.452043e+003,6.273285e+000
1.453007e+003,4.105133e+000
1.453971e+003,3.987427e+000
1.454936e+003,5.521576e+000
1.455900e+003,5.764740e+000
1.456864e+003,3.669373e+000
1.457828e+003,2.186829e+000
1.458792e+003,3.871307e+000
1.459757e+003,5.845184e+000
1.460721e+003,5.490051e+000
1.461685e+003,3.692505e+000
1.462649e+003,2.384186e+000
1.463614e+003,2.186218e+000
1.464578e+003,2.731781e+000
1.465542e+003,3.790009e+000
1.466506e+003,4.906799e+000
1.467471e+003,4.765961e+000
1.468435e+003,3.154083e+000
1.469399e+003,2.519623e+000
1.470363e+003,3.577179e+000
1.471328e+003,4.315308e+000
1.472292e+003,3.608612e+000
1.473256e+003,2.711945e+000
1.474220e+003,2.844086e+000
1.475184e+003,3.841949e+000
1.476149e+003,5.105896e+000
1.477113e+003,6.186646e+000
1.478077e+003,6.634827e+000
1.479041e+003,6.120392e+000
1.480006e+003,5.302979e+000
1.480970e+003,6.101105e+000
1.481934e+003,9.202209e+000
1.482898e+003,9.965729e+000
1.483863e+003,5.774780e+000
1.484827e+003,3.100220e+000
1.485791e+003,4.909698e+000
1.486755e+003,8.161407e+000
1.487719e+003,1.023590e+001
1.488684e+003,1.107980e+001
1.489648e+003,1.140021e+001
1.490612e+003,1.156845e+001
1.491576e+003,1.232379e+001
1.492541e+003,1.426956e+001
1.493505e+003,1.693976e+001
1.494469e+003,1.973679e+001
1.495433e+003,2.232605e+001
1.496398e+003,2.365402e+001
1.497362e+003,2.367908e+001
1.498326e+003,2.325964e+001
1.499290e+003,2.168039e+001
1.500255e+003,2.065295e+001
1.501219e+003,2.294678e+001
1.502183e+003,2.800317e+001
1.503147e+003,3.255692e+001
1.504111e+003,3.574210e+001
1.505076e+003,3.922760e+001
1.506040e+003,4.443478e+001
1.507004e+003,4.996793e+001
1.507968e+003,5.408884e+001
1.508933e+003,5.757532e+001
1.509897e+003,6.173557e+001
1.510861e+003,6.718195e+001
1.511825e+003,7.505502e+001
1.512790e+003,8.656046e+001
1.513754e+003,9.954520e+001
1.514718e+003,1.098488e+002
1.515682e+003,1.173269e+002
1.516646e+003,1.260161e+002
1.517611e+003,1.365094e+002
1.518575e+003,1.480880e+002
1.519539e+003,1.634766e+002
1.520503e+003,1.771735e+002
1.521468e+003,1.854022e+002
1.522432e+003,1.904224e+002
1.523396e+003,1.959999e+002
1.524360e+003,2.021711e+002
1.525325e+003,2.060471e+002
1.526289e+003,2.057479e+002
1.527253e+003,2.020628e+002
1.528217e+003,1.960693e+002
1.529182e+003,1.878909e+002
1.530146e+003,1.802463e+002
1.531110e+003,1.749023e+002
1.532074e+003,1.663290e+002
1.533039e+003,1.522899e+002
1.534003e+003,1.365871e+002
1.534967e+003,1.204977e+002
1.535931e+003,1.047314e+002
1.536896e+003,8.935992e+001
1.537860e+003,7.483624e+001
1.538824e+003,6.164972e+001
1.539788e+003,5.005304e+001
1.540752e+003,4.099515e+001
1.541717e+003,3.607318e+001
1.542681e+003,3.460056e+001
1.543645e+003,3.133167e+001
1.544609e+003,2.528662e+001
1.545573e+003,2.052139e+001
1.546538e+003,1.598560e+001
1.547502e+003,1.346112e+001
1.548466e+003,1.553018e+001
1.549430e+003,1.885181e+001
1.550395e+003,1.977191e+001
1.551359e+003,1.862366e+001
1.552323e+003,1.777499e+001
1.553287e+003,1.807764e+001
1.554252e+003,1.847842e+001
1.555216e+003,1.803848e+001
1.556180e+003,1.702280e+001
1.557144e+003,1.601736e+001
1.558109e+003,1.510345e+001
1.559073e+003,1.440729e+001
1.560037e+003,1.411844e+001
1.561001e+003,1.298483e+001
1.561966e+003,9.918427e+000
1.562930e+003,7.013306e+000
1.563894e+003,5.964294e+000
1.564858e+003,6.409912e+000
1.565823e+003,7.715759e+000
1.566787e+003,9.632507e+000
1.567751e+003,1.117664e+001
1.568715e+003,1.185107e+001
1.569679e+003,1.201889e+001
1.570644e+003,1.193387e+001
1.571608e+003,1.150754e+001
1.572572e+003,1.084857e+001
1.573536e+003,1.008475e+001
1.574500e+003,9.467163e+000
1.575465e+003,8.894196e+000
1.576429e+003,8.620148e+000
1.577393e+003,8.946869e+000
1.578357e+003,9.551086e+000
1.579322e+003,1.010455e+001
1.580286e+003,1.059012e+001
1.581250e+003,1.023929e+001
1.582214e+003,8.338501e+000
1.583179e+003,7.385834e+000
1.584143e+003,9.975922e+000
1.585107e+003,1.364700e+001
1.586071e+003,1.574564e+001
1.587036e+003,1.653284e+001
1.588000e+003,1.583380e+001
1.588964e+003,1.336386e+001
1.589928e+003,1.089142e+001
1.590893e+003,9.131226e+000
1.591857e+003,8.540283e+000
1.592821e+003,1.047650e+001
1.593785e+003,1.443839e+001
1.594750e+003,1.734683e+001
1.595714e+003,1.872183e+001
1.596678e+003,1.905371e+001
1.597642e+003,1.784082e+001
1.598606e+003,1.672305e+001
1.599571e+003,1.713223e+001
1.600535e+003,1.844366e+001
1.601499e+003,2.026642e+001
1.602463e+003,2.219781e+001
1.603427e+003,2.282901e+001
1.604392e+003,2.144891e+001
1.605356e+003,1.993237e+001
1.606320e+003,2.067453e+001
1.607284e+003,2.260895e+001
1.608249e+003,2.255292e+001
1.609213e+003,2.044998e+001
1.610177e+003,1.780743e+001
1.611141e+003,1.410147e+001
1.612106e+003,1.180978e+001
1.613070e+003,1.329611e+001
1.614034e+003,1.557706e+001
1.614998e+003,1.698065e+001
1.615963e+003,1.751605e+001
1.616927e+003,1.673322e+001
1.617891e+003,1.492435e+001
1.618855e+003,1.434528e+001
1.619820e+003,1.645499e+001
1.620784e+003,1.915036e+001
1.621748e+003,1.970978e+001
1.622712e+003,1.871539e+001
1.623677e+003,1.805377e+001
1.624641e+003,1.781561e+001
1.625605e+003,1.759097e+001
1.626569e+003,1.670197e+001
1.627533e+003,1.581226e+001
1.628498e+003,1.591022e+001
1.629462e+003,1.601599e+001
1.630426e+003,1.481662e+001
1.631390e+003,1.297394e+001
1.632354e+003,1.226614e+001
1.633319e+003,1.297610e+001
1.634283e+003,1.343250e+001
1.635247e+003,1.223495e+001
1.636211e+003,1.046509e+001
1.637176e+003,1.026730e+001
1.638140e+003,1.161685e+001
1.639104e+003,1.291934e+001
1.640068e+003,1.422653e+001
1.641033e+003,1.472662e+001
1.641997e+003,1.358197e+001
1.642961e+003,1.269415e+001
1.643925e+003,1.320016e+001
1.644890e+003,1.418988e+001
1.645854e+003,1.485352e+001
1.646818e+003,1.513809e+001
1.647782e+003,1.534079e+001
1.648747e+003,1.549750e+001
1.649711e+003,1.495847e+001
1.650675e+003,1.294748e+001
1.651639e+003,1.081256e+001
1.652604e+003,1.169965e+001
1.653568e+003,1.533502e+001
1.654532e+003,1.663699e+001
1.655496e+003,1.461154e+001
1.656460e+003,1.292422e+001
1.657425e+003,1.312210e+001
1.658389e+003,1.334006e+001
1.659353e+003,1.200116e+001
1.660317e+003,1.054785e+001
1.661281e+003,1.100620e+001
1.662246e+003,1.264459e+001
1.663210e+003,1.285330e+001
1.664174e+003,1.091449e+001
1.665138e+003,9.257690e+000
1.666103e+003,1.018427e+001
1.667067e+003,1.204721e+001
1.668031e+003,1.101157e+001
1.668995e+003,7.463928e+000
1.669960e+003,7.018341e+000
1.670924e+003,1.132797e+001
1.671888e+003,1.347955e+001
1.672852e+003,9.537933e+000
1.673817e+003,5.341003e+000
1.674781e+003,4.061615e+000
1.675745e+003,4.795349e+000
1.676709e+003,7.872406e+000
1.677674e+003,1.200595e+001
1.678638e+003,1.356384e+001
1.679602e+003,1.143378e+001
1.680566e+003,8.418518e+000
1.681531e+003,6.300629e+000
1.682495e+003,5.335388e+000
1.683459e+003,6.271423e+000
1.684423e+003,8.614655e+000
1.685387e+003,9.942322e+000
1.686352e+003,1.008798e+001
1.687316e+003,9.205872e+000
1.688280e+003,6.424164e+000
1.689244e+003,4.346466e+000
1.690208e+003,6.227417e+000
1.691173e+003,8.828369e+000
1.692137e+003,8.256195e+000
1.693101e+003,5.515411e+000
1.694065e+003,3.919830e+000
1.695030e+003,4.139343e+000
1.695994e+003,4.317322e+000
1.696958e+003,3.378876e+000
1.697922e+003,1.942383e+000
1.698887e+003,3.068542e-001
1.699851e+003,-1.083221e+000
1.700815e+003,-5.360413e-001
1.701779e+003,1.924866e+000
1.702744e+003,2.960724e+000
1.703708e+003,1.242371e+000
1.704672e+003,-6.817627e-002
1.705636e+003,1.343292e+000
1.706601e+003,3.874664e+000
1.707565e+003,6.112762e+000
1.708529e+003,7.838501e+000
1.709493e+003,7.512909e+000
1.710458e+003,4.716248e+000
1.711422e+003,1.913208e+000
1.712386e+003,-1.940002e-001
1.713350e+003,-1.299591e+000
1.714314e+003,-1.103424e+000
1.715279e+003,-1.317749e-001
1.716243e+003,1.300812e+000
1.717207e+003,2.901794e+000
1.718171e+003,3.466003e+000
1.719135e+003,2.703949e+000
1.720100e+003,1.841064e+000
1.721064e+003,1.722198e+000
1.722028e+003,1.464233e+000
1.722992e+003,-4.497070e-001
1.723957e+003,-3.279358e+000
1.724921e+003,-3.617615e+000
1.725885e+003,-1.257355e+000
1.726849e+003,9.704590e-003
1.727814e+003,-1.479126e+000
1.728778e+003,-2.018402e+000
1.729742e+003,7.688293e-001
1.730706e+003,4.373535e+000
1.731671e+003,6.912781e+000
1.732635e+003,7.772797e+000
1.733599e+003,5.978027e+000
1.734563e+003,2.120880e+000
1.735528e+003,-1.169464e+000
1.736492e+003,-2.597626e+000
1.737456e+003,-2.561676e+000
1.738420e+003,-1.378357e+000
1.739385e+003,4.570007e-001
1.740349e+003,1.720184e+000
1.741313e+003,2.652985e+000
1.742277e+003,2.453247e+000
1.743241e+003,6.514282e-001
1.744206e+003,-1.143280e+000
1.745170e+003,-3.488281e+000
1.746134e+003,-5.107635e+000
1.747098e+003,-5.214417e+000
1.748063e+003,-4.322693e+000
1.749027e+003,-2.478455e+000
1.749991e+003,-2.823792e-001
1.750955e+003,1.046387e+000
1.751919e+003,1.114014e+000
1.752884e+003,6.167603e-001
1.753848e+003,1.261292e-001
1.754812e+003,-4.547424e-001
1.755776e+003,-1.158752e+000
1.756741e+003,-1.834442e+000
1.757705e+003,-3.058380e+000
1.758669e+003,-5.808502e+000
1.759633e+003,-6.627777e+000
1.760598e+003,-3.566589e+000
1.761562e+003,-1.119202e+000
1.762526e+003,-7.611084e-001
1.763490e+003,-9.666748e-001
1.764455e+003,-7.119141e-001
1.765419e+003,-1.987305e-001
1.766383e+003,3.054810e-002
1.767347e+003,-1.636353e-001
1.768312e+003,-5.867615e-001
1.769276e+003,-1.203247e+000
1.770240e+003,-1.952759e+000
1.771204e+003,-2.809448e+000
1.772168e+003,-3.176300e+000
1.773133e+003,-1.212036e+000
1.774097e+003,2.593933e+000
1.775061e+003,2.708710e+000
1.776025e+003,-2.235077e+000
1.776990e+003,-6.058167e+000
1.777954e+003,-6.409485e+000
1.778918e+003,-5.245575e+000
1.779882e+003,-3.347748e+000
1.780846e+003,-1.555206e+000
1.781811e+003,-8.669739e-001
1.782775e+003,-9.960632e-001
1.783739e+003,-1.194336e+000
1.784703e+003,-1.309570e+000
1.785668e+003,-1.312347e+000
1.786632e+003,-1.017395e+000
1.787596e+003,-1.292725e+000
1.788560e+003,-3.162628e+000
1.789525e+003,-5.224701e+000
1.790489e+003,-5.731384e+000
1.791453e+003,-4.991241e+000
1.792417e+003,-3.924652e+000
1.793382e+003,-2.793793e+000
1.794346e+003,-1.756165e+000
1.795310e+003,-8.751526e-001
1.796274e+003,-7.175293e-001
1.797239e+003,-1.956451e+000
1.798203e+003,-3.880951e+000
1.799167e+003,-4.915680e+000
1.800131e+003,-5.309723e+000
1.801095e+003,-5.766205e+000
1.802060e+003,-6.505005e+000
1.803024e+003,-6.241974e+000
1.803988e+003,-4.419586e+000
1.804952e+003,-2.368958e+000
1.805917e+003,3.789368e-001
1.806881e+003,2.113037e+000
1.807845e+003,8.514404e-003
1.808809e+003,-3.861389e+000
1.809773e+003,-5.060455e+000
1.810738e+003,-2.910187e+000
1.811702e+003,-2.770996e-001
1.812666e+003,9.983826e-001
1.813630e+003,1.255310e+000
1.814595e+003,7.921753e-001
1.815559e+003,-1.500854e-001
1.816523e+003,-2.054138e-001
1.817487e+003,8.098450e-001
1.818452e+003,1.132202e+000
1.819416e+003,6.881409e-001
1.820380e+003,-4.373169e-002
1.821344e+003,-2.168701e+000
1.822309e+003,-3.155365e+000
1.823273e+003,5.615234e-002
1.824237e+003,4.102570e+000
1.825201e+003,5.683411e+000
1.826166e+003,5.028351e+000
1.827130e+003,2.807953e+000
1.828094e+003,-8.115234e-001
1.829058e+003,-3.290314e+000
1.830022e+003,-2.856110e+000
1.830987e+003,-1.816528e+000
1.831951e+003,-2.181122e+000
1.832915e+003,-3.020386e+000
1.833879e+003,-3.054169e+000
1.834844e+003,-2.388641e+000
1.835808e+003,-1.303589e+000
1.836772e+003,4.895020e-002
1.837736e+003,8.781738e-001
1.838700e+003,7.549438e-001
1.839665e+003,-2.430115e-001
1.840629e+003,-2.170258e+000
1.841593e+003,-4.259308e+000
1.842557e+003,-5.025085e+000
1.843522e+003,-4.488770e+000
1.844486e+003,-3.531555e+000
1.845450e+003,-1.140808e+000
1.846414e+003,1.371460e-001
1.847379e+003,-8.983459e-001
1.848343e+003,-2.000641e+000
1.849307e+003,-2.172668e+000
1.850271e+003,-2.339050e+000
1.851236e+003,-3.595276e+000
1.852200e+003,-4.849609e+000
1.853164e+003,-4.429840e+000
1.854128e+003,-2.843506e+000
1.855093e+003,-1.920837e+000
1.856057e+003,-2.166840e+000
1.857021e+003,-2.519135e+000
1.857985e+003,-2.136139e+000
1.858949e+003,-1.748657e+000
1.859914e+003,-3.328552e+000
1.860878e+003,-6.040222e+000
1.861842e+003,-4.668060e+000
1.862806e+003,8.796082e-001
1.863771e+003,4.137177e+000
1.864735e+003,3.550446e+000
1.865699e+003,2.580505e+000
1.866663e+003,2.834015e+000
1.867627e+003,3.285126e+000
1.868592e+003,2.709290e+000
1.869556e+003,1.583557e+000
1.870520e+003,1.343811e+000
1.871484e+003,1.755554e+000
1.872449e+003,1.242767e+000
1.873413e+003,-2.089233e-001
1.874377e+003,-1.022919e+000
1.875341e+003,-1.267548e+000
1.876306e+003,-1.017670e+000
1.877270e+003,3.249512e-001
1.878234e+003,1.453644e+000
1.879198e+003,2.808533e-001
1.880163e+003,-1.581482e+000
1.881127e+003,-2.832031e-001
1.882091e+003,3.615173e+000
1.883055e+003,5.404175e+000
1.884020e+003,3.274200e+000
1.884984e+003,2.802124e-001
1.885948e+003,-8.091125e-001
1.886912e+003,-6.977539e-001
1.887876e+003,-8.807068e-001
1.888841e+003,-1.190430e+000
1.889805e+003,6.502380e-001
1.890769e+003,5.476654e+000
1.891733e+003,7.860901e+000
1.892698e+003,6.523712e+000
1.893662e+003,4.177917e+000
1.894626e+003,6.352844e-001
1.895590e+003,-2.068085e+000
1.896554e+003,-2.162109e+000
1.897519e+003,-7.557983e-001
1.898483e+003,1.379425e+000
1.899447e+003,3.568024e+000
1.900411e+003,4.152771e+000
1.901376e+003,2.834259e+000
1.902340e+003,1.668610e+000
1.903304e+003,1.739685e+000
1.904268e+003,1.578461e+000
1.905233e+003,-1.042786e-001
1.906197e+003,-1.938538e+000
1.907161e+003,-2.522064e+000
1.908125e+003,-2.135620e+000
1.909090e+003,-1.467407e+000
1.910054e+003,-7.542114e-001
1.911018e+003,1.923828e-001
1.911982e+003,1.414581e+000
1.912947e+003,2.104614e+000
1.913911e+003,1.617462e+000
1.914875e+003,9.510803e-001
1.915839e+003,1.665375e+000
1.916803e+003,3.275299e+000
1.917768e+003,4.103027e+000
1.918732e+003,4.288422e+000
1.919696e+003,3.452545e+000
1.920660e+003,9.242249e-001
1.921625e+003,-3.728333e-001
1.922589e+003,4.042969e-001
1.923553e+003,1.901093e+000
1.924517e+003,4.335083e+000
1.925481e+003,6.406982e+000
1.926446e+003,6.784576e+000
1.927410e+003,6.068665e+000
1.928374e+003,5.212372e+000
1.929338e+003,4.255890e+000
1.930303e+003,3.670837e+000
1.931267e+003,3.996429e+000
1.932231e+003,4.257507e+000
1.933195e+003,3.684570e+000
1.934160e+003,2.884888e+000
1.935124e+003,2.218323e+000
1.936088e+003,1.537567e+000
1.937052e+003,5.527649e-001
1.938017e+003,-2.684021e-001
1.938981e+003,8.709717e-002
1.939945e+003,1.491791e+000
1.940909e+003,2.716797e+000
1.941874e+003,3.166840e+000
1.942838e+003,3.363831e+000
1.943802e+003,3.959167e+000
1.944766e+003,4.826599e+000
1.945730e+003,5.365723e+000
1.946695e+003,5.478058e+000
1.947659e+003,5.328705e+000
1.948623e+003,4.833099e+000
1.949587e+003,4.585052e+000
1.950552e+003,4.932892e+000
1.951516e+003,4.657349e+000
1.952480e+003,2.787170e+000
1.953444e+003,1.404999e+000
1.954408e+003,2.189484e+000
1.955373e+003,3.810760e+000
1.956337e+003,4.797394e+000
1.957301e+003,5.407440e+000
1.958265e+003,5.920044e+000
1.959230e+003,6.390015e+000
1.960194e+003,6.535400e+000
1.961158e+003,5.583771e+000
1.962122e+003,4.810730e+000
1.963087e+003,4.871887e+000
1.964051e+003,4.893951e+000
1.965015e+003,4.132751e+000
1.965979e+003,3.643860e+000
1.966944e+003,4.733459e+000
1.967908e+003,6.473175e+000
1.968872e+003,7.174530e+000
1.969836e+003,6.777924e+000
1.970801e+003,6.297455e+000
1.971765e+003,6.228180e+000
1.972729e+003,6.725800e+000
1.973693e+003,8.149994e+000
1.974657e+003,9.466339e+000
1.975622e+003,8.519562e+000
1.976586e+003,6.333221e+000
1.977550e+003,6.062622e+000
1.978514e+003,7.493958e+000
1.979479e+003,8.930084e+000
1.980443e+003,9.986908e+000
1.981407e+003,9.275757e+000
1.982371e+003,6.195709e+000
1.983335e+003,4.518250e+000
1.984300e+003,7.302338e+000
1.985264e+003,1.123190e+001
1.986228e+003,1.120502e+001
1.987192e+003,8.092926e+000
1.988157e+003,6.473999e+000
1.989121e+003,6.787994e+000
1.990085e+003,6.729553e+000
1.991049e+003,6.219147e+000
1.992014e+003,5.711670e+000
1.992978e+003,5.018890e+000
1.993942e+003,4.461670e+000
1.994906e+003,3.783386e+000
1.995871e+003,3.660126e+000
1.996835e+003,5.312958e+000
1.997799e+003,7.524323e+000
1.998763e+003,8.251404e+000
1.999728e+003,7.639496e+000
