5.003444e+002,2.365286e+002
5.013087e+002,2.332812e+002
5.022729e+002,2.276895e+002
5.032371e+002,2.214583e+002
5.042014e+002,2.177722e+002
5.051656e+002,2.164003e+002
5.061298e+002,2.155225e+002
5.070941e+002,2.132396e+002
5.080583e+002,2.086071e+002
5.090225e+002,2.060591e+002
5.099868e+002,2.078243e+002
5.109510e+002,2.086726e+002
5.119152e+002,2.050604e+002
5.128795e+002,1.965401e+002
5.138437e+002,1.899474e+002
5.148079e+002,1.894362e+002
5.157722e+002,1.899344e+002
5.167364e+002,1.895754e+002
5.177006e+002,1.877249e+002
5.186649e+002,1.847358e+002
5.196291e+002,1.807270e+002
5.205933e+002,1.773783e+002
5.215576e+002,1.758425e+002
5.225218e+002,1.756608e+002
5.234860e+002,1.758283e+002
5.244503e+002,1.752429e+002
5.254145e+002,1.745200e+002
5.263787e+002,1.734860e+002
5.273430e+002,1.720812e+002
5.283072e+002,1.704155e+002
5.292714e+002,1.685075e+002
5.302357e+002,1.658091e+002
5.311999e+002,1.617433e+002
5.321641e+002,1.559202e+002
5.331284e+002,1.506343e+002
5.340926e+002,1.477172e+002
5.350568e+002,1.476656e+002
5.360211e+002,1.473146e+002
5.369853e+002,1.447023e+002
5.379495e+002,1.411962e+002
5.389138e+002,1.371010e+002
5.398780e+002,1.326571e+002
5.408422e+002,1.283743e+002
5.418065e+002,1.264256e+002
5.427707e+002,1.263923e+002
5.437349e+002,1.250193e+002
5.446992e+002,1.207592e+002
5.456634e+002,1.148502e+002
5.466276e+002,1.119167e+002
5.475919e+002,1.160707e+002
5.485561e+002,1.188755e+002
5.495203e+002,1.192925e+002
5.504846e+002,1.179371e+002
5.514488e+002,1.158752e+002
5.524130e+002,1.135405e+002
5.533773e+002,1.112363e+002
5.543415e+002,1.095817e+002
5.553057e+002,1.078519e+002
5.562700e+002,1.047987e+002
5.572342e+002,9.960114e+001
5.581984e+002,9.368488e+001
5.591627e+002,9.110657e+001
5.601269e+002,9.110693e+001
5.610911e+002,9.187231e+001
5.620554e+002,9.237012e+001
5.630196e+002,9.233942e+001
5.639838e+002,9.145685e+001
5.649481e+002,8.942554e+001
5.659123e+002,8.707202e+001
5.668765e+002,8.503607e+001
5.678408e+002,8.358008e+001
5.688050e+002,8.253790e+001
5.697692e+002,8.143658e+001
5.707335e+002,7.942871e+001
5.716977e+002,7.630878e+001
5.726619e+002,7.266943e+001
5.736262e+002,6.907245e+001
5.745904e+002,6.583838e+001
5.755546e+002,6.368549e+001
5.765189e+002,6.313013e+001
5.774831e+002,6.331018e+001
5.784473e+002,6.357715e+001
5.794116e+002,6.373376e+001
5.803758e+002,6.417792e+001
5.813400e+002,6.508447e+001
5.823043e+002,6.639130e+001
5.832685e+002,6.605981e+001
5.842327e+002,6.271191e+001
5.851970e+002,5.742035e+001
5.861612e+002,5.480170e+001
5.871254e+002,5.822485e+001
5.880897e+002,6.056500e+001
5.890539e+002,5.979480e+001
5.900181e+002,5.684216e+001
5.909824e+002,5.370569e+001
5.919466e+002,5.195453e+001
5.929108e+002,5.015454e+001
5.938751e+002,4.574023e+001
5.948393e+002,4.041571e+001
5.958035e+002,3.715253e+001
5.967678e+002,3.814740e+001
5.977320e+002,4.284509e+001
5.986962e+002,4.548737e+001
5.996605e+002,4.579773e+001
6.006247e+002,4.433862e+001
6.015889e+002,4.019635e+001
6.025532e+002,3.379053e+001
6.035174e+002,3.019299e+001
6.044816e+002,3.272046e+001
6.054459e+002,3.495282e+001
6.064101e+002,3.608313e+001
6.073743e+002,3.623773e+001
6.083386e+002,3.594513e+001
6.093028e+002,3.557806e+001
6.102670e+002,3.485266e+001
6.112313e+002,3.262079e+001
6.121955e+002,3.011768e+001
6.131597e+002,2.925067e+001
6.141240e+002,3.125336e+001
6.150882e+002,3.501202e+001
6.160524e+002,3.558148e+001
6.170167e+002,3.381317e+001
6.179809e+002,3.315417e+001
6.189451e+002,3.533478e+001
6.199094e+002,3.954419e+001
6.208736e+002,4.156732e+001
6.218378e+002,4.108636e+001
6.228021e+002,3.958533e+001
6.237663e+002,3.568457e+001
6.247305e+002,3.138452e+001
6.256948e+002,2.988184e+001
6.266590e+002,3.307147e+001
6.276232e+002,3.638983e+001
6.285875e+002,3.898303e+001
6.295517e+002,4.007898e+001
6.305159e+002,3.751166e+001
6.314802e+002,3.029181e+001
6.324444e+002,2.118787e+001
6.334086e+002,2.011499e+001
6.343729e+002,2.478546e+001
6.353371e+002,2.816260e+001
6.363013e+002,2.742114e+001
6.372656e+002,2.370258e+001
6.382298e+002,2.161871e+001
6.391940e+002,2.453589e+001
6.401583e+002,2.403046e+001
6.411225e+002,1.779791e+001
6.420867e+002,1.036664e+001
6.430510e+002,7.055969e+000
6.440152e+002,9.920166e+000
6.449794e+002,1.263452e+001
6.459437e+002,1.230310e+001
6.469079e+002,1.034528e+001
6.478721e+002,7.467224e+000
6.488364e+002,4.279785e+000
6.498006e+002,1.503723e+000
6.507648e+002,1.706543e-001
6.517291e+002,-1.266479e-001
6.526933e+002,3.239746e-001
6.536575e+002,1.486450e+000
6.546218e+002,2.875793e+000
6.555860e+002,3.586487e+000
6.565502e+002,3.149780e+000
6.575145e+002,2.781067e+000
6.584787e+002,2.783203e+000
6.594429e+002,2.694702e+000
6.604072e+002,1.978638e+000
6.613714e+002,4.745483e-001
6.623356e+002,-5.484009e-001
6.632999e+002,-3.337402e-001
6.642641e+002,-3.135986e-001
6.652283e+002,-1.065796e+000
6.661926e+002,-2.259766e+000
6.671568e+002,-2.924866e+000
6.681210e+002,-1.876343e+000
6.690853e+002,-2.023315e-001
6.700495e+002,-2.138062e-001
6.710137e+002,-1.841064e+000
6.719780e+002,-3.821106e+000
6.729422e+002,-4.995911e+000
6.739064e+002,-5.621033e+000
6.748707e+002,-4.740417e+000
6.758349e+002,-6.601563e-001
6.767991e+002,2.333191e+000
6.777634e+002,2.127991e+000
6.787276e+002,-4.532471e-001
6.796918e+002,-1.544678e+000
6.806561e+002,1.494263e+000
6.816203e+002,3.891968e+000
6.825845e+002,3.415161e+000
6.835488e+002,1.148193e+000
6.845130e+002,-1.107544e+000
6.854772e+002,-2.018921e+000
6.864415e+002,-1.258057e+000
6.874057e+002,1.570251e+000
6.883699e+002,5.180969e+000
6.893342e+002,7.785522e+000
6.902984e+002,8.610229e+000
6.912626e+002,7.738098e+000
6.922269e+002,4.618530e+000
6.931911e+002,-4.733948e+000
6.941553e+002,-9.243286e+000
6.951196e+002,-5.124451e+000
6.960838e+002,2.431030e+000
6.970480e+002,4.791443e+000
6.980123e+002,-2.665955e+000
6.989765e+002,-7.092590e+000
6.999407e+002,-4.463501e-001
7.009050e+002,8.563110e+000
7.018692e+002,1.243878e+001
7.028334e+002,8.949280e+000
7.037977e+002,3.017395e+000
7.047619e+002,3.329163e+000
7.057261e+002,7.308411e+000
7.066904e+002,8.524475e+000
7.076546e+002,5.930603e+000
7.086188e+002,1.962891e+000
7.095831e+002,4.735107e-001
7.105473e+002,2.137329e+000
7.115115e+002,3.530457e+000
7.124758e+002,5.035217e+000
7.134400e+002,5.664551e+000
7.144042e+002,4.588928e+000
7.153685e+002,2.058838e+000
7.163327e+002,2.078247e-001
7.172969e+002,5.449829e-001
7.182612e+002,1.458618e+000
7.192254e+002,3.350952e+000
7.201896e+002,4.961975e+000
7.211539e+002,3.589661e+000
7.221181e+002,-3.579773e+000
7.230823e+002,-1.266492e+001
7.240466e+002,-1.213629e+001
7.250108e+002,-3.866211e+000
7.259750e+002,3.459839e+000
7.269393e+002,4.045959e+000
7.279035e+002,-1.564270e+000
7.288677e+002,-4.275696e+000
7.298320e+002,1.093750e+000
7.307962e+002,5.128235e+000
7.317604e+002,6.537903e+000
7.327247e+002,6.696899e+000
7.336889e+002,7.046326e+000
7.346531e+002,7.181885e+000
7.356174e+002,6.735229e+000
7.365816e+002,6.886292e+000
7.375458e+002,7.325012e+000
7.385101e+002,8.064331e+000
7.394743e+002,8.852661e+000
7.404385e+002,8.815308e+000
7.414028e+002,5.690308e+000
7.423670e+002,-3.931885e-001
7.433312e+002,-3.479553e+000
7.442955e+002,-2.157410e+000
7.452597e+002,7.777710e-001
7.462239e+002,1.642456e+000
7.471882e+002,-5.772705e-001
7.481524e+002,-1.578064e+000
7.491166e+002,-2.466248e+000
7.500809e+002,-2.650818e+000
7.510451e+002,-9.148560e-001
7.520093e+002,1.938782e+000
7.529736e+002,3.119629e+000
7.539378e+002,6.516113e-001
7.549020e+002,-1.385498e+000
7.558663e+002,2.708130e-001
7.568306e+002,3.545044e+000
7.577948e+002,5.248779e+000
7.587590e+002,3.378418e+000
7.597233e+002,-9.909058e-001
7.606875e+002,-3.867676e+000
7.616517e+002,-5.012390e+000
7.626160e+002,-4.672363e+000
7.635802e+002,-2.204529e+000
7.645444e+002,1.284607e+000
7.655087e+002,3.052551e+000
7.664729e+002,1.078857e+000
7.674371e+002,1.617249e+000
7.684014e+002,7.515076e+000
7.693656e+002,1.324030e+001
7.703298e+002,1.444354e+001
7.712941e+002,1.116168e+001
7.722583e+002,8.844727e+000
7.732225e+002,1.286261e+001
7.741868e+002,1.808380e+001
7.751510e+002,2.082654e+001
7.761152e+002,2.127509e+001
7.770795e+002,2.040808e+001
7.780437e+002,1.898431e+001
7.790079e+002,1.711139e+001
7.799722e+002,1.743219e+001
7.809364e+002,2.007507e+001
7.819006e+002,2.231390e+001
7.828649e+002,2.367657e+001
7.838291e+002,2.441577e+001
7.847933e+002,2.441821e+001
7.857576e+002,2.244763e+001
7.867218e+002,2.014282e+001
7.876860e+002,1.802606e+001
7.886503e+002,1.656604e+001
7.896145e+002,1.628235e+001
7.905787e+002,1.721973e+001
7.915430e+002,1.848810e+001
7.925072e+002,1.844159e+001
7.934714e+002,1.774310e+001
7.944357e+002,1.801434e+001
7.953999e+002,1.949963e+001
7.963641e+002,2.114764e+001
7.973284e+002,2.151611e+001
7.982926e+002,2.044824e+001
7.992568e+002,2.151746e+001
8.002211e+002,2.527783e+001
8.011853e+002,2.734143e+001
8.021495e+002,2.663733e+001
8.031138e+002,2.440070e+001
8.040780e+002,2.257434e+001
8.050422e+002,2.035620e+001
8.060065e+002,1.896448e+001
8.069707e+002,1.865674e+001
8.079349e+002,1.866144e+001
8.088992e+002,1.802240e+001
8.098634e+002,1.681018e+001
8.108276e+002,1.699579e+001
8.117919e+002,2.284271e+001
8.127561e+002,3.022369e+001
8.137203e+002,3.192633e+001
8.146846e+002,2.776062e+001
8.156488e+002,2.196680e+001
8.166130e+002,1.939148e+001
8.175773e+002,2.059583e+001
8.185415e+002,2.066913e+001
8.195057e+002,1.711511e+001
8.204700e+002,1.468158e+001
8.214342e+002,1.554327e+001
8.223984e+002,1.877478e+001
8.233627e+002,2.193103e+001
8.243269e+002,2.469000e+001
8.252911e+002,2.664642e+001
8.262554e+002,2.811432e+001
8.272196e+002,2.856073e+001
8.281838e+002,2.658069e+001
8.291481e+002,2.213513e+001
8.301123e+002,1.743964e+001
8.310765e+002,1.678314e+001
8.320408e+002,1.969019e+001
8.330050e+002,2.059326e+001
8.339692e+002,1.879169e+001
8.349335e+002,1.672626e+001
8.358977e+002,1.728900e+001
8.368619e+002,2.123895e+001
8.378262e+002,2.443726e+001
8.387904e+002,2.584906e+001
8.397546e+002,2.668854e+001
8.407189e+002,2.667126e+001
8.416831e+002,2.651947e+001
8.426473e+002,2.735913e+001
8.436116e+002,2.981226e+001
8.445758e+002,3.325641e+001
8.455400e+002,3.765570e+001
8.465043e+002,4.121051e+001
8.474685e+002,4.185236e+001
8.484327e+002,3.975287e+001
8.493970e+002,3.731470e+001
8.503612e+002,3.795721e+001
8.513254e+002,4.210510e+001
8.522897e+002,4.485077e+001
8.532539e+002,4.549774e+001
8.542181e+002,4.519171e+001
8.551824e+002,4.477216e+001
8.561466e+002,4.483167e+001
8.571108e+002,4.600171e+001
8.580751e+002,4.709869e+001
8.590393e+002,4.857782e+001
8.600035e+002,5.239258e+001
8.609678e+002,5.664703e+001
8.619320e+002,5.840973e+001
8.628962e+002,5.668506e+001
8.638605e+002,5.462177e+001
8.648247e+002,5.738666e+001
8.657889e+002,6.334607e+001
8.667532e+002,6.975214e+001
8.677174e+002,7.622076e+001
8.686816e+002,8.210693e+001
8.696459e+002,8.687347e+001
8.706101e+002,9.079742e+001
8.715743e+002,9.335144e+001
8.725386e+002,9.426703e+001
8.735028e+002,9.446570e+001
8.744670e+002,9.310358e+001
8.754313e+002,9.062848e+001
8.763955e+002,8.785730e+001
8.773597e+002,8.466473e+001
8.783240e+002,8.379291e+001
8.792882e+002,8.914404e+001
8.802524e+002,9.568005e+001
8.812167e+002,9.843787e+001
8.821809e+002,9.701337e+001
8.831451e+002,9.516052e+001
8.841094e+002,9.795154e+001
8.850736e+002,1.055447e+002
8.860378e+002,1.107426e+002
8.870021e+002,1.124943e+002
8.879663e+002,1.146357e+002
8.889305e+002,1.198963e+002
8.898948e+002,1.272195e+002
8.908590e+002,1.319094e+002
8.918232e+002,1.330850e+002
8.927875e+002,1.331902e+002
8.937517e+002,1.313898e+002
8.947159e+002,1.298950e+002
8.956802e+002,1.304539e+002
8.966444e+002,1.329912e+002
8.976086e+002,1.357679e+002
8.985729e+002,1.380577e+002
8.995371e+002,1.396428e+002
9.005013e+002,1.389599e+002
9.014656e+002,1.368134e+002
9.024298e+002,1.359206e+002
9.033940e+002,1.381005e+002
9.043583e+002,1.425513e+002
9.053225e+002,1.462514e+002
9.062867e+002,1.492822e+002
9.072510e+002,1.503815e+002
9.082152e+002,1.491775e+002
9.091794e+002,1.474526e+002
9.101437e+002,1.467142e+002
9.111079e+002,1.471448e+002
9.120721e+002,1.479010e+002
9.130364e+002,1.481707e+002
9.140006e+002,1.479407e+002
9.149648e+002,1.472980e+002
9.159291e+002,1.469031e+002
9.168933e+002,1.475755e+002
9.178575e+002,1.496141e+002
9.188218e+002,1.522023e+002
9.197860e+002,1.536653e+002
9.207502e+002,1.538861e+002
9.217145e+002,1.513668e+002
9.226787e+002,1.446305e+002
9.236429e+002,1.374003e+002
9.246072e+002,1.348130e+002
9.255714e+002,1.376298e+002
9.265356e+002,1.388067e+002
9.274999e+002,1.355563e+002
9.284641e+002,1.318190e+002
9.294283e+002,1.287422e+002
9.303926e+002,1.265995e+002
9.313568e+002,1.256094e+002
9.323210e+002,1.259362e+002
9.332853e+002,1.262625e+002
9.342495e+002,1.244291e+002
9.352137e+002,1.210323e+002
9.361780e+002,1.167520e+002
9.371422e+002,1.121794e+002
9.381064e+002,1.084813e+002
9.390707e+002,1.066666e+002
9.400349e+002,1.061846e+002
9.409991e+002,1.076432e+002
9.419634e+002,1.133921e+002
9.429276e+002,1.175501e+002
9.438918e+002,1.184226e+002
9.448561e+002,1.170115e+002
9.458203e+002,1.147818e+002
9.467845e+002,1.120206e+002
9.477488e+002,1.098733e+002
9.487130e+002,1.092798e+002
9.496772e+002,1.093456e+002
9.506415e+002,1.100225e+002
9.516057e+002,1.108057e+002
9.525699e+002,1.102430e+002
9.535342e+002,1.067600e+002
9.544984e+002,1.008155e+002
9.554626e+002,9.868585e+001
9.564269e+002,1.018489e+002
9.573911e+002,1.044911e+002
9.583553e+002,1.048356e+002
9.593196e+002,1.035642e+002
9.602838e+002,1.015823e+002
9.612480e+002,9.847406e+001
9.622123e+002,9.578674e+001
9.631765e+002,9.458331e+001
9.641407e+002,9.362067e+001
9.651050e+002,9.204224e+001
9.660692e+002,8.991736e+001
9.670334e+002,8.796765e+001
9.679977e+002,8.693500e+001
9.689619e+002,8.672949e+001
9.699261e+002,8.506860e+001
9.708904e+002,8.273462e+001
9.718546e+002,8.473022e+001
9.728188e+002,9.280389e+001
9.737831e+002,1.018129e+002
9.747473e+002,1.040582e+002
9.757115e+002,9.744434e+001
9.766758e+002,9.656158e+001
9.776400e+002,1.079409e+002
9.786042e+002,1.179640e+002
9.795685e+002,1.247375e+002
9.805327e+002,1.270350e+002
9.814969e+002,1.229123e+002
9.824612e+002,1.119979e+002
9.834254e+002,1.000612e+002
9.843896e+002,9.079034e+001
9.853539e+002,8.390363e+001
9.863181e+002,8.043921e+001
9.872823e+002,7.942938e+001
9.882466e+002,7.802698e+001
9.892108e+002,7.426672e+001
9.901750e+002,6.938678e+001
9.911393e+002,6.757581e+001
9.921035e+002,6.847351e+001
9.930677e+002,7.059949e+001
9.940320e+002,7.500482e+001
9.949962e+002,8.078241e+001
9.959604e+002,8.815802e+001
9.969247e+002,9.695215e+001
9.978889e+002,1.029767e+002
9.988531e+002,1.004607e+002
9.998174e+002,9.773944e+001
1.000782e+003,1.011736e+002
1.001746e+003,1.081272e+002
1.002710e+003,1.149698e+002
1.003674e+003,1.196572e+002
1.004639e+003,1.216963e+002
1.005603e+003,1.200505e+002
1.006567e+003,1.140654e+002
1.007531e+003,1.079415e+002
1.008495e+003,1.004442e+002
1.009460e+003,9.525000e+001
1.010424e+003,9.696362e+001
1.011388e+003,1.033583e+002
1.012352e+003,1.043883e+002
1.013317e+003,9.550952e+001
1.014281e+003,8.732123e+001
1.015245e+003,8.280902e+001
1.016209e+003,7.980920e+001
1.017174e+003,7.809216e+001
1.018138e+003,7.667584e+001
1.019102e+003,7.337384e+001
1.020066e+003,6.631207e+001
1.021031e+003,5.717664e+001
1.021995e+003,4.937097e+001
1.022959e+003,4.228400e+001
1.023923e+003,3.675189e+001
1.024887e+003,3.348102e+001
1.025852e+003,3.091449e+001
1.026816e+003,2.630237e+001
1.027780e+003,1.904822e+001
1.028744e+003,1.445959e+001
1.029709e+003,1.424170e+001
1.030673e+003,1.494122e+001
1.031637e+003,1.623651e+001
1.032601e+003,1.728223e+001
1.033566e+003,1.700244e+001
1.034530e+003,1.521588e+001
1.035494e+003,1.361646e+001
1.036458e+003,1.424182e+001
1.037422e+003,1.576379e+001
1.038387e+003,1.611169e+001
1.039351e+003,1.515247e+001
1.040315e+003,1.361841e+001
1.041279e+003,1.205280e+001
1.042244e+003,1.089893e+001
1.043208e+003,1.153821e+001
1.044172e+003,1.529388e+001
1.045136e+003,1.761682e+001
1.046101e+003,1.850726e+001
1.047065e+003,1.844873e+001
1.048029e+003,1.692566e+001
1.048993e+003,1.441925e+001
1.049958e+003,1.280249e+001
1.050922e+003,1.336029e+001
1.051886e+003,1.482977e+001
1.052850e+003,1.644757e+001
1.053814e+003,1.767804e+001
1.054779e+003,1.747705e+001
1.055743e+003,1.570099e+001
1.056707e+003,1.329822e+001
1.057671e+003,1.135156e+001
1.058636e+003,9.764587e+000
1.059600e+003,9.800964e+000
1.060564e+003,1.379706e+001
1.061528e+003,1.714105e+001
1.062493e+003,1.879376e+001
1.063457e+003,1.888879e+001
1.064421e+003,1.709924e+001
1.065385e+003,1.370502e+001
1.066349e+003,1.208282e+001
1.067314e+003,1.610449e+001
1.068278e+003,1.984430e+001
1.069242e+003,1.756378e+001
1.070206e+003,1.293982e+001
1.071171e+003,1.235437e+001
1.072135e+003,1.788831e+001
1.073099e+003,2.510651e+001
1.074063e+003,2.682611e+001
1.075028e+003,2.260040e+001
1.075992e+003,2.009814e+001
1.076956e+003,1.987372e+001
1.077920e+003,1.930701e+001
1.078885e+003,1.744995e+001
1.079849e+003,1.526813e+001
1.080813e+003,1.446051e+001
1.081777e+003,1.565289e+001
1.082741e+003,1.644592e+001
1.083706e+003,1.374792e+001
1.084670e+003,1.099902e+001
1.085634e+003,1.047552e+001
1.086598e+003,1.136725e+001
1.087563e+003,1.202118e+001
1.088527e+003,1.169769e+001
1.089491e+003,1.099011e+001
1.090455e+003,1.023877e+001
1.091420e+003,9.054749e+000
1.092384e+003,9.274292e+000
1.093348e+003,1.105725e+001
1.094312e+003,1.319312e+001
1.095276e+003,1.611145e+001
1.096241e+003,1.937732e+001
1.097205e+003,2.047791e+001
1.098169e+003,1.792352e+001
1.099133e+003,1.558972e+001
1.100098e+003,1.521454e+001
1.101062e+003,1.565430e+001
1.102026e+003,1.713495e+001
1.102990e+003,1.879126e+001
1.103955e+003,1.857672e+001
1.104919e+003,1.521216e+001
1.105883e+003,1.061426e+001
1.106847e+003,9.233887e+000
1.107812e+003,1.112769e+001
1.108776e+003,1.265460e+001
1.109740e+003,1.331757e+001
1.110704e+003,1.435297e+001
1.111668e+003,1.771393e+001
1.112633e+003,2.287921e+001
1.113597e+003,2.600317e+001
1.114561e+003,2.531201e+001
1.115525e+003,2.494128e+001
1.116490e+003,2.653021e+001
1.117454e+003,2.834875e+001
1.118418e+003,2.991211e+001
1.119382e+003,3.120349e+001
1.120347e+003,3.162878e+001
1.121311e+003,3.047437e+001
1.122275e+003,2.887268e+001
1.123239e+003,3.107104e+001
1.124203e+003,3.714246e+001
1.125168e+003,4.009009e+001
1.126132e+003,3.840326e+001
1.127096e+003,3.659357e+001
1.128060e+003,3.820325e+001
1.129025e+003,4.227917e+001
1.129989e+003,4.473517e+001
1.130953e+003,4.351575e+001
1.131917e+003,4.442493e+001
1.132882e+003,5.126105e+001
1.133846e+003,5.856671e+001
1.134810e+003,6.273798e+001
1.135774e+003,6.465533e+001
1.136739e+003,6.683289e+001
1.137703e+003,7.069421e+001
1.138667e+003,7.632153e+001
1.139631e+003,8.476526e+001
1.140595e+003,9.537579e+001
1.141560e+003,1.029453e+002
1.142524e+003,1.060128e+002
1.143488e+003,1.118178e+002
1.144452e+003,1.253336e+002
1.145417e+003,1.453312e+002
1.146381e+003,1.675098e+002
1.147345e+003,1.919671e+002
1.148309e+003,2.177571e+002
1.149274e+003,2.453362e+002
1.150238e+003,2.738557e+002
1.151202e+003,3.054111e+002
1.152166e+003,3.375173e+002
1.153130e+003,3.665407e+002
1.154095e+003,3.900849e+002
1.155059e+003,4.065674e+002
1.156023e+003,4.147688e+002
1.156987e+003,4.140642e+002
1.157952e+003,4.041561e+002
1.158916e+003,3.852619e+002
1.159880e+003,3.621053e+002
1.160844e+003,3.341160e+002
1.161809e+003,3.026885e+002
1.162773e+003,2.724437e+002
1.163737e+003,2.434435e+002
1.164701e+003,2.155317e+002
1.165666e+003,1.868558e+002
1.166630e+003,1.620583e+002
1.167594e+003,1.432971e+002
1.168558e+003,1.292073e+002
1.169522e+003,1.183222e+002
1.170487e+003,1.099154e+002
1.171451e+003,1.039406e+002
1.172415e+003,1.004161e+002
1.173379e+003,9.889532e+001
1.174344e+003,9.788245e+001
1.175308e+003,9.762079e+001
1.176272e+003,9.679041e+001
1.177236e+003,9.502698e+001
1.178201e+003,9.274750e+001
1.179165e+003,9.021069e+001
1.180129e+003,8.708612e+001
1.181093e+003,8.303058e+001
1.182057e+003,7.724481e+001
1.183022e+003,7.210309e+001
1.183986e+003,6.843127e+001
1.184950e+003,6.581293e+001
1.185914e+003,6.380603e+001
1.186879e+003,6.254773e+001
1.187843e+003,6.281714e+001
1.188807e+003,6.516144e+001
1.189771e+003,6.852417e+001
1.190736e+003,7.029657e+001
1.191700e+003,7.031244e+001
1.192664e+003,6.959729e+001
1.193628e+003,6.765912e+001
1.194593e+003,6.631342e+001
1.195557e+003,6.835669e+001
1.196521e+003,7.197711e+001
1.197485e+003,7.037152e+001
1.198449e+003,6.100720e+001
1.199414e+003,5.151849e+001
1.200378e+003,4.449878e+001
1.201342e+003,3.933209e+001
1.202306e+003,3.666791e+001
1.203271e+003,3.519409e+001
1.204235e+003,3.227936e+001
1.205199e+003,2.693994e+001
1.206163e+003,2.158813e+001
1.207128e+003,2.035156e+001
1.208092e+003,2.357361e+001
1.209056e+003,2.454504e+001
1.210020e+003,2.397705e+001
1.210984e+003,2.051953e+001
1.211949e+003,1.182288e+001
1.212913e+003,1.034851e+000
1.213877e+003,-8.173523e+000
1.214841e+003,-1.535516e+001
1.215806e+003,-2.001471e+001
1.216770e+003,-2.005585e+001
1.217734e+003,-2.078668e+001
1.218698e+003,-2.785809e+001
1.219663e+003,-3.679919e+001
1.220627e+003,-4.132269e+001
1.221591e+003,-4.094971e+001
1.222555e+003,-4.052893e+001
1.223520e+003,-4.453796e+001
1.224484e+003,-5.159076e+001
1.225448e+003,-5.585669e+001
1.226412e+003,-5.638202e+001
1.227376e+003,-5.601605e+001
1.228341e+003,-5.458545e+001
1.229305e+003,-5.278320e+001
1.230269e+003,-4.975391e+001
1.231233e+003,-4.700476e+001
1.232198e+003,-4.809119e+001
1.233162e+003,-5.398169e+001
1.234126e+003,-5.914990e+001
1.235090e+003,-5.922607e+001
1.236055e+003,-5.751917e+001
1.237019e+003,-5.703687e+001
1.237983e+003,-5.791821e+001
1.238947e+003,-6.061029e+001
1.239911e+003,-6.503833e+001
1.240876e+003,-6.803192e+001
1.241840e+003,-6.433777e+001
1.242804e+003,-5.330255e+001
1.243768e+003,-4.724805e+001
1.244733e+003,-5.090137e+001
1.245697e+003,-5.357013e+001
1.246661e+003,-5.460303e+001
1.247625e+003,-5.502979e+001
1.248590e+003,-5.549939e+001
1.249554e+003,-5.560565e+001
1.250518e+003,-5.440894e+001
1.251482e+003,-5.162006e+001
1.252447e+003,-4.844415e+001
1.253411e+003,-4.545752e+001
1.254375e+003,-4.297437e+001
1.255339e+003,-4.247784e+001
1.256303e+003,-4.371875e+001
1.257268e+003,-4.399524e+001
1.258232e+003,-4.181140e+001
1.259196e+003,-3.865741e+001
1.260160e+003,-3.719891e+001
1.261125e+003,-3.759027e+001
1.262089e+003,-3.652142e+001
1.263053e+003,-3.262500e+001
1.264017e+003,-2.927051e+001
1.264982e+003,-2.785004e+001
1.265946e+003,-2.657330e+001
1.266910e+003,-2.253406e+001
1.267874e+003,-1.678333e+001
1.268839e+003,-1.386664e+001
1.269803e+003,-1.682050e+001
1.270767e+003,-2.282123e+001
1.271731e+003,-2.646124e+001
1.272695e+003,-2.762042e+001
1.273660e+003,-2.959863e+001
1.274624e+003,-3.339526e+001
1.275588e+003,-3.721301e+001
1.276552e+003,-4.017145e+001
1.277517e+003,-4.181531e+001
1.278481e+003,-4.138757e+001
1.279445e+003,-3.881891e+001
1.280409e+003,-3.637177e+001
1.281374e+003,-3.375897e+001
1.282338e+003,-3.280743e+001
1.283302e+003,-3.636731e+001
1.284266e+003,-4.086853e+001
1.285230e+003,-4.146857e+001
1.286195e+003,-3.831781e+001
1.287159e+003,-3.583997e+001
1.288123e+003,-3.751691e+001
1.289087e+003,-4.183514e+001
1.290052e+003,-4.493591e+001
1.291016e+003,-4.689319e+001
1.291980e+003,-4.829694e+001
1.292944e+003,-4.916443e+001
1.293909e+003,-5.018658e+001
1.294873e+003,-5.176501e+001
1.295837e+003,-5.298260e+001
1.296801e+003,-5.219562e+001
1.297766e+003,-4.942206e+001
1.298730e+003,-4.761407e+001
1.299694e+003,-4.906903e+001
1.300658e+003,-5.124994e+001
1.301622e+003,-5.075641e+001
1.302587e+003,-4.894543e+001
1.303551e+003,-4.837805e+001
1.304515e+003,-4.923773e+001
1.305479e+003,-4.942676e+001
1.306444e+003,-4.729987e+001
1.307408e+003,-4.377252e+001
1.308372e+003,-4.142114e+001
1.309336e+003,-4.059125e+001
1.310301e+003,-4.000531e+001
1.311265e+003,-3.790448e+001
1.312229e+003,-3.769482e+001
1.313193e+003,-4.245190e+001
1.314157e+003,-4.839722e+001
1.315122e+003,-5.178436e+001
1.316086e+003,-5.219788e+001
1.317050e+003,-5.091040e+001
1.318014e+003,-4.840594e+001
1.318979e+003,-4.603101e+001
1.319943e+003,-4.719470e+001
1.320907e+003,-5.106946e+001
1.321871e+003,-5.150629e+001
1.322836e+003,-4.781329e+001
1.323800e+003,-4.409662e+001
1.324764e+003,-4.235718e+001
1.325728e+003,-4.187891e+001
1.326693e+003,-4.165790e+001
1.327657e+003,-4.186487e+001
1.328621e+003,-4.283820e+001
1.329585e+003,-4.482599e+001
1.330549e+003,-4.515814e+001
1.331514e+003,-4.182990e+001
1.332478e+003,-3.850281e+001
1.333442e+003,-3.939966e+001
1.334406e+003,-4.331378e+001
1.335371e+003,-4.531555e+001
1.336335e+003,-4.248865e+001
1.337299e+003,-3.717249e+001
1.338263e+003,-3.385364e+001
1.339228e+003,-3.263031e+001
1.340192e+003,-3.237103e+001
1.341156e+003,-3.426910e+001
1.342120e+003,-3.534937e+001
1.343084e+003,-3.486847e+001
1.344049e+003,-3.437793e+001
1.345013e+003,-3.539929e+001
1.345977e+003,-3.699243e+001
1.346941e+003,-3.632758e+001
1.347906e+003,-3.227747e+001
1.348870e+003,-2.812372e+001
1.349834e+003,-2.683398e+001
1.350798e+003,-2.787396e+001
1.351763e+003,-2.980646e+001
1.352727e+003,-3.237360e+001
1.353691e+003,-3.489404e+001
1.354655e+003,-3.727606e+001
1.355620e+003,-3.885211e+001
1.356584e+003,-3.848517e+001
1.357548e+003,-3.628204e+001
1.358512e+003,-3.424292e+001
1.359476e+003,-3.271808e+001
1.360441e+003,-3.192169e+001
1.361405e+003,-3.183679e+001
1.362369e+003,-3.213702e+001
1.363333e+003,-3.293652e+001
1.364298e+003,-3.386279e+001
1.365262e+003,-3.408057e+001
1.366226e+003,-3.368817e+001
1.367190e+003,-3.431812e+001
1.368155e+003,-3.750055e+001
1.369119e+003,-4.183032e+001
1.370083e+003,-4.272186e+001
1.371047e+003,-3.912653e+001
1.372011e+003,-3.517114e+001
1.372976e+003,-2.947205e+001
1.373940e+003,-2.603406e+001
1.374904e+003,-2.787634e+001
1.375868e+003,-3.144940e+001
1.376833e+003,-3.228027e+001
1.377797e+003,-3.035315e+001
1.378761e+003,-2.882043e+001
1.379725e+003,-2.920575e+001
1.380690e+003,-2.934479e+001
1.381654e+003,-2.587292e+001
1.382618e+003,-2.116522e+001
1.383582e+003,-1.873499e+001
1.384547e+003,-1.856152e+001
1.385511e+003,-1.865765e+001
1.386475e+003,-1.824023e+001
1.387439e+003,-1.756696e+001
1.388403e+003,-1.654395e+001
1.389368e+003,-1.521783e+001
1.390332e+003,-1.590161e+001
1.391296e+003,-2.052942e+001
1.392260e+003,-2.278497e+001
1.393225e+003,-1.860413e+001
1.394189e+003,-1.494183e+001
1.395153e+003,-1.646289e+001
1.396117e+003,-2.079236e+001
1.397082e+003,-2.394824e+001
1.398046e+003,-2.470502e+001
1.399010e+003,-2.456757e+001
1.399974e+003,-2.511414e+001
1.400938e+003,-2.644244e+001
1.401903e+003,-2.769324e+001
1.402867e+003,-2.802386e+001
1.403831e+003,-2.714453e+001
1.404795e+003,-2.503815e+001
1.405760e+003,-2.276019e+001
1.406724e+003,-2.056805e+001
1.407688e+003,-1.971826e+001
1.408652e+003,-2.191614e+001
1.409617e+003,-2.603693e+001
1.410581e+003,-2.793591e+001
1.411545e+003,-2.576691e+001
1.412509e+003,-2.226172e+001
1.413474e+003,-1.971179e+001
1.414438e+003,-1.838049e+001
1.415402e+003,-1.842578e+001
1.416366e+003,-1.919098e+001
1.417330e+003,-1.842181e+001
1.418295e+003,-1.464941e+001
1.419259e+003,-1.126447e+001
1.420223e+003,-1.367578e+001
1.421187e+003,-2.077887e+001
1.422152e+003,-2.377802e+001
1.423116e+003,-2.088251e+001
1.424080e+003,-1.776581e+001
1.425044e+003,-1.649310e+001
1.426009e+003,-1.545349e+001
1.426973e+003,-1.404785e+001
1.427937e+003,-1.251794e+001
1.428901e+003,-1.105988e+001
1.429865e+003,-9.554810e+000
1.430830e+003,-7.819275e+000
1.431794e+003,-5.908020e+000
1.432758e+003,-4.144104e+000
1.433722e+003,-2.692383e+000
1.434687e+003,-1.012207e+000
1.435651e+003,8.488770e-001
1.436615e+003,1.140137e+000
1.437579e+003,1.617737e+000
1.438544e+003,2.914795e+000
1.439508e+003,4.293640e+000
1.440472e+003,6.030090e+000
1.441436e+003,7.704041e+000
1.442401e+003,7.907959e+000
1.443365e+003,6.393311e+000
1.444329e+003,5.251343e+000
1.445293e+003,6.333069e+000
1.446257e+003,8.291443e+000
1.447222e+003,7.960571e+000
1.448186e+003,5.855652e+000
1.449150e+003,5.307068e+000
1.450114e+003,6.896057e+000
1.451079e+003,8.255432e+000
1.452043e+003,8.810303e+000
1.453007e+003,8.553894e+000
1.453971e+003,6.415771e+000
1.454936e+003,2.694702e+000
1.455900e+003,1.213196e+000
1.456864e+003,3.912659e+000
1.457828e+003,5.523315e+000
1.458792e+003,-1.527710e-001
1.459757e+003,-5.754028e+000
1.460721e+003,-3.272949e+000
1.461685e+003,3.409729e+000
1.462649e+003,5.646973e+000
1.463614e+003,1.627991e+000
1.464578e+003,-2.872192e+000
1.465542e+003,-2.839355e+000
1.466506e+003,4.992676e-002
1.467471e+003,1.210266e+000
1.468435e+003,5.410767e-001
1.469399e+003,9.080200e-001
1.470363e+003,1.983521e+000
1.471328e+003,3.931641e+000
1.472292e+003,7.907532e+000
1.473256e+003,1.092566e+001
1.474220e+003,1.055566e+001
1.475184e+003,8.543823e+000
1.476149e+003,7.996521e+000
1.477113e+003,9.634888e+000
1.478077e+003,1.176221e+001
1.479041e+003,1.305804e+001
1.480006e+003,1.396564e+001
1.480970e+003,1.510785e+001
1.481934e+003,1.613336e+001
1.482898e+003,1.712805e+001
1.483863e+003,1.844879e+001
1.484827e+003,1.906567e+001
1.485791e+003,1.779419e+001
1.486755e+003,1.714093e+001
1.487719e+003,1.925043e+001
1.488684e+003,2.353278e+001
1.489648e+003,2.884729e+001
1.490612e+003,3.492114e+001
1.491576e+003,4.007617e+001
1.492541e+003,4.221161e+001
1.493505e+003,4.335394e+001
1.494469e+003,4.900220e+001
1.495433e+003,5.778607e+001
1.496398e+003,6.345789e+001
1.497362e+003,6.485126e+001
1.498326e+003,6.668512e+001
1.499290e+003,7.014191e+001
1.500255e+003,7.614783e+001
1.501219e+003,8.688000e+001
1.502183e+003,1.014112e+002
1.503147e+003,1.147787e+002
1.504111e+003,1.254673e+002
1.505076e+003,1.371222e+002
1.506040e+003,1.517481e+002
1.507004e+003,1.687498e+002
1.507968e+003,1.876464e+002
1.508933e+003,2.081510e+002
1.509897e+003,2.291808e+002
1.510861e+003,2.513597e+002
1.511825e+003,2.779209e+002
1.512790e+003,3.117887e+002
1.513754e+003,3.488550e+002
1.514718e+003,3.818902e+002
1.515682e+003,4.104910e+002
1.516646e+003,4.390173e+002
1.517611e+003,4.692933e+002
1.518575e+003,4.970609e+002
1.519539e+003,5.234359e+002
1.520503e+003,5.452715e+002
1.521468e+003,5.614991e+002
1.522432e+003,5.713119e+002
1.523396e+003,5.731547e+002
1.524360e+003,5.674971e+002
1.525325e+003,5.573778e+002
1.526289e+003,5.449466e+002
1.527253e+003,5.284972e+002
1.528217e+003,5.041350e+002
1.529182e+003,4.721157e+002
1.530146e+003,4.410336e+002
1.531110e+003,4.131321e+002
1.532074e+003,3.809146e+002
1.533039e+003,3.400338e+002
1.534003e+003,2.979551e+002
1.534967e+003,2.570445e+002
1.535931e+003,2.189812e+002
1.536896e+003,1.843102e+002
1.537860e+003,1.538695e+002
1.538824e+003,1.290334e+002
1.539788e+003,1.102212e+002
1.540752e+003,9.614252e+001
1.541717e+003,8.553290e+001
1.542681e+003,7.828436e+001
1.543645e+003,7.216986e+001
1.544609e+003,6.813287e+001
1.545573e+003,6.400665e+001
1.546538e+003,5.759766e+001
1.547502e+003,5.280817e+001
1.548466e+003,5.188110e+001
1.549430e+003,5.356628e+001
1.550395e+003,5.751013e+001
1.551359e+003,6.221149e+001
1.552323e+003,6.496265e+001
1.553287e+003,6.484473e+001
1.554252e+003,6.236987e+001
1.555216e+003,5.761987e+001
1.556180e+003,5.158026e+001
1.557144e+003,4.630011e+001
1.558109e+003,4.200323e+001
1.559073e+003,3.962360e+001
1.560037e+003,3.959119e+001
1.561001e+003,3.931323e+001
1.561966e+003,3.820697e+001
1.562930e+003,3.733887e+001
1.563894e+003,3.733783e+001
1.564858e+003,3.793524e+001
1.565823e+003,3.894104e+001
1.566787e+003,4.018335e+001
1.567751e+003,4.053271e+001
1.568715e+003,3.923743e+001
1.569679e+003,3.765637e+001
1.570644e+003,3.714648e+001
1.571608e+003,3.736377e+001
1.572572e+003,3.821027e+001
1.573536e+003,3.996643e+001
1.574500e+003,4.128552e+001
1.575465e+003,4.078003e+001
1.576429e+003,4.088239e+001
1.577393e+003,4.454510e+001
1.578357e+003,4.949213e+001
1.579322e+003,5.131787e+001
1.580286e+003,5.003290e+001
1.581250e+003,4.863513e+001
1.582214e+003,4.798895e+001
1.583179e+003,4.738251e+001
1.584143e+003,4.503302e+001
1.585107e+003,4.324567e+001
1.586071e+003,4.684625e+001
1.587036e+003,5.417773e+001
1.588000e+003,5.855701e+001
1.588964e+003,5.818835e+001
1.589928e+003,5.628693e+001
1.590893e+003,5.413989e+001
1.591857e+003,5.259357e+001
1.592821e+003,5.306451e+001
1.593785e+003,5.542273e+001
1.594750e+003,5.882623e+001
1.595714e+003,6.332825e+001
1.596678e+003,6.659460e+001
1.597642e+003,6.710919e+001
1.598606e+003,6.706311e+001
1.599571e+003,6.803326e+001
1.600535e+003,6.986731e+001
1.601499e+003,7.269659e+001
1.602463e+003,7.609479e+001
1.603427e+003,7.870081e+001
1.604392e+003,8.001019e+001
1.605356e+003,8.036926e+001
1.606320e+003,7.968042e+001
1.607284e+003,7.850330e+001
1.608249e+003,7.870380e+001
1.609213e+003,8.036469e+001
1.610177e+003,8.068347e+001
1.611141e+003,7.857440e+001
1.612106e+003,7.669019e+001
1.613070e+003,7.573950e+001
1.614034e+003,7.598199e+001
1.614998e+003,7.829156e+001
1.615963e+003,8.171112e+001
1.616927e+003,8.484607e+001
1.617891e+003,8.723138e+001
1.618855e+003,8.846570e+001
1.619820e+003,8.812286e+001
1.620784e+003,8.624023e+001
1.621748e+003,8.244684e+001
1.622712e+003,7.803015e+001
1.623677e+003,7.832739e+001
1.624641e+003,8.434943e+001
1.625605e+003,8.974261e+001
1.626569e+003,9.309808e+001
1.627533e+003,9.364105e+001
1.628498e+003,8.904578e+001
1.629462e+003,8.428973e+001
1.630426e+003,8.382263e+001
1.631390e+003,8.632397e+001
1.632354e+003,8.862585e+001
1.633319e+003,8.981061e+001
1.634283e+003,9.047852e+001
1.635247e+003,9.099561e+001
1.636211e+003,9.124420e+001
1.637176e+003,9.103143e+001
1.638140e+003,9.060229e+001
1.639104e+003,9.138934e+001
1.640068e+003,9.412732e+001
1.641033e+003,9.451105e+001
1.641997e+003,8.912787e+001
1.642961e+003,8.496454e+001
1.643925e+003,8.638098e+001
1.644890e+003,8.972394e+001
1.645854e+003,9.219348e+001
1.646818e+003,9.317511e+001
1.647782e+003,9.177655e+001
1.648747e+003,8.794135e+001
1.649711e+003,8.462183e+001
1.650675e+003,8.463922e+001
1.651639e+003,8.661487e+001
1.652604e+003,8.722766e+001
1.653568e+003,8.632373e+001
1.654532e+003,8.559912e+001
1.655496e+003,8.538422e+001
1.656460e+003,8.451941e+001
1.657425e+003,8.291833e+001
1.658389e+003,8.055676e+001
1.659353e+003,7.617719e+001
1.660317e+003,7.194330e+001
1.661281e+003,7.077582e+001
1.662246e+003,7.165625e+001
1.663210e+003,7.111304e+001
1.664174e+003,6.820117e+001
1.665138e+003,6.564215e+001
1.666103e+003,6.579956e+001
1.667067e+003,6.715222e+001
1.668031e+003,6.675549e+001
1.668995e+003,6.484454e+001
1.669960e+003,6.358240e+001
1.670924e+003,6.341907e+001
1.671888e+003,6.303864e+001
1.672852e+003,6.113141e+001
1.673817e+003,5.982166e+001
1.674781e+003,6.167139e+001
1.675745e+003,6.383118e+001
1.676709e+003,6.303729e+001
1.677674e+003,5.970209e+001
1.678638e+003,5.553302e+001
1.679602e+003,5.112067e+001
1.680566e+003,4.757660e+001
1.681531e+003,4.576813e+001
1.682495e+003,4.581879e+001
1.683459e+003,4.906427e+001
1.684423e+003,5.424048e+001
1.685387e+003,5.360852e+001
1.686352e+003,4.568634e+001
1.687316e+003,3.973999e+001
1.688280e+003,3.955438e+001
1.689244e+003,4.035925e+001
1.690208e+003,3.772955e+001
1.691173e+003,3.470160e+001
1.692137e+003,3.572327e+001
1.693101e+003,3.965094e+001
1.694065e+003,4.137396e+001
1.695030e+003,3.927112e+001
1.695994e+003,3.671179e+001
1.696958e+003,3.616541e+001
1.697922e+003,3.613342e+001
1.698887e+003,3.437866e+001
1.699851e+003,3.173608e+001
1.700815e+003,3.073712e+001
1.701779e+003,3.138269e+001
1.702744e+003,3.105920e+001
1.703708e+003,2.900012e+001
1.704672e+003,2.728394e+001
1.705636e+003,2.701172e+001
1.706601e+003,2.733612e+001
1.707565e+003,2.823395e+001
1.708529e+003,2.939197e+001
1.709493e+003,2.867053e+001
1.710458e+003,2.557318e+001
1.711422e+003,2.246130e+001
1.712386e+003,1.982214e+001
1.713350e+003,1.862939e+001
1.714314e+003,2.078546e+001
1.715279e+003,2.360730e+001
1.716243e+003,2.208606e+001
1.717207e+003,1.704333e+001
1.718171e+003,1.414294e+001
1.719135e+003,1.502551e+001
1.720100e+003,1.599469e+001
1.721064e+003,1.433136e+001
1.722028e+003,1.187384e+001
1.722992e+003,1.183160e+001
1.723957e+003,1.392712e+001
1.724921e+003,1.437231e+001
1.725885e+003,1.231140e+001
1.726849e+003,1.041840e+001
1.727814e+003,9.967651e+000
1.728778e+003,9.860657e+000
1.729742e+003,8.772583e+000
1.730706e+003,8.333130e+000
1.731671e+003,1.092938e+001
1.732635e+003,1.449518e+001
1.733599e+003,1.530273e+001
1.734563e+003,1.323730e+001
1.735528e+003,1.045361e+001
1.736492e+003,7.938843e+000
1.737456e+003,6.165405e+000
1.738420e+003,5.800049e+000
1.739385e+003,6.151855e+000
1.740349e+003,5.567627e+000
1.741313e+003,3.738586e+000
1.742277e+003,3.876587e+000
1.743241e+003,8.598572e+000
1.744206e+003,1.162512e+001
1.745170e+003,1.086414e+001
1.746134e+003,9.373230e+000
1.747098e+003,8.962952e+000
1.748063e+003,8.594360e+000
1.749027e+003,6.635254e+000
1.749991e+003,3.647827e+000
1.750955e+003,9.777222e-001
1.751919e+003,-7.084351e-001
1.752884e+003,-4.716797e-001
1.753848e+003,2.526489e+000
1.754812e+003,6.335815e+000
1.755776e+003,7.133301e+000
1.756741e+003,5.319641e+000
1.757705e+003,4.306396e+000
1.758669e+003,4.070740e+000
1.759633e+003,3.889709e+000
1.760598e+003,3.264954e+000
1.761562e+003,2.811157e+000
1.762526e+003,2.944702e+000
1.763490e+003,3.680420e+000
1.764455e+003,5.958923e+000
1.765419e+003,8.462036e+000
1.766383e+003,8.759094e+000
1.767347e+003,6.757996e+000
1.768312e+003,4.489929e+000
1.769276e+003,2.807617e+000
1.770240e+003,1.171936e+000
1.771204e+003,-5.955200e-001
1.772168e+003,-2.091309e+000
1.773133e+003,-3.648865e+000
1.774097e+003,-5.044250e+000
1.775061e+003,-3.007751e+000
1.776025e+003,3.236511e+000
1.776990e+003,6.625793e+000
1.777954e+003,3.921082e+000
1.778918e+003,1.046936e+000
1.779882e+003,3.046814e+000
1.780846e+003,5.989807e+000
1.781811e+003,4.254272e+000
1.782775e+003,-5.892334e-001
1.783739e+003,-3.695679e+000
1.784703e+003,-4.269714e+000
1.785668e+003,-3.226379e+000
1.786632e+003,3.686523e-001
1.787596e+003,2.901245e+000
1.788560e+003,1.372375e+000
1.789525e+003,-1.681213e+000
1.790489e+003,-3.827271e+000
1.791453e+003,-4.807739e+000
1.792417e+003,-3.718933e+000
1.793382e+003,-6.409302e-001
1.794346e+003,1.797058e+000
1.795310e+003,2.117004e+000
1.796274e+003,1.935608e+000
1.797239e+003,3.509460e+000
1.798203e+003,6.203247e+000
1.799167e+003,6.561157e+000
1.800131e+003,3.396729e+000
1.801095e+003,1.112183e+000
1.802060e+003,2.614136e-001
1.803024e+003,6.115723e-001
1.803988e+003,3.137878e+000
1.804952e+003,5.159363e+000
1.805917e+003,4.902527e+000
1.806881e+003,3.941650e+000
1.807845e+003,3.952148e+000
1.808809e+003,4.808350e+000
1.809773e+003,5.880981e+000
1.810738e+003,6.829590e+000
1.811702e+003,7.108276e+000
1.812666e+003,6.382385e+000
1.813630e+003,5.813293e+000
1.814595e+003,7.140442e+000
1.815559e+003,9.616272e+000
1.816523e+003,1.050867e+001
1.817487e+003,9.775024e+000
1.818452e+003,8.784790e+000
1.819416e+003,7.721191e+000
1.820380e+003,6.994690e+000
1.821344e+003,6.590088e+000
1.822309e+003,6.045532e+000
1.823273e+003,4.798706e+000
1.824237e+003,3.978210e+000
1.825201e+003,5.036316e+000
1.826166e+003,7.121948e+000
1.827130e+003,7.915710e+000
1.828094e+003,6.949890e+000
1.829058e+003,6.439575e+000
1.830022e+003,8.028809e+000
1.830987e+003,9.654053e+000
1.831951e+003,9.331299e+000
1.832915e+003,8.220764e+000
1.833879e+003,8.004333e+000
1.834844e+003,8.438416e+000
1.835808e+003,8.177856e+000
1.836772e+003,7.284363e+000
1.837736e+003,8.234192e+000
1.838700e+003,1.204053e+001
1.839665e+003,1.541254e+001
1.840629e+003,1.539294e+001
1.841593e+003,1.341498e+001
1.842557e+003,1.219861e+001
1.843522e+003,1.171960e+001
1.844486e+003,1.116980e+001
1.845450e+003,1.124738e+001
1.846414e+003,1.069659e+001
1.847379e+003,7.080505e+000
1.848343e+003,5.124573e+000
1.849307e+003,8.627869e+000
1.850271e+003,1.210443e+001
1.851236e+003,1.087836e+001
1.852200e+003,7.896973e+000
1.853164e+003,7.299011e+000
1.854128e+003,8.775574e+000
1.855093e+003,9.905884e+000
1.856057e+003,9.985535e+000
1.857021e+003,9.633118e+000
1.857985e+003,9.110474e+000
1.858949e+003,8.583374e+000
1.859914e+003,8.233887e+000
1.860878e+003,8.304077e+000
1.861842e+003,1.007477e+001
1.862806e+003,1.349945e+001
1.863771e+003,1.541290e+001
1.864735e+003,1.480005e+001
1.865699e+003,1.429688e+001
1.866663e+003,1.534186e+001
1.867627e+003,1.688928e+001
1.868592e+003,1.802698e+001
1.869556e+003,1.842737e+001
1.870520e+003,1.791339e+001
1.871484e+003,1.657983e+001
1.872449e+003,1.522736e+001
1.873413e+003,1.468030e+001
1.874377e+003,1.492480e+001
1.875341e+003,1.508234e+001
1.876306e+003,1.553876e+001
1.877270e+003,1.661145e+001
1.878234e+003,1.777759e+001
1.879198e+003,1.878931e+001
1.880163e+003,1.960541e+001
1.881127e+003,2.052649e+001
1.882091e+003,2.131812e+001
1.883055e+003,2.055212e+001
1.884020e+003,1.786292e+001
1.884984e+003,1.570538e+001
1.885948e+003,1.636609e+001
1.886912e+003,1.846973e+001
1.887876e+003,1.921527e+001
1.888841e+003,1.882770e+001
1.889805e+003,1.977014e+001
1.890769e+003,2.240228e+001
1.891733e+003,2.457379e+001
1.892698e+003,2.644586e+001
1.893662e+003,2.619073e+001
1.894626e+003,2.091370e+001
1.895590e+003,1.656464e+001
1.896554e+003,1.854510e+001
1.897519e+003,2.306940e+001
1.898483e+003,2.574609e+001
1.899447e+003,2.648724e+001
1.900411e+003,2.658856e+001
1.901376e+003,2.633673e+001
1.902340e+003,2.605731e+001
1.903304e+003,2.563245e+001
1.904268e+003,2.545416e+001
1.905233e+003,2.640594e+001
1.906197e+003,2.736127e+001
1.907161e+003,2.670691e+001
1.908125e+003,2.556165e+001
1.909090e+003,2.609119e+001
1.910054e+003,2.782147e+001
1.911018e+003,2.827118e+001
1.911982e+003,2.699084e+001
1.912947e+003,2.658484e+001
1.913911e+003,2.887592e+001
1.914875e+003,3.198041e+001
1.915839e+003,3.278839e+001
1.916803e+003,3.160645e+001
1.917768e+003,3.145074e+001
1.918732e+003,3.291528e+001
1.919696e+003,3.271283e+001
1.920660e+003,2.960406e+001
1.921625e+003,2.904218e+001
1.922589e+003,3.465765e+001
1.923553e+003,3.855426e+001
1.924517e+003,3.434863e+001
1.925481e+003,2.869043e+001
1.926446e+003,2.740039e+001
1.927410e+003,2.892230e+001
1.928374e+003,2.996216e+001
1.929338e+003,3.013452e+001
1.930303e+003,3.089288e+001
1.931267e+003,3.364984e+001
1.932231e+003,3.526001e+001
1.933195e+003,3.194574e+001
1.934160e+003,2.906915e+001
1.935124e+003,3.246680e+001
1.936088e+003,3.676892e+001
1.937052e+003,3.423956e+001
1.938017e+003,2.809534e+001
1.938981e+003,2.622113e+001
1.939945e+003,2.941113e+001
1.940909e+003,3.366986e+001
1.941874e+003,3.682275e+001
1.942838e+003,3.813739e+001
1.943802e+003,3.709534e+001
1.944766e+003,3.540460e+001
1.945730e+003,3.589215e+001
1.946695e+003,3.810114e+001
1.947659e+003,4.048578e+001
1.948623e+003,4.317566e+001
1.949587e+003,4.328235e+001
1.950552e+003,3.983295e+001
1.951516e+003,3.722540e+001
1.952480e+003,3.674268e+001
1.953444e+003,3.784387e+001
1.954408e+003,4.147699e+001
1.955373e+003,4.478595e+001
1.956337e+003,4.316364e+001
1.957301e+003,3.852625e+001
1.958265e+003,3.649170e+001
1.959230e+003,3.747571e+001
1.960194e+003,3.898523e+001
1.961158e+003,4.031531e+001
1.962122e+003,4.161792e+001
1.963087e+003,4.319568e+001
1.964051e+003,4.459882e+001
1.965015e+003,4.559937e+001
1.965979e+003,4.687897e+001
1.966944e+003,4.966351e+001
1.967908e+003,5.238672e+001
1.968872e+003,5.203992e+001
1.969836e+003,4.898157e+001
1.970801e+003,4.627496e+001
1.971765e+003,4.532495e+001
1.972729e+003,4.581970e+001
1.973693e+003,4.770959e+001
1.974657e+003,5.011743e+001
1.975622e+003,5.184924e+001
1.976586e+003,5.280267e+001
1.977550e+003,5.282104e+001
1.978514e+003,5.222559e+001
1.979479e+003,5.243652e+001
1.980443e+003,5.347418e+001
1.981407e+003,5.280377e+001
1.982371e+003,4.946558e+001
1.983335e+003,4.734259e+001
1.984300e+003,4.950409e+001
1.985264e+003,5.241571e+001
1.986228e+003,5.045856e+001
1.987192e+003,4.514508e+001
1.988157e+003,4.467816e+001
1.989121e+003,5.070959e+001
1.990085e+003,5.363495e+001
1.991049e+003,5.162213e+001
1.992014e+003,5.059705e+001
1.992978e+003,5.182159e+001
1.993942e+003,5.297900e+001
1.994906e+003,5.260443e+001
1.995871e+003,5.259595e+001
1.996835e+003,5.539606e+001
1.997799e+003,5.903088e+001
1.998763e+003,5.998108e+001
1.999728e+003,5.861023e+001
