5.003444e+002,3.863338e+001
5.013087e+002,3.884651e+001
5.022729e+002,3.943709e+001
5.032371e+002,4.016106e+001
5.042014e+002,3.979994e+001
5.051656e+002,3.852650e+001
5.061298e+002,3.678653e+001
5.070941e+002,3.485052e+001
5.080583e+002,3.244873e+001
5.090225e+002,3.108783e+001
5.099868e+002,3.103577e+001
5.109510e+002,3.134106e+001
5.119152e+002,3.163876e+001
5.128795e+002,3.192532e+001
5.138437e+002,3.212152e+001
5.148079e+002,3.236011e+001
5.157722e+002,3.244034e+001
5.167364e+002,3.214304e+001
5.177006e+002,3.145392e+001
5.186649e+002,3.058313e+001
5.196291e+002,2.991183e+001
5.205933e+002,2.940915e+001
5.215576e+002,2.861829e+001
5.225218e+002,2.749574e+001
5.234860e+002,2.652829e+001
5.244503e+002,2.680234e+001
5.254145e+002,2.909850e+001
5.263787e+002,2.991386e+001
5.273430e+002,2.826668e+001
5.283072e+002,2.581166e+001
5.292714e+002,2.485594e+001
5.302357e+002,2.615160e+001
5.311999e+002,2.695010e+001
5.321641e+002,2.702209e+001
5.331284e+002,2.682848e+001
5.340926e+002,2.670453e+001
5.350568e+002,2.671919e+001
5.360211e+002,2.632590e+001
5.369853e+002,2.465915e+001
5.379495e+002,2.288576e+001
5.389138e+002,2.213187e+001
5.398780e+002,2.269775e+001
5.408422e+002,2.383443e+001
5.418065e+002,2.337794e+001
5.427707e+002,2.157294e+001
5.437349e+002,2.002354e+001
5.446992e+002,1.912556e+001
5.456634e+002,1.872824e+001
5.466276e+002,1.833316e+001
5.475919e+002,1.744563e+001
5.485561e+002,1.741928e+001
5.495203e+002,1.928839e+001
5.504846e+002,2.160120e+001
5.514488e+002,2.212621e+001
5.524130e+002,1.927945e+001
5.533773e+002,1.662251e+001
5.543415e+002,1.650226e+001
5.553057e+002,1.725214e+001
5.562700e+002,1.691689e+001
5.572342e+002,1.429819e+001
5.581984e+002,1.080006e+001
5.591627e+002,1.003410e+001
5.601269e+002,1.116647e+001
5.610911e+002,1.274876e+001
5.620554e+002,1.408089e+001
5.630196e+002,1.501389e+001
5.639838e+002,1.458987e+001
5.649481e+002,1.112239e+001
5.659123e+002,8.761810e+000
5.668765e+002,9.334808e+000
5.678408e+002,1.174516e+001
5.688050e+002,1.246918e+001
5.697692e+002,8.280930e+000
5.707335e+002,5.267334e+000
5.716977e+002,6.021866e+000
5.726619e+002,8.820190e+000
5.736262e+002,1.141652e+001
5.745904e+002,1.238103e+001
5.755546e+002,1.232277e+001
5.765189e+002,1.225458e+001
5.774831e+002,1.193553e+001
5.784473e+002,1.090051e+001
5.794116e+002,8.904449e+000
5.803758e+002,6.196869e+000
5.813400e+002,5.021759e+000
5.823043e+002,5.567596e+000
5.832685e+002,6.039551e+000
5.842327e+002,5.738708e+000
5.851970e+002,4.941879e+000
5.861612e+002,4.909561e+000
5.871254e+002,6.557968e+000
5.880897e+002,8.015106e+000
5.890539e+002,9.305664e+000
5.900181e+002,1.001997e+001
5.909824e+002,9.394501e+000
5.919466e+002,6.394974e+000
5.929108e+002,3.307236e+000
5.938751e+002,2.525253e+000
5.948393e+002,3.228439e+000
5.958035e+002,4.406906e+000
5.967678e+002,5.315048e+000
5.977320e+002,5.925217e+000
5.986962e+002,5.124725e+000
5.996605e+002,2.652588e+000
6.006247e+002,8.754425e-001
6.015889e+002,1.266190e+000
6.025532e+002,3.658096e+000
6.035174e+002,5.289398e+000
6.044816e+002,5.852219e+000
6.054459e+002,5.893936e+000
6.064101e+002,5.025909e+000
6.073743e+002,3.734726e+000
6.083386e+002,2.855896e+000
6.093028e+002,2.944336e+000
6.102670e+002,3.416107e+000
6.112313e+002,3.773575e+000
6.121955e+002,4.083450e+000
6.131597e+002,4.561234e+000
6.141240e+002,5.329773e+000
6.150882e+002,6.118927e+000
6.160524e+002,5.558167e+000
6.170167e+002,3.962158e+000
6.179809e+002,2.575150e+000
6.189451e+002,1.855515e+000
6.199094e+002,1.699982e+000
6.208736e+002,1.790497e+000
6.218378e+002,3.271133e+000
6.228021e+002,3.884628e+000
6.237663e+002,2.388290e+000
6.247305e+002,2.118835e-001
6.256948e+002,-1.131439e-001
6.266590e+002,3.283859e+000
6.276232e+002,6.215118e+000
6.285875e+002,6.122238e+000
6.295517e+002,4.559082e+000
6.305159e+002,2.742783e+000
6.314802e+002,1.399597e+000
6.324444e+002,6.555634e-001
6.334086e+002,1.964600e+000
6.343729e+002,4.595703e+000
6.353371e+002,5.895126e+000
6.363013e+002,4.649704e+000
6.372656e+002,1.691818e+000
6.382298e+002,1.268311e-001
6.391940e+002,1.559967e+000
6.401583e+002,2.305069e+000
6.411225e+002,1.969070e+000
6.420867e+002,1.367416e+000
6.430510e+002,1.475616e+000
6.440152e+002,2.691635e+000
6.449794e+002,3.620529e+000
6.459437e+002,3.703674e+000
6.469079e+002,3.202866e+000
6.478721e+002,2.077484e+000
6.488364e+002,4.772034e-001
6.498006e+002,-1.057114e+000
6.507648e+002,-1.582214e+000
6.517291e+002,-1.374588e+000
6.526933e+002,-7.791901e-001
6.536575e+002,1.785889e-001
6.546218e+002,1.044128e+000
6.555860e+002,9.241028e-001
6.565502e+002,-8.192902e-001
6.575145e+002,-2.343506e+000
6.584787e+002,-4.002914e+000
6.594429e+002,-5.194672e+000
6.604072e+002,-5.169830e+000
6.613714e+002,-3.673828e+000
6.623356e+002,-2.476395e+000
6.632999e+002,-2.975113e+000
6.642641e+002,-3.669296e+000
6.652283e+002,-3.465805e+000
6.661926e+002,-2.431854e+000
6.671568e+002,-1.641083e+000
6.681210e+002,-2.787415e+000
6.690853e+002,-4.859253e+000
6.700495e+002,-4.935059e+000
6.710137e+002,-3.053604e+000
6.719780e+002,-6.261292e-001
6.729422e+002,9.315643e-001
6.739064e+002,1.582031e+000
6.748707e+002,9.847565e-001
6.758349e+002,-2.092682e+000
6.767991e+002,-4.682800e+000
6.777634e+002,-5.242447e+000
6.787276e+002,-3.906570e+000
6.796918e+002,-2.410416e+000
6.806561e+002,-6.613922e-001
6.816203e+002,-1.803589e-002
6.825845e+002,-2.001175e+000
6.835488e+002,-5.222763e+000
6.845130e+002,-7.481491e+000
6.854772e+002,-7.088440e+000
6.864415e+002,-4.905548e+000
6.874057e+002,-2.795319e+000
6.883699e+002,-9.806824e-001
6.893342e+002,9.318542e-002
6.902984e+002,1.444550e-001
6.912626e+002,-5.903168e-001
6.922269e+002,-7.266693e-001
6.931911e+002,1.206192e+000
6.941553e+002,2.046753e+000
6.951196e+002,2.664642e-001
6.960838e+002,-2.539520e+000
6.970480e+002,-3.548508e+000
6.980123e+002,-1.304214e+000
6.989765e+002,7.075500e-001
6.999407e+002,9.815674e-001
7.009050e+002,4.951935e-001
7.018692e+002,-1.465759e-001
7.028334e+002,-6.782074e-001
7.037977e+002,-1.117935e+000
7.047619e+002,-1.231140e+000
7.057261e+002,-1.209091e+000
7.066904e+002,-1.911102e+000
7.076546e+002,-3.474503e+000
7.086188e+002,-4.958511e+000
7.095831e+002,-4.786362e+000
7.105473e+002,-2.195496e+000
7.115115e+002,-5.216522e-001
7.124758e+002,2.563477e-003
7.134400e+002,-7.354736e-003
7.144042e+002,-2.958527e-001
7.153685e+002,-7.748871e-001
7.163327e+002,-1.125977e+000
7.172969e+002,-1.226837e+000
7.182612e+002,-1.092056e+000
7.192254e+002,-6.995087e-001
7.201896e+002,-1.330719e-001
7.211539e+002,6.719971e-001
7.221181e+002,1.914063e+000
7.230823e+002,2.913651e+000
7.240466e+002,1.319382e+000
7.250108e+002,-2.057663e+000
7.259750e+002,-4.150009e+000
7.269393e+002,-3.037140e+000
7.279035e+002,6.087341e-001
7.288677e+002,2.203644e+000
7.298320e+002,-1.045990e-001
7.307962e+002,-1.751572e+000
7.317604e+002,-2.225449e+000
7.327247e+002,-1.941742e+000
7.336889e+002,-1.574738e+000
7.346531e+002,-1.499908e+000
7.356174e+002,-1.382263e+000
7.365816e+002,-3.280640e-003
7.375458e+002,1.208786e+000
7.385101e+002,6.196594e-001
7.394743e+002,-1.849564e+000
7.404385e+002,-4.459503e+000
7.414028e+002,-4.404190e+000
7.423670e+002,-2.490585e+000
7.433312e+002,-1.735352e+000
7.442955e+002,-2.224625e+000
7.452597e+002,-2.919434e+000
7.462239e+002,-2.691025e+000
7.471882e+002,-1.305557e+000
7.481524e+002,-2.464447e-001
7.491166e+002,2.026367e-002
7.500809e+002,1.985626e-001
7.510451e+002,7.227325e-001
7.520093e+002,1.421463e+000
7.529736e+002,1.593277e+000
7.539378e+002,5.749054e-001
7.549020e+002,-1.795959e-001
7.558663e+002,3.466949e-001
7.568306e+002,1.593887e+000
7.577948e+002,2.880981e+000
7.587590e+002,3.719864e+000
7.597233e+002,3.997070e+000
7.606875e+002,3.333984e+000
7.616517e+002,1.961227e+000
7.626160e+002,1.060638e+000
7.635802e+002,1.083466e+000
7.645444e+002,1.640564e+000
7.655087e+002,1.889999e+000
7.664729e+002,1.618851e+000
7.674371e+002,1.395462e+000
7.684014e+002,1.152802e+000
7.693656e+002,1.022079e+000
7.703298e+002,1.174728e+000
7.712941e+002,1.611053e+000
7.722583e+002,2.073486e+000
7.732225e+002,2.610367e+000
7.741868e+002,2.811707e+000
7.751510e+002,2.017365e+000
7.761152e+002,6.207733e-001
7.770795e+002,-4.561157e-001
7.780437e+002,-4.093475e-001
7.790079e+002,5.563202e-001
7.799722e+002,1.026047e+000
7.809364e+002,1.080521e+000
7.819006e+002,7.013550e-001
7.828649e+002,-7.247925e-001
7.838291e+002,-2.504257e+000
7.847933e+002,-2.268265e+000
7.857576e+002,1.957413e+000
7.867218e+002,4.542923e+000
7.876860e+002,3.774979e+000
7.886503e+002,1.997986e+000
7.896145e+002,1.043121e+000
7.905787e+002,1.424194e+000
7.915430e+002,2.316818e+000
7.925072e+002,2.762619e+000
7.934714e+002,3.109222e+000
7.944357e+002,4.301758e+000
7.953999e+002,6.196716e+000
7.963641e+002,7.484268e+000
7.973284e+002,6.545563e+000
7.982926e+002,3.145950e+000
7.992568e+002,2.342163e+000
8.002211e+002,5.378815e+000
8.011853e+002,7.604004e+000
8.021495e+002,6.745346e+000
8.031138e+002,3.976425e+000
8.040780e+002,3.132385e+000
8.050422e+002,6.285767e+000
8.060065e+002,8.745270e+000
8.069707e+002,8.632980e+000
8.079349e+002,7.274460e+000
8.088992e+002,5.763214e+000
8.098634e+002,4.661362e+000
8.108276e+002,4.183868e+000
8.117919e+002,5.003174e+000
8.127561e+002,6.225052e+000
8.137203e+002,6.417633e+000
8.146846e+002,5.554321e+000
8.156488e+002,4.229141e+000
8.166130e+002,3.024170e+000
8.175773e+002,1.853180e+000
8.185415e+002,1.104660e+000
8.195057e+002,6.404572e-001
8.204700e+002,4.283295e-001
8.214342e+002,6.332703e-001
8.223984e+002,1.093246e+000
8.233627e+002,1.353806e+000
8.243269e+002,1.098221e+000
8.252911e+002,1.086578e+000
8.262554e+002,1.607819e+000
8.272196e+002,2.562317e+000
8.281838e+002,4.153275e+000
8.291481e+002,6.256409e+000
8.301123e+002,8.113815e+000
8.310765e+002,8.177261e+000
8.320408e+002,6.579666e+000
8.330050e+002,6.002487e+000
8.339692e+002,6.940613e+000
8.349335e+002,7.899460e+000
8.358977e+002,7.110428e+000
8.368619e+002,4.252884e+000
8.378262e+002,2.568893e+000
8.387904e+002,2.473022e+000
8.397546e+002,2.996124e+000
8.407189e+002,4.638199e+000
8.416831e+002,6.599228e+000
8.426473e+002,7.456116e+000
8.436116e+002,6.368027e+000
8.445758e+002,5.041656e+000
8.455400e+002,5.458237e+000
8.465043e+002,6.351059e+000
8.474685e+002,6.478546e+000
8.484327e+002,5.588974e+000
8.493970e+002,4.037933e+000
8.503612e+002,2.123642e+000
8.513254e+002,-5.724945e-001
8.522897e+002,4.864807e-001
8.532539e+002,8.423492e+000
8.542181e+002,1.545522e+001
8.551824e+002,1.638310e+001
8.561466e+002,1.208727e+001
8.571108e+002,8.966431e+000
8.580751e+002,8.614700e+000
8.590393e+002,8.639297e+000
8.600035e+002,8.413376e+000
8.609678e+002,8.271118e+000
8.619320e+002,8.659653e+000
8.628962e+002,9.720551e+000
8.638605e+002,1.111700e+001
8.648247e+002,1.271431e+001
8.657889e+002,1.410239e+001
8.667532e+002,1.408862e+001
8.677174e+002,1.252441e+001
8.686816e+002,1.097331e+001
8.696459e+002,1.147336e+001
8.706101e+002,1.459219e+001
8.715743e+002,1.592194e+001
8.725386e+002,1.363148e+001
8.735028e+002,1.208209e+001
8.744670e+002,1.229793e+001
8.754313e+002,1.382747e+001
8.763955e+002,1.618250e+001
8.773597e+002,1.979283e+001
8.783240e+002,2.240269e+001
8.792882e+002,2.135393e+001
8.802524e+002,1.927103e+001
8.812167e+002,1.846085e+001
8.821809e+002,1.933986e+001
8.831451e+002,2.089256e+001
8.841094e+002,2.188901e+001
8.850736e+002,2.235185e+001
8.860378e+002,2.178564e+001
8.870021e+002,1.963712e+001
8.879663e+002,1.816948e+001
8.889305e+002,1.906660e+001
8.898948e+002,2.175719e+001
8.908590e+002,2.342764e+001
8.918232e+002,2.318562e+001
8.927875e+002,2.330075e+001
8.937517e+002,2.462476e+001
8.947159e+002,2.619907e+001
8.956802e+002,2.694447e+001
8.966444e+002,2.669345e+001
8.976086e+002,2.654422e+001
8.985729e+002,2.812794e+001
8.995371e+002,3.025334e+001
9.005013e+002,3.047984e+001
9.014656e+002,2.917271e+001
9.024298e+002,2.814664e+001
9.033940e+002,2.875569e+001
9.043583e+002,3.061969e+001
9.053225e+002,3.147606e+001
9.062867e+002,2.976933e+001
9.072510e+002,2.887737e+001
9.082152e+002,3.000935e+001
9.091794e+002,3.151915e+001
9.101437e+002,3.134579e+001
9.111079e+002,2.912544e+001
9.120721e+002,2.766827e+001
9.130364e+002,3.038489e+001
9.140006e+002,3.255365e+001
9.149648e+002,3.050560e+001
9.159291e+002,2.592429e+001
9.168933e+002,2.248447e+001
9.178575e+002,2.269540e+001
9.188218e+002,2.546864e+001
9.197860e+002,2.750084e+001
9.207502e+002,2.874680e+001
9.217145e+002,2.971225e+001
9.226787e+002,3.086693e+001
9.236429e+002,3.171869e+001
9.246072e+002,3.124649e+001
9.255714e+002,2.901379e+001
9.265356e+002,2.724452e+001
9.274999e+002,2.682825e+001
9.284641e+002,2.625017e+001
9.294283e+002,2.490820e+001
9.303926e+002,2.313885e+001
9.313568e+002,2.144415e+001
9.323210e+002,2.003685e+001
9.332853e+002,1.911847e+001
9.342495e+002,1.981628e+001
9.352137e+002,2.103381e+001
9.361780e+002,2.085104e+001
9.371422e+002,1.897656e+001
9.381064e+002,1.691422e+001
9.390707e+002,1.663702e+001
9.400349e+002,1.836110e+001
9.409991e+002,1.951979e+001
9.419634e+002,2.005891e+001
9.429276e+002,2.013994e+001
9.438918e+002,1.957797e+001
9.448561e+002,1.870296e+001
9.458203e+002,1.805951e+001
9.467845e+002,1.786179e+001
9.477488e+002,1.776413e+001
9.487130e+002,1.726085e+001
9.496772e+002,1.686180e+001
9.506415e+002,1.699242e+001
9.516057e+002,1.766690e+001
9.525699e+002,1.881180e+001
9.535342e+002,2.038469e+001
9.544984e+002,2.210442e+001
9.554626e+002,2.150414e+001
9.564269e+002,1.811256e+001
9.573911e+002,1.591815e+001
9.583553e+002,1.628957e+001
9.593196e+002,1.825558e+001
9.602838e+002,2.066052e+001
9.612480e+002,2.387595e+001
9.622123e+002,2.551244e+001
9.631765e+002,2.351125e+001
9.641407e+002,2.129140e+001
9.651050e+002,2.035570e+001
9.660692e+002,2.040706e+001
9.670334e+002,2.050325e+001
9.679977e+002,2.013138e+001
9.689619e+002,1.962891e+001
9.699261e+002,1.936908e+001
9.708904e+002,1.926654e+001
9.718546e+002,1.949077e+001
9.728188e+002,2.005153e+001
9.737831e+002,2.083762e+001
9.747473e+002,2.173170e+001
9.757115e+002,2.273598e+001
9.766758e+002,2.409027e+001
9.776400e+002,2.630406e+001
9.786042e+002,2.845245e+001
9.795685e+002,3.080782e+001
9.805327e+002,3.257599e+001
9.814969e+002,3.263373e+001
9.824612e+002,3.067462e+001
9.834254e+002,2.821588e+001
9.843896e+002,2.656915e+001
9.853539e+002,2.506448e+001
9.863181e+002,2.299725e+001
9.872823e+002,2.030798e+001
9.882466e+002,1.717979e+001
9.892108e+002,1.383232e+001
9.901750e+002,1.069283e+001
9.911393e+002,9.865097e+000
9.921035e+002,1.354639e+001
9.930677e+002,1.532298e+001
9.940320e+002,1.346239e+001
9.949962e+002,1.099879e+001
9.959604e+002,1.093269e+001
9.969247e+002,1.341005e+001
9.978889e+002,1.562973e+001
9.988531e+002,1.544165e+001
9.998174e+002,1.541382e+001
1.000782e+003,1.809738e+001
1.001746e+003,2.179747e+001
1.002710e+003,2.379773e+001
1.003674e+003,2.299371e+001
1.004639e+003,2.075206e+001
1.005603e+003,1.945364e+001
1.006567e+003,1.916266e+001
1.007531e+003,1.880396e+001
1.008495e+003,1.829039e+001
1.009460e+003,1.791669e+001
1.010424e+003,1.806070e+001
1.011388e+003,1.856683e+001
1.012352e+003,1.867278e+001
1.013317e+003,1.809335e+001
1.014281e+003,1.732625e+001
1.015245e+003,1.614304e+001
1.016209e+003,1.508344e+001
1.017174e+003,1.487012e+001
1.018138e+003,1.529115e+001
1.019102e+003,1.539029e+001
1.020066e+003,1.440959e+001
1.021031e+003,1.267291e+001
1.021995e+003,1.069258e+001
1.022959e+003,8.422821e+000
1.023923e+003,6.300323e+000
1.024887e+003,4.361816e+000
1.025852e+003,2.763199e+000
1.026816e+003,1.839493e+000
1.027780e+003,1.782288e+000
1.028744e+003,1.938232e+000
1.029709e+003,2.888077e+000
1.030673e+003,3.259308e+000
1.031637e+003,1.967422e+000
1.032601e+003,5.317688e-002
1.033566e+003,-8.497925e-001
1.034530e+003,-1.666565e-001
1.035494e+003,8.197784e-001
1.036458e+003,4.064484e-001
1.037422e+003,-5.121460e-001
1.038387e+003,-3.436127e-001
1.039351e+003,8.740845e-001
1.040315e+003,2.389984e+000
1.041279e+003,3.744232e+000
1.042244e+003,4.954071e+000
1.043208e+003,5.893860e+000
1.044172e+003,6.844681e+000
1.045136e+003,6.636169e+000
1.046101e+003,4.371414e+000
1.047065e+003,2.018234e+000
1.048029e+003,7.228088e-001
1.048993e+003,4.151306e-001
1.049958e+003,5.614471e-001
1.050922e+003,1.148407e+000
1.051886e+003,1.718796e+000
1.052850e+003,1.729202e+000
1.053814e+003,1.443558e+000
1.054779e+003,8.765717e-001
1.055743e+003,1.853943e-001
1.056707e+003,2.368469e-001
1.057671e+003,2.196686e+000
1.058636e+003,6.060196e+000
1.059600e+003,8.080170e+000
1.060564e+003,6.965637e+000
1.061528e+003,6.294922e+000
1.062493e+003,6.926468e+000
1.063457e+003,7.726456e+000
1.064421e+003,7.297501e+000
1.065385e+003,5.566940e+000
1.066349e+003,4.324402e+000
1.067314e+003,5.163055e+000
1.068278e+003,5.926773e+000
1.069242e+003,4.547211e+000
1.070206e+003,2.302216e+000
1.071171e+003,1.405991e+000
1.072135e+003,2.620560e+000
1.073099e+003,4.475250e+000
1.074063e+003,4.520370e+000
1.075028e+003,2.542053e+000
1.075992e+003,2.124466e+000
1.076956e+003,4.113129e+000
1.077920e+003,5.760864e+000
1.078885e+003,6.128906e+000
1.079849e+003,5.647110e+000
1.080813e+003,4.943527e+000
1.081777e+003,4.072647e+000
1.082741e+003,3.251038e+000
1.083706e+003,2.200531e+000
1.084670e+003,1.353668e+000
1.085634e+003,8.206024e-001
1.086598e+003,7.297058e-001
1.087563e+003,1.684814e+000
1.088527e+003,3.911743e+000
1.089491e+003,6.175034e+000
1.090455e+003,5.684677e+000
1.091420e+003,1.967361e+000
1.092384e+003,-2.712708e-001
1.093348e+003,-6.200409e-001
1.094312e+003,-4.849243e-001
1.095276e+003,-4.388428e-001
1.096241e+003,-4.085236e-001
1.097205e+003,-4.391479e-001
1.098169e+003,-7.805634e-001
1.099133e+003,-7.141113e-001
1.100098e+003,7.757874e-001
1.101062e+003,2.144470e+000
1.102026e+003,2.118973e+000
1.102990e+003,1.181030e+000
1.103955e+003,6.551056e-001
1.104919e+003,1.319122e+000
1.105883e+003,2.567932e+000
1.106847e+003,3.229950e+000
1.107812e+003,3.246063e+000
1.108776e+003,2.842148e+000
1.109740e+003,1.670273e+000
1.110704e+003,8.211823e-001
1.111668e+003,1.668076e+000
1.112633e+003,3.715027e+000
1.113597e+003,4.266479e+000
1.114561e+003,2.093063e+000
1.115525e+003,5.125732e-001
1.116490e+003,6.612244e-001
1.117454e+003,1.491150e+000
1.118418e+003,3.041656e+000
1.119382e+003,4.754364e+000
1.120347e+003,5.284180e+000
1.121311e+003,3.733093e+000
1.122275e+003,1.431183e+000
1.123239e+003,1.610413e+000
1.124203e+003,4.177887e+000
1.125168e+003,5.682159e+000
1.126132e+003,5.473679e+000
1.127096e+003,5.347000e+000
1.128060e+003,7.082611e+000
1.129025e+003,1.006064e+001
1.129989e+003,1.123616e+001
1.130953e+003,9.121750e+000
1.131917e+003,8.067062e+000
1.132882e+003,1.067726e+001
1.133846e+003,1.325639e+001
1.134810e+003,1.294058e+001
1.135774e+003,1.076019e+001
1.136739e+003,9.741653e+000
1.137703e+003,1.155438e+001
1.138667e+003,1.441051e+001
1.139631e+003,1.502306e+001
1.140595e+003,1.370195e+001
1.141560e+003,1.364334e+001
1.142524e+003,1.516081e+001
1.143488e+003,1.764197e+001
1.144452e+003,2.085986e+001
1.145417e+003,2.468015e+001
1.146381e+003,2.858591e+001
1.147345e+003,3.240529e+001
1.148309e+003,3.665959e+001
1.149274e+003,4.140483e+001
1.150238e+003,4.674777e+001
1.151202e+003,5.327286e+001
1.152166e+003,6.043690e+001
1.153130e+003,6.761766e+001
1.154095e+003,7.429070e+001
1.155059e+003,7.939500e+001
1.156023e+003,8.150526e+001
1.156987e+003,8.069878e+001
1.157952e+003,7.874309e+001
1.158916e+003,7.581429e+001
1.159880e+003,7.210149e+001
1.160844e+003,6.720778e+001
1.161809e+003,6.134769e+001
1.162773e+003,5.522995e+001
1.163737e+003,4.871173e+001
1.164701e+003,4.264723e+001
1.165666e+003,3.696220e+001
1.166630e+003,3.228511e+001
1.167594e+003,2.942821e+001
1.168558e+003,2.745410e+001
1.169522e+003,2.482468e+001
1.170487e+003,2.129263e+001
1.171451e+003,1.865996e+001
1.172415e+003,1.921027e+001
1.173379e+003,2.198923e+001
1.174344e+003,2.164992e+001
1.175308e+003,1.805360e+001
1.176272e+003,1.541174e+001
1.177236e+003,1.574971e+001
1.178201e+003,1.725067e+001
1.179165e+003,1.753415e+001
1.180129e+003,1.651291e+001
1.181093e+003,1.538541e+001
1.182057e+003,1.397998e+001
1.183022e+003,1.327728e+001
1.183986e+003,1.418272e+001
1.184950e+003,1.549872e+001
1.185914e+003,1.622841e+001
1.186879e+003,1.620349e+001
1.187843e+003,1.563017e+001
1.188807e+003,1.462134e+001
1.189771e+003,1.343842e+001
1.190736e+003,1.308955e+001
1.191700e+003,1.367897e+001
1.192664e+003,1.394418e+001
1.193628e+003,1.398260e+001
1.194593e+003,1.354950e+001
1.195557e+003,1.197247e+001
1.196521e+003,9.715485e+000
1.197485e+003,8.604416e+000
1.198449e+003,9.276184e+000
1.199414e+003,1.000346e+001
1.200378e+003,1.031436e+001
1.201342e+003,1.016318e+001
1.202306e+003,9.289749e+000
1.203271e+003,7.876465e+000
1.204235e+003,6.125671e+000
1.205199e+003,4.251602e+000
1.206163e+003,2.773788e+000
1.207128e+003,2.638092e+000
1.208092e+003,3.961456e+000
1.209056e+003,4.094742e+000
1.210020e+003,2.287888e+000
1.210984e+003,1.005890e+000
1.211949e+003,1.603226e+000
1.212913e+003,2.649155e+000
1.213877e+003,2.272049e+000
1.214841e+003,3.999023e-001
1.215806e+003,-1.669556e+000
1.216770e+003,-3.724380e+000
1.217734e+003,-5.449158e+000
1.218698e+003,-6.565918e+000
1.219663e+003,-7.425980e+000
1.220627e+003,-8.626526e+000
1.221591e+003,-1.011339e+001
1.222555e+003,-1.102876e+001
1.223520e+003,-1.051651e+001
1.224484e+003,-9.014130e+000
1.225448e+003,-8.836975e+000
1.226412e+003,-1.115314e+001
1.227376e+003,-1.220416e+001
1.228341e+003,-1.092284e+001
1.229305e+003,-9.691330e+000
1.230269e+003,-1.012395e+001
1.231233e+003,-1.144489e+001
1.232198e+003,-1.181903e+001
1.233162e+003,-1.068123e+001
1.234126e+003,-9.531769e+000
1.235090e+003,-9.445526e+000
1.236055e+003,-1.004259e+001
1.237019e+003,-1.135263e+001
1.237983e+003,-1.293446e+001
1.238947e+003,-1.332578e+001
1.239911e+003,-1.190030e+001
1.240876e+003,-1.033932e+001
1.241840e+003,-1.144664e+001
1.242804e+003,-1.546686e+001
1.243768e+003,-1.752524e+001
1.244733e+003,-1.593501e+001
1.245697e+003,-1.445410e+001
1.246661e+003,-1.373384e+001
1.247625e+003,-1.304562e+001
1.248590e+003,-1.131680e+001
1.249554e+003,-9.007919e+000
1.250518e+003,-7.882965e+000
1.251482e+003,-8.867844e+000
1.252447e+003,-1.042641e+001
1.253411e+003,-1.072699e+001
1.254375e+003,-1.012192e+001
1.255339e+003,-9.388748e+000
1.256303e+003,-8.538345e+000
1.257268e+003,-7.653183e+000
1.258232e+003,-6.740341e+000
1.259196e+003,-6.103806e+000
1.260160e+003,-6.383972e+000
1.261125e+003,-7.723862e+000
1.262089e+003,-8.535629e+000
1.263053e+003,-8.781479e+000
1.264017e+003,-8.447174e+000
1.264982e+003,-7.036987e+000
1.265946e+003,-5.346420e+000
1.266910e+003,-4.014938e+000
1.267874e+003,-3.151413e+000
1.268839e+003,-2.439514e+000
1.269803e+003,-1.654114e+000
1.270767e+003,-1.364975e+000
1.271731e+003,-3.070633e+000
1.272695e+003,-6.589569e+000
1.273660e+003,-8.235382e+000
1.274624e+003,-7.518372e+000
1.275588e+003,-6.406982e+000
1.276552e+003,-5.622452e+000
1.277517e+003,-5.104462e+000
1.278481e+003,-4.828766e+000
1.279445e+003,-4.817245e+000
1.280409e+003,-5.156860e+000
1.281374e+003,-5.955307e+000
1.282338e+003,-7.008636e+000
1.283302e+003,-8.525742e+000
1.284266e+003,-1.004150e+001
1.285230e+003,-1.113153e+001
1.286195e+003,-1.167055e+001
1.287159e+003,-1.158305e+001
1.288123e+003,-1.076190e+001
1.289087e+003,-9.429443e+000
1.290052e+003,-8.422653e+000
1.291016e+003,-7.764084e+000
1.291980e+003,-7.731842e+000
1.292944e+003,-9.115295e+000
1.293909e+003,-1.021599e+001
1.294873e+003,-1.022345e+001
1.295837e+003,-9.521912e+000
1.296801e+003,-8.270554e+000
1.297766e+003,-6.662140e+000
1.298730e+003,-6.224808e+000
1.299694e+003,-8.276566e+000
1.300658e+003,-1.100702e+001
1.301622e+003,-1.272540e+001
1.302587e+003,-1.355087e+001
1.303551e+003,-1.343457e+001
1.304515e+003,-1.242432e+001
1.305479e+003,-1.115221e+001
1.306444e+003,-1.015376e+001
1.307408e+003,-9.373886e+000
1.308372e+003,-8.391983e+000
1.309336e+003,-6.809204e+000
1.310301e+003,-6.321259e+000
1.311265e+003,-8.244370e+000
1.312229e+003,-9.608475e+000
1.313193e+003,-8.775467e+000
1.314157e+003,-7.512634e+000
1.315122e+003,-8.062088e+000
1.316086e+003,-1.033774e+001
1.317050e+003,-1.225211e+001
1.318014e+003,-1.237553e+001
1.318979e+003,-1.160277e+001
1.319943e+003,-1.177930e+001
1.320907e+003,-1.260751e+001
1.321871e+003,-1.177065e+001
1.322836e+003,-8.722443e+000
1.323800e+003,-6.066772e+000
1.324764e+003,-5.240463e+000
1.325728e+003,-5.592865e+000
1.326693e+003,-6.183395e+000
1.327657e+003,-7.036621e+000
1.328621e+003,-7.992371e+000
1.329585e+003,-9.004959e+000
1.330549e+003,-9.589493e+000
1.331514e+003,-9.878693e+000
1.332478e+003,-9.814133e+000
1.333442e+003,-8.806274e+000
1.334406e+003,-7.240433e+000
1.335371e+003,-6.433029e+000
1.336335e+003,-7.161102e+000
1.337299e+003,-8.727264e+000
1.338263e+003,-9.900284e+000
1.339228e+003,-1.072876e+001
1.340192e+003,-1.063423e+001
1.341156e+003,-8.454727e+000
1.342120e+003,-7.127396e+000
1.343084e+003,-7.553116e+000
1.344049e+003,-8.702362e+000
1.345013e+003,-1.001775e+001
1.345977e+003,-1.117165e+001
1.346941e+003,-1.169035e+001
1.347906e+003,-1.141135e+001
1.348870e+003,-1.049020e+001
1.349834e+003,-8.466736e+000
1.350798e+003,-6.467255e+000
1.351763e+003,-6.924286e+000
1.352727e+003,-9.313858e+000
1.353691e+003,-1.056259e+001
1.354655e+003,-9.350494e+000
1.355620e+003,-7.352905e+000
1.356584e+003,-6.432632e+000
1.357548e+003,-6.464615e+000
1.358512e+003,-6.622040e+000
1.359476e+003,-6.995255e+000
1.360441e+003,-7.520218e+000
1.361405e+003,-8.419510e+000
1.362369e+003,-9.107269e+000
1.363333e+003,-9.177032e+000
1.364298e+003,-8.902084e+000
1.365262e+003,-8.549591e+000
1.366226e+003,-8.289566e+000
1.367190e+003,-8.429886e+000
1.368155e+003,-9.268234e+000
1.369119e+003,-1.038014e+001
1.370083e+003,-1.030327e+001
1.371047e+003,-8.389755e+000
1.372011e+003,-7.991791e+000
1.372976e+003,-1.126877e+001
1.373940e+003,-1.334726e+001
1.374904e+003,-1.152858e+001
1.375868e+003,-8.053864e+000
1.376833e+003,-5.337723e+000
1.377797e+003,-3.798264e+000
1.378761e+003,-3.746643e+000
1.379725e+003,-5.679016e+000
1.380690e+003,-7.891876e+000
1.381654e+003,-9.023651e+000
1.382618e+003,-9.073059e+000
1.383582e+003,-7.300751e+000
1.384547e+003,-4.088333e+000
1.385511e+003,-1.971817e+000
1.386475e+003,-2.388443e+000
1.387439e+003,-4.088486e+000
1.388403e+003,-5.302109e+000
1.389368e+003,-6.038635e+000
1.390332e+003,-6.584839e+000
1.391296e+003,-7.071167e+000
1.392260e+003,-6.957321e+000
1.393225e+003,-5.397247e+000
1.394189e+003,-4.090332e+000
1.395153e+003,-4.365875e+000
1.396117e+003,-5.374649e+000
1.397082e+003,-5.711426e+000
1.398046e+003,-5.004776e+000
1.399010e+003,-3.809433e+000
1.399974e+003,-2.645142e+000
1.400938e+003,-1.976410e+000
1.401903e+003,-3.161301e+000
1.402867e+003,-6.848663e+000
1.403831e+003,-8.187866e+000
1.404795e+003,-5.466858e+000
1.405760e+003,-3.058838e+000
1.406724e+003,-3.003632e+000
1.407688e+003,-3.966232e+000
1.408652e+003,-4.180511e+000
1.409617e+003,-3.548584e+000
1.410581e+003,-3.043640e+000
1.411545e+003,-3.042526e+000
1.412509e+003,-3.329178e+000
1.413474e+003,-4.233261e+000
1.414438e+003,-5.080460e+000
1.415402e+003,-4.066940e+000
1.416366e+003,-1.526108e+000
1.417330e+003,-1.567841e-001
1.418295e+003,-1.223450e+000
1.419259e+003,-2.967819e+000
1.420223e+003,-3.186386e+000
1.421187e+003,-2.294785e+000
1.422152e+003,-2.806747e+000
1.423116e+003,-5.411362e+000
1.424080e+003,-6.967133e+000
1.425044e+003,-6.114502e+000
1.426009e+003,-4.718704e+000
1.426973e+003,-2.805420e+000
1.427937e+003,-1.214157e+000
1.428901e+003,-9.657288e-001
1.429865e+003,-1.974426e+000
1.430830e+003,-3.554291e+000
1.431794e+003,-5.256958e+000
1.432758e+003,-6.634735e+000
1.433722e+003,-6.646713e+000
1.434687e+003,-5.069885e+000
1.435651e+003,-3.293961e+000
1.436615e+003,-1.270370e+000
1.437579e+003,2.610779e-001
1.438544e+003,1.377792e+000
1.439508e+003,1.911072e+000
1.440472e+003,1.657257e+000
1.441436e+003,8.927612e-001
1.442401e+003,-3.477478e-001
1.443365e+003,-1.897186e+000
1.444329e+003,-2.199875e+000
1.445293e+003,3.450928e-001
1.446257e+003,3.641296e+000
1.447222e+003,3.124512e+000
1.448186e+003,-4.185181e-001
1.449150e+003,-2.642349e+000
1.450114e+003,-3.062149e+000
1.451079e+003,-2.807266e+000
1.452043e+003,-2.104446e+000
1.453007e+003,-1.158844e+000
1.453971e+003,-2.746582e-002
1.454936e+003,1.097824e+000
1.455900e+003,8.923035e-001
1.456864e+003,-1.399551e+000
1.457828e+003,-3.156372e+000
1.458792e+003,-2.193878e+000
1.459757e+003,-7.935638e-001
1.460721e+003,-1.019852e+000
1.461685e+003,-2.186874e+000
1.462649e+003,-2.718048e+000
1.463614e+003,-2.178848e+000
1.464578e+003,-1.251358e+000
1.465542e+003,-5.054169e-001
1.466506e+003,-1.937866e-003
1.467471e+003,5.120850e-002
1.468435e+003,-4.745026e-001
1.469399e+003,-2.240906e-001
1.470363e+003,1.988342e+000
1.471328e+003,3.120758e+000
1.472292e+003,1.166367e+000
1.473256e+003,-9.685669e-001
1.474220e+003,-6.858368e-001
1.475184e+003,1.111160e+000
1.476149e+003,2.123947e+000
1.477113e+003,1.596115e+000
1.478077e+003,6.991882e-001
1.479041e+003,6.376801e-001
1.480006e+003,1.218124e+000
1.480970e+003,1.612427e+000
1.481934e+003,1.649857e+000
1.482898e+003,1.801224e+000
1.483863e+003,2.329269e+000
1.484827e+003,2.548203e+000
1.485791e+003,1.803131e+000
1.486755e+003,1.239182e+000
1.487719e+003,2.033600e+000
1.488684e+003,3.789352e+000
1.489648e+003,5.427780e+000
1.490612e+003,6.633774e+000
1.491576e+003,7.559875e+000
1.492541e+003,8.290787e+000
1.493505e+003,8.777634e+000
1.494469e+003,8.638519e+000
1.495433e+003,7.966812e+000
1.496398e+003,8.139740e+000
1.497362e+003,9.609573e+000
1.498326e+003,1.149794e+001
1.499290e+003,1.367473e+001
1.500255e+003,1.575117e+001
1.501219e+003,1.695193e+001
1.502183e+003,1.743964e+001
1.503147e+003,1.834245e+001
1.504111e+003,1.991086e+001
1.505076e+003,2.184865e+001
1.506040e+003,2.371935e+001
1.507004e+003,2.626672e+001
1.507968e+003,3.065546e+001
1.508933e+003,3.605325e+001
1.509897e+003,4.056169e+001
1.510861e+003,4.403714e+001
1.511825e+003,4.818054e+001
1.512790e+003,5.411424e+001
1.513754e+003,6.122449e+001
1.514718e+003,6.890491e+001
1.515682e+003,7.705029e+001
1.516646e+003,8.359067e+001
1.517611e+003,8.786224e+001
1.518575e+003,9.201669e+001
1.519539e+003,9.717227e+001
1.520503e+003,1.021093e+002
1.521468e+003,1.070457e+002
1.522432e+003,1.108147e+002
1.523396e+003,1.115842e+002
1.524360e+003,1.094670e+002
1.525325e+003,1.063759e+002
1.526289e+003,1.036118e+002
1.527253e+003,1.006719e+002
1.528217e+003,9.653772e+001
1.529182e+003,9.127225e+001
1.530146e+003,8.607004e+001
1.531110e+003,8.157153e+001
1.532074e+003,7.569862e+001
1.533039e+003,6.739386e+001
1.534003e+003,5.851129e+001
1.534967e+003,4.893390e+001
1.535931e+003,4.022932e+001
1.536896e+003,3.428868e+001
1.537860e+003,3.085843e+001
1.538824e+003,2.839301e+001
1.539788e+003,2.596361e+001
1.540752e+003,2.331047e+001
1.541717e+003,2.012029e+001
1.542681e+003,1.656323e+001
1.543645e+003,1.330698e+001
1.544609e+003,1.018440e+001
1.545573e+003,8.205841e+000
1.546538e+003,7.912247e+000
1.547502e+003,7.734818e+000
1.548466e+003,7.345734e+000
1.549430e+003,6.853867e+000
1.550395e+003,5.971024e+000
1.551359e+003,5.022324e+000
1.552323e+003,5.168777e+000
1.553287e+003,6.735733e+000
1.554252e+003,8.286987e+000
1.555216e+003,8.595490e+000
1.556180e+003,7.886902e+000
1.557144e+003,6.313904e+000
1.558109e+003,3.894669e+000
1.559073e+003,3.339005e+000
1.560037e+003,5.702103e+000
1.561001e+003,7.491531e+000
1.561966e+003,7.566940e+000
1.562930e+003,6.861115e+000
1.563894e+003,5.778351e+000
1.564858e+003,4.593582e+000
1.565823e+003,3.831390e+000
1.566787e+003,3.599045e+000
1.567751e+003,4.027023e+000
1.568715e+003,5.436493e+000
1.569679e+003,6.939590e+000
1.570644e+003,7.538956e+000
1.571608e+003,7.174408e+000
1.572572e+003,5.375244e+000
1.573536e+003,2.116776e+000
1.574500e+003,9.782867e-001
1.575465e+003,4.432495e+000
1.576429e+003,8.208130e+000
1.577393e+003,8.625336e+000
1.578357e+003,6.993637e+000
1.579322e+003,5.595428e+000
1.580286e+003,4.708160e+000
1.581250e+003,4.963531e+000
1.582214e+003,6.918640e+000
1.583179e+003,8.651199e+000
1.584143e+003,8.473877e+000
1.585107e+003,7.439545e+000
1.586071e+003,7.286255e+000
1.587036e+003,7.709412e+000
1.588000e+003,7.114716e+000
1.588964e+003,4.973907e+000
1.589928e+003,3.667618e+000
1.590893e+003,5.493164e+000
1.591857e+003,8.370377e+000
1.592821e+003,8.933441e+000
1.593785e+003,7.651016e+000
1.594750e+003,7.244492e+000
1.595714e+003,8.129318e+000
1.596678e+003,9.014404e+000
1.597642e+003,9.345963e+000
1.598606e+003,9.609222e+000
1.599571e+003,1.021733e+001
1.600535e+003,1.103455e+001
1.601499e+003,1.219162e+001
1.602463e+003,1.341252e+001
1.603427e+003,1.346002e+001
1.604392e+003,1.171249e+001
1.605356e+003,9.706985e+000
1.606320e+003,8.853149e+000
1.607284e+003,8.994049e+000
1.608249e+003,1.007605e+001
1.609213e+003,1.216811e+001
1.610177e+003,1.274748e+001
1.611141e+003,1.092555e+001
1.612106e+003,8.761063e+000
1.613070e+003,6.409439e+000
1.614034e+003,4.854050e+000
1.614998e+003,5.042191e+000
1.615963e+003,6.457779e+000
1.616927e+003,8.534088e+000
1.617891e+003,1.093690e+001
1.618855e+003,1.277869e+001
1.619820e+003,1.350726e+001
1.620784e+003,1.326910e+001
1.621748e+003,1.182048e+001
1.622712e+003,9.701889e+000
1.623677e+003,1.002504e+001
1.624641e+003,1.350397e+001
1.625605e+003,1.527554e+001
1.626569e+003,1.285286e+001
1.627533e+003,1.054550e+001
1.628498e+003,1.098578e+001
1.629462e+003,1.215385e+001
1.630426e+003,1.220724e+001
1.631390e+003,1.159834e+001
1.632354e+003,1.185942e+001
1.633319e+003,1.321190e+001
1.634283e+003,1.393248e+001
1.635247e+003,1.252406e+001
1.636211e+003,1.039357e+001
1.637176e+003,1.039549e+001
1.638140e+003,1.237816e+001
1.639104e+003,1.327420e+001
1.640068e+003,1.267845e+001
1.641033e+003,1.205815e+001
1.641997e+003,1.174316e+001
1.642961e+003,1.160721e+001
1.643925e+003,1.164162e+001
1.644890e+003,1.173988e+001
1.645854e+003,1.170172e+001
1.646818e+003,1.162212e+001
1.647782e+003,1.188817e+001
1.648747e+003,1.256898e+001
1.649711e+003,1.305699e+001
1.650675e+003,1.284029e+001
1.651639e+003,1.232396e+001
1.652604e+003,1.226715e+001
1.653568e+003,1.259872e+001
1.654532e+003,1.271883e+001
1.655496e+003,1.256430e+001
1.656460e+003,1.233815e+001
1.657425e+003,1.232625e+001
1.658389e+003,1.200621e+001
1.659353e+003,1.066721e+001
1.660317e+003,9.206787e+000
1.661281e+003,8.558060e+000
1.662246e+003,8.629028e+000
1.663210e+003,8.900497e+000
1.664174e+003,9.237793e+000
1.665138e+003,1.000235e+001
1.666103e+003,1.176613e+001
1.667067e+003,1.360994e+001
1.668031e+003,1.349442e+001
1.668995e+003,1.159558e+001
1.669960e+003,1.018625e+001
1.670924e+003,9.548187e+000
1.671888e+003,8.975235e+000
1.672852e+003,7.999161e+000
1.673817e+003,7.311386e+000
1.674781e+003,7.468384e+000
1.675745e+003,8.010941e+000
1.676709e+003,8.704590e+000
1.677674e+003,9.311340e+000
1.678638e+003,9.243622e+000
1.679602e+003,8.325974e+000
1.680566e+003,7.089386e+000
1.681531e+003,5.802536e+000
1.682495e+003,4.742981e+000
1.683459e+003,4.241974e+000
1.684423e+003,4.250626e+000
1.685387e+003,5.012039e+000
1.686352e+003,6.761627e+000
1.687316e+003,7.696976e+000
1.688280e+003,6.863602e+000
1.689244e+003,5.803146e+000
1.690208e+003,5.829361e+000
1.691173e+003,6.058090e+000
1.692137e+003,5.189606e+000
1.693101e+003,3.779648e+000
1.694065e+003,3.752457e+000
1.695030e+003,5.559952e+000
1.695994e+003,7.015228e+000
1.696958e+003,6.634308e+000
1.697922e+003,5.475372e+000
1.698887e+003,4.809525e+000
1.699851e+003,4.478088e+000
1.700815e+003,3.921616e+000
1.701779e+003,3.055603e+000
1.702744e+003,1.959335e+000
1.703708e+003,5.325623e-001
1.704672e+003,-1.872101e-001
1.705636e+003,9.010010e-001
1.706601e+003,2.531433e+000
1.707565e+003,2.896057e+000
1.708529e+003,2.402390e+000
1.709493e+003,2.142761e+000
1.710458e+003,2.267685e+000
1.711422e+003,2.244278e+000
1.712386e+003,1.901459e+000
1.713350e+003,1.412659e+000
1.714314e+003,2.689362e-001
1.715279e+003,-7.237244e-001
1.716243e+003,5.460663e-001
1.717207e+003,3.493668e+000
1.718171e+003,4.475311e+000
1.719135e+003,2.506638e+000
1.720100e+003,8.242035e-001
1.721064e+003,1.714417e+000
1.722028e+003,3.414719e+000
1.722992e+003,3.564117e+000
1.723957e+003,2.426712e+000
1.724921e+003,9.331207e-001
1.725885e+003,-1.241898e+000
1.726849e+003,-2.683182e+000
1.727814e+003,-2.504471e+000
1.728778e+003,-2.158157e+000
1.729742e+003,-2.582657e+000
1.730706e+003,-2.892761e+000
1.731671e+003,-1.846619e+000
1.732635e+003,-2.899170e-001
1.733599e+003,1.956177e-002
1.734563e+003,-1.008438e+000
1.735528e+003,-2.215775e+000
1.736492e+003,-3.024841e+000
1.737456e+003,-3.276016e+000
1.738420e+003,-2.697113e+000
1.739385e+003,-1.643723e+000
1.740349e+003,-1.204941e+000
1.741313e+003,-1.471313e+000
1.742277e+003,-1.586945e+000
1.743241e+003,-1.411255e+000
1.744206e+003,-1.183716e+000
1.745170e+003,-1.061462e+000
1.746134e+003,-8.333130e-001
1.747098e+003,-2.264404e-002
1.748063e+003,6.779938e-001
1.749027e+003,2.022247e-001
1.749991e+003,-1.037567e+000
1.750955e+003,-1.971008e+000
1.751919e+003,-2.120132e+000
1.752884e+003,-1.141754e+000
1.753848e+003,1.287842e+000
1.754812e+003,3.998016e+000
1.755776e+003,4.639160e+000
1.756741e+003,3.338455e+000
1.757705e+003,1.680069e+000
1.758669e+003,-8.838348e-001
1.759633e+003,-2.367554e+000
1.760598e+003,-1.874542e+000
1.761562e+003,-1.378021e+000
1.762526e+003,-1.073685e+000
1.763490e+003,-1.201416e+000
1.764455e+003,-2.211761e+000
1.765419e+003,-3.597656e+000
1.766383e+003,-4.885254e+000
1.767347e+003,-5.847000e+000
1.768312e+003,-5.886810e+000
1.769276e+003,-4.726013e+000
1.770240e+003,-3.419144e+000
1.771204e+003,-2.884216e+000
1.772168e+003,-2.908005e+000
1.773133e+003,-3.501694e+000
1.774097e+003,-4.518295e+000
1.775061e+003,-4.163345e+000
1.776025e+003,-2.079605e+000
1.776990e+003,-6.562958e-001
1.777954e+003,-7.904358e-001
1.778918e+003,-1.244431e+000
1.779882e+003,-1.298050e+000
1.780846e+003,-1.188660e+000
1.781811e+003,-1.177261e+000
1.782775e+003,-1.187439e+000
1.783739e+003,-9.544373e-001
1.784703e+003,-3.718109e-001
1.785668e+003,-4.394531e-002
1.786632e+003,-5.918427e-001
1.787596e+003,-1.168945e+000
1.788560e+003,-7.226105e-001
1.789525e+003,-2.702332e-002
1.790489e+003,-5.735474e-001
1.791453e+003,-1.951599e+000
1.792417e+003,-2.493530e+000
1.793382e+003,-1.898132e+000
1.794346e+003,-1.115372e+000
1.795310e+003,-6.239777e-001
1.796274e+003,-6.312408e-001
1.797239e+003,-1.467163e+000
1.798203e+003,-2.595520e+000
1.799167e+003,-2.506104e+000
1.800131e+003,-1.055786e+000
1.801095e+003,-5.028839e-001
1.802060e+003,-1.098267e+000
1.803024e+003,-1.783066e+000
1.803988e+003,-2.756561e+000
1.804952e+003,-3.546432e+000
1.805917e+003,-3.965897e+000
1.806881e+003,-4.069214e+000
1.807845e+003,-3.998978e+000
1.808809e+003,-3.593750e+000
1.809773e+003,-2.195892e+000
1.810738e+003,-5.416870e-003
1.811702e+003,1.366943e+000
1.812666e+003,9.393921e-001
1.813630e+003,1.572571e-001
1.814595e+003,1.168427e+000
1.815559e+003,3.165802e+000
1.816523e+003,2.544983e+000
1.817487e+003,-1.029236e+000
1.818452e+003,-3.097687e+000
1.819416e+003,-2.954132e+000
1.820380e+003,-2.520813e+000
1.821344e+003,-2.239883e+000
1.822309e+003,-2.058655e+000
1.823273e+003,-1.766678e+000
1.824237e+003,-1.577469e+000
1.825201e+003,-2.056946e+000
1.826166e+003,-2.839050e+000
1.827130e+003,-2.843674e+000
1.828094e+003,-1.929108e+000
1.829058e+003,-8.623047e-001
1.830022e+003,4.597778e-001
1.830987e+003,9.713440e-001
1.831951e+003,-1.038910e+000
1.832915e+003,-3.790405e+000
1.833879e+003,-4.797073e+000
1.834844e+003,-4.271423e+000
1.835808e+003,-2.990829e+000
1.836772e+003,-1.213959e+000
1.837736e+003,5.139008e-001
1.838700e+003,1.954376e+000
1.839665e+003,2.108704e+000
1.840629e+003,-2.297821e-001
1.841593e+003,-3.503189e+000
1.842557e+003,-4.408646e+000
1.843522e+003,-2.983810e+000
1.844486e+003,-1.841995e+000
1.845450e+003,-8.088837e-001
1.846414e+003,-2.317047e-001
1.847379e+003,-8.909149e-001
1.848343e+003,-1.189758e+000
1.849307e+003,-9.777832e-002
1.850271e+003,1.011780e+000
1.851236e+003,1.528564e+000
1.852200e+003,1.273376e+000
1.853164e+003,-6.777344e-001
1.854128e+003,-3.586639e+000
1.855093e+003,-4.904129e+000
1.856057e+003,-3.757523e+000
1.857021e+003,-2.141998e+000
1.857985e+003,-1.724747e+000
1.858949e+003,-2.025024e+000
1.859914e+003,-2.309219e+000
1.860878e+003,-2.536942e+000
1.861842e+003,-2.643692e+000
1.862806e+003,-2.659500e+000
1.863771e+003,-2.178665e+000
1.864735e+003,-8.759613e-001
1.865699e+003,-5.711517e-001
1.866663e+003,-2.784149e+000
1.867627e+003,-4.662781e+000
1.868592e+003,-3.022797e+000
1.869556e+003,4.487610e-002
1.870520e+003,5.644684e-001
1.871484e+003,-1.089249e+000
1.872449e+003,-2.455460e+000
1.873413e+003,-3.209946e+000
1.874377e+003,-3.171051e+000
1.875341e+003,-1.895798e+000
1.876306e+003,-6.969452e-001
1.877270e+003,-4.026794e-001
1.878234e+003,-4.477386e-001
1.879198e+003,-2.583313e-001
1.880163e+003,8.941650e-002
1.881127e+003,4.810791e-001
1.882091e+003,7.873230e-001
1.883055e+003,5.308228e-001
1.884020e+003,-3.877106e-001
1.884984e+003,-1.051514e+000
1.885948e+003,-6.212616e-001
1.886912e+003,5.931091e-001
1.887876e+003,2.145050e+000
1.888841e+003,3.939011e+000
1.889805e+003,4.512695e+000
1.890769e+003,3.631744e+000
1.891733e+003,2.782242e+000
1.892698e+003,2.041138e+000
1.893662e+003,1.321579e+000
1.894626e+003,5.104980e-001
1.895590e+003,-1.041107e-001
1.896554e+003,-6.202087e-001
1.897519e+003,-5.575867e-001
1.898483e+003,1.407990e+000
1.899447e+003,4.331024e+000
1.900411e+003,4.984589e+000
1.901376e+003,2.740433e+000
1.902340e+003,6.911774e-001
1.903304e+003,8.815002e-002
1.904268e+003,-2.248230e-001
1.905233e+003,-1.225677e+000
1.906197e+003,-1.963120e+000
1.907161e+003,-1.268539e+000
1.908125e+003,3.490448e-001
1.909090e+003,2.282547e+000
1.910054e+003,4.009628e+000
1.911018e+003,4.344376e+000
1.911982e+003,3.090607e+000
1.912947e+003,1.589828e+000
1.913911e+003,7.990875e-001
1.914875e+003,6.420593e-001
1.915839e+003,1.005005e+000
1.916803e+003,1.781097e+000
1.917768e+003,2.835037e+000
1.918732e+003,4.361084e+000
1.919696e+003,5.263275e+000
1.920660e+003,5.499680e+000
1.921625e+003,5.292740e+000
1.922589e+003,4.306625e+000
1.923553e+003,3.396835e+000
1.924517e+003,3.180313e+000
1.925481e+003,3.113098e+000
1.926446e+003,2.404312e+000
1.927410e+003,1.622726e+000
1.928374e+003,2.121384e+000
1.929338e+003,3.808838e+000
1.930303e+003,4.913040e+000
1.931267e+003,5.032715e+000
1.932231e+003,4.821564e+000
1.933195e+003,4.089783e+000
1.934160e+003,3.520050e+000
1.935124e+003,3.549484e+000
1.936088e+003,4.023666e+000
1.937052e+003,5.622284e+000
1.938017e+003,7.296326e+000
1.938981e+003,6.149841e+000
1.939945e+003,2.510284e+000
1.940909e+003,9.071350e-002
1.941874e+003,5.112000e-001
1.942838e+003,1.877457e+000
1.943802e+003,2.507996e+000
1.944766e+003,2.886536e+000
1.945730e+003,3.949890e+000
1.946695e+003,5.483276e+000
1.947659e+003,5.933472e+000
1.948623e+003,5.114120e+000
1.949587e+003,5.354630e+000
1.950552e+003,7.461655e+000
1.951516e+003,8.360733e+000
1.952480e+003,6.314743e+000
1.953444e+003,4.400726e+000
1.954408e+003,5.252701e+000
1.955373e+003,6.826096e+000
1.956337e+003,5.973831e+000
1.957301e+003,3.594879e+000
1.958265e+003,2.708450e+000
1.959230e+003,3.600128e+000
1.960194e+003,4.189499e+000
1.961158e+003,3.472397e+000
1.962122e+003,3.277451e+000
1.963087e+003,4.704376e+000
1.964051e+003,6.041519e+000
1.965015e+003,6.451736e+000
1.965979e+003,6.317642e+000
1.966944e+003,5.471756e+000
1.967908e+003,4.563995e+000
1.968872e+003,5.001846e+000
1.969836e+003,6.584961e+000
1.970801e+003,7.562195e+000
1.971765e+003,7.209961e+000
1.972729e+003,6.387482e+000
1.973693e+003,5.745163e+000
1.974657e+003,5.229828e+000
1.975622e+003,4.421738e+000
1.976586e+003,3.743103e+000
1.977550e+003,5.016113e+000
1.978514e+003,7.726334e+000
1.979479e+003,8.352158e+000
1.980443e+003,6.517822e+000
1.981407e+003,5.565414e+000
1.982371e+003,6.802612e+000
1.983335e+003,8.453278e+000
1.984300e+003,9.206482e+000
1.985264e+003,9.296478e+000
1.986228e+003,9.154648e+000
1.987192e+003,8.663788e+000
1.988157e+003,7.075439e+000
1.989121e+003,3.813599e+000
1.990085e+003,2.709686e+000
1.991049e+003,5.268967e+000
1.992014e+003,7.024399e+000
1.992978e+003,6.687729e+000
1.993942e+003,6.435364e+000
1.994906e+003,7.214401e+000
1.995871e+003,8.132660e+000
1.996835e+003,8.394318e+000
1.997799e+003,8.511581e+000
1.998763e+003,9.555771e+000
1.999728e+003,1.115077e+001
