5.003444e+002,3.936765e+001
5.013087e+002,3.761554e+001
5.022729e+002,3.682370e+001
5.032371e+002,3.679807e+001
5.042014e+002,3.589465e+001
5.051656e+002,3.432983e+001
5.061298e+002,3.312735e+001
5.070941e+002,3.324625e+001
5.080583e+002,3.496481e+001
5.090225e+002,3.591254e+001
5.099868e+002,3.595947e+001
5.109510e+002,3.565628e+001
5.119152e+002,3.522141e+001
5.128795e+002,3.467477e+001
5.138437e+002,3.411404e+001
5.148079e+002,3.378165e+001
5.157722e+002,3.333795e+001
5.167364e+002,3.235214e+001
5.177006e+002,3.088452e+001
5.186649e+002,2.954279e+001
5.196291e+002,2.952963e+001
5.205933e+002,3.010516e+001
5.215576e+002,3.004790e+001
5.225218e+002,2.919406e+001
5.234860e+002,2.814001e+001
5.244503e+002,2.818369e+001
5.254145e+002,3.008733e+001
5.263787e+002,3.042039e+001
5.273430e+002,2.800969e+001
5.283072e+002,2.482495e+001
5.292714e+002,2.374280e+001
5.302357e+002,2.616187e+001
5.311999e+002,2.713478e+001
5.321641e+002,2.508098e+001
5.331284e+002,2.271082e+001
5.340926e+002,2.234317e+001
5.350568e+002,2.487741e+001
5.360211e+002,2.736885e+001
5.369853e+002,2.723753e+001
5.379495e+002,2.605560e+001
5.389138e+002,2.473425e+001
5.398780e+002,2.371259e+001
5.408422e+002,2.298067e+001
5.418065e+002,2.274837e+001
5.427707e+002,2.291908e+001
5.437349e+002,2.275549e+001
5.446992e+002,2.196771e+001
5.456634e+002,2.072830e+001
5.466276e+002,1.969914e+001
5.475919e+002,1.913838e+001
5.485561e+002,1.863510e+001
5.495203e+002,1.815961e+001
5.504846e+002,1.760959e+001
5.514488e+002,1.695885e+001
5.524130e+002,1.641719e+001
5.533773e+002,1.546350e+001
5.543415e+002,1.292441e+001
5.553057e+002,1.036462e+001
5.562700e+002,9.711807e+000
5.572342e+002,1.209804e+001
5.581984e+002,1.577037e+001
5.591627e+002,1.662744e+001
5.601269e+002,1.565433e+001
5.610911e+002,1.436282e+001
5.620554e+002,1.346956e+001
5.630196e+002,1.282948e+001
5.639838e+002,1.164352e+001
5.649481e+002,8.624756e+000
5.659123e+002,6.921631e+000
5.668765e+002,8.225479e+000
5.678408e+002,1.148875e+001
5.688050e+002,1.342976e+001
5.697692e+002,1.203345e+001
5.707335e+002,1.034134e+001
5.716977e+002,8.866577e+000
5.726619e+002,7.929581e+000
5.736262e+002,8.068588e+000
5.745904e+002,9.893188e+000
5.755546e+002,1.204242e+001
5.765189e+002,1.211053e+001
5.774831e+002,1.077452e+001
5.784473e+002,9.421890e+000
5.794116e+002,9.057922e+000
5.803758e+002,9.594757e+000
5.813400e+002,8.431946e+000
5.823043e+002,4.372971e+000
5.832685e+002,1.541824e+000
5.842327e+002,2.298599e+000
5.851970e+002,6.085449e+000
5.861612e+002,8.602325e+000
5.871254e+002,7.790741e+000
5.880897e+002,7.028763e+000
5.890539e+002,7.353592e+000
5.900181e+002,7.991516e+000
5.909824e+002,7.326843e+000
5.919466e+002,3.685516e+000
5.929108e+002,1.778717e-001
5.938751e+002,1.907043e-001
5.948393e+002,2.364807e+000
5.958035e+002,4.759460e+000
5.967678e+002,5.972443e+000
5.977320e+002,6.241714e+000
5.986962e+002,7.183182e+000
5.996605e+002,8.765396e+000
6.006247e+002,9.519287e+000
6.015889e+002,8.371582e+000
6.025532e+002,5.509003e+000
6.035174e+002,3.444641e+000
6.044816e+002,2.959442e+000
6.054459e+002,2.575363e+000
6.064101e+002,1.984741e+000
6.073743e+002,1.361725e+000
6.083386e+002,1.131363e+000
6.093028e+002,1.725296e+000
6.102670e+002,2.440109e+000
6.112313e+002,2.689133e+000
6.121955e+002,2.656189e+000
6.131597e+002,2.526672e+000
6.141240e+002,2.432007e+000
6.150882e+002,2.410889e+000
6.160524e+002,3.000854e+000
6.170167e+002,4.155853e+000
6.179809e+002,4.779022e+000
6.189451e+002,4.038010e+000
6.199094e+002,2.136414e+000
6.208736e+002,1.201370e+000
6.218378e+002,2.896378e+000
6.228021e+002,3.992477e+000
6.237663e+002,3.770691e+000
6.247305e+002,2.945206e+000
6.256948e+002,2.711700e+000
6.266590e+002,3.712158e+000
6.276232e+002,4.540665e+000
6.285875e+002,4.710312e+000
6.295517e+002,4.354080e+000
6.305159e+002,3.267212e+000
6.314802e+002,1.382050e+000
6.324444e+002,-7.456665e-001
6.334086e+002,-1.055710e+000
6.343729e+002,-1.606750e-002
6.353371e+002,1.110321e+000
6.363013e+002,1.969528e+000
6.372656e+002,2.367249e+000
6.382298e+002,1.687164e+000
6.391940e+002,-1.902374e+000
6.401583e+002,-4.242264e+000
6.411225e+002,-4.735947e+000
6.420867e+002,-3.973206e+000
6.430510e+002,-2.419525e+000
6.440152e+002,1.956177e-001
6.449794e+002,1.744537e+000
6.459437e+002,5.899048e-001
6.469079e+002,-1.418625e+000
6.478721e+002,-2.972351e+000
6.488364e+002,-3.519302e+000
6.498006e+002,-3.391312e+000
6.507648e+002,-3.052475e+000
6.517291e+002,-2.624969e+000
6.526933e+002,-2.204727e+000
6.536575e+002,-1.798035e+000
6.546218e+002,-1.660797e+000
6.555860e+002,-2.367706e+000
6.565502e+002,-4.984497e+000
6.575145e+002,-6.023895e+000
6.584787e+002,-4.242599e+000
6.594429e+002,-2.074249e+000
6.604072e+002,-1.586975e+000
6.613714e+002,-3.226395e+000
6.623356e+002,-4.699615e+000
6.632999e+002,-5.279465e+000
6.642641e+002,-5.303513e+000
6.652283e+002,-4.370712e+000
6.661926e+002,-2.735443e+000
6.671568e+002,-1.315857e+000
6.681210e+002,-1.595642e+000
6.690853e+002,-2.702835e+000
6.700495e+002,-1.935455e+000
6.710137e+002,6.376038e-001
6.719780e+002,3.302750e+000
6.729422e+002,4.217407e+000
6.739064e+002,2.999832e+000
6.748707e+002,1.789246e+000
6.758349e+002,1.490631e-001
6.767991e+002,-1.068634e+000
6.777634e+002,-1.071442e+000
6.787276e+002,2.880859e-002
6.796918e+002,7.741852e-001
6.806561e+002,3.967285e-003
6.816203e+002,-8.229370e-001
6.825845e+002,-1.262222e+000
6.835488e+002,-1.329269e+000
6.845130e+002,-1.053284e+000
6.854772e+002,-3.835297e-001
6.864415e+002,4.898071e-001
6.874057e+002,8.703918e-001
6.883699e+002,7.728577e-001
6.893342e+002,5.921936e-001
6.902984e+002,5.988007e-001
6.912626e+002,7.666931e-001
6.922269e+002,6.080933e-001
6.931911e+002,4.159546e-002
6.941553e+002,-3.414764e-001
6.951196e+002,-8.072205e-001
6.960838e+002,-1.215225e+000
6.970480e+002,-1.108902e+000
6.980123e+002,2.767944e-002
6.989765e+002,7.761993e-001
6.999407e+002,7.326660e-001
7.009050e+002,3.245544e-002
7.018692e+002,-1.659134e+000
7.028334e+002,-4.243027e+000
7.037977e+002,-6.716873e+000
7.047619e+002,-7.200241e+000
7.057261e+002,-6.242264e+000
7.066904e+002,-5.071701e+000
7.076546e+002,-3.889084e+000
7.086188e+002,-2.637390e+000
7.095831e+002,-1.199600e+000
7.105473e+002,5.933075e-001
7.115115e+002,1.683090e+000
7.124758e+002,1.620438e+000
7.134400e+002,1.369171e+000
7.144042e+002,1.518265e+000
7.153685e+002,2.149445e+000
7.163327e+002,2.964478e+000
7.172969e+002,4.598679e+000
7.182612e+002,5.663574e+000
7.192254e+002,5.237244e+000
7.201896e+002,3.698120e+000
7.211539e+002,1.876556e+000
7.221181e+002,4.399261e-001
7.230823e+002,-6.747131e-001
7.240466e+002,-2.060715e+000
7.250108e+002,-3.410995e+000
7.259750e+002,-3.484848e+000
7.269393e+002,-1.421341e+000
7.279035e+002,2.206894e+000
7.288677e+002,3.820938e+000
7.298320e+002,1.725983e+000
7.307962e+002,2.011719e-001
7.317604e+002,-3.547821e-001
7.327247e+002,-2.124786e-001
7.336889e+002,1.563110e-001
7.346531e+002,4.418793e-001
7.356174e+002,7.499390e-001
7.365816e+002,2.059509e+000
7.375458e+002,3.265656e+000
7.385101e+002,3.272934e+000
7.394743e+002,1.943253e+000
7.404385e+002,1.882782e-001
7.414028e+002,-6.408081e-001
7.423670e+002,-1.044495e+000
7.433312e+002,-2.273773e+000
7.442955e+002,-4.331192e+000
7.452597e+002,-5.883072e+000
7.462239e+002,-5.265823e+000
7.471882e+002,-1.725128e+000
7.481524e+002,3.990936e-001
7.491166e+002,-9.124756e-002
7.500809e+002,-7.546387e-001
7.510451e+002,-8.101196e-001
7.520093e+002,-2.711029e-001
7.529736e+002,5.748749e-001
7.539378e+002,2.048187e+000
7.549020e+002,3.466919e+000
7.558663e+002,4.571762e+000
7.568306e+002,5.279236e+000
7.577948e+002,5.379395e+000
7.587590e+002,4.724976e+000
7.597233e+002,3.427551e+000
7.606875e+002,1.859482e+000
7.616517e+002,1.979980e-001
7.626160e+002,-6.094360e-001
7.635802e+002,-6.443787e-002
7.645444e+002,1.282608e+000
7.655087e+002,2.311218e+000
7.664729e+002,3.046341e+000
7.674371e+002,3.196198e+000
7.684014e+002,2.240143e+000
7.693656e+002,1.247894e+000
7.703298e+002,1.019211e+000
7.712941e+002,1.608841e+000
7.722583e+002,2.241470e+000
7.732225e+002,2.507034e+000
7.741868e+002,2.386139e+000
7.751510e+002,1.402786e+000
7.761152e+002,3.176880e-002
7.770795e+002,-6.467743e-001
7.780437e+002,3.170166e-001
7.790079e+002,2.609756e+000
7.799722e+002,3.922745e+000
7.809364e+002,4.344147e+000
7.819006e+002,4.208801e+000
7.828649e+002,3.284103e+000
7.838291e+002,2.016815e+000
7.847933e+002,1.749329e+000
7.857576e+002,3.117859e+000
7.867218e+002,4.085602e+000
7.876860e+002,4.177826e+000
7.886503e+002,4.134079e+000
7.896145e+002,4.731186e+000
7.905787e+002,6.104248e+000
7.915430e+002,7.332260e+000
7.925072e+002,7.049377e+000
7.934714e+002,6.015610e+000
7.944357e+002,5.025024e+000
7.953999e+002,4.336655e+000
7.963641e+002,4.176117e+000
7.973284e+002,4.790512e+000
7.982926e+002,6.274811e+000
7.992568e+002,6.567322e+000
8.002211e+002,4.524704e+000
8.011853e+002,2.890976e+000
8.021495e+002,3.594894e+000
8.031138e+002,5.993362e+000
8.040780e+002,6.946152e+000
8.050422e+002,4.292099e+000
8.060065e+002,2.383362e+000
8.069707e+002,3.020889e+000
8.079349e+002,4.560226e+000
8.088992e+002,5.717194e+000
8.098634e+002,5.978165e+000
8.108276e+002,5.366928e+000
8.117919e+002,2.950974e+000
8.127561e+002,-3.008881e-001
8.137203e+002,-1.837891e+000
8.146846e+002,-1.233337e+000
8.156488e+002,5.526733e-001
8.166130e+002,2.379333e+000
8.175773e+002,4.378067e+000
8.185415e+002,5.343552e+000
8.195057e+002,4.283218e+000
8.204700e+002,3.354630e+000
8.214342e+002,3.624268e+000
8.223984e+002,4.578430e+000
8.233627e+002,4.669296e+000
8.243269e+002,2.826981e+000
8.252911e+002,1.295456e+000
8.262554e+002,1.087158e+000
8.272196e+002,1.857437e+000
8.281838e+002,3.686981e+000
8.291481e+002,6.328705e+000
8.301123e+002,8.857239e+000
8.310765e+002,9.532959e+000
8.320408e+002,8.369370e+000
8.330050e+002,7.197433e+000
8.339692e+002,6.081711e+000
8.349335e+002,5.159241e+000
8.358977e+002,4.674881e+000
8.368619e+002,4.764221e+000
8.378262e+002,4.883545e+000
8.387904e+002,4.441559e+000
8.397546e+002,4.465820e+000
8.407189e+002,5.647324e+000
8.416831e+002,7.397186e+000
8.426473e+002,8.667862e+000
8.436116e+002,8.943573e+000
8.445758e+002,8.973312e+000
8.455400e+002,9.293625e+000
8.465043e+002,9.669785e+000
8.474685e+002,1.028606e+001
8.484327e+002,1.116277e+001
8.493970e+002,1.172531e+001
8.503612e+002,1.074161e+001
8.513254e+002,7.699356e+000
8.522897e+002,6.627731e+000
8.532539e+002,8.501373e+000
8.542181e+002,1.061046e+001
8.551824e+002,1.129672e+001
8.561466e+002,1.093047e+001
8.571108e+002,1.157208e+001
8.580751e+002,1.482739e+001
8.590393e+002,1.674585e+001
8.600035e+002,1.502164e+001
8.609678e+002,1.216139e+001
8.619320e+002,1.106100e+001
8.628962e+002,1.281714e+001
8.638605e+002,1.573824e+001
8.648247e+002,1.760672e+001
8.657889e+002,1.860088e+001
8.667532e+002,1.912230e+001
8.677174e+002,1.921567e+001
8.686816e+002,1.884332e+001
8.696459e+002,1.788446e+001
8.706101e+002,1.626491e+001
8.715743e+002,1.526947e+001
8.725386e+002,1.506177e+001
8.735028e+002,1.521504e+001
8.744670e+002,1.525688e+001
8.754313e+002,1.547789e+001
8.763955e+002,1.689810e+001
8.773597e+002,2.048393e+001
8.783240e+002,2.333701e+001
8.792882e+002,2.263574e+001
8.802524e+002,2.071472e+001
8.812167e+002,1.939696e+001
8.821809e+002,1.916924e+001
8.831451e+002,1.962183e+001
8.841094e+002,2.030518e+001
8.850736e+002,2.127524e+001
8.860378e+002,2.163052e+001
8.870021e+002,2.095509e+001
8.879663e+002,2.080504e+001
8.889305e+002,2.265527e+001
8.898948e+002,2.585748e+001
8.908590e+002,2.708069e+001
8.918232e+002,2.423885e+001
8.927875e+002,2.279259e+001
8.937517e+002,2.500714e+001
8.947159e+002,2.810400e+001
8.956802e+002,2.944394e+001
8.966444e+002,2.855063e+001
8.976086e+002,2.749434e+001
8.985729e+002,2.897319e+001
8.995371e+002,3.126120e+001
9.005013e+002,3.076025e+001
9.014656e+002,2.804306e+001
9.024298e+002,2.595055e+001
9.033940e+002,2.660732e+001
9.043583e+002,2.953137e+001
9.053225e+002,3.173306e+001
9.062867e+002,3.278845e+001
9.072510e+002,3.332027e+001
9.082152e+002,3.331963e+001
9.091794e+002,3.312573e+001
9.101437e+002,3.301675e+001
9.111079e+002,3.302173e+001
9.120721e+002,3.294855e+001
9.130364e+002,3.211647e+001
9.140006e+002,3.143318e+001
9.149648e+002,3.169391e+001
9.159291e+002,3.272076e+001
9.168933e+002,3.399399e+001
9.178575e+002,3.506990e+001
9.188218e+002,3.583833e+001
9.197860e+002,3.621393e+001
9.207502e+002,3.619379e+001
9.217145e+002,3.487659e+001
9.226787e+002,3.123079e+001
9.236429e+002,2.734953e+001
9.246072e+002,2.625311e+001
9.255714e+002,2.847784e+001
9.265356e+002,3.005130e+001
9.274999e+002,3.028836e+001
9.284641e+002,2.969673e+001
9.294283e+002,2.776241e+001
9.303926e+002,2.537363e+001
9.313568e+002,2.400412e+001
9.323210e+002,2.444989e+001
9.332853e+002,2.553749e+001
9.342495e+002,2.513145e+001
9.352137e+002,2.411050e+001
9.361780e+002,2.417123e+001
9.371422e+002,2.576044e+001
9.381064e+002,2.775734e+001
9.390707e+002,2.850050e+001
9.400349e+002,2.764691e+001
9.409991e+002,2.682602e+001
9.419634e+002,2.594440e+001
9.429276e+002,2.513474e+001
9.438918e+002,2.417659e+001
9.448561e+002,2.344899e+001
9.458203e+002,2.374316e+001
9.467845e+002,2.551566e+001
9.477488e+002,2.734930e+001
9.487130e+002,2.833138e+001
9.496772e+002,2.876201e+001
9.506415e+002,2.858859e+001
9.516057e+002,2.799686e+001
9.525699e+002,2.747018e+001
9.535342e+002,2.747295e+001
9.544984e+002,2.783281e+001
9.554626e+002,2.743039e+001
9.564269e+002,2.628485e+001
9.573911e+002,2.547543e+001
9.583553e+002,2.522717e+001
9.593196e+002,2.541704e+001
9.602838e+002,2.607466e+001
9.612480e+002,2.744171e+001
9.622123e+002,2.800677e+001
9.631765e+002,2.675717e+001
9.641407e+002,2.531358e+001
9.651050e+002,2.402022e+001
9.660692e+002,2.309256e+001
9.670334e+002,2.289145e+001
9.679977e+002,2.373520e+001
9.689619e+002,2.523296e+001
9.699261e+002,2.672389e+001
9.708904e+002,2.787872e+001
9.718546e+002,2.746350e+001
9.728188e+002,2.482938e+001
9.737831e+002,2.184224e+001
9.747473e+002,2.099333e+001
9.757115e+002,2.260982e+001
9.766758e+002,2.495004e+001
9.776400e+002,3.042758e+001
9.786042e+002,3.390372e+001
9.795685e+002,3.230177e+001
9.805327e+002,2.857280e+001
9.814969e+002,2.723636e+001
9.824612e+002,2.990274e+001
9.834254e+002,3.270728e+001
9.843896e+002,3.115761e+001
9.853539e+002,2.779283e+001
9.863181e+002,2.498459e+001
9.872823e+002,2.294637e+001
9.882466e+002,2.147929e+001
9.892108e+002,2.056699e+001
9.901750e+002,2.036502e+001
9.911393e+002,2.066280e+001
9.921035e+002,2.160095e+001
9.930677e+002,2.202507e+001
9.940320e+002,2.143491e+001
9.949962e+002,2.093997e+001
9.959604e+002,2.150499e+001
9.969247e+002,2.322200e+001
9.978889e+002,2.565210e+001
9.988531e+002,2.890326e+001
9.998174e+002,3.204805e+001
1.000782e+003,3.499181e+001
1.001746e+003,3.754300e+001
1.002710e+003,3.940927e+001
1.003674e+003,4.044849e+001
1.004639e+003,4.074969e+001
1.005603e+003,4.044276e+001
1.006567e+003,3.939601e+001
1.007531e+003,3.820859e+001
1.008495e+003,3.680026e+001
1.009460e+003,3.545953e+001
1.010424e+003,3.423457e+001
1.011388e+003,3.325252e+001
1.012352e+003,3.315753e+001
1.013317e+003,3.512311e+001
1.014281e+003,3.542953e+001
1.015245e+003,3.121538e+001
1.016209e+003,2.664647e+001
1.017174e+003,2.547125e+001
1.018138e+003,2.726419e+001
1.019102e+003,2.827423e+001
1.020066e+003,2.527628e+001
1.021031e+003,2.017697e+001
1.021995e+003,1.878673e+001
1.022959e+003,2.011848e+001
1.023923e+003,1.996712e+001
1.024887e+003,1.645807e+001
1.025852e+003,1.166937e+001
1.026816e+003,9.070938e+000
1.027780e+003,9.321854e+000
1.028744e+003,9.167206e+000
1.029709e+003,7.826965e+000
1.030673e+003,6.627243e+000
1.031637e+003,6.130585e+000
1.032601e+003,5.855865e+000
1.033566e+003,4.838120e+000
1.034530e+003,2.832108e+000
1.035494e+003,1.462891e+000
1.036458e+003,3.129105e+000
1.037422e+003,6.147141e+000
1.038387e+003,7.555115e+000
1.039351e+003,7.366180e+000
1.040315e+003,7.247223e+000
1.041279e+003,8.570541e+000
1.042244e+003,1.094717e+001
1.043208e+003,1.215433e+001
1.044172e+003,1.136876e+001
1.045136e+003,1.040967e+001
1.046101e+003,9.058762e+000
1.047065e+003,7.947937e+000
1.048029e+003,7.539612e+000
1.048993e+003,7.688400e+000
1.049958e+003,7.858643e+000
1.050922e+003,7.811768e+000
1.051886e+003,7.938416e+000
1.052850e+003,8.984741e+000
1.053814e+003,1.021989e+001
1.054779e+003,1.046219e+001
1.055743e+003,9.560852e+000
1.056707e+003,8.541504e+000
1.057671e+003,8.664810e+000
1.058636e+003,9.912796e+000
1.059600e+003,1.082036e+001
1.060564e+003,1.128918e+001
1.061528e+003,1.192566e+001
1.062493e+003,1.323315e+001
1.063457e+003,1.420567e+001
1.064421e+003,1.355870e+001
1.065385e+003,1.124557e+001
1.066349e+003,9.053955e+000
1.067314e+003,7.863602e+000
1.068278e+003,7.127899e+000
1.069242e+003,6.052994e+000
1.070206e+003,5.298187e+000
1.071171e+003,6.256882e+000
1.072135e+003,9.236282e+000
1.073099e+003,1.265050e+001
1.074063e+003,1.390816e+001
1.075028e+003,1.284239e+001
1.075992e+003,1.186526e+001
1.076956e+003,1.075058e+001
1.077920e+003,9.837769e+000
1.078885e+003,9.766586e+000
1.079849e+003,9.980759e+000
1.080813e+003,8.964371e+000
1.081777e+003,6.097839e+000
1.082741e+003,4.463913e+000
1.083706e+003,7.160004e+000
1.084670e+003,9.951996e+000
1.085634e+003,1.038231e+001
1.086598e+003,9.097977e+000
1.087563e+003,7.883591e+000
1.088527e+003,7.763947e+000
1.089491e+003,7.963318e+000
1.090455e+003,6.557587e+000
1.091420e+003,3.211624e+000
1.092384e+003,2.213577e+000
1.093348e+003,4.750641e+000
1.094312e+003,7.213852e+000
1.095276e+003,7.399841e+000
1.096241e+003,6.066864e+000
1.097205e+003,5.309250e+000
1.098169e+003,5.473099e+000
1.099133e+003,5.589447e+000
1.100098e+003,4.867355e+000
1.101062e+003,4.480103e+000
1.102026e+003,5.422363e+000
1.102990e+003,7.330460e+000
1.103955e+003,9.340317e+000
1.104919e+003,1.088692e+001
1.105883e+003,1.176076e+001
1.106847e+003,1.139462e+001
1.107812e+003,9.751068e+000
1.108776e+003,8.803711e+000
1.109740e+003,8.893356e+000
1.110704e+003,9.144409e+000
1.111668e+003,8.824326e+000
1.112633e+003,8.262634e+000
1.113597e+003,8.702011e+000
1.114561e+003,1.078937e+001
1.115525e+003,1.235376e+001
1.116490e+003,1.231219e+001
1.117454e+003,1.196315e+001
1.118418e+003,1.253226e+001
1.119382e+003,1.365277e+001
1.120347e+003,1.375859e+001
1.121311e+003,1.179651e+001
1.122275e+003,9.086960e+000
1.123239e+003,8.756866e+000
1.124203e+003,1.083415e+001
1.125168e+003,1.288220e+001
1.126132e+003,1.473888e+001
1.127096e+003,1.666351e+001
1.128060e+003,1.891098e+001
1.129025e+003,2.131259e+001
1.129989e+003,2.330118e+001
1.130953e+003,2.491252e+001
1.131917e+003,2.572855e+001
1.132882e+003,2.544914e+001
1.133846e+003,2.480069e+001
1.134810e+003,2.358900e+001
1.135774e+003,2.247739e+001
1.136739e+003,2.285284e+001
1.137703e+003,2.544952e+001
1.138667e+003,2.894383e+001
1.139631e+003,3.096767e+001
1.140595e+003,3.170454e+001
1.141560e+003,3.326401e+001
1.142524e+003,3.585526e+001
1.143488e+003,3.923627e+001
1.144452e+003,4.326108e+001
1.145417e+003,4.789909e+001
1.146381e+003,5.302571e+001
1.147345e+003,5.856012e+001
1.148309e+003,6.472256e+001
1.149274e+003,7.091760e+001
1.150238e+003,7.845808e+001
1.151202e+003,8.914796e+001
1.152166e+003,1.016024e+002
1.153130e+003,1.136940e+002
1.154095e+003,1.241478e+002
1.155059e+003,1.322358e+002
1.156023e+003,1.370678e+002
1.156987e+003,1.386170e+002
1.157952e+003,1.384558e+002
1.158916e+003,1.370243e+002
1.159880e+003,1.333174e+002
1.160844e+003,1.257930e+002
1.161809e+003,1.153996e+002
1.162773e+003,1.044223e+002
1.163737e+003,9.253506e+001
1.164701e+003,8.163306e+001
1.165666e+003,7.212456e+001
1.166630e+003,6.406718e+001
1.167594e+003,5.800333e+001
1.168558e+003,5.315726e+001
1.169522e+003,4.810757e+001
1.170487e+003,4.272121e+001
1.171451e+003,3.920341e+001
1.172415e+003,4.044116e+001
1.173379e+003,4.506931e+001
1.174344e+003,4.568790e+001
1.175308e+003,4.225159e+001
1.176272e+003,3.894923e+001
1.177236e+003,3.763683e+001
1.178201e+003,3.680496e+001
1.179165e+003,3.398068e+001
1.180129e+003,2.902124e+001
1.181093e+003,2.538712e+001
1.182057e+003,2.364426e+001
1.183022e+003,2.386201e+001
1.183986e+003,2.769809e+001
1.184950e+003,3.209874e+001
1.185914e+003,3.397789e+001
1.186879e+003,3.331517e+001
1.187843e+003,3.224754e+001
1.188807e+003,3.246503e+001
1.189771e+003,3.360583e+001
1.190736e+003,3.496988e+001
1.191700e+003,3.666148e+001
1.192664e+003,3.707655e+001
1.193628e+003,3.575961e+001
1.194593e+003,3.372464e+001
1.195557e+003,3.127422e+001
1.196521e+003,2.861728e+001
1.197485e+003,2.664214e+001
1.198449e+003,2.571040e+001
1.199414e+003,2.483141e+001
1.200378e+003,2.350905e+001
1.201342e+003,2.215619e+001
1.202306e+003,2.074681e+001
1.203271e+003,1.949258e+001
1.204235e+003,1.900298e+001
1.205199e+003,1.948849e+001
1.206163e+003,2.002222e+001
1.207128e+003,1.887666e+001
1.208092e+003,1.591548e+001
1.209056e+003,1.517076e+001
1.210020e+003,1.819269e+001
1.210984e+003,1.998790e+001
1.211949e+003,1.832045e+001
1.212913e+003,1.512117e+001
1.213877e+003,1.321419e+001
1.214841e+003,1.274550e+001
1.215806e+003,1.080070e+001
1.216770e+003,4.825943e+000
1.217734e+003,-6.772614e-001
1.218698e+003,-2.478149e+000
1.219663e+003,-2.341812e+000
1.220627e+003,-2.127121e+000
1.221591e+003,-2.356033e+000
1.222555e+003,-2.805038e+000
1.223520e+003,-3.247406e+000
1.224484e+003,-3.692703e+000
1.225448e+003,-4.437195e+000
1.226412e+003,-6.049149e+000
1.227376e+003,-6.637436e+000
1.228341e+003,-5.288437e+000
1.229305e+003,-4.060165e+000
1.230269e+003,-4.280518e+000
1.231233e+003,-5.368347e+000
1.232198e+003,-5.975464e+000
1.233162e+003,-5.681381e+000
1.234126e+003,-5.312103e+000
1.235090e+003,-5.331970e+000
1.236055e+003,-5.881271e+000
1.237019e+003,-7.847900e+000
1.237983e+003,-1.039154e+001
1.238947e+003,-1.083315e+001
1.239911e+003,-8.045456e+000
1.240876e+003,-4.654266e+000
1.241840e+003,-4.904114e+000
1.242804e+003,-9.109146e+000
1.243768e+003,-1.102400e+001
1.244733e+003,-8.392181e+000
1.245697e+003,-6.308258e+000
1.246661e+003,-5.159760e+000
1.247625e+003,-4.864792e+000
1.248590e+003,-6.098938e+000
1.249554e+003,-7.951065e+000
1.250518e+003,-7.861023e+000
1.251482e+003,-4.562439e+000
1.252447e+003,-9.559174e-001
1.253411e+003,-7.017975e-001
1.254375e+003,-2.392792e+000
1.255339e+003,-3.191376e+000
1.256303e+003,-2.924484e+000
1.257268e+003,-2.275101e+000
1.258232e+003,-1.697235e+000
1.259196e+003,-1.143982e+000
1.260160e+003,-2.297058e-001
1.261125e+003,1.271423e+000
1.262089e+003,2.336517e+000
1.263053e+003,2.366959e+000
1.264017e+003,2.315872e+000
1.264982e+003,2.527954e+000
1.265946e+003,2.756592e+000
1.266910e+003,2.426666e+000
1.267874e+003,1.824829e+000
1.268839e+003,2.373566e+000
1.269803e+003,5.067413e+000
1.270767e+003,7.978149e+000
1.271731e+003,6.970398e+000
1.272695e+003,2.213440e+000
1.273660e+003,-9.428406e-001
1.274624e+003,-2.310760e+000
1.275588e+003,-2.706879e+000
1.276552e+003,-1.995560e+000
1.277517e+003,-6.343994e-001
1.278481e+003,6.211395e-001
1.279445e+003,1.760529e+000
1.280409e+003,1.803314e+000
1.281374e+003,-6.822968e-001
1.282338e+003,-2.801361e+000
1.283302e+003,-2.665665e+000
1.284266e+003,-1.651917e+000
1.285230e+003,-1.276627e+000
1.286195e+003,-1.804596e+000
1.287159e+003,-2.720291e+000
1.288123e+003,-3.561050e+000
1.289087e+003,-3.990433e+000
1.290052e+003,-3.073990e+000
1.291016e+003,6.604004e-002
1.291980e+003,8.749542e-001
1.292944e+003,-3.016068e+000
1.293909e+003,-6.158371e+000
1.294873e+003,-5.361603e+000
1.295837e+003,-3.059128e+000
1.296801e+003,-2.972260e+000
1.297766e+003,-5.435684e+000
1.298730e+003,-7.476700e+000
1.299694e+003,-7.457230e+000
1.300658e+003,-6.758713e+000
1.301622e+003,-6.823975e+000
1.302587e+003,-7.234085e+000
1.303551e+003,-7.333099e+000
1.304515e+003,-6.998001e+000
1.305479e+003,-6.738235e+000
1.306444e+003,-7.176437e+000
1.307408e+003,-7.854187e+000
1.308372e+003,-6.676651e+000
1.309336e+003,-2.230743e+000
1.310301e+003,-3.910370e-001
1.311265e+003,-3.931839e+000
1.312229e+003,-6.841705e+000
1.313193e+003,-7.080505e+000
1.314157e+003,-6.077103e+000
1.315122e+003,-4.963699e+000
1.316086e+003,-4.301147e+000
1.317050e+003,-4.875961e+000
1.318014e+003,-7.278702e+000
1.318979e+003,-1.007954e+001
1.319943e+003,-1.072723e+001
1.320907e+003,-9.346771e+000
1.321871e+003,-7.960175e+000
1.322836e+003,-6.786179e+000
1.323800e+003,-5.585297e+000
1.324764e+003,-3.968918e+000
1.325728e+003,-2.336395e+000
1.326693e+003,-1.357849e+000
1.327657e+003,-1.112549e+000
1.328621e+003,-1.676956e+000
1.329585e+003,-3.628082e+000
1.330549e+003,-4.829758e+000
1.331514e+003,-3.908249e+000
1.332478e+003,-2.516312e+000
1.333442e+003,-1.833344e+000
1.334406e+003,-2.084839e+000
1.335371e+003,-3.696793e+000
1.336335e+003,-6.802765e+000
1.337299e+003,-9.552582e+000
1.338263e+003,-8.210892e+000
1.339228e+003,-2.020126e+000
1.340192e+003,1.150162e+000
1.341156e+003,-9.623718e-001
1.342120e+003,-2.532455e+000
1.343084e+003,-2.357620e+000
1.344049e+003,-1.898849e+000
1.345013e+003,-2.515762e+000
1.345977e+003,-3.751328e+000
1.346941e+003,-3.905518e+000
1.347906e+003,-2.302612e+000
1.348870e+003,-8.179474e-001
1.349834e+003,-1.651138e+000
1.350798e+003,-3.448914e+000
1.351763e+003,-3.176163e+000
1.352727e+003,-1.210876e+000
1.353691e+003,-1.126709e-001
1.354655e+003,-9.698944e-001
1.355620e+003,-2.351135e+000
1.356584e+003,-2.430420e+000
1.357548e+003,-1.366180e+000
1.358512e+003,-9.014740e-001
1.359476e+003,-1.274582e+000
1.360441e+003,-2.154861e+000
1.361405e+003,-4.148514e+000
1.362369e+003,-5.755478e+000
1.363333e+003,-6.232040e+000
1.364298e+003,-5.851898e+000
1.365262e+003,-4.889740e+000
1.366226e+003,-3.564056e+000
1.367190e+003,-2.169434e+000
1.368155e+003,-9.569397e-001
1.369119e+003,-2.120972e-003
1.370083e+003,4.907837e-001
1.371047e+003,6.291199e-001
1.372011e+003,-1.650543e-001
1.372976e+003,-3.328568e+000
1.373940e+003,-5.726974e+000
1.374904e+003,-5.558182e+000
1.375868e+003,-4.329147e+000
1.376833e+003,-4.239426e+000
1.377797e+003,-5.251862e+000
1.378761e+003,-5.109482e+000
1.379725e+003,-2.400818e+000
1.380690e+003,3.296967e-001
1.381654e+003,-3.395996e-001
1.382618e+003,-2.182114e+000
1.383582e+003,-1.910767e+000
1.384547e+003,3.872223e-001
1.385511e+003,2.543869e+000
1.386475e+003,3.540421e+000
1.387439e+003,3.476746e+000
1.388403e+003,2.146698e+000
1.389368e+003,-4.536133e-001
1.390332e+003,-2.188477e+000
1.391296e+003,-3.019333e+000
1.392260e+003,-2.725830e+000
1.393225e+003,1.963806e-002
1.394189e+003,2.351135e+000
1.395153e+003,2.240234e+000
1.396117e+003,8.094330e-001
1.397082e+003,-1.249695e-001
1.398046e+003,-3.189087e-003
1.399010e+003,5.311737e-001
1.399974e+003,8.291473e-001
1.400938e+003,9.341278e-001
1.401903e+003,1.380249e+000
1.402867e+003,2.676697e+000
1.403831e+003,3.307098e+000
1.404795e+003,2.746353e+000
1.405760e+003,1.991440e+000
1.406724e+003,8.272095e-001
1.407688e+003,-3.312531e-001
1.408652e+003,-5.131073e-001
1.409617e+003,1.812439e-001
1.410581e+003,2.752380e-001
1.411545e+003,-9.485168e-001
1.412509e+003,-2.180008e+000
1.413474e+003,-1.997040e+000
1.414438e+003,-1.289337e+000
1.415402e+003,-1.450073e+000
1.416366e+003,-2.252151e+000
1.417330e+003,-2.637604e+000
1.418295e+003,-2.142899e+000
1.419259e+003,-1.291534e+000
1.420223e+003,-5.715485e-001
1.421187e+003,-9.886169e-002
1.422152e+003,-4.362488e-001
1.423116e+003,-2.108215e+000
1.424080e+003,-2.463303e+000
1.425044e+003,6.565399e-001
1.426009e+003,3.488235e+000
1.426973e+003,4.224731e+000
1.427937e+003,3.947906e+000
1.428901e+003,4.080475e+000
1.429865e+003,4.763824e+000
1.430830e+003,5.042053e+000
1.431794e+003,4.255417e+000
1.432758e+003,3.140320e+000
1.433722e+003,3.329483e+000
1.434687e+003,5.101288e+000
1.435651e+003,6.661407e+000
1.436615e+003,7.854126e+000
1.437579e+003,8.319595e+000
1.438544e+003,7.892105e+000
1.439508e+003,6.959625e+000
1.440472e+003,5.257004e+000
1.441436e+003,3.561920e+000
1.442401e+003,3.243149e+000
1.443365e+003,4.511810e+000
1.444329e+003,6.358276e+000
1.445293e+003,8.274719e+000
1.446257e+003,9.827347e+000
1.447222e+003,9.889450e+000
1.448186e+003,8.697449e+000
1.449150e+003,7.572952e+000
1.450114e+003,6.621811e+000
1.451079e+003,5.601776e+000
1.452043e+003,3.861572e+000
1.453007e+003,2.500626e+000
1.453971e+003,3.674530e+000
1.454936e+003,6.848480e+000
1.455900e+003,8.025986e+000
1.456864e+003,5.860214e+000
1.457828e+003,3.684677e+000
1.458792e+003,3.183868e+000
1.459757e+003,3.557877e+000
1.460721e+003,4.729706e+000
1.461685e+003,6.124405e+000
1.462649e+003,6.579712e+000
1.463614e+003,5.913498e+000
1.464578e+003,5.203033e+000
1.465542e+003,5.388046e+000
1.466506e+003,6.089203e+000
1.467471e+003,6.356766e+000
1.468435e+003,6.296280e+000
1.469399e+003,5.896118e+000
1.470363e+003,4.134293e+000
1.471328e+003,3.257019e+000
1.472292e+003,3.948563e+000
1.473256e+003,5.252655e+000
1.474220e+003,7.401428e+000
1.475184e+003,9.559357e+000
1.476149e+003,9.909882e+000
1.477113e+003,8.108780e+000
1.478077e+003,6.162247e+000
1.479041e+003,6.110336e+000
1.480006e+003,7.488495e+000
1.480970e+003,8.530411e+000
1.481934e+003,8.915054e+000
1.482898e+003,9.862366e+000
1.483863e+003,1.263251e+001
1.484827e+003,1.408325e+001
1.485791e+003,1.233597e+001
1.486755e+003,1.002187e+001
1.487719e+003,9.417297e+000
1.488684e+003,1.022229e+001
1.489648e+003,1.120154e+001
1.490612e+003,1.199542e+001
1.491576e+003,1.282469e+001
1.492541e+003,1.377968e+001
1.493505e+003,1.490805e+001
1.494469e+003,1.665314e+001
1.495433e+003,1.870648e+001
1.496398e+003,1.956783e+001
1.497362e+003,1.870802e+001
1.498326e+003,1.839000e+001
1.499290e+003,1.938605e+001
1.500255e+003,2.182346e+001
1.501219e+003,2.678856e+001
1.502183e+003,3.356749e+001
1.503147e+003,3.797311e+001
1.504111e+003,3.852188e+001
1.505076e+003,3.959857e+001
1.506040e+003,4.381873e+001
1.507004e+003,4.975417e+001
1.507968e+003,5.635788e+001
1.508933e+003,6.329779e+001
1.509897e+003,6.953067e+001
1.510861e+003,7.518732e+001
1.511825e+003,8.245354e+001
1.512790e+003,9.304034e+001
1.513754e+003,1.054481e+002
1.514718e+003,1.175079e+002
1.515682e+003,1.290793e+002
1.516646e+003,1.382879e+002
1.517611e+003,1.438294e+002
1.518575e+003,1.501179e+002
1.519539e+003,1.608463e+002
1.520503e+003,1.705092e+002
1.521468e+003,1.763216e+002
1.522432e+003,1.790795e+002
1.523396e+003,1.799496e+002
1.524360e+003,1.792719e+002
1.525325e+003,1.770294e+002
1.526289e+003,1.732498e+002
1.527253e+003,1.680596e+002
1.528217e+003,1.615522e+002
1.529182e+003,1.538273e+002
1.530146e+003,1.452992e+002
1.531110e+003,1.358181e+002
1.532074e+003,1.254877e+002
1.533039e+003,1.142906e+002
1.534003e+003,1.018663e+002
1.534967e+003,8.623724e+001
1.535931e+003,7.104742e+001
1.536896e+003,6.080318e+001
1.537860e+003,5.506264e+001
1.538824e+003,5.001405e+001
1.539788e+003,4.362759e+001
1.540752e+003,3.724269e+001
1.541717e+003,3.266348e+001
1.542681e+003,2.975948e+001
1.543645e+003,2.717134e+001
1.544609e+003,2.521468e+001
1.545573e+003,2.310265e+001
1.546538e+003,2.014828e+001
1.547502e+003,1.761136e+001
1.548466e+003,1.616914e+001
1.549430e+003,1.546194e+001
1.550395e+003,1.510211e+001
1.551359e+003,1.497113e+001
1.552323e+003,1.522189e+001
1.553287e+003,1.586853e+001
1.554252e+003,1.626588e+001
1.555216e+003,1.584312e+001
1.556180e+003,1.474036e+001
1.557144e+003,1.306783e+001
1.558109e+003,1.085689e+001
1.559073e+003,9.653290e+000
1.560037e+003,9.792801e+000
1.561001e+003,9.938019e+000
1.561966e+003,9.507248e+000
1.562930e+003,9.334396e+000
1.563894e+003,1.075345e+001
1.564858e+003,1.277228e+001
1.565823e+003,1.256522e+001
1.566787e+003,9.752396e+000
1.567751e+003,7.746078e+000
1.568715e+003,8.712448e+000
1.569679e+003,1.063991e+001
1.570644e+003,1.098618e+001
1.571608e+003,1.018155e+001
1.572572e+003,9.596970e+000
1.573536e+003,9.328918e+000
1.574500e+003,9.794250e+000
1.575465e+003,1.163969e+001
1.576429e+003,1.336380e+001
1.577393e+003,1.356787e+001
1.578357e+003,1.280313e+001
1.579322e+003,1.204863e+001
1.580286e+003,1.145763e+001
1.581250e+003,1.144904e+001
1.582214e+003,1.233839e+001
1.583179e+003,1.307671e+001
1.584143e+003,1.248424e+001
1.585107e+003,1.158253e+001
1.586071e+003,1.243495e+001
1.587036e+003,1.433192e+001
1.588000e+003,1.428325e+001
1.588964e+003,1.141637e+001
1.589928e+003,9.040314e+000
1.590893e+003,9.737686e+000
1.591857e+003,1.180899e+001
1.592821e+003,1.249008e+001
1.593785e+003,1.218546e+001
1.594750e+003,1.356615e+001
1.595714e+003,1.736900e+001
1.596678e+003,1.968509e+001
1.597642e+003,1.784718e+001
1.598606e+003,1.571806e+001
1.599571e+003,1.684326e+001
1.600535e+003,1.931940e+001
1.601499e+003,2.081892e+001
1.602463e+003,2.118962e+001
1.603427e+003,2.111023e+001
1.604392e+003,2.084741e+001
1.605356e+003,2.035965e+001
1.606320e+003,1.921880e+001
1.607284e+003,1.795157e+001
1.608249e+003,1.851768e+001
1.609213e+003,2.102277e+001
1.610177e+003,2.178674e+001
1.611141e+003,1.950468e+001
1.612106e+003,1.721277e+001
1.613070e+003,1.618655e+001
1.614034e+003,1.585628e+001
1.614998e+003,1.608183e+001
1.615963e+003,1.663643e+001
1.616927e+003,1.719928e+001
1.617891e+003,1.767520e+001
1.618855e+003,1.813556e+001
1.619820e+003,1.866199e+001
1.620784e+003,1.865837e+001
1.621748e+003,1.683902e+001
1.622712e+003,1.388071e+001
1.623677e+003,1.352800e+001
1.624641e+003,1.642216e+001
1.625605e+003,1.832040e+001
1.626569e+003,1.755162e+001
1.627533e+003,1.640079e+001
1.628498e+003,1.581853e+001
1.629462e+003,1.572787e+001
1.630426e+003,1.602452e+001
1.631390e+003,1.671986e+001
1.632354e+003,1.813255e+001
1.633319e+003,2.019299e+001
1.634283e+003,2.183052e+001
1.635247e+003,2.222746e+001
1.636211e+003,2.177020e+001
1.637176e+003,2.098552e+001
1.638140e+003,1.997890e+001
1.639104e+003,1.975986e+001
1.640068e+003,2.068588e+001
1.641033e+003,2.090227e+001
1.641997e+003,1.954922e+001
1.642961e+003,1.807706e+001
1.643925e+003,1.690939e+001
1.644890e+003,1.618297e+001
1.645854e+003,1.617595e+001
1.646818e+003,1.666190e+001
1.647782e+003,1.725769e+001
1.648747e+003,1.777824e+001
1.649711e+003,1.776028e+001
1.650675e+003,1.672169e+001
1.651639e+003,1.534154e+001
1.652604e+003,1.485326e+001
1.653568e+003,1.518091e+001
1.654532e+003,1.608542e+001
1.655496e+003,1.799313e+001
1.656460e+003,1.889383e+001
1.657425e+003,1.767197e+001
1.658389e+003,1.611356e+001
1.659353e+003,1.482457e+001
1.660317e+003,1.396451e+001
1.661281e+003,1.365028e+001
1.662246e+003,1.387633e+001
1.663210e+003,1.499063e+001
1.664174e+003,1.706242e+001
1.665138e+003,1.846103e+001
1.666103e+003,1.761595e+001
1.667067e+003,1.540341e+001
1.668031e+003,1.335802e+001
1.668995e+003,1.156171e+001
1.669960e+003,1.086131e+001
1.670924e+003,1.162250e+001
1.671888e+003,1.233817e+001
1.672852e+003,1.250922e+001
1.673817e+003,1.246516e+001
1.674781e+003,1.257306e+001
1.675745e+003,1.246851e+001
1.676709e+003,1.143504e+001
1.677674e+003,9.832321e+000
1.678638e+003,8.800629e+000
1.679602e+003,8.702972e+000
1.680566e+003,9.115738e+000
1.681531e+003,1.005824e+001
1.682495e+003,1.099019e+001
1.683459e+003,1.070993e+001
1.684423e+003,9.370544e+000
1.685387e+003,8.237778e+000
1.686352e+003,7.409286e+000
1.687316e+003,7.265503e+000
1.688280e+003,8.425812e+000
1.689244e+003,9.344116e+000
1.690208e+003,8.062836e+000
1.691173e+003,6.441437e+000
1.692137e+003,7.141861e+000
1.693101e+003,9.387756e+000
1.694065e+003,9.973206e+000
1.695030e+003,7.968872e+000
1.695994e+003,6.117233e+000
1.696958e+003,6.471542e+000
1.697922e+003,7.503571e+000
1.698887e+003,7.259354e+000
1.699851e+003,6.157486e+000
1.700815e+003,5.329071e+000
1.701779e+003,4.833221e+000
1.702744e+003,4.519669e+000
1.703708e+003,4.453659e+000
1.704672e+003,4.575134e+000
1.705636e+003,4.776886e+000
1.706601e+003,4.930969e+000
1.707565e+003,5.090744e+000
1.708529e+003,5.251999e+000
1.709493e+003,5.140167e+000
1.710458e+003,4.691101e+000
1.711422e+003,4.129044e+000
1.712386e+003,3.478943e+000
1.713350e+003,2.982224e+000
1.714314e+003,2.484680e+000
1.715279e+003,2.278030e+000
1.716243e+003,3.452881e+000
1.717207e+003,5.585526e+000
1.718171e+003,6.387085e+000
1.719135e+003,5.251358e+000
1.720100e+003,3.385208e+000
1.721064e+003,1.264557e+000
1.722028e+003,-3.839111e-001
1.722992e+003,-1.289673e-001
1.723957e+003,1.689377e+000
1.724921e+003,2.394135e+000
1.725885e+003,1.577927e+000
1.726849e+003,1.272995e+000
1.727814e+003,2.454819e+000
1.728778e+003,3.657623e+000
1.729742e+003,4.424469e+000
1.730706e+003,4.711533e+000
1.731671e+003,4.293854e+000
1.732635e+003,3.256134e+000
1.733599e+003,1.637039e+000
1.734563e+003,-1.903839e-001
1.735528e+003,-8.446655e-001
1.736492e+003,3.428192e-001
1.737456e+003,1.532669e+000
1.738420e+003,4.034119e-001
1.739385e+003,-2.190567e+000
1.740349e+003,-2.734283e+000
1.741313e+003,-5.851898e-001
1.742277e+003,7.119293e-001
1.743241e+003,6.192322e-001
1.744206e+003,7.351074e-001
1.745170e+003,1.743607e+000
1.746134e+003,2.338394e+000
1.747098e+003,1.326889e+000
1.748063e+003,-1.507721e-001
1.749027e+003,-7.053680e-001
1.749991e+003,-4.604187e-001
1.750955e+003,-4.225922e-001
1.751919e+003,-8.751831e-001
1.752884e+003,-9.432526e-001
1.753848e+003,1.185760e-001
1.754812e+003,1.477585e+000
1.755776e+003,1.477081e+000
1.756741e+003,2.431030e-001
1.757705e+003,-8.882294e-001
1.758669e+003,-2.121490e+000
1.759633e+003,-2.859299e+000
1.760598e+003,-2.681259e+000
1.761562e+003,-2.649216e+000
1.762526e+003,-3.491333e+000
1.763490e+003,-3.998337e+000
1.764455e+003,-2.890823e+000
1.765419e+003,-1.066818e+000
1.766383e+003,7.879639e-002
1.767347e+003,2.946320e-001
1.768312e+003,-1.170807e-001
1.769276e+003,-1.057724e+000
1.770240e+003,-1.877029e+000
1.771204e+003,-1.467133e+000
1.772168e+003,-5.982056e-001
1.773133e+003,-1.712814e+000
1.774097e+003,-4.498047e+000
1.775061e+003,-5.618698e+000
1.776025e+003,-4.688324e+000
1.776990e+003,-3.179626e+000
1.777954e+003,-1.012314e+000
1.778918e+003,6.878815e-001
1.779882e+003,7.757111e-001
1.780846e+003,2.221680e-002
1.781811e+003,-5.386200e-001
1.782775e+003,-9.051208e-001
1.783739e+003,-1.188995e+000
1.784703e+003,-1.389145e+000
1.785668e+003,-1.320129e+000
1.786632e+003,-7.009583e-001
1.787596e+003,-2.931976e-001
1.788560e+003,-5.936127e-001
1.789525e+003,-1.237183e+000
1.790489e+003,-2.257156e+000
1.791453e+003,-3.273834e+000
1.792417e+003,-2.692795e+000
1.793382e+003,-4.442749e-001
1.794346e+003,7.275848e-001
1.795310e+003,-7.103424e-001
1.796274e+003,-2.985367e+000
1.797239e+003,-4.101395e+000
1.798203e+003,-4.193726e+000
1.799167e+003,-4.053268e+000
1.800131e+003,-3.937042e+000
1.801095e+003,-3.124054e+000
1.802060e+003,-4.564819e-001
1.803024e+003,1.342529e+000
1.803988e+003,1.352219e+000
1.804952e+003,1.127335e+000
1.805917e+003,1.651108e+000
1.806881e+003,2.076904e+000
1.807845e+003,1.476166e+000
1.808809e+003,1.401367e-001
1.809773e+003,-1.430557e+000
1.810738e+003,-2.922531e+000
1.811702e+003,-3.982101e+000
1.812666e+003,-4.382263e+000
1.813630e+003,-3.736496e+000
1.814595e+003,-1.190231e+000
1.815559e+003,2.377228e+000
1.816523e+003,3.169296e+000
1.817487e+003,9.143219e-001
1.818452e+003,-8.867645e-001
1.819416e+003,-2.139236e+000
1.820380e+003,-2.393845e+000
1.821344e+003,-5.529327e-001
1.822309e+003,7.271729e-001
1.823273e+003,-7.915955e-001
1.824237e+003,-2.934525e+000
1.825201e+003,-3.651794e+000
1.826166e+003,-3.201447e+000
1.827130e+003,-2.370865e+000
1.828094e+003,-1.358536e+000
1.829058e+003,-5.070953e-001
1.830022e+003,2.075500e-001
1.830987e+003,4.652863e-001
1.831951e+003,-2.037811e-001
1.832915e+003,-1.337296e+000
1.833879e+003,-2.542114e+000
1.834844e+003,-3.593582e+000
1.835808e+003,-3.899719e+000
1.836772e+003,-3.400772e+000
1.837736e+003,-2.483322e+000
1.838700e+003,-1.332642e+000
1.839665e+003,-4.647827e-001
1.840629e+003,-3.279266e-001
1.841593e+003,-7.033539e-001
1.842557e+003,-1.268494e+000
1.843522e+003,-2.019897e+000
1.844486e+003,-2.366272e+000
1.845450e+003,-1.914795e+000
1.846414e+003,-1.579834e+000
1.847379e+003,-1.166122e+000
1.848343e+003,-1.443451e+000
1.849307e+003,-3.954315e+000
1.850271e+003,-5.757523e+000
1.851236e+003,-3.600464e+000
1.852200e+003,-5.874634e-002
1.853164e+003,8.188477e-001
1.854128e+003,-7.568817e-001
1.855093e+003,-1.727783e+000
1.856057e+003,-9.107513e-001
1.857021e+003,6.292725e-002
1.857985e+003,-2.402191e-001
1.858949e+003,-1.111404e+000
1.859914e+003,-1.246460e+000
1.860878e+003,-7.891083e-001
1.861842e+003,-8.025665e-001
1.862806e+003,-1.342331e+000
1.863771e+003,-1.428604e+000
1.864735e+003,-8.615417e-001
1.865699e+003,-1.600494e-001
1.866663e+003,6.956940e-001
1.867627e+003,1.308441e+000
1.868592e+003,1.031158e+000
1.869556e+003,2.950745e-001
1.870520e+003,3.627777e-001
1.871484e+003,9.787292e-001
1.872449e+003,1.432800e-001
1.873413e+003,-2.933807e+000
1.874377e+003,-4.148758e+000
1.875341e+003,-9.173126e-001
1.876306e+003,2.177856e+000
1.877270e+003,2.532135e+000
1.878234e+003,1.686829e+000
1.879198e+003,7.374725e-001
1.880163e+003,1.007080e-001
1.881127e+003,5.447388e-001
1.882091e+003,1.777512e+000
1.883055e+003,2.387009e+000
1.884020e+003,1.797119e+000
1.884984e+003,6.723022e-001
1.885948e+003,-4.025726e-001
1.886912e+003,-1.284012e+000
1.887876e+003,-1.671707e+000
1.888841e+003,-1.571625e+000
1.889805e+003,-1.062836e+000
1.890769e+003,1.295471e-002
1.891733e+003,6.151581e-001
1.892698e+003,3.986359e-001
1.893662e+003,1.363983e-001
1.894626e+003,1.407013e-001
1.895590e+003,1.697235e-001
1.896554e+003,-1.597137e-001
1.897519e+003,-3.166199e-001
1.898483e+003,7.778625e-001
1.899447e+003,2.455627e+000
1.900411e+003,2.350204e+000
1.901376e+003,-3.198242e-002
1.902340e+003,-1.542465e+000
1.903304e+003,-3.643341e-001
1.904268e+003,9.230804e-001
1.905233e+003,6.378937e-001
1.906197e+003,-1.198578e-001
1.907161e+003,-4.112396e-001
1.908125e+003,-2.005615e-001
1.909090e+003,4.882965e-001
1.910054e+003,1.477036e+000
1.911018e+003,2.508453e+000
1.911982e+003,3.481857e+000
1.912947e+003,4.160355e+000
1.913911e+003,4.347763e+000
1.914875e+003,4.213089e+000
1.915839e+003,3.938004e+000
1.916803e+003,3.560471e+000
1.917768e+003,3.759369e+000
1.918732e+003,4.806335e+000
1.919696e+003,4.979019e+000
1.920660e+003,3.849533e+000
1.921625e+003,3.158096e+000
1.922589e+003,3.304504e+000
1.923553e+003,3.777328e+000
1.924517e+003,4.864914e+000
1.925481e+003,5.692688e+000
1.926446e+003,5.313461e+000
1.927410e+003,4.195374e+000
1.928374e+003,3.118683e+000
1.929338e+003,2.132202e+000
1.930303e+003,1.391647e+000
1.931267e+003,1.100266e+000
1.932231e+003,9.684143e-001
1.933195e+003,7.344208e-001
1.934160e+003,5.729370e-001
1.935124e+003,3.870239e-001
1.936088e+003,4.737396e-001
1.937052e+003,1.738556e+000
1.938017e+003,3.509735e+000
1.938981e+003,3.991302e+000
1.939945e+003,3.176880e+000
1.940909e+003,2.778290e+000
1.941874e+003,3.503723e+000
1.942838e+003,4.215073e+000
1.943802e+003,3.916397e+000
1.944766e+003,3.153427e+000
1.945730e+003,2.899384e+000
1.946695e+003,2.978729e+000
1.947659e+003,2.255463e+000
1.948623e+003,5.550537e-001
1.949587e+003,-2.081909e-001
1.950552e+003,3.130798e-001
1.951516e+003,1.435822e+000
1.952480e+003,3.296173e+000
1.953444e+003,4.922150e+000
1.954408e+003,5.445328e+000
1.955373e+003,5.445709e+000
1.956337e+003,6.237793e+000
1.957301e+003,7.357819e+000
1.958265e+003,6.378708e+000
1.959230e+003,2.835587e+000
1.960194e+003,9.099121e-001
1.961158e+003,2.319870e+000
1.962122e+003,3.337189e+000
1.963087e+003,2.071655e+000
1.964051e+003,1.365753e+000
1.965015e+003,3.974854e+000
1.965979e+003,7.100693e+000
1.966944e+003,7.611664e+000
1.967908e+003,6.359756e+000
1.968872e+003,5.372910e+000
1.969836e+003,5.070435e+000
1.970801e+003,4.999832e+000
1.971765e+003,4.929520e+000
1.972729e+003,4.491928e+000
1.973693e+003,3.105286e+000
1.974657e+003,1.953400e+000
1.975622e+003,3.166367e+000
1.976586e+003,5.824066e+000
1.977550e+003,7.680267e+000
1.978514e+003,8.756683e+000
1.979479e+003,9.306305e+000
1.980443e+003,9.381912e+000
1.981407e+003,9.505402e+000
1.982371e+003,9.920319e+000
1.983335e+003,1.019463e+001
1.984300e+003,9.986282e+000
1.985264e+003,9.178787e+000
1.986228e+003,7.508621e+000
1.987192e+003,5.305328e+000
1.988157e+003,4.373795e+000
1.989121e+003,5.112106e+000
1.990085e+003,5.238190e+000
1.991049e+003,4.293488e+000
1.992014e+003,3.763702e+000
1.992978e+003,3.672913e+000
1.993942e+003,4.138443e+000
1.994906e+003,5.826614e+000
1.995871e+003,7.443466e+000
1.996835e+003,7.891541e+000
1.997799e+003,7.810303e+000
1.998763e+003,8.067947e+000
1.999728e+003,8.642044e+000
