5.003444e+002,2.102703e+002
5.013087e+002,2.086499e+002
5.022729e+002,2.098706e+002
5.032371e+002,2.126644e+002
5.042014e+002,2.099923e+002
5.051656e+002,2.028640e+002
5.061298e+002,1.950708e+002
5.070941e+002,1.897821e+002
5.080583e+002,1.870067e+002
5.090225e+002,1.849160e+002
5.099868e+002,1.844767e+002
5.109510e+002,1.834803e+002
5.119152e+002,1.803060e+002
5.128795e+002,1.747540e+002
5.138437e+002,1.704835e+002
5.148079e+002,1.694287e+002
5.157722e+002,1.695701e+002
5.167364e+002,1.706482e+002
5.177006e+002,1.719591e+002
5.186649e+002,1.722468e+002
5.196291e+002,1.698813e+002
5.205933e+002,1.670464e+002
5.215576e+002,1.651283e+002
5.225218e+002,1.637908e+002
5.234860e+002,1.623782e+002
5.244503e+002,1.604359e+002
5.254145e+002,1.587175e+002
5.263787e+002,1.567789e+002
5.273430e+002,1.543903e+002
5.283072e+002,1.519353e+002
5.292714e+002,1.498402e+002
5.302357e+002,1.477767e+002
5.311999e+002,1.444337e+002
5.321641e+002,1.398101e+002
5.331284e+002,1.355217e+002
5.340926e+002,1.325656e+002
5.350568e+002,1.310165e+002
5.360211e+002,1.293925e+002
5.369853e+002,1.276415e+002
5.379495e+002,1.257931e+002
5.389138e+002,1.232489e+002
5.398780e+002,1.198140e+002
5.408422e+002,1.160129e+002
5.418065e+002,1.135591e+002
5.427707e+002,1.123148e+002
5.437349e+002,1.119990e+002
5.446992e+002,1.131000e+002
5.456634e+002,1.145541e+002
5.466276e+002,1.127583e+002
5.475919e+002,1.026149e+002
5.485561e+002,9.605188e+001
5.495203e+002,9.512952e+001
5.504846e+002,9.694189e+001
5.514488e+002,9.756348e+001
5.524130e+002,9.562939e+001
5.533773e+002,9.353137e+001
5.543415e+002,9.305823e+001
5.553057e+002,9.289807e+001
5.562700e+002,9.120190e+001
5.572342e+002,8.677722e+001
5.581984e+002,8.126367e+001
5.591627e+002,7.948804e+001
5.601269e+002,8.044653e+001
5.610911e+002,8.158557e+001
5.620554e+002,8.143933e+001
5.630196e+002,7.987305e+001
5.639838e+002,7.784265e+001
5.649481e+002,7.566455e+001
5.659123e+002,7.267407e+001
5.668765e+002,6.828552e+001
5.678408e+002,6.380298e+001
5.688050e+002,6.210645e+001
5.697692e+002,6.526917e+001
5.707335e+002,6.755872e+001
5.716977e+002,6.753442e+001
5.726619e+002,6.605566e+001
5.736262e+002,6.444263e+001
5.745904e+002,6.372864e+001
5.755546e+002,6.310596e+001
5.765189e+002,5.986279e+001
5.774831e+002,5.504077e+001
5.784473e+002,5.172784e+001
5.794116e+002,5.227667e+001
5.803758e+002,5.645557e+001
5.813400e+002,5.548181e+001
5.823043e+002,4.647247e+001
5.832685e+002,3.895508e+001
5.842327e+002,3.798267e+001
5.851970e+002,4.276349e+001
5.861612e+002,4.544238e+001
5.871254e+002,4.093188e+001
5.880897e+002,3.785016e+001
5.890539e+002,3.844189e+001
5.900181e+002,4.108948e+001
5.909824e+002,4.320343e+001
5.919466e+002,4.353564e+001
5.929108e+002,4.253931e+001
5.938751e+002,4.066302e+001
5.948393e+002,3.822418e+001
5.958035e+002,3.555676e+001
5.967678e+002,3.300818e+001
5.977320e+002,3.101910e+001
5.986962e+002,3.176550e+001
5.996605e+002,3.461523e+001
6.006247e+002,3.666058e+001
6.015889e+002,3.663538e+001
6.025532e+002,3.470044e+001
6.035174e+002,3.227203e+001
6.044816e+002,2.832800e+001
6.054459e+002,2.522778e+001
6.064101e+002,2.311847e+001
6.073743e+002,2.205872e+001
6.083386e+002,2.237671e+001
6.093028e+002,2.512775e+001
6.102670e+002,2.793402e+001
6.112313e+002,2.874207e+001
6.121955e+002,2.835156e+001
6.131597e+002,2.775751e+001
6.141240e+002,2.762756e+001
6.150882e+002,2.775342e+001
6.160524e+002,2.747626e+001
6.170167e+002,2.716235e+001
6.179809e+002,2.765784e+001
6.189451e+002,2.964154e+001
6.199094e+002,3.233252e+001
6.208736e+002,3.193286e+001
6.218378e+002,2.409320e+001
6.228021e+002,1.939502e+001
6.237663e+002,2.102832e+001
6.247305e+002,2.597650e+001
6.256948e+002,2.886676e+001
6.266590e+002,2.620691e+001
6.276232e+002,2.310327e+001
6.285875e+002,2.376520e+001
6.295517e+002,2.610266e+001
6.305159e+002,2.811877e+001
6.314802e+002,2.844586e+001
6.324444e+002,2.684290e+001
6.334086e+002,2.168433e+001
6.343729e+002,1.481488e+001
6.353371e+002,1.035425e+001
6.363013e+002,9.754211e+000
6.372656e+002,1.206830e+001
6.382298e+002,1.451843e+001
6.391940e+002,1.946045e+001
6.401583e+002,2.045819e+001
6.411225e+002,1.549213e+001
6.420867e+002,8.822998e+000
6.430510e+002,5.126648e+000
6.440152e+002,5.744690e+000
6.449794e+002,6.729126e+000
6.459437e+002,6.921143e+000
6.469079e+002,6.042786e+000
6.478721e+002,3.190369e+000
6.488364e+002,-1.392944e+000
6.498006e+002,-5.506165e+000
6.507648e+002,-4.539246e+000
6.517291e+002,-6.207275e-001
6.526933e+002,1.645264e+000
6.536575e+002,1.346863e+000
6.546218e+002,-8.681030e-001
6.555860e+002,-3.894043e+000
6.565502e+002,-9.195313e+000
6.575145e+002,-1.196960e+001
6.584787e+002,-1.174365e+001
6.594429e+002,-9.702759e+000
6.604072e+002,-6.122925e+000
6.613714e+002,-7.593994e-001
6.623356e+002,3.750977e+000
6.632999e+002,5.665955e+000
6.642641e+002,6.117432e+000
6.652283e+002,6.253845e+000
6.661926e+002,6.185303e+000
6.671568e+002,4.793091e+000
6.681210e+002,-4.539185e-001
6.690853e+002,-7.659302e+000
6.700495e+002,-1.116571e+001
6.710137e+002,-1.095789e+001
6.719780e+002,-8.951050e+000
6.729422e+002,-7.171448e+000
6.739064e+002,-5.885986e+000
6.748707e+002,-4.589294e+000
6.758349e+002,-2.146118e+000
6.767991e+002,-1.154053e+000
6.777634e+002,-3.490540e+000
6.787276e+002,-8.105591e+000
6.796918e+002,-1.004089e+001
6.806561e+002,-5.518372e+000
6.816203e+002,-1.096985e+000
6.825845e+002,6.367188e-001
6.835488e+002,5.596924e-001
6.845130e+002,6.798096e-001
6.854772e+002,2.718933e+000
6.864415e+002,5.462097e+000
6.874057e+002,4.758484e+000
6.883699e+002,1.215271e+000
6.893342e+002,-2.335266e+000
6.902984e+002,-4.176514e+000
6.912626e+002,-4.321045e+000
6.922269e+002,-4.104553e+000
6.931911e+002,-2.264954e+000
6.941553e+002,-1.207275e-001
6.951196e+002,1.896423e+000
6.960838e+002,3.286133e+000
6.970480e+002,3.596863e+000
6.980123e+002,2.610901e+000
6.989765e+002,1.618835e+000
6.999407e+002,4.868164e-001
7.009050e+002,-1.948242e-001
7.018692e+002,6.844482e-001
7.028334e+002,3.077515e+000
7.037977e+002,4.921448e+000
7.047619e+002,2.317139e+000
7.057261e+002,-2.333191e+000
7.066904e+002,-5.005188e+000
7.076546e+002,-5.085083e+000
7.086188e+002,-3.641052e+000
7.095831e+002,-2.289795e+000
7.105473e+002,-1.257996e+000
7.115115e+002,-6.861572e-001
7.124758e+002,-4.512329e-001
7.134400e+002,-1.018066e+000
7.144042e+002,-2.840576e+000
7.153685e+002,-5.647217e+000
7.163327e+002,-7.748962e+000
7.172969e+002,-8.355652e+000
7.182612e+002,-7.846985e+000
7.192254e+002,-5.232178e+000
7.201896e+002,-1.955322e+000
7.211539e+002,-7.462769e-001
7.221181e+002,-4.112305e+000
7.230823e+002,-9.793335e+000
7.240466e+002,-1.181805e+001
7.250108e+002,-1.037866e+001
7.259750e+002,-6.966797e+000
7.269393e+002,-2.506775e+000
7.279035e+002,1.996033e+000
7.288677e+002,3.057312e+000
7.298320e+002,-1.857727e+000
7.307962e+002,-4.853882e+000
7.317604e+002,-4.765381e+000
7.327247e+002,-2.604736e+000
7.336889e+002,2.315674e-001
7.346531e+002,3.200378e+000
7.356174e+002,3.764954e+000
7.365816e+002,7.696533e-002
7.375458e+002,-3.812500e+000
7.385101e+002,-4.551331e+000
7.394743e+002,-1.577698e+000
7.404385e+002,2.829651e+000
7.414028e+002,5.524353e+000
7.423670e+002,5.050903e+000
7.433312e+002,5.579834e-001
7.442955e+002,-7.714783e+000
7.452597e+002,-1.472583e+001
7.462239e+002,-1.478241e+001
7.471882e+002,-6.190125e+000
7.481524e+002,1.171509e+000
7.491166e+002,8.318604e+000
7.500809e+002,1.184094e+001
7.510451e+002,8.396973e+000
7.520093e+002,-6.982422e-002
7.529736e+002,-6.809937e+000
7.539378e+002,-7.245789e+000
7.549020e+002,-5.791199e+000
7.558663e+002,-5.755615e+000
7.568306e+002,-6.037231e+000
7.577948e+002,-4.681396e+000
7.587590e+002,-8.624878e-001
7.597233e+002,3.498962e+000
7.606875e+002,3.031555e+000
7.616517e+002,-1.197693e+000
7.626160e+002,-4.166199e+000
7.635802e+002,-4.393188e+000
7.645444e+002,-2.673889e+000
7.655087e+002,-6.729126e-001
7.664729e+002,1.742371e+000
7.674371e+002,3.707642e+000
7.684014e+002,4.680908e+000
7.693656e+002,5.599915e+000
7.703298e+002,7.616028e+000
7.712941e+002,1.070227e+001
7.722583e+002,1.290741e+001
7.732225e+002,1.188837e+001
7.741868e+002,1.013751e+001
7.751510e+002,9.310181e+000
7.761152e+002,9.519348e+000
7.770795e+002,1.045251e+001
7.780437e+002,1.176569e+001
7.790079e+002,1.329968e+001
7.799722e+002,1.540192e+001
7.809364e+002,1.823181e+001
7.819006e+002,2.026166e+001
7.828649e+002,2.129004e+001
7.838291e+002,2.167432e+001
7.847933e+002,2.157068e+001
7.857576e+002,1.972961e+001
7.867218e+002,1.775262e+001
7.876860e+002,1.675214e+001
7.886503e+002,1.625018e+001
7.896145e+002,1.556775e+001
7.905787e+002,1.459320e+001
7.915430e+002,1.427740e+001
7.925072e+002,1.591730e+001
7.934714e+002,1.763458e+001
7.944357e+002,1.794202e+001
7.953999e+002,1.721454e+001
7.963641e+002,1.647949e+001
7.973284e+002,1.663531e+001
7.982926e+002,1.770129e+001
7.992568e+002,1.985248e+001
8.002211e+002,2.309949e+001
8.011853e+002,2.463202e+001
8.021495e+002,2.345807e+001
8.031138e+002,2.124225e+001
8.040780e+002,2.169647e+001
8.050422e+002,2.732501e+001
8.060065e+002,3.070251e+001
8.069707e+002,2.730817e+001
8.079349e+002,2.144775e+001
8.088992e+002,1.722827e+001
8.098634e+002,1.646893e+001
8.108276e+002,1.837573e+001
8.117919e+002,2.300299e+001
8.127561e+002,2.754309e+001
8.137203e+002,2.781799e+001
8.146846e+002,2.400824e+001
8.156488e+002,1.889221e+001
8.166130e+002,1.529565e+001
8.175773e+002,1.305652e+001
8.185415e+002,1.239264e+001
8.195057e+002,1.317090e+001
8.204700e+002,1.425232e+001
8.214342e+002,1.526770e+001
8.223984e+002,1.633801e+001
8.233627e+002,1.808698e+001
8.243269e+002,2.180170e+001
8.252911e+002,2.441986e+001
8.262554e+002,2.342267e+001
8.272196e+002,2.106360e+001
8.281838e+002,1.931085e+001
8.291481e+002,1.901544e+001
8.301123e+002,2.006543e+001
8.310765e+002,2.299054e+001
8.320408e+002,2.702814e+001
8.330050e+002,2.623206e+001
8.339692e+002,1.889252e+001
8.349335e+002,1.151019e+001
8.358977e+002,1.199609e+001
8.368619e+002,2.224707e+001
8.378262e+002,2.867712e+001
8.387904e+002,2.791669e+001
8.397546e+002,2.577136e+001
8.407189e+002,2.209155e+001
8.416831e+002,1.844324e+001
8.426473e+002,1.722510e+001
8.436116e+002,1.984552e+001
8.445758e+002,2.411298e+001
8.455400e+002,2.781519e+001
8.465043e+002,3.043945e+001
8.474685e+002,3.184406e+001
8.484327e+002,3.254694e+001
8.493970e+002,3.349927e+001
8.503612e+002,3.562750e+001
8.513254e+002,3.899304e+001
8.522897e+002,4.089899e+001
8.532539e+002,4.081390e+001
8.542181e+002,3.947839e+001
8.551824e+002,3.659766e+001
8.561466e+002,3.325397e+001
8.571108e+002,3.406537e+001
8.580751e+002,4.210840e+001
8.590393e+002,4.891919e+001
8.600035e+002,5.264343e+001
8.609678e+002,5.435028e+001
8.619320e+002,5.456555e+001
8.628962e+002,5.367072e+001
8.638605e+002,5.313092e+001
8.648247e+002,5.582233e+001
8.657889e+002,6.037073e+001
8.667532e+002,6.420447e+001
8.677174e+002,6.697607e+001
8.686816e+002,6.919586e+001
8.696459e+002,7.162366e+001
8.706101e+002,7.466821e+001
8.715743e+002,7.703937e+001
8.725386e+002,7.797137e+001
8.735028e+002,7.939148e+001
8.744670e+002,8.163452e+001
8.754313e+002,8.389948e+001
8.763955e+002,8.480835e+001
8.773597e+002,8.349292e+001
8.783240e+002,8.352863e+001
8.792882e+002,8.851184e+001
8.802524e+002,9.467126e+001
8.812167e+002,9.931915e+001
8.821809e+002,1.016239e+002
8.831451e+002,1.016418e+002
8.841094e+002,9.919843e+001
8.850736e+002,9.512842e+001
8.860378e+002,9.689355e+001
8.870021e+002,1.054797e+002
8.879663e+002,1.141186e+002
8.889305e+002,1.193275e+002
8.898948e+002,1.212313e+002
8.908590e+002,1.210762e+002
8.918232e+002,1.172773e+002
8.927875e+002,1.151855e+002
8.937517e+002,1.162775e+002
8.947159e+002,1.190571e+002
8.956802e+002,1.222036e+002
8.966444e+002,1.249819e+002
8.976086e+002,1.272609e+002
8.985729e+002,1.294407e+002
8.995371e+002,1.317855e+002
9.005013e+002,1.338358e+002
9.014656e+002,1.359777e+002
9.024298e+002,1.392260e+002
9.033940e+002,1.442806e+002
9.043583e+002,1.500400e+002
9.053225e+002,1.513857e+002
9.062867e+002,1.408677e+002
9.072510e+002,1.348329e+002
9.082152e+002,1.378333e+002
9.091794e+002,1.440107e+002
9.101437e+002,1.473748e+002
9.111079e+002,1.469036e+002
9.120721e+002,1.463255e+002
9.130364e+002,1.482239e+002
9.140006e+002,1.491558e+002
9.149648e+002,1.465743e+002
9.159291e+002,1.422572e+002
9.168933e+002,1.395508e+002
9.178575e+002,1.405012e+002
9.188218e+002,1.435143e+002
9.197860e+002,1.440321e+002
9.207502e+002,1.417632e+002
9.217145e+002,1.394432e+002
9.226787e+002,1.381365e+002
9.236429e+002,1.378191e+002
9.246072e+002,1.384260e+002
9.255714e+002,1.400791e+002
9.265356e+002,1.396058e+002
9.274999e+002,1.339664e+002
9.284641e+002,1.283839e+002
9.294283e+002,1.247913e+002
9.303926e+002,1.229554e+002
9.313568e+002,1.222085e+002
9.323210e+002,1.222698e+002
9.332853e+002,1.219643e+002
9.342495e+002,1.182387e+002
9.352137e+002,1.129795e+002
9.361780e+002,1.099835e+002
9.371422e+002,1.104434e+002
9.381064e+002,1.121649e+002
9.390707e+002,1.113710e+002
9.400349e+002,1.065506e+002
9.409991e+002,1.055048e+002
9.419634e+002,1.125737e+002
9.429276e+002,1.170646e+002
9.438918e+002,1.145023e+002
9.448561e+002,1.083859e+002
9.458203e+002,1.048458e+002
9.467845e+002,1.060723e+002
9.477488e+002,1.082241e+002
9.487130e+002,1.086954e+002
9.496772e+002,1.084144e+002
9.506415e+002,1.075391e+002
9.516057e+002,1.064751e+002
9.525699e+002,1.063647e+002
9.535342e+002,1.083367e+002
9.544984e+002,1.115424e+002
9.554626e+002,1.097131e+002
9.564269e+002,1.023821e+002
9.573911e+002,9.734265e+001
9.583553e+002,9.753461e+001
9.593196e+002,1.004712e+002
9.602838e+002,1.024163e+002
9.612480e+002,1.030212e+002
9.622123e+002,1.025946e+002
9.631765e+002,1.020824e+002
9.641407e+002,1.001740e+002
9.651050e+002,9.399115e+001
9.660692e+002,8.576556e+001
9.670334e+002,8.061646e+001
9.679977e+002,8.210480e+001
9.689619e+002,8.726013e+001
9.699261e+002,8.751202e+001
9.708904e+002,8.474182e+001
9.718546e+002,8.648651e+001
9.728188e+002,9.461072e+001
9.737831e+002,1.058032e+002
9.747473e+002,1.162866e+002
9.757115e+002,1.262019e+002
9.766758e+002,1.356667e+002
9.776400e+002,1.486097e+002
9.786042e+002,1.572568e+002
9.795685e+002,1.593414e+002
9.805327e+002,1.553174e+002
9.814969e+002,1.447897e+002
9.824612e+002,1.279386e+002
9.834254e+002,1.113979e+002
9.843896e+002,1.007985e+002
9.853539e+002,9.364404e+001
9.863181e+002,8.830414e+001
9.872823e+002,8.397235e+001
9.882466e+002,7.977032e+001
9.892108e+002,7.548816e+001
9.901750e+002,7.202441e+001
9.911393e+002,7.064099e+001
9.921035e+002,6.955774e+001
9.930677e+002,7.078516e+001
9.940320e+002,7.690283e+001
9.949962e+002,8.454248e+001
9.959604e+002,9.070178e+001
9.969247e+002,9.525574e+001
9.978889e+002,9.961450e+001
9.988531e+002,1.032326e+002
9.998174e+002,1.065719e+002
1.000782e+003,1.118553e+002
1.001746e+003,1.173209e+002
1.002710e+003,1.196689e+002
1.003674e+003,1.176687e+002
1.004639e+003,1.137525e+002
1.005603e+003,1.123898e+002
1.006567e+003,1.136587e+002
1.007531e+003,1.122009e+002
1.008495e+003,1.064757e+002
1.009460e+003,1.013948e+002
1.010424e+003,1.010606e+002
1.011388e+003,1.041617e+002
1.012352e+003,1.048328e+002
1.013317e+003,1.015144e+002
1.014281e+003,9.657642e+001
1.015245e+003,8.997943e+001
1.016209e+003,8.267999e+001
1.017174e+003,7.517194e+001
1.018138e+003,6.785583e+001
1.019102e+003,6.123083e+001
1.020066e+003,5.592450e+001
1.021031e+003,5.163593e+001
1.021995e+003,4.579913e+001
1.022959e+003,3.840698e+001
1.023923e+003,3.306598e+001
1.024887e+003,3.137305e+001
1.025852e+003,3.128137e+001
1.026816e+003,2.976129e+001
1.027780e+003,2.686798e+001
1.028744e+003,2.427441e+001
1.029709e+003,2.158301e+001
1.030673e+003,1.956818e+001
1.031637e+003,1.867938e+001
1.032601e+003,1.820142e+001
1.033566e+003,1.726349e+001
1.034530e+003,1.572797e+001
1.035494e+003,1.453839e+001
1.036458e+003,1.478693e+001
1.037422e+003,1.559381e+001
1.038387e+003,1.530536e+001
1.039351e+003,1.395349e+001
1.040315e+003,1.342114e+001
1.041279e+003,1.551697e+001
1.042244e+003,1.965588e+001
1.043208e+003,2.184662e+001
1.044172e+003,2.043109e+001
1.045136e+003,1.859998e+001
1.046101e+003,1.617883e+001
1.047065e+003,1.415741e+001
1.048029e+003,1.308173e+001
1.048993e+003,1.274658e+001
1.049958e+003,1.257910e+001
1.050922e+003,1.236566e+001
1.051886e+003,1.307385e+001
1.052850e+003,1.604193e+001
1.053814e+003,2.002667e+001
1.054779e+003,2.392285e+001
1.055743e+003,2.716205e+001
1.056707e+003,2.883215e+001
1.057671e+003,2.773346e+001
1.058636e+003,2.373529e+001
1.059600e+003,2.124249e+001
1.060564e+003,2.230707e+001
1.061528e+003,2.312305e+001
1.062493e+003,2.290295e+001
1.063457e+003,2.141132e+001
1.064421e+003,1.830847e+001
1.065385e+003,1.383032e+001
1.066349e+003,9.906128e+000
1.067314e+003,7.349304e+000
1.068278e+003,5.991455e+000
1.069242e+003,5.485962e+000
1.070206e+003,6.260010e+000
1.071171e+003,9.482361e+000
1.072135e+003,1.504077e+001
1.073099e+003,2.043372e+001
1.074063e+003,2.173639e+001
1.075028e+003,1.867371e+001
1.075992e+003,1.705756e+001
1.076956e+003,1.735742e+001
1.077920e+003,1.718207e+001
1.078885e+003,1.542267e+001
1.079849e+003,1.340143e+001
1.080813e+003,1.345819e+001
1.081777e+003,1.634088e+001
1.082741e+003,1.932007e+001
1.083706e+003,2.068213e+001
1.084670e+003,2.096490e+001
1.085634e+003,2.036365e+001
1.086598e+003,1.890204e+001
1.087563e+003,1.634485e+001
1.088527e+003,1.293091e+001
1.089491e+003,9.944946e+000
1.090455e+003,9.212036e+000
1.091420e+003,1.062628e+001
1.092384e+003,1.240863e+001
1.093348e+003,1.498828e+001
1.094312e+003,1.643469e+001
1.095276e+003,1.524371e+001
1.096241e+003,1.268439e+001
1.097205e+003,1.183929e+001
1.098169e+003,1.321271e+001
1.099133e+003,1.467804e+001
1.100098e+003,1.655890e+001
1.101062e+003,1.773303e+001
1.102026e+003,1.668616e+001
1.102990e+003,1.444348e+001
1.103955e+003,1.327228e+001
1.104919e+003,1.443304e+001
1.105883e+003,1.680255e+001
1.106847e+003,1.852936e+001
1.107812e+003,1.942816e+001
1.108776e+003,1.842883e+001
1.109740e+003,1.422992e+001
1.110704e+003,1.074988e+001
1.111668e+003,1.157129e+001
1.112633e+003,1.613104e+001
1.113597e+003,2.089697e+001
1.114561e+003,2.610693e+001
1.115525e+003,2.905450e+001
1.116490e+003,2.727362e+001
1.117454e+003,2.474506e+001
1.118418e+003,2.414807e+001
1.119382e+003,2.563599e+001
1.120347e+003,2.789429e+001
1.121311e+003,2.971661e+001
1.122275e+003,3.094061e+001
1.123239e+003,3.262610e+001
1.124203e+003,3.536560e+001
1.125168e+003,3.821106e+001
1.126132e+003,4.121320e+001
1.127096e+003,4.444885e+001
1.128060e+003,4.772046e+001
1.129025e+003,5.086609e+001
1.129989e+003,5.398694e+001
1.130953e+003,5.704376e+001
1.131917e+003,5.961279e+001
1.132882e+003,6.177716e+001
1.133846e+003,6.376892e+001
1.134810e+003,6.567542e+001
1.135774e+003,6.760712e+001
1.136739e+003,6.915112e+001
1.137703e+003,7.009589e+001
1.138667e+003,7.205396e+001
1.139631e+003,7.821344e+001
1.140595e+003,8.834558e+001
1.141560e+003,9.973096e+001
1.142524e+003,1.127005e+002
1.143488e+003,1.268575e+002
1.144452e+003,1.403322e+002
1.145417e+003,1.545354e+002
1.146381e+003,1.752452e+002
1.147345e+003,2.048478e+002
1.148309e+003,2.346368e+002
1.149274e+003,2.629940e+002
1.150238e+003,2.909949e+002
1.151202e+003,3.217599e+002
1.152166e+003,3.525127e+002
1.153130e+003,3.784188e+002
1.154095e+003,3.966561e+002
1.155059e+003,4.073590e+002
1.156023e+003,4.118118e+002
1.156987e+003,4.093798e+002
1.157952e+003,3.981295e+002
1.158916e+003,3.783339e+002
1.159880e+003,3.546384e+002
1.160844e+003,3.263193e+002
1.161809e+003,2.948316e+002
1.162773e+003,2.650361e+002
1.163737e+003,2.370577e+002
1.164701e+003,2.104500e+002
1.165666e+003,1.834640e+002
1.166630e+003,1.604888e+002
1.167594e+003,1.435813e+002
1.168558e+003,1.314358e+002
1.169522e+003,1.228812e+002
1.170487e+003,1.171527e+002
1.171451e+003,1.135460e+002
1.172415e+003,1.113712e+002
1.173379e+003,1.101894e+002
1.174344e+003,1.086176e+002
1.175308e+003,1.069348e+002
1.176272e+003,1.044063e+002
1.177236e+003,1.006575e+002
1.178201e+003,9.638385e+001
1.179165e+003,9.189453e+001
1.180129e+003,8.680939e+001
1.181093e+003,8.208319e+001
1.182057e+003,7.791125e+001
1.183022e+003,7.475018e+001
1.183986e+003,7.290485e+001
1.184950e+003,7.196271e+001
1.185914e+003,7.182593e+001
1.186879e+003,7.239832e+001
1.187843e+003,7.327472e+001
1.188807e+003,7.395691e+001
1.189771e+003,7.473859e+001
1.190736e+003,7.766125e+001
1.191700e+003,8.315656e+001
1.192664e+003,8.519702e+001
1.193628e+003,8.208337e+001
1.194593e+003,7.759735e+001
1.195557e+003,7.470483e+001
1.196521e+003,7.246393e+001
1.197485e+003,6.730511e+001
1.198449e+003,5.760651e+001
1.199414e+003,4.881140e+001
1.200378e+003,4.299084e+001
1.201342e+003,3.928583e+001
1.202306e+003,3.854102e+001
1.203271e+003,3.904840e+001
1.204235e+003,3.765662e+001
1.205199e+003,3.306641e+001
1.206163e+003,2.744928e+001
1.207128e+003,2.440894e+001
1.208092e+003,2.419373e+001
1.209056e+003,2.221747e+001
1.210020e+003,1.878442e+001
1.210984e+003,1.358972e+001
1.211949e+003,4.785278e+000
1.212913e+003,-4.971130e+000
1.213877e+003,-1.209222e+001
1.214841e+003,-1.623529e+001
1.215806e+003,-1.906732e+001
1.216770e+003,-2.002173e+001
1.217734e+003,-2.202222e+001
1.218698e+003,-2.882611e+001
1.219663e+003,-3.699976e+001
1.220627e+003,-4.199451e+001
1.221591e+003,-4.324304e+001
1.222555e+003,-4.340369e+001
1.223520e+003,-4.483270e+001
1.224484e+003,-4.710815e+001
1.225448e+003,-4.910468e+001
1.226412e+003,-5.126917e+001
1.227376e+003,-5.217944e+001
1.228341e+003,-5.061121e+001
1.229305e+003,-4.951483e+001
1.230269e+003,-5.129834e+001
1.231233e+003,-5.451794e+001
1.232198e+003,-5.549780e+001
1.233162e+003,-5.293488e+001
1.234126e+003,-5.103589e+001
1.235090e+003,-5.453284e+001
1.236055e+003,-5.912616e+001
1.237019e+003,-5.958716e+001
1.237983e+003,-5.734875e+001
1.238947e+003,-5.641370e+001
1.239911e+003,-5.821948e+001
1.240876e+003,-6.016370e+001
1.241840e+003,-5.820758e+001
1.242804e+003,-5.193964e+001
1.243768e+003,-4.888940e+001
1.244733e+003,-5.335229e+001
1.245697e+003,-5.534595e+001
1.246661e+003,-5.347284e+001
1.247625e+003,-5.031384e+001
1.248590e+003,-4.654535e+001
1.249554e+003,-4.273395e+001
1.250518e+003,-4.056409e+001
1.251482e+003,-4.114740e+001
1.252447e+003,-4.255157e+001
1.253411e+003,-4.200421e+001
1.254375e+003,-4.016962e+001
1.255339e+003,-3.920905e+001
1.256303e+003,-3.893292e+001
1.257268e+003,-3.718542e+001
1.258232e+003,-3.239526e+001
1.259196e+003,-2.694196e+001
1.260160e+003,-2.567188e+001
1.261125e+003,-2.932062e+001
1.262089e+003,-3.011688e+001
1.263053e+003,-2.546570e+001
1.264017e+003,-2.087750e+001
1.264982e+003,-1.645697e+001
1.265946e+003,-1.320148e+001
1.266910e+003,-1.246857e+001
1.267874e+003,-1.381110e+001
1.268839e+003,-1.513513e+001
1.269803e+003,-1.500092e+001
1.270767e+003,-1.489893e+001
1.271731e+003,-1.809216e+001
1.272695e+003,-2.425250e+001
1.273660e+003,-2.864404e+001
1.274624e+003,-3.158569e+001
1.275588e+003,-3.343341e+001
1.276552e+003,-3.312714e+001
1.277517e+003,-3.161957e+001
1.278481e+003,-3.105798e+001
1.279445e+003,-3.168793e+001
1.280409e+003,-3.339166e+001
1.281374e+003,-3.708649e+001
1.282338e+003,-4.043903e+001
1.283302e+003,-4.278595e+001
1.284266e+003,-4.396210e+001
1.285230e+003,-4.308148e+001
1.286195e+003,-4.072192e+001
1.287159e+003,-3.915265e+001
1.288123e+003,-4.007996e+001
1.289087e+003,-4.210150e+001
1.290052e+003,-4.161823e+001
1.291016e+003,-3.762598e+001
1.291980e+003,-3.603632e+001
1.292944e+003,-3.872150e+001
1.293909e+003,-4.188611e+001
1.294873e+003,-4.333862e+001
1.295837e+003,-4.418164e+001
1.296801e+003,-4.677258e+001
1.297766e+003,-5.113702e+001
1.298730e+003,-5.376007e+001
1.299694e+003,-5.230920e+001
1.300658e+003,-4.996771e+001
1.301622e+003,-5.066425e+001
1.302587e+003,-5.239008e+001
1.303551e+003,-5.156006e+001
1.304515e+003,-4.768622e+001
1.305479e+003,-4.428571e+001
1.306444e+003,-4.480609e+001
1.307408e+003,-4.765826e+001
1.308372e+003,-4.622839e+001
1.309336e+003,-3.785394e+001
1.310301e+003,-3.360919e+001
1.311265e+003,-3.742340e+001
1.312229e+003,-4.065570e+001
1.313193e+003,-3.995905e+001
1.314157e+003,-3.821484e+001
1.315122e+003,-3.877826e+001
1.316086e+003,-4.191278e+001
1.317050e+003,-4.569806e+001
1.318014e+003,-4.880206e+001
1.318979e+003,-5.072455e+001
1.319943e+003,-5.051276e+001
1.320907e+003,-4.822986e+001
1.321871e+003,-4.659998e+001
1.322836e+003,-4.666931e+001
1.323800e+003,-4.596082e+001
1.324764e+003,-4.165015e+001
1.325728e+003,-3.635071e+001
1.326693e+003,-3.555566e+001
1.327657e+003,-3.973273e+001
1.328621e+003,-4.178595e+001
1.329585e+003,-3.679980e+001
1.330549e+003,-3.229523e+001
1.331514e+003,-3.499487e+001
1.332478e+003,-3.950049e+001
1.333442e+003,-3.992572e+001
1.334406e+003,-3.645386e+001
1.335371e+003,-3.281177e+001
1.336335e+003,-3.132947e+001
1.337299e+003,-3.141077e+001
1.338263e+003,-3.216235e+001
1.339228e+003,-3.372986e+001
1.340192e+003,-3.442108e+001
1.341156e+003,-3.329089e+001
1.342120e+003,-3.277838e+001
1.343084e+003,-3.456305e+001
1.344049e+003,-3.662604e+001
1.345013e+003,-3.678998e+001
1.345977e+003,-3.521515e+001
1.346941e+003,-3.325922e+001
1.347906e+003,-3.138397e+001
1.348870e+003,-3.013086e+001
1.349834e+003,-3.027252e+001
1.350798e+003,-3.155829e+001
1.351763e+003,-3.347620e+001
1.352727e+003,-3.561713e+001
1.353691e+003,-3.589502e+001
1.354655e+003,-3.284216e+001
1.355620e+003,-3.001282e+001
1.356584e+003,-3.304974e+001
1.357548e+003,-4.072400e+001
1.358512e+003,-4.257550e+001
1.359476e+003,-3.634515e+001
1.360441e+003,-3.074078e+001
1.361405e+003,-2.694037e+001
1.362369e+003,-2.489972e+001
1.363333e+003,-2.528882e+001
1.364298e+003,-2.707605e+001
1.365262e+003,-2.935101e+001
1.366226e+003,-3.153448e+001
1.367190e+003,-3.278638e+001
1.368155e+003,-3.232977e+001
1.369119e+003,-3.082391e+001
1.370083e+003,-3.029456e+001
1.371047e+003,-3.092413e+001
1.372011e+003,-3.080969e+001
1.372976e+003,-3.019165e+001
1.373940e+003,-2.946069e+001
1.374904e+003,-2.883368e+001
1.375868e+003,-2.776477e+001
1.376833e+003,-2.523566e+001
1.377797e+003,-2.161255e+001
1.378761e+003,-1.888098e+001
1.379725e+003,-1.757959e+001
1.380690e+003,-1.798706e+001
1.381654e+003,-2.251691e+001
1.382618e+003,-2.770520e+001
1.383582e+003,-2.828253e+001
1.384547e+003,-2.446503e+001
1.385511e+003,-2.018396e+001
1.386475e+003,-1.737494e+001
1.387439e+003,-1.581525e+001
1.388403e+003,-1.507019e+001
1.389368e+003,-1.518494e+001
1.390332e+003,-1.658997e+001
1.391296e+003,-2.047870e+001
1.392260e+003,-2.264563e+001
1.393225e+003,-2.103241e+001
1.394189e+003,-1.906006e+001
1.395153e+003,-1.802478e+001
1.396117e+003,-1.816693e+001
1.397082e+003,-2.026660e+001
1.398046e+003,-2.378302e+001
1.399010e+003,-2.588458e+001
1.399974e+003,-2.412103e+001
1.400938e+003,-2.053931e+001
1.401903e+003,-2.040521e+001
1.402867e+003,-2.388300e+001
1.403831e+003,-2.506628e+001
1.404795e+003,-2.451770e+001
1.405760e+003,-2.213989e+001
1.406724e+003,-1.650983e+001
1.407688e+003,-1.137250e+001
1.408652e+003,-1.068988e+001
1.409617e+003,-1.371881e+001
1.410581e+003,-1.711157e+001
1.411545e+003,-1.980450e+001
1.412509e+003,-2.130475e+001
1.413474e+003,-2.047083e+001
1.414438e+003,-1.921521e+001
1.415402e+003,-2.043591e+001
1.416366e+003,-2.330054e+001
1.417330e+003,-2.452795e+001
1.418295e+003,-2.270111e+001
1.419259e+003,-1.933429e+001
1.420223e+003,-1.582367e+001
1.421187e+003,-1.261115e+001
1.422152e+003,-1.112903e+001
1.423116e+003,-1.170972e+001
1.424080e+003,-1.140509e+001
1.425044e+003,-9.150208e+000
1.426009e+003,-6.972778e+000
1.426973e+003,-5.795166e+000
1.427937e+003,-5.146606e+000
1.428901e+003,-4.045349e+000
1.429865e+003,-2.464294e+000
1.430830e+003,-1.652954e+000
1.431794e+003,-2.585571e+000
1.432758e+003,-4.123779e+000
1.433722e+003,-3.388000e+000
1.434687e+003,4.797974e-001
1.435651e+003,3.614197e+000
1.436615e+003,3.244690e+000
1.437579e+003,3.420532e+000
1.438544e+003,5.405029e+000
1.439508e+003,7.474304e+000
1.440472e+003,8.787598e+000
1.441436e+003,9.764954e+000
1.442401e+003,1.130170e+001
1.443365e+003,1.331665e+001
1.444329e+003,1.402155e+001
1.445293e+003,1.196765e+001
1.446257e+003,8.745667e+000
1.447222e+003,6.607300e+000
1.448186e+003,5.601746e+000
1.449150e+003,7.218994e+000
1.450114e+003,1.253625e+001
1.451079e+003,1.602460e+001
1.452043e+003,1.378607e+001
1.453007e+003,9.482605e+000
1.453971e+003,7.804871e+000
1.454936e+003,8.346130e+000
1.455900e+003,8.708984e+000
1.456864e+003,8.500549e+000
1.457828e+003,8.558777e+000
1.458792e+003,9.599304e+000
1.459757e+003,1.032410e+001
1.460721e+003,9.546204e+000
1.461685e+003,7.692871e+000
1.462649e+003,5.495544e+000
1.463614e+003,3.460938e+000
1.464578e+003,2.582886e+000
1.465542e+003,3.833130e+000
1.466506e+003,6.114258e+000
1.467471e+003,6.410950e+000
1.468435e+003,4.509460e+000
1.469399e+003,4.195862e+000
1.470363e+003,5.927185e+000
1.471328e+003,7.921143e+000
1.472292e+003,1.079474e+001
1.473256e+003,1.202887e+001
1.474220e+003,8.731689e+000
1.475184e+003,3.722961e+000
1.476149e+003,1.927551e+000
1.477113e+003,4.540039e+000
1.478077e+003,8.787720e+000
1.479041e+003,1.237653e+001
1.480006e+003,1.563336e+001
1.480970e+003,1.875037e+001
1.481934e+003,2.174133e+001
1.482898e+003,2.231769e+001
1.483863e+003,1.729639e+001
1.484827e+003,1.440955e+001
1.485791e+003,1.694135e+001
1.486755e+003,2.206812e+001
1.487719e+003,2.798975e+001
1.488684e+003,3.365149e+001
1.489648e+003,3.756433e+001
1.490612e+003,3.951263e+001
1.491576e+003,4.104468e+001
1.492541e+003,4.291937e+001
1.493505e+003,4.550848e+001
1.494469e+003,5.048022e+001
1.495433e+003,5.686780e+001
1.496398e+003,6.106354e+001
1.497362e+003,6.209454e+001
1.498326e+003,6.502533e+001
1.499290e+003,7.348395e+001
1.500255e+003,8.443854e+001
1.501219e+003,9.309705e+001
1.502183e+003,1.000137e+002
1.503147e+003,1.098074e+002
1.504111e+003,1.236841e+002
1.505076e+003,1.394248e+002
1.506040e+003,1.563613e+002
1.507004e+003,1.742679e+002
1.507968e+003,1.917260e+002
1.508933e+003,2.102166e+002
1.509897e+003,2.331489e+002
1.510861e+003,2.617245e+002
1.511825e+003,2.936273e+002
1.512790e+003,3.273832e+002
1.513754e+003,3.617990e+002
1.514718e+003,3.955443e+002
1.515682e+003,4.281646e+002
1.516646e+003,4.596331e+002
1.517611e+003,4.920747e+002
1.518575e+003,5.195420e+002
1.519539e+003,5.412009e+002
1.520503e+003,5.572678e+002
1.521468e+003,5.664666e+002
1.522432e+003,5.702120e+002
1.523396e+003,5.709495e+002
1.524360e+003,5.685040e+002
1.525325e+003,5.603907e+002
1.526289e+003,5.451081e+002
1.527253e+003,5.238789e+002
1.528217e+003,4.981440e+002
1.529182e+003,4.682307e+002
1.530146e+003,4.384028e+002
1.531110e+003,4.105656e+002
1.532074e+003,3.781385e+002
1.533039e+003,3.367715e+002
1.534003e+003,2.939492e+002
1.534967e+003,2.512541e+002
1.535931e+003,2.117961e+002
1.536896e+003,1.778111e+002
1.537860e+003,1.500333e+002
1.538824e+003,1.293279e+002
1.539788e+003,1.155560e+002
1.540752e+003,1.047984e+002
1.541717e+003,9.215216e+001
1.542681e+003,7.854846e+001
1.543645e+003,6.827875e+001
1.544609e+003,6.290509e+001
1.545573e+003,5.843463e+001
1.546538e+003,5.318805e+001
1.547502e+003,4.974329e+001
1.548466e+003,5.025043e+001
1.549430e+003,5.310675e+001
1.550395e+003,5.787616e+001
1.551359e+003,6.276843e+001
1.552323e+003,6.383044e+001
1.553287e+003,5.995227e+001
1.554252e+003,5.495044e+001
1.555216e+003,5.218768e+001
1.556180e+003,5.026031e+001
1.557144e+003,4.540375e+001
1.558109e+003,3.769513e+001
1.559073e+003,3.327087e+001
1.560037e+003,3.325861e+001
1.561001e+003,3.301178e+001
1.561966e+003,3.079224e+001
1.562930e+003,2.907269e+001
1.563894e+003,3.042133e+001
1.564858e+003,3.347260e+001
1.565823e+003,3.497815e+001
1.566787e+003,3.430487e+001
1.567751e+003,3.306659e+001
1.568715e+003,3.190991e+001
1.569679e+003,3.194122e+001
1.570644e+003,3.557855e+001
1.571608e+003,4.070007e+001
1.572572e+003,4.155377e+001
1.573536e+003,3.814764e+001
1.574500e+003,3.582281e+001
1.575465e+003,3.626984e+001
1.576429e+003,3.801300e+001
1.577393e+003,4.070502e+001
1.578357e+003,4.323761e+001
1.579322e+003,4.291132e+001
1.580286e+003,4.006927e+001
1.581250e+003,3.981793e+001
1.582214e+003,4.440503e+001
1.583179e+003,4.913580e+001
1.584143e+003,4.983081e+001
1.585107e+003,4.901447e+001
1.586071e+003,5.100262e+001
1.587036e+003,5.526154e+001
1.588000e+003,5.865912e+001
1.588964e+003,6.022430e+001
1.589928e+003,6.075903e+001
1.590893e+003,6.053772e+001
1.591857e+003,5.998242e+001
1.592821e+003,5.959320e+001
1.593785e+003,5.949695e+001
1.594750e+003,5.988281e+001
1.595714e+003,6.051929e+001
1.596678e+003,6.203369e+001
1.597642e+003,6.536682e+001
1.598606e+003,6.875732e+001
1.599571e+003,7.086395e+001
1.600535e+003,7.243365e+001
1.601499e+003,7.411475e+001
1.602463e+003,7.593176e+001
1.603427e+003,7.834601e+001
1.604392e+003,8.182056e+001
1.605356e+003,8.406586e+001
1.606320e+003,8.178247e+001
1.607284e+003,7.684912e+001
1.608249e+003,7.484631e+001
1.609213e+003,7.590540e+001
1.610177e+003,7.602722e+001
1.611141e+003,7.397144e+001
1.612106e+003,7.244226e+001
1.613070e+003,7.313464e+001
1.614034e+003,7.440845e+001
1.614998e+003,7.488568e+001
1.615963e+003,7.525226e+001
1.616927e+003,7.698090e+001
1.617891e+003,7.995618e+001
1.618855e+003,8.221802e+001
1.619820e+003,8.241345e+001
1.620784e+003,8.100354e+001
1.621748e+003,7.882526e+001
1.622712e+003,7.673499e+001
1.623677e+003,7.648822e+001
1.624641e+003,7.832111e+001
1.625605e+003,8.123950e+001
1.626569e+003,8.616309e+001
1.627533e+003,8.798523e+001
1.628498e+003,8.122424e+001
1.629462e+003,7.411597e+001
1.630426e+003,7.403906e+001
1.631390e+003,7.891565e+001
1.632354e+003,8.421228e+001
1.633319e+003,8.830078e+001
1.634283e+003,8.950562e+001
1.635247e+003,8.587585e+001
1.636211e+003,8.061493e+001
1.637176e+003,8.045886e+001
1.638140e+003,8.511212e+001
1.639104e+003,8.687073e+001
1.640068e+003,8.477448e+001
1.641033e+003,8.170154e+001
1.641997e+003,7.611194e+001
1.642961e+003,7.338226e+001
1.643925e+003,7.892114e+001
1.644890e+003,8.599707e+001
1.645854e+003,8.744928e+001
1.646818e+003,8.460394e+001
1.647782e+003,8.239844e+001
1.648747e+003,8.239655e+001
1.649711e+003,8.339667e+001
1.650675e+003,8.494598e+001
1.651639e+003,8.650220e+001
1.652604e+003,8.584863e+001
1.653568e+003,8.289648e+001
1.654532e+003,8.222394e+001
1.655496e+003,8.531134e+001
1.656460e+003,8.615979e+001
1.657425e+003,8.135028e+001
1.658389e+003,7.658997e+001
1.659353e+003,7.556348e+001
1.660317e+003,7.562506e+001
1.661281e+003,7.375232e+001
1.662246e+003,7.025018e+001
1.663210e+003,6.697638e+001
1.664174e+003,6.472394e+001
1.665138e+003,6.367444e+001
1.666103e+003,6.412250e+001
1.667067e+003,6.505072e+001
1.668031e+003,6.455328e+001
1.668995e+003,6.284155e+001
1.669960e+003,6.152588e+001
1.670924e+003,6.088538e+001
1.671888e+003,6.041968e+001
1.672852e+003,5.948309e+001
1.673817e+003,5.895697e+001
1.674781e+003,6.030042e+001
1.675745e+003,6.159698e+001
1.676709e+003,6.030438e+001
1.677674e+003,5.704865e+001
1.678638e+003,5.423834e+001
1.679602e+003,5.264746e+001
1.680566e+003,5.129962e+001
1.681531e+003,4.953723e+001
1.682495e+003,4.798151e+001
1.683459e+003,4.749847e+001
1.684423e+003,4.764392e+001
1.685387e+003,4.718097e+001
1.686352e+003,4.620038e+001
1.687316e+003,4.384259e+001
1.688280e+003,3.829602e+001
1.689244e+003,3.416272e+001
1.690208e+003,3.703387e+001
1.691173e+003,4.144171e+001
1.692137e+003,4.100006e+001
1.693101e+003,3.731403e+001
1.694065e+003,3.543420e+001
1.695030e+003,3.626990e+001
1.695994e+003,3.742432e+001
1.696958e+003,3.780634e+001
1.697922e+003,3.771899e+001
1.698887e+003,3.774530e+001
1.699851e+003,3.768250e+001
1.700815e+003,3.643665e+001
1.701779e+003,3.375714e+001
1.702744e+003,3.038306e+001
1.703708e+003,2.648438e+001
1.704672e+003,2.402795e+001
1.705636e+003,2.443201e+001
1.706601e+003,2.603204e+001
1.707565e+003,2.809821e+001
1.708529e+003,3.006183e+001
1.709493e+003,2.826184e+001
1.710458e+003,2.164734e+001
1.711422e+003,1.673120e+001
1.712386e+003,1.745374e+001
1.713350e+003,1.986768e+001
1.714314e+003,2.123462e+001
1.715279e+003,2.129773e+001
1.716243e+003,1.910687e+001
1.717207e+003,1.546252e+001
1.718171e+003,1.411499e+001
1.719135e+003,1.617572e+001
1.720100e+003,1.864130e+001
1.721064e+003,1.955408e+001
1.722028e+003,1.921832e+001
1.722992e+003,1.836426e+001
1.723957e+003,1.730017e+001
1.724921e+003,1.536102e+001
1.725885e+003,1.157959e+001
1.726849e+003,8.838440e+000
1.727814e+003,9.257202e+000
1.728778e+003,9.916992e+000
1.729742e+003,8.178955e+000
1.730706e+003,7.096008e+000
1.731671e+003,1.087671e+001
1.732635e+003,1.651593e+001
1.733599e+003,1.795850e+001
1.734563e+003,1.500684e+001
1.735528e+003,1.198468e+001
1.736492e+003,1.101093e+001
1.737456e+003,1.142200e+001
1.738420e+003,1.255103e+001
1.739385e+003,1.397681e+001
1.740349e+003,1.537134e+001
1.741313e+003,1.738849e+001
1.742277e+003,1.743903e+001
1.743241e+003,1.457898e+001
1.744206e+003,1.201373e+001
1.745170e+003,8.724121e+000
1.746134e+003,7.051697e+000
1.747098e+003,1.032697e+001
1.748063e+003,1.432770e+001
1.749027e+003,1.335510e+001
1.749991e+003,8.884399e+000
1.750955e+003,6.340942e+000
1.751919e+003,7.411987e+000
1.752884e+003,9.528015e+000
1.753848e+003,1.059033e+001
1.754812e+003,1.059143e+001
1.755776e+003,9.658752e+000
1.756741e+003,8.151611e+000
1.757705e+003,7.016968e+000
1.758669e+003,5.532471e+000
1.759633e+003,5.726990e+000
1.760598e+003,1.006921e+001
1.761562e+003,1.223120e+001
1.762526e+003,8.561218e+000
1.763490e+003,4.647217e+000
1.764455e+003,4.823853e+000
1.765419e+003,7.298462e+000
1.766383e+003,9.252075e+000
1.767347e+003,9.742920e+000
1.768312e+003,8.117249e+000
1.769276e+003,3.907654e+000
1.770240e+003,-4.294434e-001
1.771204e+003,-1.800293e+000
1.772168e+003,-9.412231e-001
1.773133e+003,-1.063232e-001
1.774097e+003,6.628418e-001
1.775061e+003,8.184204e-001
1.776025e+003,-3.023071e-001
1.776990e+003,-9.094238e-002
1.777954e+003,3.559021e+000
1.778918e+003,7.210144e+000
1.779882e+003,7.762146e+000
1.780846e+003,6.729309e+000
1.781811e+003,6.772888e+000
1.782775e+003,7.467285e+000
1.783739e+003,6.826721e+000
1.784703e+003,4.539307e+000
1.785668e+003,2.812622e+000
1.786632e+003,1.809204e+000
1.787596e+003,1.736084e+000
1.788560e+003,4.570007e+000
1.789525e+003,8.096802e+000
1.790489e+003,7.909729e+000
1.791453e+003,5.078491e+000
1.792417e+003,4.576477e+000
1.793382e+003,7.174316e+000
1.794346e+003,8.431824e+000
1.795310e+003,5.792725e+000
1.796274e+003,2.880188e+000
1.797239e+003,4.314941e+000
1.798203e+003,8.818298e+000
1.799167e+003,1.078717e+001
1.800131e+003,8.898315e+000
1.801095e+003,8.190247e+000
1.802060e+003,1.047333e+001
1.803024e+003,1.235846e+001
1.803988e+003,1.354730e+001
1.804952e+003,1.372235e+001
1.805917e+003,1.248425e+001
1.806881e+003,1.035187e+001
1.807845e+003,7.042847e+000
1.808809e+003,3.806213e+000
1.809773e+003,2.995667e+000
1.810738e+003,4.723694e+000
1.811702e+003,6.514221e+000
1.812666e+003,6.798645e+000
1.813630e+003,6.958252e+000
1.814595e+003,9.036255e+000
1.815559e+003,1.220886e+001
1.816523e+003,1.339734e+001
1.817487e+003,1.251532e+001
1.818452e+003,1.140027e+001
1.819416e+003,9.807922e+000
1.820380e+003,1.011346e+001
1.821344e+003,1.448926e+001
1.822309e+003,1.798102e+001
1.823273e+003,1.760400e+001
1.824237e+003,1.558191e+001
1.825201e+003,1.289410e+001
1.826166e+003,1.030591e+001
1.827130e+003,1.016101e+001
1.828094e+003,1.262299e+001
1.829058e+003,1.386206e+001
1.830022e+003,1.122894e+001
1.830987e+003,9.264771e+000
1.831951e+003,1.375525e+001
1.832915e+003,1.973846e+001
1.833879e+003,1.870093e+001
1.834844e+003,1.298059e+001
1.835808e+003,1.098376e+001
1.836772e+003,1.371320e+001
1.837736e+003,1.579492e+001
1.838700e+003,1.471576e+001
1.839665e+003,1.268079e+001
1.840629e+003,1.177234e+001
1.841593e+003,1.170184e+001
1.842557e+003,1.167010e+001
1.843522e+003,1.165155e+001
1.844486e+003,1.108539e+001
1.845450e+003,9.103271e+000
1.846414e+003,9.231079e+000
1.847379e+003,1.329871e+001
1.848343e+003,1.573706e+001
1.849307e+003,1.345874e+001
1.850271e+003,1.095239e+001
1.851236e+003,1.238971e+001
1.852200e+003,1.542090e+001
1.853164e+003,1.570972e+001
1.854128e+003,1.338177e+001
1.855093e+003,1.188708e+001
1.856057e+003,1.281091e+001
1.857021e+003,1.476410e+001
1.857985e+003,1.654761e+001
1.858949e+003,1.768744e+001
1.859914e+003,1.681091e+001
1.860878e+003,1.467621e+001
1.861842e+003,1.585907e+001
1.862806e+003,2.039282e+001
1.863771e+003,2.109387e+001
1.864735e+003,1.541632e+001
1.865699e+003,1.151715e+001
1.866663e+003,1.389215e+001
1.867627e+003,1.792596e+001
1.868592e+003,1.941223e+001
1.869556e+003,1.928583e+001
1.870520e+003,2.032538e+001
1.871484e+003,2.210925e+001
1.872449e+003,2.191138e+001
1.873413e+003,2.001611e+001
1.874377e+003,1.815643e+001
1.875341e+003,1.423425e+001
1.876306e+003,1.200153e+001
1.877270e+003,1.493829e+001
1.878234e+003,1.895776e+001
1.879198e+003,2.019977e+001
1.880163e+003,1.953546e+001
1.881127e+003,1.887244e+001
1.882091e+003,1.872931e+001
1.883055e+003,1.911890e+001
1.884020e+003,1.991791e+001
1.884984e+003,2.035321e+001
1.885948e+003,1.970215e+001
1.886912e+003,1.886359e+001
1.887876e+003,1.985748e+001
1.888841e+003,2.250000e+001
1.889805e+003,2.386090e+001
1.890769e+003,2.361572e+001
1.891733e+003,2.390424e+001
1.892698e+003,2.501312e+001
1.893662e+003,2.573474e+001
1.894626e+003,2.551471e+001
1.895590e+003,2.524860e+001
1.896554e+003,2.589972e+001
1.897519e+003,2.696320e+001
1.898483e+003,2.705267e+001
1.899447e+003,2.647290e+001
1.900411e+003,2.783331e+001
1.901376e+003,3.186884e+001
1.902340e+003,3.444647e+001
1.903304e+003,3.318359e+001
1.904268e+003,3.127124e+001
1.905233e+003,3.084027e+001
1.906197e+003,3.079565e+001
1.907161e+003,2.995300e+001
1.908125e+003,2.883374e+001
1.909090e+003,2.787225e+001
1.910054e+003,2.721381e+001
1.911018e+003,2.778680e+001
1.911982e+003,2.986810e+001
1.912947e+003,3.203546e+001
1.913911e+003,3.314874e+001
1.914875e+003,3.356232e+001
1.915839e+003,3.363977e+001
1.916803e+003,3.324152e+001
1.917768e+003,3.287537e+001
1.918732e+003,3.254199e+001
1.919696e+003,3.424756e+001
1.920660e+003,3.986084e+001
1.921625e+003,4.278900e+001
1.922589e+003,4.034845e+001
1.923553e+003,3.655273e+001
1.924517e+003,3.158722e+001
1.925481e+003,2.799884e+001
1.926446e+003,2.896509e+001
1.927410e+003,3.260052e+001
1.928374e+003,3.516852e+001
1.929338e+003,3.622552e+001
1.930303e+003,3.721881e+001
1.931267e+003,3.913477e+001
1.932231e+003,4.077374e+001
1.933195e+003,4.128290e+001
1.934160e+003,4.092511e+001
1.935124e+003,3.916101e+001
1.936088e+003,3.702405e+001
1.937052e+003,3.614697e+001
1.938017e+003,3.636810e+001
1.938981e+003,3.667804e+001
1.939945e+003,3.685608e+001
1.940909e+003,3.735486e+001
1.941874e+003,3.826483e+001
1.942838e+003,3.908313e+001
1.943802e+003,3.964435e+001
1.944766e+003,4.030188e+001
1.945730e+003,4.104724e+001
1.946695e+003,4.164618e+001
1.947659e+003,4.223785e+001
1.948623e+003,4.276422e+001
1.949587e+003,4.286981e+001
1.950552e+003,4.262067e+001
1.951516e+003,4.227057e+001
1.952480e+003,4.160980e+001
1.953444e+003,4.144861e+001
1.954408e+003,4.238818e+001
1.955373e+003,4.367487e+001
1.956337e+003,4.548706e+001
1.957301e+003,4.743665e+001
1.958265e+003,4.599127e+001
1.959230e+003,4.036133e+001
1.960194e+003,3.802124e+001
1.961158e+003,4.172144e+001
1.962122e+003,4.494910e+001
1.963087e+003,4.608636e+001
1.964051e+003,4.646832e+001
1.965015e+003,4.667188e+001
1.965979e+003,4.731769e+001
1.966944e+003,4.960083e+001
1.967908e+003,5.178015e+001
1.968872e+003,5.020166e+001
1.969836e+003,4.558362e+001
1.970801e+003,4.284460e+001
1.971765e+003,4.402844e+001
1.972729e+003,4.625116e+001
1.973693e+003,4.699310e+001
1.974657e+003,4.754980e+001
1.975622e+003,5.069269e+001
1.976586e+003,5.464771e+001
1.977550e+003,5.408521e+001
1.978514e+003,5.008807e+001
1.979479e+003,4.869897e+001
1.980443e+003,5.064069e+001
1.981407e+003,5.340216e+001
1.982371e+003,5.630249e+001
1.983335e+003,5.774908e+001
1.984300e+003,5.601208e+001
1.985264e+003,5.355292e+001
1.986228e+003,5.463757e+001
1.987192e+003,5.828314e+001
1.988157e+003,5.930133e+001
1.989121e+003,5.705328e+001
1.990085e+003,5.629041e+001
1.991049e+003,5.874817e+001
1.992014e+003,5.957813e+001
1.992978e+003,5.560138e+001
1.993942e+003,5.309888e+001
1.994906e+003,5.475385e+001
1.995871e+003,5.806964e+001
1.996835e+003,6.285602e+001
1.997799e+003,6.740216e+001
1.998763e+003,6.879956e+001
1.999728e+003,6.734900e+001
