5.003444e+002,2.006859e+002
5.013087e+002,1.992916e+002
5.022729e+002,1.962521e+002
5.032371e+002,1.930098e+002
5.042014e+002,1.917626e+002
5.051656e+002,1.923092e+002
5.061298e+002,1.925422e+002
5.070941e+002,1.901968e+002
5.080583e+002,1.840079e+002
5.090225e+002,1.800776e+002
5.099868e+002,1.790928e+002
5.109510e+002,1.787511e+002
5.119152e+002,1.782145e+002
5.128795e+002,1.775094e+002
5.138437e+002,1.763820e+002
5.148079e+002,1.758385e+002
5.157722e+002,1.742898e+002
5.167364e+002,1.695321e+002
5.177006e+002,1.619298e+002
5.186649e+002,1.546161e+002
5.196291e+002,1.527865e+002
5.205933e+002,1.542406e+002
5.215576e+002,1.557855e+002
5.225218e+002,1.563392e+002
5.234860e+002,1.558253e+002
5.244503e+002,1.549810e+002
5.254145e+002,1.549159e+002
5.263787e+002,1.526409e+002
5.273430e+002,1.458765e+002
5.283072e+002,1.384244e+002
5.292714e+002,1.356396e+002
5.302357e+002,1.394237e+002
5.311999e+002,1.416475e+002
5.321641e+002,1.431437e+002
5.331284e+002,1.434998e+002
5.340926e+002,1.413428e+002
5.350568e+002,1.355760e+002
5.360211e+002,1.292378e+002
5.369853e+002,1.260524e+002
5.379495e+002,1.246489e+002
5.389138e+002,1.241276e+002
5.398780e+002,1.238060e+002
5.408422e+002,1.232532e+002
5.418065e+002,1.214589e+002
5.427707e+002,1.185640e+002
5.437349e+002,1.151693e+002
5.446992e+002,1.109797e+002
5.456634e+002,1.064412e+002
5.466276e+002,1.034255e+002
5.475919e+002,1.050891e+002
5.485561e+002,1.049036e+002
5.495203e+002,1.003878e+002
5.504846e+002,9.404346e+001
5.514488e+002,8.987622e+001
5.524130e+002,9.044177e+001
5.533773e+002,9.195923e+001
5.543415e+002,9.315039e+001
5.553057e+002,9.367358e+001
5.562700e+002,9.267651e+001
5.572342e+002,8.956543e+001
5.581984e+002,8.550378e+001
5.591627e+002,8.442542e+001
5.601269e+002,8.548706e+001
5.610911e+002,8.604956e+001
5.620554e+002,8.453650e+001
5.630196e+002,8.087878e+001
5.639838e+002,7.690149e+001
5.649481e+002,7.202222e+001
5.659123e+002,6.774939e+001
5.668765e+002,6.523816e+001
5.678408e+002,6.451038e+001
5.688050e+002,6.447461e+001
5.697692e+002,6.382520e+001
5.707335e+002,6.320044e+001
5.716977e+002,6.400610e+001
5.726619e+002,6.512354e+001
5.736262e+002,6.479016e+001
5.745904e+002,6.160413e+001
5.755546e+002,5.809216e+001
5.765189e+002,5.756177e+001
5.774831e+002,5.852124e+001
5.784473e+002,5.967932e+001
5.794116e+002,6.044641e+001
5.803758e+002,6.114990e+001
5.813400e+002,5.938647e+001
5.823043e+002,5.296851e+001
5.832685e+002,4.761609e+001
5.842327e+002,4.655920e+001
5.851970e+002,4.957214e+001
5.861612e+002,5.217981e+001
5.871254e+002,5.291077e+001
5.880897e+002,5.308972e+001
5.890539e+002,5.206250e+001
5.900181e+002,5.041418e+001
5.909824e+002,4.940601e+001
5.919466e+002,5.050903e+001
5.929108e+002,5.163623e+001
5.938751e+002,5.017358e+001
5.948393e+002,4.729810e+001
5.958035e+002,4.499854e+001
5.967678e+002,4.480542e+001
5.977320e+002,4.656030e+001
5.986962e+002,4.648877e+001
5.996605e+002,4.373401e+001
6.006247e+002,4.129358e+001
6.015889e+002,4.085791e+001
6.025532e+002,4.235010e+001
6.035174e+002,4.329688e+001
6.044816e+002,4.352368e+001
6.054459e+002,4.356018e+001
6.064101e+002,4.312756e+001
6.073743e+002,4.252881e+001
6.083386e+002,4.262036e+001
6.093028e+002,4.482800e+001
6.102670e+002,4.608972e+001
6.112313e+002,4.294531e+001
6.121955e+002,3.784497e+001
6.131597e+002,3.391260e+001
6.141240e+002,3.326672e+001
6.150882e+002,3.509460e+001
6.160524e+002,3.680627e+001
6.170167e+002,3.874512e+001
6.179809e+002,4.055127e+001
6.189451e+002,4.165955e+001
6.199094e+002,4.181958e+001
6.208736e+002,4.168164e+001
6.218378e+002,4.340857e+001
6.228021e+002,4.359021e+001
6.237663e+002,4.046167e+001
6.247305e+002,3.619946e+001
6.256948e+002,3.435535e+001
6.266590e+002,3.699536e+001
6.276232e+002,3.880054e+001
6.285875e+002,3.637012e+001
6.295517e+002,3.268188e+001
6.305159e+002,3.075146e+001
6.314802e+002,3.197021e+001
6.324444e+002,3.453784e+001
6.334086e+002,3.457349e+001
6.343729e+002,3.321655e+001
6.353371e+002,3.110950e+001
6.363013e+002,2.791907e+001
6.372656e+002,2.429211e+001
6.382298e+002,2.324194e+001
6.391940e+002,2.951477e+001
6.401583e+002,3.139941e+001
6.411225e+002,2.657922e+001
6.420867e+002,1.988123e+001
6.430510e+002,1.687708e+001
6.440152e+002,1.958630e+001
6.449794e+002,2.140393e+001
6.459437e+002,1.818042e+001
6.469079e+002,1.344348e+001
6.478721e+002,9.847778e+000
6.488364e+002,8.562622e+000
6.498006e+002,8.953247e+000
6.507648e+002,1.025195e+001
6.517291e+002,1.172400e+001
6.526933e+002,1.174170e+001
6.536575e+002,9.854492e+000
6.546218e+002,7.364136e+000
6.555860e+002,6.958862e+000
6.565502e+002,1.074231e+001
6.575145e+002,1.165845e+001
6.584787e+002,7.352539e+000
6.594429e+002,2.555298e+000
6.604072e+002,1.425415e+000
6.613714e+002,4.935303e+000
6.623356e+002,8.026733e+000
6.632999e+002,6.994751e+000
6.642641e+002,5.175049e+000
6.652283e+002,5.040771e+000
6.661926e+002,6.766113e+000
6.671568e+002,8.554443e+000
6.681210e+002,7.533813e+000
6.690853e+002,4.815186e+000
6.700495e+002,4.291870e+000
6.710137e+002,5.983887e+000
6.719780e+002,8.457764e+000
6.729422e+002,1.009644e+001
6.739064e+002,1.037415e+001
6.748707e+002,1.143823e+001
6.758349e+002,1.398792e+001
6.767991e+002,1.599878e+001
6.777634e+002,1.711047e+001
6.787276e+002,1.780078e+001
6.796918e+002,1.875610e+001
6.806561e+002,2.028149e+001
6.816203e+002,2.058337e+001
6.825845e+002,1.818079e+001
6.835488e+002,1.431543e+001
6.845130e+002,1.097888e+001
6.854772e+002,9.751099e+000
6.864415e+002,1.045544e+001
6.874057e+002,1.170105e+001
6.883699e+002,1.268835e+001
6.893342e+002,1.306384e+001
6.902984e+002,1.278589e+001
6.912626e+002,1.217188e+001
6.922269e+002,1.200427e+001
6.931911e+002,1.446741e+001
6.941553e+002,1.627808e+001
6.951196e+002,1.544067e+001
6.960838e+002,1.321936e+001
6.970480e+002,1.230298e+001
6.980123e+002,1.421497e+001
6.989765e+002,1.590503e+001
6.999407e+002,1.544531e+001
7.009050e+002,1.450659e+001
7.018692e+002,1.477612e+001
7.028334e+002,1.652283e+001
7.037977e+002,1.791016e+001
7.047619e+002,1.582068e+001
7.057261e+002,1.211133e+001
7.066904e+002,9.243530e+000
7.076546e+002,7.580078e+000
7.086188e+002,7.212402e+000
7.095831e+002,8.384277e+000
7.105473e+002,1.139661e+001
7.115115e+002,1.397327e+001
7.124758e+002,1.680811e+001
7.134400e+002,1.826965e+001
7.144042e+002,1.747314e+001
7.153685e+002,1.466736e+001
7.163327e+002,1.118262e+001
7.172969e+002,4.898560e+000
7.182612e+002,8.725586e-001
7.192254e+002,2.899292e+000
7.201896e+002,8.496704e+000
7.211539e+002,1.252161e+001
7.221181e+002,1.051599e+001
7.230823e+002,5.318481e+000
7.240466e+002,4.803589e+000
7.250108e+002,8.560425e+000
7.259750e+002,1.390979e+001
7.269393e+002,1.920032e+001
7.279035e+002,2.335620e+001
7.288677e+002,2.320007e+001
7.298320e+002,1.509753e+001
7.307962e+002,9.811646e+000
7.317604e+002,9.075806e+000
7.327247e+002,1.127954e+001
7.336889e+002,1.407129e+001
7.346531e+002,1.638440e+001
7.356174e+002,1.662769e+001
7.365816e+002,1.500110e+001
7.375458e+002,1.295129e+001
7.385101e+002,1.068005e+001
7.394743e+002,8.703003e+000
7.404385e+002,8.391724e+000
7.414028e+002,1.259631e+001
7.423670e+002,1.852808e+001
7.433312e+002,1.931812e+001
7.442955e+002,1.512048e+001
7.452597e+002,1.034290e+001
7.462239e+002,9.585449e+000
7.471882e+002,1.368567e+001
7.481524e+002,1.697644e+001
7.491166e+002,1.778625e+001
7.500809e+002,1.794617e+001
7.510451e+002,1.879651e+001
7.520093e+002,1.974890e+001
7.529736e+002,1.833557e+001
7.539378e+002,1.175342e+001
7.549020e+002,7.007202e+000
7.558663e+002,9.936768e+000
7.568306e+002,1.647009e+001
7.577948e+002,2.053333e+001
7.587590e+002,1.839722e+001
7.597233e+002,1.229761e+001
7.606875e+002,1.075879e+001
7.616517e+002,1.360217e+001
7.626160e+002,1.478198e+001
7.635802e+002,1.195300e+001
7.645444e+002,7.818726e+000
7.655087e+002,8.261108e+000
7.664729e+002,1.632971e+001
7.674371e+002,2.191211e+001
7.684014e+002,2.295630e+001
7.693656e+002,2.297229e+001
7.703298e+002,2.442297e+001
7.712941e+002,2.759619e+001
7.722583e+002,3.057080e+001
7.732225e+002,3.207629e+001
7.741868e+002,3.248938e+001
7.751510e+002,3.117871e+001
7.761152e+002,2.909485e+001
7.770795e+002,2.844482e+001
7.780437e+002,3.113062e+001
7.790079e+002,3.620081e+001
7.799722e+002,3.613525e+001
7.809364e+002,3.058337e+001
7.819006e+002,2.566016e+001
7.828649e+002,2.422375e+001
7.838291e+002,2.584863e+001
7.847933e+002,2.824060e+001
7.857576e+002,3.195154e+001
7.867218e+002,3.309082e+001
7.876860e+002,2.987830e+001
7.886503e+002,2.628967e+001
7.896145e+002,2.585913e+001
7.905787e+002,2.936279e+001
7.915430e+002,3.382507e+001
7.925072e+002,3.598877e+001
7.934714e+002,3.613074e+001
7.944357e+002,3.470349e+001
7.953999e+002,3.255444e+001
7.963641e+002,3.111499e+001
7.973284e+002,3.178162e+001
7.982926e+002,3.473853e+001
7.992568e+002,3.658118e+001
8.002211e+002,3.641333e+001
8.011853e+002,3.418726e+001
8.021495e+002,2.951807e+001
8.031138e+002,2.444714e+001
8.040780e+002,2.349841e+001
8.050422e+002,2.914099e+001
8.060065e+002,3.438672e+001
8.069707e+002,3.648633e+001
8.079349e+002,3.664563e+001
8.088992e+002,3.559167e+001
8.098634e+002,3.421350e+001
8.108276e+002,3.460046e+001
8.117919e+002,4.193872e+001
8.127561e+002,5.051892e+001
8.137203e+002,4.928357e+001
8.146846e+002,3.792395e+001
8.156488e+002,2.544116e+001
8.166130e+002,2.274207e+001
8.175773e+002,3.187256e+001
8.185415e+002,3.731543e+001
8.195057e+002,3.823328e+001
8.204700e+002,3.619238e+001
8.214342e+002,2.837854e+001
8.223984e+002,1.804468e+001
8.233627e+002,1.421875e+001
8.243269e+002,2.381482e+001
8.252911e+002,3.320410e+001
8.262554e+002,3.297388e+001
8.272196e+002,2.920386e+001
8.281838e+002,2.838696e+001
8.291481e+002,3.262207e+001
8.301123e+002,3.847656e+001
8.310765e+002,3.986597e+001
8.320408e+002,3.680566e+001
8.330050e+002,3.420435e+001
8.339692e+002,3.241431e+001
8.349335e+002,3.131421e+001
8.358977e+002,3.113538e+001
8.368619e+002,3.236292e+001
8.378262e+002,3.380542e+001
8.387904e+002,3.497473e+001
8.397546e+002,3.577979e+001
8.407189e+002,3.577673e+001
8.416831e+002,3.562524e+001
8.426473e+002,3.640051e+001
8.436116e+002,3.869824e+001
8.445758e+002,4.204028e+001
8.455400e+002,4.617786e+001
8.465043e+002,4.946448e+001
8.474685e+002,5.046619e+001
8.484327e+002,4.949976e+001
8.493970e+002,4.828577e+001
8.503612e+002,4.887561e+001
8.513254e+002,5.131763e+001
8.522897e+002,5.320496e+001
8.532539e+002,5.355371e+001
8.542181e+002,5.379871e+001
8.551824e+002,5.581299e+001
8.561466e+002,5.997998e+001
8.571108e+002,6.394421e+001
8.580751e+002,6.479175e+001
8.590393e+002,6.519568e+001
8.600035e+002,6.663989e+001
8.609678e+002,6.897681e+001
8.619320e+002,7.189465e+001
8.628962e+002,7.513037e+001
8.638605e+002,7.845166e+001
8.648247e+002,8.173865e+001
8.657889e+002,8.470203e+001
8.667532e+002,8.702844e+001
8.677174e+002,8.866284e+001
8.686816e+002,8.971912e+001
8.696459e+002,9.039441e+001
8.706101e+002,9.093372e+001
8.715743e+002,9.200159e+001
8.725386e+002,9.418567e+001
8.735028e+002,9.624951e+001
8.744670e+002,9.709680e+001
8.754313e+002,9.682458e+001
8.763955e+002,9.586584e+001
8.773597e+002,9.405725e+001
8.783240e+002,9.412109e+001
8.792882e+002,9.861267e+001
8.802524e+002,1.046022e+002
8.812167e+002,1.107479e+002
8.821809e+002,1.160614e+002
8.831451e+002,1.190608e+002
8.841094e+002,1.176548e+002
8.850736e+002,1.126198e+002
8.860378e+002,1.113053e+002
8.870021e+002,1.137358e+002
8.879663e+002,1.174249e+002
8.889305e+002,1.214634e+002
8.898948e+002,1.254073e+002
8.908590e+002,1.279567e+002
8.918232e+002,1.289514e+002
8.927875e+002,1.296899e+002
8.937517e+002,1.296946e+002
8.947159e+002,1.301725e+002
8.956802e+002,1.318199e+002
8.966444e+002,1.343730e+002
8.976086e+002,1.369207e+002
8.985729e+002,1.392627e+002
8.995371e+002,1.418751e+002
9.005013e+002,1.450229e+002
9.014656e+002,1.487902e+002
9.024298e+002,1.522369e+002
9.033940e+002,1.541694e+002
9.043583e+002,1.543025e+002
9.053225e+002,1.546747e+002
9.062867e+002,1.547729e+002
9.072510e+002,1.548574e+002
9.082152e+002,1.567839e+002
9.091794e+002,1.589883e+002
9.101437e+002,1.591913e+002
9.111079e+002,1.569293e+002
9.120721e+002,1.554463e+002
9.130364e+002,1.571492e+002
9.140006e+002,1.585670e+002
9.149648e+002,1.576973e+002
9.159291e+002,1.558622e+002
9.168933e+002,1.556940e+002
9.178575e+002,1.586648e+002
9.188218e+002,1.628483e+002
9.197860e+002,1.622573e+002
9.207502e+002,1.565111e+002
9.217145e+002,1.511069e+002
9.226787e+002,1.476729e+002
9.236429e+002,1.459999e+002
9.246072e+002,1.453871e+002
9.255714e+002,1.454659e+002
9.265356e+002,1.458578e+002
9.274999e+002,1.481486e+002
9.284641e+002,1.483621e+002
9.294283e+002,1.436787e+002
9.303926e+002,1.367495e+002
9.313568e+002,1.325638e+002
9.323210e+002,1.338383e+002
9.332853e+002,1.361554e+002
9.342495e+002,1.316427e+002
9.352137e+002,1.233275e+002
9.361780e+002,1.151604e+002
9.371422e+002,1.086027e+002
9.381064e+002,1.053229e+002
9.390707e+002,1.074036e+002
9.400349e+002,1.152915e+002
9.409991e+002,1.207445e+002
9.419634e+002,1.231915e+002
9.429276e+002,1.240131e+002
9.438918e+002,1.228903e+002
9.448561e+002,1.208424e+002
9.458203e+002,1.195204e+002
9.467845e+002,1.196522e+002
9.477488e+002,1.202271e+002
9.487130e+002,1.203267e+002
9.496772e+002,1.203518e+002
9.506415e+002,1.205291e+002
9.516057e+002,1.209260e+002
9.525699e+002,1.217201e+002
9.535342e+002,1.230518e+002
9.544984e+002,1.243578e+002
9.554626e+002,1.222775e+002
9.564269e+002,1.164788e+002
9.573911e+002,1.137881e+002
9.583553e+002,1.182703e+002
9.593196e+002,1.255164e+002
9.602838e+002,1.285204e+002
9.612480e+002,1.263235e+002
9.622123e+002,1.216246e+002
9.631765e+002,1.107965e+002
9.641407e+002,1.024965e+002
9.651050e+002,1.031888e+002
9.660692e+002,1.089833e+002
9.670334e+002,1.113198e+002
9.679977e+002,1.051526e+002
9.689619e+002,9.591406e+001
9.699261e+002,9.323047e+001
9.708904e+002,9.541760e+001
9.718546e+002,1.011960e+002
9.728188e+002,1.105094e+002
9.737831e+002,1.213556e+002
9.747473e+002,1.318450e+002
9.757115e+002,1.424729e+002
9.766758e+002,1.511904e+002
9.776400e+002,1.594592e+002
9.786042e+002,1.651443e+002
9.795685e+002,1.681064e+002
9.805327e+002,1.669866e+002
9.814969e+002,1.591398e+002
9.824612e+002,1.440649e+002
9.834254e+002,1.289125e+002
9.843896e+002,1.202231e+002
9.853539e+002,1.143636e+002
9.863181e+002,1.071180e+002
9.872823e+002,9.851575e+001
9.882466e+002,9.213086e+001
9.892108e+002,9.175012e+001
9.901750e+002,9.727686e+001
9.911393e+002,1.014474e+002
9.921035e+002,1.005127e+002
9.930677e+002,1.006094e+002
9.940320e+002,1.039852e+002
9.949962e+002,1.082238e+002
9.959604e+002,1.102601e+002
9.969247e+002,1.102208e+002
9.978889e+002,1.128997e+002
9.988531e+002,1.213444e+002
9.998174e+002,1.302653e+002
1.000782e+003,1.384760e+002
1.001746e+003,1.453757e+002
1.002710e+003,1.495359e+002
1.003674e+003,1.505231e+002
1.004639e+003,1.500835e+002
1.005603e+003,1.515325e+002
1.006567e+003,1.548364e+002
1.007531e+003,1.547867e+002
1.008495e+003,1.502472e+002
1.009460e+003,1.451023e+002
1.010424e+003,1.409941e+002
1.011388e+003,1.383116e+002
1.012352e+003,1.386025e+002
1.013317e+003,1.442328e+002
1.014281e+003,1.474644e+002
1.015245e+003,1.450509e+002
1.016209e+003,1.401292e+002
1.017174e+003,1.355685e+002
1.018138e+003,1.312444e+002
1.019102e+003,1.245377e+002
1.020066e+003,1.131960e+002
1.021031e+003,9.935498e+001
1.021995e+003,8.735986e+001
1.022959e+003,7.635352e+001
1.023923e+003,6.702649e+001
1.024887e+003,5.981189e+001
1.025852e+003,5.372412e+001
1.026816e+003,4.673633e+001
1.027780e+003,3.813086e+001
1.028744e+003,3.456763e+001
1.029709e+003,4.221643e+001
1.030673e+003,4.798633e+001
1.031637e+003,4.667480e+001
1.032601e+003,4.130566e+001
1.033566e+003,3.646729e+001
1.034530e+003,3.398560e+001
1.035494e+003,3.259680e+001
1.036458e+003,3.047607e+001
1.037422e+003,2.836438e+001
1.038387e+003,2.771875e+001
1.039351e+003,2.838647e+001
1.040315e+003,2.982776e+001
1.041279e+003,3.201196e+001
1.042244e+003,3.490784e+001
1.043208e+003,3.702734e+001
1.044172e+003,3.692285e+001
1.045136e+003,3.721619e+001
1.046101e+003,3.955444e+001
1.047065e+003,4.135315e+001
1.048029e+003,3.973706e+001
1.048993e+003,3.565613e+001
1.049958e+003,3.359668e+001
1.050922e+003,3.659790e+001
1.051886e+003,4.085889e+001
1.052850e+003,4.332520e+001
1.053814e+003,4.399609e+001
1.054779e+003,4.148535e+001
1.055743e+003,3.605859e+001
1.056707e+003,3.121997e+001
1.057671e+003,3.131433e+001
1.058636e+003,3.625256e+001
1.059600e+003,4.029358e+001
1.060564e+003,4.502307e+001
1.061528e+003,4.826587e+001
1.062493e+003,4.824011e+001
1.063457e+003,4.631274e+001
1.064421e+003,4.424231e+001
1.065385e+003,4.250391e+001
1.066349e+003,4.075562e+001
1.067314e+003,3.852100e+001
1.068278e+003,3.668384e+001
1.069242e+003,3.589661e+001
1.070206e+003,3.617615e+001
1.071171e+003,3.758032e+001
1.072135e+003,3.968616e+001
1.073099e+003,4.122046e+001
1.074063e+003,4.041541e+001
1.075028e+003,3.718054e+001
1.075992e+003,3.608875e+001
1.076956e+003,3.867737e+001
1.077920e+003,3.949084e+001
1.078885e+003,3.534583e+001
1.079849e+003,2.939929e+001
1.080813e+003,2.731091e+001
1.081777e+003,3.048547e+001
1.082741e+003,3.440601e+001
1.083706e+003,3.640540e+001
1.084670e+003,3.761890e+001
1.085634e+003,3.913074e+001
1.086598e+003,4.025073e+001
1.087563e+003,3.950562e+001
1.088527e+003,3.647351e+001
1.089491e+003,3.278430e+001
1.090455e+003,3.071436e+001
1.091420e+003,2.998816e+001
1.092384e+003,2.926404e+001
1.093348e+003,2.790112e+001
1.094312e+003,2.675464e+001
1.095276e+003,2.685425e+001
1.096241e+003,2.827173e+001
1.097205e+003,3.028540e+001
1.098169e+003,3.277063e+001
1.099133e+003,3.454285e+001
1.100098e+003,3.524890e+001
1.101062e+003,3.566797e+001
1.102026e+003,3.652942e+001
1.102990e+003,3.755420e+001
1.103955e+003,3.743127e+001
1.104919e+003,3.529871e+001
1.105883e+003,3.272803e+001
1.106847e+003,3.380371e+001
1.107812e+003,3.849268e+001
1.108776e+003,4.121936e+001
1.109740e+003,4.107190e+001
1.110704e+003,4.040430e+001
1.111668e+003,4.158118e+001
1.112633e+003,4.443799e+001
1.113597e+003,4.635718e+001
1.114561e+003,4.588660e+001
1.115525e+003,4.609912e+001
1.116490e+003,4.922791e+001
1.117454e+003,5.191028e+001
1.118418e+003,5.162915e+001
1.119382e+003,4.970239e+001
1.120347e+003,4.892261e+001
1.121311e+003,5.052002e+001
1.122275e+003,5.321997e+001
1.123239e+003,5.667249e+001
1.124203e+003,6.137085e+001
1.125168e+003,6.372961e+001
1.126132e+003,6.255554e+001
1.127096e+003,6.197656e+001
1.128060e+003,6.580347e+001
1.129025e+003,7.258569e+001
1.129989e+003,7.603455e+001
1.130953e+003,7.350964e+001
1.131917e+003,7.211279e+001
1.132882e+003,7.360242e+001
1.133846e+003,7.721680e+001
1.134810e+003,8.301941e+001
1.135774e+003,9.060474e+001
1.136739e+003,9.964111e+001
1.137703e+003,1.098331e+002
1.138667e+003,1.198131e+002
1.139631e+003,1.265334e+002
1.140595e+003,1.306691e+002
1.141560e+003,1.391417e+002
1.142524e+003,1.532019e+002
1.143488e+003,1.700688e+002
1.144452e+003,1.874713e+002
1.145417e+003,2.059417e+002
1.146381e+003,2.277705e+002
1.147345e+003,2.539835e+002
1.148309e+003,2.804078e+002
1.149274e+003,3.049164e+002
1.150238e+003,3.310876e+002
1.151202e+003,3.635504e+002
1.152166e+003,3.990571e+002
1.153130e+003,4.315326e+002
1.154095e+003,4.575168e+002
1.155059e+003,4.778721e+002
1.156023e+003,4.958533e+002
1.156987e+003,5.099589e+002
1.157952e+003,5.112163e+002
1.158916e+003,4.994982e+002
1.159880e+003,4.834734e+002
1.160844e+003,4.670505e+002
1.161809e+003,4.473422e+002
1.162773e+003,4.184296e+002
1.163737e+003,3.778555e+002
1.164701e+003,3.394886e+002
1.165666e+003,3.071250e+002
1.166630e+003,2.783442e+002
1.167594e+003,2.510004e+002
1.168558e+003,2.271447e+002
1.169522e+003,2.101262e+002
1.170487e+003,2.006361e+002
1.171451e+003,1.964468e+002
1.172415e+003,1.953936e+002
1.173379e+003,1.967172e+002
1.174344e+003,1.980288e+002
1.175308e+003,1.999307e+002
1.176272e+003,1.987755e+002
1.177236e+003,1.923591e+002
1.178201e+003,1.835315e+002
1.179165e+003,1.747944e+002
1.180129e+003,1.656429e+002
1.181093e+003,1.582578e+002
1.182057e+003,1.554508e+002
1.183022e+003,1.515829e+002
1.183986e+003,1.427277e+002
1.184950e+003,1.333077e+002
1.185914e+003,1.276760e+002
1.186879e+003,1.262930e+002
1.187843e+003,1.267657e+002
1.188807e+003,1.269492e+002
1.189771e+003,1.273687e+002
1.190736e+003,1.309604e+002
1.191700e+003,1.382133e+002
1.192664e+003,1.425565e+002
1.193628e+003,1.432015e+002
1.194593e+003,1.419243e+002
1.195557e+003,1.398820e+002
1.196521e+003,1.367241e+002
1.197485e+003,1.310242e+002
1.198449e+003,1.215703e+002
1.199414e+003,1.131582e+002
1.200378e+003,1.100790e+002
1.201342e+003,1.069330e+002
1.202306e+003,9.927930e+001
1.203271e+003,8.860229e+001
1.204235e+003,7.820276e+001
1.205199e+003,7.012317e+001
1.206163e+003,6.525610e+001
1.207128e+003,6.554822e+001
1.208092e+003,7.153271e+001
1.209056e+003,7.029749e+001
1.210020e+003,5.933582e+001
1.210984e+003,4.783728e+001
1.211949e+003,3.741260e+001
1.212913e+003,2.816321e+001
1.213877e+003,2.071301e+001
1.214841e+003,1.518811e+001
1.215806e+003,1.030676e+001
1.216770e+003,5.543213e+000
1.217734e+003,1.108521e+000
1.218698e+003,-2.952515e+000
1.219663e+003,-7.081177e+000
1.220627e+003,-1.189893e+001
1.221591e+003,-1.731567e+001
1.222555e+003,-2.263940e+001
1.223520e+003,-2.716345e+001
1.224484e+003,-3.053467e+001
1.225448e+003,-3.216211e+001
1.226412e+003,-3.106836e+001
1.227376e+003,-3.060925e+001
1.228341e+003,-3.158813e+001
1.229305e+003,-3.266089e+001
1.230269e+003,-3.315686e+001
1.231233e+003,-3.327991e+001
1.232198e+003,-3.319788e+001
1.233162e+003,-3.268140e+001
1.234126e+003,-3.208716e+001
1.235090e+003,-3.197974e+001
1.236055e+003,-3.242346e+001
1.237019e+003,-3.365918e+001
1.237983e+003,-3.549939e+001
1.238947e+003,-3.707385e+001
1.239911e+003,-3.775446e+001
1.240876e+003,-3.753912e+001
1.241840e+003,-3.655994e+001
1.242804e+003,-3.469836e+001
1.243768e+003,-3.367676e+001
1.244733e+003,-3.582892e+001
1.245697e+003,-3.552527e+001
1.246661e+003,-3.077795e+001
1.247625e+003,-2.585815e+001
1.248590e+003,-2.373364e+001
1.249554e+003,-2.363000e+001
1.250518e+003,-2.316296e+001
1.251482e+003,-2.154761e+001
1.252447e+003,-1.973865e+001
1.253411e+003,-1.832788e+001
1.254375e+003,-1.696484e+001
1.255339e+003,-1.552600e+001
1.256303e+003,-1.374353e+001
1.257268e+003,-1.130249e+001
1.258232e+003,-8.625488e+000
1.259196e+003,-5.671265e+000
1.260160e+003,-7.548828e-001
1.261125e+003,7.400513e+000
1.262089e+003,1.241699e+001
1.263053e+003,8.338379e+000
1.264017e+003,6.634399e+000
1.264982e+003,1.364966e+001
1.265946e+003,2.193579e+001
1.266910e+003,2.355591e+001
1.267874e+003,1.910339e+001
1.268839e+003,1.561353e+001
1.269803e+003,1.783105e+001
1.270767e+003,2.163733e+001
1.271731e+003,1.846484e+001
1.272695e+003,8.801758e+000
1.273660e+003,2.654663e+000
1.274624e+003,6.104736e-001
1.275588e+003,-1.160889e+000
1.276552e+003,-4.283691e+000
1.277517e+003,-7.703369e+000
1.278481e+003,-9.850464e+000
1.279445e+003,-1.068127e+001
1.280409e+003,-1.227234e+001
1.281374e+003,-1.616870e+001
1.282338e+003,-1.955823e+001
1.283302e+003,-2.134412e+001
1.284266e+003,-2.181897e+001
1.285230e+003,-2.027576e+001
1.286195e+003,-1.762280e+001
1.287159e+003,-1.695850e+001
1.288123e+003,-2.063574e+001
1.289087e+003,-2.653705e+001
1.290052e+003,-2.916241e+001
1.291016e+003,-2.795294e+001
1.291980e+003,-2.663580e+001
1.292944e+003,-2.451245e+001
1.293909e+003,-2.408386e+001
1.294873e+003,-2.699927e+001
1.295837e+003,-3.095410e+001
1.296801e+003,-3.303143e+001
1.297766e+003,-3.285895e+001
1.298730e+003,-3.189728e+001
1.299694e+003,-3.089581e+001
1.300658e+003,-3.019775e+001
1.301622e+003,-2.994537e+001
1.302587e+003,-2.983679e+001
1.303551e+003,-2.980914e+001
1.304515e+003,-2.960565e+001
1.305479e+003,-2.858221e+001
1.306444e+003,-2.640808e+001
1.307408e+003,-2.356934e+001
1.308372e+003,-2.083459e+001
1.309336e+003,-1.790051e+001
1.310301e+003,-1.619958e+001
1.311265e+003,-1.477539e+001
1.312229e+003,-1.522595e+001
1.313193e+003,-2.073608e+001
1.314157e+003,-2.680939e+001
1.315122e+003,-2.774725e+001
1.316086e+003,-2.411456e+001
1.317050e+003,-2.185394e+001
1.318014e+003,-2.473535e+001
1.318979e+003,-2.978717e+001
1.319943e+003,-3.244067e+001
1.320907e+003,-3.249548e+001
1.321871e+003,-3.112933e+001
1.322836e+003,-2.891211e+001
1.323800e+003,-2.583087e+001
1.324764e+003,-2.023065e+001
1.325728e+003,-1.438940e+001
1.326693e+003,-1.333813e+001
1.327657e+003,-1.759021e+001
1.328621e+003,-2.000629e+001
1.329585e+003,-1.578235e+001
1.330549e+003,-1.150134e+001
1.331514e+003,-1.305579e+001
1.332478e+003,-1.643945e+001
1.333442e+003,-1.727600e+001
1.334406e+003,-1.542871e+001
1.335371e+003,-1.307556e+001
1.336335e+003,-1.163367e+001
1.337299e+003,-1.129614e+001
1.338263e+003,-1.270447e+001
1.339228e+003,-1.608179e+001
1.340192e+003,-1.893988e+001
1.341156e+003,-2.193011e+001
1.342120e+003,-2.357446e+001
1.343084e+003,-2.373260e+001
1.344049e+003,-2.331378e+001
1.345013e+003,-2.263062e+001
1.345977e+003,-2.131799e+001
1.346941e+003,-1.855804e+001
1.347906e+003,-1.398047e+001
1.348870e+003,-9.649292e+000
1.349834e+003,-7.331421e+000
1.350798e+003,-7.150879e+000
1.351763e+003,-8.614990e+000
1.352727e+003,-1.142346e+001
1.353691e+003,-1.491431e+001
1.354655e+003,-1.914111e+001
1.355620e+003,-2.274304e+001
1.356584e+003,-2.335004e+001
1.357548e+003,-2.129608e+001
1.358512e+003,-2.169080e+001
1.359476e+003,-2.752820e+001
1.360441e+003,-3.015204e+001
1.361405e+003,-2.365564e+001
1.362369e+003,-1.700983e+001
1.363333e+003,-1.427832e+001
1.364298e+003,-1.425409e+001
1.365262e+003,-1.484253e+001
1.366226e+003,-1.543018e+001
1.367190e+003,-1.693085e+001
1.368155e+003,-2.022272e+001
1.369119e+003,-2.421558e+001
1.370083e+003,-2.524371e+001
1.371047e+003,-2.216895e+001
1.372011e+003,-1.950812e+001
1.372976e+003,-1.791321e+001
1.373940e+003,-1.696509e+001
1.374904e+003,-1.724335e+001
1.375868e+003,-1.716504e+001
1.376833e+003,-1.367902e+001
1.377797e+003,-7.572266e+000
1.378761e+003,-5.171143e+000
1.379725e+003,-1.014771e+001
1.380690e+003,-1.582141e+001
1.381654e+003,-1.420038e+001
1.382618e+003,-9.287720e+000
1.383582e+003,-6.693359e+000
1.384547e+003,-6.489990e+000
1.385511e+003,-6.073364e+000
1.386475e+003,-4.398682e+000
1.387439e+003,-1.921875e+000
1.388403e+003,1.709961e+000
1.389368e+003,6.424072e+000
1.390332e+003,6.821533e+000
1.391296e+003,-3.515625e-002
1.392260e+003,-4.840210e+000
1.393225e+003,-4.230957e+000
1.394189e+003,-2.875366e+000
1.395153e+003,-2.459595e+000
1.396117e+003,-3.425171e+000
1.397082e+003,-7.171509e+000
1.398046e+003,-1.292444e+001
1.399010e+003,-1.612994e+001
1.399974e+003,-1.275049e+001
1.400938e+003,-6.062622e+000
1.401903e+003,-4.995728e+000
1.402867e+003,-1.032477e+001
1.403831e+003,-1.152643e+001
1.404795e+003,-7.071838e+000
1.405760e+003,-2.105957e+000
1.406724e+003,2.281494e+000
1.407688e+003,4.063599e+000
1.408652e+003,1.477051e-001
1.409617e+003,-7.585693e+000
1.410581e+003,-1.162268e+001
1.411545e+003,-8.576050e+000
1.412509e+003,-3.645386e+000
1.413474e+003,-1.921753e+000
1.414438e+003,-2.327271e+000
1.415402e+003,-2.065063e+000
1.416366e+003,-7.541504e-001
1.417330e+003,9.177246e-001
1.418295e+003,2.954956e+000
1.419259e+003,4.301880e+000
1.420223e+003,2.374878e+000
1.421187e+003,-2.220093e+000
1.422152e+003,-3.223511e+000
1.423116e+003,1.226807e+000
1.424080e+003,5.523560e+000
1.425044e+003,7.158936e+000
1.426009e+003,8.357544e+000
1.426973e+003,1.094238e+001
1.427937e+003,1.297644e+001
1.428901e+003,1.119141e+001
1.429865e+003,6.582520e+000
1.430830e+003,3.912476e+000
1.431794e+003,6.044067e+000
1.432758e+003,1.032117e+001
1.433722e+003,1.200159e+001
1.434687e+003,1.142322e+001
1.435651e+003,1.424695e+001
1.436615e+003,2.208984e+001
1.437579e+003,2.731189e+001
1.438544e+003,2.794287e+001
1.439508e+003,2.756262e+001
1.440472e+003,2.915259e+001
1.441436e+003,3.196802e+001
1.442401e+003,3.377698e+001
1.443365e+003,3.388147e+001
1.444329e+003,3.324792e+001
1.445293e+003,3.282196e+001
1.446257e+003,3.209674e+001
1.447222e+003,2.929053e+001
1.448186e+003,2.481519e+001
1.449150e+003,2.136041e+001
1.450114e+003,1.885870e+001
1.451079e+003,1.780249e+001
1.452043e+003,1.964795e+001
1.453007e+003,2.295746e+001
1.453971e+003,2.619025e+001
1.454936e+003,2.876538e+001
1.455900e+003,2.757312e+001
1.456864e+003,2.057098e+001
1.457828e+003,1.575018e+001
1.458792e+003,2.025146e+001
1.459757e+003,2.588147e+001
1.460721e+003,2.578058e+001
1.461685e+003,2.172186e+001
1.462649e+003,1.745837e+001
1.463614e+003,1.443848e+001
1.464578e+003,1.335962e+001
1.465542e+003,1.512384e+001
1.466506e+003,1.800146e+001
1.467471e+003,1.672766e+001
1.468435e+003,1.022229e+001
1.469399e+003,8.147766e+000
1.470363e+003,1.399963e+001
1.471328e+003,1.885400e+001
1.472292e+003,1.966016e+001
1.473256e+003,1.884772e+001
1.474220e+003,1.831042e+001
1.475184e+003,1.875696e+001
1.476149e+003,2.039844e+001
1.477113e+003,2.283527e+001
1.478077e+003,2.523486e+001
1.479041e+003,2.720447e+001
1.480006e+003,2.921655e+001
1.480970e+003,3.178168e+001
1.481934e+003,3.494226e+001
1.482898e+003,3.583130e+001
1.483863e+003,3.277637e+001
1.484827e+003,2.983502e+001
1.485791e+003,2.666370e+001
1.486755e+003,2.614172e+001
1.487719e+003,3.225659e+001
1.488684e+003,4.246918e+001
1.489648e+003,5.051953e+001
1.490612e+003,5.466846e+001
1.491576e+003,5.742761e+001
1.492541e+003,6.010309e+001
1.493505e+003,6.333179e+001
1.494469e+003,6.915613e+001
1.495433e+003,7.658582e+001
1.496398e+003,8.320599e+001
1.497362e+003,8.920557e+001
1.498326e+003,9.580859e+001
1.499290e+003,1.038630e+002
1.500255e+003,1.125145e+002
1.501219e+003,1.195358e+002
1.502183e+003,1.254988e+002
1.503147e+003,1.346185e+002
1.504111e+003,1.478802e+002
1.505076e+003,1.640165e+002
1.506040e+003,1.834167e+002
1.507004e+003,2.045892e+002
1.507968e+003,2.245424e+002
1.508933e+003,2.453754e+002
1.509897e+003,2.720358e+002
1.510861e+003,3.060757e+002
1.511825e+003,3.432338e+002
1.512790e+003,3.792053e+002
1.513754e+003,4.171134e+002
1.514718e+003,4.663209e+002
1.515682e+003,5.261264e+002
1.516646e+003,5.777656e+002
1.517611e+003,6.184541e+002
1.518575e+003,6.557589e+002
1.519539e+003,6.960707e+002
1.520503e+003,7.305917e+002
1.521468e+003,7.552612e+002
1.522432e+003,7.702897e+002
1.523396e+003,7.755499e+002
1.524360e+003,7.719065e+002
1.525325e+003,7.623218e+002
1.526289e+003,7.489369e+002
1.527253e+003,7.305164e+002
1.528217e+003,7.041819e+002
1.529182e+003,6.703552e+002
1.530146e+003,6.340333e+002
1.531110e+003,5.966281e+002
1.532074e+003,5.525217e+002
1.533039e+003,4.966515e+002
1.534003e+003,4.378690e+002
1.534967e+003,3.778200e+002
1.535931e+003,3.208179e+002
1.536896e+003,2.705200e+002
1.537860e+003,2.274894e+002
1.538824e+003,1.897993e+002
1.539788e+003,1.563230e+002
1.540752e+003,1.293253e+002
1.541717e+003,1.124012e+002
1.542681e+003,1.045441e+002
1.543645e+003,9.701794e+001
1.544609e+003,9.024268e+001
1.545573e+003,8.435632e+001
1.546538e+003,7.762433e+001
1.547502e+003,7.242566e+001
1.548466e+003,7.090015e+001
1.549430e+003,7.166211e+001
1.550395e+003,7.354352e+001
1.551359e+003,7.562476e+001
1.552323e+003,7.714929e+001
1.553287e+003,7.781604e+001
1.554252e+003,7.640826e+001
1.555216e+003,7.143884e+001
1.556180e+003,6.454321e+001
1.557144e+003,5.961475e+001
1.558109e+003,5.696686e+001
1.559073e+003,5.416132e+001
1.560037e+003,5.027954e+001
1.561001e+003,4.632642e+001
1.561966e+003,4.254895e+001
1.562930e+003,4.037250e+001
1.563894e+003,4.115564e+001
1.564858e+003,4.387122e+001
1.565823e+003,4.693738e+001
1.566787e+003,4.980463e+001
1.567751e+003,5.049292e+001
1.568715e+003,4.730225e+001
1.569679e+003,4.397424e+001
1.570644e+003,4.565106e+001
1.571608e+003,5.016528e+001
1.572572e+003,5.213452e+001
1.573536e+003,5.171350e+001
1.574500e+003,5.134796e+001
1.575465e+003,5.168152e+001
1.576429e+003,5.208716e+001
1.577393e+003,5.108899e+001
1.578357e+003,4.987726e+001
1.579322e+003,5.194763e+001
1.580286e+003,5.732471e+001
1.581250e+003,6.117334e+001
1.582214e+003,6.171454e+001
1.583179e+003,6.155774e+001
1.584143e+003,6.197888e+001
1.585107e+003,6.275024e+001
1.586071e+003,6.461371e+001
1.587036e+003,6.760303e+001
1.588000e+003,6.995325e+001
1.588964e+003,7.088928e+001
1.589928e+003,7.115802e+001
1.590893e+003,7.132568e+001
1.591857e+003,7.123145e+001
1.592821e+003,6.976636e+001
1.593785e+003,6.769147e+001
1.594750e+003,6.954773e+001
1.595714e+003,7.643689e+001
1.596678e+003,8.187964e+001
1.597642e+003,8.236127e+001
1.598606e+003,8.213696e+001
1.599571e+003,8.590149e+001
1.600535e+003,9.063074e+001
1.601499e+003,9.161334e+001
1.602463e+003,8.915479e+001
1.603427e+003,8.725671e+001
1.604392e+003,8.754199e+001
1.605356e+003,8.909222e+001
1.606320e+003,9.180713e+001
1.607284e+003,9.485034e+001
1.608249e+003,9.539709e+001
1.609213e+003,9.334613e+001
1.610177e+003,9.212024e+001
1.611141e+003,9.299878e+001
1.612106e+003,9.298315e+001
1.613070e+003,8.958771e+001
1.614034e+003,8.557275e+001
1.614998e+003,8.237329e+001
1.615963e+003,8.022192e+001
1.616927e+003,7.935455e+001
1.617891e+003,7.959937e+001
1.618855e+003,8.043433e+001
1.619820e+003,8.147668e+001
1.620784e+003,8.169977e+001
1.621748e+003,8.053003e+001
1.622712e+003,7.876648e+001
1.623677e+003,7.617224e+001
1.624641e+003,7.213458e+001
1.625605e+003,7.145947e+001
1.626569e+003,7.586841e+001
1.627533e+003,7.995313e+001
1.628498e+003,8.120221e+001
1.629462e+003,8.214636e+001
1.630426e+003,8.521069e+001
1.631390e+003,8.935681e+001
1.632354e+003,9.247333e+001
1.633319e+003,9.386768e+001
1.634283e+003,9.318945e+001
1.635247e+003,8.967212e+001
1.636211e+003,8.517792e+001
1.637176e+003,8.355237e+001
1.638140e+003,8.482007e+001
1.639104e+003,8.556396e+001
1.640068e+003,8.523468e+001
1.641033e+003,8.516870e+001
1.641997e+003,8.618689e+001
1.642961e+003,8.738013e+001
1.643925e+003,8.801117e+001
1.644890e+003,8.870142e+001
1.645854e+003,9.106006e+001
1.646818e+003,9.368176e+001
1.647782e+003,9.221539e+001
1.648747e+003,8.569812e+001
1.649711e+003,8.030933e+001
1.650675e+003,8.175537e+001
1.651639e+003,8.723322e+001
1.652604e+003,9.057751e+001
1.653568e+003,9.156885e+001
1.654532e+003,9.193835e+001
1.655496e+003,9.213934e+001
1.656460e+003,9.035156e+001
1.657425e+003,8.467505e+001
1.658389e+003,7.917822e+001
1.659353e+003,7.656232e+001
1.660317e+003,7.474902e+001
1.661281e+003,7.013123e+001
1.662246e+003,6.422278e+001
1.663210e+003,6.313458e+001
1.664174e+003,6.880176e+001
1.665138e+003,7.443933e+001
1.666103e+003,7.410742e+001
1.667067e+003,6.973431e+001
1.668031e+003,6.440857e+001
1.668995e+003,5.855457e+001
1.669960e+003,5.693335e+001
1.670924e+003,6.127069e+001
1.671888e+003,6.454150e+001
1.672852e+003,6.337134e+001
1.673817e+003,6.183582e+001
1.674781e+003,6.318402e+001
1.675745e+003,6.497937e+001
1.676709e+003,6.415845e+001
1.677674e+003,6.134558e+001
1.678638e+003,5.942584e+001
1.679602e+003,5.929541e+001
1.680566e+003,5.831750e+001
1.681531e+003,5.406677e+001
1.682495e+003,4.896088e+001
1.683459e+003,4.681091e+001
1.684423e+003,4.687341e+001
1.685387e+003,4.640259e+001
1.686352e+003,4.538428e+001
1.687316e+003,4.309833e+001
1.688280e+003,3.742999e+001
1.689244e+003,3.395050e+001
1.690208e+003,4.002002e+001
1.691173e+003,4.800787e+001
1.692137e+003,4.934924e+001
1.693101e+003,4.585815e+001
1.694065e+003,4.340210e+001
1.695030e+003,4.299664e+001
1.695994e+003,4.165833e+001
1.696958e+003,3.659680e+001
1.697922e+003,3.139880e+001
1.698887e+003,3.167365e+001
1.699851e+003,3.540344e+001
1.700815e+003,3.538995e+001
1.701779e+003,3.090088e+001
1.702744e+003,2.781311e+001
1.703708e+003,2.874445e+001
1.704672e+003,3.055945e+001
1.705636e+003,3.030780e+001
1.706601e+003,2.901300e+001
1.707565e+003,2.913696e+001
1.708529e+003,3.053076e+001
1.709493e+003,3.198688e+001
1.710458e+003,3.349359e+001
1.711422e+003,3.310077e+001
1.712386e+003,2.870654e+001
1.713350e+003,2.448059e+001
1.714314e+003,2.357361e+001
1.715279e+003,2.419177e+001
1.716243e+003,2.383752e+001
1.717207e+003,2.256311e+001
1.718171e+003,2.146991e+001
1.719135e+003,2.096796e+001
1.720100e+003,2.092493e+001
1.721064e+003,2.119250e+001
1.722028e+003,2.130762e+001
1.722992e+003,2.093884e+001
1.723957e+003,2.069263e+001
1.724921e+003,2.121515e+001
1.725885e+003,2.185968e+001
1.726849e+003,2.196246e+001
1.727814e+003,2.264148e+001
1.728778e+003,2.291187e+001
1.729742e+003,2.147046e+001
1.730706e+003,1.986914e+001
1.731671e+003,1.968768e+001
1.732635e+003,1.960742e+001
1.733599e+003,1.746960e+001
1.734563e+003,1.368195e+001
1.735528e+003,1.052838e+001
1.736492e+003,8.984131e+000
1.737456e+003,8.389343e+000
1.738420e+003,7.983276e+000
1.739385e+003,7.576477e+000
1.740349e+003,7.943970e+000
1.741313e+003,9.699219e+000
1.742277e+003,1.092017e+001
1.743241e+003,1.160559e+001
1.744206e+003,1.258185e+001
1.745170e+003,1.504669e+001
1.746134e+003,1.604120e+001
1.747098e+003,1.229431e+001
1.748063e+003,7.345093e+000
1.749027e+003,5.444458e+000
1.749991e+003,6.272827e+000
1.750955e+003,7.238342e+000
1.751919e+003,7.286987e+000
1.752884e+003,7.084961e+000
1.753848e+003,7.182800e+000
1.754812e+003,7.304016e+000
1.755776e+003,7.192627e+000
1.756741e+003,7.275452e+000
1.757705e+003,7.989136e+000
1.758669e+003,9.375488e+000
1.759633e+003,1.009283e+001
1.760598e+003,8.712280e+000
1.761562e+003,7.796021e+000
1.762526e+003,9.215637e+000
1.763490e+003,1.109009e+001
1.764455e+003,1.257544e+001
1.765419e+003,1.350507e+001
1.766383e+003,1.358356e+001
1.767347e+003,1.254132e+001
1.768312e+003,1.003772e+001
1.769276e+003,5.733337e+000
1.770240e+003,1.438538e+000
1.771204e+003,-4.145508e-001
1.772168e+003,-7.556152e-002
1.773133e+003,1.322083e+000
1.774097e+003,3.576538e+000
1.775061e+003,4.703857e+000
1.776025e+003,3.903870e+000
1.776990e+003,2.789429e+000
1.777954e+003,2.018494e+000
1.778918e+003,2.414429e+000
1.779882e+003,5.484558e+000
1.780846e+003,8.422241e+000
1.781811e+003,6.898132e+000
1.782775e+003,2.688171e+000
1.783739e+003,1.712708e+000
1.784703e+003,5.260681e+000
1.785668e+003,8.409058e+000
1.786632e+003,8.378052e+000
1.787596e+003,7.194031e+000
1.788560e+003,6.285889e+000
1.789525e+003,6.395020e+000
1.790489e+003,8.993713e+000
1.791453e+003,1.258002e+001
1.792417e+003,1.252319e+001
1.793382e+003,8.376648e+000
1.794346e+003,5.918884e+000
1.795310e+003,8.326721e+000
1.796274e+003,1.086163e+001
1.797239e+003,7.889465e+000
1.798203e+003,2.499573e+000
1.799167e+003,3.247620e+000
1.800131e+003,1.073206e+001
1.801095e+003,1.356689e+001
1.802060e+003,9.146729e+000
1.803024e+003,6.547424e+000
1.803988e+003,7.223145e+000
1.804952e+003,8.479492e+000
1.805917e+003,9.556641e+000
1.806881e+003,1.013745e+001
1.807845e+003,9.632629e+000
1.808809e+003,8.914063e+000
1.809773e+003,9.988831e+000
1.810738e+003,1.275775e+001
1.811702e+003,1.410181e+001
1.812666e+003,1.210797e+001
1.813630e+003,1.006146e+001
1.814595e+003,1.281482e+001
1.815559e+003,1.852832e+001
1.816523e+003,1.982782e+001
1.817487e+003,1.635449e+001
1.818452e+003,1.376550e+001
1.819416e+003,1.283527e+001
1.820380e+003,1.266907e+001
1.821344e+003,1.304742e+001
1.822309e+003,1.314117e+001
1.823273e+003,1.349194e+001
1.824237e+003,1.321741e+001
1.825201e+003,9.975403e+000
1.826166e+003,5.142151e+000
1.827130e+003,2.591064e+000
1.828094e+003,2.823242e+000
1.829058e+003,4.394958e+000
1.830022e+003,7.629089e+000
1.830987e+003,1.065765e+001
1.831951e+003,1.191400e+001
1.832915e+003,1.205731e+001
1.833879e+003,1.203564e+001
1.834844e+003,1.168591e+001
1.835808e+003,9.262207e+000
1.836772e+003,5.221802e+000
1.837736e+003,5.883423e+000
1.838700e+003,1.401282e+001
1.839665e+003,2.102765e+001
1.840629e+003,1.867181e+001
1.841593e+003,1.215210e+001
1.842557e+003,1.257477e+001
1.843522e+003,1.977612e+001
1.844486e+003,2.284613e+001
1.845450e+003,1.946570e+001
1.846414e+003,1.751422e+001
1.847379e+003,1.738391e+001
1.848343e+003,1.658771e+001
1.849307e+003,1.351355e+001
1.850271e+003,1.099017e+001
1.851236e+003,1.163220e+001
1.852200e+003,1.417285e+001
1.853164e+003,1.680267e+001
1.854128e+003,1.844690e+001
1.855093e+003,1.845966e+001
1.856057e+003,1.707568e+001
1.857021e+003,1.501141e+001
1.857985e+003,1.243091e+001
1.858949e+003,1.002411e+001
1.859914e+003,9.097717e+000
1.860878e+003,9.688171e+000
1.861842e+003,1.180811e+001
1.862806e+003,1.536407e+001
1.863771e+003,1.653296e+001
1.864735e+003,1.365704e+001
1.865699e+003,1.236890e+001
1.866663e+003,1.651569e+001
1.867627e+003,2.112726e+001
1.868592e+003,2.097534e+001
1.869556e+003,1.804498e+001
1.870520e+003,1.715192e+001
1.871484e+003,1.781232e+001
1.872449e+003,1.683057e+001
1.873413e+003,1.437238e+001
1.874377e+003,1.371191e+001
1.875341e+003,1.524457e+001
1.876306e+003,1.718506e+001
1.877270e+003,1.812842e+001
1.878234e+003,1.915759e+001
1.879198e+003,2.268378e+001
1.880163e+003,2.684314e+001
1.881127e+003,2.820514e+001
1.882091e+003,2.657410e+001
1.883055e+003,2.306531e+001
1.884020e+003,1.850647e+001
1.884984e+003,1.525830e+001
1.885948e+003,1.552368e+001
1.886912e+003,1.796802e+001
1.887876e+003,2.006763e+001
1.888841e+003,2.191467e+001
1.889805e+003,2.407306e+001
1.890769e+003,2.681458e+001
1.891733e+003,2.840833e+001
1.892698e+003,2.827338e+001
1.893662e+003,2.700342e+001
1.894626e+003,2.335681e+001
1.895590e+003,2.087860e+001
1.896554e+003,2.386493e+001
1.897519e+003,2.848737e+001
1.898483e+003,2.904706e+001
1.899447e+003,2.650616e+001
1.900411e+003,2.673242e+001
1.901376e+003,3.110321e+001
1.902340e+003,3.329736e+001
1.903304e+003,2.917889e+001
1.904268e+003,2.492017e+001
1.905233e+003,2.494971e+001
1.906197e+003,2.636627e+001
1.907161e+003,2.587476e+001
1.908125e+003,2.489978e+001
1.909090e+003,2.648163e+001
1.910054e+003,2.986969e+001
1.911018e+003,3.169769e+001
1.911982e+003,3.115302e+001
1.912947e+003,3.003186e+001
1.913911e+003,2.951471e+001
1.914875e+003,3.019348e+001
1.915839e+003,3.305859e+001
1.916803e+003,3.711792e+001
1.917768e+003,3.904474e+001
1.918732e+003,3.885406e+001
1.919696e+003,3.859656e+001
1.920660e+003,3.861694e+001
1.921625e+003,3.844861e+001
1.922589e+003,3.723145e+001
1.923553e+003,3.638867e+001
1.924517e+003,3.734235e+001
1.925481e+003,3.853058e+001
1.926446e+003,3.830054e+001
1.927410e+003,3.746332e+001
1.928374e+003,3.779340e+001
1.929338e+003,3.899243e+001
1.930303e+003,3.884357e+001
1.931267e+003,3.686853e+001
1.932231e+003,3.559821e+001
1.933195e+003,3.513593e+001
1.934160e+003,3.594775e+001
1.935124e+003,4.048639e+001
1.936088e+003,4.452905e+001
1.937052e+003,4.281488e+001
1.938017e+003,3.722900e+001
1.938981e+003,3.124341e+001
1.939945e+003,2.621289e+001
1.940909e+003,2.339325e+001
1.941874e+003,2.321832e+001
1.942838e+003,2.515485e+001
1.943802e+003,2.919904e+001
1.944766e+003,3.481519e+001
1.945730e+003,4.077820e+001
1.946695e+003,4.619684e+001
1.947659e+003,4.512952e+001
1.948623e+003,3.658136e+001
1.949587e+003,3.160297e+001
1.950552e+003,3.203601e+001
1.951516e+003,3.450073e+001
1.952480e+003,3.916589e+001
1.953444e+003,4.283478e+001
1.954408e+003,4.295209e+001
1.955373e+003,4.060101e+001
1.956337e+003,3.687146e+001
1.957301e+003,3.289874e+001
1.958265e+003,3.085663e+001
1.959230e+003,3.087817e+001
1.960194e+003,3.278021e+001
1.961158e+003,3.718158e+001
1.962122e+003,4.094543e+001
1.963087e+003,4.386548e+001
1.964051e+003,4.544849e+001
1.965015e+003,4.525714e+001
1.965979e+003,4.459070e+001
1.966944e+003,4.378711e+001
1.967908e+003,4.308801e+001
1.968872e+003,4.329321e+001
1.969836e+003,4.433789e+001
1.970801e+003,4.505786e+001
1.971765e+003,4.505084e+001
1.972729e+003,4.543866e+001
1.973693e+003,4.729492e+001
1.974657e+003,4.952673e+001
1.975622e+003,5.033368e+001
1.976586e+003,4.997174e+001
1.977550e+003,4.953149e+001
1.978514e+003,4.922321e+001
1.979479e+003,4.892566e+001
1.980443e+003,4.857867e+001
1.981407e+003,4.922479e+001
1.982371e+003,5.149103e+001
1.983335e+003,5.386493e+001
1.984300e+003,5.494141e+001
1.985264e+003,5.520569e+001
1.986228e+003,5.576563e+001
1.987192e+003,5.637097e+001
1.988157e+003,5.566089e+001
1.989121e+003,5.328131e+001
1.990085e+003,5.252045e+001
1.991049e+003,5.556439e+001
1.992014e+003,5.633160e+001
1.992978e+003,5.149780e+001
1.993942e+003,4.733563e+001
1.994906e+003,4.530548e+001
1.995871e+003,4.539825e+001
1.996835e+003,4.937555e+001
1.997799e+003,5.472906e+001
1.998763e+003,5.695544e+001
1.999728e+003,5.660260e+001
