5.003444e+002,3.170680e+001
5.013087e+002,3.020726e+001
5.022729e+002,2.943988e+001
5.032371e+002,2.914514e+001
5.042014e+002,2.741737e+001
5.051656e+002,2.460091e+001
5.061298e+002,2.254831e+001
5.070941e+002,2.307718e+001
5.080583e+002,2.690419e+001
5.090225e+002,2.869069e+001
5.099868e+002,2.762585e+001
5.109510e+002,2.609909e+001
5.119152e+002,2.541389e+001
5.128795e+002,2.571465e+001
5.138437e+002,2.554688e+001
5.148079e+002,2.347803e+001
5.157722e+002,2.175874e+001
5.167364e+002,2.162192e+001
5.177006e+002,2.293945e+001
5.186649e+002,2.432069e+001
5.196291e+002,2.418437e+001
5.205933e+002,2.336087e+001
5.215576e+002,2.209970e+001
5.225218e+002,2.055659e+001
5.234860e+002,1.950432e+001
5.244503e+002,2.061133e+001
5.254145e+002,2.513541e+001
5.263787e+002,2.669585e+001
5.273430e+002,2.360292e+001
5.283072e+002,1.871393e+001
5.292714e+002,1.583109e+001
5.302357e+002,1.550423e+001
5.311999e+002,1.587674e+001
5.321641e+002,1.740381e+001
5.331284e+002,1.918495e+001
5.340926e+002,2.067110e+001
5.350568e+002,2.162784e+001
5.360211e+002,2.151898e+001
5.369853e+002,1.902220e+001
5.379495e+002,1.613664e+001
5.389138e+002,1.458047e+001
5.398780e+002,1.492252e+001
5.408422e+002,1.634621e+001
5.418065e+002,1.676738e+001
5.427707e+002,1.630548e+001
5.437349e+002,1.548813e+001
5.446992e+002,1.409927e+001
5.456634e+002,1.260910e+001
5.466276e+002,1.277931e+001
5.475919e+002,1.760139e+001
5.485561e+002,2.046907e+001
5.495203e+002,2.023465e+001
5.504846e+002,1.810693e+001
5.514488e+002,1.573012e+001
5.524130e+002,1.341008e+001
5.533773e+002,1.169963e+001
5.543415e+002,1.091438e+001
5.553057e+002,1.066908e+001
5.562700e+002,1.058025e+001
5.572342e+002,1.039230e+001
5.581984e+002,1.019113e+001
5.591627e+002,1.062119e+001
5.601269e+002,1.139600e+001
5.610911e+002,1.158656e+001
5.620554e+002,1.064778e+001
5.630196e+002,8.642258e+000
5.639838e+002,6.607681e+000
5.649481e+002,3.229904e+000
5.659123e+002,1.696762e+000
5.668765e+002,4.193680e+000
5.678408e+002,9.208771e+000
5.688050e+002,1.209146e+001
5.697692e+002,9.722931e+000
5.707335e+002,7.288330e+000
5.716977e+002,6.050751e+000
5.726619e+002,5.912796e+000
5.736262e+002,6.800659e+000
5.745904e+002,8.888489e+000
5.755546e+002,1.119812e+001
5.765189e+002,1.208194e+001
5.774831e+002,1.189577e+001
5.784473e+002,1.144827e+001
5.794116e+002,1.134584e+001
5.803758e+002,1.156509e+001
5.813400e+002,1.037648e+001
5.823043e+002,6.952530e+000
5.832685e+002,4.105270e+000
5.842327e+002,2.864273e+000
5.851970e+002,3.207397e+000
5.861612e+002,4.423721e+000
5.871254e+002,8.199158e+000
5.880897e+002,1.065936e+001
5.890539e+002,1.028865e+001
5.900181e+002,8.170700e+000
5.909824e+002,6.180786e+000
5.919466e+002,5.530853e+000
5.929108e+002,5.423096e+000
5.938751e+002,4.679428e+000
5.948393e+002,3.758743e+000
5.958035e+002,3.546448e+000
5.967678e+002,4.687683e+000
5.977320e+002,6.916107e+000
5.986962e+002,7.485306e+000
5.996605e+002,6.237396e+000
6.006247e+002,5.110260e+000
6.015889e+002,5.250671e+000
6.025532e+002,6.543274e+000
6.035174e+002,7.002350e+000
6.044816e+002,6.049911e+000
6.054459e+002,4.808960e+000
6.064101e+002,2.983475e+000
6.073743e+002,1.024353e+000
6.083386e+002,-3.601837e-001
6.093028e+002,-8.003235e-001
6.102670e+002,-3.588715e-001
6.112313e+002,1.209198e+000
6.121955e+002,3.204941e+000
6.131597e+002,4.727585e+000
6.141240e+002,5.158951e+000
6.150882e+002,4.743347e+000
6.160524e+002,4.658783e+000
6.170167e+002,4.912399e+000
6.179809e+002,4.850372e+000
6.189451e+002,3.845490e+000
6.199094e+002,2.077026e+000
6.208736e+002,1.460342e+000
6.218378e+002,4.340744e+000
6.228021e+002,5.962204e+000
6.237663e+002,4.924606e+000
6.247305e+002,2.677719e+000
6.256948e+002,1.635376e+000
6.266590e+002,3.102310e+000
6.276232e+002,4.657333e+000
6.285875e+002,5.151321e+000
6.295517e+002,4.961945e+000
6.305159e+002,4.219147e+000
6.314802e+002,3.015747e+000
6.324444e+002,1.631561e+000
6.334086e+002,9.667664e-001
6.343729e+002,9.902344e-001
6.353371e+002,1.859940e+000
6.363013e+002,3.848099e+000
6.372656e+002,6.310638e+000
6.382298e+002,7.039001e+000
6.391940e+002,4.279984e+000
6.401583e+002,1.755676e+000
6.411225e+002,-7.195435e-001
6.420867e+002,-2.548447e+000
6.430510e+002,-2.789078e+000
6.440152e+002,-6.531677e-001
6.449794e+002,7.267456e-001
6.459437e+002,-1.015121e+000
6.469079e+002,-3.478745e+000
6.478721e+002,-4.561737e+000
6.488364e+002,-3.635666e+000
6.498006e+002,-2.162949e+000
6.507648e+002,-3.487503e+000
6.517291e+002,-6.254868e+000
6.526933e+002,-6.620804e+000
6.536575e+002,-3.743607e+000
6.546218e+002,5.303040e-001
6.555860e+002,2.699783e+000
6.565502e+002,1.890213e+000
6.575145e+002,2.943268e-001
6.584787e+002,-3.041061e+000
6.594429e+002,-6.284836e+000
6.604072e+002,-8.047165e+000
6.613714e+002,-8.089005e+000
6.623356e+002,-7.171234e+000
6.632999e+002,-4.366959e+000
6.642641e+002,-1.988739e+000
6.652283e+002,-1.450195e+000
6.661926e+002,-2.570374e+000
6.671568e+002,-4.074020e+000
6.681210e+002,-4.664856e+000
6.690853e+002,-4.468903e+000
6.700495e+002,-3.833206e+000
6.710137e+002,-2.786392e+000
6.719780e+002,-1.568924e+000
6.729422e+002,-4.167633e-001
6.739064e+002,6.442108e-001
6.748707e+002,1.393478e+000
6.758349e+002,2.477097e+000
6.767991e+002,2.612457e+000
6.777634e+002,5.848541e-001
6.787276e+002,-3.083527e+000
6.796918e+002,-5.314392e+000
6.806561e+002,-3.602448e+000
6.816203e+002,-1.954895e+000
6.825845e+002,-2.381760e+000
6.835488e+002,-3.851959e+000
6.845130e+002,-4.405060e+000
6.854772e+002,-2.468796e+000
6.864415e+002,8.012543e-001
6.874057e+002,2.922928e+000
6.883699e+002,3.893585e+000
6.893342e+002,3.624619e+000
6.902984e+002,1.987762e+000
6.912626e+002,-6.814575e-001
6.922269e+002,-2.363770e+000
6.931911e+002,-2.257034e+000
6.941553e+002,-1.818405e+000
6.951196e+002,-1.303574e+000
6.960838e+002,-6.970215e-001
6.970480e+002,2.251740e-001
6.980123e+002,1.818802e+000
6.989765e+002,3.104889e+000
6.999407e+002,4.024124e+000
7.009050e+002,4.319107e+000
7.018692e+002,3.334717e+000
7.028334e+002,1.067108e+000
7.037977e+002,-1.293732e+000
7.047619e+002,-1.429825e+000
7.057261e+002,-1.986084e-001
7.066904e+002,4.637451e-001
7.076546e+002,2.419281e-001
7.086188e+002,-5.006866e-001
7.095831e+002,-1.260117e+000
7.105473e+002,-2.337784e+000
7.115115e+002,-2.553467e+000
7.124758e+002,-1.106384e+000
7.134400e+002,1.479034e-001
7.144042e+002,-3.085938e-001
7.153685e+002,-2.388641e+000
7.163327e+002,-3.411621e+000
7.172969e+002,-1.269531e-001
7.182612e+002,2.613571e+000
7.192254e+002,2.157440e+000
7.201896e+002,-4.991760e-001
7.211539e+002,-3.000259e+000
7.221181e+002,-3.385666e+000
7.230823e+002,-2.267166e+000
7.240466e+002,-1.427567e+000
7.250108e+002,-6.838226e-001
7.259750e+002,3.795166e-001
7.269393e+002,2.044510e+000
7.279035e+002,3.941040e+000
7.288677e+002,4.179703e+000
7.298320e+002,5.912018e-001
7.307962e+002,-1.385727e+000
7.317604e+002,2.050781e-002
7.327247e+002,2.703186e+000
7.336889e+002,3.331192e+000
7.346531e+002,1.472321e-001
7.356174e+002,-2.795349e+000
7.365816e+002,-2.735016e+000
7.375458e+002,-1.490509e+000
7.385101e+002,-2.947235e-001
7.394743e+002,4.489441e-001
7.404385e+002,1.180649e+000
7.414028e+002,2.818970e+000
7.423670e+002,4.530975e+000
7.433312e+002,3.916275e+000
7.442955e+002,8.282623e-001
7.452597e+002,-2.736069e+000
7.462239e+002,-4.707413e+000
7.471882e+002,-4.880112e+000
7.481524e+002,-4.420425e+000
7.491166e+002,-3.378983e+000
7.500809e+002,-2.176300e+000
7.510451e+002,-5.739746e-001
7.520093e+002,1.134872e+000
7.529736e+002,2.003998e+000
7.539378e+002,1.178940e+000
7.549020e+002,3.799591e-001
7.558663e+002,9.489441e-001
7.568306e+002,2.113251e+000
7.577948e+002,2.607819e+000
7.587590e+002,1.683319e+000
7.597233e+002,-2.723694e-002
7.606875e+002,-1.464386e-001
7.616517e+002,1.205460e+000
7.626160e+002,2.297684e+000
7.635802e+002,2.689606e+000
7.645444e+002,2.667923e+000
7.655087e+002,2.681488e+000
7.664729e+002,2.308624e+000
7.674371e+002,2.934784e+000
7.684014e+002,6.161469e+000
7.693656e+002,8.850403e+000
7.703298e+002,8.523865e+000
7.712941e+002,5.179062e+000
7.722583e+002,1.772964e+000
7.732225e+002,1.342773e-003
7.741868e+002,-4.333496e-001
7.751510e+002,1.071121e+000
7.761152e+002,3.704834e+000
7.770795e+002,5.739807e+000
7.780437e+002,5.621140e+000
7.790079e+002,3.605591e+000
7.799722e+002,2.100266e+000
7.809364e+002,1.069153e+000
7.819006e+002,2.606049e-001
7.828649e+002,-5.572357e-001
7.838291e+002,-1.095795e+000
7.847933e+002,-4.779358e-001
7.857576e+002,2.227783e+000
7.867218e+002,4.138992e+000
7.876860e+002,4.995117e+000
7.886503e+002,5.094254e+000
7.896145e+002,4.500076e+000
7.905787e+002,3.297897e+000
7.915430e+002,1.893295e+000
7.925072e+002,2.377319e-001
7.934714e+002,-1.281067e+000
7.944357e+002,-2.150681e+000
7.953999e+002,-2.193329e+000
7.963641e+002,-1.245605e+000
7.973284e+002,9.094086e-001
7.982926e+002,4.400330e+000
7.992568e+002,6.431290e+000
8.002211e+002,6.867203e+000
8.011853e+002,6.065857e+000
8.021495e+002,3.513596e+000
8.031138e+002,9.608459e-002
8.040780e+002,-1.542221e+000
8.050422e+002,-8.041382e-003
8.060065e+002,1.498154e+000
8.069707e+002,1.715057e+000
8.079349e+002,1.364349e+000
8.088992e+002,1.318115e+000
8.098634e+002,1.901489e+000
8.108276e+002,2.516739e+000
8.117919e+002,1.819626e+000
8.127561e+002,3.791504e-001
8.137203e+002,7.598877e-003
8.146846e+002,1.029846e+000
8.156488e+002,2.427124e+000
8.166130e+002,2.861069e+000
8.175773e+002,2.147858e+000
8.185415e+002,1.289337e+000
8.195057e+002,-5.339661e-001
8.204700e+002,-1.760788e+000
8.214342e+002,-1.457123e+000
8.223984e+002,-1.456451e-001
8.233627e+002,6.774750e-001
8.243269e+002,1.300812e-001
8.252911e+002,-3.965759e-002
8.262554e+002,1.607376e+000
8.272196e+002,3.775558e+000
8.281838e+002,5.088608e+000
8.291481e+002,5.068283e+000
8.301123e+002,4.296143e+000
8.310765e+002,3.564377e+000
8.320408e+002,3.012100e+000
8.330050e+002,3.956619e+000
8.339692e+002,7.021271e+000
8.349335e+002,9.987625e+000
8.358977e+002,1.031453e+001
8.368619e+002,7.605331e+000
8.378262e+002,5.827545e+000
8.387904e+002,5.719101e+000
8.397546e+002,5.611725e+000
8.407189e+002,4.901627e+000
8.416831e+002,3.991852e+000
8.426473e+002,3.586288e+000
8.436116e+002,4.001541e+000
8.445758e+002,5.095764e+000
8.455400e+002,7.427536e+000
8.465043e+002,9.667770e+000
8.474685e+002,1.024257e+001
8.484327e+002,8.938110e+000
8.493970e+002,6.756363e+000
8.503612e+002,5.141235e+000
8.513254e+002,4.024551e+000
8.522897e+002,4.205475e+000
8.532539e+002,6.681946e+000
8.542181e+002,8.825195e+000
8.551824e+002,9.016159e+000
8.561466e+002,7.621674e+000
8.571108e+002,6.571014e+000
8.580751e+002,5.786957e+000
8.590393e+002,5.373383e+000
8.600035e+002,5.509247e+000
8.609678e+002,6.162766e+000
8.619320e+002,7.420670e+000
8.628962e+002,9.239365e+000
8.638605e+002,1.118465e+001
8.648247e+002,1.296399e+001
8.657889e+002,1.417638e+001
8.667532e+002,1.349576e+001
8.677174e+002,1.076079e+001
8.686816e+002,8.048218e+000
8.696459e+002,7.939957e+000
8.706101e+002,1.100539e+001
8.715743e+002,1.296864e+001
8.725386e+002,1.314050e+001
8.735028e+002,1.324799e+001
8.744670e+002,1.331995e+001
8.754313e+002,1.350916e+001
8.763955e+002,1.435712e+001
8.773597e+002,1.642186e+001
8.783240e+002,1.809564e+001
8.792882e+002,1.789783e+001
8.802524e+002,1.693512e+001
8.812167e+002,1.593561e+001
8.821809e+002,1.520935e+001
8.831451e+002,1.491338e+001
8.841094e+002,1.532671e+001
8.850736e+002,1.649675e+001
8.860378e+002,1.709639e+001
8.870021e+002,1.688167e+001
8.879663e+002,1.673166e+001
8.889305e+002,1.711655e+001
8.898948e+002,1.789809e+001
8.908590e+002,1.855721e+001
8.918232e+002,1.892279e+001
8.927875e+002,1.967784e+001
8.937517e+002,2.161751e+001
8.947159e+002,2.350357e+001
8.956802e+002,2.381021e+001
8.966444e+002,2.240509e+001
8.976086e+002,2.116939e+001
8.985729e+002,2.267923e+001
8.995371e+002,2.518439e+001
9.005013e+002,2.505507e+001
9.014656e+002,2.283247e+001
9.024298e+002,2.129465e+001
9.033940e+002,2.255542e+001
9.043583e+002,2.606706e+001
9.053225e+002,2.829741e+001
9.062867e+002,2.850598e+001
9.072510e+002,2.796655e+001
9.082152e+002,2.599388e+001
9.091794e+002,2.406441e+001
9.101437e+002,2.384885e+001
9.111079e+002,2.561569e+001
9.120721e+002,2.726024e+001
9.130364e+002,2.757886e+001
9.140006e+002,2.707159e+001
9.149648e+002,2.534175e+001
9.159291e+002,2.326323e+001
9.168933e+002,2.246045e+001
9.178575e+002,2.397195e+001
9.188218e+002,2.681657e+001
9.197860e+002,2.781804e+001
9.207502e+002,2.692355e+001
9.217145e+002,2.548666e+001
9.226787e+002,2.334221e+001
9.236429e+002,2.145406e+001
9.246072e+002,2.128409e+001
9.255714e+002,2.317923e+001
9.265356e+002,2.438753e+001
9.274999e+002,2.409412e+001
9.284641e+002,2.332733e+001
9.294283e+002,2.219833e+001
9.303926e+002,2.100092e+001
9.313568e+002,2.013872e+001
9.323210e+002,1.983060e+001
9.332853e+002,1.962909e+001
9.342495e+002,1.887648e+001
9.352137e+002,1.769347e+001
9.361780e+002,1.601436e+001
9.371422e+002,1.396121e+001
9.381064e+002,1.250131e+001
9.390707e+002,1.296300e+001
9.400349e+002,1.564909e+001
9.409991e+002,1.720992e+001
9.419634e+002,1.708455e+001
9.429276e+002,1.666377e+001
9.438918e+002,1.604909e+001
9.448561e+002,1.550023e+001
9.458203e+002,1.551738e+001
9.467845e+002,1.640425e+001
9.477488e+002,1.724789e+001
9.487130e+002,1.721458e+001
9.496772e+002,1.689636e+001
9.506415e+002,1.668240e+001
9.516057e+002,1.663281e+001
9.525699e+002,1.659846e+001
9.535342e+002,1.640588e+001
9.544984e+002,1.607166e+001
9.554626e+002,1.636203e+001
9.564269e+002,1.773213e+001
9.573911e+002,1.854431e+001
9.583553e+002,1.800310e+001
9.593196e+002,1.672112e+001
9.602838e+002,1.553481e+001
9.612480e+002,1.426147e+001
9.622123e+002,1.383534e+001
9.631765e+002,1.562650e+001
9.641407e+002,1.730096e+001
9.651050e+002,1.788609e+001
9.660692e+002,1.735678e+001
9.670334e+002,1.577769e+001
9.679977e+002,1.321251e+001
9.689619e+002,1.078659e+001
9.699261e+002,1.137924e+001
9.708904e+002,1.385910e+001
9.718546e+002,1.528038e+001
9.728188e+002,1.478436e+001
9.737831e+002,1.372818e+001
9.747473e+002,1.398022e+001
9.757115e+002,1.582640e+001
9.766758e+002,1.772017e+001
9.776400e+002,2.080315e+001
9.786042e+002,2.275775e+001
9.795685e+002,2.237234e+001
9.805327e+002,2.061349e+001
9.814969e+002,1.885130e+001
9.824612e+002,1.762732e+001
9.834254e+002,1.647609e+001
9.843896e+002,1.382886e+001
9.853539e+002,1.151758e+001
9.863181e+002,1.248579e+001
9.872823e+002,1.609865e+001
9.882466e+002,1.905042e+001
9.892108e+002,1.862766e+001
9.901750e+002,1.559207e+001
9.911393e+002,1.415697e+001
9.921035e+002,1.528519e+001
9.930677e+002,1.576530e+001
9.940320e+002,1.537521e+001
9.949962e+002,1.465642e+001
9.959604e+002,1.389665e+001
9.969247e+002,1.318823e+001
9.978889e+002,1.298447e+001
9.988531e+002,1.321350e+001
9.998174e+002,1.406371e+001
1.000782e+003,1.647304e+001
1.001746e+003,1.943523e+001
1.002710e+003,2.131744e+001
1.003674e+003,2.147618e+001
1.004639e+003,2.094029e+001
1.005603e+003,2.167043e+001
1.006567e+003,2.375572e+001
1.007531e+003,2.343713e+001
1.008495e+003,1.940195e+001
1.009460e+003,1.573824e+001
1.010424e+003,1.515819e+001
1.011388e+003,1.702974e+001
1.012352e+003,1.876335e+001
1.013317e+003,2.015395e+001
1.014281e+003,2.099754e+001
1.015245e+003,2.121617e+001
1.016209e+003,2.091859e+001
1.017174e+003,2.016357e+001
1.018138e+003,1.902832e+001
1.019102e+003,1.767715e+001
1.020066e+003,1.631505e+001
1.021031e+003,1.478304e+001
1.021995e+003,1.169838e+001
1.022959e+003,7.375778e+000
1.023923e+003,4.760880e+000
1.024887e+003,5.262497e+000
1.025852e+003,7.059006e+000
1.026816e+003,7.078522e+000
1.027780e+003,4.751007e+000
1.028744e+003,3.869186e+000
1.029709e+003,6.828461e+000
1.030673e+003,8.718063e+000
1.031637e+003,7.192245e+000
1.032601e+003,3.998154e+000
1.033566e+003,1.699814e+000
1.034530e+003,1.231094e+000
1.035494e+003,1.447693e+000
1.036458e+003,1.046982e+000
1.037422e+003,4.642944e-001
1.038387e+003,5.594482e-001
1.039351e+003,1.266129e+000
1.040315e+003,1.983582e+000
1.041279e+003,2.308807e+000
1.042244e+003,2.381226e+000
1.043208e+003,2.657120e+000
1.044172e+003,3.539719e+000
1.045136e+003,3.586975e+000
1.046101e+003,1.947784e+000
1.047065e+003,4.628296e-001
1.048029e+003,7.269287e-001
1.048993e+003,2.208466e+000
1.049958e+003,2.581192e+000
1.050922e+003,2.537842e-001
1.051886e+003,-1.913284e+000
1.052850e+003,-5.154266e-001
1.053814e+003,2.483063e+000
1.054779e+003,4.809128e+000
1.055743e+003,5.849792e+000
1.056707e+003,5.994995e+000
1.057671e+003,5.683395e+000
1.058636e+003,4.884033e+000
1.059600e+003,4.243179e+000
1.060564e+003,3.930573e+000
1.061528e+003,3.847595e+000
1.062493e+003,4.166656e+000
1.063457e+003,4.343475e+000
1.064421e+003,3.620789e+000
1.065385e+003,2.005936e+000
1.066349e+003,9.381561e-001
1.067314e+003,1.553574e+000
1.068278e+003,2.492554e+000
1.069242e+003,2.909607e+000
1.070206e+003,2.993561e+000
1.071171e+003,3.038589e+000
1.072135e+003,3.112259e+000
1.073099e+003,2.978622e+000
1.074063e+003,2.278900e+000
1.075028e+003,9.363098e-001
1.075992e+003,1.047272e+000
1.076956e+003,3.696518e+000
1.077920e+003,5.534271e+000
1.078885e+003,4.881058e+000
1.079849e+003,2.968140e+000
1.080813e+003,1.912491e+000
1.081777e+003,2.068130e+000
1.082741e+003,2.771179e+000
1.083706e+003,4.726364e+000
1.084670e+003,5.959595e+000
1.085634e+003,4.544830e+000
1.086598e+003,1.666748e+000
1.087563e+003,-8.718872e-002
1.088527e+003,6.890717e-001
1.089491e+003,2.521622e+000
1.090455e+003,2.111847e+000
1.091420e+003,-9.653778e-001
1.092384e+003,-1.272568e+000
1.093348e+003,2.931458e+000
1.094312e+003,6.495255e+000
1.095276e+003,5.579773e+000
1.096241e+003,1.912933e+000
1.097205e+003,1.004730e+000
1.098169e+003,4.906662e+000
1.099133e+003,7.075699e+000
1.100098e+003,3.080322e+000
1.101062e+003,-1.331512e+000
1.102026e+003,-2.305649e+000
1.102990e+003,-6.311951e-001
1.103955e+003,8.125458e-001
1.104919e+003,2.442169e-001
1.105883e+003,-1.411545e+000
1.106847e+003,-2.260117e+000
1.107812e+003,-2.240463e+000
1.108776e+003,-1.174942e+000
1.109740e+003,1.625641e+000
1.110704e+003,4.071152e+000
1.111668e+003,4.502243e+000
1.112633e+003,3.444061e+000
1.113597e+003,2.792648e+000
1.114561e+003,2.653748e+000
1.115525e+003,2.840851e+000
1.116490e+003,3.430344e+000
1.117454e+003,4.103943e+000
1.118418e+003,4.930222e+000
1.119382e+003,5.787781e+000
1.120347e+003,6.309097e+000
1.121311e+003,6.167953e+000
1.122275e+003,5.468369e+000
1.123239e+003,4.664291e+000
1.124203e+003,3.952774e+000
1.125168e+003,3.537857e+000
1.126132e+003,3.383759e+000
1.127096e+003,3.775894e+000
1.128060e+003,5.225418e+000
1.129025e+003,7.380188e+000
1.129989e+003,8.722534e+000
1.130953e+003,8.840195e+000
1.131917e+003,8.684769e+000
1.132882e+003,8.569122e+000
1.133846e+003,8.378845e+000
1.134810e+003,7.373734e+000
1.135774e+003,6.332687e+000
1.136739e+003,7.287521e+000
1.137703e+003,1.130548e+001
1.138667e+003,1.608984e+001
1.139631e+003,1.736916e+001
1.140595e+003,1.552145e+001
1.141560e+003,1.483060e+001
1.142524e+003,1.557968e+001
1.143488e+003,1.750656e+001
1.144452e+003,2.077202e+001
1.145417e+003,2.504086e+001
1.146381e+003,2.893707e+001
1.147345e+003,3.179181e+001
1.148309e+003,3.592558e+001
1.149274e+003,4.361301e+001
1.150238e+003,5.100885e+001
1.151202e+003,5.575215e+001
1.152166e+003,5.893031e+001
1.153130e+003,6.311517e+001
1.154095e+003,6.925378e+001
1.155059e+003,7.497972e+001
1.156023e+003,7.696230e+001
1.156987e+003,7.555280e+001
1.157952e+003,7.429877e+001
1.158916e+003,7.353044e+001
1.159880e+003,7.247035e+001
1.160844e+003,7.087115e+001
1.161809e+003,6.822244e+001
1.162773e+003,6.341576e+001
1.163737e+003,5.590179e+001
1.164701e+003,4.880115e+001
1.165666e+003,4.262885e+001
1.166630e+003,3.751628e+001
1.167594e+003,3.419162e+001
1.168558e+003,3.164072e+001
1.169522e+003,2.809483e+001
1.170487e+003,2.334366e+001
1.171451e+003,1.973322e+001
1.172415e+003,2.017978e+001
1.173379e+003,2.357925e+001
1.174344e+003,2.378502e+001
1.175308e+003,2.064616e+001
1.176272e+003,1.858780e+001
1.177236e+003,2.009702e+001
1.178201e+003,2.264421e+001
1.179165e+003,2.274693e+001
1.180129e+003,2.028705e+001
1.181093e+003,1.792448e+001
1.182057e+003,1.567270e+001
1.183022e+003,1.458614e+001
1.183986e+003,1.593105e+001
1.184950e+003,1.786032e+001
1.185914e+003,1.871552e+001
1.186879e+003,1.832463e+001
1.187843e+003,1.737112e+001
1.188807e+003,1.635002e+001
1.189771e+003,1.541479e+001
1.190736e+003,1.532930e+001
1.191700e+003,1.622255e+001
1.192664e+003,1.643214e+001
1.193628e+003,1.558548e+001
1.194593e+003,1.449207e+001
1.195557e+003,1.372459e+001
1.196521e+003,1.313275e+001
1.197485e+003,1.211044e+001
1.198449e+003,1.026784e+001
1.199414e+003,9.039581e+000
1.200378e+003,1.009184e+001
1.201342e+003,1.106529e+001
1.202306e+003,1.004521e+001
1.203271e+003,7.733521e+000
1.204235e+003,5.903046e+000
1.205199e+003,5.444611e+000
1.206163e+003,5.685867e+000
1.207128e+003,5.466599e+000
1.208092e+003,4.760498e+000
1.209056e+003,4.521469e+000
1.210020e+003,5.130646e+000
1.210984e+003,5.390152e+000
1.211949e+003,4.621033e+000
1.212913e+003,3.477585e+000
1.213877e+003,3.207199e+000
1.214841e+003,3.846436e+000
1.215806e+003,3.180099e+000
1.216770e+003,-4.869537e-001
1.217734e+003,-4.438553e+000
1.218698e+003,-7.433594e+000
1.219663e+003,-9.354172e+000
1.220627e+003,-9.507080e+000
1.221591e+003,-8.192200e+000
1.222555e+003,-7.045258e+000
1.223520e+003,-7.582642e+000
1.224484e+003,-9.327072e+000
1.225448e+003,-1.021260e+001
1.226412e+003,-9.751114e+000
1.227376e+003,-9.520630e+000
1.228341e+003,-9.854782e+000
1.229305e+003,-1.012085e+001
1.230269e+003,-9.530869e+000
1.231233e+003,-8.763748e+000
1.232198e+003,-9.473785e+000
1.233162e+003,-1.213211e+001
1.234126e+003,-1.439241e+001
1.235090e+003,-1.457866e+001
1.236055e+003,-1.362727e+001
1.237019e+003,-1.221048e+001
1.237983e+003,-1.062022e+001
1.238947e+003,-9.236542e+000
1.239911e+003,-8.173218e+000
1.240876e+003,-7.837555e+000
1.241840e+003,-9.131821e+000
1.242804e+003,-1.221780e+001
1.243768e+003,-1.381754e+001
1.244733e+003,-1.263774e+001
1.245697e+003,-1.155928e+001
1.246661e+003,-1.097667e+001
1.247625e+003,-1.060840e+001
1.248590e+003,-1.015085e+001
1.249554e+003,-9.563416e+000
1.250518e+003,-8.926361e+000
1.251482e+003,-8.302841e+000
1.252447e+003,-8.106628e+000
1.253411e+003,-9.230179e+000
1.254375e+003,-1.076060e+001
1.255339e+003,-1.088684e+001
1.256303e+003,-9.498398e+000
1.257268e+003,-7.222961e+000
1.258232e+003,-4.004913e+000
1.259196e+003,-9.504852e-001
1.260160e+003,-3.841705e-001
1.261125e+003,-2.660553e+000
1.262089e+003,-4.587845e+000
1.263053e+003,-6.338516e+000
1.264017e+003,-7.254318e+000
1.264982e+003,-6.994202e+000
1.265946e+003,-5.908554e+000
1.266910e+003,-3.752167e+000
1.267874e+003,-1.064362e+000
1.268839e+003,7.701263e-001
1.269803e+003,8.257599e-001
1.270767e+003,-1.753540e-001
1.271731e+003,-7.857666e-001
1.272695e+003,-1.034378e+000
1.273660e+003,-2.476700e+000
1.274624e+003,-6.059555e+000
1.275588e+003,-8.884354e+000
1.276552e+003,-8.604004e+000
1.277517e+003,-6.677551e+000
1.278481e+003,-6.148193e+000
1.279445e+003,-7.347504e+000
1.280409e+003,-7.936325e+000
1.281374e+003,-6.236252e+000
1.282338e+003,-5.029678e+000
1.283302e+003,-6.334427e+000
1.284266e+003,-8.539490e+000
1.285230e+003,-9.857025e+000
1.286195e+003,-1.002148e+001
1.287159e+003,-9.808838e+000
1.288123e+003,-9.806000e+000
1.289087e+003,-9.826706e+000
1.290052e+003,-9.481094e+000
1.291016e+003,-8.553345e+000
1.291980e+003,-8.436783e+000
1.292944e+003,-9.988617e+000
1.293909e+003,-1.136627e+001
1.294873e+003,-1.180807e+001
1.295837e+003,-1.153047e+001
1.296801e+003,-1.053091e+001
1.297766e+003,-8.959122e+000
1.298730e+003,-8.207672e+000
1.299694e+003,-9.442642e+000
1.300658e+003,-1.114293e+001
1.301622e+003,-1.186336e+001
1.302587e+003,-1.171747e+001
1.303551e+003,-1.051622e+001
1.304515e+003,-8.339478e+000
1.305479e+003,-6.392365e+000
1.306444e+003,-5.760468e+000
1.307408e+003,-6.087021e+000
1.308372e+003,-5.974457e+000
1.309336e+003,-5.158691e+000
1.310301e+003,-4.756332e+000
1.311265e+003,-4.649994e+000
1.312229e+003,-5.036530e+000
1.313193e+003,-6.537903e+000
1.314157e+003,-8.244781e+000
1.315122e+003,-9.255661e+000
1.316086e+003,-9.490738e+000
1.317050e+003,-9.295181e+000
1.318014e+003,-8.800018e+000
1.318979e+003,-8.331116e+000
1.319943e+003,-8.757690e+000
1.320907e+003,-9.846924e+000
1.321871e+003,-1.002628e+001
1.322836e+003,-9.298218e+000
1.323800e+003,-7.958908e+000
1.324764e+003,-4.933456e+000
1.325728e+003,-1.971924e+000
1.326693e+003,-2.867706e+000
1.327657e+003,-7.858673e+000
1.328621e+003,-1.135017e+001
1.329585e+003,-1.103737e+001
1.330549e+003,-9.762527e+000
1.331514e+003,-8.957703e+000
1.332478e+003,-8.553940e+000
1.333442e+003,-8.553467e+000
1.334406e+003,-8.749619e+000
1.335371e+003,-8.842117e+000
1.336335e+003,-8.635651e+000
1.337299e+003,-7.926117e+000
1.338263e+003,-6.204880e+000
1.339228e+003,-3.119522e+000
1.340192e+003,-2.356232e+000
1.341156e+003,-6.357605e+000
1.342120e+003,-8.937408e+000
1.343084e+003,-8.273575e+000
1.344049e+003,-6.930298e+000
1.345013e+003,-7.085480e+000
1.345977e+003,-8.254562e+000
1.346941e+003,-8.509506e+000
1.347906e+003,-7.126877e+000
1.348870e+003,-5.350662e+000
1.349834e+003,-3.856003e+000
1.350798e+003,-3.243973e+000
1.351763e+003,-5.082748e+000
1.352727e+003,-8.739639e+000
1.353691e+003,-1.052667e+001
1.354655e+003,-8.764297e+000
1.355620e+003,-5.902695e+000
1.356584e+003,-4.577927e+000
1.357548e+003,-4.660797e+000
1.358512e+003,-5.537277e+000
1.359476e+003,-7.960434e+000
1.360441e+003,-9.551117e+000
1.361405e+003,-9.296478e+000
1.362369e+003,-8.429840e+000
1.363333e+003,-7.087128e+000
1.364298e+003,-5.713577e+000
1.365262e+003,-4.746292e+000
1.366226e+003,-4.332306e+000
1.367190e+003,-4.469254e+000
1.368155e+003,-5.167038e+000
1.369119e+003,-6.239136e+000
1.370083e+003,-7.082230e+000
1.371047e+003,-7.635620e+000
1.372011e+003,-7.892181e+000
1.372976e+003,-7.858353e+000
1.373940e+003,-7.779861e+000
1.374904e+003,-7.908844e+000
1.375868e+003,-7.842041e+000
1.376833e+003,-6.728317e+000
1.377797e+003,-4.799622e+000
1.378761e+003,-3.836029e+000
1.379725e+003,-4.752365e+000
1.380690e+003,-6.208267e+000
1.381654e+003,-7.181885e+000
1.382618e+003,-7.598892e+000
1.383582e+003,-7.364426e+000
1.384547e+003,-6.464600e+000
1.385511e+003,-4.615082e+000
1.386475e+003,-1.357544e+000
1.387439e+003,1.625488e+000
1.388403e+003,1.390381e+000
1.389368e+003,-2.063232e+000
1.390332e+003,-4.808517e+000
1.391296e+003,-6.669907e+000
1.392260e+003,-7.774368e+000
1.393225e+003,-8.109253e+000
1.394189e+003,-7.919998e+000
1.395153e+003,-7.070038e+000
1.396117e+003,-5.893738e+000
1.397082e+003,-4.681854e+000
1.398046e+003,-3.604675e+000
1.399010e+003,-3.000061e+000
1.399974e+003,-3.285507e+000
1.400938e+003,-4.093140e+000
1.401903e+003,-3.834747e+000
1.402867e+003,-1.807083e+000
1.403831e+003,-4.047852e-001
1.404795e+003,2.717743e-001
1.405760e+003,2.252502e-001
1.406724e+003,-1.468521e+000
1.407688e+003,-3.627594e+000
1.408652e+003,-4.628937e+000
1.409617e+003,-4.374130e+000
1.410581e+003,-3.753952e+000
1.411545e+003,-3.044830e+000
1.412509e+003,-2.467514e+000
1.413474e+003,-2.420944e+000
1.414438e+003,-2.735550e+000
1.415402e+003,-3.061646e+000
1.416366e+003,-3.217392e+000
1.417330e+003,-2.625656e+000
1.418295e+003,-8.002319e-001
1.419259e+003,8.674164e-001
1.420223e+003,3.101807e-001
1.421187e+003,-2.090347e+000
1.422152e+003,-3.339386e+000
1.423116e+003,-2.794312e+000
1.424080e+003,-2.595230e+000
1.425044e+003,-4.242523e+000
1.426009e+003,-5.564011e+000
1.426973e+003,-5.542847e+000
1.427937e+003,-4.771881e+000
1.428901e+003,-3.719849e+000
1.429865e+003,-2.611557e+000
1.430830e+003,-1.736801e+000
1.431794e+003,-1.333649e+000
1.432758e+003,-1.319916e+000
1.433722e+003,-1.401642e+000
1.434687e+003,-1.422531e+000
1.435651e+003,-1.368073e+000
1.436615e+003,-2.123642e+000
1.437579e+003,-2.250732e+000
1.438544e+003,-8.288422e-001
1.439508e+003,5.499878e-001
1.440472e+003,8.487244e-001
1.441436e+003,4.608765e-001
1.442401e+003,-1.799011e-002
1.443365e+003,-3.892212e-001
1.444329e+003,-2.409210e-001
1.445293e+003,8.876038e-001
1.446257e+003,2.423370e+000
1.447222e+003,3.322556e+000
1.448186e+003,3.595673e+000
1.449150e+003,3.252792e+000
1.450114e+003,2.199600e+000
1.451079e+003,7.590790e-001
1.452043e+003,-1.885468e+000
1.453007e+003,-3.990860e+000
1.453971e+003,-2.125046e+000
1.454936e+003,2.902618e+000
1.455900e+003,4.826675e+000
1.456864e+003,1.454010e+000
1.457828e+003,-1.708176e+000
1.458792e+003,-9.858246e-001
1.459757e+003,6.538239e-001
1.460721e+003,1.153336e+000
1.461685e+003,6.121979e-001
1.462649e+003,-7.865295e-001
1.463614e+003,-2.801300e+000
1.464578e+003,-4.408661e+000
1.465542e+003,-4.714737e+000
1.466506e+003,-4.086960e+000
1.467471e+003,-3.315323e+000
1.468435e+003,-2.090271e+000
1.469399e+003,-1.634445e+000
1.470363e+003,-3.453217e+000
1.471328e+003,-4.235046e+000
1.472292e+003,-2.567215e+000
1.473256e+003,-5.344238e-001
1.474220e+003,7.872772e-001
1.475184e+003,1.406265e+000
1.476149e+003,1.434845e+000
1.477113e+003,9.527435e-001
1.478077e+003,2.756653e-001
1.479041e+003,-2.064667e-001
1.480006e+003,-4.212952e-001
1.480970e+003,-3.733215e-001
1.481934e+003,-2.659454e-001
1.482898e+003,5.413513e-001
1.483863e+003,3.237076e+000
1.484827e+003,4.829880e+000
1.485791e+003,3.714310e+000
1.486755e+003,2.070206e+000
1.487719e+003,1.675095e+000
1.488684e+003,2.379990e+000
1.489648e+003,3.513046e+000
1.490612e+003,4.883774e+000
1.491576e+003,6.217117e+000
1.492541e+003,7.256104e+000
1.493505e+003,8.031296e+000
1.494469e+003,8.577942e+000
1.495433e+003,8.811691e+000
1.496398e+003,8.874771e+000
1.497362e+003,8.765732e+000
1.498326e+003,9.170761e+000
1.499290e+003,1.043048e+001
1.500255e+003,1.237343e+001
1.501219e+003,1.508597e+001
1.502183e+003,1.830264e+001
1.503147e+003,2.058043e+001
1.504111e+003,2.132492e+001
1.505076e+003,2.258804e+001
1.506040e+003,2.595590e+001
1.507004e+003,3.002101e+001
1.507968e+003,3.333492e+001
1.508933e+003,3.623909e+001
1.509897e+003,3.924579e+001
1.510861e+003,4.268561e+001
1.511825e+003,4.743123e+001
1.512790e+003,5.424371e+001
1.513754e+003,6.204672e+001
1.514718e+003,6.915479e+001
1.515682e+003,7.546587e+001
1.516646e+003,8.058917e+001
1.517611e+003,8.362949e+001
1.518575e+003,8.790981e+001
1.519539e+003,9.696745e+001
1.520503e+003,1.051337e+002
1.521468e+003,1.089795e+002
1.522432e+003,1.101978e+002
1.523396e+003,1.115492e+002
1.524360e+003,1.132008e+002
1.525325e+003,1.131219e+002
1.526289e+003,1.099999e+002
1.527253e+003,1.052993e+002
1.528217e+003,1.016913e+002
1.529182e+003,9.930029e+001
1.530146e+003,9.514708e+001
1.531110e+003,8.839185e+001
1.532074e+003,8.117200e+001
1.533039e+003,7.356337e+001
1.534003e+003,6.518498e+001
1.534967e+003,5.560419e+001
1.535931e+003,4.581512e+001
1.536896e+003,3.615392e+001
1.537860e+003,2.735852e+001
1.538824e+003,2.094983e+001
1.539788e+003,1.757062e+001
1.540752e+003,1.590871e+001
1.541717e+003,1.444655e+001
1.542681e+003,1.312558e+001
1.543645e+003,1.115678e+001
1.544609e+003,7.871796e+000
1.545573e+003,6.077591e+000
1.546538e+003,6.580521e+000
1.547502e+003,7.122101e+000
1.548466e+003,7.019638e+000
1.549430e+003,6.762512e+000
1.550395e+003,6.539642e+000
1.551359e+003,6.518265e+000
1.552323e+003,7.397751e+000
1.553287e+003,9.324341e+000
1.554252e+003,1.075029e+001
1.555216e+003,1.024734e+001
1.556180e+003,8.460236e+000
1.557144e+003,6.787094e+000
1.558109e+003,5.284775e+000
1.559073e+003,3.850937e+000
1.560037e+003,2.039886e+000
1.561001e+003,8.721924e-001
1.561966e+003,9.210663e-001
1.562930e+003,1.837311e+000
1.563894e+003,3.742401e+000
1.564858e+003,6.002792e+000
1.565823e+003,7.130768e+000
1.566787e+003,6.880630e+000
1.567751e+003,6.565292e+000
1.568715e+003,6.999191e+000
1.569679e+003,7.563980e+000
1.570644e+003,7.301468e+000
1.571608e+003,6.472061e+000
1.572572e+003,6.228180e+000
1.573536e+003,6.702896e+000
1.574500e+003,6.596405e+000
1.575465e+003,4.914978e+000
1.576429e+003,3.338028e+000
1.577393e+003,3.561890e+000
1.578357e+003,4.621796e+000
1.579322e+003,4.400772e+000
1.580286e+003,2.959854e+000
1.581250e+003,2.734680e+000
1.582214e+003,4.824661e+000
1.583179e+003,6.873657e+000
1.584143e+003,6.810699e+000
1.585107e+003,5.948822e+000
1.586071e+003,6.511459e+000
1.587036e+003,8.028244e+000
1.588000e+003,8.240967e+000
1.588964e+003,6.441864e+000
1.589928e+003,5.597000e+000
1.590893e+003,8.932526e+000
1.591857e+003,1.313791e+001
1.592821e+003,1.235487e+001
1.593785e+003,7.684464e+000
1.594750e+003,5.818405e+000
1.595714e+003,8.028366e+000
1.596678e+003,9.554001e+000
1.597642e+003,7.811600e+000
1.598606e+003,5.863098e+000
1.599571e+003,6.098267e+000
1.600535e+003,7.678787e+000
1.601499e+003,1.022842e+001
1.602463e+003,1.317647e+001
1.603427e+003,1.442537e+001
1.604392e+003,1.300623e+001
1.605356e+003,1.078160e+001
1.606320e+003,9.422867e+000
1.607284e+003,8.796570e+000
1.608249e+003,8.567627e+000
1.609213e+003,8.750168e+000
1.610177e+003,8.942169e+000
1.611141e+003,9.019348e+000
1.612106e+003,9.261383e+000
1.613070e+003,1.033891e+001
1.614034e+003,1.109608e+001
1.614998e+003,1.000101e+001
1.615963e+003,8.290802e+000
1.616927e+003,8.433426e+000
1.617891e+003,1.048642e+001
1.618855e+003,1.200255e+001
1.619820e+003,1.150372e+001
1.620784e+003,9.620880e+000
1.621748e+003,6.529190e+000
1.622712e+003,2.955521e+000
1.623677e+003,3.237213e+000
1.624641e+003,8.373520e+000
1.625605e+003,1.161780e+001
1.626569e+003,1.020757e+001
1.627533e+003,8.342743e+000
1.628498e+003,8.324554e+000
1.629462e+003,8.781998e+000
1.630426e+003,8.219696e+000
1.631390e+003,7.225510e+000
1.632354e+003,7.615387e+000
1.633319e+003,9.613251e+000
1.634283e+003,1.095227e+001
1.635247e+003,9.706879e+000
1.636211e+003,7.554108e+000
1.637176e+003,7.973251e+000
1.638140e+003,1.075978e+001
1.639104e+003,1.169675e+001
1.640068e+003,9.897430e+000
1.641033e+003,9.063690e+000
1.641997e+003,1.113780e+001
1.642961e+003,1.299092e+001
1.643925e+003,1.286885e+001
1.644890e+003,1.195567e+001
1.645854e+003,1.124683e+001
1.646818e+003,1.076373e+001
1.647782e+003,1.013049e+001
1.648747e+003,9.267075e+000
1.649711e+003,8.870056e+000
1.650675e+003,9.722961e+000
1.651639e+003,1.116412e+001
1.652604e+003,1.162492e+001
1.653568e+003,1.108443e+001
1.654532e+003,1.061568e+001
1.655496e+003,1.024001e+001
1.656460e+003,1.009320e+001
1.657425e+003,1.084100e+001
1.658389e+003,1.105681e+001
1.659353e+003,9.076324e+000
1.660317e+003,6.863647e+000
1.661281e+003,6.917160e+000
1.662246e+003,8.570236e+000
1.663210e+003,9.423203e+000
1.664174e+003,8.730560e+000
1.665138e+003,7.501389e+000
1.666103e+003,6.319397e+000
1.667067e+003,5.435440e+000
1.668031e+003,5.703995e+000
1.668995e+003,7.030579e+000
1.669960e+003,7.586655e+000
1.670924e+003,7.125076e+000
1.671888e+003,6.512222e+000
1.672852e+003,5.798965e+000
1.673817e+003,5.176254e+000
1.674781e+003,4.580215e+000
1.675745e+003,4.240234e+000
1.676709e+003,4.746689e+000
1.677674e+003,5.715805e+000
1.678638e+003,5.791901e+000
1.679602e+003,4.571213e+000
1.680566e+003,3.563339e+000
1.681531e+003,4.189392e+000
1.682495e+003,5.520065e+000
1.683459e+003,5.773376e+000
1.684423e+003,5.085800e+000
1.685387e+003,4.811752e+000
1.686352e+003,5.186935e+000
1.687316e+003,5.265427e+000
1.688280e+003,4.517456e+000
1.689244e+003,3.827133e+000
1.690208e+003,4.140396e+000
1.691173e+003,4.596466e+000
1.692137e+003,4.146042e+000
1.693101e+003,3.135468e+000
1.694065e+003,2.544144e+000
1.695030e+003,2.522400e+000
1.695994e+003,2.575912e+000
1.696958e+003,2.426086e+000
1.697922e+003,2.286316e+000
1.698887e+003,2.392029e+000
1.699851e+003,2.756607e+000
1.700815e+003,3.535965e+000
1.701779e+003,4.657684e+000
1.702744e+003,4.921036e+000
1.703708e+003,3.854095e+000
1.704672e+003,2.732437e+000
1.705636e+003,2.139145e+000
1.706601e+003,2.050644e+000
1.707565e+003,3.108826e+000
1.708529e+003,4.835556e+000
1.709493e+003,5.282379e+000
1.710458e+003,4.073700e+000
1.711422e+003,2.891586e+000
1.712386e+003,2.570435e+000
1.713350e+003,2.511383e+000
1.714314e+003,2.215958e+000
1.715279e+003,1.677841e+000
1.716243e+003,6.567841e-001
1.717207e+003,-5.587616e-001
1.718171e+003,-4.825287e-001
1.719135e+003,1.314331e+000
1.720100e+003,2.749939e+000
1.721064e+003,2.261551e+000
1.722028e+003,1.101852e+000
1.722992e+003,1.357925e+000
1.723957e+003,2.709015e+000
1.724921e+003,2.461380e+000
1.725885e+003,4.771423e-002
1.726849e+003,-1.443329e+000
1.727814e+003,-9.856262e-001
1.728778e+003,1.182709e-001
1.729742e+003,2.465256e+000
1.730706e+003,4.097870e+000
1.731671e+003,2.059998e+000
1.732635e+003,-2.005768e+000
1.733599e+003,-4.354416e+000
1.734563e+003,-4.270432e+000
1.735528e+003,-3.187317e+000
1.736492e+003,-1.921600e+000
1.737456e+003,-7.920227e-001
1.738420e+003,-1.687927e-001
1.739385e+003,-7.334900e-002
1.740349e+003,-3.226929e-001
1.741313e+003,-1.017685e+000
1.742277e+003,-1.126816e+000
1.743241e+003,-2.336121e-002
1.744206e+003,8.182678e-001
1.745170e+003,9.210815e-001
1.746134e+003,9.453735e-001
1.747098e+003,1.379745e+000
1.748063e+003,1.824249e+000
1.749027e+003,1.907898e+000
1.749991e+003,1.563736e+000
1.750955e+003,5.882416e-001
1.751919e+003,-9.420929e-001
1.752884e+003,-2.253326e+000
1.753848e+003,-2.706802e+000
1.754812e+003,-2.440186e+000
1.755776e+003,-1.470886e+000
1.756741e+003,2.317657e-001
1.757705e+003,3.301697e-001
1.758669e+003,-2.308685e+000
1.759633e+003,-3.441559e+000
1.760598e+003,-1.130859e+000
1.761562e+003,3.712463e-001
1.762526e+003,-3.984833e-001
1.763490e+003,-1.959183e+000
1.764455e+003,-4.127518e+000
1.765419e+003,-5.910843e+000
1.766383e+003,-5.628830e+000
1.767347e+003,-3.572357e+000
1.768312e+003,-1.835587e+000
1.769276e+003,-1.428696e+000
1.770240e+003,-1.688065e+000
1.771204e+003,-1.798126e+000
1.772168e+003,-1.888794e+000
1.773133e+003,-2.916946e+000
1.774097e+003,-4.654892e+000
1.775061e+003,-4.462753e+000
1.776025e+003,-1.902283e+000
1.776990e+003,4.941559e-001
1.777954e+003,2.287354e+000
1.778918e+003,3.203979e+000
1.779882e+003,2.321716e+000
1.780846e+003,8.220520e-001
1.781811e+003,7.724609e-001
1.782775e+003,1.589218e+000
1.783739e+003,9.467621e-001
1.784703e+003,-1.633179e+000
1.785668e+003,-3.411499e+000
1.786632e+003,-3.017349e+000
1.787596e+003,-2.070801e+000
1.788560e+003,-1.136475e+000
1.789525e+003,-5.242615e-001
1.790489e+003,-1.462067e+000
1.791453e+003,-3.219925e+000
1.792417e+003,-3.004257e+000
1.793382e+003,-4.631348e-001
1.794346e+003,1.479721e+000
1.795310e+003,1.224564e+000
1.796274e+003,4.146729e-001
1.797239e+003,1.198303e+000
1.798203e+003,2.691849e+000
1.799167e+003,1.403702e+000
1.800131e+003,-3.626328e+000
1.801095e+003,-6.500412e+000
1.802060e+003,-5.850220e+000
1.803024e+003,-5.036819e+000
1.803988e+003,-5.092804e+000
1.804952e+003,-4.316742e+000
1.805917e+003,-3.323364e-001
1.806881e+003,3.533615e+000
1.807845e+003,3.391586e+000
1.808809e+003,7.193604e-001
1.809773e+003,-1.180191e+000
1.810738e+003,-1.344849e+000
1.811702e+003,-1.856842e-001
1.812666e+003,1.965652e+000
1.813630e+003,3.737366e+000
1.814595e+003,3.167526e+000
1.815559e+003,8.018494e-001
1.816523e+003,-1.187805e+000
1.817487e+003,-2.827377e+000
1.818452e+003,-3.276489e+000
1.819416e+003,-1.854340e+000
1.820380e+003,-8.397827e-001
1.821344e+003,-1.131653e+000
1.822309e+003,-1.783691e+000
1.823273e+003,-2.591934e+000
1.824237e+003,-3.049942e+000
1.825201e+003,-2.547852e+000
1.826166e+003,-1.372208e+000
1.827130e+003,5.805969e-002
1.828094e+003,1.575089e+000
1.829058e+003,1.822754e+000
1.830022e+003,-2.061615e-001
1.830987e+003,-2.722961e+000
1.831951e+003,-4.582687e+000
1.832915e+003,-5.784821e+000
1.833879e+003,-6.458893e+000
1.834844e+003,-6.471329e+000
1.835808e+003,-4.926254e+000
1.836772e+003,-1.974960e+000
1.837736e+003,-2.037354e-001
1.838700e+003,-8.338318e-001
1.839665e+003,-1.832367e+000
1.840629e+003,-1.258789e+000
1.841593e+003,1.072998e-001
1.842557e+003,5.212402e-001
1.843522e+003,-7.751465e-003
1.844486e+003,-3.321838e-001
1.845450e+003,-2.667847e-001
1.846414e+003,-7.841492e-002
1.847379e+003,7.342377e-001
1.848343e+003,6.239014e-001
1.849307e+003,-2.240128e+000
1.850271e+003,-4.622437e+000
1.851236e+003,-3.650146e+000
1.852200e+003,-9.950256e-001
1.853164e+003,1.329239e+000
1.854128e+003,2.560577e+000
1.855093e+003,1.897873e+000
1.856057e+003,-5.848999e-001
1.857021e+003,-2.616867e+000
1.857985e+003,-2.271347e+000
1.858949e+003,-9.336700e-001
1.859914e+003,-1.054733e+000
1.860878e+003,-2.281708e+000
1.861842e+003,-2.702408e+000
1.862806e+003,-2.319931e+000
1.863771e+003,-2.199753e+000
1.864735e+003,-2.700592e+000
1.865699e+003,-2.784622e+000
1.866663e+003,-1.707718e+000
1.867627e+003,-4.619446e-001
1.868592e+003,-2.107086e-001
1.869556e+003,-3.724365e-001
1.870520e+003,8.868713e-001
1.871484e+003,3.107895e+000
1.872449e+003,2.784744e+000
1.873413e+003,-1.362091e+000
1.874377e+003,-3.223358e+000
1.875341e+003,9.567719e-001
1.876306e+003,4.707077e+000
1.877270e+003,4.273788e+000
1.878234e+003,1.990784e+000
1.879198e+003,-6.808777e-001
1.880163e+003,-2.838486e+000
1.881127e+003,-2.856644e+000
1.882091e+003,-1.137619e+000
1.883055e+003,-1.123352e-001
1.884020e+003,-7.276001e-001
1.884984e+003,-1.467041e+000
1.885948e+003,-9.503632e-001
1.886912e+003,4.664764e-001
1.887876e+003,2.348557e+000
1.888841e+003,4.526108e+000
1.889805e+003,4.271927e+000
1.890769e+003,8.187408e-001
1.891733e+003,-7.998352e-001
1.892698e+003,5.936584e-001
1.893662e+003,1.911148e+000
1.894626e+003,2.189774e+000
1.895590e+003,2.074936e+000
1.896554e+003,2.411087e+000
1.897519e+003,2.440750e+000
1.898483e+003,3.844604e-001
1.899447e+003,-2.932297e+000
1.900411e+003,-4.162735e+000
1.901376e+003,-2.614609e+000
1.902340e+003,-1.043076e+000
1.903304e+003,-5.973663e-001
1.904268e+003,-2.310791e-001
1.905233e+003,8.427124e-001
1.906197e+003,2.082123e+000
1.907161e+003,3.252533e+000
1.908125e+003,4.054657e+000
1.909090e+003,3.489822e+000
1.910054e+003,1.949631e+000
1.911018e+003,1.416794e+000
1.911982e+003,2.482681e+000
1.912947e+003,3.670135e+000
1.913911e+003,3.866425e+000
1.914875e+003,3.561859e+000
1.915839e+003,3.498032e+000
1.916803e+003,3.474670e+000
1.917768e+003,2.679672e+000
1.918732e+003,8.613892e-001
1.919696e+003,5.230255e-001
1.920660e+003,2.443268e+000
1.921625e+003,3.916687e+000
1.922589e+003,4.401749e+000
1.923553e+003,4.139420e+000
1.924517e+003,2.268204e+000
1.925481e+003,6.061401e-001
1.926446e+003,1.024261e+000
1.927410e+003,2.713211e+000
1.928374e+003,4.360092e+000
1.929338e+003,5.679214e+000
1.930303e+003,5.765976e+000
1.931267e+003,4.202301e+000
1.932231e+003,2.547150e+000
1.933195e+003,7.281799e-001
1.934160e+003,-2.822418e-001
1.935124e+003,5.687408e-001
1.936088e+003,2.287781e+000
1.937052e+003,4.340622e+000
1.938017e+003,6.165161e+000
1.938981e+003,6.506287e+000
1.939945e+003,5.464249e+000
1.940909e+003,4.510117e+000
1.941874e+003,4.278229e+000
1.942838e+003,3.956360e+000
1.943802e+003,2.814713e+000
1.944766e+003,1.767029e+000
1.945730e+003,2.805313e+000
1.946695e+003,5.392395e+000
1.947659e+003,5.264328e+000
1.948623e+003,2.038956e+000
1.949587e+003,1.578217e-001
1.950552e+003,2.548218e-001
1.951516e+003,1.348175e+000
1.952480e+003,3.744125e+000
1.953444e+003,5.697983e+000
1.954408e+003,5.661499e+000
1.955373e+003,4.716187e+000
1.956337e+003,4.463531e+000
1.957301e+003,4.788223e+000
1.958265e+003,4.820145e+000
1.959230e+003,4.471008e+000
1.960194e+003,4.572556e+000
1.961158e+003,5.724213e+000
1.962122e+003,6.241653e+000
1.963087e+003,5.054245e+000
1.964051e+003,3.956360e+000
1.965015e+003,4.474213e+000
1.965979e+003,5.331482e+000
1.966944e+003,4.793289e+000
1.967908e+003,3.552353e+000
1.968872e+003,3.380478e+000
1.969836e+003,4.285187e+000
1.970801e+003,4.709564e+000
1.971765e+003,4.035492e+000
1.972729e+003,3.350754e+000
1.973693e+003,3.607727e+000
1.974657e+003,4.216370e+000
1.975622e+003,4.109848e+000
1.976586e+003,3.653290e+000
1.977550e+003,4.112137e+000
1.978514e+003,5.343323e+000
1.979479e+003,6.248413e+000
1.980443e+003,6.631714e+000
1.981407e+003,6.601425e+000
1.982371e+003,6.223541e+000
1.983335e+003,5.614197e+000
1.984300e+003,4.676575e+000
1.985264e+003,4.155380e+000
1.986228e+003,5.496658e+000
1.987192e+003,8.076508e+000
1.988157e+003,8.546600e+000
1.989121e+003,6.333237e+000
1.990085e+003,5.187973e+000
1.991049e+003,5.594452e+000
1.992014e+003,6.222656e+000
1.992978e+003,7.714355e+000
1.993942e+003,8.189301e+000
1.994906e+003,5.115936e+000
1.995871e+003,2.747543e+000
1.996835e+003,5.767792e+000
1.997799e+003,1.060797e+001
1.998763e+003,1.168198e+001
1.999728e+003,9.362457e+000
