5.003444e+002,4.283974e+001
5.013087e+002,4.204791e+001
5.022729e+002,4.070154e+001
5.032371e+002,3.933316e+001
5.042014e+002,3.922185e+001
5.051656e+002,4.018614e+001
5.061298e+002,4.116104e+001
5.070941e+002,4.111606e+001
5.080583e+002,3.969870e+001
5.090225e+002,3.879324e+001
5.099868e+002,3.874335e+001
5.109510e+002,3.866341e+001
5.119152e+002,3.806285e+001
5.128795e+002,3.689592e+001
5.138437e+002,3.580756e+001
5.148079e+002,3.453679e+001
5.157722e+002,3.387471e+001
5.167364e+002,3.489052e+001
5.177006e+002,3.716194e+001
5.186649e+002,3.868292e+001
5.196291e+002,3.614172e+001
5.205933e+002,3.227628e+001
5.215576e+002,2.968980e+001
5.225218e+002,2.869138e+001
5.234860e+002,2.903920e+001
5.244503e+002,3.054831e+001
5.254145e+002,3.401877e+001
5.263787e+002,3.527484e+001
5.273430e+002,3.276616e+001
5.283072e+002,2.910143e+001
5.292714e+002,2.807210e+001
5.302357e+002,3.147842e+001
5.311999e+002,3.320857e+001
5.321641e+002,3.196169e+001
5.331284e+002,2.985051e+001
5.340926e+002,2.838341e+001
5.350568e+002,2.806152e+001
5.360211e+002,2.790517e+001
5.369853e+002,2.714886e+001
5.379495e+002,2.629414e+001
5.389138e+002,2.575876e+001
5.398780e+002,2.564705e+001
5.408422e+002,2.567987e+001
5.418065e+002,2.501158e+001
5.427707e+002,2.376868e+001
5.437349e+002,2.286122e+001
5.446992e+002,2.251485e+001
5.456634e+002,2.263316e+001
5.466276e+002,2.294592e+001
5.475919e+002,2.442360e+001
5.485561e+002,2.486407e+001
5.495203e+002,2.318178e+001
5.504846e+002,2.065230e+001
5.514488e+002,1.931870e+001
5.524130e+002,2.065475e+001
5.533773e+002,2.167694e+001
5.543415e+002,2.041188e+001
5.553057e+002,1.833049e+001
5.562700e+002,1.697043e+001
5.572342e+002,1.724875e+001
5.581984e+002,1.831612e+001
5.591627e+002,1.804033e+001
5.601269e+002,1.704613e+001
5.610911e+002,1.654042e+001
5.620554e+002,1.714384e+001
5.630196e+002,1.862875e+001
5.639838e+002,1.937698e+001
5.649481e+002,1.901791e+001
5.659123e+002,1.849567e+001
5.668765e+002,1.840349e+001
5.678408e+002,1.845134e+001
5.688050e+002,1.749648e+001
5.697692e+002,1.391359e+001
5.707335e+002,1.073953e+001
5.716977e+002,8.697601e+000
5.726619e+002,7.742203e+000
5.736262e+002,8.047134e+000
5.745904e+002,1.004219e+001
5.755546e+002,1.215445e+001
5.765189e+002,1.151132e+001
5.774831e+002,9.144745e+000
5.784473e+002,6.872330e+000
5.794116e+002,5.988174e+000
5.803758e+002,6.469025e+000
5.813400e+002,7.158615e+000
5.823043e+002,8.032227e+000
5.832685e+002,8.652695e+000
5.842327e+002,8.969940e+000
5.851970e+002,9.078598e+000
5.861612e+002,9.061234e+000
5.871254e+002,8.088821e+000
5.880897e+002,7.794601e+000
5.890539e+002,9.056747e+000
5.900181e+002,1.102948e+001
5.909824e+002,1.223856e+001
5.919466e+002,1.147392e+001
5.929108e+002,1.046693e+001
5.938751e+002,1.158725e+001
5.948393e+002,1.364240e+001
5.958035e+002,1.473326e+001
5.967678e+002,1.350580e+001
5.977320e+002,1.040642e+001
5.986962e+002,8.322113e+000
5.996605e+002,6.989914e+000
6.006247e+002,6.154129e+000
6.015889e+002,5.873245e+000
6.025532e+002,6.124405e+000
6.035174e+002,6.319122e+000
6.044816e+002,6.262054e+000
6.054459e+002,6.421097e+000
6.064101e+002,7.306564e+000
6.073743e+002,8.370392e+000
6.083386e+002,8.561172e+000
6.093028e+002,6.958771e+000
6.102670e+002,5.183578e+000
6.112313e+002,4.386459e+000
6.121955e+002,4.233032e+000
6.131597e+002,4.367401e+000
6.141240e+002,4.527969e+000
6.150882e+002,4.628494e+000
6.160524e+002,4.103561e+000
6.170167e+002,3.129272e+000
6.179809e+002,2.784531e+000
6.189451e+002,3.707718e+000
6.199094e+002,5.618637e+000
6.208736e+002,6.785461e+000
6.218378e+002,6.873856e+000
6.228021e+002,6.749008e+000
6.237663e+002,6.217987e+000
6.247305e+002,5.620605e+000
6.256948e+002,5.523529e+000
6.266590e+002,6.359589e+000
6.276232e+002,6.902756e+000
6.285875e+002,6.348648e+000
6.295517e+002,5.398972e+000
6.305159e+002,4.784912e+000
6.314802e+002,4.855453e+000
6.324444e+002,5.187973e+000
6.334086e+002,4.473068e+000
6.343729e+002,3.209427e+000
6.353371e+002,2.718536e+000
6.363013e+002,3.591919e+000
6.372656e+002,5.286942e+000
6.382298e+002,5.953857e+000
6.391940e+002,4.568375e+000
6.401583e+002,3.269867e+000
6.411225e+002,2.121445e+000
6.420867e+002,1.294830e+000
6.430510e+002,1.083282e+000
6.440152e+002,1.797165e+000
6.449794e+002,1.877594e+000
6.459437e+002,-1.260376e-002
6.469079e+002,-2.337845e+000
6.478721e+002,-3.772629e+000
6.488364e+002,-3.902161e+000
6.498006e+002,-3.598831e+000
6.507648e+002,-5.002045e+000
6.517291e+002,-7.144089e+000
6.526933e+002,-7.200790e+000
6.536575e+002,-4.543228e+000
6.546218e+002,-6.056366e-001
6.555860e+002,1.895462e+000
6.565502e+002,2.301254e+000
6.575145e+002,2.335480e+000
6.584787e+002,2.259018e+000
6.594429e+002,1.698334e+000
6.604072e+002,-9.494019e-002
6.613714e+002,-3.448807e+000
6.623356e+002,-5.718124e+000
6.632999e+002,-4.911728e+000
6.642641e+002,-3.511703e+000
6.652283e+002,-2.633926e+000
6.661926e+002,-2.340393e+000
6.671568e+002,-1.953873e+000
6.681210e+002,-6.783142e-001
6.690853e+002,1.142944e+000
6.700495e+002,2.862656e+000
6.710137e+002,4.423904e+000
6.719780e+002,5.344589e+000
6.729422e+002,4.998260e+000
6.739064e+002,2.966782e+000
6.748707e+002,1.943420e+000
6.758349e+002,2.963333e+000
6.767991e+002,3.472519e+000
6.777634e+002,1.905502e+000
6.787276e+002,-1.285278e+000
6.796918e+002,-3.255295e+000
6.806561e+002,-2.087250e+000
6.816203e+002,-5.773163e-001
6.825845e+002,4.846649e-001
6.835488e+002,1.078522e+000
6.845130e+002,1.328186e+000
6.854772e+002,1.318619e+000
6.864415e+002,1.236725e+000
6.874057e+002,1.247131e+000
6.883699e+002,1.254715e+000
6.893342e+002,1.449265e+000
6.902984e+002,2.025391e+000
6.912626e+002,2.847183e+000
6.922269e+002,2.725510e+000
6.931911e+002,5.621948e-001
6.941553e+002,-7.118225e-001
6.951196e+002,-8.737946e-001
6.960838e+002,-2.305298e-001
6.970480e+002,1.107880e+000
6.980123e+002,3.884171e+000
6.989765e+002,5.455109e+000
6.999407e+002,4.154800e+000
7.009050e+002,1.931580e+000
7.018692e+002,2.493744e-001
7.028334e+002,-3.856964e-001
7.037977e+002,-6.217804e-001
7.047619e+002,-1.513596e+000
7.057261e+002,-2.570755e+000
7.066904e+002,-2.961548e+000
7.076546e+002,-2.554916e+000
7.086188e+002,-1.529129e+000
7.095831e+002,-7.192993e-002
7.105473e+002,2.240982e+000
7.115115e+002,3.260208e+000
7.124758e+002,2.224228e+000
7.134400e+002,8.740082e-001
7.144042e+002,3.684998e-001
7.153685e+002,7.770386e-001
7.163327e+002,9.708405e-001
7.172969e+002,2.564545e-001
7.182612e+002,-6.115112e-001
7.192254e+002,-1.613480e+000
7.201896e+002,-2.568878e+000
7.211539e+002,-3.217209e+000
7.221181e+002,-3.324600e+000
7.230823e+002,-2.941025e+000
7.240466e+002,-2.164047e+000
7.250108e+002,-1.003494e+000
7.259750e+002,1.825714e-001
7.269393e+002,1.119781e+000
7.279035e+002,1.688583e+000
7.288677e+002,1.876663e+000
7.298320e+002,1.483917e+000
7.307962e+002,1.421890e+000
7.317604e+002,1.861755e+000
7.327247e+002,2.650696e+000
7.336889e+002,3.661514e+000
7.346531e+002,4.959045e+000
7.356174e+002,5.348541e+000
7.365816e+002,3.943237e+000
7.375458e+002,2.125488e+000
7.385101e+002,8.116760e-001
7.394743e+002,2.892456e-001
7.404385e+002,2.566223e-001
7.414028e+002,2.367859e-001
7.423670e+002,1.119995e-001
7.433312e+002,4.556122e-001
7.442955e+002,1.553864e+000
7.452597e+002,2.652267e+000
7.462239e+002,2.656464e+000
7.471882e+002,1.039093e+000
7.481524e+002,4.137878e-001
7.491166e+002,1.014236e+000
7.500809e+002,1.805542e+000
7.510451e+002,2.658844e+000
7.520093e+002,3.430206e+000
7.529736e+002,3.846329e+000
7.539378e+002,4.051239e+000
7.549020e+002,3.629105e+000
7.558663e+002,1.546478e+000
7.568306e+002,-9.922028e-001
7.577948e+002,-2.174072e+000
7.587590e+002,-1.027405e+000
7.597233e+002,1.324722e+000
7.606875e+002,1.365936e+000
7.616517e+002,-4.720154e-001
7.626160e+002,-7.872620e-001
7.635802e+002,1.885025e+000
7.645444e+002,5.963043e+000
7.655087e+002,8.070648e+000
7.664729e+002,7.283264e+000
7.674371e+002,6.244965e+000
7.684014e+002,4.660461e+000
7.693656e+002,3.336929e+000
7.703298e+002,2.958817e+000
7.712941e+002,3.536743e+000
7.722583e+002,4.232864e+000
7.732225e+002,4.681473e+000
7.741868e+002,4.719559e+000
7.751510e+002,3.990692e+000
7.761152e+002,2.759033e+000
7.770795e+002,1.526840e+000
7.780437e+002,7.178192e-001
7.790079e+002,3.109894e-001
7.799722e+002,5.931702e-001
7.809364e+002,1.624268e+000
7.819006e+002,2.455856e+000
7.828649e+002,2.914536e+000
7.838291e+002,3.027618e+000
7.847933e+002,2.517914e+000
7.857576e+002,-3.565979e-002
7.867218e+002,-9.631195e-001
7.876860e+002,2.138000e+000
7.886503e+002,5.827896e+000
7.896145e+002,6.811264e+000
7.905787e+002,4.397324e+000
7.915430e+002,1.727448e+000
7.925072e+002,2.557724e+000
7.934714e+002,4.575043e+000
7.944357e+002,5.620346e+000
7.953999e+002,5.526291e+000
7.963641e+002,4.649628e+000
7.973284e+002,3.267242e+000
7.982926e+002,1.287323e+000
7.992568e+002,9.874878e-001
8.002211e+002,3.083923e+000
8.011853e+002,4.657578e+000
8.021495e+002,4.647156e+000
8.031138e+002,3.563736e+000
8.040780e+002,2.720474e+000
8.050422e+002,2.194901e+000
8.060065e+002,1.864624e+000
8.069707e+002,1.510681e+000
8.079349e+002,1.259872e+000
8.088992e+002,1.207657e+000
8.098634e+002,1.465881e+000
8.108276e+002,2.274490e+000
8.117919e+002,4.410797e+000
8.127561e+002,6.890396e+000
8.137203e+002,7.866592e+000
8.146846e+002,7.279938e+000
8.156488e+002,6.470947e+000
8.166130e+002,7.125107e+000
8.175773e+002,9.724884e+000
8.185415e+002,1.061252e+001
8.195057e+002,7.853424e+000
8.204700e+002,5.861221e+000
8.214342e+002,6.930801e+000
8.223984e+002,9.894608e+000
8.233627e+002,1.141391e+001
8.243269e+002,9.642578e+000
8.252911e+002,7.811096e+000
8.262554e+002,8.305222e+000
8.272196e+002,9.433395e+000
8.281838e+002,9.147659e+000
8.291481e+002,6.892654e+000
8.301123e+002,4.163147e+000
8.310765e+002,3.777817e+000
8.320408e+002,5.490036e+000
8.330050e+002,5.971329e+000
8.339692e+002,4.836975e+000
8.349335e+002,3.244141e+000
8.358977e+002,2.337265e+000
8.368619e+002,2.235184e+000
8.378262e+002,2.409073e+000
8.387904e+002,2.695374e+000
8.397546e+002,3.243561e+000
8.407189e+002,4.509857e+000
8.416831e+002,5.990479e+000
8.426473e+002,6.692093e+000
8.436116e+002,5.987579e+000
8.445758e+002,5.312668e+000
8.455400e+002,6.465256e+000
8.465043e+002,8.139786e+000
8.474685e+002,9.026123e+000
8.484327e+002,8.851227e+000
8.493970e+002,8.135941e+000
8.503612e+002,7.570389e+000
8.513254e+002,7.066376e+000
8.522897e+002,7.321259e+000
8.532539e+002,8.799789e+000
8.542181e+002,1.018544e+001
8.551824e+002,1.077138e+001
8.561466e+002,1.075574e+001
8.571108e+002,1.087047e+001
8.580751e+002,1.101500e+001
8.590393e+002,1.105321e+001
8.600035e+002,1.062561e+001
8.609678e+002,1.042456e+001
8.619320e+002,1.160081e+001
8.628962e+002,1.444749e+001
8.638605e+002,1.729872e+001
8.648247e+002,1.733359e+001
8.657889e+002,1.550163e+001
8.667532e+002,1.349718e+001
8.677174e+002,1.155283e+001
8.686816e+002,1.045566e+001
8.696459e+002,1.142825e+001
8.706101e+002,1.504633e+001
8.715743e+002,1.675699e+001
8.725386e+002,1.487846e+001
8.735028e+002,1.345650e+001
8.744670e+002,1.361575e+001
8.754313e+002,1.471802e+001
8.763955e+002,1.552600e+001
8.773597e+002,1.556900e+001
8.783240e+002,1.580252e+001
8.792882e+002,1.729251e+001
8.802524e+002,1.892969e+001
8.812167e+002,1.946364e+001
8.821809e+002,1.888510e+001
8.831451e+002,1.839980e+001
8.841094e+002,1.964624e+001
8.850736e+002,2.261847e+001
8.860378e+002,2.476521e+001
8.870021e+002,2.609868e+001
8.879663e+002,2.660753e+001
8.889305e+002,2.574474e+001
8.898948e+002,2.383046e+001
8.908590e+002,2.275427e+001
8.918232e+002,2.321747e+001
8.927875e+002,2.383383e+001
8.937517e+002,2.451462e+001
8.947159e+002,2.506766e+001
8.956802e+002,2.498892e+001
8.966444e+002,2.428961e+001
8.976086e+002,2.394815e+001
8.985729e+002,2.546004e+001
8.995371e+002,2.773441e+001
9.005013e+002,2.863420e+001
9.014656e+002,2.838869e+001
9.024298e+002,2.813228e+001
9.033940e+002,2.862938e+001
9.043583e+002,2.972836e+001
9.053225e+002,3.095164e+001
9.062867e+002,3.321175e+001
9.072510e+002,3.409846e+001
9.082152e+002,3.292026e+001
9.091794e+002,3.102563e+001
9.101437e+002,2.943562e+001
9.111079e+002,2.828923e+001
9.120721e+002,2.792624e+001
9.130364e+002,2.905165e+001
9.140006e+002,3.045717e+001
9.149648e+002,3.208582e+001
9.159291e+002,3.353366e+001
9.168933e+002,3.382291e+001
9.178575e+002,3.225735e+001
9.188218e+002,2.965089e+001
9.197860e+002,2.928546e+001
9.207502e+002,3.117363e+001
9.217145e+002,3.219667e+001
9.226787e+002,3.160133e+001
9.236429e+002,3.035020e+001
9.246072e+002,2.955981e+001
9.255714e+002,2.919205e+001
9.265356e+002,2.900841e+001
9.274999e+002,2.982034e+001
9.284641e+002,2.978754e+001
9.294283e+002,2.764061e+001
9.303926e+002,2.440816e+001
9.313568e+002,2.185547e+001
9.323210e+002,2.088718e+001
9.332853e+002,2.074086e+001
9.342495e+002,2.022466e+001
9.352137e+002,1.967705e+001
9.361780e+002,2.005646e+001
9.371422e+002,2.161894e+001
9.381064e+002,2.329495e+001
9.390707e+002,2.341862e+001
9.400349e+002,2.147946e+001
9.409991e+002,2.067264e+001
9.419634e+002,2.218129e+001
9.429276e+002,2.309392e+001
9.438918e+002,2.175099e+001
9.448561e+002,1.967039e+001
9.458203e+002,1.984880e+001
9.467845e+002,2.366913e+001
9.477488e+002,2.711551e+001
9.487130e+002,2.683527e+001
9.496772e+002,2.512579e+001
9.506415e+002,2.320464e+001
9.516057e+002,2.150775e+001
9.525699e+002,2.031563e+001
9.535342e+002,1.988980e+001
9.544984e+002,2.007581e+001
9.554626e+002,1.982364e+001
9.564269e+002,1.900734e+001
9.573911e+002,1.901111e+001
9.583553e+002,2.094885e+001
9.593196e+002,2.352788e+001
9.602838e+002,2.457925e+001
9.612480e+002,2.370265e+001
9.622123e+002,2.244016e+001
9.631765e+002,2.020059e+001
9.641407e+002,1.877519e+001
9.651050e+002,1.980386e+001
9.660692e+002,2.216866e+001
9.670334e+002,2.353310e+001
9.679977e+002,2.249248e+001
9.689619e+002,2.030298e+001
9.699261e+002,1.928506e+001
9.708904e+002,1.904559e+001
9.718546e+002,1.882715e+001
9.728188e+002,1.837181e+001
9.737831e+002,1.807133e+001
9.747473e+002,1.864215e+001
9.757115e+002,2.039241e+001
9.766758e+002,2.153743e+001
9.776400e+002,2.167018e+001
9.786042e+002,2.187370e+001
9.795685e+002,2.259044e+001
9.805327e+002,2.328125e+001
9.814969e+002,2.330843e+001
9.824612e+002,2.253029e+001
9.834254e+002,2.130492e+001
9.843896e+002,1.935150e+001
9.853539e+002,1.730884e+001
9.863181e+002,1.586008e+001
9.872823e+002,1.499583e+001
9.882466e+002,1.462323e+001
9.892108e+002,1.480037e+001
9.901750e+002,1.554707e+001
9.911393e+002,1.589635e+001
9.921035e+002,1.502971e+001
9.930677e+002,1.447876e+001
9.940320e+002,1.425410e+001
9.949962e+002,1.461221e+001
9.959604e+002,1.617091e+001
9.969247e+002,1.888756e+001
9.978889e+002,2.102356e+001
9.988531e+002,2.112335e+001
9.998174e+002,2.085150e+001
1.000782e+003,2.152419e+001
1.001746e+003,2.260947e+001
1.002710e+003,2.317444e+001
1.003674e+003,2.282289e+001
1.004639e+003,2.199377e+001
1.005603e+003,2.146854e+001
1.006567e+003,2.123933e+001
1.007531e+003,2.077495e+001
1.008495e+003,1.978226e+001
1.009460e+003,1.916049e+001
1.010424e+003,1.988214e+001
1.011388e+003,2.152470e+001
1.012352e+003,2.217480e+001
1.013317e+003,2.100237e+001
1.014281e+003,1.990062e+001
1.015245e+003,1.943285e+001
1.016209e+003,1.915552e+001
1.017174e+003,1.886012e+001
1.018138e+003,1.848277e+001
1.019102e+003,1.810104e+001
1.020066e+003,1.786351e+001
1.021031e+003,1.753653e+001
1.021995e+003,1.612869e+001
1.022959e+003,1.373557e+001
1.023923e+003,1.095282e+001
1.024887e+003,7.639709e+000
1.025852e+003,4.553986e+000
1.026816e+003,3.120865e+000
1.027780e+003,3.851135e+000
1.028744e+003,4.217941e+000
1.029709e+003,3.467667e+000
1.030673e+003,2.955017e+000
1.031637e+003,3.231400e+000
1.032601e+003,3.861771e+000
1.033566e+003,4.488434e+000
1.034530e+003,4.975113e+000
1.035494e+003,4.668106e+000
1.036458e+003,1.851425e+000
1.037422e+003,-1.686264e+000
1.038387e+003,-2.681870e+000
1.039351e+003,-1.252655e+000
1.040315e+003,5.672302e-001
1.041279e+003,1.297302e+000
1.042244e+003,1.275131e+000
1.043208e+003,2.017822e+000
1.044172e+003,4.473709e+000
1.045136e+003,5.791763e+000
1.046101e+003,5.589111e+000
1.047065e+003,4.762146e+000
1.048029e+003,3.356720e+000
1.048993e+003,1.731720e+000
1.049958e+003,1.025421e+000
1.050922e+003,2.109833e+000
1.051886e+003,3.563919e+000
1.052850e+003,3.715561e+000
1.053814e+003,3.377869e+000
1.054779e+003,3.799805e+000
1.055743e+003,5.116501e+000
1.056707e+003,6.206421e+000
1.057671e+003,5.661331e+000
1.058636e+003,3.445847e+000
1.059600e+003,2.320297e+000
1.060564e+003,3.342865e+000
1.061528e+003,4.110992e+000
1.062493e+003,3.875595e+000
1.063457e+003,3.335022e+000
1.064421e+003,3.356934e+000
1.065385e+003,4.074905e+000
1.066349e+003,4.928253e+000
1.067314e+003,6.283920e+000
1.068278e+003,6.843323e+000
1.069242e+003,4.855988e+000
1.070206e+003,1.868698e+000
1.071171e+003,4.898529e-001
1.072135e+003,1.635727e+000
1.073099e+003,3.631500e+000
1.074063e+003,3.688766e+000
1.075028e+003,1.587036e+000
1.075992e+003,8.377533e-001
1.076956e+003,2.317337e+000
1.077920e+003,3.274002e+000
1.078885e+003,2.128098e+000
1.079849e+003,1.447296e-001
1.080813e+003,-1.358490e-001
1.081777e+003,2.029602e+000
1.082741e+003,3.715164e+000
1.083706e+003,2.673065e+000
1.084670e+003,1.185715e+000
1.085634e+003,2.909393e-001
1.086598e+003,-3.175354e-002
1.087563e+003,1.580811e-002
1.088527e+003,3.255615e-001
1.089491e+003,7.501526e-001
1.090455e+003,8.294373e-001
1.091420e+003,4.344788e-001
1.092384e+003,2.649689e-001
1.093348e+003,3.615875e-001
1.094312e+003,4.512024e-001
1.095276e+003,6.356354e-001
1.096241e+003,8.054504e-001
1.097205e+003,2.238159e-001
1.098169e+003,-1.847626e+000
1.099133e+003,-2.981583e+000
1.100098e+003,-1.528641e+000
1.101062e+003,4.589691e-001
1.102026e+003,1.924347e+000
1.102990e+003,2.826614e+000
1.103955e+003,3.612198e+000
1.104919e+003,4.524796e+000
1.105883e+003,5.074738e+000
1.106847e+003,4.032608e+000
1.107812e+003,1.372498e+000
1.108776e+003,-2.215271e-001
1.109740e+003,-4.258118e-001
1.110704e+003,-5.722046e-003
1.111668e+003,9.798889e-001
1.112633e+003,2.325851e+000
1.113597e+003,2.656540e+000
1.114561e+003,1.014206e+000
1.115525e+003,1.315308e-001
1.116490e+003,1.690201e+000
1.117454e+003,3.358154e+000
1.118418e+003,3.201523e+000
1.119382e+003,1.968658e+000
1.120347e+003,1.941956e+000
1.121311e+003,4.436523e+000
1.122275e+003,7.878616e+000
1.123239e+003,9.392166e+000
1.124203e+003,9.160538e+000
1.125168e+003,8.440292e+000
1.126132e+003,6.971436e+000
1.127096e+003,5.991211e+000
1.128060e+003,6.550690e+000
1.129025e+003,8.346649e+000
1.129989e+003,1.031131e+001
1.130953e+003,1.309740e+001
1.131917e+003,1.418022e+001
1.132882e+003,1.115073e+001
1.133846e+003,8.254440e+000
1.134810e+003,8.344116e+000
1.135774e+003,1.075752e+001
1.136739e+003,1.337196e+001
1.137703e+003,1.496336e+001
1.138667e+003,1.592982e+001
1.139631e+003,1.698210e+001
1.140595e+003,1.803468e+001
1.141560e+003,1.850772e+001
1.142524e+003,1.808432e+001
1.143488e+003,1.841975e+001
1.144452e+003,2.087659e+001
1.145417e+003,2.495796e+001
1.146381e+003,2.885101e+001
1.147345e+003,3.232300e+001
1.148309e+003,3.600551e+001
1.149274e+003,3.923648e+001
1.150238e+003,4.360423e+001
1.151202e+003,5.095831e+001
1.152166e+003,5.994283e+001
1.153130e+003,6.829791e+001
1.154095e+003,7.478706e+001
1.155059e+003,7.933847e+001
1.156023e+003,8.196255e+001
1.156987e+003,8.260258e+001
1.157952e+003,8.157648e+001
1.158916e+003,7.881348e+001
1.159880e+003,7.598875e+001
1.160844e+003,7.464732e+001
1.161809e+003,7.328157e+001
1.162773e+003,6.808949e+001
1.163737e+003,5.777209e+001
1.164701e+003,4.954056e+001
1.165666e+003,4.818549e+001
1.166630e+003,4.628963e+001
1.167594e+003,4.007535e+001
1.168558e+003,3.206450e+001
1.169522e+003,2.555823e+001
1.170487e+003,2.176575e+001
1.171451e+003,2.018985e+001
1.172415e+003,2.053990e+001
1.173379e+003,2.225500e+001
1.174344e+003,2.212718e+001
1.175308e+003,2.000638e+001
1.176272e+003,1.909744e+001
1.177236e+003,2.185904e+001
1.178201e+003,2.530872e+001
1.179165e+003,2.520396e+001
1.180129e+003,2.142853e+001
1.181093e+003,1.804475e+001
1.182057e+003,1.551830e+001
1.183022e+003,1.421031e+001
1.183986e+003,1.526012e+001
1.184950e+003,1.671927e+001
1.185914e+003,1.649246e+001
1.186879e+003,1.466891e+001
1.187843e+003,1.301132e+001
1.188807e+003,1.292827e+001
1.189771e+003,1.391135e+001
1.190736e+003,1.464822e+001
1.191700e+003,1.512711e+001
1.192664e+003,1.526294e+001
1.193628e+003,1.497137e+001
1.194593e+003,1.455673e+001
1.195557e+003,1.443910e+001
1.196521e+003,1.435329e+001
1.197485e+003,1.325482e+001
1.198449e+003,1.063911e+001
1.199414e+003,8.187668e+000
1.200378e+003,6.319244e+000
1.201342e+003,5.181503e+000
1.202306e+003,5.085510e+000
1.203271e+003,5.746094e+000
1.204235e+003,6.891251e+000
1.205199e+003,8.283829e+000
1.206163e+003,9.328964e+000
1.207128e+003,8.920700e+000
1.208092e+003,6.966431e+000
1.209056e+003,5.716980e+000
1.210020e+003,5.539322e+000
1.210984e+003,5.216049e+000
1.211949e+003,4.304932e+000
1.212913e+003,3.079849e+000
1.213877e+003,1.979294e+000
1.214841e+003,1.044586e+000
1.215806e+003,-1.904755e-001
1.216770e+003,-2.201767e+000
1.217734e+003,-4.138916e+000
1.218698e+003,-5.387878e+000
1.219663e+003,-6.337158e+000
1.220627e+003,-7.460175e+000
1.221591e+003,-8.815918e+000
1.222555e+003,-1.018866e+001
1.223520e+003,-1.137805e+001
1.224484e+003,-1.226944e+001
1.225448e+003,-1.248724e+001
1.226412e+003,-1.169315e+001
1.227376e+003,-1.096666e+001
1.228341e+003,-9.852341e+000
1.229305e+003,-9.364334e+000
1.230269e+003,-1.072809e+001
1.231233e+003,-1.293478e+001
1.232198e+003,-1.373203e+001
1.233162e+003,-1.243449e+001
1.234126e+003,-1.101297e+001
1.235090e+003,-1.086499e+001
1.236055e+003,-1.144136e+001
1.237019e+003,-1.258665e+001
1.237983e+003,-1.389142e+001
1.238947e+003,-1.404729e+001
1.239911e+003,-1.249390e+001
1.240876e+003,-1.069467e+001
1.241840e+003,-1.107513e+001
1.242804e+003,-1.383989e+001
1.243768e+003,-1.492363e+001
1.244733e+003,-1.208931e+001
1.245697e+003,-1.050699e+001
1.246661e+003,-1.190765e+001
1.247625e+003,-1.362665e+001
1.248590e+003,-1.346861e+001
1.249554e+003,-1.172562e+001
1.250518e+003,-9.955872e+000
1.251482e+003,-8.859283e+000
1.252447e+003,-8.403564e+000
1.253411e+003,-8.640457e+000
1.254375e+003,-9.352295e+000
1.255339e+003,-1.034767e+001
1.256303e+003,-1.152942e+001
1.257268e+003,-1.213292e+001
1.258232e+003,-1.173476e+001
1.259196e+003,-1.069272e+001
1.260160e+003,-9.383377e+000
1.261125e+003,-7.557510e+000
1.262089e+003,-6.604752e+000
1.263053e+003,-7.884308e+000
1.264017e+003,-8.707916e+000
1.264982e+003,-8.035721e+000
1.265946e+003,-6.873978e+000
1.266910e+003,-6.198013e+000
1.267874e+003,-6.035400e+000
1.268839e+003,-5.635727e+000
1.269803e+003,-4.481918e+000
1.270767e+003,-3.385086e+000
1.271731e+003,-4.097305e+000
1.272695e+003,-6.537048e+000
1.273660e+003,-8.478348e+000
1.274624e+003,-1.022890e+001
1.275588e+003,-1.086310e+001
1.276552e+003,-8.582428e+000
1.277517e+003,-5.250916e+000
1.278481e+003,-4.923889e+000
1.279445e+003,-8.108368e+000
1.280409e+003,-1.043120e+001
1.281374e+003,-1.006274e+001
1.282338e+003,-9.036087e+000
1.283302e+003,-7.979050e+000
1.284266e+003,-7.192184e+000
1.285230e+003,-7.053604e+000
1.286195e+003,-7.552536e+000
1.287159e+003,-8.414017e+000
1.288123e+003,-9.381912e+000
1.289087e+003,-1.017870e+001
1.290052e+003,-1.006491e+001
1.291016e+003,-8.646393e+000
1.291980e+003,-7.987000e+000
1.292944e+003,-8.785385e+000
1.293909e+003,-9.513092e+000
1.294873e+003,-9.336884e+000
1.295837e+003,-8.763641e+000
1.296801e+003,-8.613403e+000
1.297766e+003,-8.956482e+000
1.298730e+003,-9.041306e+000
1.299694e+003,-8.236267e+000
1.300658e+003,-7.617523e+000
1.301622e+003,-9.051971e+000
1.302587e+003,-1.112436e+001
1.303551e+003,-1.114095e+001
1.304515e+003,-8.824921e+000
1.305479e+003,-6.884399e+000
1.306444e+003,-7.723801e+000
1.307408e+003,-1.036139e+001
1.308372e+003,-1.120479e+001
1.309336e+003,-9.411301e+000
1.310301e+003,-8.441818e+000
1.311265e+003,-9.281967e+000
1.312229e+003,-9.845566e+000
1.313193e+003,-9.293289e+000
1.314157e+003,-8.361908e+000
1.315122e+003,-7.692886e+000
1.316086e+003,-7.515366e+000
1.317050e+003,-8.015930e+000
1.318014e+003,-9.343918e+000
1.318979e+003,-1.081689e+001
1.319943e+003,-1.110715e+001
1.320907e+003,-1.036916e+001
1.321871e+003,-1.061105e+001
1.322836e+003,-1.258344e+001
1.323800e+003,-1.350363e+001
1.324764e+003,-1.087473e+001
1.325728e+003,-6.768143e+000
1.326693e+003,-4.881729e+000
1.327657e+003,-5.398209e+000
1.328621e+003,-5.905884e+000
1.329585e+003,-5.393326e+000
1.330549e+003,-4.991516e+000
1.331514e+003,-5.434341e+000
1.332478e+003,-6.452896e+000
1.333442e+003,-8.370453e+000
1.334406e+003,-1.052655e+001
1.335371e+003,-1.101292e+001
1.336335e+003,-8.766022e+000
1.337299e+003,-5.515030e+000
1.338263e+003,-4.604584e+000
1.339228e+003,-6.304184e+000
1.340192e+003,-7.810394e+000
1.341156e+003,-9.862518e+000
1.342120e+003,-1.068687e+001
1.343084e+003,-8.781296e+000
1.344049e+003,-6.810410e+000
1.345013e+003,-7.120071e+000
1.345977e+003,-9.164444e+000
1.346941e+003,-1.117340e+001
1.347906e+003,-1.259416e+001
1.348870e+003,-1.275380e+001
1.349834e+003,-1.015594e+001
1.350798e+003,-6.624023e+000
1.351763e+003,-5.761505e+000
1.352727e+003,-7.132126e+000
1.353691e+003,-8.224640e+000
1.354655e+003,-8.154480e+000
1.355620e+003,-7.405380e+000
1.356584e+003,-6.088043e+000
1.357548e+003,-4.368576e+000
1.358512e+003,-4.162827e+000
1.359476e+003,-6.242188e+000
1.360441e+003,-8.278763e+000
1.361405e+003,-1.075775e+001
1.362369e+003,-1.183398e+001
1.363333e+003,-9.179688e+000
1.364298e+003,-5.205063e+000
1.365262e+003,-3.242294e+000
1.366226e+003,-4.043961e+000
1.367190e+003,-6.158890e+000
1.368155e+003,-8.339325e+000
1.369119e+003,-1.023599e+001
1.370083e+003,-1.065094e+001
1.371047e+003,-9.115082e+000
1.372011e+003,-7.743698e+000
1.372976e+003,-6.532822e+000
1.373940e+003,-5.653168e+000
1.374904e+003,-5.195282e+000
1.375868e+003,-5.012466e+000
1.376833e+003,-4.948746e+000
1.377797e+003,-5.020340e+000
1.378761e+003,-5.425369e+000
1.379725e+003,-6.360901e+000
1.380690e+003,-7.209396e+000
1.381654e+003,-7.209488e+000
1.382618e+003,-6.742126e+000
1.383582e+003,-6.355133e+000
1.384547e+003,-6.045990e+000
1.385511e+003,-5.429810e+000
1.386475e+003,-4.244446e+000
1.387439e+003,-3.046631e+000
1.388403e+003,-2.751419e+000
1.389368e+003,-3.364670e+000
1.390332e+003,-3.835129e+000
1.391296e+003,-3.899796e+000
1.392260e+003,-4.199127e+000
1.393225e+003,-5.387711e+000
1.394189e+003,-6.326324e+000
1.395153e+003,-6.117844e+000
1.396117e+003,-5.328278e+000
1.397082e+003,-5.044464e+000
1.398046e+003,-5.394516e+000
1.399010e+003,-5.238510e+000
1.399974e+003,-3.536484e+000
1.400938e+003,-1.139145e+000
1.401903e+003,-5.045929e-001
1.402867e+003,-1.869141e+000
1.403831e+003,-3.195023e+000
1.404795e+003,-5.046036e+000
1.405760e+003,-6.333878e+000
1.406724e+003,-6.505539e+000
1.407688e+003,-6.314316e+000
1.408652e+003,-6.491623e+000
1.409617e+003,-6.954346e+000
1.410581e+003,-7.276749e+000
1.411545e+003,-7.316788e+000
1.412509e+003,-7.051132e+000
1.413474e+003,-6.166031e+000
1.414438e+003,-5.292282e+000
1.415402e+003,-5.744934e+000
1.416366e+003,-7.125671e+000
1.417330e+003,-7.130325e+000
1.418295e+003,-4.474472e+000
1.419259e+003,-1.622986e+000
1.420223e+003,-1.868118e+000
1.421187e+003,-4.681168e+000
1.422152e+003,-6.376419e+000
1.423116e+003,-6.551773e+000
1.424080e+003,-6.369293e+000
1.425044e+003,-6.053741e+000
1.426009e+003,-5.671204e+000
1.426973e+003,-5.233856e+000
1.427937e+003,-4.759430e+000
1.428901e+003,-4.351822e+000
1.429865e+003,-3.885178e+000
1.430830e+003,-2.796921e+000
1.431794e+003,-7.914276e-001
1.432758e+003,1.041794e+000
1.433722e+003,4.823303e-001
1.434687e+003,-2.693283e+000
1.435651e+003,-3.721497e+000
1.436615e+003,-4.506683e-001
1.437579e+003,1.175186e+000
1.438544e+003,-9.737549e-001
1.439508e+003,-3.185776e+000
1.440472e+003,-2.649658e+000
1.441436e+003,-3.665466e-001
1.442401e+003,1.591766e+000
1.443365e+003,2.601761e+000
1.444329e+003,2.774841e+000
1.445293e+003,2.074783e+000
1.446257e+003,1.010803e+000
1.447222e+003,4.520264e-001
1.448186e+003,3.281708e-001
1.449150e+003,4.221802e-001
1.450114e+003,7.550049e-001
1.451079e+003,1.032700e+000
1.452043e+003,1.296371e+000
1.453007e+003,1.401535e+000
1.453971e+003,8.878174e-001
1.454936e+003,-1.511688e-001
1.455900e+003,-7.642365e-001
1.456864e+003,-7.074738e-001
1.457828e+003,-2.081757e-001
1.458792e+003,1.141251e+000
1.459757e+003,2.283798e+000
1.460721e+003,2.086121e+000
1.461685e+003,1.090363e+000
1.462649e+003,5.174713e-001
1.463614e+003,6.912689e-001
1.464578e+003,9.228058e-001
1.465542e+003,5.632019e-001
1.466506e+003,-2.154083e-001
1.467471e+003,-8.628845e-001
1.468435e+003,-1.334457e+000
1.469399e+003,-1.422607e+000
1.470363e+003,-9.000397e-001
1.471328e+003,-4.936218e-001
1.472292e+003,-4.374237e-001
1.473256e+003,-6.340027e-001
1.474220e+003,-1.210907e+000
1.475184e+003,-1.729309e+000
1.476149e+003,-1.318420e+000
1.477113e+003,7.075500e-002
1.478077e+003,1.198669e+000
1.479041e+003,8.882751e-001
1.480006e+003,-1.570129e-001
1.480970e+003,2.982330e-001
1.481934e+003,2.797577e+000
1.482898e+003,4.085297e+000
1.483863e+003,3.388016e+000
1.484827e+003,2.669800e+000
1.485791e+003,2.250259e+000
1.486755e+003,2.324738e+000
1.487719e+003,3.463867e+000
1.488684e+003,5.089081e+000
1.489648e+003,5.514771e+000
1.490612e+003,4.311432e+000
1.491576e+003,3.683868e+000
1.492541e+003,5.673843e+000
1.493505e+003,8.870453e+000
1.494469e+003,9.988708e+000
1.495433e+003,9.343842e+000
1.496398e+003,9.487030e+000
1.497362e+003,1.115039e+001
1.498326e+003,1.265657e+001
1.499290e+003,1.277335e+001
1.500255e+003,1.247183e+001
1.501219e+003,1.279517e+001
1.502183e+003,1.380841e+001
1.503147e+003,1.591341e+001
1.504111e+003,1.938962e+001
1.505076e+003,2.296521e+001
1.506040e+003,2.592938e+001
1.507004e+003,2.868042e+001
1.507968e+003,3.127925e+001
1.508933e+003,3.408397e+001
1.509897e+003,3.788316e+001
1.510861e+003,4.292902e+001
1.511825e+003,4.881302e+001
1.512790e+003,5.543893e+001
1.513754e+003,6.211307e+001
1.514718e+003,6.731743e+001
1.515682e+003,7.098550e+001
1.516646e+003,7.587584e+001
1.517611e+003,8.302487e+001
1.518575e+003,8.965482e+001
1.519539e+003,9.507768e+001
1.520503e+003,9.974533e+001
1.521468e+003,1.038259e+002
1.522432e+003,1.072423e+002
1.523396e+003,1.102357e+002
1.524360e+003,1.125013e+002
1.525325e+003,1.130331e+002
1.526289e+003,1.111813e+002
1.527253e+003,1.074767e+002
1.528217e+003,1.026582e+002
1.529182e+003,9.678221e+001
1.530146e+003,9.147357e+001
1.531110e+003,8.804475e+001
1.532074e+003,8.247385e+001
1.533039e+003,7.265527e+001
1.534003e+003,6.265350e+001
1.534967e+003,5.391959e+001
1.535931e+003,4.653429e+001
1.536896e+003,4.086151e+001
1.537860e+003,3.641510e+001
1.538824e+003,3.165883e+001
1.539788e+003,2.583014e+001
1.540752e+003,2.019345e+001
1.541717e+003,1.643565e+001
1.542681e+003,1.440930e+001
1.543645e+003,1.274413e+001
1.544609e+003,1.135951e+001
1.545573e+003,1.090012e+001
1.546538e+003,1.237701e+001
1.547502e+003,1.317384e+001
1.548466e+003,1.215497e+001
1.549430e+003,1.039166e+001
1.550395e+003,8.459854e+000
1.551359e+003,6.736053e+000
1.552323e+003,6.047714e+000
1.553287e+003,6.634903e+000
1.554252e+003,7.580017e+000
1.555216e+003,8.149582e+000
1.556180e+003,8.319107e+000
1.557144e+003,8.083191e+000
1.558109e+003,7.448883e+000
1.559073e+003,5.948959e+000
1.560037e+003,2.551361e+000
1.561001e+003,2.055969e-001
1.561966e+003,4.931488e-001
1.562930e+003,1.867798e+000
1.563894e+003,3.182678e+000
1.564858e+003,4.267868e+000
1.565823e+003,4.907425e+000
1.566787e+003,5.077179e+000
1.567751e+003,5.219925e+000
1.568715e+003,5.611496e+000
1.569679e+003,6.093750e+000
1.570644e+003,6.393768e+000
1.571608e+003,6.553650e+000
1.572572e+003,6.921432e+000
1.573536e+003,7.567780e+000
1.574500e+003,8.061676e+000
1.575465e+003,8.202072e+000
1.576429e+003,8.174988e+000
1.577393e+003,8.093140e+000
1.578357e+003,7.906204e+000
1.579322e+003,7.568039e+000
1.580286e+003,7.106613e+000
1.581250e+003,6.519318e+000
1.582214e+003,5.702606e+000
1.583179e+003,5.099274e+000
1.584143e+003,4.791809e+000
1.585107e+003,5.044052e+000
1.586071e+003,6.860260e+000
1.587036e+003,9.605820e+000
1.588000e+003,1.072264e+001
1.588964e+003,9.493668e+000
1.589928e+003,8.452972e+000
1.590893e+003,9.531570e+000
1.591857e+003,1.151331e+001
1.592821e+003,1.290121e+001
1.593785e+003,1.363226e+001
1.594750e+003,1.296318e+001
1.595714e+003,1.045134e+001
1.596678e+003,8.559784e+000
1.597642e+003,8.386948e+000
1.598606e+003,9.003082e+000
1.599571e+003,1.012051e+001
1.600535e+003,1.130324e+001
1.601499e+003,1.172235e+001
1.602463e+003,1.153348e+001
1.603427e+003,1.203241e+001
1.604392e+003,1.389684e+001
1.605356e+003,1.542282e+001
1.606320e+003,1.438641e+001
1.607284e+003,1.185121e+001
1.608249e+003,1.091064e+001
1.609213e+003,1.162007e+001
1.610177e+003,1.252676e+001
1.611141e+003,1.381026e+001
1.612106e+003,1.423929e+001
1.613070e+003,1.201984e+001
1.614034e+003,9.805664e+000
1.614998e+003,9.723602e+000
1.615963e+003,1.090875e+001
1.616927e+003,1.190059e+001
1.617891e+003,1.238919e+001
1.618855e+003,1.259593e+001
1.619820e+003,1.259093e+001
1.620784e+003,1.240831e+001
1.621748e+003,1.224736e+001
1.622712e+003,1.219568e+001
1.623677e+003,1.200531e+001
1.624641e+003,1.159319e+001
1.625605e+003,1.162035e+001
1.626569e+003,1.238142e+001
1.627533e+003,1.291992e+001
1.628498e+003,1.275641e+001
1.629462e+003,1.239571e+001
1.630426e+003,1.218895e+001
1.631390e+003,1.210400e+001
1.632354e+003,1.199660e+001
1.633319e+003,1.183298e+001
1.634283e+003,1.180849e+001
1.635247e+003,1.216888e+001
1.636211e+003,1.238321e+001
1.637176e+003,1.100201e+001
1.638140e+003,8.287582e+000
1.639104e+003,8.007935e+000
1.640068e+003,1.100735e+001
1.641033e+003,1.346414e+001
1.641997e+003,1.459937e+001
1.642961e+003,1.484718e+001
1.643925e+003,1.400296e+001
1.644890e+003,1.280887e+001
1.645854e+003,1.170767e+001
1.646818e+003,1.091086e+001
1.647782e+003,1.085492e+001
1.648747e+003,1.161440e+001
1.649711e+003,1.247369e+001
1.650675e+003,1.282686e+001
1.651639e+003,1.310483e+001
1.652604e+003,1.450395e+001
1.653568e+003,1.688441e+001
1.654532e+003,1.720335e+001
1.655496e+003,1.471681e+001
1.656460e+003,1.224622e+001
1.657425e+003,1.003285e+001
1.658389e+003,8.862000e+000
1.659353e+003,9.751465e+000
1.660317e+003,1.132368e+001
1.661281e+003,1.220370e+001
1.662246e+003,1.239307e+001
1.663210e+003,1.250597e+001
1.664174e+003,1.275955e+001
1.665138e+003,1.260703e+001
1.666103e+003,1.134048e+001
1.667067e+003,9.660599e+000
1.668031e+003,9.025681e+000
1.668995e+003,9.409073e+000
1.669960e+003,1.032690e+001
1.670924e+003,1.213306e+001
1.671888e+003,1.286813e+001
1.672852e+003,1.119637e+001
1.673817e+003,9.267273e+000
1.674781e+003,8.238510e+000
1.675745e+003,7.813995e+000
1.676709e+003,7.812820e+000
1.677674e+003,8.115387e+000
1.678638e+003,8.578751e+000
1.679602e+003,9.151733e+000
1.680566e+003,9.435608e+000
1.681531e+003,9.051559e+000
1.682495e+003,8.394699e+000
1.683459e+003,8.022354e+000
1.684423e+003,7.865433e+000
1.685387e+003,7.836975e+000
1.686352e+003,8.003250e+000
1.687316e+003,7.892197e+000
1.688280e+003,7.180359e+000
1.689244e+003,6.475235e+000
1.690208e+003,6.297119e+000
1.691173e+003,6.275894e+000
1.692137e+003,6.051666e+000
1.693101e+003,5.718552e+000
1.694065e+003,5.433792e+000
1.695030e+003,5.166718e+000
1.695994e+003,4.945328e+000
1.696958e+003,4.808777e+000
1.697922e+003,4.785599e+000
1.698887e+003,5.016190e+000
1.699851e+003,5.390915e+000
1.700815e+003,5.503281e+000
1.701779e+003,5.284378e+000
1.702744e+003,4.839371e+000
1.703708e+003,4.161850e+000
1.704672e+003,3.796783e+000
1.705636e+003,4.269760e+000
1.706601e+003,4.929413e+000
1.707565e+003,4.962173e+000
1.708529e+003,4.534683e+000
1.709493e+003,3.888992e+000
1.710458e+003,2.995926e+000
1.711422e+003,2.307037e+000
1.712386e+003,2.166199e+000
1.713350e+003,2.220306e+000
1.714314e+003,1.843170e+000
1.715279e+003,1.530945e+000
1.716243e+003,2.662674e+000
1.717207e+003,4.835785e+000
1.718171e+003,5.637482e+000
1.719135e+003,4.421280e+000
1.720100e+003,2.948151e+000
1.721064e+003,2.257980e+000
1.722028e+003,2.167786e+000
1.722992e+003,2.816513e+000
1.723957e+003,3.953720e+000
1.724921e+003,3.544479e+000
1.725885e+003,1.138565e+000
1.726849e+003,-6.406860e-001
1.727814e+003,-1.067474e+000
1.728778e+003,-9.684601e-001
1.729742e+003,-4.411469e-001
1.730706e+003,1.701660e-001
1.731671e+003,3.455658e-001
1.732635e+003,2.757111e-001
1.733599e+003,8.974609e-001
1.734563e+003,2.153748e+000
1.735528e+003,2.231949e+000
1.736492e+003,1.541443e-001
1.737456e+003,-1.990707e+000
1.738420e+003,-1.643280e+000
1.739385e+003,3.743134e-001
1.740349e+003,1.229706e+000
1.741313e+003,6.941681e-001
1.742277e+003,4.262695e-001
1.743241e+003,8.255768e-001
1.744206e+003,9.724884e-001
1.745170e+003,7.744904e-001
1.746134e+003,1.926270e-001
1.747098e+003,-1.583282e+000
1.748063e+003,-3.182465e+000
1.749027e+003,-2.537415e+000
1.749991e+003,-3.663788e-001
1.750955e+003,1.001434e+000
1.751919e+003,7.654724e-001
1.752884e+003,-2.079315e-001
1.753848e+003,-1.223419e+000
1.754812e+003,-1.965897e+000
1.755776e+003,-1.620987e+000
1.756741e+003,-1.824493e-001
1.757705e+003,3.672485e-001
1.758669e+003,-5.006866e-001
1.759633e+003,-8.835297e-001
1.760598e+003,-5.162506e-001
1.761562e+003,1.481476e-001
1.762526e+003,1.886719e+000
1.763490e+003,3.082626e+000
1.764455e+003,1.879074e+000
1.765419e+003,-2.370148e-001
1.766383e+003,-6.597900e-001
1.767347e+003,5.330048e-001
1.768312e+003,9.145355e-001
1.769276e+003,-7.024994e-001
1.770240e+003,-2.382736e+000
1.771204e+003,-1.789368e+000
1.772168e+003,5.506897e-002
1.773133e+003,6.247253e-001
1.774097e+003,3.654480e-002
1.775061e+003,-6.128540e-001
1.776025e+003,-1.363541e+000
1.776990e+003,-1.612610e+000
1.777954e+003,-8.795013e-001
1.778918e+003,1.794434e-002
1.779882e+003,4.412994e-001
1.780846e+003,6.072083e-001
1.781811e+003,8.978729e-001
1.782775e+003,1.275192e+000
1.783739e+003,1.656509e+000
1.784703e+003,2.108948e+000
1.785668e+003,1.918854e+000
1.786632e+003,5.722046e-003
1.787596e+003,-1.760590e+000
1.788560e+003,-1.689590e+000
1.789525e+003,-6.907043e-001
1.790489e+003,1.341248e-002
1.791453e+003,3.572388e-001
1.792417e+003,4.851990e-001
1.793382e+003,4.950714e-001
1.794346e+003,9.453278e-001
1.795310e+003,2.187073e+000
1.796274e+003,3.137833e+000
1.797239e+003,2.490692e+000
1.798203e+003,9.255829e-001
1.799167e+003,4.366150e-001
1.800131e+003,1.206161e+000
1.801095e+003,7.504272e-001
1.802060e+003,-2.268204e+000
1.803024e+003,-3.971420e+000
1.803988e+003,-3.395340e+000
1.804952e+003,-2.268417e+000
1.805917e+003,-1.137878e+000
1.806881e+003,-8.216858e-002
1.807845e+003,1.065201e+000
1.808809e+003,2.109055e+000
1.809773e+003,2.665207e+000
1.810738e+003,2.659149e+000
1.811702e+003,2.233688e+000
1.812666e+003,1.485596e+000
1.813630e+003,6.575317e-001
1.814595e+003,8.941650e-003
1.815559e+003,-3.773499e-001
1.816523e+003,1.467590e-001
1.817487e+003,1.753036e+000
1.818452e+003,2.450531e+000
1.819416e+003,1.932755e+000
1.820380e+003,1.308746e+000
1.821344e+003,5.970154e-001
1.822309e+003,1.025085e-001
1.823273e+003,-1.397705e-002
1.824237e+003,2.715302e-001
1.825201e+003,1.431396e+000
1.826166e+003,2.872894e+000
1.827130e+003,2.872696e+000
1.828094e+003,1.167618e+000
1.829058e+003,-7.450867e-002
1.830022e+003,4.350586e-001
1.830987e+003,1.261154e+000
1.831951e+003,1.330597e+000
1.832915e+003,9.168396e-001
1.833879e+003,-9.774780e-002
1.834844e+003,-1.178497e+000
1.835808e+003,-4.170380e-001
1.836772e+003,2.221924e+000
1.837736e+003,4.298248e+000
1.838700e+003,4.728210e+000
1.839665e+003,3.969818e+000
1.840629e+003,2.290314e+000
1.841593e+003,2.072144e-001
1.842557e+003,-1.297806e+000
1.843522e+003,-2.227478e+000
1.844486e+003,-2.581696e+000
1.845450e+003,-1.984680e+000
1.846414e+003,-1.340591e+000
1.847379e+003,-9.600372e-001
1.848343e+003,-3.360443e-001
1.849307e+003,1.471573e+000
1.850271e+003,2.829178e+000
1.851236e+003,2.208054e+000
1.852200e+003,7.046051e-001
1.853164e+003,-4.735413e-001
1.854128e+003,-1.031464e+000
1.855093e+003,-6.869812e-001
1.856057e+003,5.928955e-001
1.857021e+003,1.894180e+000
1.857985e+003,2.446548e+000
1.858949e+003,2.406891e+000
1.859914e+003,1.798706e+000
1.860878e+003,8.437195e-001
1.861842e+003,9.258118e-001
1.862806e+003,2.067291e+000
1.863771e+003,2.224609e+000
1.864735e+003,7.380066e-001
1.865699e+003,-3.995361e-001
1.866663e+003,-2.466736e-001
1.867627e+003,5.000305e-001
1.868592e+003,1.391235e+000
1.869556e+003,2.240585e+000
1.870520e+003,2.919128e+000
1.871484e+003,3.376907e+000
1.872449e+003,3.176575e+000
1.873413e+003,2.113678e+000
1.874377e+003,1.816025e+000
1.875341e+003,3.220596e+000
1.876306e+003,4.540756e+000
1.877270e+003,4.824341e+000
1.878234e+003,4.528885e+000
1.879198e+003,4.053741e+000
1.880163e+003,3.452377e+000
1.881127e+003,2.498352e+000
1.882091e+003,1.412704e+000
1.883055e+003,1.011581e+000
1.884020e+003,1.584671e+000
1.884984e+003,2.662903e+000
1.885948e+003,3.877686e+000
1.886912e+003,4.542557e+000
1.887876e+003,2.846970e+000
1.888841e+003,-7.848816e-001
1.889805e+003,-6.109314e-001
1.890769e+003,4.449188e+000
1.891733e+003,7.458450e+000
1.892698e+003,7.314407e+000
1.893662e+003,6.011810e+000
1.894626e+003,3.175400e+000
1.895590e+003,7.869568e-001
1.896554e+003,3.073883e-001
1.897519e+003,1.004257e+000
1.898483e+003,2.602112e+000
1.899447e+003,4.503799e+000
1.900411e+003,4.847321e+000
1.901376e+003,3.242844e+000
1.902340e+003,2.142807e+000
1.903304e+003,2.788498e+000
1.904268e+003,3.620499e+000
1.905233e+003,3.965836e+000
1.906197e+003,3.834946e+000
1.907161e+003,2.609055e+000
1.908125e+003,1.264267e+000
1.909090e+003,1.866669e+000
1.910054e+003,3.991043e+000
1.911018e+003,5.213242e+000
1.911982e+003,4.839615e+000
1.912947e+003,4.390762e+000
1.913911e+003,4.965454e+000
1.914875e+003,5.960770e+000
1.915839e+003,6.472534e+000
1.916803e+003,6.418625e+000
1.917768e+003,5.367142e+000
1.918732e+003,2.942383e+000
1.919696e+003,2.458282e+000
1.920660e+003,4.880142e+000
1.921625e+003,6.716583e+000
1.922589e+003,6.847458e+000
1.923553e+003,6.778885e+000
1.924517e+003,7.544922e+000
1.925481e+003,8.239899e+000
1.926446e+003,7.822006e+000
1.927410e+003,6.857285e+000
1.928374e+003,6.534042e+000
1.929338e+003,6.836868e+000
1.930303e+003,6.784744e+000
1.931267e+003,6.081543e+000
1.932231e+003,5.529816e+000
1.933195e+003,5.197464e+000
1.934160e+003,5.324127e+000
1.935124e+003,6.566147e+000
1.936088e+003,7.937637e+000
1.937052e+003,8.332626e+000
1.938017e+003,7.954956e+000
1.938981e+003,7.186371e+000
1.939945e+003,6.289505e+000
1.940909e+003,5.815140e+000
1.941874e+003,5.959305e+000
1.942838e+003,6.222488e+000
1.943802e+003,6.202469e+000
1.944766e+003,6.029617e+000
1.945730e+003,5.773865e+000
1.946695e+003,5.431671e+000
1.947659e+003,5.264648e+000
1.948623e+003,5.194809e+000
1.949587e+003,6.330093e+000
1.950552e+003,9.547333e+000
1.951516e+003,1.080273e+001
1.952480e+003,7.641861e+000
1.953444e+003,4.622299e+000
1.954408e+003,5.316864e+000
1.955373e+003,7.410324e+000
1.956337e+003,7.749023e+000
1.957301e+003,6.888016e+000
1.958265e+003,6.561874e+000
1.959230e+003,6.891266e+000
1.960194e+003,7.119186e+000
1.961158e+003,6.876678e+000
1.962122e+003,6.699951e+000
1.963087e+003,6.497147e+000
1.964051e+003,6.709152e+000
1.965015e+003,8.618454e+000
1.965979e+003,1.028728e+001
1.966944e+003,8.879272e+000
1.967908e+003,6.020645e+000
1.968872e+003,5.158936e+000
1.969836e+003,6.459213e+000
1.970801e+003,7.389694e+000
1.971765e+003,6.934967e+000
1.972729e+003,6.920486e+000
1.973693e+003,9.147079e+000
1.974657e+003,1.186148e+001
1.975622e+003,1.230458e+001
1.976586e+003,1.116963e+001
1.977550e+003,1.016580e+001
1.978514e+003,9.439423e+000
1.979479e+003,9.470856e+000
1.980443e+003,1.025737e+001
1.981407e+003,1.081937e+001
1.982371e+003,1.081628e+001
1.983335e+003,1.069083e+001
1.984300e+003,1.076852e+001
1.985264e+003,1.062975e+001
1.986228e+003,9.527603e+000
1.987192e+003,7.852280e+000
1.988157e+003,7.720840e+000
1.989121e+003,9.543198e+000
1.990085e+003,1.096945e+001
1.991049e+003,1.221053e+001
1.992014e+003,1.270641e+001
1.992978e+003,1.162109e+001
1.993942e+003,1.074681e+001
1.994906e+003,1.071133e+001
1.995871e+003,1.108273e+001
1.996835e+003,1.210133e+001
1.997799e+003,1.304240e+001
1.998763e+003,1.245232e+001
1.999728e+003,1.071046e+001
