5.003444e+002,4.207256e+001
5.013087e+002,3.991071e+001
5.022729e+002,3.897510e+001
5.032371e+002,3.898155e+001
5.042014e+002,3.798871e+001
5.051656e+002,3.622206e+001
5.061298e+002,3.472165e+001
5.070941e+002,3.447723e+001
5.080583e+002,3.581755e+001
5.090225e+002,3.597491e+001
5.099868e+002,3.425798e+001
5.109510e+002,3.247870e+001
5.119152e+002,3.140591e+001
5.128795e+002,3.109346e+001
5.138437e+002,3.155457e+001
5.148079e+002,3.471233e+001
5.157722e+002,3.699146e+001
5.167364e+002,3.608167e+001
5.177006e+002,3.216695e+001
5.186649e+002,2.783847e+001
5.196291e+002,2.634935e+001
5.205933e+002,2.655319e+001
5.215576e+002,2.723068e+001
5.225218e+002,2.799333e+001
5.234860e+002,2.859146e+001
5.244503e+002,2.873894e+001
5.254145e+002,2.844600e+001
5.263787e+002,2.852032e+001
5.273430e+002,2.924684e+001
5.283072e+002,3.015088e+001
5.292714e+002,3.055519e+001
5.302357e+002,3.019020e+001
5.311999e+002,2.924222e+001
5.321641e+002,2.759279e+001
5.331284e+002,2.596613e+001
5.340926e+002,2.497571e+001
5.350568e+002,2.481706e+001
5.360211e+002,2.441656e+001
5.369853e+002,2.243990e+001
5.379495e+002,2.028040e+001
5.389138e+002,1.909485e+001
5.398780e+002,1.927031e+001
5.408422e+002,2.030716e+001
5.418065e+002,2.123293e+001
5.427707e+002,2.197067e+001
5.437349e+002,2.142224e+001
5.446992e+002,1.875090e+001
5.456634e+002,1.487631e+001
5.466276e+002,1.311775e+001
5.475919e+002,1.613467e+001
5.485561e+002,1.832214e+001
5.495203e+002,1.945338e+001
5.504846e+002,1.952728e+001
5.514488e+002,1.845738e+001
5.524130e+002,1.571603e+001
5.533773e+002,1.311429e+001
5.543415e+002,1.137270e+001
5.553057e+002,1.030670e+001
5.562700e+002,9.743042e+000
5.572342e+002,9.553436e+000
5.581984e+002,9.705673e+000
5.591627e+002,1.035362e+001
5.601269e+002,1.141031e+001
5.610911e+002,1.270393e+001
5.620554e+002,1.415610e+001
5.630196e+002,1.558148e+001
5.639838e+002,1.576329e+001
5.649481e+002,1.340158e+001
5.659123e+002,1.170961e+001
5.668765e+002,1.201013e+001
5.678408e+002,1.359662e+001
5.688050e+002,1.413503e+001
5.697692e+002,1.175592e+001
5.707335e+002,9.587662e+000
5.716977e+002,8.828018e+000
5.726619e+002,8.876266e+000
5.736262e+002,8.814636e+000
5.745904e+002,7.992111e+000
5.755546e+002,7.147156e+000
5.765189e+002,7.495285e+000
5.774831e+002,8.402100e+000
5.784473e+002,8.932343e+000
5.794116e+002,8.514023e+000
5.803758e+002,7.339294e+000
5.813400e+002,6.586533e+000
5.823043e+002,6.051147e+000
5.832685e+002,5.682907e+000
5.842327e+002,5.749359e+000
5.851970e+002,6.253036e+000
5.861612e+002,6.582886e+000
5.871254e+002,5.994293e+000
5.880897e+002,5.774841e+000
5.890539e+002,6.431747e+000
5.900181e+002,7.489334e+000
5.909824e+002,8.220459e+000
5.919466e+002,8.235260e+000
5.929108e+002,7.731781e+000
5.938751e+002,6.800949e+000
5.948393e+002,5.690582e+000
5.958035e+002,4.879395e+000
5.967678e+002,4.722397e+000
5.977320e+002,5.116943e+000
5.986962e+002,4.470001e+000
5.996605e+002,2.490448e+000
6.006247e+002,1.236450e+000
6.015889e+002,2.316452e+000
6.025532e+002,5.490875e+000
6.035174e+002,6.953125e+000
6.044816e+002,4.320114e+000
6.054459e+002,2.494614e+000
6.064101e+002,2.767441e+000
6.073743e+002,4.208542e+000
6.083386e+002,5.006348e+000
6.093028e+002,3.999619e+000
6.102670e+002,2.700851e+000
6.112313e+002,2.031998e+000
6.121955e+002,1.908798e+000
6.131597e+002,2.308701e+000
6.141240e+002,3.196320e+000
6.150882e+002,4.375168e+000
6.160524e+002,5.214355e+000
6.170167e+002,5.839478e+000
6.179809e+002,6.006027e+000
6.189451e+002,5.166199e+000
6.199094e+002,3.550186e+000
6.208736e+002,3.475479e+000
6.218378e+002,8.747635e+000
6.228021e+002,1.137341e+001
6.237663e+002,8.808868e+000
6.247305e+002,3.690918e+000
6.256948e+002,2.007294e-001
6.266590e+002,6.405640e-002
6.276232e+002,1.230240e+000
6.285875e+002,3.207993e+000
6.295517e+002,5.191116e+000
6.305159e+002,6.075928e+000
6.314802e+002,5.289551e+000
6.324444e+002,3.599823e+000
6.334086e+002,3.701569e+000
6.343729e+002,5.014084e+000
6.353371e+002,5.418655e+000
6.363013e+002,3.972672e+000
6.372656e+002,1.252731e+000
6.382298e+002,-5.743713e-001
6.391940e+002,-1.353882e+000
6.401583e+002,-1.268021e+000
6.411225e+002,9.263916e-001
6.420867e+002,3.640030e+000
6.430510e+002,4.709839e+000
6.440152e+002,2.974075e+000
6.449794e+002,1.094391e+000
6.459437e+002,8.232727e-001
6.469079e+002,7.971191e-001
6.478721e+002,-1.885071e-001
6.488364e+002,-2.417145e+000
6.498006e+002,-4.911957e+000
6.507648e+002,-6.219772e+000
6.517291e+002,-6.463684e+000
6.526933e+002,-5.414581e+000
6.536575e+002,-2.943298e+000
6.546218e+002,-5.798340e-004
6.555860e+002,1.619720e+000
6.565502e+002,1.387985e+000
6.575145e+002,5.896454e-001
6.584787e+002,-1.460403e+000
6.594429e+002,-3.440155e+000
6.604072e+002,-4.325394e+000
6.613714e+002,-3.928238e+000
6.623356e+002,-2.907944e+000
6.632999e+002,-3.435516e-001
6.642641e+002,1.530090e+000
6.652283e+002,1.112595e+000
6.661926e+002,-1.261978e+000
6.671568e+002,-3.847733e+000
6.681210e+002,-4.622559e+000
6.690853e+002,-4.177856e+000
6.700495e+002,-4.222153e+000
6.710137e+002,-4.743362e+000
6.719780e+002,-5.070755e+000
6.729422e+002,-4.467072e+000
6.739064e+002,-2.763809e+000
6.748707e+002,-1.424744e+000
6.758349e+002,2.929688e-003
6.767991e+002,6.506195e-001
6.777634e+002,-2.223206e-001
6.787276e+002,-2.260056e+000
6.796918e+002,-3.556839e+000
6.806561e+002,-2.869003e+000
6.816203e+002,-2.138916e+000
6.825845e+002,-2.178070e+000
6.835488e+002,-2.676559e+000
6.845130e+002,-2.980789e+000
6.854772e+002,-2.552078e+000
6.864415e+002,-1.721848e+000
6.874057e+002,-1.667877e+000
6.883699e+002,-2.199738e+000
6.893342e+002,-2.360977e+000
6.902984e+002,-1.530807e+000
6.912626e+002,1.110229e-001
6.922269e+002,1.029053e+000
6.931911e+002,1.142609e+000
6.941553e+002,9.943390e-001
6.951196e+002,1.333618e-001
6.960838e+002,-1.056763e+000
6.970480e+002,-1.879791e+000
6.980123e+002,-2.105164e+000
6.989765e+002,-1.929962e+000
6.999407e+002,-8.571930e-001
7.009050e+002,3.890991e-002
7.018692e+002,-5.452118e-001
7.028334e+002,-2.823593e+000
7.037977e+002,-5.241379e+000
7.047619e+002,-4.722443e+000
7.057261e+002,-2.529892e+000
7.066904e+002,-1.615479e+000
7.076546e+002,-2.454575e+000
7.086188e+002,-3.894760e+000
7.095831e+002,-4.085510e+000
7.105473e+002,-2.496857e+000
7.115115e+002,-1.513870e+000
7.124758e+002,-1.165298e+000
7.134400e+002,-1.318161e+000
7.144042e+002,-2.112808e+000
7.153685e+002,-3.448883e+000
7.163327e+002,-4.347580e+000
7.172969e+002,-4.200378e+000
7.182612e+002,-3.569778e+000
7.192254e+002,-2.178238e+000
7.201896e+002,-5.723572e-001
7.211539e+002,3.264160e-001
7.221181e+002,-2.857666e-001
7.230823e+002,-1.918137e+000
7.240466e+002,-3.689362e+000
7.250108e+002,-5.280975e+000
7.259750e+002,-5.217239e+000
7.269393e+002,-2.405731e+000
7.279035e+002,2.447922e+000
7.288677e+002,4.617599e+000
7.298320e+002,1.726227e+000
7.307962e+002,-4.724731e-001
7.317604e+002,-1.520630e+000
7.327247e+002,-1.687744e+000
7.336889e+002,-1.296982e+000
7.346531e+002,-3.714447e-001
7.356174e+002,4.724121e-002
7.365816e+002,-6.722412e-001
7.375458e+002,-1.517471e+000
7.385101e+002,-1.645859e+000
7.394743e+002,-9.199371e-001
7.404385e+002,4.312134e-002
7.414028e+002,2.540131e-001
7.423670e+002,-4.378357e-001
7.433312e+002,-1.354568e+000
7.442955e+002,-2.320313e+000
7.452597e+002,-2.735123e+000
7.462239e+002,-1.816879e+000
7.471882e+002,9.215088e-001
7.481524e+002,2.542816e+000
7.491166e+002,2.132813e+000
7.500809e+002,1.478973e+000
7.510451e+002,1.239212e+000
7.520093e+002,1.334000e+000
7.529736e+002,1.317764e+000
7.539378e+002,1.239914e+000
7.549020e+002,9.225922e-001
7.558663e+002,-2.341614e-001
7.568306e+002,-1.542297e+000
7.577948e+002,-2.003693e+000
7.587590e+002,-1.104401e+000
7.597233e+002,5.327301e-001
7.606875e+002,1.350662e+000
7.616517e+002,1.541809e+000
7.626160e+002,1.749023e+000
7.635802e+002,2.324860e+000
7.645444e+002,2.856476e+000
7.655087e+002,2.271088e+000
7.664729e+002,-4.983673e-001
7.674371e+002,-2.086517e+000
7.684014e+002,-2.213013e+000
7.693656e+002,-1.479004e+000
7.703298e+002,4.827423e-001
7.712941e+002,3.383194e+000
7.722583e+002,5.055771e+000
7.732225e+002,2.227982e+000
7.741868e+002,-8.784485e-001
7.751510e+002,-2.534943e-001
7.761152e+002,3.020660e+000
7.770795e+002,5.614624e+000
7.780437e+002,4.545258e+000
7.790079e+002,4.832458e-001
7.799722e+002,2.307892e-001
7.809364e+002,4.162460e+000
7.819006e+002,7.009216e+000
7.828649e+002,5.948898e+000
7.838291e+002,2.396866e+000
7.847933e+002,1.100525e+000
7.857576e+002,4.312958e+000
7.867218e+002,5.708054e+000
7.876860e+002,2.860291e+000
7.886503e+002,-7.690887e-001
7.896145e+002,-2.264008e+000
7.905787e+002,-8.945618e-001
7.915430e+002,1.463104e+000
7.925072e+002,3.336533e+000
7.934714e+002,4.500717e+000
7.944357e+002,4.630798e+000
7.953999e+002,3.936462e+000
7.963641e+002,3.009018e+000
7.973284e+002,2.432648e+000
7.982926e+002,2.211029e+000
7.992568e+002,2.543594e+000
8.002211e+002,3.649628e+000
8.011853e+002,4.198944e+000
8.021495e+002,3.589066e+000
8.031138e+002,2.377045e+000
8.040780e+002,1.967880e+000
8.050422e+002,2.804642e+000
8.060065e+002,3.792877e+000
8.069707e+002,4.818039e+000
8.079349e+002,5.495239e+000
8.088992e+002,5.365189e+000
8.098634e+002,4.400162e+000
8.108276e+002,3.274918e+000
8.117919e+002,2.682449e+000
8.127561e+002,2.425552e+000
8.137203e+002,2.761658e+000
8.146846e+002,3.837906e+000
8.156488e+002,5.063400e+000
8.166130e+002,5.641678e+000
8.175773e+002,5.503723e+000
8.185415e+002,4.827866e+000
8.195057e+002,2.321106e+000
8.204700e+002,6.675262e-001
8.214342e+002,1.323486e+000
8.223984e+002,3.530655e+000
8.233627e+002,5.264664e+000
8.243269e+002,5.883087e+000
8.252911e+002,5.919342e+000
8.262554e+002,5.345535e+000
8.272196e+002,4.691650e+000
8.281838e+002,4.461929e+000
8.291481e+002,4.844879e+000
8.301123e+002,5.735352e+000
8.310765e+002,7.178360e+000
8.320408e+002,8.942825e+000
8.330050e+002,9.242218e+000
8.339692e+002,7.641998e+000
8.349335e+002,5.736557e+000
8.358977e+002,5.498322e+000
8.368619e+002,7.419785e+000
8.378262e+002,7.904114e+000
8.387904e+002,4.651352e+000
8.397546e+002,2.272308e+000
8.407189e+002,2.394516e+000
8.416831e+002,4.070572e+000
8.426473e+002,5.556549e+000
8.436116e+002,6.103424e+000
8.445758e+002,6.318100e+000
8.455400e+002,6.266937e+000
8.465043e+002,6.262039e+000
8.474685e+002,7.257507e+000
8.484327e+002,9.404785e+000
8.493970e+002,1.156052e+001
8.503612e+002,1.153227e+001
8.513254e+002,8.668930e+000
8.522897e+002,8.160736e+000
8.532539e+002,1.181155e+001
8.542181e+002,1.500786e+001
8.551824e+002,1.454645e+001
8.561466e+002,1.109248e+001
8.571108e+002,9.150482e+000
8.580751e+002,1.040417e+001
8.590393e+002,1.163972e+001
8.600035e+002,1.179860e+001
8.609678e+002,1.164354e+001
8.619320e+002,1.224290e+001
8.628962e+002,1.393829e+001
8.638605e+002,1.570233e+001
8.648247e+002,1.579033e+001
8.657889e+002,1.480682e+001
8.667532e+002,1.410124e+001
8.677174e+002,1.384790e+001
8.686816e+002,1.362825e+001
8.696459e+002,1.283696e+001
8.706101e+002,1.127531e+001
8.715743e+002,1.132797e+001
8.725386e+002,1.424446e+001
8.735028e+002,1.703809e+001
8.744670e+002,1.891341e+001
8.754313e+002,1.998978e+001
8.763955e+002,2.079532e+001
8.773597e+002,2.167155e+001
8.783240e+002,2.191519e+001
8.792882e+002,2.027106e+001
8.802524e+002,1.821191e+001
8.812167e+002,1.694792e+001
8.821809e+002,1.678870e+001
8.831451e+002,1.749496e+001
8.841094e+002,1.886546e+001
8.850736e+002,2.091565e+001
8.860378e+002,2.192039e+001
8.870021e+002,2.144124e+001
8.879663e+002,2.125984e+001
8.889305e+002,2.286928e+001
8.898948e+002,2.567651e+001
8.908590e+002,2.674252e+001
8.918232e+002,2.487918e+001
8.927875e+002,2.303687e+001
8.937517e+002,2.086017e+001
8.947159e+002,1.964297e+001
8.956802e+002,2.108731e+001
8.966444e+002,2.502963e+001
8.976086e+002,2.871153e+001
8.985729e+002,2.925308e+001
8.995371e+002,2.810550e+001
9.005013e+002,2.753239e+001
9.014656e+002,2.764767e+001
9.024298e+002,2.831386e+001
9.033940e+002,2.941153e+001
9.043583e+002,3.072641e+001
9.053225e+002,3.143053e+001
9.062867e+002,3.107300e+001
9.072510e+002,3.039220e+001
9.082152e+002,2.912735e+001
9.091794e+002,2.804315e+001
9.101437e+002,2.797841e+001
9.111079e+002,2.906122e+001
9.120721e+002,3.021928e+001
9.130364e+002,3.110245e+001
9.140006e+002,3.134113e+001
9.149648e+002,3.020030e+001
9.159291e+002,2.846912e+001
9.168933e+002,2.768898e+001
9.178575e+002,2.884854e+001
9.188218e+002,3.108261e+001
9.197860e+002,3.148412e+001
9.207502e+002,2.994894e+001
9.217145e+002,2.882399e+001
9.226787e+002,2.873297e+001
9.236429e+002,2.937280e+001
9.246072e+002,3.051622e+001
9.255714e+002,3.237616e+001
9.265356e+002,3.303642e+001
9.274999e+002,3.117151e+001
9.284641e+002,2.905170e+001
9.294283e+002,2.730708e+001
9.303926e+002,2.600009e+001
9.313568e+002,2.504543e+001
9.323210e+002,2.440773e+001
9.332853e+002,2.384526e+001
9.342495e+002,2.273328e+001
9.352137e+002,2.145607e+001
9.361780e+002,2.087152e+001
9.371422e+002,2.125255e+001
9.381064e+002,2.211250e+001
9.390707e+002,2.264754e+001
9.400349e+002,2.260571e+001
9.409991e+002,2.299313e+001
9.419634e+002,2.427390e+001
9.429276e+002,2.526099e+001
9.438918e+002,2.556496e+001
9.448561e+002,2.546381e+001
9.458203e+002,2.548898e+001
9.467845e+002,2.588644e+001
9.477488e+002,2.613635e+001
9.487130e+002,2.546371e+001
9.496772e+002,2.469063e+001
9.506415e+002,2.471899e+001
9.516057e+002,2.538171e+001
9.525699e+002,2.557170e+001
9.535342e+002,2.414478e+001
9.544984e+002,2.141634e+001
9.554626e+002,2.093182e+001
9.564269e+002,2.342783e+001
9.573911e+002,2.516685e+001
9.583553e+002,2.465324e+001
9.593196e+002,2.295013e+001
9.602838e+002,2.166591e+001
9.612480e+002,2.077188e+001
9.622123e+002,2.051166e+001
9.631765e+002,2.193472e+001
9.641407e+002,2.311339e+001
9.651050e+002,2.238622e+001
9.660692e+002,2.068611e+001
9.670334e+002,2.055699e+001
9.679977e+002,2.372455e+001
9.689619e+002,2.795108e+001
9.699261e+002,2.733142e+001
9.708904e+002,2.338780e+001
9.718546e+002,2.040033e+001
9.728188e+002,1.917213e+001
9.737831e+002,1.938588e+001
9.747473e+002,2.087396e+001
9.757115e+002,2.392702e+001
9.766758e+002,2.696541e+001
9.776400e+002,3.043077e+001
9.786042e+002,3.356866e+001
9.795685e+002,3.693149e+001
9.805327e+002,3.932115e+001
9.814969e+002,3.891138e+001
9.824612e+002,3.516367e+001
9.834254e+002,3.064294e+001
9.843896e+002,2.703372e+001
9.853539e+002,2.427512e+001
9.863181e+002,2.280310e+001
9.872823e+002,2.227429e+001
9.882466e+002,2.153754e+001
9.892108e+002,1.972607e+001
9.901750e+002,1.728610e+001
9.911393e+002,1.621341e+001
9.921035e+002,1.718050e+001
9.930677e+002,1.775330e+001
9.940320e+002,1.733881e+001
9.949962e+002,1.715315e+001
9.959604e+002,1.856076e+001
9.969247e+002,2.160095e+001
9.978889e+002,2.449907e+001
9.988531e+002,2.608293e+001
9.998174e+002,2.730962e+001
1.000782e+003,2.903903e+001
1.001746e+003,3.096399e+001
1.002710e+003,3.262239e+001
1.003674e+003,3.374924e+001
1.004639e+003,3.424159e+001
1.005603e+003,3.380649e+001
1.006567e+003,3.228702e+001
1.007531e+003,3.208409e+001
1.008495e+003,3.418097e+001
1.009460e+003,3.565486e+001
1.010424e+003,3.433545e+001
1.011388e+003,3.096005e+001
1.012352e+003,2.840996e+001
1.013317e+003,2.724690e+001
1.014281e+003,2.632112e+001
1.015245e+003,2.530803e+001
1.016209e+003,2.417493e+001
1.017174e+003,2.276167e+001
1.018138e+003,2.123279e+001
1.019102e+003,2.012477e+001
1.020066e+003,1.999130e+001
1.021031e+003,2.038773e+001
1.021995e+003,1.980902e+001
1.022959e+003,1.829369e+001
1.023923e+003,1.622000e+001
1.024887e+003,1.351875e+001
1.025852e+003,1.058772e+001
1.026816e+003,7.842087e+000
1.027780e+003,5.067535e+000
1.028744e+003,4.045700e+000
1.029709e+003,6.726685e+000
1.030673e+003,8.971283e+000
1.031637e+003,9.303650e+000
1.032601e+003,8.488724e+000
1.033566e+003,7.721909e+000
1.034530e+003,7.468933e+000
1.035494e+003,7.313065e+000
1.036458e+003,6.356171e+000
1.037422e+003,5.413712e+000
1.038387e+003,6.429535e+000
1.039351e+003,9.114563e+000
1.040315e+003,1.093413e+001
1.041279e+003,9.905869e+000
1.042244e+003,6.770447e+000
1.043208e+003,4.933090e+000
1.044172e+003,5.072784e+000
1.045136e+003,5.232498e+000
1.046101e+003,5.582947e+000
1.047065e+003,5.853424e+000
1.048029e+003,6.003815e+000
1.048993e+003,5.880035e+000
1.049958e+003,4.901291e+000
1.050922e+003,2.311768e+000
1.051886e+003,2.888947e-001
1.052850e+003,1.558319e+000
1.053814e+003,4.347244e+000
1.054779e+003,6.606735e+000
1.055743e+003,7.786163e+000
1.056707e+003,8.286057e+000
1.057671e+003,8.594315e+000
1.058636e+003,8.683823e+000
1.059600e+003,8.280914e+000
1.060564e+003,6.788940e+000
1.061528e+003,6.014999e+000
1.062493e+003,6.428558e+000
1.063457e+003,7.278091e+000
1.064421e+003,7.905121e+000
1.065385e+003,8.277313e+000
1.066349e+003,8.550827e+000
1.067314e+003,9.018799e+000
1.068278e+003,9.120712e+000
1.069242e+003,8.103271e+000
1.070206e+003,6.676895e+000
1.071171e+003,5.984360e+000
1.072135e+003,6.397751e+000
1.073099e+003,7.111847e+000
1.074063e+003,6.793167e+000
1.075028e+003,5.288803e+000
1.075992e+003,5.838974e+000
1.076956e+003,1.016508e+001
1.077920e+003,1.314130e+001
1.078885e+003,1.228735e+001
1.079849e+003,9.275986e+000
1.080813e+003,6.950058e+000
1.081777e+003,5.726654e+000
1.082741e+003,5.077713e+000
1.083706e+003,5.008926e+000
1.084670e+003,4.988342e+000
1.085634e+003,4.645493e+000
1.086598e+003,4.147552e+000
1.087563e+003,3.914017e+000
1.088527e+003,4.223969e+000
1.089491e+003,4.956924e+000
1.090455e+003,5.724640e+000
1.091420e+003,6.429413e+000
1.092384e+003,6.975311e+000
1.093348e+003,7.400208e+000
1.094312e+003,7.429596e+000
1.095276e+003,6.401550e+000
1.096241e+003,5.020187e+000
1.097205e+003,5.693832e+000
1.098169e+003,9.934479e+000
1.099133e+003,1.229610e+001
1.100098e+003,8.858643e+000
1.101062e+003,4.919861e+000
1.102026e+003,3.645355e+000
1.102990e+003,4.732803e+000
1.103955e+003,6.736359e+000
1.104919e+003,8.699615e+000
1.105883e+003,9.993439e+000
1.106847e+003,8.931168e+000
1.107812e+003,5.497498e+000
1.108776e+003,4.217255e+000
1.109740e+003,6.147110e+000
1.110704e+003,8.434204e+000
1.111668e+003,9.026245e+000
1.112633e+003,8.406693e+000
1.113597e+003,8.412735e+000
1.114561e+003,9.561737e+000
1.115525e+003,1.023412e+001
1.116490e+003,9.567215e+000
1.117454e+003,8.652328e+000
1.118418e+003,8.166458e+000
1.119382e+003,8.197388e+000
1.120347e+003,8.465546e+000
1.121311e+003,8.700546e+000
1.122275e+003,8.936874e+000
1.123239e+003,9.632889e+000
1.124203e+003,1.091620e+001
1.125168e+003,1.222174e+001
1.126132e+003,1.353941e+001
1.127096e+003,1.491136e+001
1.128060e+003,1.663422e+001
1.129025e+003,1.840562e+001
1.129989e+003,1.872487e+001
1.130953e+003,1.631891e+001
1.131917e+003,1.505225e+001
1.132882e+003,1.695639e+001
1.133846e+003,1.927055e+001
1.134810e+003,2.036133e+001
1.135774e+003,2.044200e+001
1.136739e+003,2.038217e+001
1.137703e+003,2.067949e+001
1.138667e+003,2.140775e+001
1.139631e+003,2.286745e+001
1.140595e+003,2.494881e+001
1.141560e+003,2.659370e+001
1.142524e+003,2.743358e+001
1.143488e+003,2.936841e+001
1.144452e+003,3.429338e+001
1.145417e+003,4.131927e+001
1.146381e+003,4.703029e+001
1.147345e+003,5.055817e+001
1.148309e+003,5.476131e+001
1.149274e+003,6.054419e+001
1.150238e+003,6.703836e+001
1.151202e+003,7.389186e+001
1.152166e+003,8.125452e+001
1.153130e+003,9.010069e+001
1.154095e+003,1.005023e+002
1.155059e+003,1.097295e+002
1.156023e+003,1.139696e+002
1.156987e+003,1.134446e+002
1.157952e+003,1.118723e+002
1.158916e+003,1.095280e+002
1.159880e+003,1.062191e+002
1.160844e+003,1.015923e+002
1.161809e+003,9.552734e+001
1.162773e+003,8.785905e+001
1.163737e+003,7.810822e+001
1.164701e+003,6.898907e+001
1.165666e+003,6.142992e+001
1.166630e+003,5.460379e+001
1.167594e+003,4.753389e+001
1.168558e+003,4.128717e+001
1.169522e+003,3.782806e+001
1.170487e+003,3.739781e+001
1.171451e+003,3.782251e+001
1.172415e+003,3.669301e+001
1.173379e+003,3.421884e+001
1.174344e+003,3.140498e+001
1.175308e+003,2.811273e+001
1.176272e+003,2.629962e+001
1.177236e+003,2.779662e+001
1.178201e+003,3.024158e+001
1.179165e+003,3.026567e+001
1.180129e+003,2.774760e+001
1.181093e+003,2.586499e+001
1.182057e+003,2.586639e+001
1.183022e+003,2.581689e+001
1.183986e+003,2.479401e+001
1.184950e+003,2.354137e+001
1.185914e+003,2.285236e+001
1.186879e+003,2.277367e+001
1.187843e+003,2.267215e+001
1.188807e+003,2.197255e+001
1.189771e+003,2.112064e+001
1.190736e+003,2.184644e+001
1.191700e+003,2.438574e+001
1.192664e+003,2.583762e+001
1.193628e+003,2.566359e+001
1.194593e+003,2.490088e+001
1.195557e+003,2.408438e+001
1.196521e+003,2.322067e+001
1.197485e+003,2.246196e+001
1.198449e+003,2.198967e+001
1.199414e+003,2.119279e+001
1.200378e+003,1.931836e+001
1.201342e+003,1.748346e+001
1.202306e+003,1.618767e+001
1.203271e+003,1.547032e+001
1.204235e+003,1.544011e+001
1.205199e+003,1.608588e+001
1.206163e+003,1.691100e+001
1.207128e+003,1.705281e+001
1.208092e+003,1.648741e+001
1.209056e+003,1.569629e+001
1.210020e+003,1.458485e+001
1.210984e+003,1.350192e+001
1.211949e+003,1.292792e+001
1.212913e+003,1.214229e+001
1.213877e+003,9.969177e+000
1.214841e+003,6.429443e+000
1.215806e+003,3.360809e+000
1.216770e+003,1.392197e+000
1.217734e+003,1.776733e-001
1.218698e+003,-1.984863e-001
1.219663e+003,-4.085388e-001
1.220627e+003,-1.526047e+000
1.221591e+003,-3.502609e+000
1.222555e+003,-5.064743e+000
1.223520e+003,-4.976257e+000
1.224484e+003,-3.671707e+000
1.225448e+003,-3.471207e+000
1.226412e+003,-5.023514e+000
1.227376e+003,-6.383240e+000
1.228341e+003,-8.121719e+000
1.229305e+003,-9.125626e+000
1.230269e+003,-8.189667e+000
1.231233e+003,-6.266205e+000
1.232198e+003,-5.291275e+000
1.233162e+003,-5.742172e+000
1.234126e+003,-6.390564e+000
1.235090e+003,-6.351547e+000
1.236055e+003,-6.270874e+000
1.237019e+003,-7.123581e+000
1.237983e+003,-8.503616e+000
1.238947e+003,-9.023132e+000
1.239911e+003,-8.068497e+000
1.240876e+003,-6.872208e+000
1.241840e+003,-7.503906e+000
1.242804e+003,-1.013730e+001
1.243768e+003,-1.127902e+001
1.244733e+003,-9.753464e+000
1.245697e+003,-8.151215e+000
1.246661e+003,-6.199448e+000
1.247625e+003,-4.842743e+000
1.248590e+003,-5.080521e+000
1.249554e+003,-6.384933e+000
1.250518e+003,-7.360138e+000
1.251482e+003,-7.460281e+000
1.252447e+003,-6.955002e+000
1.253411e+003,-5.805664e+000
1.254375e+003,-4.261703e+000
1.255339e+003,-2.798325e+000
1.256303e+003,-1.425247e+000
1.257268e+003,-6.468048e-001
1.258232e+003,-1.051208e+000
1.259196e+003,-2.071396e+000
1.260160e+003,-2.324905e+000
1.261125e+003,-1.555969e+000
1.262089e+003,-9.649200e-001
1.263053e+003,-1.042084e+000
1.264017e+003,-1.065582e+000
1.264982e+003,-7.748413e-001
1.265946e+003,-3.404388e-001
1.266910e+003,8.331299e-002
1.267874e+003,4.732819e-001
1.268839e+003,1.089706e+000
1.269803e+003,2.133240e+000
1.270767e+003,2.778534e+000
1.271731e+003,9.790497e-001
1.272695e+003,-3.054016e+000
1.273660e+003,-4.836868e+000
1.274624e+003,-3.610168e+000
1.275588e+003,-2.348053e+000
1.276552e+003,-2.793671e+000
1.277517e+003,-3.991364e+000
1.278481e+003,-4.000504e+000
1.279445e+003,-2.606171e+000
1.280409e+003,-2.236038e+000
1.281374e+003,-4.817047e+000
1.282338e+003,-6.985550e+000
1.283302e+003,-6.737991e+000
1.284266e+003,-5.367508e+000
1.285230e+003,-4.041397e+000
1.286195e+003,-3.211166e+000
1.287159e+003,-3.069016e+000
1.288123e+003,-3.735916e+000
1.289087e+003,-4.900772e+000
1.290052e+003,-5.829422e+000
1.291016e+003,-6.584183e+000
1.291980e+003,-7.149170e+000
1.292944e+003,-7.893906e+000
1.293909e+003,-8.195984e+000
1.294873e+003,-7.113525e+000
1.295837e+003,-5.673233e+000
1.296801e+003,-5.642487e+000
1.297766e+003,-7.108109e+000
1.298730e+003,-7.943115e+000
1.299694e+003,-6.643143e+000
1.300658e+003,-5.209412e+000
1.301622e+003,-6.182449e+000
1.302587e+003,-8.280869e+000
1.303551e+003,-9.540070e+000
1.304515e+003,-9.603104e+000
1.305479e+003,-9.362595e+000
1.306444e+003,-9.678040e+000
1.307408e+003,-1.018271e+001
1.308372e+003,-9.231552e+000
1.309336e+003,-5.878525e+000
1.310301e+003,-4.053436e+000
1.311265e+003,-5.099411e+000
1.312229e+003,-6.110001e+000
1.313193e+003,-6.140991e+000
1.314157e+003,-5.849640e+000
1.315122e+003,-6.000656e+000
1.316086e+003,-6.680084e+000
1.317050e+003,-7.443726e+000
1.318014e+003,-7.950790e+000
1.318979e+003,-8.390381e+000
1.319943e+003,-9.405060e+000
1.320907e+003,-1.075485e+001
1.321871e+003,-1.085880e+001
1.322836e+003,-9.564102e+000
1.323800e+003,-7.843765e+000
1.324764e+003,-5.144089e+000
1.325728e+003,-2.836090e+000
1.326693e+003,-4.123398e+000
1.327657e+003,-9.222855e+000
1.328621e+003,-1.255330e+001
1.329585e+003,-1.200360e+001
1.330549e+003,-9.895493e+000
1.331514e+003,-6.603912e+000
1.332478e+003,-3.656845e+000
1.333442e+003,-2.557739e+000
1.334406e+003,-3.128067e+000
1.335371e+003,-4.589142e+000
1.336335e+003,-6.380020e+000
1.337299e+003,-7.527237e+000
1.338263e+003,-5.978745e+000
1.339228e+003,-1.117188e+000
1.340192e+003,6.100922e-001
1.341156e+003,-3.535858e+000
1.342120e+003,-6.561493e+000
1.343084e+003,-7.334686e+000
1.344049e+003,-6.969559e+000
1.345013e+003,-5.740692e+000
1.345977e+003,-4.063385e+000
1.346941e+003,-2.961868e+000
1.347906e+003,-2.827667e+000
1.348870e+003,-2.969299e+000
1.349834e+003,-2.612320e+000
1.350798e+003,-2.349457e+000
1.351763e+003,-3.579910e+000
1.352727e+003,-5.898636e+000
1.353691e+003,-6.992188e+000
1.354655e+003,-5.815460e+000
1.355620e+003,-3.851715e+000
1.356584e+003,-2.718582e+000
1.357548e+003,-2.312225e+000
1.358512e+003,-2.027008e+000
1.359476e+003,-1.937927e+000
1.360441e+003,-2.109344e+000
1.361405e+003,-3.092010e+000
1.362369e+003,-3.646881e+000
1.363333e+003,-2.445206e+000
1.364298e+003,-7.625732e-001
1.365262e+003,-6.584625e-001
1.366226e+003,-2.374969e+000
1.367190e+003,-4.260376e+000
1.368155e+003,-4.858810e+000
1.369119e+003,-4.309647e+000
1.370083e+003,-2.905243e+000
1.371047e+003,-9.111023e-002
1.372011e+003,1.310303e+000
1.372976e+003,3.516083e-001
1.373940e+003,-9.210052e-001
1.374904e+003,-1.911621e+000
1.375868e+003,-2.617188e+000
1.376833e+003,-3.157944e+000
1.377797e+003,-3.517242e+000
1.378761e+003,-3.277893e+000
1.379725e+003,-2.014572e+000
1.380690e+003,-8.076324e-001
1.381654e+003,-1.076965e+000
1.382618e+003,-1.905960e+000
1.383582e+003,-1.934814e+000
1.384547e+003,-1.217117e+000
1.385511e+003,-8.320007e-001
1.386475e+003,-1.422470e+000
1.387439e+003,-2.415451e+000
1.388403e+003,-2.896973e+000
1.389368e+003,-2.879379e+000
1.390332e+003,-2.973145e+000
1.391296e+003,-3.226501e+000
1.392260e+003,-3.379105e+000
1.393225e+003,-3.719650e+000
1.394189e+003,-3.655609e+000
1.395153e+003,-2.271896e+000
1.396117e+003,-4.999390e-001
1.397082e+003,1.440277e-001
1.398046e+003,-5.982666e-001
1.399010e+003,-1.643600e+000
1.399974e+003,-2.070038e+000
1.400938e+003,-2.165848e+000
1.401903e+003,-2.532715e+000
1.402867e+003,-3.117416e+000
1.403831e+003,-2.762665e+000
1.404795e+003,-8.636322e-001
1.405760e+003,8.484344e-001
1.406724e+003,1.850632e+000
1.407688e+003,1.951920e+000
1.408652e+003,6.190643e-001
1.409617e+003,-1.636383e+000
1.410581e+003,-2.860641e+000
1.411545e+003,-2.199905e+000
1.412509e+003,-8.005829e-001
1.413474e+003,7.217865e-001
1.414438e+003,1.765350e+000
1.415402e+003,1.202194e+000
1.416366e+003,-5.818939e-001
1.417330e+003,-1.634842e+000
1.418295e+003,-9.744720e-001
1.419259e+003,-1.724396e-001
1.420223e+003,-1.757813e+000
1.421187e+003,-5.135086e+000
1.422152e+003,-5.739716e+000
1.423116e+003,-2.219925e+000
1.424080e+003,3.010406e-001
1.425044e+003,-9.269867e-001
1.426009e+003,-2.180847e+000
1.426973e+003,-1.934891e+000
1.427937e+003,-8.750763e-001
1.428901e+003,4.460144e-001
1.429865e+003,1.721603e+000
1.430830e+003,2.416016e+000
1.431794e+003,2.150696e+000
1.432758e+003,1.468842e+000
1.433722e+003,1.602463e+000
1.434687e+003,2.788284e+000
1.435651e+003,3.786469e+000
1.436615e+003,4.218307e+000
1.437579e+003,4.294037e+000
1.438544e+003,3.831070e+000
1.439508e+003,3.316162e+000
1.440472e+003,3.266891e+000
1.441436e+003,3.471237e+000
1.442401e+003,3.089996e+000
1.443365e+003,2.043015e+000
1.444329e+003,1.909149e+000
1.445293e+003,4.122971e+000
1.446257e+003,7.299850e+000
1.447222e+003,8.873474e+000
1.448186e+003,9.000183e+000
1.449150e+003,8.270447e+000
1.450114e+003,6.424759e+000
1.451079e+003,4.814240e+000
1.452043e+003,4.347168e+000
1.453007e+003,4.491806e+000
1.453971e+003,4.592133e+000
1.454936e+003,4.557785e+000
1.455900e+003,4.031082e+000
1.456864e+003,2.697784e+000
1.457828e+003,1.932892e+000
1.458792e+003,3.202072e+000
1.459757e+003,4.623886e+000
1.460721e+003,4.533798e+000
1.461685e+003,3.450531e+000
1.462649e+003,2.421585e+000
1.463614e+003,1.834335e+000
1.464578e+003,1.865234e+000
1.465542e+003,2.758026e+000
1.466506e+003,4.064331e+000
1.467471e+003,4.441711e+000
1.468435e+003,3.672989e+000
1.469399e+003,3.741302e+000
1.470363e+003,5.747253e+000
1.471328e+003,6.878983e+000
1.472292e+003,5.366837e+000
1.473256e+003,3.681198e+000
1.474220e+003,4.013977e+000
1.475184e+003,5.688797e+000
1.476149e+003,6.896957e+000
1.477113e+003,7.003220e+000
1.478077e+003,6.866394e+000
1.479041e+003,7.402756e+000
1.480006e+003,8.470428e+000
1.480970e+003,9.417877e+000
1.481934e+003,1.035782e+001
1.482898e+003,1.005226e+001
1.483863e+003,6.418594e+000
1.484827e+003,4.550430e+000
1.485791e+003,7.619186e+000
1.486755e+003,1.160568e+001
1.487719e+003,1.248705e+001
1.488684e+003,1.102168e+001
1.489648e+003,1.026376e+001
1.490612e+003,1.124777e+001
1.491576e+003,1.277963e+001
1.492541e+003,1.388284e+001
1.493505e+003,1.476826e+001
1.494469e+003,1.611510e+001
1.495433e+003,1.765930e+001
1.496398e+003,1.813657e+001
1.497362e+003,1.689946e+001
1.498326e+003,1.678598e+001
1.499290e+003,2.033998e+001
1.500255e+003,2.504242e+001
1.501219e+003,2.686926e+001
1.502183e+003,2.643304e+001
1.503147e+003,2.816156e+001
1.504111e+003,3.338164e+001
1.505076e+003,3.893654e+001
1.506040e+003,4.329305e+001
1.507004e+003,4.689301e+001
1.507968e+003,4.938148e+001
1.508933e+003,5.177068e+001
1.509897e+003,5.648831e+001
1.510861e+003,6.402560e+001
1.511825e+003,7.198643e+001
1.512790e+003,7.846463e+001
1.513754e+003,8.440382e+001
1.514718e+003,9.192340e+001
1.515682e+003,1.009026e+002
1.516646e+003,1.095051e+002
1.517611e+003,1.176097e+002
1.518575e+003,1.256295e+002
1.519539e+003,1.347990e+002
1.520503e+003,1.429969e+002
1.521468e+003,1.497295e+002
1.522432e+003,1.543534e+002
1.523396e+003,1.557949e+002
1.524360e+003,1.542481e+002
1.525325e+003,1.510594e+002
1.526289e+003,1.471629e+002
1.527253e+003,1.429445e+002
1.528217e+003,1.392753e+002
1.529182e+003,1.362955e+002
1.530146e+003,1.300877e+002
1.531110e+003,1.186642e+002
1.532074e+003,1.073935e+002
1.533039e+003,9.626930e+001
1.534003e+003,8.536459e+001
1.534967e+003,7.473618e+001
1.535931e+003,6.479411e+001
1.536896e+003,5.577054e+001
1.537860e+003,4.784503e+001
1.538824e+003,4.127879e+001
1.539788e+003,3.610802e+001
1.540752e+003,3.185548e+001
1.541717e+003,2.798209e+001
1.542681e+003,2.454927e+001
1.543645e+003,2.145030e+001
1.544609e+003,1.855916e+001
1.545573e+003,1.678345e+001
1.546538e+003,1.697838e+001
1.547502e+003,1.680237e+001
1.548466e+003,1.505832e+001
1.549430e+003,1.311349e+001
1.550395e+003,1.205838e+001
1.551359e+003,1.196281e+001
1.552323e+003,1.309821e+001
1.553287e+003,1.540936e+001
1.554252e+003,1.696278e+001
1.555216e+003,1.594856e+001
1.556180e+003,1.326840e+001
1.557144e+003,1.066647e+001
1.558109e+003,8.214066e+000
1.559073e+003,7.587524e+000
1.560037e+003,9.912750e+000
1.561001e+003,1.138173e+001
1.561966e+003,1.004202e+001
1.562930e+003,8.294891e+000
1.563894e+003,8.501160e+000
1.564858e+003,9.897430e+000
1.565823e+003,1.042543e+001
1.566787e+003,9.705704e+000
1.567751e+003,8.914810e+000
1.568715e+003,8.735596e+000
1.569679e+003,8.821030e+000
1.570644e+003,8.725449e+000
1.571608e+003,8.429672e+000
1.572572e+003,8.037338e+000
1.573536e+003,7.615784e+000
1.574500e+003,7.463669e+000
1.575465e+003,7.568268e+000
1.576429e+003,8.056549e+000
1.577393e+003,9.293961e+000
1.578357e+003,1.080177e+001
1.579322e+003,1.170816e+001
1.580286e+003,1.201175e+001
1.581250e+003,1.220988e+001
1.582214e+003,1.247906e+001
1.583179e+003,1.253517e+001
1.584143e+003,1.182912e+001
1.585107e+003,1.099174e+001
1.586071e+003,1.125311e+001
1.587036e+003,1.229138e+001
1.588000e+003,1.267281e+001
1.588964e+003,1.198409e+001
1.589928e+003,1.105316e+001
1.590893e+003,1.019321e+001
1.591857e+003,9.664520e+000
1.592821e+003,9.965134e+000
1.593785e+003,1.100774e+001
1.594750e+003,1.224553e+001
1.595714e+003,1.363301e+001
1.596678e+003,1.477332e+001
1.597642e+003,1.563611e+001
1.598606e+003,1.602711e+001
1.599571e+003,1.527873e+001
1.600535e+003,1.437372e+001
1.601499e+003,1.493318e+001
1.602463e+003,1.664732e+001
1.603427e+003,1.754222e+001
1.604392e+003,1.678804e+001
1.605356e+003,1.534320e+001
1.606320e+003,1.354019e+001
1.607284e+003,1.200830e+001
1.608249e+003,1.308517e+001
1.609213e+003,1.689621e+001
1.610177e+003,1.921802e+001
1.611141e+003,1.899498e+001
1.612106e+003,1.816527e+001
1.613070e+003,1.723846e+001
1.614034e+003,1.639359e+001
1.614998e+003,1.589198e+001
1.615963e+003,1.552472e+001
1.616927e+003,1.447180e+001
1.617891e+003,1.289091e+001
1.618855e+003,1.285175e+001
1.619820e+003,1.581657e+001
1.620784e+003,1.932657e+001
1.621748e+003,1.997438e+001
1.622712e+003,1.831065e+001
1.623677e+003,1.660207e+001
1.624641e+003,1.473752e+001
1.625605e+003,1.367528e+001
1.626569e+003,1.351028e+001
1.627533e+003,1.384912e+001
1.628498e+003,1.540028e+001
1.629462e+003,1.680650e+001
1.630426e+003,1.650389e+001
1.631390e+003,1.517816e+001
1.632354e+003,1.444049e+001
1.633319e+003,1.468135e+001
1.634283e+003,1.534509e+001
1.635247e+003,1.612753e+001
1.636211e+003,1.669746e+001
1.637176e+003,1.638837e+001
1.638140e+003,1.531526e+001
1.639104e+003,1.435718e+001
1.640068e+003,1.322966e+001
1.641033e+003,1.328648e+001
1.641997e+003,1.631017e+001
1.642961e+003,1.862157e+001
1.643925e+003,1.794421e+001
1.644890e+003,1.611847e+001
1.645854e+003,1.442886e+001
1.646818e+003,1.323233e+001
1.647782e+003,1.290965e+001
1.648747e+003,1.354890e+001
1.649711e+003,1.493248e+001
1.650675e+003,1.723776e+001
1.651639e+003,1.960461e+001
1.652604e+003,1.987566e+001
1.653568e+003,1.807912e+001
1.654532e+003,1.646802e+001
1.655496e+003,1.493558e+001
1.656460e+003,1.444214e+001
1.657425e+003,1.637587e+001
1.658389e+003,1.799937e+001
1.659353e+003,1.805869e+001
1.660317e+003,1.692542e+001
1.661281e+003,1.406071e+001
1.662246e+003,1.042461e+001
1.663210e+003,8.754440e+000
1.664174e+003,9.910782e+000
1.665138e+003,1.155385e+001
1.666103e+003,1.153407e+001
1.667067e+003,1.086574e+001
1.668031e+003,1.213255e+001
1.668995e+003,1.511867e+001
1.669960e+003,1.612021e+001
1.670924e+003,1.442047e+001
1.671888e+003,1.278851e+001
1.672852e+003,1.208221e+001
1.673817e+003,1.149844e+001
1.674781e+003,1.018987e+001
1.675745e+003,8.953690e+000
1.676709e+003,8.851837e+000
1.677674e+003,9.600128e+000
1.678638e+003,1.025568e+001
1.679602e+003,1.051823e+001
1.680566e+003,1.018575e+001
1.681531e+003,8.926697e+000
1.682495e+003,7.348022e+000
1.683459e+003,6.052277e+000
1.684423e+003,5.132858e+000
1.685387e+003,6.037247e+000
1.686352e+003,9.319473e+000
1.687316e+003,1.109586e+001
1.688280e+003,9.391724e+000
1.689244e+003,7.297363e+000
1.690208e+003,7.414688e+000
1.691173e+003,8.068756e+000
1.692137e+003,7.122757e+000
1.693101e+003,5.233917e+000
1.694065e+003,4.672058e+000
1.695030e+003,5.948700e+000
1.695994e+003,7.126038e+000
1.696958e+003,7.117798e+000
1.697922e+003,6.379333e+000
1.698887e+003,5.089172e+000
1.699851e+003,3.619125e+000
1.700815e+003,3.308731e+000
1.701779e+003,4.179459e+000
1.702744e+003,4.070145e+000
1.703708e+003,2.021500e+000
1.704672e+003,5.298004e-001
1.705636e+003,1.940750e+000
1.706601e+003,4.081207e+000
1.707565e+003,3.223175e+000
1.708529e+003,6.051331e-001
1.709493e+003,3.423767e-001
1.710458e+003,3.223267e+000
1.711422e+003,5.236938e+000
1.712386e+003,4.247681e+000
1.713350e+003,2.573914e+000
1.714314e+003,1.789398e+000
1.715279e+003,1.504776e+000
1.716243e+003,9.304962e-001
1.717207e+003,2.704010e-001
1.718171e+003,1.026062e+000
1.719135e+003,3.627014e+000
1.720100e+003,5.557693e+000
1.721064e+003,4.960037e+000
1.722028e+003,3.232590e+000
1.722992e+003,2.403244e+000
1.723957e+003,2.385056e+000
1.724921e+003,1.998688e+000
1.725885e+003,9.215088e-001
1.726849e+003,4.304352e-001
1.727814e+003,1.384399e+000
1.728778e+003,2.416275e+000
1.729742e+003,3.174332e+000
1.730706e+003,3.471100e+000
1.731671e+003,2.740295e+000
1.732635e+003,1.370163e+000
1.733599e+003,3.593597e-001
1.734563e+003,-4.713440e-002
1.735528e+003,-2.588196e-001
1.736492e+003,-5.416718e-001
1.737456e+003,-9.633026e-001
1.738420e+003,-1.663712e+000
1.739385e+003,-2.498413e+000
1.740349e+003,-2.660858e+000
1.741313e+003,-2.051834e+000
1.742277e+003,-8.951416e-001
1.743241e+003,1.980042e+000
1.744206e+003,3.703979e+000
1.745170e+003,2.396500e+000
1.746134e+003,1.508652e+000
1.747098e+003,4.067520e+000
1.748063e+003,7.220551e+000
1.749027e+003,7.349823e+000
1.749991e+003,5.017517e+000
1.750955e+003,2.704987e+000
1.751919e+003,1.406036e+000
1.752884e+003,9.591675e-001
1.753848e+003,1.261948e+000
1.754812e+003,1.567322e+000
1.755776e+003,2.664337e-001
1.756741e+003,-2.471512e+000
1.757705e+003,-3.698990e+000
1.758669e+003,-2.965027e+000
1.759633e+003,-2.258011e+000
1.760598e+003,-1.778641e+000
1.761562e+003,-1.479034e+000
1.762526e+003,-1.188522e+000
1.763490e+003,-1.046860e+000
1.764455e+003,-1.167953e+000
1.765419e+003,-1.470596e+000
1.766383e+003,-2.276962e+000
1.767347e+003,-3.295242e+000
1.768312e+003,-2.888290e+000
1.769276e+003,-2.669067e-001
1.770240e+003,2.121262e+000
1.771204e+003,1.608627e+000
1.772168e+003,-5.213318e-001
1.773133e+003,-1.746796e+000
1.774097e+003,-2.086075e+000
1.775061e+003,-1.286667e+000
1.776025e+003,9.151154e-001
1.776990e+003,1.582474e+000
1.777954e+003,-8.698273e-001
1.778918e+003,-3.397812e+000
1.779882e+003,-4.027847e+000
1.780846e+003,-3.491150e+000
1.781811e+003,-2.548508e+000
1.782775e+003,-1.245193e+000
1.783739e+003,4.287262e-001
1.784703e+003,2.619980e+000
1.785668e+003,3.876038e+000
1.786632e+003,3.146988e+000
1.787596e+003,1.672562e+000
1.788560e+003,2.240143e-001
1.789525e+003,-1.077576e+000
1.790489e+003,-2.500549e+000
1.791453e+003,-3.751846e+000
1.792417e+003,-3.495636e+000
1.793382e+003,-1.663361e+000
1.794346e+003,-4.928589e-001
1.795310e+003,-1.232956e+000
1.796274e+003,-2.396011e+000
1.797239e+003,-2.158661e+000
1.798203e+003,-9.980316e-001
1.799167e+003,-9.073792e-001
1.800131e+003,-2.426254e+000
1.801095e+003,-2.684708e+000
1.802060e+003,4.958649e-001
1.803024e+003,1.703323e+000
1.803988e+003,-1.796265e+000
1.804952e+003,-4.769211e+000
1.805917e+003,-4.279968e+000
1.806881e+003,-2.474731e+000
1.807845e+003,-1.304535e+000
1.808809e+003,-7.485962e-001
1.809773e+003,-6.538391e-002
1.810738e+003,8.289642e-001
1.811702e+003,1.324860e+000
1.812666e+003,1.034897e+000
1.813630e+003,2.104950e-001
1.814595e+003,-8.799286e-001
1.815559e+003,-2.152924e+000
1.816523e+003,-3.171799e+000
1.817487e+003,-3.918457e+000
1.818452e+003,-4.289764e+000
1.819416e+003,-4.109848e+000
1.820380e+003,-3.809280e+000
1.821344e+003,-3.658981e+000
1.822309e+003,-3.376236e+000
1.823273e+003,-2.483292e+000
1.824237e+003,-1.492203e+000
1.825201e+003,-1.010788e+000
1.826166e+003,-9.433746e-001
1.827130e+003,-9.861450e-001
1.828094e+003,-1.102829e+000
1.829058e+003,-9.949799e-001
1.830022e+003,-2.042542e-001
1.830987e+003,3.333588e-001
1.831951e+003,-6.200867e-001
1.832915e+003,-1.957870e+000
1.833879e+003,-2.126160e+000
1.834844e+003,-1.271271e+000
1.835808e+003,6.013947e-001
1.836772e+003,3.117828e+000
1.837736e+003,3.015762e+000
1.838700e+003,-1.295731e+000
1.839665e+003,-5.323380e+000
1.840629e+003,-4.721161e+000
1.841593e+003,-1.629639e+000
1.842557e+003,-5.985413e-001
1.843522e+003,-1.607559e+000
1.844486e+003,-2.694458e+000
1.845450e+003,-4.422668e+000
1.846414e+003,-4.853592e+000
1.847379e+003,-2.708206e+000
1.848343e+003,-1.339905e+000
1.849307e+003,-2.814529e+000
1.850271e+003,-4.153839e+000
1.851236e+003,-2.278381e+000
1.852200e+003,6.003876e-001
1.853164e+003,8.775940e-001
1.854128e+003,-1.211655e+000
1.855093e+003,-3.092041e+000
1.856057e+003,-3.598114e+000
1.857021e+003,-2.800308e+000
1.857985e+003,-5.296478e-001
1.858949e+003,1.595505e+000
1.859914e+003,-4.444885e-002
1.860878e+003,-4.410233e+000
1.861842e+003,-5.338348e+000
1.862806e+003,-2.733368e+000
1.863771e+003,-1.010818e+000
1.864735e+003,-1.081497e+000
1.865699e+003,-1.344330e+000
1.866663e+003,-1.073074e+000
1.867627e+003,-6.909485e-001
1.868592e+003,-8.794708e-001
1.869556e+003,-1.173187e+000
1.870520e+003,-5.514526e-002
1.871484e+003,2.071472e+000
1.872449e+003,2.237717e+000
1.873413e+003,-4.338837e-001
1.874377e+003,-1.721954e+000
1.875341e+003,5.666199e-001
1.876306e+003,2.781311e+000
1.877270e+003,3.091293e+000
1.878234e+003,2.246872e+000
1.879198e+003,4.009552e-001
1.880163e+003,-1.619553e+000
1.881127e+003,-2.615799e+000
1.882091e+003,-2.418777e+000
1.883055e+003,-1.052338e+000
1.884020e+003,1.222473e+000
1.884984e+003,2.595078e+000
1.885948e+003,1.362167e+000
1.886912e+003,-8.983002e-001
1.887876e+003,-8.721924e-001
1.888841e+003,1.195694e+000
1.889805e+003,2.029358e+000
1.890769e+003,1.294189e+000
1.891733e+003,1.239258e+000
1.892698e+003,2.593399e+000
1.893662e+003,3.141571e+000
1.894626e+003,1.364105e+000
1.895590e+003,-3.496552e-001
1.896554e+003,-4.318237e-002
1.897519e+003,1.094681e+000
1.898483e+003,1.756622e+000
1.899447e+003,1.860870e+000
1.900411e+003,1.583450e+000
1.901376e+003,9.645996e-001
1.902340e+003,3.196716e-001
1.903304e+003,-3.571320e-001
1.904268e+003,-8.763275e-001
1.905233e+003,-1.280563e+000
1.906197e+003,-1.257843e+000
1.907161e+003,-1.727905e-001
1.908125e+003,1.453430e+000
1.909090e+003,2.685669e+000
1.910054e+003,3.371048e+000
1.911018e+003,3.671722e+000
1.911982e+003,3.758316e+000
1.912947e+003,4.082199e+000
1.913911e+003,4.952408e+000
1.914875e+003,5.671295e+000
1.915839e+003,4.973816e+000
1.916803e+003,3.308517e+000
1.917768e+003,3.625702e+000
1.918732e+003,6.549393e+000
1.919696e+003,7.726563e+000
1.920660e+003,6.648422e+000
1.921625e+003,5.165115e+000
1.922589e+003,2.732590e+000
1.923553e+003,1.351593e+000
1.924517e+003,3.201553e+000
1.925481e+003,5.602005e+000
1.926446e+003,6.024368e+000
1.927410e+003,5.368713e+000
1.928374e+003,5.723602e+000
1.929338e+003,7.022049e+000
1.930303e+003,6.984192e+000
1.931267e+003,4.670624e+000
1.932231e+003,2.658218e+000
1.933195e+003,2.116943e+000
1.934160e+003,2.038788e+000
1.935124e+003,1.676636e+000
1.936088e+003,1.321289e+000
1.937052e+003,1.487427e+000
1.938017e+003,2.073700e+000
1.938981e+003,2.766296e+000
1.939945e+003,3.422348e+000
1.940909e+003,4.020538e+000
1.941874e+003,4.478836e+000
1.942838e+003,4.247757e+000
1.943802e+003,2.812714e+000
1.944766e+003,1.195160e+000
1.945730e+003,1.357758e+000
1.946695e+003,3.016571e+000
1.947659e+003,4.534866e+000
1.948623e+003,5.982819e+000
1.949587e+003,6.051331e+000
1.950552e+003,4.189407e+000
1.951516e+003,2.916641e+000
1.952480e+003,3.448410e+000
1.953444e+003,3.863403e+000
1.954408e+003,2.081070e+000
1.955373e+003,7.814026e-002
1.956337e+003,1.457825e+000
1.957301e+003,5.103134e+000
1.958265e+003,6.589844e+000
1.959230e+003,5.557785e+000
1.960194e+003,4.728027e+000
1.961158e+003,3.793396e+000
1.962122e+003,3.823181e+000
1.963087e+003,6.190292e+000
1.964051e+003,8.306488e+000
1.965015e+003,8.941574e+000
1.965979e+003,8.561432e+000
1.966944e+003,6.888855e+000
1.967908e+003,4.849014e+000
1.968872e+003,4.057693e+000
1.969836e+003,4.580719e+000
1.970801e+003,5.381073e+000
1.971765e+003,5.968109e+000
1.972729e+003,6.123489e+000
1.973693e+003,5.538864e+000
1.974657e+003,4.768631e+000
1.975622e+003,4.515274e+000
1.976586e+003,4.712402e+000
1.977550e+003,5.639191e+000
1.978514e+003,7.036224e+000
1.979479e+003,7.069016e+000
1.980443e+003,5.556824e+000
1.981407e+003,4.555161e+000
1.982371e+003,4.867416e+000
1.983335e+003,5.758667e+000
1.984300e+003,6.712662e+000
1.985264e+003,7.451202e+000
1.986228e+003,7.556732e+000
1.987192e+003,7.172333e+000
1.988157e+003,7.076492e+000
1.989121e+003,7.436493e+000
1.990085e+003,7.401199e+000
1.991049e+003,6.849289e+000
1.992014e+003,6.245224e+000
1.992978e+003,4.909195e+000
1.993942e+003,4.443481e+000
1.994906e+003,6.265015e+000
1.995871e+003,8.250610e+000
1.996835e+003,9.139481e+000
1.997799e+003,9.089111e+000
1.998763e+003,7.839005e+000
1.999728e+003,5.835617e+000
