5.003444e+002,3.665892e+001
5.013087e+002,3.457997e+001
5.022729e+002,3.376921e+001
5.032371e+002,3.393440e+001
5.042014e+002,3.318298e+001
5.051656e+002,3.171812e+001
5.061298e+002,3.047598e+001
5.070941e+002,3.035205e+001
5.080583e+002,3.165524e+001
5.090225e+002,3.178682e+001
5.099868e+002,2.962994e+001
5.109510e+002,2.782253e+001
5.119152e+002,2.802577e+001
5.128795e+002,3.045869e+001
5.138437e+002,3.248003e+001
5.148079e+002,3.363974e+001
5.157722e+002,3.389896e+001
5.167364e+002,3.266356e+001
5.177006e+002,3.013989e+001
5.186649e+002,2.737161e+001
5.196291e+002,2.554839e+001
5.205933e+002,2.460573e+001
5.215576e+002,2.450117e+001
5.225218e+002,2.500626e+001
5.234860e+002,2.567491e+001
5.244503e+002,2.587471e+001
5.254145e+002,2.566214e+001
5.263787e+002,2.503038e+001
5.273430e+002,2.327232e+001
5.283072e+002,2.155968e+001
5.292714e+002,2.165210e+001
5.302357e+002,2.459718e+001
5.311999e+002,2.670779e+001
5.321641e+002,2.826880e+001
5.331284e+002,2.886928e+001
5.340926e+002,2.752336e+001
5.350568e+002,2.361679e+001
5.360211e+002,2.002008e+001
5.369853e+002,2.001395e+001
5.379495e+002,2.142549e+001
5.389138e+002,2.270114e+001
5.398780e+002,2.312056e+001
5.408422e+002,2.292136e+001
5.418065e+002,2.281453e+001
5.427707e+002,2.274637e+001
5.437349e+002,2.212822e+001
5.446992e+002,2.061253e+001
5.456634e+002,1.851588e+001
5.466276e+002,1.699635e+001
5.475919e+002,1.651978e+001
5.485561e+002,1.628720e+001
5.495203e+002,1.618086e+001
5.504846e+002,1.621143e+001
5.514488e+002,1.666212e+001
5.524130e+002,1.830283e+001
5.533773e+002,1.894882e+001
5.543415e+002,1.717760e+001
5.553057e+002,1.430493e+001
5.562700e+002,1.143216e+001
5.572342e+002,9.225815e+000
5.581984e+002,7.683060e+000
5.591627e+002,6.982971e+000
5.601269e+002,6.972778e+000
5.610911e+002,7.395050e+000
5.620554e+002,8.115906e+000
5.630196e+002,9.015503e+000
5.639838e+002,9.468628e+000
5.649481e+002,9.020966e+000
5.659123e+002,8.804550e+000
5.668765e+002,9.570206e+000
5.678408e+002,1.091072e+001
5.688050e+002,1.134760e+001
5.697692e+002,9.184906e+000
5.707335e+002,7.530655e+000
5.716977e+002,7.683853e+000
5.726619e+002,8.856079e+000
5.736262e+002,1.004810e+001
5.745904e+002,1.066937e+001
5.755546e+002,1.081613e+001
5.765189e+002,1.033165e+001
5.774831e+002,9.453018e+000
5.784473e+002,8.907379e+000
5.794116e+002,9.240265e+000
5.803758e+002,1.036346e+001
5.813400e+002,9.828583e+000
5.823043e+002,6.920578e+000
5.832685e+002,4.249008e+000
5.842327e+002,2.388489e+000
5.851970e+002,1.522308e+000
5.861612e+002,2.347092e+000
5.871254e+002,7.673325e+000
5.880897e+002,1.157195e+001
5.890539e+002,1.239680e+001
5.900181e+002,1.105940e+001
5.909824e+002,9.081818e+000
5.919466e+002,7.044800e+000
5.929108e+002,5.652557e+000
5.938751e+002,5.766678e+000
5.948393e+002,6.718842e+000
5.958035e+002,7.661865e+000
5.967678e+002,7.977982e+000
5.977320e+002,7.682617e+000
5.986962e+002,5.656967e+000
5.996605e+002,1.453827e+000
6.006247e+002,-1.069763e+000
6.015889e+002,1.178574e+000
6.025532e+002,7.706238e+000
6.035174e+002,1.097189e+001
6.044816e+002,7.050720e+000
6.054459e+002,3.865356e+000
6.064101e+002,2.800476e+000
6.073743e+002,3.165527e+000
6.083386e+002,3.503082e+000
6.093028e+002,3.062851e+000
6.102670e+002,2.572540e+000
6.112313e+002,2.481476e+000
6.121955e+002,2.692780e+000
6.131597e+002,3.143951e+000
6.141240e+002,3.777466e+000
6.150882e+002,4.473236e+000
6.160524e+002,4.680984e+000
6.170167e+002,4.552032e+000
6.179809e+002,4.691986e+000
6.189451e+002,5.390991e+000
6.199094e+002,6.489609e+000
6.208736e+002,7.236343e+000
6.218378e+002,8.333405e+000
6.228021e+002,8.391983e+000
6.237663e+002,6.177185e+000
6.247305e+002,3.167267e+000
6.256948e+002,1.933472e+000
6.266590e+002,4.313736e+000
6.276232e+002,6.262970e+000
6.285875e+002,5.004730e+000
6.295517e+002,2.481552e+000
6.305159e+002,4.989471e-001
6.314802e+002,4.867554e-002
6.324444e+002,6.838837e-001
6.334086e+002,1.664902e+000
6.343729e+002,3.001572e+000
6.353371e+002,4.860291e+000
6.363013e+002,7.575302e+000
6.372656e+002,1.036111e+001
6.382298e+002,1.044519e+001
6.391940e+002,4.187149e+000
6.401583e+002,-2.250977e-001
6.411225e+002,-1.854279e+000
6.420867e+002,-1.789627e+000
6.430510e+002,-1.228699e+000
6.440152e+002,-3.552399e-001
6.449794e+002,2.187653e-001
6.459437e+002,6.646729e-002
6.469079e+002,-3.476105e-001
6.478721e+002,-7.279205e-001
6.488364e+002,-8.972931e-001
6.498006e+002,-7.689056e-001
6.507648e+002,7.403564e-002
6.517291e+002,1.179916e+000
6.526933e+002,1.302368e+000
6.536575e+002,1.335602e-001
6.546218e+002,-1.437775e+000
6.555860e+002,-1.591461e+000
6.565502e+002,1.186829e+000
6.575145e+002,1.914917e+000
6.584787e+002,-9.149628e-001
6.594429e+002,-4.281891e+000
6.604072e+002,-5.769577e+000
6.613714e+002,-4.909180e+000
6.623356e+002,-3.697601e+000
6.632999e+002,-3.143814e+000
6.642641e+002,-2.610733e+000
6.652283e+002,-1.441086e+000
6.661926e+002,2.697601e-001
6.671568e+002,1.827103e+000
6.681210e+002,2.304245e+000
6.690853e+002,1.844742e+000
6.700495e+002,1.078812e+000
6.710137e+002,6.968689e-002
6.719780e+002,-7.909546e-001
6.729422e+002,-1.105423e+000
6.739064e+002,-8.352966e-001
6.748707e+002,-4.461670e-001
6.758349e+002,5.190125e-001
6.767991e+002,1.015854e+000
6.777634e+002,2.084198e-001
6.787276e+002,-1.541962e+000
6.796918e+002,-2.198792e+000
6.806561e+002,5.867004e-002
6.816203e+002,2.169937e+000
6.825845e+002,3.062241e+000
6.835488e+002,2.976944e+000
6.845130e+002,2.397659e+000
6.854772e+002,1.652893e+000
6.864415e+002,9.589233e-001
6.874057e+002,6.039734e-001
6.883699e+002,3.752594e-001
6.893342e+002,2.998352e-002
6.902984e+002,-5.519867e-001
6.912626e+002,-1.247391e+000
6.922269e+002,-1.470917e+000
6.931911e+002,-5.330200e-001
6.941553e+002,3.064880e-001
6.951196e+002,9.547882e-001
6.960838e+002,1.239471e+000
6.970480e+002,7.636108e-001
6.980123e+002,-1.121094e+000
6.989765e+002,-2.062592e+000
6.999407e+002,-2.099762e-001
7.009050e+002,2.082169e+000
7.018692e+002,2.612183e+000
7.028334e+002,8.121796e-001
7.037977e+002,-1.525635e+000
7.047619e+002,-1.030701e+000
7.057261e+002,1.001617e+000
7.066904e+002,1.490524e+000
7.076546e+002,-5.761719e-002
7.086188e+002,-2.287628e+000
7.095831e+002,-3.089783e+000
7.105473e+002,-2.204407e+000
7.115115e+002,-5.994720e-001
7.124758e+002,2.792709e+000
7.134400e+002,5.645874e+000
7.144042e+002,6.555573e+000
7.153685e+002,5.532120e+000
7.163327e+002,3.913712e+000
7.172969e+002,1.122833e+000
7.182612e+002,-1.019379e+000
7.192254e+002,-1.610931e+000
7.201896e+002,-9.942627e-001
7.211539e+002,2.295990e-001
7.221181e+002,1.720306e+000
7.230823e+002,2.974579e+000
7.240466e+002,2.296432e+000
7.250108e+002,3.054352e-001
7.259750e+002,-7.335358e-001
7.269393e+002,6.322479e-001
7.279035e+002,3.788620e+000
7.288677e+002,4.676941e+000
7.298320e+002,7.420654e-001
7.307962e+002,-1.828262e+000
7.317604e+002,-2.224960e+000
7.327247e+002,-1.175552e+000
7.336889e+002,5.358582e-001
7.346531e+002,2.997406e+000
7.356174e+002,4.301361e+000
7.365816e+002,3.009460e+000
7.375458e+002,1.094818e+000
7.385101e+002,-1.231689e-001
7.394743e+002,-2.299347e-001
7.404385e+002,3.941498e-001
7.414028e+002,1.355392e+000
7.423670e+002,2.220642e+000
7.433312e+002,2.288116e+000
7.442955e+002,1.656143e+000
7.452597e+002,8.044128e-001
7.462239e+002,8.335876e-002
7.471882e+002,-6.554108e-001
7.481524e+002,-7.932892e-001
7.491166e+002,-5.873108e-002
7.500809e+002,4.951630e-001
7.510451e+002,1.377411e-001
7.520093e+002,-7.767181e-001
7.529736e+002,-8.103943e-001
7.539378e+002,1.810333e+000
7.549020e+002,4.021790e+000
7.558663e+002,3.088455e+000
7.568306e+002,8.213654e-001
7.577948e+002,-4.745483e-002
7.587590e+002,1.978607e+000
7.597233e+002,5.375183e+000
7.606875e+002,5.323608e+000
7.616517e+002,2.407196e+000
7.626160e+002,8.554230e-001
7.635802e+002,2.235168e+000
7.645444e+002,5.078659e+000
7.655087e+002,6.177765e+000
7.664729e+002,4.288910e+000
7.674371e+002,3.236572e+000
7.684014e+002,4.004211e+000
7.693656e+002,4.837051e+000
7.703298e+002,4.500458e+000
7.712941e+002,2.944489e+000
7.722583e+002,1.345276e+000
7.732225e+002,1.558228e-001
7.741868e+002,-2.854462e-001
7.751510e+002,8.465576e-001
7.761152e+002,2.961105e+000
7.770795e+002,4.562317e+000
7.780437e+002,4.294785e+000
7.790079e+002,2.517685e+000
7.799722e+002,3.166611e+000
7.809364e+002,6.511185e+000
7.819006e+002,8.999573e+000
7.828649e+002,9.065948e+000
7.838291e+002,7.382935e+000
7.847933e+002,5.955490e+000
7.857576e+002,4.737503e+000
7.867218e+002,3.596909e+000
7.876860e+002,2.047165e+000
7.886503e+002,1.086151e+000
7.896145e+002,2.136154e+000
7.905787e+002,5.333237e+000
7.915430e+002,8.183838e+000
7.925072e+002,6.786560e+000
7.934714e+002,4.077148e+000
7.944357e+002,3.601608e+000
7.953999e+002,5.488235e+000
7.963641e+002,8.031662e+000
7.973284e+002,9.292053e+000
7.982926e+002,9.192703e+000
7.992568e+002,9.031296e+000
8.002211e+002,8.884521e+000
8.011853e+002,8.071091e+000
8.021495e+002,5.924179e+000
8.031138e+002,3.183014e+000
8.040780e+002,1.980331e+000
8.050422e+002,3.346939e+000
8.060065e+002,4.947372e+000
8.069707e+002,6.492981e+000
8.079349e+002,7.444336e+000
8.088992e+002,7.054886e+000
8.098634e+002,5.260849e+000
8.108276e+002,3.260788e+000
8.117919e+002,2.890488e+000
8.127561e+002,3.197021e+000
8.137203e+002,2.350723e+000
8.146846e+002,3.216705e-001
8.156488e+002,-1.288757e+000
8.166130e+002,-4.118652e-001
8.175773e+002,3.633972e+000
8.185415e+002,5.816696e+000
8.195057e+002,4.669693e+000
8.204700e+002,3.615967e+000
8.214342e+002,4.052536e+000
8.223984e+002,5.453278e+000
8.233627e+002,6.219025e+000
8.243269e+002,5.431488e+000
8.252911e+002,4.833054e+000
8.262554e+002,5.717499e+000
8.272196e+002,7.071213e+000
8.281838e+002,7.773972e+000
8.291481e+002,7.460281e+000
8.301123e+002,6.737732e+000
8.310765e+002,6.688995e+000
8.320408e+002,7.225464e+000
8.330050e+002,7.614044e+000
8.339692e+002,8.026413e+000
8.349335e+002,7.761505e+000
8.358977e+002,5.544235e+000
8.368619e+002,8.666840e-001
8.378262e+002,-1.448120e+000
8.387904e+002,1.278687e-001
8.397546e+002,2.275879e+000
8.407189e+002,5.253326e+000
8.416831e+002,8.037430e+000
8.426473e+002,8.730148e+000
8.436116e+002,6.013748e+000
8.445758e+002,3.177811e+000
8.455400e+002,3.932175e+000
8.465043e+002,6.165359e+000
8.474685e+002,7.991776e+000
8.484327e+002,8.856445e+000
8.493970e+002,9.018982e+000
8.503612e+002,8.701904e+000
8.513254e+002,7.691650e+000
8.522897e+002,7.483948e+000
8.532539e+002,8.665207e+000
8.542181e+002,9.626236e+000
8.551824e+002,9.204224e+000
8.561466e+002,7.759857e+000
8.571108e+002,7.331940e+000
8.580751e+002,8.881653e+000
8.590393e+002,1.017264e+001
8.600035e+002,1.042117e+001
8.609678e+002,1.030049e+001
8.619320e+002,1.044923e+001
8.628962e+002,1.114427e+001
8.638605e+002,1.239597e+001
8.648247e+002,1.481763e+001
8.657889e+002,1.758961e+001
8.667532e+002,1.887697e+001
8.677174e+002,1.843585e+001
8.686816e+002,1.718329e+001
8.696459e+002,1.605678e+001
8.706101e+002,1.503787e+001
8.715743e+002,1.493021e+001
8.725386e+002,1.684579e+001
8.735028e+002,1.820718e+001
8.744670e+002,1.761119e+001
8.754313e+002,1.601630e+001
8.763955e+002,1.546379e+001
8.773597e+002,1.691975e+001
8.783240e+002,1.867279e+001
8.792882e+002,1.995279e+001
8.802524e+002,2.053314e+001
8.812167e+002,1.973380e+001
8.821809e+002,1.776546e+001
8.831451e+002,1.577020e+001
8.841094e+002,1.525116e+001
8.850736e+002,1.631158e+001
8.860378e+002,1.775365e+001
8.870021e+002,1.959427e+001
8.879663e+002,2.139993e+001
8.889305e+002,2.294142e+001
8.898948e+002,2.418349e+001
8.908590e+002,2.513930e+001
8.918232e+002,2.600073e+001
8.927875e+002,2.639728e+001
8.937517e+002,2.602344e+001
8.947159e+002,2.540022e+001
8.956802e+002,2.494153e+001
8.966444e+002,2.463382e+001
8.976086e+002,2.395868e+001
8.985729e+002,2.204912e+001
8.995371e+002,2.012891e+001
9.005013e+002,2.005737e+001
9.014656e+002,2.172951e+001
9.024298e+002,2.432834e+001
9.033940e+002,2.733459e+001
9.043583e+002,3.038850e+001
9.053225e+002,3.144705e+001
9.062867e+002,2.824800e+001
9.072510e+002,2.566823e+001
9.082152e+002,2.363022e+001
9.091794e+002,2.267270e+001
9.101437e+002,2.399925e+001
9.111079e+002,2.782825e+001
9.120721e+002,3.060498e+001
9.130364e+002,2.917853e+001
9.140006e+002,2.664586e+001
9.149648e+002,2.409938e+001
9.159291e+002,2.213278e+001
9.168933e+002,2.139850e+001
9.178575e+002,2.227278e+001
9.188218e+002,2.423868e+001
9.197860e+002,2.584055e+001
9.207502e+002,2.704295e+001
9.217145e+002,2.781033e+001
9.226787e+002,2.837466e+001
9.236429e+002,2.857431e+001
9.246072e+002,2.776872e+001
9.255714e+002,2.548619e+001
9.265356e+002,2.418674e+001
9.274999e+002,2.558289e+001
9.284641e+002,2.648055e+001
9.294283e+002,2.537148e+001
9.303926e+002,2.315822e+001
9.313568e+002,2.158257e+001
9.323210e+002,2.155415e+001
9.332853e+002,2.211357e+001
9.342495e+002,2.158539e+001
9.352137e+002,2.060072e+001
9.361780e+002,2.046379e+001
9.371422e+002,2.152359e+001
9.381064e+002,2.273705e+001
9.390707e+002,2.247484e+001
9.400349e+002,2.023773e+001
9.409991e+002,1.902058e+001
9.419634e+002,1.956956e+001
9.429276e+002,1.996597e+001
9.438918e+002,1.960098e+001
9.448561e+002,1.885689e+001
9.458203e+002,1.836787e+001
9.467845e+002,1.832835e+001
9.477488e+002,1.864983e+001
9.487130e+002,1.947894e+001
9.496772e+002,2.042387e+001
9.506415e+002,2.134837e+001
9.516057e+002,2.211115e+001
9.525699e+002,2.234761e+001
9.535342e+002,2.166035e+001
9.544984e+002,2.021344e+001
9.554626e+002,2.017570e+001
9.564269e+002,2.233949e+001
9.573911e+002,2.310843e+001
9.583553e+002,2.009042e+001
9.593196e+002,1.566876e+001
9.602838e+002,1.406723e+001
9.612480e+002,1.619997e+001
9.622123e+002,1.776540e+001
9.631765e+002,1.707199e+001
9.641407e+002,1.609427e+001
9.651050e+002,1.544788e+001
9.660692e+002,1.520537e+001
9.670334e+002,1.551959e+001
9.679977e+002,1.658948e+001
9.689619e+002,1.773715e+001
9.699261e+002,1.659372e+001
9.708904e+002,1.395612e+001
9.718546e+002,1.249399e+001
9.728188e+002,1.284727e+001
9.737831e+002,1.403468e+001
9.747473e+002,1.480257e+001
9.757115e+002,1.504607e+001
9.766758e+002,1.568008e+001
9.776400e+002,1.704344e+001
9.786042e+002,1.859015e+001
9.795685e+002,2.078511e+001
9.805327e+002,2.266100e+001
9.814969e+002,2.279872e+001
9.824612e+002,2.079028e+001
9.834254e+002,1.850247e+001
9.843896e+002,1.742599e+001
9.853539e+002,1.707536e+001
9.863181e+002,1.746582e+001
9.872823e+002,1.820363e+001
9.882466e+002,1.805624e+001
9.892108e+002,1.602905e+001
9.901750e+002,1.276082e+001
9.911393e+002,1.179695e+001
9.921035e+002,1.489850e+001
9.930677e+002,1.684384e+001
9.940320e+002,1.716765e+001
9.949962e+002,1.673235e+001
9.959604e+002,1.581494e+001
9.969247e+002,1.458057e+001
9.978889e+002,1.461884e+001
9.988531e+002,1.785893e+001
9.998174e+002,2.074117e+001
1.000782e+003,2.065140e+001
1.001746e+003,1.918581e+001
1.002710e+003,1.872549e+001
1.003674e+003,2.025980e+001
1.004639e+003,2.284518e+001
1.005603e+003,2.495773e+001
1.006567e+003,2.649115e+001
1.007531e+003,2.642656e+001
1.008495e+003,2.408224e+001
1.009460e+003,2.164417e+001
1.010424e+003,2.021526e+001
1.011388e+003,1.976836e+001
1.012352e+003,2.037051e+001
1.013317e+003,2.319498e+001
1.014281e+003,2.443245e+001
1.015245e+003,2.165010e+001
1.016209e+003,1.820462e+001
1.017174e+003,1.689993e+001
1.018138e+003,1.757849e+001
1.019102e+003,1.782430e+001
1.020066e+003,1.559271e+001
1.021031e+003,1.201610e+001
1.021995e+003,1.019884e+001
1.022959e+003,9.666794e+000
1.023923e+003,9.048874e+000
1.024887e+003,7.811600e+000
1.025852e+003,6.384979e+000
1.026816e+003,5.454117e+000
1.027780e+003,5.119553e+000
1.028744e+003,5.279175e+000
1.029709e+003,7.095779e+000
1.030673e+003,7.981354e+000
1.031637e+003,6.398666e+000
1.032601e+003,3.653198e+000
1.033566e+003,1.497528e+000
1.034530e+003,5.983124e-001
1.035494e+003,6.296082e-001
1.036458e+003,1.692566e+000
1.037422e+003,3.092178e+000
1.038387e+003,3.637161e+000
1.039351e+003,3.323669e+000
1.040315e+003,2.846954e+000
1.041279e+003,2.772141e+000
1.042244e+003,3.028473e+000
1.043208e+003,3.027924e+000
1.044172e+003,2.549271e+000
1.045136e+003,1.911407e+000
1.046101e+003,8.685913e-001
1.047065e+003,4.315186e-002
1.048029e+003,-7.359314e-002
1.048993e+003,3.501129e-001
1.049958e+003,6.739349e-001
1.050922e+003,5.669708e-001
1.051886e+003,5.845490e-001
1.052850e+003,1.497116e+000
1.053814e+003,2.721497e+000
1.054779e+003,3.362915e+000
1.055743e+003,3.293869e+000
1.056707e+003,3.304977e+000
1.057671e+003,4.429901e+000
1.058636e+003,6.655716e+000
1.059600e+003,7.359161e+000
1.060564e+003,5.512604e+000
1.061528e+003,4.030807e+000
1.062493e+003,3.272842e+000
1.063457e+003,2.835510e+000
1.064421e+003,2.323608e+000
1.065385e+003,1.745483e+000
1.066349e+003,1.510498e+000
1.067314e+003,1.809204e+000
1.068278e+003,2.611710e+000
1.069242e+003,4.386688e+000
1.070206e+003,6.496597e+000
1.071171e+003,7.899673e+000
1.072135e+003,8.119888e+000
1.073099e+003,7.507172e+000
1.074063e+003,6.703766e+000
1.075028e+003,5.714920e+000
1.075992e+003,5.150497e+000
1.076956e+003,4.789017e+000
1.077920e+003,4.891022e+000
1.078885e+003,6.425064e+000
1.079849e+003,8.348724e+000
1.080813e+003,8.201431e+000
1.081777e+003,5.119385e+000
1.082741e+003,3.078720e+000
1.083706e+003,6.013550e+000
1.084670e+003,8.625885e+000
1.085634e+003,7.274277e+000
1.086598e+003,3.413055e+000
1.087563e+003,3.083954e-001
1.088527e+003,-1.751556e-001
1.089491e+003,8.621216e-001
1.090455e+003,1.028839e+000
1.091420e+003,1.033630e-001
1.092384e+003,7.542267e-001
1.093348e+003,4.213760e+000
1.094312e+003,6.832123e+000
1.095276e+003,5.854492e+000
1.096241e+003,2.572830e+000
1.097205e+003,8.207855e-001
1.098169e+003,1.446381e+000
1.099133e+003,2.130768e+000
1.100098e+003,2.121674e+000
1.101062e+003,1.887909e+000
1.102026e+003,1.471130e+000
1.102990e+003,1.113190e+000
1.103955e+003,1.297150e+000
1.104919e+003,2.275375e+000
1.105883e+003,3.463806e+000
1.106847e+003,3.587326e+000
1.107812e+003,2.607071e+000
1.108776e+003,2.125015e+000
1.109740e+003,2.389069e+000
1.110704e+003,2.779236e+000
1.111668e+003,2.847488e+000
1.112633e+003,2.795517e+000
1.113597e+003,3.233017e+000
1.114561e+003,4.339172e+000
1.115525e+003,5.418976e+000
1.116490e+003,6.606461e+000
1.117454e+003,7.356842e+000
1.118418e+003,7.242859e+000
1.119382e+003,6.515182e+000
1.120347e+003,5.633072e+000
1.121311e+003,4.784683e+000
1.122275e+003,3.861481e+000
1.123239e+003,2.731888e+000
1.124203e+003,1.695557e+000
1.125168e+003,2.301254e+000
1.126132e+003,5.265076e+000
1.127096e+003,8.418915e+000
1.128060e+003,1.015288e+001
1.129025e+003,1.061687e+001
1.129989e+003,1.052431e+001
1.130953e+003,9.232773e+000
1.131917e+003,8.879349e+000
1.132882e+003,1.108713e+001
1.133846e+003,1.334050e+001
1.134810e+003,1.386583e+001
1.135774e+003,1.317526e+001
1.136739e+003,1.275671e+001
1.137703e+003,1.344632e+001
1.138667e+003,1.482031e+001
1.139631e+003,1.613780e+001
1.140595e+003,1.749170e+001
1.141560e+003,1.972293e+001
1.142524e+003,2.311111e+001
1.143488e+003,2.685806e+001
1.144452e+003,3.042072e+001
1.145417e+003,3.386899e+001
1.146381e+003,3.734006e+001
1.147345e+003,4.044231e+001
1.148309e+003,4.458891e+001
1.149274e+003,5.039220e+001
1.150238e+003,5.705540e+001
1.151202e+003,6.497801e+001
1.152166e+003,7.339813e+001
1.153130e+003,8.123593e+001
1.154095e+003,8.782217e+001
1.155059e+003,9.294843e+001
1.156023e+003,9.679175e+001
1.156987e+003,9.890053e+001
1.157952e+003,9.712532e+001
1.158916e+003,9.118587e+001
1.159880e+003,8.446977e+001
1.160844e+003,7.834445e+001
1.161809e+003,7.233853e+001
1.162773e+003,6.565784e+001
1.163737e+003,5.804153e+001
1.164701e+003,5.094946e+001
1.165666e+003,4.477440e+001
1.166630e+003,3.937813e+001
1.167594e+003,3.461316e+001
1.168558e+003,3.062274e+001
1.169522e+003,2.761826e+001
1.170487e+003,2.566328e+001
1.171451e+003,2.488544e+001
1.172415e+003,2.566356e+001
1.173379e+003,2.737883e+001
1.174344e+003,2.657826e+001
1.175308e+003,2.316214e+001
1.176272e+003,2.050876e+001
1.177236e+003,2.006516e+001
1.178201e+003,2.070435e+001
1.179165e+003,2.126244e+001
1.180129e+003,2.167151e+001
1.181093e+003,2.074300e+001
1.182057e+003,1.660602e+001
1.183022e+003,1.370015e+001
1.183986e+003,1.450871e+001
1.184950e+003,1.657919e+001
1.185914e+003,1.740115e+001
1.186879e+003,1.693944e+001
1.187843e+003,1.724384e+001
1.188807e+003,2.000681e+001
1.189771e+003,2.385249e+001
1.190736e+003,2.455026e+001
1.191700e+003,2.171338e+001
1.192664e+003,1.938365e+001
1.193628e+003,1.802982e+001
1.194593e+003,1.721397e+001
1.195557e+003,1.682663e+001
1.196521e+003,1.669742e+001
1.197485e+003,1.635971e+001
1.198449e+003,1.589952e+001
1.199414e+003,1.479875e+001
1.200378e+003,1.175188e+001
1.201342e+003,8.980026e+000
1.202306e+003,8.218018e+000
1.203271e+003,8.756027e+000
1.204235e+003,8.833817e+000
1.205199e+003,7.656219e+000
1.206163e+003,6.203659e+000
1.207128e+003,6.142914e+000
1.208092e+003,7.584930e+000
1.209056e+003,8.301239e+000
1.210020e+003,8.454269e+000
1.210984e+003,7.791779e+000
1.211949e+003,5.488388e+000
1.212913e+003,2.743973e+000
1.213877e+003,1.463470e+000
1.214841e+003,1.725632e+000
1.215806e+003,1.114960e+000
1.216770e+003,-2.098557e+000
1.217734e+003,-5.192261e+000
1.218698e+003,-5.744614e+000
1.219663e+003,-5.516037e+000
1.220627e+003,-7.291580e+000
1.221591e+003,-1.101099e+001
1.222555e+003,-1.358589e+001
1.223520e+003,-1.205420e+001
1.224484e+003,-7.473190e+000
1.225448e+003,-5.114044e+000
1.226412e+003,-5.938187e+000
1.227376e+003,-7.210022e+000
1.228341e+003,-9.698746e+000
1.229305e+003,-1.183224e+001
1.230269e+003,-1.271596e+001
1.231233e+003,-1.265897e+001
1.232198e+003,-1.212303e+001
1.233162e+003,-1.113463e+001
1.234126e+003,-1.036412e+001
1.235090e+003,-1.050296e+001
1.236055e+003,-1.106526e+001
1.237019e+003,-1.188361e+001
1.237983e+003,-1.265242e+001
1.238947e+003,-1.238742e+001
1.239911e+003,-1.064764e+001
1.240876e+003,-8.428909e+000
1.241840e+003,-7.245163e+000
1.242804e+003,-7.132950e+000
1.243768e+003,-7.233902e+000
1.244733e+003,-7.573593e+000
1.245697e+003,-8.122162e+000
1.246661e+003,-9.360443e+000
1.247625e+003,-1.056990e+001
1.248590e+003,-1.124492e+001
1.249554e+003,-1.128223e+001
1.250518e+003,-1.065112e+001
1.251482e+003,-9.338989e+000
1.252447e+003,-7.947021e+000
1.253411e+003,-6.800034e+000
1.254375e+003,-6.160858e+000
1.255339e+003,-7.109451e+000
1.256303e+003,-9.517868e+000
1.257268e+003,-1.104221e+001
1.258232e+003,-1.029454e+001
1.259196e+003,-8.211624e+000
1.260160e+003,-6.261810e+000
1.261125e+003,-4.212952e+000
1.262089e+003,-3.252289e+000
1.263053e+003,-4.582489e+000
1.264017e+003,-5.931305e+000
1.264982e+003,-7.249695e+000
1.265946e+003,-7.927200e+000
1.266910e+003,-7.089737e+000
1.267874e+003,-5.047729e+000
1.268839e+003,-2.885132e+000
1.269803e+003,-1.302414e+000
1.270767e+003,-4.713898e-001
1.271731e+003,-1.012009e+000
1.272695e+003,-2.799408e+000
1.273660e+003,-3.495636e+000
1.274624e+003,-2.832718e+000
1.275588e+003,-2.089310e+000
1.276552e+003,-1.469467e+000
1.277517e+003,-1.236404e+000
1.278481e+003,-2.446198e+000
1.279445e+003,-5.371613e+000
1.280409e+003,-7.030350e+000
1.281374e+003,-5.075348e+000
1.282338e+003,-3.493057e+000
1.283302e+003,-5.212463e+000
1.284266e+003,-7.893646e+000
1.285230e+003,-8.603485e+000
1.286195e+003,-7.199219e+000
1.287159e+003,-5.777496e+000
1.288123e+003,-6.020569e+000
1.289087e+003,-7.296310e+000
1.290052e+003,-7.838501e+000
1.291016e+003,-7.325485e+000
1.291980e+003,-7.574539e+000
1.292944e+003,-1.007333e+001
1.293909e+003,-1.154393e+001
1.294873e+003,-9.454498e+000
1.295837e+003,-6.169083e+000
1.296801e+003,-5.131256e+000
1.297766e+003,-6.704727e+000
1.298730e+003,-8.719238e+000
1.299694e+003,-1.040469e+001
1.300658e+003,-1.159291e+001
1.301622e+003,-1.214771e+001
1.302587e+003,-1.205309e+001
1.303551e+003,-1.091876e+001
1.304515e+003,-8.796646e+000
1.305479e+003,-6.998993e+000
1.306444e+003,-6.708542e+000
1.307408e+003,-7.499756e+000
1.308372e+003,-7.730118e+000
1.309336e+003,-7.025558e+000
1.310301e+003,-6.953522e+000
1.311265e+003,-8.002075e+000
1.312229e+003,-9.053864e+000
1.313193e+003,-1.020671e+001
1.314157e+003,-1.096523e+001
1.315122e+003,-1.047600e+001
1.316086e+003,-9.020676e+000
1.317050e+003,-7.923264e+000
1.318014e+003,-7.999725e+000
1.318979e+003,-8.933044e+000
1.319943e+003,-1.060196e+001
1.320907e+003,-1.274498e+001
1.321871e+003,-1.362320e+001
1.322836e+003,-1.320622e+001
1.323800e+003,-1.185570e+001
1.324764e+003,-8.727890e+000
1.325728e+003,-5.270111e+000
1.326693e+003,-4.246429e+000
1.327657e+003,-5.823166e+000
1.328621e+003,-7.502975e+000
1.329585e+003,-8.744492e+000
1.330549e+003,-9.238586e+000
1.331514e+003,-8.953720e+000
1.332478e+003,-8.320007e+000
1.333442e+003,-7.432846e+000
1.334406e+003,-6.458008e+000
1.335371e+003,-5.860199e+000
1.336335e+003,-5.901413e+000
1.337299e+003,-6.109543e+000
1.338263e+003,-5.544006e+000
1.339228e+003,-3.990189e+000
1.340192e+003,-3.675888e+000
1.341156e+003,-5.926575e+000
1.342120e+003,-7.391541e+000
1.343084e+003,-7.204422e+000
1.344049e+003,-6.594406e+000
1.345013e+003,-6.487305e+000
1.345977e+003,-6.710403e+000
1.346941e+003,-6.497849e+000
1.347906e+003,-5.544205e+000
1.348870e+003,-4.721680e+000
1.349834e+003,-4.815140e+000
1.350798e+003,-5.712341e+000
1.351763e+003,-7.421051e+000
1.352727e+003,-9.630310e+000
1.353691e+003,-1.064195e+001
1.354655e+003,-9.667557e+000
1.355620e+003,-7.889267e+000
1.356584e+003,-6.436768e+000
1.357548e+003,-5.304901e+000
1.358512e+003,-4.889801e+000
1.359476e+003,-5.790680e+000
1.360441e+003,-6.224930e+000
1.361405e+003,-4.956818e+000
1.362369e+003,-3.870056e+000
1.363333e+003,-4.084167e+000
1.364298e+003,-4.958328e+000
1.365262e+003,-5.461624e+000
1.366226e+003,-5.394135e+000
1.367190e+003,-5.466370e+000
1.368155e+003,-6.332901e+000
1.369119e+003,-7.525009e+000
1.370083e+003,-7.454330e+000
1.371047e+003,-5.509171e+000
1.372011e+003,-4.751022e+000
1.372976e+003,-6.343811e+000
1.373940e+003,-7.742599e+000
1.374904e+003,-8.026749e+000
1.375868e+003,-7.519119e+000
1.376833e+003,-6.191147e+000
1.377797e+003,-4.368484e+000
1.378761e+003,-3.706757e+000
1.379725e+003,-5.124420e+000
1.380690e+003,-7.101990e+000
1.381654e+003,-8.774780e+000
1.382618e+003,-9.613327e+000
1.383582e+003,-8.232422e+000
1.384547e+003,-4.955521e+000
1.385511e+003,-2.213425e+000
1.386475e+003,-1.193512e+000
1.387439e+003,-1.562317e+000
1.388403e+003,-3.318985e+000
1.389368e+003,-6.464172e+000
1.390332e+003,-8.123337e+000
1.391296e+003,-7.546570e+000
1.392260e+003,-6.664169e+000
1.393225e+003,-5.674896e+000
1.394189e+003,-4.842194e+000
1.395153e+003,-4.469009e+000
1.396117e+003,-4.282013e+000
1.397082e+003,-3.625397e+000
1.398046e+003,-2.489853e+000
1.399010e+003,-1.888794e+000
1.399974e+003,-2.849319e+000
1.400938e+003,-4.820709e+000
1.401903e+003,-5.711929e+000
1.402867e+003,-4.923721e+000
1.403831e+003,-4.357407e+000
1.404795e+003,-4.619736e+000
1.405760e+003,-4.532272e+000
1.406724e+003,-3.652786e+000
1.407688e+003,-2.571625e+000
1.408652e+003,-1.705658e+000
1.409617e+003,-1.015976e+000
1.410581e+003,-4.804993e-001
1.411545e+003,-1.082001e-001
1.412509e+003,1.824799e-001
1.413474e+003,5.049438e-001
1.414438e+003,5.729675e-001
1.415402e+003,-4.086304e-002
1.416366e+003,-1.117874e+000
1.417330e+003,-1.877151e+000
1.418295e+003,-2.032944e+000
1.419259e+003,-1.696838e+000
1.420223e+003,-5.953369e-001
1.421187e+003,9.128265e-001
1.422152e+003,7.044830e-001
1.423116e+003,-1.880966e+000
1.424080e+003,-3.755966e+000
1.425044e+003,-3.753876e+000
1.426009e+003,-3.403488e+000
1.426973e+003,-3.356049e+000
1.427937e+003,-3.288879e+000
1.428901e+003,-2.370026e+000
1.429865e+003,-8.413391e-001
1.430830e+003,-1.702576e-001
1.431794e+003,-1.342392e+000
1.432758e+003,-3.357819e+000
1.433722e+003,-4.111389e+000
1.434687e+003,-3.382751e+000
1.435651e+003,-2.388870e+000
1.436615e+003,-9.136353e-001
1.437579e+003,-1.790009e-001
1.438544e+003,-7.464600e-001
1.439508e+003,-1.533905e+000
1.440472e+003,-1.867508e+000
1.441436e+003,-1.746216e+000
1.442401e+003,-1.409668e+000
1.443365e+003,-9.385071e-001
1.444329e+003,-6.744385e-002
1.445293e+003,1.596344e+000
1.446257e+003,3.337311e+000
1.447222e+003,3.362274e+000
1.448186e+003,2.078598e+000
1.449150e+003,2.009857e+000
1.450114e+003,3.795639e+000
1.451079e+003,4.907944e+000
1.452043e+003,3.154495e+000
1.453007e+003,7.815399e-001
1.453971e+003,1.418869e+000
1.454936e+003,4.511429e+000
1.455900e+003,5.706589e+000
1.456864e+003,3.661362e+000
1.457828e+003,1.416229e+000
1.458792e+003,3.662872e-001
1.459757e+003,3.727722e-002
1.460721e+003,5.581818e-001
1.461685e+003,1.371841e+000
1.462649e+003,1.300873e+000
1.463614e+003,1.618347e-001
1.464578e+003,-9.111481e-001
1.465542e+003,-8.999786e-001
1.466506e+003,-2.658539e-001
1.467471e+003,-2.578278e-001
1.468435e+003,-8.800201e-001
1.469399e+003,-1.545685e+000
1.470363e+003,-3.293365e+000
1.471328e+003,-3.725220e+000
1.472292e+003,-1.551041e+000
1.473256e+003,1.132614e+000
1.474220e+003,3.584579e+000
1.475184e+003,5.342987e+000
1.476149e+003,5.596664e+000
1.477113e+003,4.234192e+000
1.478077e+003,2.283752e+000
1.479041e+003,7.834167e-001
1.480006e+003,-1.510620e-002
1.480970e+003,6.337433e-001
1.481934e+003,3.157898e+000
1.482898e+003,4.860947e+000
1.483863e+003,5.927887e+000
1.484827e+003,5.969940e+000
1.485791e+003,3.476608e+000
1.486755e+003,1.295135e+000
1.487719e+003,2.500183e+000
1.488684e+003,6.073700e+000
1.489648e+003,9.018951e+000
1.490612e+003,1.040579e+001
1.491576e+003,1.097049e+001
1.492541e+003,1.103731e+001
1.493505e+003,1.103242e+001
1.494469e+003,1.242468e+001
1.495433e+003,1.471991e+001
1.496398e+003,1.510187e+001
1.497362e+003,1.270340e+001
1.498326e+003,1.069318e+001
1.499290e+003,1.026466e+001
1.500255e+003,1.142503e+001
1.501219e+003,1.490799e+001
1.502183e+003,2.015811e+001
1.503147e+003,2.405743e+001
1.504111e+003,2.558881e+001
1.505076e+003,2.751349e+001
1.506040e+003,3.191483e+001
1.507004e+003,3.697006e+001
1.507968e+003,4.053087e+001
1.508933e+003,4.342491e+001
1.509897e+003,4.754997e+001
1.510861e+003,5.335826e+001
1.511825e+003,5.940648e+001
1.512790e+003,6.433691e+001
1.513754e+003,6.916742e+001
1.514718e+003,7.651828e+001
1.515682e+003,8.626508e+001
1.516646e+003,9.409790e+001
1.517611e+003,9.888559e+001
1.518575e+003,1.040121e+002
1.519539e+003,1.121064e+002
1.520503e+003,1.193814e+002
1.521468e+003,1.240095e+002
1.522432e+003,1.263791e+002
1.523396e+003,1.271058e+002
1.524360e+003,1.263819e+002
1.525325e+003,1.240653e+002
1.526289e+003,1.201000e+002
1.527253e+003,1.153726e+002
1.528217e+003,1.115661e+002
1.529182e+003,1.088032e+002
1.530146e+003,1.039189e+002
1.531110e+003,9.566602e+001
1.532074e+003,8.735434e+001
1.533039e+003,7.920325e+001
1.534003e+003,7.063239e+001
1.534967e+003,6.094246e+001
1.535931e+003,5.143307e+001
1.536896e+003,4.329269e+001
1.537860e+003,3.676991e+001
1.538824e+003,3.171780e+001
1.539788e+003,2.795972e+001
1.540752e+003,2.517897e+001
1.541717e+003,2.316075e+001
1.542681e+003,2.165382e+001
1.543645e+003,1.857838e+001
1.544609e+003,1.249631e+001
1.545573e+003,8.978928e+000
1.546538e+003,9.034454e+000
1.547502e+003,9.923065e+000
1.548466e+003,1.173866e+001
1.549430e+003,1.331664e+001
1.550395e+003,1.299307e+001
1.551359e+003,1.132652e+001
1.552323e+003,1.047397e+001
1.553287e+003,1.113530e+001
1.554252e+003,1.166339e+001
1.555216e+003,1.058768e+001
1.556180e+003,8.427155e+000
1.557144e+003,6.086182e+000
1.558109e+003,3.619217e+000
1.559073e+003,2.802353e+000
1.560037e+003,4.541306e+000
1.561001e+003,5.745590e+000
1.561966e+003,5.000153e+000
1.562930e+003,3.964508e+000
1.563894e+003,4.332336e+000
1.564858e+003,5.465607e+000
1.565823e+003,5.514160e+000
1.566787e+003,4.194305e+000
1.567751e+003,3.397552e+000
1.568715e+003,4.416153e+000
1.569679e+003,5.808304e+000
1.570644e+003,5.459366e+000
1.571608e+003,4.027924e+000
1.572572e+003,3.810287e+000
1.573536e+003,4.969345e+000
1.574500e+003,5.689484e+000
1.575465e+003,4.838470e+000
1.576429e+003,4.150604e+000
1.577393e+003,5.688675e+000
1.578357e+003,8.011185e+000
1.579322e+003,7.904877e+000
1.580286e+003,5.436493e+000
1.581250e+003,4.110184e+000
1.582214e+003,5.245255e+000
1.583179e+003,6.727280e+000
1.584143e+003,7.011215e+000
1.585107e+003,6.686935e+000
1.586071e+003,6.728928e+000
1.587036e+003,7.085770e+000
1.588000e+003,7.245087e+000
1.588964e+003,7.023392e+000
1.589928e+003,6.537231e+000
1.590893e+003,5.495178e+000
1.591857e+003,4.626724e+000
1.592821e+003,5.166779e+000
1.593785e+003,6.941925e+000
1.594750e+003,9.132706e+000
1.595714e+003,1.187231e+001
1.596678e+003,1.306465e+001
1.597642e+003,1.066782e+001
1.598606e+003,8.281860e+000
1.599571e+003,9.216949e+000
1.600535e+003,1.165865e+001
1.601499e+003,1.375406e+001
1.602463e+003,1.508707e+001
1.603427e+003,1.481219e+001
1.604392e+003,1.240067e+001
1.605356e+003,9.889404e+000
1.606320e+003,9.536667e+000
1.607284e+003,1.061906e+001
1.608249e+003,1.095247e+001
1.609213e+003,1.049580e+001
1.610177e+003,1.069098e+001
1.611141e+003,1.223203e+001
1.612106e+003,1.330344e+001
1.613070e+003,1.275644e+001
1.614034e+003,1.161536e+001
1.614998e+003,9.892792e+000
1.615963e+003,8.386063e+000
1.616927e+003,8.782501e+000
1.617891e+003,1.098972e+001
1.618855e+003,1.273764e+001
1.619820e+003,1.266325e+001
1.620784e+003,1.131015e+001
1.621748e+003,9.091660e+000
1.622712e+003,6.449051e+000
1.623677e+003,5.377747e+000
1.624641e+003,6.058456e+000
1.625605e+003,7.519592e+000
1.626569e+003,1.040106e+001
1.627533e+003,1.209091e+001
1.628498e+003,9.786148e+000
1.629462e+003,7.395462e+000
1.630426e+003,9.000122e+000
1.631390e+003,1.294211e+001
1.632354e+003,1.527017e+001
1.633319e+003,1.502049e+001
1.634283e+003,1.377547e+001
1.635247e+003,1.254977e+001
1.636211e+003,1.141893e+001
1.637176e+003,1.045526e+001
1.638140e+003,9.736435e+000
1.639104e+003,9.827728e+000
1.640068e+003,1.091493e+001
1.641033e+003,1.202274e+001
1.641997e+003,1.362881e+001
1.642961e+003,1.426443e+001
1.643925e+003,1.239040e+001
1.644890e+003,9.939789e+000
1.645854e+003,8.441345e+000
1.646818e+003,8.054459e+000
1.647782e+003,8.916412e+000
1.648747e+003,1.094746e+001
1.649711e+003,1.302107e+001
1.650675e+003,1.438094e+001
1.651639e+003,1.504051e+001
1.652604e+003,1.467113e+001
1.653568e+003,1.326482e+001
1.654532e+003,1.220576e+001
1.655496e+003,1.168304e+001
1.656460e+003,1.109190e+001
1.657425e+003,1.020338e+001
1.658389e+003,9.380402e+000
1.659353e+003,8.416153e+000
1.660317e+003,7.878387e+000
1.661281e+003,8.782928e+000
1.662246e+003,1.058920e+001
1.663210e+003,1.184010e+001
1.664174e+003,1.207007e+001
1.665138e+003,1.136978e+001
1.666103e+003,9.388672e+000
1.667067e+003,7.092865e+000
1.668031e+003,6.663773e+000
1.668995e+003,7.995392e+000
1.669960e+003,9.263367e+000
1.670924e+003,1.048868e+001
1.671888e+003,1.110864e+001
1.672852e+003,1.055292e+001
1.673817e+003,9.803665e+000
1.674781e+003,9.539444e+000
1.675745e+003,9.367691e+000
1.676709e+003,8.638504e+000
1.677674e+003,7.615417e+000
1.678638e+003,7.374741e+000
1.679602e+003,8.240601e+000
1.680566e+003,8.818985e+000
1.681531e+003,7.831970e+000
1.682495e+003,6.321945e+000
1.683459e+003,6.067734e+000
1.684423e+003,6.802536e+000
1.685387e+003,7.117737e+000
1.686352e+003,6.846054e+000
1.687316e+003,6.853439e+000
1.688280e+003,7.659241e+000
1.689244e+003,8.338852e+000
1.690208e+003,7.882431e+000
1.691173e+003,7.104843e+000
1.692137e+003,6.977966e+000
1.693101e+003,7.412109e+000
1.694065e+003,7.964432e+000
1.695030e+003,8.481476e+000
1.695994e+003,8.014694e+000
1.696958e+003,5.220688e+000
1.697922e+003,2.186722e+000
1.698887e+003,1.762344e+000
1.699851e+003,3.204102e+000
1.700815e+003,4.497498e+000
1.701779e+003,5.375412e+000
1.702744e+003,4.616562e+000
1.703708e+003,1.334106e+000
1.704672e+003,-1.124954e+000
1.705636e+003,2.461243e-001
1.706601e+003,2.934952e+000
1.707565e+003,3.397232e+000
1.708529e+003,2.236038e+000
1.709493e+003,8.052521e-001
1.710458e+003,-8.908081e-001
1.711422e+003,-1.577347e+000
1.712386e+003,3.059082e-001
1.713350e+003,2.281357e+000
1.714314e+003,1.865829e+000
1.715279e+003,3.700104e-001
1.716243e+003,3.007813e-001
1.717207e+003,1.456146e+000
1.718171e+003,1.514755e+000
1.719135e+003,-1.437073e-001
1.720100e+003,-7.396393e-001
1.721064e+003,1.960541e+000
1.722028e+003,5.351974e+000
1.722992e+003,5.671036e+000
1.723957e+003,3.538773e+000
1.724921e+003,1.941727e+000
1.725885e+003,6.973724e-001
1.726849e+003,-5.265808e-002
1.727814e+003,-1.353760e-001
1.728778e+003,4.175415e-001
1.729742e+003,2.264969e+000
1.730706e+003,4.072708e+000
1.731671e+003,4.365173e+000
1.732635e+003,3.482910e+000
1.733599e+003,2.220901e+000
1.734563e+003,1.059875e+000
1.735528e+003,1.036240e+000
1.736492e+003,2.637329e+000
1.737456e+003,3.856049e+000
1.738420e+003,2.131927e+000
1.739385e+003,-1.516586e+000
1.740349e+003,-2.995178e+000
1.741313e+003,-1.700241e+000
1.742277e+003,-9.319458e-001
1.743241e+003,-9.920959e-001
1.744206e+003,-9.153900e-001
1.745170e+003,-7.400208e-001
1.746134e+003,-3.181763e-001
1.747098e+003,8.591766e-001
1.748063e+003,1.992783e+000
1.749027e+003,2.070160e+000
1.749991e+003,1.313568e+000
1.750955e+003,4.300232e-001
1.751919e+003,-2.415771e-001
1.752884e+003,-4.074097e-001
1.753848e+003,1.934204e-001
1.754812e+003,1.016251e+000
1.755776e+003,1.021194e+000
1.756741e+003,3.096924e-001
1.757705e+003,-6.355743e-001
1.758669e+003,-2.441345e+000
1.759633e+003,-2.813354e+000
1.760598e+003,4.360962e-002
1.761562e+003,1.950623e+000
1.762526e+003,1.068832e+000
1.763490e+003,-3.651733e-001
1.764455e+003,-1.059875e+000
1.765419e+003,-1.066513e+000
1.766383e+003,-4.423218e-001
1.767347e+003,5.001221e-001
1.768312e+003,7.916565e-001
1.769276e+003,-6.826782e-002
1.770240e+003,-8.852234e-001
1.771204e+003,5.461121e-002
1.772168e+003,1.732971e+000
1.773133e+003,1.159729e+000
1.774097e+003,-1.333969e+000
1.775061e+003,-2.174545e+000
1.776025e+003,-8.921661e-001
1.776990e+003,3.968048e-001
1.777954e+003,1.161591e+000
1.778918e+003,1.755081e+000
1.779882e+003,2.880585e+000
1.780846e+003,3.412231e+000
1.781811e+003,1.075607e+000
1.782775e+003,-2.937820e+000
1.783739e+003,-4.507111e+000
1.784703e+003,-2.834030e+000
1.785668e+003,-1.033722e+000
1.786632e+003,-1.160736e-001
1.787596e+003,-4.093933e-002
1.788560e+003,-1.287872e+000
1.789525e+003,-2.757050e+000
1.790489e+003,-3.053680e+000
1.791453e+003,-2.346405e+000
1.792417e+003,-1.064941e+000
1.793382e+003,5.506744e-001
1.794346e+003,1.487152e+000
1.795310e+003,1.180908e+000
1.796274e+003,1.179962e-001
1.797239e+003,-1.239029e+000
1.798203e+003,-2.513885e+000
1.799167e+003,-2.807480e+000
1.800131e+003,-2.154068e+000
1.801095e+003,-1.580933e+000
1.802060e+003,-5.766754e-001
1.803024e+003,-1.045837e-001
1.803988e+003,-9.626770e-001
1.804952e+003,-1.631714e+000
1.805917e+003,-9.893036e-001
1.806881e+003,-1.612549e-001
1.807845e+003,-4.328918e-001
1.808809e+003,-1.351608e+000
1.809773e+003,-1.912598e+000
1.810738e+003,-1.807404e+000
1.811702e+003,-1.095779e+000
1.812666e+003,1.548157e-001
1.813630e+003,1.525101e+000
1.814595e+003,2.581970e+000
1.815559e+003,3.094620e+000
1.816523e+003,1.807907e+000
1.817487e+003,-1.549179e+000
1.818452e+003,-3.227142e+000
1.819416e+003,-2.473022e+000
1.820380e+003,-1.435837e+000
1.821344e+003,-3.447266e-001
1.822309e+003,2.083282e-001
1.823273e+003,-6.234589e-001
1.824237e+003,-1.609848e+000
1.825201e+003,-1.242081e+000
1.826166e+003,-1.120758e-001
1.827130e+003,1.582336e-002
1.828094e+003,-1.164383e+000
1.829058e+003,-2.183762e+000
1.830022e+003,-2.336517e+000
1.830987e+003,-1.999176e+000
1.831951e+003,-8.782959e-001
1.832915e+003,1.099243e-001
1.833879e+003,-1.086243e+000
1.834844e+003,-3.486343e+000
1.835808e+003,-3.623459e+000
1.836772e+003,-1.226166e+000
1.837736e+003,5.162201e-001
1.838700e+003,1.567535e-001
1.839665e+003,-6.610260e-001
1.840629e+003,-3.135834e-001
1.841593e+003,3.099518e-001
1.842557e+003,-1.030533e+000
1.843522e+003,-4.283417e+000
1.844486e+003,-5.089859e+000
1.845450e+003,-1.170197e+000
1.846414e+003,1.031662e+000
1.847379e+003,2.133484e-001
1.848343e+003,-8.305359e-001
1.849307e+003,-1.540375e+000
1.850271e+003,-1.836426e+000
1.851236e+003,-1.242813e+000
1.852200e+003,-4.221191e-001
1.853164e+003,-6.765747e-001
1.854128e+003,-1.723267e+000
1.855093e+003,-1.794083e+000
1.856057e+003,-2.851715e-001
1.857021e+003,1.153595e+000
1.857985e+003,1.083084e+000
1.858949e+003,1.761322e-001
1.859914e+003,-6.293488e-001
1.860878e+003,-1.211884e+000
1.861842e+003,-8.330994e-001
1.862806e+003,5.091553e-001
1.863771e+003,1.385437e+000
1.864735e+003,1.520416e+000
1.865699e+003,1.120773e+000
1.866663e+003,-2.137756e-002
1.867627e+003,-9.365234e-001
1.868592e+003,-7.217102e-001
1.869556e+003,8.770752e-002
1.870520e+003,6.371918e-001
1.871484e+003,9.653473e-001
1.872449e+003,1.467484e+000
1.873413e+003,2.579224e+000
1.874377e+003,3.382217e+000
1.875341e+003,3.052811e+000
1.876306e+003,2.627731e+000
1.877270e+003,2.801819e+000
1.878234e+003,2.953552e+000
1.879198e+003,2.503723e+000
1.880163e+003,1.598389e+000
1.881127e+003,1.898346e-001
1.882091e+003,-1.296844e+000
1.883055e+003,-1.367737e+000
1.884020e+003,3.938141e-001
1.884984e+003,1.939926e+000
1.885948e+003,1.377151e+000
1.886912e+003,-6.478882e-002
1.887876e+003,1.877136e-001
1.888841e+003,1.955750e+000
1.889805e+003,2.839676e+000
1.890769e+003,2.656250e+000
1.891733e+003,2.613388e+000
1.892698e+003,2.960602e+000
1.893662e+003,2.899384e+000
1.894626e+003,1.537064e+000
1.895590e+003,5.804901e-001
1.896554e+003,1.685120e+000
1.897519e+003,3.576187e+000
1.898483e+003,4.888702e+000
1.899447e+003,5.503677e+000
1.900411e+003,5.543152e+000
1.901376e+003,5.049957e+000
1.902340e+003,4.080597e+000
1.903304e+003,1.914948e+000
1.904268e+003,4.055634e-001
1.905233e+003,1.253693e+000
1.906197e+003,2.823914e+000
1.907161e+003,3.513412e+000
1.908125e+003,3.673203e+000
1.909090e+003,4.109146e+000
1.910054e+003,4.732117e+000
1.911018e+003,4.743973e+000
1.911982e+003,4.048706e+000
1.912947e+003,3.898239e+000
1.913911e+003,5.189438e+000
1.914875e+003,6.626938e+000
1.915839e+003,6.045670e+000
1.916803e+003,3.929398e+000
1.917768e+003,3.197052e+000
1.918732e+003,4.181595e+000
1.919696e+003,4.784683e+000
1.920660e+003,4.974899e+000
1.921625e+003,4.922440e+000
1.922589e+003,4.453262e+000
1.923553e+003,3.959778e+000
1.924517e+003,3.446457e+000
1.925481e+003,3.209534e+000
1.926446e+003,3.595047e+000
1.927410e+003,4.421188e+000
1.928374e+003,5.450256e+000
1.929338e+003,6.550659e+000
1.930303e+003,7.264771e+000
1.931267e+003,7.689270e+000
1.932231e+003,7.513184e+000
1.933195e+003,5.512390e+000
1.934160e+003,3.929626e+000
1.935124e+003,5.141129e+000
1.936088e+003,7.042160e+000
1.937052e+003,7.054428e+000
1.938017e+003,5.750397e+000
1.938981e+003,4.766251e+000
1.939945e+003,4.336792e+000
1.940909e+003,3.635101e+000
1.941874e+003,2.318756e+000
1.942838e+003,1.126495e+000
1.943802e+003,7.927704e-001
1.944766e+003,1.351288e+000
1.945730e+003,2.937271e+000
1.946695e+003,5.256332e+000
1.947659e+003,6.281601e+000
1.948623e+003,5.890427e+000
1.949587e+003,5.205597e+000
1.950552e+003,4.085129e+000
1.951516e+003,4.077271e+000
1.952480e+003,6.459961e+000
1.953444e+003,8.404724e+000
1.954408e+003,7.553131e+000
1.955373e+003,5.453934e+000
1.956337e+003,4.121002e+000
1.957301e+003,3.557739e+000
1.958265e+003,3.547852e+000
1.959230e+003,4.189972e+000
1.960194e+003,4.611053e+000
1.961158e+003,4.062454e+000
1.962122e+003,3.946976e+000
1.963087e+003,4.728439e+000
1.964051e+003,5.950760e+000
1.965015e+003,8.516968e+000
1.965979e+003,1.054315e+001
1.966944e+003,9.223831e+000
1.967908e+003,6.206924e+000
1.968872e+003,4.889160e+000
1.969836e+003,5.529175e+000
1.970801e+003,6.133881e+000
1.971765e+003,5.813934e+000
1.972729e+003,4.808929e+000
1.973693e+003,2.968338e+000
1.974657e+003,1.569809e+000
1.975622e+003,3.131149e+000
1.976586e+003,6.367294e+000
1.977550e+003,7.863525e+000
1.978514e+003,7.833542e+000
1.979479e+003,7.739517e+000
1.980443e+003,7.800781e+000
1.981407e+003,8.098129e+000
1.982371e+003,8.728333e+000
1.983335e+003,8.905884e+000
1.984300e+003,7.833771e+000
1.985264e+003,6.754410e+000
1.986228e+003,7.880066e+000
1.987192e+003,1.047546e+001
1.988157e+003,1.062167e+001
1.989121e+003,7.753113e+000
1.990085e+003,5.471909e+000
1.991049e+003,3.313766e+000
1.992014e+003,2.794281e+000
1.992978e+003,5.416931e+000
1.993942e+003,7.808624e+000
1.994906e+003,9.236649e+000
1.995871e+003,9.625519e+000
1.996835e+003,8.165970e+000
1.997799e+003,6.133209e+000
1.998763e+003,5.315292e+000
1.999728e+003,5.583694e+000
