5.003444e+002,3.616937e+001
5.013087e+002,3.366748e+001
5.022729e+002,3.233322e+001
5.032371e+002,3.195518e+001
5.042014e+002,3.072504e+001
5.051656e+002,2.886609e+001
5.061298e+002,2.751227e+001
5.070941e+002,2.777856e+001
5.080583e+002,3.011751e+001
5.090225e+002,3.090271e+001
5.099868e+002,2.940224e+001
5.109510e+002,2.765598e+001
5.119152e+002,2.659535e+001
5.128795e+002,2.629715e+001
5.138437e+002,2.643303e+001
5.148079e+002,2.807617e+001
5.157722e+002,2.913989e+001
5.167364e+002,2.812697e+001
5.177006e+002,2.519159e+001
5.186649e+002,2.212920e+001
5.196291e+002,2.146909e+001
5.205933e+002,2.205672e+001
5.215576e+002,2.242773e+001
5.225218e+002,2.228694e+001
5.234860e+002,2.189240e+001
5.244503e+002,2.189696e+001
5.254145e+002,2.270682e+001
5.263787e+002,2.297260e+001
5.273430e+002,2.230354e+001
5.283072e+002,2.135840e+001
5.292714e+002,2.101680e+001
5.302357e+002,2.143021e+001
5.311999e+002,2.165834e+001
5.321641e+002,2.173834e+001
5.331284e+002,2.186839e+001
5.340926e+002,2.234030e+001
5.350568e+002,2.324371e+001
5.360211e+002,2.341298e+001
5.369853e+002,2.146466e+001
5.379495e+002,1.887959e+001
5.389138e+002,1.650827e+001
5.398780e+002,1.478319e+001
5.408422e+002,1.381027e+001
5.418065e+002,1.445604e+001
5.427707e+002,1.641681e+001
5.437349e+002,1.740282e+001
5.446992e+002,1.653378e+001
5.456634e+002,1.441269e+001
5.466276e+002,1.322823e+001
5.475919e+002,1.402774e+001
5.485561e+002,1.473167e+001
5.495203e+002,1.543433e+001
5.504846e+002,1.581557e+001
5.514488e+002,1.536063e+001
5.524130e+002,1.350633e+001
5.533773e+002,1.190591e+001
5.543415e+002,1.155376e+001
5.553057e+002,1.175531e+001
5.562700e+002,1.173459e+001
5.572342e+002,1.099968e+001
5.581984e+002,9.971680e+000
5.591627e+002,9.924149e+000
5.601269e+002,1.056198e+001
5.610911e+002,1.118666e+001
5.620554e+002,1.142081e+001
5.630196e+002,1.119048e+001
5.639838e+002,1.030444e+001
5.649481e+002,7.970062e+000
5.659123e+002,6.149734e+000
5.668765e+002,5.262970e+000
5.678408e+002,5.317886e+000
5.688050e+002,6.248810e+000
5.697692e+002,9.202286e+000
5.707335e+002,1.087100e+001
5.716977e+002,9.235336e+000
5.726619e+002,6.261932e+000
5.736262e+002,4.835464e+000
5.745904e+002,7.234924e+000
5.755546e+002,1.060953e+001
5.765189e+002,9.951492e+000
5.774831e+002,6.784485e+000
5.784473e+002,3.777573e+000
5.794116e+002,2.815384e+000
5.803758e+002,3.833084e+000
5.813400e+002,4.982178e+000
5.823043e+002,6.492783e+000
5.832685e+002,7.044067e+000
5.842327e+002,5.469604e+000
5.851970e+002,2.375748e+000
5.861612e+002,1.121460e+000
5.871254e+002,3.852859e+000
5.880897e+002,6.531677e+000
5.890539e+002,8.970474e+000
5.900181e+002,1.065308e+001
5.909824e+002,1.080540e+001
5.919466e+002,8.479279e+000
5.929108e+002,5.592422e+000
5.938751e+002,4.013245e+000
5.948393e+002,3.399551e+000
5.958035e+002,3.358932e+000
5.967678e+002,3.609085e+000
5.977320e+002,4.160934e+000
5.986962e+002,4.689667e+000
5.996605e+002,5.044571e+000
6.006247e+002,5.262146e+000
6.015889e+002,5.469864e+000
6.025532e+002,5.655426e+000
6.035174e+002,5.396774e+000
6.044816e+002,4.193909e+000
6.054459e+002,3.095856e+000
6.064101e+002,2.026840e+000
6.073743e+002,1.183182e+000
6.083386e+002,9.870911e-001
6.093028e+002,2.043686e+000
6.102670e+002,3.116455e+000
6.112313e+002,2.806473e+000
6.121955e+002,2.003403e+000
6.131597e+002,2.077103e+000
6.141240e+002,3.924576e+000
6.150882e+002,6.812347e+000
6.160524e+002,7.588898e+000
6.170167e+002,6.708084e+000
6.179809e+002,5.364502e+000
6.189451e+002,3.691589e+000
6.199094e+002,1.803177e+000
6.208736e+002,1.131882e+000
6.218378e+002,3.526016e+000
6.228021e+002,5.402237e+000
6.237663e+002,6.747223e+000
6.247305e+002,7.367889e+000
6.256948e+002,6.675797e+000
6.266590e+002,3.512619e+000
6.276232e+002,7.844238e-001
6.285875e+002,7.584229e-001
6.295517e+002,1.925049e+000
6.305159e+002,2.643677e+000
6.314802e+002,1.990952e+000
6.324444e+002,5.739441e-001
6.334086e+002,2.658997e-001
6.343729e+002,8.499908e-001
6.353371e+002,1.764587e+000
6.363013e+002,2.934296e+000
6.372656e+002,4.010620e+000
6.382298e+002,3.831894e+000
6.391940e+002,5.335236e-001
6.401583e+002,-1.707672e+000
6.411225e+002,-2.166840e+000
6.420867e+002,-1.609329e+000
6.430510e+002,-1.011292e+000
6.440152e+002,-7.493744e-001
6.449794e+002,-4.856415e-001
6.459437e+002,2.913055e-001
6.469079e+002,9.449768e-001
6.478721e+002,8.102722e-001
6.488364e+002,-2.007904e-001
6.498006e+002,-1.327133e+000
6.507648e+002,-1.158737e+000
6.517291e+002,-1.623535e-001
6.526933e+002,7.673950e-001
6.536575e+002,1.476715e+000
6.546218e+002,1.848007e+000
6.555860e+002,1.648499e+000
6.565502e+002,5.427856e-001
6.575145e+002,-5.550690e-001
6.584787e+002,-1.919373e+000
6.594429e+002,-3.048050e+000
6.604072e+002,-3.466202e+000
6.613714e+002,-3.049988e+000
6.623356e+002,-2.480225e+000
6.632999e+002,-1.716873e+000
6.642641e+002,-1.374283e+000
6.652283e+002,-1.960159e+000
6.661926e+002,-3.247940e+000
6.671568e+002,-4.531754e+000
6.681210e+002,-5.167435e+000
6.690853e+002,-5.091431e+000
6.700495e+002,-4.001587e+000
6.710137e+002,-1.978210e+000
6.719780e+002,-3.689575e-002
6.729422e+002,7.037354e-001
6.739064e+002,-7.252502e-002
6.748707e+002,-5.829620e-001
6.758349e+002,-1.259766e-001
6.767991e+002,-3.047180e-001
6.777634e+002,-2.493881e+000
6.787276e+002,-6.143112e+000
6.796918e+002,-7.959717e+000
6.806561e+002,-5.065231e+000
6.816203e+002,-2.098541e+000
6.825845e+002,-5.480957e-001
6.835488e+002,-2.246857e-001
6.845130e+002,-7.010498e-001
6.854772e+002,-1.738708e+000
6.864415e+002,-2.770218e+000
6.874057e+002,-2.711411e+000
6.883699e+002,-1.997437e+000
6.893342e+002,-1.280991e+000
6.902984e+002,-8.821106e-001
6.912626e+002,-7.033844e-001
6.922269e+002,-3.601990e-001
6.931911e+002,1.015076e+000
6.941553e+002,1.747345e+000
6.951196e+002,1.104568e+000
6.960838e+002,-3.038177e-001
6.970480e+002,-1.442291e+000
6.980123e+002,-2.032333e+000
6.989765e+002,-2.275513e+000
6.999407e+002,-2.545166e+000
7.009050e+002,-2.493774e+000
7.018692e+002,-1.381546e+000
7.028334e+002,7.733307e-001
7.037977e+002,2.580322e+000
7.047619e+002,1.198318e+000
7.057261e+002,-1.789063e+000
7.066904e+002,-3.196869e+000
7.076546e+002,-2.526794e+000
7.086188e+002,-1.064148e+000
7.095831e+002,-8.964996e-001
7.105473e+002,-2.856934e+000
7.115115e+002,-3.682983e+000
7.124758e+002,-2.756256e+000
7.134400e+002,-1.656876e+000
7.144042e+002,-1.375214e+000
7.153685e+002,-1.876694e+000
7.163327e+002,-2.029129e+000
7.172969e+002,-6.264648e-001
7.182612e+002,6.192322e-001
7.192254e+002,7.477722e-001
7.201896e+002,8.700562e-002
7.211539e+002,-4.862061e-001
7.221181e+002,-1.872711e-001
7.230823e+002,5.278931e-001
7.240466e+002,3.183746e-001
7.250108e+002,-4.892273e-001
7.259750e+002,-1.040329e+000
7.269393e+002,-8.775177e-001
7.279035e+002,-3.116760e-001
7.288677e+002,-7.307129e-001
7.298320e+002,-3.778473e+000
7.307962e+002,-5.128311e+000
7.317604e+002,-3.688644e+000
7.327247e+002,-6.744843e-001
7.336889e+002,2.448975e+000
7.346531e+002,5.509857e+000
7.356174e+002,6.999405e+000
7.365816e+002,5.896545e+000
7.375458e+002,3.879608e+000
7.385101e+002,1.672531e+000
7.394743e+002,-2.276764e-001
7.404385e+002,-1.248032e+000
7.414028e+002,-1.627655e-001
7.423670e+002,2.199387e+000
7.433312e+002,3.250122e+000
7.442955e+002,3.005432e+000
7.452597e+002,2.023346e+000
7.462239e+002,6.016693e-001
7.471882e+002,-1.667770e+000
7.481524e+002,-2.778473e+000
7.491166e+002,-2.846512e+000
7.500809e+002,-2.290924e+000
7.510451e+002,-4.472809e-001
7.520093e+002,2.041183e+000
7.529736e+002,3.040359e+000
7.539378e+002,7.008667e-001
7.549020e+002,-1.716141e+000
7.558663e+002,-2.006729e+000
7.568306e+002,-1.139145e+000
7.577948e+002,-6.989288e-001
7.587590e+002,-1.620667e+000
7.597233e+002,-3.111572e+000
7.606875e+002,-1.943405e+000
7.616517e+002,1.580795e+000
7.626160e+002,3.879944e+000
7.635802e+002,3.837448e+000
7.645444e+002,2.370270e+000
7.655087e+002,1.263214e+000
7.664729e+002,4.841003e-001
7.674371e+002,1.299591e-001
7.684014e+002,6.583099e-001
7.693656e+002,1.088425e+000
7.703298e+002,4.495239e-001
7.712941e+002,-1.169525e+000
7.722583e+002,-2.115875e+000
7.732225e+002,-4.698029e-001
7.741868e+002,1.680130e+000
7.751510e+002,2.732788e+000
7.761152e+002,2.854309e+000
7.770795e+002,2.658142e+000
7.780437e+002,2.656006e+000
7.790079e+002,2.865189e+000
7.799722e+002,4.239838e+000
7.809364e+002,7.040131e+000
7.819006e+002,8.842987e+000
7.828649e+002,8.234451e+000
7.838291e+002,6.054108e+000
7.847933e+002,4.901993e+000
7.857576e+002,5.240402e+000
7.867218e+002,5.619522e+000
7.876860e+002,6.735321e+000
7.886503e+002,7.402039e+000
7.896145e+002,6.249924e+000
7.905787e+002,3.070282e+000
7.915430e+002,-3.554840e-001
7.925072e+002,-2.792740e+000
7.934714e+002,-4.111786e+000
7.944357e+002,-3.235092e+000
7.953999e+002,-4.797668e-001
7.963641e+002,2.216278e+000
7.973284e+002,2.555878e+000
7.982926e+002,3.013611e-001
7.992568e+002,3.901825e-001
8.002211e+002,3.904816e+000
8.011853e+002,6.622986e+000
8.021495e+002,6.932938e+000
8.031138e+002,5.588104e+000
8.040780e+002,4.689590e+000
8.050422e+002,4.735382e+000
8.060065e+002,4.587769e+000
8.069707e+002,3.236633e+000
8.079349e+002,1.740051e+000
8.088992e+002,1.489670e+000
8.098634e+002,2.891830e+000
8.108276e+002,4.594650e+000
8.117919e+002,4.211472e+000
8.127561e+002,2.519272e+000
8.137203e+002,1.545334e+000
8.146846e+002,1.675781e+000
8.156488e+002,2.529556e+000
8.166130e+002,3.612534e+000
8.175773e+002,4.999924e+000
8.185415e+002,5.912903e+000
8.195057e+002,6.081696e+000
8.204700e+002,5.955872e+000
8.214342e+002,5.357956e+000
8.223984e+002,4.587433e+000
8.233627e+002,4.568237e+000
8.243269e+002,6.372391e+000
8.252911e+002,7.486221e+000
8.262554e+002,5.676819e+000
8.272196e+002,3.034470e+000
8.281838e+002,1.679031e+000
8.291481e+002,2.367661e+000
8.301123e+002,4.254944e+000
8.310765e+002,6.020645e+000
8.320408e+002,7.595688e+000
8.330050e+002,9.018692e+000
8.339692e+002,1.047629e+001
8.349335e+002,1.130513e+001
8.358977e+002,1.055574e+001
8.368619e+002,7.986588e+000
8.378262e+002,6.244919e+000
8.387904e+002,5.928207e+000
8.397546e+002,5.613174e+000
8.407189e+002,4.662094e+000
8.416831e+002,3.575348e+000
8.426473e+002,3.209518e+000
8.436116e+002,3.965317e+000
8.445758e+002,5.573288e+000
8.455400e+002,8.457291e+000
8.465043e+002,1.131448e+001
8.474685e+002,1.277785e+001
8.484327e+002,1.260075e+001
8.493970e+002,1.133725e+001
8.503612e+002,9.635742e+000
8.513254e+002,7.184296e+000
8.522897e+002,6.742859e+000
8.532539e+002,9.667679e+000
8.542181e+002,1.239635e+001
8.551824e+002,1.240659e+001
8.561466e+002,1.028299e+001
8.571108e+002,9.907379e+000
8.580751e+002,1.381003e+001
8.590393e+002,1.648160e+001
8.600035e+002,1.537296e+001
8.609678e+002,1.283510e+001
8.619320e+002,1.164758e+001
8.628962e+002,1.286084e+001
8.638605e+002,1.478661e+001
8.648247e+002,1.477573e+001
8.657889e+002,1.360002e+001
8.667532e+002,1.301683e+001
8.677174e+002,1.325201e+001
8.686816e+002,1.361526e+001
8.696459e+002,1.318748e+001
8.706101e+002,1.172995e+001
8.715743e+002,1.196533e+001
8.725386e+002,1.528438e+001
8.735028e+002,1.837624e+001
8.744670e+002,2.055988e+001
8.754313e+002,2.173244e+001
8.763955e+002,2.183954e+001
8.773597e+002,2.070778e+001
8.783240e+002,1.929156e+001
8.792882e+002,1.791820e+001
8.802524e+002,1.671643e+001
8.812167e+002,1.555582e+001
8.821809e+002,1.464072e+001
8.831451e+002,1.483217e+001
8.841094e+002,1.745705e+001
8.850736e+002,2.237845e+001
8.860378e+002,2.427782e+001
8.870021e+002,2.219394e+001
8.879663e+002,2.055898e+001
8.889305e+002,2.267355e+001
8.898948e+002,2.746001e+001
8.908590e+002,2.938663e+001
8.918232e+002,2.602405e+001
8.927875e+002,2.336226e+001
8.937517e+002,2.280850e+001
8.947159e+002,2.327672e+001
8.956802e+002,2.379221e+001
8.966444e+002,2.405534e+001
8.976086e+002,2.454993e+001
8.985729e+002,2.638435e+001
8.995371e+002,2.842758e+001
9.005013e+002,2.826675e+001
9.014656e+002,2.635486e+001
9.024298e+002,2.475406e+001
9.033940e+002,2.493712e+001
9.043583e+002,2.661606e+001
9.053225e+002,2.836467e+001
9.062867e+002,3.068976e+001
9.072510e+002,3.211894e+001
9.082152e+002,3.230624e+001
9.091794e+002,3.209908e+001
9.101437e+002,3.247604e+001
9.111079e+002,3.358765e+001
9.120721e+002,3.404303e+001
9.130364e+002,3.187622e+001
9.140006e+002,2.951552e+001
9.149648e+002,2.843781e+001
9.159291e+002,2.851436e+001
9.168933e+002,2.908447e+001
9.178575e+002,2.960750e+001
9.188218e+002,3.002206e+001
9.197860e+002,3.033751e+001
9.207502e+002,3.049362e+001
9.217145e+002,3.054938e+001
9.226787e+002,3.091209e+001
9.236429e+002,3.114819e+001
9.246072e+002,3.023134e+001
9.255714e+002,2.762534e+001
9.265356e+002,2.613728e+001
9.274999e+002,2.728796e+001
9.284641e+002,2.833730e+001
9.294283e+002,2.880093e+001
9.303926e+002,2.848856e+001
9.313568e+002,2.691748e+001
9.323210e+002,2.371179e+001
9.332853e+002,2.041554e+001
9.342495e+002,1.987637e+001
9.352137e+002,2.085011e+001
9.361780e+002,2.199664e+001
9.371422e+002,2.309258e+001
9.381064e+002,2.400027e+001
9.390707e+002,2.436531e+001
9.400349e+002,2.395737e+001
9.409991e+002,2.353995e+001
9.419634e+002,2.352594e+001
9.429276e+002,2.292200e+001
9.438918e+002,2.061275e+001
9.448561e+002,1.787677e+001
9.458203e+002,1.707658e+001
9.467845e+002,1.922760e+001
9.477488e+002,2.169377e+001
9.487130e+002,2.293768e+001
9.496772e+002,2.329572e+001
9.506415e+002,2.249579e+001
9.516057e+002,2.088489e+001
9.525699e+002,1.943153e+001
9.535342e+002,1.906639e+001
9.544984e+002,1.958989e+001
9.554626e+002,1.979080e+001
9.564269e+002,1.988280e+001
9.573911e+002,1.982156e+001
9.583553e+002,1.912334e+001
9.593196e+002,1.837828e+001
9.602838e+002,1.880486e+001
9.612480e+002,2.083539e+001
9.622123e+002,2.217249e+001
9.631765e+002,2.175822e+001
9.641407e+002,2.102863e+001
9.651050e+002,2.016789e+001
9.660692e+002,1.948912e+001
9.670334e+002,1.968188e+001
9.679977e+002,2.128714e+001
9.689619e+002,2.342549e+001
9.699261e+002,2.384665e+001
9.708904e+002,2.289001e+001
9.718546e+002,2.134810e+001
9.728188e+002,1.911942e+001
9.737831e+002,1.719167e+001
9.747473e+002,1.705716e+001
9.757115e+002,1.911893e+001
9.766758e+002,2.108765e+001
9.776400e+002,2.260423e+001
9.786042e+002,2.469241e+001
9.795685e+002,2.872305e+001
9.805327e+002,3.277127e+001
9.814969e+002,3.423209e+001
9.824612e+002,3.231371e+001
9.834254e+002,2.920569e+001
9.843896e+002,2.598756e+001
9.853539e+002,2.311224e+001
9.863181e+002,2.145772e+001
9.872823e+002,2.074957e+001
9.882466e+002,1.982619e+001
9.892108e+002,1.780693e+001
9.901750e+002,1.518080e+001
9.911393e+002,1.424394e+001
9.921035e+002,1.613191e+001
9.930677e+002,1.716129e+001
9.940320e+002,1.700793e+001
9.949962e+002,1.637450e+001
9.959604e+002,1.540939e+001
9.969247e+002,1.426770e+001
9.978889e+002,1.456404e+001
9.988531e+002,1.802350e+001
9.998174e+002,2.158673e+001
1.000782e+003,2.369666e+001
1.001746e+003,2.479909e+001
1.002710e+003,2.543216e+001
1.003674e+003,2.590157e+001
1.004639e+003,2.644455e+001
1.005603e+003,2.761101e+001
1.006567e+003,2.941776e+001
1.007531e+003,2.948055e+001
1.008495e+003,2.705844e+001
1.009460e+003,2.453024e+001
1.010424e+003,2.308539e+001
1.011388e+003,2.270456e+001
1.012352e+003,2.348384e+001
1.013317e+003,2.663693e+001
1.014281e+003,2.823146e+001
1.015245e+003,2.615839e+001
1.016209e+003,2.312791e+001
1.017174e+003,2.109120e+001
1.018138e+003,2.019614e+001
1.019102e+003,1.938760e+001
1.020066e+003,1.784760e+001
1.021031e+003,1.586523e+001
1.021995e+003,1.401949e+001
1.022959e+003,1.213654e+001
1.023923e+003,9.839767e+000
1.024887e+003,6.532272e+000
1.025852e+003,3.514587e+000
1.026816e+003,3.263550e+000
1.027780e+003,6.668488e+000
1.028744e+003,9.131226e+000
1.029709e+003,1.010149e+001
1.030673e+003,1.030144e+001
1.031637e+003,9.268860e+000
1.032601e+003,7.769257e+000
1.033566e+003,7.090927e+000
1.034530e+003,7.674973e+000
1.035494e+003,8.013275e+000
1.036458e+003,5.583405e+000
1.037422e+003,2.275452e+000
1.038387e+003,1.665573e+000
1.039351e+003,3.573166e+000
1.040315e+003,5.461105e+000
1.041279e+003,5.450272e+000
1.042244e+003,4.046326e+000
1.043208e+003,3.473999e+000
1.044172e+003,4.043488e+000
1.045136e+003,4.750626e+000
1.046101e+003,6.310165e+000
1.047065e+003,7.407471e+000
1.048029e+003,6.848328e+000
1.048993e+003,4.962402e+000
1.049958e+003,3.178223e+000
1.050922e+003,2.098083e+000
1.051886e+003,1.698486e+000
1.052850e+003,1.727844e+000
1.053814e+003,2.351349e+000
1.054779e+003,4.450317e+000
1.055743e+003,7.862686e+000
1.056707e+003,1.066211e+001
1.057671e+003,1.047186e+001
1.058636e+003,7.240738e+000
1.059600e+003,4.634323e+000
1.060564e+003,2.390427e+000
1.061528e+003,1.408218e+000
1.062493e+003,2.492569e+000
1.063457e+003,4.227661e+000
1.064421e+003,5.204956e+000
1.065385e+003,5.313446e+000
1.066349e+003,5.192383e+000
1.067314e+003,4.949661e+000
1.068278e+003,4.845291e+000
1.069242e+003,4.985641e+000
1.070206e+003,5.458603e+000
1.071171e+003,6.696030e+000
1.072135e+003,8.626724e+000
1.073099e+003,1.001906e+001
1.074063e+003,8.765045e+000
1.075028e+003,4.532684e+000
1.075992e+003,2.673065e+000
1.076956e+003,4.332672e+000
1.077920e+003,5.746933e+000
1.078885e+003,5.494293e+000
1.079849e+003,4.304016e+000
1.080813e+003,3.207626e+000
1.081777e+003,2.211746e+000
1.082741e+003,2.139267e+000
1.083706e+003,4.646408e+000
1.084670e+003,6.869202e+000
1.085634e+003,6.815323e+000
1.086598e+003,5.293533e+000
1.087563e+003,4.345444e+000
1.088527e+003,5.078049e+000
1.089491e+003,6.226273e+000
1.090455e+003,4.872269e+000
1.091420e+003,5.583801e-001
1.092384e+003,-1.358643e+000
1.093348e+003,-1.481628e-001
1.094312e+003,1.821884e+000
1.095276e+003,3.865509e+000
1.096241e+003,5.753937e+000
1.097205e+003,6.374084e+000
1.098169e+003,5.076416e+000
1.099133e+003,3.706268e+000
1.100098e+003,3.342010e+000
1.101062e+003,2.908585e+000
1.102026e+003,8.139801e-001
1.102990e+003,-1.824265e+000
1.103955e+003,-1.991150e+000
1.104919e+003,2.041260e+000
1.105883e+003,7.529373e+000
1.106847e+003,8.364975e+000
1.107812e+003,4.414841e+000
1.108776e+003,2.211166e+000
1.109740e+003,2.568359e+000
1.110704e+003,3.547684e+000
1.111668e+003,3.991699e+000
1.112633e+003,4.078186e+000
1.113597e+003,4.157654e+000
1.114561e+003,3.965271e+000
1.115525e+003,4.228317e+000
1.116490e+003,6.102432e+000
1.117454e+003,7.549698e+000
1.118418e+003,6.813721e+000
1.119382e+003,4.660278e+000
1.120347e+003,2.989746e+000
1.121311e+003,2.867752e+000
1.122275e+003,3.759415e+000
1.123239e+003,5.127472e+000
1.124203e+003,7.074860e+000
1.125168e+003,8.801727e+000
1.126132e+003,1.022504e+001
1.127096e+003,1.160237e+001
1.128060e+003,1.331624e+001
1.129025e+003,1.509789e+001
1.129989e+003,1.574376e+001
1.130953e+003,1.455681e+001
1.131917e+003,1.348129e+001
1.132882e+003,1.301773e+001
1.133846e+003,1.293835e+001
1.134810e+003,1.325764e+001
1.135774e+003,1.384229e+001
1.136739e+003,1.439185e+001
1.137703e+003,1.473433e+001
1.138667e+003,1.515866e+001
1.139631e+003,1.613995e+001
1.140595e+003,1.772174e+001
1.141560e+003,2.005621e+001
1.142524e+003,2.329758e+001
1.143488e+003,2.715387e+001
1.144452e+003,3.166106e+001
1.145417e+003,3.658960e+001
1.146381e+003,4.084607e+001
1.147345e+003,4.351685e+001
1.148309e+003,4.788177e+001
1.149274e+003,5.657045e+001
1.150238e+003,6.527853e+001
1.151202e+003,7.147859e+001
1.152166e+003,7.624951e+001
1.153130e+003,8.224590e+001
1.154095e+003,9.043079e+001
1.155059e+003,9.835432e+001
1.156023e+003,1.029294e+002
1.156987e+003,1.040201e+002
1.157952e+003,1.025277e+002
1.158916e+003,9.854660e+001
1.159880e+003,9.314519e+001
1.160844e+003,8.548047e+001
1.161809e+003,7.671284e+001
1.162773e+003,7.010007e+001
1.163737e+003,6.617058e+001
1.164701e+003,6.211478e+001
1.165666e+003,5.747028e+001
1.166630e+003,5.248148e+001
1.167594e+003,4.682297e+001
1.168558e+003,4.099904e+001
1.169522e+003,3.509283e+001
1.170487e+003,2.950148e+001
1.171451e+003,2.593941e+001
1.172415e+003,2.667303e+001
1.173379e+003,3.058264e+001
1.174344e+003,3.172499e+001
1.175308e+003,3.011359e+001
1.176272e+003,2.832230e+001
1.177236e+003,2.735243e+001
1.178201e+003,2.655365e+001
1.179165e+003,2.476381e+001
1.180129e+003,2.186584e+001
1.181093e+003,1.967667e+001
1.182057e+003,1.898082e+001
1.183022e+003,1.860223e+001
1.183986e+003,1.794984e+001
1.184950e+003,1.747450e+001
1.185914e+003,1.768077e+001
1.186879e+003,1.859586e+001
1.187843e+003,1.996449e+001
1.188807e+003,2.156285e+001
1.189771e+003,2.310097e+001
1.190736e+003,2.375609e+001
1.191700e+003,2.339703e+001
1.192664e+003,2.336800e+001
1.193628e+003,2.445354e+001
1.194593e+003,2.517587e+001
1.195557e+003,2.412164e+001
1.196521e+003,2.178860e+001
1.197485e+003,2.007918e+001
1.198449e+003,1.954861e+001
1.199414e+003,1.885242e+001
1.200378e+003,1.716870e+001
1.201342e+003,1.533749e+001
1.202306e+003,1.345906e+001
1.203271e+003,1.185890e+001
1.204235e+003,1.128801e+001
1.205199e+003,1.202162e+001
1.206163e+003,1.314734e+001
1.207128e+003,1.309131e+001
1.208092e+003,1.179443e+001
1.209056e+003,1.051157e+001
1.210020e+003,8.983429e+000
1.210984e+003,7.961853e+000
1.211949e+003,8.636337e+000
1.212913e+003,9.272537e+000
1.213877e+003,7.142288e+000
1.214841e+003,2.224396e+000
1.215806e+003,-1.776138e+000
1.216770e+003,-3.339890e+000
1.217734e+003,-3.776474e+000
1.218698e+003,-3.602066e+000
1.219663e+003,-3.393692e+000
1.220627e+003,-4.051117e+000
1.221591e+003,-5.540619e+000
1.222555e+003,-6.815704e+000
1.223520e+003,-6.857178e+000
1.224484e+003,-6.024902e+000
1.225448e+003,-6.301147e+000
1.226412e+003,-8.696136e+000
1.227376e+003,-9.963989e+000
1.228341e+003,-9.318985e+000
1.229305e+003,-8.555832e+000
1.230269e+003,-8.564682e+000
1.231233e+003,-9.178940e+000
1.232198e+003,-1.029366e+001
1.233162e+003,-1.192549e+001
1.234126e+003,-1.229266e+001
1.235090e+003,-8.926163e+000
1.236055e+003,-4.941223e+000
1.237019e+003,-3.628159e+000
1.237983e+003,-4.500168e+000
1.238947e+003,-6.125473e+000
1.239911e+003,-7.826508e+000
1.240876e+003,-9.307022e+000
1.241840e+003,-1.022186e+001
1.242804e+003,-1.057219e+001
1.243768e+003,-1.026059e+001
1.244733e+003,-8.703125e+000
1.245697e+003,-7.196732e+000
1.246661e+003,-5.484177e+000
1.247625e+003,-4.373932e+000
1.248590e+003,-4.723022e+000
1.249554e+003,-6.057083e+000
1.250518e+003,-7.108536e+000
1.251482e+003,-7.372971e+000
1.252447e+003,-7.334503e+000
1.253411e+003,-7.683594e+000
1.254375e+003,-7.875244e+000
1.255339e+003,-6.373810e+000
1.256303e+003,-3.207870e+000
1.257268e+003,-1.126129e+000
1.258232e+003,-2.189606e+000
1.259196e+003,-4.833542e+000
1.260160e+003,-5.536362e+000
1.261125e+003,-3.763184e+000
1.262089e+003,-2.709305e+000
1.263053e+003,-3.924576e+000
1.264017e+003,-4.558105e+000
1.264982e+003,-3.139496e+000
1.265946e+003,-1.354187e+000
1.266910e+003,-9.929199e-001
1.267874e+003,-1.930222e+000
1.268839e+003,-2.584503e+000
1.269803e+003,-1.888763e+000
1.270767e+003,-8.197479e-001
1.271731e+003,-1.449677e+000
1.272695e+003,-3.648346e+000
1.273660e+003,-4.690002e+000
1.274624e+003,-4.189850e+000
1.275588e+003,-3.869827e+000
1.276552e+003,-5.089691e+000
1.277517e+003,-6.717407e+000
1.278481e+003,-6.387695e+000
1.279445e+003,-3.818954e+000
1.280409e+003,-2.112534e+000
1.281374e+003,-2.689758e+000
1.282338e+003,-3.785507e+000
1.283302e+003,-4.830170e+000
1.284266e+003,-5.655121e+000
1.285230e+003,-5.947052e+000
1.286195e+003,-5.814636e+000
1.287159e+003,-5.841644e+000
1.288123e+003,-6.465378e+000
1.289087e+003,-7.247452e+000
1.290052e+003,-7.002808e+000
1.291016e+003,-5.254608e+000
1.291980e+003,-4.557297e+000
1.292944e+003,-5.479355e+000
1.293909e+003,-6.795914e+000
1.294873e+003,-8.520798e+000
1.295837e+003,-9.933731e+000
1.296801e+003,-9.731140e+000
1.297766e+003,-7.909988e+000
1.298730e+003,-6.467682e+000
1.299694e+003,-6.437775e+000
1.300658e+003,-7.397461e+000
1.301622e+003,-9.848648e+000
1.302587e+003,-1.243507e+001
1.303551e+003,-1.269524e+001
1.304515e+003,-1.030765e+001
1.305479e+003,-7.090530e+000
1.306444e+003,-4.336639e+000
1.307408e+003,-2.255844e+000
1.308372e+003,-1.537537e+000
1.309336e+003,-2.578568e+000
1.310301e+003,-3.819138e+000
1.311265e+003,-5.687836e+000
1.312229e+003,-6.986053e+000
1.313193e+003,-7.133392e+000
1.314157e+003,-6.723053e+000
1.315122e+003,-6.028763e+000
1.316086e+003,-5.424881e+000
1.317050e+003,-5.901443e+000
1.318014e+003,-8.184784e+000
1.318979e+003,-1.072240e+001
1.319943e+003,-1.056122e+001
1.320907e+003,-7.966095e+000
1.321871e+003,-6.148895e+000
1.322836e+003,-5.495575e+000
1.323800e+003,-5.177261e+000
1.324764e+003,-4.549011e+000
1.325728e+003,-4.044052e+000
1.326693e+003,-4.678436e+000
1.327657e+003,-6.559280e+000
1.328621e+003,-8.103088e+000
1.329585e+003,-8.815140e+000
1.330549e+003,-8.612320e+000
1.331514e+003,-7.408127e+000
1.332478e+003,-5.936905e+000
1.333442e+003,-4.553146e+000
1.334406e+003,-3.441391e+000
1.335371e+003,-3.008102e+000
1.336335e+003,-3.469894e+000
1.337299e+003,-4.339172e+000
1.338263e+003,-4.784546e+000
1.339228e+003,-4.872437e+000
1.340192e+003,-3.805603e+000
1.341156e+003,8.296967e-001
1.342120e+003,3.015717e+000
1.343084e+003,-5.412750e-001
1.344049e+003,-4.867661e+000
1.345013e+003,-5.185654e+000
1.345977e+003,-2.558441e+000
1.346941e+003,-1.650757e+000
1.347906e+003,-4.261978e+000
1.348870e+003,-6.911545e+000
1.349834e+003,-5.921432e+000
1.350798e+003,-3.324066e+000
1.351763e+003,-3.299240e+000
1.352727e+003,-5.336090e+000
1.353691e+003,-6.323166e+000
1.354655e+003,-4.840790e+000
1.355620e+003,-2.945831e+000
1.356584e+003,-3.282104e+000
1.357548e+003,-5.511261e+000
1.358512e+003,-6.814209e+000
1.359476e+003,-6.770004e+000
1.360441e+003,-7.051300e+000
1.361405e+003,-8.799957e+000
1.362369e+003,-1.007547e+001
1.363333e+003,-9.367142e+000
1.364298e+003,-7.840256e+000
1.365262e+003,-7.312698e+000
1.366226e+003,-8.089142e+000
1.367190e+003,-8.970123e+000
1.368155e+003,-8.895889e+000
1.369119e+003,-7.993988e+000
1.370083e+003,-6.533127e+000
1.371047e+003,-3.998413e+000
1.372011e+003,-3.088120e+000
1.372976e+003,-5.616043e+000
1.373940e+003,-7.534103e+000
1.374904e+003,-6.964905e+000
1.375868e+003,-5.142487e+000
1.376833e+003,-3.248764e+000
1.377797e+003,-1.632095e+000
1.378761e+003,-1.115707e+000
1.379725e+003,-2.272949e+000
1.380690e+003,-3.802521e+000
1.381654e+003,-4.577255e+000
1.382618e+003,-4.724365e+000
1.383582e+003,-4.227417e+000
1.384547e+003,-3.190674e+000
1.385511e+003,-2.148376e+000
1.386475e+003,-1.356750e+000
1.387439e+003,-9.132385e-001
1.388403e+003,-9.256439e-001
1.389368e+003,-1.405624e+000
1.390332e+003,-2.431458e+000
1.391296e+003,-4.476013e+000
1.392260e+003,-5.957687e+000
1.393225e+003,-6.649414e+000
1.394189e+003,-6.693939e+000
1.395153e+003,-5.969086e+000
1.396117e+003,-4.722656e+000
1.397082e+003,-2.746216e+000
1.398046e+003,-3.871765e-001
1.399010e+003,6.527710e-001
1.399974e+003,-1.331192e+000
1.400938e+003,-5.240341e+000
1.401903e+003,-7.244003e+000
1.402867e+003,-6.589951e+000
1.403831e+003,-5.675674e+000
1.404795e+003,-4.529739e+000
1.405760e+003,-3.365799e+000
1.406724e+003,-1.792786e+000
1.407688e+003,-9.245911e-001
1.408652e+003,-2.691788e+000
1.409617e+003,-6.348709e+000
1.410581e+003,-7.995560e+000
1.411545e+003,-5.776443e+000
1.412509e+003,-2.981262e+000
1.413474e+003,-3.103195e+000
1.414438e+003,-4.651810e+000
1.415402e+003,-4.955719e+000
1.416366e+003,-4.012695e+000
1.417330e+003,-2.776535e+000
1.418295e+003,-1.526932e+000
1.419259e+003,-4.322357e-001
1.420223e+003,3.893890e-001
1.421187e+003,8.003082e-001
1.422152e+003,9.387207e-002
1.423116e+003,-2.308823e+000
1.424080e+003,-3.530396e+000
1.425044e+003,-1.893661e+000
1.426009e+003,-6.553650e-002
1.426973e+003,1.215469e+000
1.427937e+003,1.857788e+000
1.428901e+003,1.665680e+000
1.429865e+003,8.639221e-001
1.430830e+003,4.727173e-002
1.431794e+003,-4.398956e-001
1.432758e+003,-8.258972e-001
1.433722e+003,-1.481003e+000
1.434687e+003,-2.359543e+000
1.435651e+003,-2.011627e+000
1.436615e+003,2.687073e-001
1.437579e+003,1.976334e+000
1.438544e+003,2.784637e+000
1.439508e+003,3.166534e+000
1.440472e+003,3.566696e+000
1.441436e+003,3.874115e+000
1.442401e+003,3.534286e+000
1.443365e+003,2.479080e+000
1.444329e+003,1.627869e+000
1.445293e+003,1.710846e+000
1.446257e+003,2.391800e+000
1.447222e+003,3.300232e+000
1.448186e+003,4.239578e+000
1.449150e+003,3.892181e+000
1.450114e+003,1.674164e+000
1.451079e+003,-6.480408e-002
1.452043e+003,2.863770e-001
1.453007e+003,1.638611e+000
1.453971e+003,2.658615e+000
1.454936e+003,3.241837e+000
1.455900e+003,3.024902e+000
1.456864e+003,1.651154e+000
1.457828e+003,6.798096e-001
1.458792e+003,1.419235e+000
1.459757e+003,2.426453e+000
1.460721e+003,2.324280e+000
1.461685e+003,1.638428e+000
1.462649e+003,1.831009e+000
1.463614e+003,3.188980e+000
1.464578e+003,4.068909e+000
1.465542e+003,2.836258e+000
1.466506e+003,2.709503e-001
1.467471e+003,-1.204208e+000
1.468435e+003,-1.294479e+000
1.469399e+003,-1.181549e+000
1.470363e+003,-1.365494e+000
1.471328e+003,-9.306946e-001
1.472292e+003,8.101501e-001
1.473256e+003,2.533554e+000
1.474220e+003,3.478287e+000
1.475184e+003,3.854095e+000
1.476149e+003,4.123001e+000
1.477113e+003,4.371185e+000
1.478077e+003,4.291534e+000
1.479041e+003,3.649933e+000
1.480006e+003,2.823761e+000
1.480970e+003,2.888077e+000
1.481934e+003,4.058517e+000
1.482898e+003,4.706451e+000
1.483863e+003,4.523773e+000
1.484827e+003,4.262589e+000
1.485791e+003,3.837112e+000
1.486755e+003,3.840393e+000
1.487719e+003,5.021515e+000
1.488684e+003,6.938477e+000
1.489648e+003,8.520523e+000
1.490612e+003,9.475357e+000
1.491576e+003,1.017368e+001
1.492541e+003,1.083577e+001
1.493505e+003,1.143860e+001
1.494469e+003,1.179381e+001
1.495433e+003,1.189063e+001
1.496398e+003,1.256850e+001
1.497362e+003,1.423428e+001
1.498326e+003,1.609764e+001
1.499290e+003,1.785144e+001
1.500255e+003,1.945883e+001
1.501219e+003,2.042351e+001
1.502183e+003,2.101048e+001
1.503147e+003,2.309171e+001
1.504111e+003,2.737259e+001
1.505076e+003,3.157555e+001
1.506040e+003,3.389018e+001
1.507004e+003,3.614417e+001
1.507968e+003,4.021921e+001
1.508933e+003,4.556012e+001
1.509897e+003,5.104579e+001
1.510861e+003,5.662320e+001
1.511825e+003,6.272391e+001
1.512790e+003,6.941409e+001
1.513754e+003,7.685291e+001
1.514718e+003,8.623740e+001
1.515682e+003,9.742917e+001
1.516646e+003,1.056495e+002
1.517611e+003,1.092794e+002
1.518575e+003,1.132926e+002
1.519539e+003,1.206816e+002
1.520503e+003,1.275793e+002
1.521468e+003,1.320806e+002
1.522432e+003,1.346371e+002
1.523396e+003,1.362132e+002
1.524360e+003,1.368044e+002
1.525325e+003,1.354167e+002
1.526289e+003,1.314276e+002
1.527253e+003,1.261356e+002
1.528217e+003,1.220107e+002
1.529182e+003,1.191953e+002
1.530146e+003,1.133438e+002
1.531110e+003,1.018005e+002
1.532074e+003,9.194757e+001
1.533039e+003,8.648740e+001
1.534003e+003,7.958585e+001
1.534967e+003,6.697473e+001
1.535931e+003,5.320769e+001
1.536896e+003,4.374619e+001
1.537860e+003,3.845267e+001
1.538824e+003,3.336203e+001
1.539788e+003,2.645100e+001
1.540752e+003,1.997775e+001
1.541717e+003,1.706584e+001
1.542681e+003,1.712639e+001
1.543645e+003,1.586841e+001
1.544609e+003,1.216158e+001
1.545573e+003,1.044215e+001
1.546538e+003,1.244658e+001
1.547502e+003,1.376329e+001
1.548466e+003,1.227228e+001
1.549430e+003,1.005943e+001
1.550395e+003,9.016403e+000
1.551359e+003,9.094177e+000
1.552323e+003,9.875137e+000
1.553287e+003,1.110097e+001
1.554252e+003,1.148816e+001
1.555216e+003,9.753860e+000
1.556180e+003,6.779526e+000
1.557144e+003,4.387177e+000
1.558109e+003,2.666916e+000
1.559073e+003,2.343887e+000
1.560037e+003,4.067230e+000
1.561001e+003,5.477219e+000
1.561966e+003,5.899292e+000
1.562930e+003,5.909698e+000
1.563894e+003,5.932693e+000
1.564858e+003,5.857895e+000
1.565823e+003,5.064346e+000
1.566787e+003,3.542664e+000
1.567751e+003,3.322159e+000
1.568715e+003,6.035507e+000
1.569679e+003,9.167603e+000
1.570644e+003,9.276321e+000
1.571608e+003,7.239090e+000
1.572572e+003,5.830429e+000
1.573536e+003,5.201553e+000
1.574500e+003,4.972565e+000
1.575465e+003,5.221817e+000
1.576429e+003,5.434921e+000
1.577393e+003,4.923279e+000
1.578357e+003,4.133469e+000
1.579322e+003,3.952850e+000
1.580286e+003,4.484406e+000
1.581250e+003,5.841263e+000
1.582214e+003,8.449265e+000
1.583179e+003,1.036548e+001
1.584143e+003,9.332916e+000
1.585107e+003,7.454514e+000
1.586071e+003,8.413071e+000
1.587036e+003,1.111751e+001
1.588000e+003,1.127811e+001
1.588964e+003,7.702713e+000
1.589928e+003,4.708527e+000
1.590893e+003,5.727356e+000
1.591857e+003,8.406464e+000
1.592821e+003,9.208466e+000
1.593785e+003,8.471786e+000
1.594750e+003,8.020172e+000
1.595714e+003,8.015350e+000
1.596678e+003,8.374466e+000
1.597642e+003,9.508102e+000
1.598606e+003,1.036066e+001
1.599571e+003,9.254211e+000
1.600535e+003,7.940521e+000
1.601499e+003,9.322220e+000
1.602463e+003,1.288632e+001
1.603427e+003,1.504851e+001
1.604392e+003,1.422459e+001
1.605356e+003,1.284258e+001
1.606320e+003,1.355443e+001
1.607284e+003,1.556094e+001
1.608249e+003,1.680278e+001
1.609213e+003,1.729050e+001
1.610177e+003,1.616754e+001
1.611141e+003,1.242055e+001
1.612106e+003,9.244614e+000
1.613070e+003,8.341782e+000
1.614034e+003,8.450363e+000
1.614998e+003,9.117569e+000
1.615963e+003,1.001192e+001
1.616927e+003,1.059663e+001
1.617891e+003,1.080299e+001
1.618855e+003,1.098633e+001
1.619820e+003,1.131134e+001
1.620784e+003,1.159453e+001
1.621748e+003,1.172073e+001
1.622712e+003,1.187291e+001
1.623677e+003,1.229050e+001
1.624641e+003,1.304161e+001
1.625605e+003,1.380006e+001
1.626569e+003,1.465860e+001
1.627533e+003,1.465912e+001
1.628498e+003,1.244727e+001
1.629462e+003,1.025870e+001
1.630426e+003,1.029704e+001
1.631390e+003,1.174873e+001
1.632354e+003,1.252982e+001
1.633319e+003,1.218434e+001
1.634283e+003,1.204037e+001
1.635247e+003,1.315573e+001
1.636211e+003,1.472931e+001
1.637176e+003,1.554721e+001
1.638140e+003,1.564827e+001
1.639104e+003,1.459499e+001
1.640068e+003,1.169183e+001
1.641033e+003,1.008704e+001
1.641997e+003,1.140028e+001
1.642961e+003,1.309216e+001
1.643925e+003,1.446025e+001
1.644890e+003,1.511023e+001
1.645854e+003,1.398915e+001
1.646818e+003,1.189548e+001
1.647782e+003,1.092119e+001
1.648747e+003,1.166206e+001
1.649711e+003,1.292523e+001
1.650675e+003,1.393188e+001
1.651639e+003,1.459099e+001
1.652604e+003,1.452203e+001
1.653568e+003,1.368407e+001
1.654532e+003,1.226509e+001
1.655496e+003,9.614883e+000
1.656460e+003,8.886322e+000
1.657425e+003,1.344586e+001
1.658389e+003,1.685295e+001
1.659353e+003,1.428915e+001
1.660317e+003,9.910156e+000
1.661281e+003,8.095764e+000
1.662246e+003,8.488449e+000
1.663210e+003,8.701904e+000
1.664174e+003,7.988007e+000
1.665138e+003,7.451263e+000
1.666103e+003,8.185104e+000
1.667067e+003,9.295258e+000
1.668031e+003,8.800064e+000
1.668995e+003,6.875519e+000
1.669960e+003,5.666260e+000
1.670924e+003,5.327499e+000
1.671888e+003,5.859192e+000
1.672852e+003,7.658783e+000
1.673817e+003,9.667526e+000
1.674781e+003,1.214734e+001
1.675745e+003,1.379123e+001
1.676709e+003,1.235603e+001
1.677674e+003,8.806473e+000
1.678638e+003,6.336441e+000
1.679602e+003,5.950226e+000
1.680566e+003,6.223526e+000
1.681531e+003,6.279800e+000
1.682495e+003,6.187851e+000
1.683459e+003,5.937775e+000
1.684423e+003,5.485306e+000
1.685387e+003,4.810623e+000
1.686352e+003,3.853973e+000
1.687316e+003,3.508392e+000
1.688280e+003,4.415161e+000
1.689244e+003,5.312042e+000
1.690208e+003,4.985428e+000
1.691173e+003,4.290039e+000
1.692137e+003,4.245132e+000
1.693101e+003,4.754456e+000
1.694065e+003,5.275497e+000
1.695030e+003,5.613510e+000
1.695994e+003,5.213104e+000
1.696958e+003,3.154907e+000
1.697922e+003,1.006317e+000
1.698887e+003,9.629517e-001
1.699851e+003,2.409439e+000
1.700815e+003,3.431274e+000
1.701779e+003,3.812714e+000
1.702744e+003,4.100449e+000
1.703708e+003,4.643585e+000
1.704672e+003,4.851608e+000
1.705636e+003,3.835739e+000
1.706601e+003,2.429199e+000
1.707565e+003,2.052948e+000
1.708529e+003,2.529175e+000
1.709493e+003,3.242584e+000
1.710458e+003,4.180130e+000
1.711422e+003,4.657806e+000
1.712386e+003,4.294952e+000
1.713350e+003,3.658752e+000
1.714314e+003,2.867813e+000
1.715279e+003,2.100281e+000
1.716243e+003,1.772400e+000
1.717207e+003,1.867935e+000
1.718171e+003,2.304718e+000
1.719135e+003,3.080978e+000
1.720100e+003,3.060608e+000
1.721064e+003,1.224396e+000
1.722028e+003,-1.197433e+000
1.722992e+003,-2.511429e+000
1.723957e+003,-2.663208e+000
1.724921e+003,-1.824722e+000
1.725885e+003,7.774353e-002
1.726849e+003,1.358887e+000
1.727814e+003,1.722229e+000
1.728778e+003,1.840408e+000
1.729742e+003,2.098740e+000
1.730706e+003,2.081558e+000
1.731671e+003,8.530121e-001
1.732635e+003,-9.670105e-001
1.733599e+003,-1.850281e+000
1.734563e+003,-1.496658e+000
1.735528e+003,-4.729767e-001
1.736492e+003,8.665161e-001
1.737456e+003,1.489777e+000
1.738420e+003,-2.796936e-002
1.739385e+003,-2.835892e+000
1.740349e+003,-3.402237e+000
1.741313e+003,-1.011246e+000
1.742277e+003,3.563995e-001
1.743241e+003,-1.607513e-001
1.744206e+003,-1.232147e-001
1.745170e+003,1.522644e+000
1.746134e+003,2.816971e+000
1.747098e+003,2.388626e+000
1.748063e+003,1.228104e+000
1.749027e+003,4.429626e-001
1.749991e+003,9.471130e-002
1.750955e+003,-3.076935e-001
1.751919e+003,-9.021149e-001
1.752884e+003,-1.135559e+000
1.753848e+003,-5.238190e-001
1.754812e+003,3.820801e-002
1.755776e+003,-1.458496e+000
1.756741e+003,-4.802124e+000
1.757705e+003,-5.443420e+000
1.758669e+003,-2.009964e+000
1.759633e+003,-1.567535e-001
1.760598e+003,-1.745255e+000
1.761562e+003,-3.256989e+000
1.762526e+003,-3.355957e+000
1.763490e+003,-3.136154e+000
1.764455e+003,-3.427841e+000
1.765419e+003,-3.880951e+000
1.766383e+003,-3.925323e+000
1.767347e+003,-3.556931e+000
1.768312e+003,-3.075043e+000
1.769276e+003,-2.643311e+000
1.770240e+003,-2.253662e+000
1.771204e+003,-1.563477e+000
1.772168e+003,-9.411011e-001
1.773133e+003,-1.981796e+000
1.774097e+003,-4.375626e+000
1.775061e+003,-4.488220e+000
1.776025e+003,-1.615158e+000
1.776990e+003,1.365662e-002
1.777954e+003,-1.433395e+000
1.778918e+003,-3.135010e+000
1.779882e+003,-3.072189e+000
1.780846e+003,-2.295425e+000
1.781811e+003,-2.371170e+000
1.782775e+003,-2.847168e+000
1.783739e+003,-1.938904e+000
1.784703e+003,8.441162e-001
1.785668e+003,2.545242e+000
1.786632e+003,1.320465e+000
1.787596e+003,-7.495117e-001
1.788560e+003,-2.372330e+000
1.789525e+003,-3.507385e+000
1.790489e+003,-4.269852e+000
1.791453e+003,-4.656464e+000
1.792417e+003,-4.335831e+000
1.793382e+003,-3.331497e+000
1.794346e+003,-2.512314e+000
1.795310e+003,-2.351578e+000
1.796274e+003,-2.563980e+000
1.797239e+003,-2.839310e+000
1.798203e+003,-2.940216e+000
1.799167e+003,-2.403656e+000
1.800131e+003,-1.248764e+000
1.801095e+003,-6.935577e-001
1.802060e+003,-7.830963e-001
1.803024e+003,-9.626160e-001
1.803988e+003,-1.548584e+000
1.804952e+003,-1.898163e+000
1.805917e+003,-1.285782e+000
1.806881e+003,-6.542816e-001
1.807845e+003,-1.327866e+000
1.808809e+003,-2.549591e+000
1.809773e+003,-2.411377e+000
1.810738e+003,-7.841492e-001
1.811702e+003,4.865417e-001
1.812666e+003,2.396393e-001
1.813630e+003,-8.050079e-001
1.814595e+003,-1.753387e+000
1.815559e+003,-2.616104e+000
1.816523e+003,-3.387375e+000
1.817487e+003,-4.093460e+000
1.818452e+003,-4.066696e+000
1.819416e+003,-2.964233e+000
1.820380e+003,-1.742950e+000
1.821344e+003,-4.018555e-001
1.822309e+003,4.362793e-001
1.823273e+003,5.358582e-001
1.824237e+003,2.873230e-002
1.825201e+003,-1.801636e+000
1.826166e+003,-4.079086e+000
1.827130e+003,-4.080124e+000
1.828094e+003,-1.468811e+000
1.829058e+003,1.112823e-001
1.830022e+003,-1.576614e+000
1.830987e+003,-3.526810e+000
1.831951e+003,-2.905960e+000
1.832915e+003,-1.286407e+000
1.833879e+003,-1.294067e+000
1.834844e+003,-2.268433e+000
1.835808e+003,-1.440292e+000
1.836772e+003,1.329895e+000
1.837736e+003,2.887573e+000
1.838700e+003,1.787582e+000
1.839665e+003,-2.816467e-001
1.840629e+003,-1.982086e+000
1.841593e+003,-2.862732e+000
1.842557e+003,-1.778915e+000
1.843522e+003,1.218704e+000
1.844486e+003,2.631470e+000
1.845450e+003,1.566422e+000
1.846414e+003,8.354340e-001
1.847379e+003,2.905121e-001
1.848343e+003,-3.002930e-002
1.849307e+003,2.554321e-001
1.850271e+003,4.928131e-001
1.851236e+003,2.827301e-001
1.852200e+003,-2.215576e-001
1.853164e+003,-1.192444e+000
1.854128e+003,-2.343323e+000
1.855093e+003,-2.571793e+000
1.856057e+003,-1.509064e+000
1.857021e+003,-4.483643e-001
1.857985e+003,-5.642853e-001
1.858949e+003,-1.141083e+000
1.859914e+003,-9.117889e-001
1.860878e+003,2.465820e-002
1.861842e+003,1.029129e+000
1.862806e+003,2.068359e+000
1.863771e+003,2.968246e+000
1.864735e+003,3.768494e+000
1.865699e+003,3.849411e+000
1.866663e+003,2.627487e+000
1.867627e+003,1.384521e+000
1.868592e+003,1.282242e+000
1.869556e+003,1.702820e+000
1.870520e+003,1.782028e+000
1.871484e+003,1.494202e+000
1.872449e+003,5.311127e-001
1.873413e+003,-1.329086e+000
1.874377e+003,-2.069931e+000
1.875341e+003,-6.875916e-001
1.876306e+003,9.278870e-001
1.877270e+003,1.929611e+000
1.878234e+003,2.486191e+000
1.879198e+003,2.622971e+000
1.880163e+003,2.602921e+000
1.881127e+003,3.156052e+000
1.882091e+003,4.022141e+000
1.883055e+003,3.748245e+000
1.884020e+003,1.820740e+000
1.884984e+003,-5.872803e-001
1.885948e+003,-2.455292e+000
1.886912e+003,-3.440887e+000
1.887876e+003,-2.647751e+000
1.888841e+003,-2.564240e-001
1.889805e+003,1.377213e+000
1.890769e+003,2.219589e+000
1.891733e+003,2.388367e+000
1.892698e+003,1.359940e+000
1.893662e+003,7.836914e-001
1.894626e+003,1.466522e+000
1.895590e+003,2.505569e+000
1.896554e+003,3.761719e+000
1.897519e+003,4.785187e+000
1.898483e+003,4.566177e+000
1.899447e+003,3.489349e+000
1.900411e+003,3.410095e+000
1.901376e+003,4.759964e+000
1.902340e+003,5.288132e+000
1.903304e+003,3.387711e+000
1.904268e+003,1.629257e+000
1.905233e+003,1.925201e+000
1.906197e+003,2.858475e+000
1.907161e+003,2.904572e+000
1.908125e+003,2.577805e+000
1.909090e+003,2.962402e+000
1.910054e+003,3.948410e+000
1.911018e+003,4.810089e+000
1.911982e+003,5.287506e+000
1.912947e+003,5.208099e+000
1.913911e+003,4.416168e+000
1.914875e+003,3.645142e+000
1.915839e+003,4.072815e+000
1.916803e+003,5.328766e+000
1.917768e+003,5.918503e+000
1.918732e+003,5.860535e+000
1.919696e+003,5.333023e+000
1.920660e+003,3.876266e+000
1.921625e+003,3.521027e+000
1.922589e+003,5.532776e+000
1.923553e+003,7.237930e+000
1.924517e+003,7.316162e+000
1.925481e+003,6.415833e+000
1.926446e+003,4.342239e+000
1.927410e+003,1.998688e+000
1.928374e+003,1.254501e+000
1.929338e+003,2.069351e+000
1.930303e+003,2.710312e+000
1.931267e+003,2.924438e+000
1.932231e+003,2.845917e+000
1.933195e+003,1.565552e+000
1.934160e+003,9.427948e-001
1.935124e+003,3.356934e+000
1.936088e+003,6.314102e+000
1.937052e+003,6.625092e+000
1.938017e+003,5.158401e+000
1.938981e+003,4.152878e+000
1.939945e+003,4.014374e+000
1.940909e+003,4.023987e+000
1.941874e+003,3.816925e+000
1.942838e+003,3.523270e+000
1.943802e+003,3.310577e+000
1.944766e+003,3.528259e+000
1.945730e+003,4.965912e+000
1.946695e+003,7.258957e+000
1.947659e+003,7.740585e+000
1.948623e+003,6.214828e+000
1.949587e+003,4.700470e+000
1.950552e+003,3.207901e+000
1.951516e+003,2.864838e+000
1.952480e+003,4.647278e+000
1.953444e+003,6.321503e+000
1.954408e+003,5.725372e+000
1.955373e+003,4.660645e+000
1.956337e+003,6.651184e+000
1.957301e+003,1.045770e+001
1.958265e+003,1.091277e+001
1.959230e+003,7.394684e+000
1.960194e+003,5.041916e+000
1.961158e+003,4.739929e+000
1.962122e+003,5.058197e+000
1.963087e+003,6.234177e+000
1.964051e+003,7.266678e+000
1.965015e+003,7.849365e+000
1.965979e+003,7.952911e+000
1.966944e+003,6.844757e+000
1.967908e+003,5.432098e+000
1.968872e+003,5.634094e+000
1.969836e+003,7.346130e+000
1.970801e+003,8.729919e+000
1.971765e+003,8.995651e+000
1.972729e+003,8.691422e+000
1.973693e+003,8.204315e+000
1.974657e+003,7.604446e+000
1.975622e+003,6.527481e+000
1.976586e+003,5.519638e+000
1.977550e+003,6.857361e+000
1.978514e+003,9.933838e+000
1.979479e+003,1.067546e+001
1.980443e+003,8.613586e+000
1.981407e+003,7.040527e+000
1.982371e+003,7.226440e+000
1.983335e+003,7.807617e+000
1.984300e+003,7.717072e+000
1.985264e+003,7.411179e+000
1.986228e+003,7.776810e+000
1.987192e+003,8.448395e+000
1.988157e+003,7.350357e+000
1.989121e+003,3.701126e+000
1.990085e+003,2.619949e+000
1.991049e+003,5.671600e+000
1.992014e+003,8.236832e+000
1.992978e+003,9.791428e+000
1.993942e+003,1.064854e+001
1.994906e+003,1.080557e+001
1.995871e+003,1.044026e+001
1.996835e+003,8.827560e+000
1.997799e+003,7.338470e+000
1.998763e+003,8.553482e+000
1.999728e+003,1.171883e+001
