5.003444e+002,3.512038e+001
5.013087e+002,3.691266e+001
5.022729e+002,3.635127e+001
5.032371e+002,3.417758e+001
5.042014e+002,3.271086e+001
5.051656e+002,3.189265e+001
5.061298e+002,3.134047e+001
5.070941e+002,3.064439e+001
5.080583e+002,2.957249e+001
5.090225e+002,2.939339e+001
5.099868e+002,3.097545e+001
5.109510e+002,3.225693e+001
5.119152e+002,3.185872e+001
5.128795e+002,2.960478e+001
5.138437e+002,2.804665e+001
5.148079e+002,2.892439e+001
5.157722e+002,2.993979e+001
5.167364e+002,3.009949e+001
5.177006e+002,2.926398e+001
5.186649e+002,2.804158e+001
5.196291e+002,2.705171e+001
5.205933e+002,2.645384e+001
5.215576e+002,2.631578e+001
5.225218e+002,2.650710e+001
5.234860e+002,2.684735e+001
5.244503e+002,2.719455e+001
5.254145e+002,2.783231e+001
5.263787e+002,2.734978e+001
5.273430e+002,2.484663e+001
5.283072e+002,2.182933e+001
5.292714e+002,2.044862e+001
5.302357e+002,2.155954e+001
5.311999e+002,2.214246e+001
5.321641e+002,2.183980e+001
5.331284e+002,2.126488e+001
5.340926e+002,2.071538e+001
5.350568e+002,2.021149e+001
5.360211e+002,1.989000e+001
5.369853e+002,2.032143e+001
5.379495e+002,2.097726e+001
5.389138e+002,2.120554e+001
5.398780e+002,2.082156e+001
5.408422e+002,2.031198e+001
5.418065e+002,2.154028e+001
5.427707e+002,2.414722e+001
5.437349e+002,2.529512e+001
5.446992e+002,2.389131e+001
5.456634e+002,2.069760e+001
5.466276e+002,1.843581e+001
5.475919e+002,1.776280e+001
5.485561e+002,1.753674e+001
5.495203e+002,1.793826e+001
5.504846e+002,1.857544e+001
5.514488e+002,1.902499e+001
5.524130e+002,1.934628e+001
5.533773e+002,1.913197e+001
5.543415e+002,1.762346e+001
5.553057e+002,1.589107e+001
5.562700e+002,1.516013e+001
5.572342e+002,1.615062e+001
5.581984e+002,1.790547e+001
5.591627e+002,1.832170e+001
5.601269e+002,1.784837e+001
5.610911e+002,1.699126e+001
5.620554e+002,1.594180e+001
5.630196e+002,1.468529e+001
5.639838e+002,1.352480e+001
5.649481e+002,1.225330e+001
5.659123e+002,1.138066e+001
5.668765e+002,1.153172e+001
5.678408e+002,1.234158e+001
5.688050e+002,1.245615e+001
5.697692e+002,1.015311e+001
5.707335e+002,8.768585e+000
5.716977e+002,1.052663e+001
5.726619e+002,1.344679e+001
5.736262e+002,1.463359e+001
5.745904e+002,1.184807e+001
5.755546e+002,7.918991e+000
5.765189e+002,7.371399e+000
5.774831e+002,8.841431e+000
5.784473e+002,1.028543e+001
5.794116e+002,1.036496e+001
5.803758e+002,9.256882e+000
5.813400e+002,8.017654e+000
5.823043e+002,6.269501e+000
5.832685e+002,4.860611e+000
5.842327e+002,4.430206e+000
5.851970e+002,4.875717e+000
5.861612e+002,5.004196e+000
5.871254e+002,3.787613e+000
5.880897e+002,3.065048e+000
5.890539e+002,3.394135e+000
5.900181e+002,4.344757e+000
5.909824e+002,5.218262e+000
5.919466e+002,5.626648e+000
5.929108e+002,5.840439e+000
5.938751e+002,6.272354e+000
5.948393e+002,6.739105e+000
5.958035e+002,6.976410e+000
5.967678e+002,6.809326e+000
5.977320e+002,6.321045e+000
5.986962e+002,5.558868e+000
5.996605e+002,4.299255e+000
6.006247e+002,3.486450e+000
6.015889e+002,3.934601e+000
6.025532e+002,5.519867e+000
6.035174e+002,6.188797e+000
6.044816e+002,4.841614e+000
6.054459e+002,3.728333e+000
6.064101e+002,3.036057e+000
6.073743e+002,2.800705e+000
6.083386e+002,3.148392e+000
6.093028e+002,4.584091e+000
6.102670e+002,5.779510e+000
6.112313e+002,5.417389e+000
6.121955e+002,4.317673e+000
6.131597e+002,3.655014e+000
6.141240e+002,4.209305e+000
6.150882e+002,5.482254e+000
6.160524e+002,5.135040e+000
6.170167e+002,3.524582e+000
6.179809e+002,2.229309e+000
6.189451e+002,1.951340e+000
6.199094e+002,2.505005e+000
6.208736e+002,2.886627e+000
6.218378e+002,3.294891e+000
6.228021e+002,3.507538e+000
6.237663e+002,3.130356e+000
6.247305e+002,2.678436e+000
6.256948e+002,3.103134e+000
6.266590e+002,5.250488e+000
6.276232e+002,6.867966e+000
6.285875e+002,6.456268e+000
6.295517e+002,5.194885e+000
6.305159e+002,4.255402e+000
6.314802e+002,4.242004e+000
6.324444e+002,4.668472e+000
6.334086e+002,4.441055e+000
6.343729e+002,3.790863e+000
6.353371e+002,2.661057e+000
6.363013e+002,7.643433e-001
6.372656e+002,-1.364059e+000
6.382298e+002,-1.636749e+000
6.391940e+002,3.247894e+000
6.401583e+002,5.459061e+000
6.411225e+002,3.451981e+000
6.420867e+002,-2.523804e-001
6.430510e+002,-2.873062e+000
6.440152e+002,-3.706406e+000
6.449794e+002,-3.834152e+000
6.459437e+002,-3.407379e+000
6.469079e+002,-2.957153e+000
6.478721e+002,-2.876892e+000
6.488364e+002,-3.271744e+000
6.498006e+002,-3.906815e+000
6.507648e+002,-4.662903e+000
6.517291e+002,-5.369400e+000
6.526933e+002,-5.464523e+000
6.536575e+002,-4.836456e+000
6.546218e+002,-3.643234e+000
6.555860e+002,-2.136948e+000
6.565502e+002,2.349854e-003
6.575145e+002,1.704422e+000
6.584787e+002,3.443985e+000
6.594429e+002,4.481873e+000
6.604072e+002,3.776779e+000
6.613714e+002,9.482574e-001
6.623356e+002,-1.144638e+000
6.632999e+002,-5.066681e-001
6.642641e+002,5.004578e-001
6.652283e+002,7.415314e-001
6.661926e+002,2.061157e-001
6.671568e+002,-3.088074e-001
6.681210e+002,1.874542e-001
6.690853e+002,1.190750e+000
6.700495e+002,1.286423e+000
6.710137e+002,5.330963e-001
6.719780e+002,2.139282e-002
6.729422e+002,1.033737e+000
6.739064e+002,4.074203e+000
6.748707e+002,5.208145e+000
6.758349e+002,3.502731e+000
6.767991e+002,1.540756e+000
6.777634e+002,1.713257e-001
6.787276e+002,-4.663849e-001
6.796918e+002,-2.076263e-001
6.806561e+002,2.124817e+000
6.816203e+002,3.928360e+000
6.825845e+002,4.162048e+000
6.835488e+002,3.197678e+000
6.845130e+002,1.586655e+000
6.854772e+002,-3.500366e-001
6.864415e+002,-2.079834e+000
6.874057e+002,-2.664398e+000
6.883699e+002,-2.461227e+000
6.893342e+002,-1.849182e+000
6.902984e+002,-9.464111e-001
6.912626e+002,1.615753e-001
6.922269e+002,6.543427e-001
6.931911e+002,-2.121277e-001
6.941553e+002,-3.359833e-001
6.951196e+002,8.168030e-001
6.960838e+002,2.481659e+000
6.970480e+002,3.438782e+000
6.980123e+002,3.093170e+000
6.989765e+002,3.100082e+000
6.999407e+002,4.537140e+000
7.009050e+002,6.215424e+000
7.018692e+002,7.532303e+000
7.028334e+002,8.091934e+000
7.037977e+002,7.350494e+000
7.047619e+002,3.045410e+000
7.057261e+002,-2.537964e+000
7.066904e+002,-4.255661e+000
7.076546e+002,-1.285721e+000
7.086188e+002,3.368240e+000
7.095831e+002,4.872849e+000
7.105473e+002,1.656555e+000
7.115115e+002,-8.705139e-002
7.124758e+002,4.159393e-001
7.134400e+002,1.213638e+000
7.144042e+002,1.034821e+000
7.153685e+002,-9.704590e-002
7.163327e+002,-6.816559e-001
7.172969e+002,1.120087e+000
7.182612e+002,2.550095e+000
7.192254e+002,2.029694e+000
7.201896e+002,1.789551e-001
7.211539e+002,-1.519897e+000
7.221181e+002,-1.802353e+000
7.230823e+002,-1.195892e+000
7.240466e+002,-1.436325e+000
7.250108e+002,-2.171280e+000
7.259750e+002,-2.063293e+000
7.269393e+002,-1.607208e-001
7.279035e+002,2.972046e+000
7.288677e+002,3.588364e+000
7.298320e+002,-2.461380e+000
7.307962e+002,-5.327316e+000
7.317604e+002,-2.007523e+000
7.327247e+002,3.947449e+000
7.336889e+002,7.574905e+000
7.346531e+002,7.158844e+000
7.356174e+002,5.162048e+000
7.365816e+002,2.841736e+000
7.375458e+002,3.462677e-001
7.385101e+002,-2.933899e+000
7.394743e+002,-6.706070e+000
7.404385e+002,-9.359573e+000
7.414028e+002,-7.950760e+000
7.423670e+002,-3.512543e+000
7.433312e+002,-2.871246e-001
7.442955e+002,1.651901e+000
7.452597e+002,2.508499e+000
7.462239e+002,2.188370e+000
7.471882e+002,1.396942e-001
7.481524e+002,-8.878021e-001
7.491166e+002,-2.861176e-001
7.500809e+002,1.307983e-001
7.510451e+002,-4.450836e-001
7.520093e+002,-1.791779e+000
7.529736e+002,-2.989761e+000
7.539378e+002,-3.549408e+000
7.549020e+002,-3.614609e+000
7.558663e+002,-3.200073e+000
7.568306e+002,-2.516296e+000
7.577948e+002,-1.862656e+000
7.587590e+002,-1.453949e+000
7.597233e+002,-1.256073e+000
7.606875e+002,-9.927216e-001
7.616517e+002,-5.864105e-001
7.626160e+002,1.446075e-001
7.635802e+002,1.435745e+000
7.645444e+002,2.933701e+000
7.655087e+002,3.772766e+000
7.664729e+002,3.324661e+000
7.674371e+002,3.539215e+000
7.684014e+002,5.308731e+000
7.693656e+002,6.943939e+000
7.703298e+002,7.228256e+000
7.712941e+002,6.124115e+000
7.722583e+002,4.928986e+000
7.732225e+002,5.000504e+000
7.741868e+002,4.874908e+000
7.751510e+002,2.859833e+000
7.761152e+002,-3.429413e-001
7.770795e+002,-3.066254e+000
7.780437e+002,-3.851624e+000
7.790079e+002,-2.888458e+000
7.799722e+002,-1.051895e+000
7.809364e+002,1.857224e+000
7.819006e+002,3.972717e+000
7.828649e+002,4.557709e+000
7.838291e+002,3.927979e+000
7.847933e+002,2.818100e+000
7.857576e+002,2.820435e-001
7.867218e+002,-1.339462e+000
7.876860e+002,-9.720764e-001
7.886503e+002,5.073547e-002
7.896145e+002,5.654602e-001
7.905787e+002,2.835999e-001
7.915430e+002,1.910400e-002
7.925072e+002,6.562500e-001
7.934714e+002,1.609619e+000
7.944357e+002,2.722702e+000
7.953999e+002,3.836243e+000
7.963641e+002,4.229202e+000
7.973284e+002,2.956375e+000
7.982926e+002,-1.632233e-001
7.992568e+002,-1.162537e+000
8.002211e+002,6.955261e-001
8.011853e+002,2.273117e+000
8.021495e+002,2.512024e+000
8.031138e+002,1.861862e+000
8.040780e+002,1.381332e+000
8.050422e+002,8.114471e-001
8.060065e+002,9.246826e-001
8.069707e+002,2.539810e+000
8.079349e+002,4.374664e+000
8.088992e+002,5.148987e+000
8.098634e+002,4.506546e+000
8.108276e+002,3.353104e+000
8.117919e+002,2.649368e+000
8.127561e+002,2.242233e+000
8.137203e+002,2.436340e+000
8.146846e+002,3.350327e+000
8.156488e+002,4.193008e+000
8.166130e+002,3.814789e+000
8.175773e+002,1.816895e+000
8.185415e+002,8.205261e-001
8.195057e+002,1.274017e+000
8.204700e+002,1.750778e+000
8.214342e+002,1.511124e+000
8.223984e+002,9.456024e-001
8.233627e+002,1.262222e+000
8.243269e+002,3.489410e+000
8.252911e+002,5.493347e+000
8.262554e+002,6.026367e+000
8.272196e+002,5.767624e+000
8.281838e+002,5.138962e+000
8.291481e+002,4.444107e+000
8.301123e+002,4.077377e+000
8.310765e+002,4.984055e+000
8.320408e+002,6.916641e+000
8.330050e+002,7.384750e+000
8.339692e+002,5.966461e+000
8.349335e+002,4.081757e+000
8.358977e+002,3.291367e+000
8.368619e+002,3.863861e+000
8.378262e+002,3.985611e+000
8.387904e+002,3.008621e+000
8.397546e+002,2.079666e+000
8.407189e+002,1.283600e+000
8.416831e+002,7.930908e-001
8.426473e+002,9.684601e-001
8.436116e+002,2.143921e+000
8.445758e+002,3.350037e+000
8.455400e+002,2.937500e+000
8.465043e+002,2.028122e+000
8.474685e+002,2.401474e+000
8.484327e+002,4.426132e+000
8.493970e+002,6.720673e+000
8.503612e+002,6.773285e+000
8.513254e+002,4.018631e+000
8.522897e+002,2.498108e+000
8.532539e+002,2.602905e+000
8.542181e+002,3.096237e+000
8.551824e+002,3.365814e+000
8.561466e+002,3.574005e+000
8.571108e+002,4.208313e+000
8.580751e+002,5.422882e+000
8.590393e+002,6.469345e+000
8.600035e+002,7.134521e+000
8.609678e+002,7.689590e+000
8.619320e+002,8.459320e+000
8.628962e+002,9.543335e+000
8.638605e+002,1.067665e+001
8.648247e+002,1.156430e+001
8.657889e+002,1.213029e+001
8.667532e+002,1.202426e+001
8.677174e+002,1.120522e+001
8.686816e+002,1.054056e+001
8.696459e+002,1.112085e+001
8.706101e+002,1.320282e+001
8.715743e+002,1.505434e+001
8.725386e+002,1.729608e+001
8.735028e+002,1.861092e+001
8.744670e+002,1.783289e+001
8.754313e+002,1.592458e+001
8.763955e+002,1.475348e+001
8.773597e+002,1.503059e+001
8.783240e+002,1.597682e+001
8.792882e+002,1.757056e+001
8.802524e+002,1.903821e+001
8.812167e+002,1.938776e+001
8.821809e+002,1.867097e+001
8.831451e+002,1.805057e+001
8.841094e+002,1.915167e+001
8.850736e+002,2.189665e+001
8.860378e+002,2.264851e+001
8.870021e+002,2.078941e+001
8.879663e+002,1.915192e+001
8.889305e+002,1.957951e+001
8.898948e+002,2.156230e+001
8.908590e+002,2.261092e+001
8.918232e+002,2.200290e+001
8.927875e+002,2.154520e+001
8.937517e+002,2.177661e+001
8.947159e+002,2.219374e+001
8.956802e+002,2.222141e+001
8.966444e+002,2.173396e+001
8.976086e+002,2.119168e+001
8.985729e+002,2.113933e+001
8.995371e+002,2.153043e+001
9.005013e+002,2.200499e+001
9.014656e+002,2.265437e+001
9.024298e+002,2.385994e+001
9.033940e+002,2.595230e+001
9.043583e+002,2.859203e+001
9.053225e+002,2.978984e+001
9.062867e+002,2.821059e+001
9.072510e+002,2.660411e+001
9.082152e+002,2.472354e+001
9.091794e+002,2.330238e+001
9.101437e+002,2.322913e+001
9.111079e+002,2.464722e+001
9.120721e+002,2.617711e+001
9.130364e+002,2.745392e+001
9.140006e+002,2.796439e+001
9.149648e+002,2.701237e+001
9.159291e+002,2.522487e+001
9.168933e+002,2.357298e+001
9.178575e+002,2.270412e+001
9.188218e+002,2.261749e+001
9.197860e+002,2.386337e+001
9.207502e+002,2.645097e+001
9.217145e+002,2.820129e+001
9.226787e+002,2.894322e+001
9.236429e+002,2.873532e+001
9.246072e+002,2.712909e+001
9.255714e+002,2.355896e+001
9.265356e+002,2.111195e+001
9.274999e+002,2.065070e+001
9.284641e+002,2.089240e+001
9.294283e+002,2.212563e+001
9.303926e+002,2.368138e+001
9.313568e+002,2.449611e+001
9.323210e+002,2.398840e+001
9.332853e+002,2.285062e+001
9.342495e+002,2.220508e+001
9.352137e+002,2.165604e+001
9.361780e+002,2.052534e+001
9.371422e+002,1.876190e+001
9.381064e+002,1.701711e+001
9.390707e+002,1.604575e+001
9.400349e+002,1.577605e+001
9.409991e+002,1.600146e+001
9.419634e+002,1.723622e+001
9.429276e+002,1.818344e+001
9.438918e+002,1.822440e+001
9.448561e+002,1.790112e+001
9.458203e+002,1.837613e+001
9.467845e+002,2.026997e+001
9.477488e+002,2.162807e+001
9.487130e+002,1.965825e+001
9.496772e+002,1.742799e+001
9.506415e+002,1.819754e+001
9.516057e+002,2.144765e+001
9.525699e+002,2.360002e+001
9.535342e+002,2.104904e+001
9.544984e+002,1.469102e+001
9.554626e+002,1.322955e+001
9.564269e+002,1.769171e+001
9.573911e+002,2.149911e+001
9.583553e+002,2.281729e+001
9.593196e+002,2.246861e+001
9.602838e+002,2.154710e+001
9.612480e+002,1.983096e+001
9.622123e+002,1.850963e+001
9.631765e+002,1.791400e+001
9.641407e+002,1.784839e+001
9.651050e+002,1.881439e+001
9.660692e+002,2.010066e+001
9.670334e+002,2.038680e+001
9.679977e+002,1.889494e+001
9.689619e+002,1.658345e+001
9.699261e+002,1.487102e+001
9.708904e+002,1.372734e+001
9.718546e+002,1.377831e+001
9.728188e+002,1.525049e+001
9.737831e+002,1.739639e+001
9.747473e+002,1.946143e+001
9.757115e+002,2.160852e+001
9.766758e+002,2.294682e+001
9.776400e+002,2.258690e+001
9.786042e+002,2.268710e+001
9.795685e+002,2.440981e+001
9.805327e+002,2.644220e+001
9.814969e+002,2.694969e+001
9.824612e+002,2.538448e+001
9.834254e+002,2.334158e+001
9.843896e+002,2.205582e+001
9.853539e+002,2.113080e+001
9.863181e+002,2.049030e+001
9.872823e+002,1.986414e+001
9.882466e+002,1.847159e+001
9.892108e+002,1.571013e+001
9.901750e+002,1.206171e+001
9.911393e+002,1.010689e+001
9.921035e+002,1.055254e+001
9.930677e+002,1.111299e+001
9.940320e+002,1.188446e+001
9.949962e+002,1.282306e+001
9.959604e+002,1.405211e+001
9.969247e+002,1.555351e+001
9.978889e+002,1.660982e+001
9.988531e+002,1.626180e+001
9.998174e+002,1.580954e+001
1.000782e+003,1.606602e+001
1.001746e+003,1.691251e+001
1.002710e+003,1.843118e+001
1.003674e+003,2.044379e+001
1.004639e+003,2.193210e+001
1.005603e+003,2.087280e+001
1.006567e+003,1.692940e+001
1.007531e+003,1.556801e+001
1.008495e+003,1.773082e+001
1.009460e+003,2.043591e+001
1.010424e+003,2.255344e+001
1.011388e+003,2.391463e+001
1.012352e+003,2.335835e+001
1.013317e+003,1.907126e+001
1.014281e+003,1.619159e+001
1.015245e+003,1.720430e+001
1.016209e+003,1.898619e+001
1.017174e+003,1.963480e+001
1.018138e+003,1.880034e+001
1.019102e+003,1.686816e+001
1.020066e+003,1.400691e+001
1.021031e+003,1.090756e+001
1.021995e+003,9.627579e+000
1.022959e+003,9.684509e+000
1.023923e+003,9.492920e+000
1.024887e+003,8.428864e+000
1.025852e+003,7.025421e+000
1.026816e+003,6.228546e+000
1.027780e+003,6.299164e+000
1.028744e+003,6.134720e+000
1.029709e+003,5.499451e+000
1.030673e+003,4.755280e+000
1.031637e+003,3.523010e+000
1.032601e+003,2.380707e+000
1.033566e+003,2.505402e+000
1.034530e+003,4.268753e+000
1.035494e+003,5.826736e+000
1.036458e+003,4.664856e+000
1.037422e+003,2.152817e+000
1.038387e+003,6.140442e-001
1.039351e+003,7.545471e-002
1.040315e+003,-2.029572e-001
1.041279e+003,-7.519073e-001
1.042244e+003,-1.390030e+000
1.043208e+003,-1.412048e+000
1.044172e+003,-7.236633e-001
1.045136e+003,3.229980e-001
1.046101e+003,2.414047e+000
1.047065e+003,4.247284e+000
1.048029e+003,4.838943e+000
1.048993e+003,4.353912e+000
1.049958e+003,3.741089e+000
1.050922e+003,3.531860e+000
1.051886e+003,3.237396e+000
1.052850e+003,1.778015e+000
1.053814e+003,1.534882e-001
1.054779e+003,-7.316589e-002
1.055743e+003,1.282013e+000
1.056707e+003,2.940948e+000
1.057671e+003,3.339249e+000
1.058636e+003,2.445984e+000
1.059600e+003,2.352966e+000
1.060564e+003,4.234634e+000
1.061528e+003,5.433105e+000
1.062493e+003,5.039856e+000
1.063457e+003,3.968521e+000
1.064421e+003,3.228790e+000
1.065385e+003,2.983047e+000
1.066349e+003,2.871750e+000
1.067314e+003,2.732925e+000
1.068278e+003,2.677795e+000
1.069242e+003,3.211594e+000
1.070206e+003,3.793015e+000
1.071171e+003,3.065247e+000
1.072135e+003,6.748505e-001
1.073099e+003,-1.633865e+000
1.074063e+003,-6.913147e-001
1.075028e+003,4.005310e+000
1.075992e+003,5.979279e+000
1.076956e+003,3.987595e+000
1.077920e+003,1.775192e+000
1.078885e+003,6.959381e-001
1.079849e+003,4.214325e-001
1.080813e+003,1.689758e-001
1.081777e+003,-2.819061e-001
1.082741e+003,3.045654e-002
1.083706e+003,2.227386e+000
1.084670e+003,4.598557e+000
1.085634e+003,6.637726e+000
1.086598e+003,8.034302e+000
1.087563e+003,8.259079e+000
1.088527e+003,7.157593e+000
1.089491e+003,5.638351e+000
1.090455e+003,5.465530e+000
1.091420e+003,6.750610e+000
1.092384e+003,6.421570e+000
1.093348e+003,3.520599e+000
1.094312e+003,6.351624e-001
1.095276e+003,-4.692078e-001
1.096241e+003,-2.967682e-001
1.097205e+003,-5.950317e-001
1.098169e+003,-1.873795e+000
1.099133e+003,-2.946976e+000
1.100098e+003,-3.551651e+000
1.101062e+003,-3.592163e+000
1.102026e+003,-2.728714e+000
1.102990e+003,-1.249023e+000
1.103955e+003,4.548340e-001
1.104919e+003,2.099014e+000
1.105883e+003,3.080902e+000
1.106847e+003,1.737259e+000
1.107812e+003,-1.933975e+000
1.108776e+003,-3.304153e+000
1.109740e+003,-1.257797e+000
1.110704e+003,1.178665e+000
1.111668e+003,1.544006e+000
1.112633e+003,5.414124e-001
1.113597e+003,1.267975e+000
1.114561e+003,5.183670e+000
1.115525e+003,7.816803e+000
1.116490e+003,7.724457e+000
1.117454e+003,6.197021e+000
1.118418e+003,2.804657e+000
1.119382e+003,-1.100922e+000
1.120347e+003,-2.922226e+000
1.121311e+003,-1.154755e+000
1.122275e+003,2.578384e+000
1.123239e+003,5.782639e+000
1.124203e+003,8.374359e+000
1.125168e+003,8.512527e+000
1.126132e+003,5.207809e+000
1.127096e+003,1.718124e+000
1.128060e+003,2.689056e-001
1.129025e+003,5.993652e-001
1.129989e+003,1.818680e+000
1.130953e+003,4.402527e+000
1.131917e+003,6.576141e+000
1.132882e+003,8.288330e+000
1.133846e+003,9.216949e+000
1.134810e+003,8.385468e+000
1.135774e+003,6.706528e+000
1.136739e+003,6.189011e+000
1.137703e+003,7.935638e+000
1.138667e+003,1.072627e+001
1.139631e+003,1.249921e+001
1.140595e+003,1.332864e+001
1.141560e+003,1.433221e+001
1.142524e+003,1.552510e+001
1.143488e+003,1.729028e+001
1.144452e+003,1.981078e+001
1.145417e+003,2.307281e+001
1.146381e+003,2.710211e+001
1.147345e+003,3.210767e+001
1.148309e+003,3.725487e+001
1.149274e+003,4.342001e+001
1.150238e+003,4.869136e+001
1.151202e+003,5.092741e+001
1.152166e+003,5.190668e+001
1.153130e+003,5.519821e+001
1.154095e+003,6.220166e+001
1.155059e+003,7.003445e+001
1.156023e+003,7.489322e+001
1.156987e+003,7.680432e+001
1.157952e+003,7.738551e+001
1.158916e+003,7.672903e+001
1.159880e+003,7.544742e+001
1.160844e+003,7.412096e+001
1.161809e+003,7.195193e+001
1.162773e+003,6.697781e+001
1.163737e+003,5.837816e+001
1.164701e+003,5.073546e+001
1.165666e+003,4.602284e+001
1.166630e+003,4.179822e+001
1.167594e+003,3.688268e+001
1.168558e+003,3.200838e+001
1.169522e+003,2.834422e+001
1.170487e+003,2.618640e+001
1.171451e+003,2.483507e+001
1.172415e+003,2.351186e+001
1.173379e+003,2.225566e+001
1.174344e+003,2.131218e+001
1.175308e+003,2.063557e+001
1.176272e+003,2.067191e+001
1.177236e+003,2.243748e+001
1.178201e+003,2.438707e+001
1.179165e+003,2.423814e+001
1.180129e+003,2.189360e+001
1.181093e+003,1.975047e+001
1.182057e+003,1.794736e+001
1.183022e+003,1.710010e+001
1.183986e+003,1.842279e+001
1.184950e+003,1.999843e+001
1.185914e+003,1.978836e+001
1.186879e+003,1.785962e+001
1.187843e+003,1.580760e+001
1.188807e+003,1.488977e+001
1.189771e+003,1.484348e+001
1.190736e+003,1.507382e+001
1.191700e+003,1.559012e+001
1.192664e+003,1.626115e+001
1.193628e+003,1.765659e+001
1.194593e+003,1.857283e+001
1.195557e+003,1.784100e+001
1.196521e+003,1.588628e+001
1.197485e+003,1.426804e+001
1.198449e+003,1.332603e+001
1.199414e+003,1.243863e+001
1.200378e+003,1.134297e+001
1.201342e+003,1.020918e+001
1.202306e+003,8.786118e+000
1.203271e+003,7.419647e+000
1.204235e+003,7.097153e+000
1.205199e+003,8.160477e+000
1.206163e+003,9.257095e+000
1.207128e+003,7.933807e+000
1.208092e+003,4.005814e+000
1.209056e+003,2.328110e+000
1.210020e+003,3.906418e+000
1.210984e+003,5.283798e+000
1.211949e+003,5.684708e+000
1.212913e+003,5.196091e+000
1.213877e+003,3.798309e+000
1.214841e+003,1.551331e+000
1.215806e+003,-9.579926e-001
1.216770e+003,-4.136169e+000
1.217734e+003,-6.521988e+000
1.218698e+003,-6.722946e+000
1.219663e+003,-6.038132e+000
1.220627e+003,-5.885864e+000
1.221591e+003,-6.612000e+000
1.222555e+003,-8.073776e+000
1.223520e+003,-1.018254e+001
1.224484e+003,-1.248904e+001
1.225448e+003,-1.299200e+001
1.226412e+003,-1.028970e+001
1.227376e+003,-8.959015e+000
1.228341e+003,-1.021744e+001
1.229305e+003,-1.148830e+001
1.230269e+003,-1.129721e+001
1.231233e+003,-1.016154e+001
1.232198e+003,-8.982254e+000
1.233162e+003,-7.898834e+000
1.234126e+003,-7.588593e+000
1.235090e+003,-9.093918e+000
1.236055e+003,-1.125572e+001
1.237019e+003,-1.323187e+001
1.237983e+003,-1.477460e+001
1.238947e+003,-1.503087e+001
1.239911e+003,-1.363383e+001
1.240876e+003,-1.192105e+001
1.241840e+003,-1.205957e+001
1.242804e+003,-1.420229e+001
1.243768e+003,-1.527037e+001
1.244733e+003,-1.447987e+001
1.245697e+003,-1.354137e+001
1.246661e+003,-1.257808e+001
1.247625e+003,-1.166010e+001
1.248590e+003,-1.072269e+001
1.249554e+003,-9.766190e+000
1.250518e+003,-8.878693e+000
1.251482e+003,-8.129089e+000
1.252447e+003,-7.646759e+000
1.253411e+003,-7.588852e+000
1.254375e+003,-7.794357e+000
1.255339e+003,-8.087570e+000
1.256303e+003,-8.401093e+000
1.257268e+003,-8.419144e+000
1.258232e+003,-8.006485e+000
1.259196e+003,-7.336105e+000
1.260160e+003,-6.460175e+000
1.261125e+003,-5.152374e+000
1.262089e+003,-4.617493e+000
1.263053e+003,-6.209473e+000
1.264017e+003,-7.210205e+000
1.264982e+003,-6.507156e+000
1.265946e+003,-5.228683e+000
1.266910e+003,-4.454254e+000
1.267874e+003,-4.222992e+000
1.268839e+003,-3.771774e+000
1.269803e+003,-2.579773e+000
1.270767e+003,-1.341217e+000
1.271731e+003,-1.486725e+000
1.272695e+003,-2.969711e+000
1.273660e+003,-4.316956e+000
1.274624e+003,-5.672836e+000
1.275588e+003,-6.767502e+000
1.276552e+003,-7.177963e+000
1.277517e+003,-7.198395e+000
1.278481e+003,-7.615784e+000
1.279445e+003,-8.564667e+000
1.280409e+003,-8.941284e+000
1.281374e+003,-7.889496e+000
1.282338e+003,-6.826797e+000
1.283302e+003,-6.334473e+000
1.284266e+003,-6.342743e+000
1.285230e+003,-6.923721e+000
1.286195e+003,-7.944611e+000
1.287159e+003,-8.998093e+000
1.288123e+003,-9.712952e+000
1.289087e+003,-1.012045e+001
1.290052e+003,-1.048982e+001
1.291016e+003,-1.103058e+001
1.291980e+003,-1.090623e+001
1.292944e+003,-9.214417e+000
1.293909e+003,-8.215973e+000
1.294873e+003,-9.484894e+000
1.295837e+003,-1.142534e+001
1.296801e+003,-1.158888e+001
1.297766e+003,-9.790634e+000
1.298730e+003,-8.305222e+000
1.299694e+003,-8.398132e+000
1.300658e+003,-9.243057e+000
1.301622e+003,-1.024239e+001
1.302587e+003,-1.112402e+001
1.303551e+003,-1.133098e+001
1.304515e+003,-1.080190e+001
1.305479e+003,-1.018684e+001
1.306444e+003,-1.004474e+001
1.307408e+003,-1.027869e+001
1.308372e+003,-1.051753e+001
1.309336e+003,-1.094803e+001
1.310301e+003,-1.080406e+001
1.311265e+003,-9.250931e+000
1.312229e+003,-8.030228e+000
1.313193e+003,-7.810516e+000
1.314157e+003,-8.106689e+000
1.315122e+003,-8.460373e+000
1.316086e+003,-8.780960e+000
1.317050e+003,-9.097916e+000
1.318014e+003,-9.372711e+000
1.318979e+003,-9.845184e+000
1.319943e+003,-1.141966e+001
1.320907e+003,-1.373091e+001
1.321871e+003,-1.387202e+001
1.322836e+003,-1.115761e+001
1.323800e+003,-8.702362e+000
1.324764e+003,-8.302124e+000
1.325728e+003,-9.075531e+000
1.326693e+003,-9.727142e+000
1.327657e+003,-1.026514e+001
1.328621e+003,-1.046051e+001
1.329585e+003,-1.010501e+001
1.330549e+003,-9.158401e+000
1.331514e+003,-7.172134e+000
1.332478e+003,-5.335846e+000
1.333442e+003,-4.727646e+000
1.334406e+003,-5.295135e+000
1.335371e+003,-6.622177e+000
1.336335e+003,-8.398773e+000
1.337299e+003,-1.000246e+001
1.338263e+003,-1.020772e+001
1.339228e+003,-8.786957e+000
1.340192e+003,-8.083115e+000
1.341156e+003,-9.522964e+000
1.342120e+003,-9.552200e+000
1.343084e+003,-5.890549e+000
1.344049e+003,-2.373047e+000
1.345013e+003,-2.567993e+000
1.345977e+003,-5.547363e+000
1.346941e+003,-8.073074e+000
1.347906e+003,-9.022797e+000
1.348870e+003,-8.982071e+000
1.349834e+003,-8.045242e+000
1.350798e+003,-6.873642e+000
1.351763e+003,-6.833954e+000
1.352727e+003,-7.675812e+000
1.353691e+003,-7.971207e+000
1.354655e+003,-7.093094e+000
1.355620e+003,-5.859406e+000
1.356584e+003,-4.928513e+000
1.357548e+003,-4.355240e+000
1.358512e+003,-5.157166e+000
1.359476e+003,-8.422638e+000
1.360441e+003,-1.057906e+001
1.361405e+003,-1.005508e+001
1.362369e+003,-8.891495e+000
1.363333e+003,-7.355026e+000
1.364298e+003,-6.138565e+000
1.365262e+003,-6.453506e+000
1.366226e+003,-8.218414e+000
1.367190e+003,-9.586014e+000
1.368155e+003,-8.876663e+000
1.369119e+003,-7.013275e+000
1.370083e+003,-6.999802e+000
1.371047e+003,-9.634598e+000
1.372011e+003,-1.042288e+001
1.372976e+003,-7.848312e+000
1.373940e+003,-5.695129e+000
1.374904e+003,-5.576248e+000
1.375868e+003,-6.414383e+000
1.376833e+003,-7.001389e+000
1.377797e+003,-7.220291e+000
1.378761e+003,-7.419235e+000
1.379725e+003,-7.839844e+000
1.380690e+003,-7.890564e+000
1.381654e+003,-6.296143e+000
1.382618e+003,-4.246429e+000
1.383582e+003,-3.583710e+000
1.384547e+003,-4.241409e+000
1.385511e+003,-4.898300e+000
1.386475e+003,-4.984192e+000
1.387439e+003,-4.591614e+000
1.388403e+003,-3.420517e+000
1.389368e+003,-1.487610e+000
1.390332e+003,-1.374908e+000
1.391296e+003,-4.515472e+000
1.392260e+003,-6.595428e+000
1.393225e+003,-5.960068e+000
1.394189e+003,-4.911758e+000
1.395153e+003,-4.639862e+000
1.396117e+003,-4.862701e+000
1.397082e+003,-5.101532e+000
1.398046e+003,-5.086441e+000
1.399010e+003,-4.434097e+000
1.399974e+003,-2.788528e+000
1.400938e+003,-9.169769e-001
1.401903e+003,-1.104019e+000
1.402867e+003,-3.889801e+000
1.403831e+003,-5.397095e+000
1.404795e+003,-5.553528e+000
1.405760e+003,-4.830490e+000
1.406724e+003,-2.476212e+000
1.407688e+003,-2.250671e-001
1.408652e+003,-2.898712e-001
1.409617e+003,-2.320313e+000
1.410581e+003,-3.996490e+000
1.411545e+003,-4.401077e+000
1.412509e+003,-4.301422e+000
1.413474e+003,-4.329803e+000
1.414438e+003,-4.504501e+000
1.415402e+003,-4.606201e+000
1.416366e+003,-4.623642e+000
1.417330e+003,-5.043594e+000
1.418295e+003,-6.255646e+000
1.419259e+003,-7.164124e+000
1.420223e+003,-6.023895e+000
1.421187e+003,-3.371414e+000
1.422152e+003,-2.446289e+000
1.423116e+003,-3.794312e+000
1.424080e+003,-4.986618e+000
1.425044e+003,-5.513519e+000
1.426009e+003,-5.749756e+000
1.426973e+003,-5.580948e+000
1.427937e+003,-5.363480e+000
1.428901e+003,-5.795670e+000
1.429865e+003,-6.599319e+000
1.430830e+003,-6.290237e+000
1.431794e+003,-3.979889e+000
1.432758e+003,-1.349640e+000
1.433722e+003,-1.785126e+000
1.434687e+003,-5.549118e+000
1.435651e+003,-7.365494e+000
1.436615e+003,-6.885010e+000
1.437579e+003,-5.517471e+000
1.438544e+003,-2.289627e+000
1.439508e+003,7.545776e-001
1.440472e+003,2.339035e+000
1.441436e+003,2.822021e+000
1.442401e+003,2.850510e+000
1.443365e+003,2.633362e+000
1.444329e+003,2.359497e+000
1.445293e+003,2.197296e+000
1.446257e+003,2.084091e+000
1.447222e+003,1.818085e+000
1.448186e+003,1.429077e+000
1.449150e+003,1.174957e+000
1.450114e+003,1.080322e+000
1.451079e+003,9.924164e-001
1.452043e+003,9.459381e-001
1.453007e+003,8.961334e-001
1.453971e+003,6.485596e-001
1.454936e+003,2.173767e-001
1.455900e+003,-5.674744e-002
1.456864e+003,-9.849548e-002
1.457828e+003,1.762085e-001
1.458792e+003,1.404404e+000
1.459757e+003,2.315140e+000
1.460721e+003,1.399536e+000
1.461685e+003,-5.040436e-001
1.462649e+003,-1.553116e+000
1.463614e+003,-1.281265e+000
1.464578e+003,-7.557068e-001
1.465542e+003,-9.359131e-001
1.466506e+003,-1.623627e+000
1.467471e+003,-2.235504e+000
1.468435e+003,-2.790482e+000
1.469399e+003,-2.695633e+000
1.470363e+003,-1.235397e+000
1.471328e+003,-3.015442e-001
1.472292e+003,-7.962799e-001
1.473256e+003,-1.632141e+000
1.474220e+003,-2.265854e+000
1.475184e+003,-2.356644e+000
1.476149e+003,-1.321381e+000
1.477113e+003,7.450409e-001
1.478077e+003,2.635925e+000
1.479041e+003,3.233780e+000
1.480006e+003,2.915329e+000
1.480970e+003,2.745163e+000
1.481934e+003,2.778702e+000
1.482898e+003,2.305161e+000
1.483863e+003,4.810028e-001
1.484827e+003,-6.432953e-001
1.485791e+003,1.430054e-001
1.486755e+003,1.408081e+000
1.487719e+003,1.648880e+000
1.488684e+003,1.166107e+000
1.489648e+003,1.076691e+000
1.490612e+003,1.800201e+000
1.491576e+003,3.395447e+000
1.492541e+003,6.169403e+000
1.493505e+003,9.314758e+000
1.494469e+003,1.104718e+001
1.495433e+003,1.146739e+001
1.496398e+003,1.145616e+001
1.497362e+003,1.107565e+001
1.498326e+003,1.083466e+001
1.499290e+003,1.052443e+001
1.500255e+003,1.080675e+001
1.501219e+003,1.313618e+001
1.502183e+003,1.701926e+001
1.503147e+003,1.935989e+001
1.504111e+003,1.901807e+001
1.505076e+003,1.960089e+001
1.506040e+003,2.438541e+001
1.507004e+003,2.979182e+001
1.507968e+003,3.121220e+001
1.508933e+003,3.084799e+001
1.509897e+003,3.370226e+001
1.510861e+003,4.067691e+001
1.511825e+003,4.792950e+001
1.512790e+003,5.260548e+001
1.513754e+003,5.598369e+001
1.514718e+003,6.038721e+001
1.515682e+003,6.573756e+001
1.516646e+003,7.240633e+001
1.517611e+003,8.132832e+001
1.518575e+003,8.963393e+001
1.519539e+003,9.659097e+001
1.520503e+003,1.027067e+002
1.521468e+003,1.086535e+002
1.522432e+003,1.136328e+002
1.523396e+003,1.163755e+002
1.524360e+003,1.168936e+002
1.525325e+003,1.165049e+002
1.526289e+003,1.161014e+002
1.527253e+003,1.148794e+002
1.528217e+003,1.111845e+002
1.529182e+003,1.050545e+002
1.530146e+003,9.953967e+001
1.531110e+003,9.572939e+001
1.532074e+003,9.026379e+001
1.533039e+003,8.185040e+001
1.534003e+003,7.277077e+001
1.534967e+003,6.402184e+001
1.535931e+003,5.551907e+001
1.536896e+003,4.658983e+001
1.537860e+003,3.766951e+001
1.538824e+003,2.990938e+001
1.539788e+003,2.390179e+001
1.540752e+003,1.970987e+001
1.541717e+003,1.759151e+001
1.542681e+003,1.722772e+001
1.543645e+003,1.621651e+001
1.544609e+003,1.419426e+001
1.545573e+003,1.269781e+001
1.546538e+003,1.267195e+001
1.547502e+003,1.167336e+001
1.548466e+003,7.076157e+000
1.549430e+003,2.702927e+000
1.550395e+003,3.248917e+000
1.551359e+003,7.338913e+000
1.552323e+003,1.025833e+001
1.553287e+003,1.033960e+001
1.554252e+003,9.053513e+000
1.555216e+003,7.470001e+000
1.556180e+003,5.924530e+000
1.557144e+003,5.443069e+000
1.558109e+003,6.097137e+000
1.559073e+003,5.470139e+000
1.560037e+003,2.095184e+000
1.561001e+003,1.973877e-001
1.561966e+003,2.859070e+000
1.562930e+003,6.204086e+000
1.563894e+003,6.138214e+000
1.564858e+003,3.915268e+000
1.565823e+003,3.198242e+000
1.566787e+003,4.601501e+000
1.567751e+003,5.615128e+000
1.568715e+003,4.755447e+000
1.569679e+003,3.285645e+000
1.570644e+003,2.625397e+000
1.571608e+003,2.563339e+000
1.572572e+003,2.423233e+000
1.573536e+003,2.220474e+000
1.574500e+003,3.071259e+000
1.575465e+003,6.279831e+000
1.576429e+003,9.094833e+000
1.577393e+003,8.693237e+000
1.578357e+003,6.535385e+000
1.579322e+003,5.557495e+000
1.580286e+003,5.917694e+000
1.581250e+003,6.163925e+000
1.582214e+003,5.736328e+000
1.583179e+003,5.547562e+000
1.584143e+003,6.253845e+000
1.585107e+003,7.515320e+000
1.586071e+003,9.689667e+000
1.587036e+003,1.214238e+001
1.588000e+003,1.217296e+001
1.588964e+003,8.982407e+000
1.589928e+003,5.955826e+000
1.590893e+003,5.439285e+000
1.591857e+003,6.267105e+000
1.592821e+003,6.805252e+000
1.593785e+003,7.145096e+000
1.594750e+003,7.830093e+000
1.595714e+003,8.991196e+000
1.596678e+003,9.752319e+000
1.597642e+003,9.257187e+000
1.598606e+003,9.042114e+000
1.599571e+003,1.085699e+001
1.600535e+003,1.339670e+001
1.601499e+003,1.538031e+001
1.602463e+003,1.645592e+001
1.603427e+003,1.554576e+001
1.604392e+003,1.191969e+001
1.605356e+003,8.622070e+000
1.606320e+003,9.263870e+000
1.607284e+003,1.244310e+001
1.608249e+003,1.435066e+001
1.609213e+003,1.496951e+001
1.610177e+003,1.428171e+001
1.611141e+003,1.152490e+001
1.612106e+003,9.364227e+000
1.613070e+003,9.510864e+000
1.614034e+003,1.034937e+001
1.614998e+003,1.109520e+001
1.615963e+003,1.158917e+001
1.616927e+003,1.151176e+001
1.617891e+003,1.089030e+001
1.618855e+003,1.022946e+001
1.619820e+003,9.748245e+000
1.620784e+003,9.519058e+000
1.621748e+003,1.007243e+001
1.622712e+003,1.127898e+001
1.623677e+003,1.147507e+001
1.624641e+003,1.044792e+001
1.625605e+003,9.633392e+000
1.626569e+003,8.983459e+000
1.627533e+003,8.781418e+000
1.628498e+003,9.198105e+000
1.629462e+003,1.022447e+001
1.630426e+003,1.278040e+001
1.631390e+003,1.566489e+001
1.632354e+003,1.609068e+001
1.633319e+003,1.360121e+001
1.634283e+003,1.076251e+001
1.635247e+003,9.389221e+000
1.636211e+003,8.948395e+000
1.637176e+003,8.378647e+000
1.638140e+003,7.793762e+000
1.639104e+003,8.723007e+000
1.640068e+003,1.188435e+001
1.641033e+003,1.378561e+001
1.641997e+003,1.287170e+001
1.642961e+003,1.158606e+001
1.643925e+003,1.083521e+001
1.644890e+003,1.055930e+001
1.645854e+003,1.086211e+001
1.646818e+003,1.152643e+001
1.647782e+003,1.210756e+001
1.648747e+003,1.245729e+001
1.649711e+003,1.273401e+001
1.650675e+003,1.317322e+001
1.651639e+003,1.356308e+001
1.652604e+003,1.331256e+001
1.653568e+003,1.239856e+001
1.654532e+003,1.116364e+001
1.655496e+003,9.091293e+000
1.656460e+003,8.708939e+000
1.657425e+003,1.252716e+001
1.658389e+003,1.583894e+001
1.659353e+003,1.589337e+001
1.660317e+003,1.436664e+001
1.661281e+003,1.248518e+001
1.662246e+003,1.069295e+001
1.663210e+003,9.819229e+000
1.664174e+003,1.010432e+001
1.665138e+003,1.023241e+001
1.666103e+003,8.836258e+000
1.667067e+003,6.869125e+000
1.668031e+003,6.534073e+000
1.668995e+003,7.701843e+000
1.669960e+003,8.089066e+000
1.670924e+003,7.379547e+000
1.671888e+003,6.651413e+000
1.672852e+003,6.207977e+000
1.673817e+003,5.767761e+000
1.674781e+003,4.580109e+000
1.675745e+003,3.694504e+000
1.676709e+003,4.708054e+000
1.677674e+003,7.043335e+000
1.678638e+003,8.802933e+000
1.679602e+003,9.385681e+000
1.680566e+003,9.223053e+000
1.681531e+003,8.596802e+000
1.682495e+003,7.587997e+000
1.683459e+003,5.743454e+000
1.684423e+003,3.372971e+000
1.685387e+003,3.117386e+000
1.686352e+003,5.571808e+000
1.687316e+003,7.356735e+000
1.688280e+003,7.195160e+000
1.689244e+003,6.501938e+000
1.690208e+003,5.886154e+000
1.691173e+003,5.545151e+000
1.692137e+003,6.301788e+000
1.693101e+003,7.609726e+000
1.694065e+003,7.153427e+000
1.695030e+003,4.211945e+000
1.695994e+003,2.063675e+000
1.696958e+003,3.560104e+000
1.697922e+003,5.942551e+000
1.698887e+003,5.450546e+000
1.699851e+003,3.089615e+000
1.700815e+003,1.995285e+000
1.701779e+003,2.375565e+000
1.702744e+003,2.112167e+000
1.703708e+003,1.950378e-001
1.704672e+003,-6.763458e-001
1.705636e+003,2.244812e+000
1.706601e+003,6.279434e+000
1.707565e+003,7.693161e+000
1.708529e+003,7.048203e+000
1.709493e+003,5.641266e+000
1.710458e+003,3.521759e+000
1.711422e+003,1.457199e+000
1.712386e+003,-5.202637e-001
1.713350e+003,-1.883911e+000
1.714314e+003,-2.116669e+000
1.715279e+003,-1.662689e+000
1.716243e+003,-1.113312e+000
1.717207e+003,-5.253601e-001
1.718171e+003,8.796692e-002
1.719135e+003,7.358093e-001
1.720100e+003,1.705902e+000
1.721064e+003,3.334869e+000
1.722028e+003,4.833008e+000
1.722992e+003,5.151962e+000
1.723957e+003,4.454575e+000
1.724921e+003,3.188492e+000
1.725885e+003,1.078903e+000
1.726849e+003,-6.459808e-001
1.727814e+003,-1.785858e+000
1.728778e+003,-2.262573e+000
1.729742e+003,-1.816162e+000
1.730706e+003,-9.483337e-001
1.731671e+003,1.880951e-001
1.732635e+003,1.104492e+000
1.733599e+003,8.460388e-001
1.734563e+003,-4.526062e-001
1.735528e+003,-1.510040e+000
1.736492e+003,-1.682983e+000
1.737456e+003,-1.193481e+000
1.738420e+003,-1.835632e-001
1.739385e+003,9.632721e-001
1.740349e+003,9.912720e-001
1.741313e+003,-3.318787e-001
1.742277e+003,-1.323608e+000
1.743241e+003,-2.148560e+000
1.744206e+003,-2.307373e+000
1.745170e+003,-1.044891e+000
1.746134e+003,2.728271e-002
1.747098e+003,-1.141510e-001
1.748063e+003,-8.307190e-001
1.749027e+003,-1.827026e+000
1.749991e+003,-2.544312e+000
1.750955e+003,-1.590195e+000
1.751919e+003,1.120224e+000
1.752884e+003,3.272110e+000
1.753848e+003,2.934402e+000
1.754812e+003,1.145355e+000
1.755776e+003,-9.048462e-003
1.756741e+003,-4.848938e-001
1.757705e+003,-9.459076e-001
1.758669e+003,-1.733109e+000
1.759633e+003,-1.639481e+000
1.760598e+003,5.275269e-001
1.761562e+003,1.921066e+000
1.762526e+003,9.898682e-001
1.763490e+003,-1.275787e-001
1.764455e+003,7.023163e-001
1.765419e+003,2.063705e+000
1.766383e+003,9.246368e-001
1.767347e+003,-2.382034e+000
1.768312e+003,-4.052658e+000
1.769276e+003,-2.285522e+000
1.770240e+003,1.832733e-001
1.771204e+003,6.223297e-001
1.772168e+003,-1.422882e-001
1.773133e+003,-3.971252e-001
1.774097e+003,-2.036896e-001
1.775061e+003,-1.962128e-001
1.776025e+003,-5.578461e-001
1.776990e+003,-6.586914e-001
1.777954e+003,6.607056e-002
1.778918e+003,5.329132e-001
1.779882e+003,-4.300842e-001
1.780846e+003,-1.917267e+000
1.781811e+003,-2.838867e+000
1.782775e+003,-3.153168e+000
1.783739e+003,-2.562119e+000
1.784703e+003,-8.786774e-001
1.785668e+003,2.746124e-001
1.786632e+003,-2.758484e-001
1.787596e+003,-1.050308e+000
1.788560e+003,-8.146210e-001
1.789525e+003,-7.557678e-002
1.790489e+003,4.245605e-001
1.791453e+003,6.591339e-001
1.792417e+003,9.011383e-001
1.793382e+003,1.186005e+000
1.794346e+003,1.276138e+000
1.795310e+003,1.054840e+000
1.796274e+003,1.464539e-001
1.797239e+003,-2.190323e+000
1.798203e+003,-4.782440e+000
1.799167e+003,-3.714294e+000
1.800131e+003,1.983688e+000
1.801095e+003,3.772018e+000
1.802060e+003,-1.775925e+000
1.803024e+003,-5.094299e+000
1.803988e+003,-4.136551e+000
1.804952e+003,-2.277267e+000
1.805917e+003,-4.476624e-001
1.806881e+003,9.501343e-001
1.807845e+003,1.583298e+000
1.808809e+003,1.634171e+000
1.809773e+003,1.243896e+000
1.810738e+003,6.595764e-001
1.811702e+003,7.225037e-001
1.812666e+003,1.917175e+000
1.813630e+003,3.068771e+000
1.814595e+003,2.511963e+000
1.815559e+003,6.854553e-001
1.816523e+003,-6.054840e-001
1.817487e+003,-1.335876e+000
1.818452e+003,-1.551407e+000
1.819416e+003,-1.141327e+000
1.820380e+003,-3.032074e-001
1.821344e+003,1.597031e+000
1.822309e+003,2.789017e+000
1.823273e+003,1.617584e+000
1.824237e+003,-1.426544e-001
1.825201e+003,-7.441864e-001
1.826166e+003,-4.822998e-001
1.827130e+003,-3.914185e-001
1.828094e+003,-6.644897e-001
1.829058e+003,-5.359497e-001
1.830022e+003,6.862946e-001
1.830987e+003,1.821167e+000
1.831951e+003,1.916748e+000
1.832915e+003,1.317337e+000
1.833879e+003,-1.152039e-002
1.834844e+003,-1.525452e+000
1.835808e+003,-1.358246e+000
1.836772e+003,5.475922e-001
1.837736e+003,1.935181e+000
1.838700e+003,1.800873e+000
1.839665e+003,5.405121e-001
1.840629e+003,-1.764740e+000
1.841593e+003,-4.050018e+000
1.842557e+003,-3.978790e+000
1.843522e+003,-1.591141e+000
1.844486e+003,3.250580e-001
1.845450e+003,2.228806e+000
1.846414e+003,2.867920e+000
1.847379e+003,9.456787e-001
1.848343e+003,-6.755676e-001
1.849307e+003,-8.664093e-001
1.850271e+003,-7.093048e-001
1.851236e+003,-1.027298e+000
1.852200e+003,-1.434418e+000
1.853164e+003,-1.405579e+000
1.854128e+003,-9.673309e-001
1.855093e+003,-2.674103e-001
1.856057e+003,6.350403e-001
1.857021e+003,1.453217e+000
1.857985e+003,1.946991e+000
1.858949e+003,2.010208e+000
1.859914e+003,1.067413e+000
1.860878e+003,-4.912262e-001
1.861842e+003,-2.282410e-001
1.862806e+003,1.903214e+000
1.863771e+003,3.045929e+000
1.864735e+003,2.544098e+000
1.865699e+003,1.735764e+000
1.866663e+003,1.061844e+000
1.867627e+003,6.471100e-001
1.868592e+003,6.383514e-001
1.869556e+003,8.088684e-001
1.870520e+003,8.563232e-001
1.871484e+003,7.897949e-001
1.872449e+003,7.006226e-001
1.873413e+003,7.351990e-001
1.874377e+003,9.849091e-001
1.875341e+003,1.317596e+000
1.876306e+003,1.741394e+000
1.877270e+003,2.618683e+000
1.878234e+003,3.221375e+000
1.879198e+003,2.501160e+000
1.880163e+003,1.158966e+000
1.881127e+003,5.010529e-001
1.882091e+003,6.594086e-001
1.883055e+003,1.108765e+000
1.884020e+003,1.562439e+000
1.884984e+003,1.763550e+000
1.885948e+003,1.455582e+000
1.886912e+003,1.140732e+000
1.887876e+003,1.938156e+000
1.888841e+003,3.727112e+000
1.889805e+003,4.849136e+000
1.890769e+003,5.178009e+000
1.891733e+003,5.561371e+000
1.892698e+003,6.233536e+000
1.893662e+003,6.422958e+000
1.894626e+003,5.480453e+000
1.895590e+003,4.540283e+000
1.896554e+003,4.698090e+000
1.897519e+003,5.135712e+000
1.898483e+003,4.280502e+000
1.899447e+003,2.751144e+000
1.900411e+003,3.471085e+000
1.901376e+003,7.152679e+000
1.902340e+003,9.102921e+000
1.903304e+003,6.286301e+000
1.904268e+003,3.308731e+000
1.905233e+003,3.453293e+000
1.906197e+003,4.386917e+000
1.907161e+003,3.430435e+000
1.908125e+003,1.649673e+000
1.909090e+003,1.092255e+000
1.910054e+003,1.821548e+000
1.911018e+003,3.070755e+000
1.911982e+003,4.481445e+000
1.912947e+003,5.615860e+000
1.913911e+003,6.139038e+000
1.914875e+003,6.243118e+000
1.915839e+003,6.176743e+000
1.916803e+003,5.923233e+000
1.917768e+003,5.621811e+000
1.918732e+003,5.261398e+000
1.919696e+003,5.329330e+000
1.920660e+003,6.275787e+000
1.921625e+003,6.453079e+000
1.922589e+003,4.926254e+000
1.923553e+003,3.421997e+000
1.924517e+003,2.552963e+000
1.925481e+003,2.393616e+000
1.926446e+003,3.646759e+000
1.927410e+003,5.422501e+000
1.928374e+003,5.835663e+000
1.929338e+003,4.817902e+000
1.930303e+003,3.916519e+000
1.931267e+003,3.540527e+000
1.932231e+003,3.546600e+000
1.933195e+003,3.660385e+000
1.934160e+003,4.231888e+000
1.935124e+003,6.150208e+000
1.936088e+003,8.120789e+000
1.937052e+003,8.750031e+000
1.938017e+003,8.185257e+000
1.938981e+003,6.405777e+000
1.939945e+003,3.991180e+000
1.940909e+003,2.962234e+000
1.941874e+003,4.106369e+000
1.942838e+003,5.721207e+000
1.943802e+003,6.285217e+000
1.944766e+003,6.400497e+000
1.945730e+003,7.358780e+000
1.946695e+003,8.839264e+000
1.947659e+003,8.137878e+000
1.948623e+003,4.897736e+000
1.949587e+003,3.538101e+000
1.950552e+003,5.088623e+000
1.951516e+003,6.307724e+000
1.952480e+003,5.925247e+000
1.953444e+003,5.415283e+000
1.954408e+003,6.027481e+000
1.955373e+003,6.766693e+000
1.956337e+003,5.928207e+000
1.957301e+003,4.188019e+000
1.958265e+003,3.739868e+000
1.959230e+003,4.761658e+000
1.960194e+003,6.059723e+000
1.961158e+003,7.978210e+000
1.962122e+003,9.159943e+000
1.963087e+003,8.799301e+000
1.964051e+003,8.198608e+000
1.965015e+003,7.977631e+000
1.965979e+003,8.114304e+000
1.966944e+003,8.803726e+000
1.967908e+003,9.539825e+000
1.968872e+003,9.466156e+000
1.969836e+003,8.612289e+000
1.970801e+003,7.561264e+000
1.971765e+003,6.629105e+000
1.972729e+003,6.378723e+000
1.973693e+003,7.485062e+000
1.974657e+003,8.900406e+000
1.975622e+003,8.830566e+000
1.976586e+003,7.868240e+000
1.977550e+003,7.815491e+000
1.978514e+003,8.525345e+000
1.979479e+003,8.783600e+000
1.980443e+003,8.408646e+000
1.981407e+003,7.703156e+000
1.982371e+003,6.751083e+000
1.983335e+003,6.669373e+000
1.984300e+003,8.457230e+000
1.985264e+003,1.053961e+001
1.986228e+003,1.046245e+001
1.987192e+003,8.663544e+000
1.988157e+003,7.394012e+000
1.989121e+003,6.686630e+000
1.990085e+003,6.513947e+000
1.991049e+003,7.071732e+000
1.992014e+003,7.853928e+000
1.992978e+003,9.435837e+000
1.993942e+003,1.028210e+001
1.994906e+003,8.881622e+000
1.995871e+003,7.585938e+000
1.996835e+003,8.796982e+000
1.997799e+003,1.084512e+001
1.998763e+003,1.108328e+001
1.999728e+003,9.682541e+000
