5.003444e+002,1.813414e+002
5.013087e+002,1.809579e+002
5.022729e+002,1.751090e+002
5.032371e+002,1.663975e+002
5.042014e+002,1.604167e+002
5.051656e+002,1.571183e+002
5.061298e+002,1.564846e+002
5.070941e+002,1.587946e+002
5.080583e+002,1.649225e+002
5.090225e+002,1.660157e+002
5.099868e+002,1.590929e+002
5.109510e+002,1.519340e+002
5.119152e+002,1.492083e+002
5.128795e+002,1.515117e+002
5.138437e+002,1.522489e+002
5.148079e+002,1.470885e+002
5.157722e+002,1.421764e+002
5.167364e+002,1.401875e+002
5.177006e+002,1.409500e+002
5.186649e+002,1.418040e+002
5.196291e+002,1.401049e+002
5.205933e+002,1.378519e+002
5.215576e+002,1.362543e+002
5.225218e+002,1.348246e+002
5.234860e+002,1.325872e+002
5.244503e+002,1.284955e+002
5.254145e+002,1.227578e+002
5.263787e+002,1.186321e+002
5.273430e+002,1.164115e+002
5.283072e+002,1.155677e+002
5.292714e+002,1.153895e+002
5.302357e+002,1.157026e+002
5.311999e+002,1.144885e+002
5.321641e+002,1.128440e+002
5.331284e+002,1.107177e+002
5.340926e+002,1.066550e+002
5.350568e+002,9.944409e+001
5.360211e+002,9.362512e+001
5.369853e+002,9.695117e+001
5.379495e+002,1.029309e+002
5.389138e+002,1.060370e+002
5.398780e+002,1.039960e+002
5.408422e+002,9.849731e+001
5.418065e+002,9.387024e+001
5.427707e+002,9.005457e+001
5.437349e+002,8.697583e+001
5.446992e+002,8.463708e+001
5.456634e+002,8.282227e+001
5.466276e+002,8.100977e+001
5.475919e+002,7.880200e+001
5.485561e+002,7.785754e+001
5.495203e+002,7.915955e+001
5.504846e+002,8.084998e+001
5.514488e+002,8.037305e+001
5.524130e+002,7.634375e+001
5.533773e+002,7.231348e+001
5.543415e+002,7.051526e+001
5.553057e+002,6.951843e+001
5.562700e+002,6.751160e+001
5.572342e+002,6.330139e+001
5.581984e+002,5.808911e+001
5.591627e+002,5.502136e+001
5.601269e+002,5.399451e+001
5.610911e+002,5.465112e+001
5.620554e+002,5.674023e+001
5.630196e+002,5.967786e+001
5.639838e+002,6.066406e+001
5.649481e+002,5.833008e+001
5.659123e+002,5.615283e+001
5.668765e+002,5.610217e+001
5.678408e+002,5.764246e+001
5.688050e+002,5.802661e+001
5.697692e+002,5.463574e+001
5.707335e+002,5.028174e+001
5.716977e+002,4.546130e+001
5.726619e+002,4.096997e+001
5.736262e+002,3.777136e+001
5.745904e+002,3.672388e+001
5.755546e+002,3.712683e+001
5.765189e+002,3.678528e+001
5.774831e+002,3.578577e+001
5.784473e+002,3.571008e+001
5.794116e+002,3.790710e+001
5.803758e+002,4.232629e+001
5.813400e+002,4.155273e+001
5.823043e+002,3.274585e+001
5.832685e+002,2.501416e+001
5.842327e+002,2.266614e+001
5.851970e+002,2.534656e+001
5.861612e+002,2.775049e+001
5.871254e+002,2.836609e+001
5.880897e+002,2.853210e+001
5.890539e+002,2.808289e+001
5.900181e+002,2.702820e+001
5.909824e+002,2.530054e+001
5.919466e+002,2.256299e+001
5.929108e+002,2.068091e+001
5.938751e+002,2.189539e+001
5.948393e+002,2.478577e+001
5.958035e+002,2.724719e+001
5.967678e+002,2.785742e+001
5.977320e+002,2.722473e+001
5.986962e+002,2.803162e+001
5.996605e+002,2.945386e+001
6.006247e+002,3.063062e+001
6.015889e+002,3.194934e+001
6.025532e+002,3.330750e+001
6.035174e+002,3.208179e+001
6.044816e+002,2.414990e+001
6.054459e+002,1.824548e+001
6.064101e+002,1.674438e+001
6.073743e+002,1.786890e+001
6.083386e+002,1.826855e+001
6.093028e+002,1.600110e+001
6.102670e+002,1.360632e+001
6.112313e+002,1.275696e+001
6.121955e+002,1.290173e+001
6.131597e+002,1.315491e+001
6.141240e+002,1.291638e+001
6.150882e+002,1.257495e+001
6.160524e+002,1.527698e+001
6.170167e+002,2.077710e+001
6.179809e+002,2.491577e+001
6.189451e+002,2.506323e+001
6.199094e+002,2.147095e+001
6.208736e+002,1.868042e+001
6.218378e+002,1.907959e+001
6.228021e+002,1.899841e+001
6.237663e+002,1.751392e+001
6.247305e+002,1.574231e+001
6.256948e+002,1.561560e+001
6.266590e+002,1.853809e+001
6.276232e+002,1.976929e+001
6.285875e+002,1.585681e+001
6.295517e+002,1.051428e+001
6.305159e+002,7.513672e+000
6.314802e+002,8.659424e+000
6.324444e+002,1.187598e+001
6.334086e+002,1.288074e+001
6.343729e+002,1.265417e+001
6.353371e+002,1.147021e+001
6.363013e+002,9.034180e+000
6.372656e+002,5.633789e+000
6.382298e+002,2.850952e+000
6.391940e+002,1.940918e-002
6.401583e+002,-1.488647e+000
6.411225e+002,-1.254883e-001
6.420867e+002,3.156372e+000
6.430510e+002,7.258423e+000
6.440152e+002,1.209338e+001
6.449794e+002,1.446143e+001
6.459437e+002,1.270239e+001
6.469079e+002,8.605347e+000
6.478721e+002,2.758667e+000
6.488364e+002,-4.016235e+000
6.498006e+002,-1.010950e+001
6.507648e+002,-1.287939e+001
6.517291e+002,-1.319373e+001
6.526933e+002,-1.190552e+001
6.536575e+002,-9.072266e+000
6.546218e+002,-6.098022e+000
6.555860e+002,-5.749878e+000
6.565502e+002,-1.018140e+001
6.575145e+002,-1.291992e+001
6.584787e+002,-1.357788e+001
6.594429e+002,-1.302832e+001
6.604072e+002,-1.138843e+001
6.613714e+002,-8.427124e+000
6.623356e+002,-6.517822e+000
6.632999e+002,-9.156250e+000
6.642641e+002,-1.197327e+001
6.652283e+002,-1.157056e+001
6.661926e+002,-7.982666e+000
6.671568e+002,-4.091797e+000
6.681210e+002,-4.151855e+000
6.690853e+002,-6.512939e+000
6.700495e+002,-5.293823e+000
6.710137e+002,-6.206055e-001
6.719780e+002,3.805786e+000
6.729422e+002,3.732788e+000
6.739064e+002,-2.358887e+000
6.748707e+002,-5.356567e+000
6.758349e+002,-3.485352e+000
6.767991e+002,-1.817505e+000
6.777634e+002,-2.098877e+000
6.787276e+002,-3.691650e+000
6.796918e+002,-4.521851e+000
6.806561e+002,-4.155518e+000
6.816203e+002,-3.803589e+000
6.825845e+002,-3.821411e+000
6.835488e+002,-4.146240e+000
6.845130e+002,-4.678833e+000
6.854772e+002,-5.306274e+000
6.864415e+002,-5.138672e+000
6.874057e+002,-2.842651e+000
6.883699e+002,1.802979e-001
6.893342e+002,2.082764e+000
6.902984e+002,2.011841e+000
6.912626e+002,3.509521e-001
6.922269e+002,-1.663452e+000
6.931911e+002,-4.006592e+000
6.941553e+002,-4.773682e+000
6.951196e+002,-3.451904e+000
6.960838e+002,-1.755005e+000
6.970480e+002,-2.255493e+000
6.980123e+002,-6.490845e+000
6.989765e+002,-9.311768e+000
6.999407e+002,-9.289673e+000
7.009050e+002,-7.233765e+000
7.018692e+002,-2.339722e+000
7.028334e+002,4.814819e+000
7.037977e+002,1.070447e+001
7.047619e+002,8.668823e+000
7.057261e+002,2.291504e+000
7.066904e+002,-2.415527e+000
7.076546e+002,-4.533691e+000
7.086188e+002,-4.980713e+000
7.095831e+002,-5.126221e+000
7.105473e+002,-5.207764e+000
7.115115e+002,-5.356323e+000
7.124758e+002,-5.786377e+000
7.134400e+002,-6.477783e+000
7.144042e+002,-6.848511e+000
7.153685e+002,-6.698486e+000
7.163327e+002,-7.336548e+000
7.172969e+002,-1.071033e+001
7.182612e+002,-1.362085e+001
7.192254e+002,-1.502380e+001
7.201896e+002,-1.522339e+001
7.211539e+002,-1.499939e+001
7.221181e+002,-1.494714e+001
7.230823e+002,-1.457397e+001
7.240466e+002,-1.215845e+001
7.250108e+002,-7.719238e+000
7.259750e+002,-3.343750e+000
7.269393e+002,-7.355957e-001
7.279035e+002,-4.803467e-001
7.288677e+002,-1.698486e+000
7.298320e+002,-4.539917e+000
7.307962e+002,-5.970825e+000
7.317604e+002,-5.069214e+000
7.327247e+002,-2.768555e+000
7.336889e+002,-8.572998e-001
7.346531e+002,-8.363037e-001
7.356174e+002,-1.872070e+000
7.365816e+002,-1.703247e+000
7.375458e+002,-1.142944e+000
7.385101e+002,-1.000366e+000
7.394743e+002,-1.465698e+000
7.404385e+002,-2.255981e+000
7.414028e+002,-3.734375e+000
7.423670e+002,-6.383789e+000
7.433312e+002,-6.081665e+000
7.442955e+002,-1.213867e+000
7.452597e+002,4.795288e+000
7.462239e+002,7.316040e+000
7.471882e+002,4.798462e+000
7.481524e+002,4.022583e+000
7.491166e+002,5.126831e+000
7.500809e+002,5.567749e+000
7.510451e+002,4.297852e+000
7.520093e+002,1.609863e+000
7.529736e+002,-1.331177e+000
7.539378e+002,-3.855591e+000
7.549020e+002,-4.813477e+000
7.558663e+002,-3.038696e+000
7.568306e+002,8.618164e-002
7.577948e+002,2.292603e+000
7.587590e+002,2.087769e+000
7.597233e+002,3.237305e-001
7.606875e+002,1.544067e+000
7.616517e+002,5.751831e+000
7.626160e+002,8.456421e+000
7.635802e+002,8.541870e+000
7.645444e+002,6.806396e+000
7.655087e+002,4.256958e+000
7.664729e+002,-1.229248e+000
7.674371e+002,-2.902832e+000
7.684014e+002,3.145386e+000
7.693656e+002,9.077148e+000
7.703298e+002,8.786621e+000
7.712941e+002,2.291260e+000
7.722583e+002,-2.999390e+000
7.732225e+002,-8.339844e-001
7.741868e+002,4.029053e+000
7.751510e+002,9.108398e+000
7.761152e+002,1.362915e+001
7.770795e+002,1.665515e+001
7.780437e+002,1.724707e+001
7.790079e+002,1.549170e+001
7.799722e+002,1.335754e+001
7.809364e+002,1.073376e+001
7.819006e+002,8.412109e+000
7.828649e+002,7.204102e+000
7.838291e+002,7.219482e+000
7.847933e+002,7.690796e+000
7.857576e+002,7.588745e+000
7.867218e+002,7.764160e+000
7.876860e+002,9.789673e+000
7.886503e+002,1.235266e+001
7.896145e+002,1.429321e+001
7.905787e+002,1.530090e+001
7.915430e+002,1.606396e+001
7.925072e+002,1.658643e+001
7.934714e+002,1.652100e+001
7.944357e+002,1.639478e+001
7.953999e+002,1.660120e+001
7.963641e+002,1.703027e+001
7.973284e+002,1.729333e+001
7.982926e+002,1.739441e+001
7.992568e+002,1.743384e+001
8.002211e+002,1.616284e+001
8.011853e+002,1.399463e+001
8.021495e+002,1.215149e+001
8.031138e+002,1.139575e+001
8.040780e+002,1.134143e+001
8.050422e+002,1.081274e+001
8.060065e+002,1.089282e+001
8.069707e+002,1.151208e+001
8.079349e+002,1.224060e+001
8.088992e+002,1.312341e+001
8.098634e+002,1.436987e+001
8.108276e+002,1.592188e+001
8.117919e+002,1.711523e+001
8.127561e+002,1.703967e+001
8.137203e+002,1.608752e+001
8.146846e+002,1.501074e+001
8.156488e+002,1.408435e+001
8.166130e+002,1.297595e+001
8.175773e+002,1.106396e+001
8.185415e+002,1.170483e+001
8.195057e+002,1.641821e+001
8.204700e+002,2.006213e+001
8.214342e+002,2.022205e+001
8.223984e+002,1.803882e+001
8.233627e+002,1.673975e+001
8.243269e+002,1.798230e+001
8.252911e+002,1.970520e+001
8.262554e+002,2.056970e+001
8.272196e+002,2.106812e+001
8.281838e+002,2.144092e+001
8.291481e+002,2.186328e+001
8.301123e+002,2.272717e+001
8.310765e+002,2.520996e+001
8.320408e+002,2.866357e+001
8.330050e+002,2.853882e+001
8.339692e+002,2.378125e+001
8.349335e+002,1.852454e+001
8.358977e+002,1.748303e+001
8.368619e+002,2.169519e+001
8.378262e+002,2.528674e+001
8.387904e+002,2.766040e+001
8.397546e+002,2.876184e+001
8.407189e+002,2.784656e+001
8.416831e+002,2.593396e+001
8.426473e+002,2.426257e+001
8.436116e+002,2.309277e+001
8.445758e+002,2.409778e+001
8.455400e+002,3.074622e+001
8.465043e+002,3.814453e+001
8.474685e+002,4.121387e+001
8.484327e+002,3.928210e+001
8.493970e+002,3.537097e+001
8.503612e+002,3.363416e+001
8.513254e+002,3.408765e+001
8.522897e+002,3.517859e+001
8.532539e+002,3.670190e+001
8.542181e+002,3.814441e+001
8.551824e+002,3.990161e+001
8.561466e+002,4.261011e+001
8.571108e+002,4.607471e+001
8.580751e+002,4.827356e+001
8.590393e+002,5.059143e+001
8.600035e+002,5.550061e+001
8.609678e+002,6.090747e+001
8.619320e+002,6.389050e+001
8.628962e+002,6.333875e+001
8.638605e+002,6.163306e+001
8.648247e+002,6.254456e+001
8.657889e+002,6.492749e+001
8.667532e+002,6.679932e+001
8.677174e+002,6.789429e+001
8.686816e+002,6.842590e+001
8.696459e+002,6.881885e+001
8.706101e+002,6.950525e+001
8.715743e+002,6.947644e+001
8.725386e+002,6.559326e+001
8.735028e+002,6.507642e+001
8.744670e+002,7.173108e+001
8.754313e+002,8.158594e+001
8.763955e+002,8.743530e+001
8.773597e+002,8.625842e+001
8.783240e+002,8.470386e+001
8.792882e+002,8.724512e+001
8.802524e+002,9.127722e+001
8.812167e+002,9.577759e+001
8.821809e+002,9.980286e+001
8.831451e+002,1.015648e+002
8.841094e+002,9.847766e+001
8.850736e+002,9.150085e+001
8.860378e+002,9.079053e+001
8.870021e+002,9.707043e+001
8.879663e+002,1.043082e+002
8.889305e+002,1.100924e+002
8.898948e+002,1.139678e+002
8.908590e+002,1.140942e+002
8.918232e+002,1.064745e+002
8.927875e+002,1.028667e+002
8.937517e+002,1.078073e+002
8.947159e+002,1.157375e+002
8.956802e+002,1.220304e+002
8.966444e+002,1.251451e+002
8.976086e+002,1.264238e+002
8.985729e+002,1.273953e+002
8.995371e+002,1.285801e+002
9.005013e+002,1.297822e+002
9.014656e+002,1.314252e+002
9.024298e+002,1.343752e+002
9.033940e+002,1.391208e+002
9.043583e+002,1.446051e+002
9.053225e+002,1.466572e+002
9.062867e+002,1.402842e+002
9.072510e+002,1.358705e+002
9.082152e+002,1.358661e+002
9.091794e+002,1.379689e+002
9.101437e+002,1.396190e+002
9.111079e+002,1.403350e+002
9.120721e+002,1.418289e+002
9.130364e+002,1.466062e+002
9.140006e+002,1.498550e+002
9.149648e+002,1.483660e+002
9.159291e+002,1.440293e+002
9.168933e+002,1.403436e+002
9.178575e+002,1.394440e+002
9.188218e+002,1.399501e+002
9.197860e+002,1.379955e+002
9.207502e+002,1.331595e+002
9.217145e+002,1.299176e+002
9.226787e+002,1.313966e+002
9.236429e+002,1.342645e+002
9.246072e+002,1.328834e+002
9.255714e+002,1.256281e+002
9.265356e+002,1.200017e+002
9.274999e+002,1.172701e+002
9.284641e+002,1.157147e+002
9.294283e+002,1.165522e+002
9.303926e+002,1.182700e+002
9.313568e+002,1.180980e+002
9.323210e+002,1.144620e+002
9.332853e+002,1.094366e+002
9.342495e+002,1.059182e+002
9.352137e+002,1.032434e+002
9.361780e+002,1.010918e+002
9.371422e+002,9.988513e+001
9.381064e+002,1.005201e+002
9.390707e+002,1.039324e+002
9.400349e+002,1.102889e+002
9.409991e+002,1.134095e+002
9.419634e+002,1.111287e+002
9.429276e+002,1.085444e+002
9.438918e+002,1.073843e+002
9.448561e+002,1.068811e+002
9.458203e+002,1.051044e+002
9.467845e+002,1.011376e+002
9.477488e+002,9.895935e+001
9.487130e+002,1.040649e+002
9.496772e+002,1.101045e+002
9.506415e+002,1.117605e+002
9.516057e+002,1.090302e+002
9.525699e+002,1.051350e+002
9.535342e+002,1.031322e+002
9.544984e+002,1.024812e+002
9.554626e+002,1.005394e+002
9.564269e+002,9.761414e+001
9.573911e+002,9.655957e+001
9.583553e+002,9.892334e+001
9.593196e+002,1.028452e+002
9.602838e+002,1.056284e+002
9.612480e+002,1.070780e+002
9.622123e+002,1.066827e+002
9.631765e+002,1.021080e+002
9.641407e+002,9.834460e+001
9.651050e+002,9.914038e+001
9.660692e+002,1.020021e+002
9.670334e+002,1.013883e+002
9.679977e+002,9.411719e+001
9.689619e+002,8.483948e+001
9.699261e+002,8.187561e+001
9.708904e+002,8.351270e+001
9.718546e+002,8.816943e+001
9.728188e+002,9.564307e+001
9.737831e+002,1.043580e+002
9.747473e+002,1.130696e+002
9.757115e+002,1.224570e+002
9.766758e+002,1.292523e+002
9.776400e+002,1.335828e+002
9.786042e+002,1.362632e+002
9.795685e+002,1.379735e+002
9.805327e+002,1.369238e+002
9.814969e+002,1.300859e+002
9.824612e+002,1.168397e+002
9.834254e+002,1.034779e+002
9.843896e+002,9.499182e+001
9.853539e+002,8.935413e+001
9.863181e+002,8.532080e+001
9.872823e+002,8.211389e+001
9.882466e+002,7.903430e+001
9.892108e+002,7.614453e+001
9.901750e+002,7.431641e+001
9.911393e+002,7.351843e+001
9.921035e+002,7.100916e+001
9.930677e+002,7.064771e+001
9.940320e+002,7.405005e+001
9.949962e+002,7.981250e+001
9.959604e+002,8.748560e+001
9.969247e+002,9.692554e+001
9.978889e+002,1.053258e+002
9.988531e+002,1.091849e+002
9.998174e+002,1.123057e+002
1.000782e+003,1.181831e+002
1.001746e+003,1.255894e+002
1.002710e+003,1.327222e+002
1.003674e+003,1.384640e+002
1.004639e+003,1.422662e+002
1.005603e+003,1.429938e+002
1.006567e+003,1.400363e+002
1.007531e+003,1.381056e+002
1.008495e+003,1.376549e+002
1.009460e+003,1.374764e+002
1.010424e+003,1.375135e+002
1.011388e+003,1.376050e+002
1.012352e+003,1.361279e+002
1.013317e+003,1.309175e+002
1.014281e+003,1.274246e+002
1.015245e+003,1.310637e+002
1.016209e+003,1.329789e+002
1.017174e+003,1.253815e+002
1.018138e+003,1.094116e+002
1.019102e+003,9.240869e+001
1.020066e+003,8.021826e+001
1.021031e+003,7.251306e+001
1.021995e+003,6.836194e+001
1.022959e+003,6.638611e+001
1.023923e+003,6.343469e+001
1.024887e+003,5.868591e+001
1.025852e+003,5.186719e+001
1.026816e+003,4.147571e+001
1.027780e+003,2.596948e+001
1.028744e+003,1.676855e+001
1.029709e+003,1.922485e+001
1.030673e+003,2.242627e+001
1.031637e+003,2.340820e+001
1.032601e+003,2.274963e+001
1.033566e+003,2.201929e+001
1.034530e+003,2.194214e+001
1.035494e+003,2.168835e+001
1.036458e+003,1.938220e+001
1.037422e+003,1.639111e+001
1.038387e+003,1.549304e+001
1.039351e+003,1.643323e+001
1.040315e+003,1.745825e+001
1.041279e+003,1.760840e+001
1.042244e+003,1.710413e+001
1.043208e+003,1.545605e+001
1.044172e+003,8.388794e+000
1.045136e+003,6.828491e+000
1.046101e+003,1.693054e+001
1.047065e+003,2.694556e+001
1.048029e+003,2.761316e+001
1.048993e+003,2.090015e+001
1.049958e+003,1.718665e+001
1.050922e+003,2.298767e+001
1.051886e+003,2.980701e+001
1.052850e+003,2.738940e+001
1.053814e+003,2.114905e+001
1.054779e+003,1.785596e+001
1.055743e+003,1.890649e+001
1.056707e+003,2.169678e+001
1.057671e+003,2.316858e+001
1.058636e+003,2.318542e+001
1.059600e+003,2.341577e+001
1.060564e+003,2.548889e+001
1.061528e+003,2.700403e+001
1.062493e+003,2.617651e+001
1.063457e+003,2.439233e+001
1.064421e+003,2.390637e+001
1.065385e+003,2.517383e+001
1.066349e+003,2.575989e+001
1.067314e+003,2.360596e+001
1.068278e+003,2.146094e+001
1.069242e+003,2.191858e+001
1.070206e+003,2.380457e+001
1.071171e+003,2.468103e+001
1.072135e+003,2.339331e+001
1.073099e+003,2.117163e+001
1.074063e+003,2.065552e+001
1.075028e+003,2.234570e+001
1.075992e+003,2.234180e+001
1.076956e+003,1.894861e+001
1.077920e+003,1.596619e+001
1.078885e+003,1.581970e+001
1.079849e+003,1.746228e+001
1.080813e+003,1.855713e+001
1.081777e+003,1.878223e+001
1.082741e+003,1.912451e+001
1.083706e+003,1.910779e+001
1.084670e+003,1.891406e+001
1.085634e+003,1.875696e+001
1.086598e+003,1.851611e+001
1.087563e+003,1.811975e+001
1.088527e+003,1.780627e+001
1.089491e+003,1.800269e+001
1.090455e+003,1.868091e+001
1.091420e+003,1.940881e+001
1.092384e+003,1.995618e+001
1.093348e+003,2.021912e+001
1.094312e+003,1.960022e+001
1.095276e+003,1.781421e+001
1.096241e+003,1.561938e+001
1.097205e+003,1.424475e+001
1.098169e+003,1.350732e+001
1.099133e+003,1.309888e+001
1.100098e+003,1.333069e+001
1.101062e+003,1.397827e+001
1.102026e+003,1.532678e+001
1.102990e+003,1.700549e+001
1.103955e+003,1.796875e+001
1.104919e+003,1.749133e+001
1.105883e+003,1.635168e+001
1.106847e+003,1.654846e+001
1.107812e+003,1.805957e+001
1.108776e+003,1.992737e+001
1.109740e+003,2.251794e+001
1.110704e+003,2.465808e+001
1.111668e+003,2.543835e+001
1.112633e+003,2.572253e+001
1.113597e+003,2.783997e+001
1.114561e+003,3.265588e+001
1.115525e+003,3.650391e+001
1.116490e+003,3.824756e+001
1.117454e+003,3.868909e+001
1.118418e+003,3.798914e+001
1.119382e+003,3.715967e+001
1.120347e+003,3.738513e+001
1.121311e+003,3.890161e+001
1.122275e+003,4.057385e+001
1.123239e+003,4.180505e+001
1.124203e+003,4.337842e+001
1.125168e+003,4.524072e+001
1.126132e+003,4.769458e+001
1.127096e+003,5.015710e+001
1.128060e+003,5.099597e+001
1.129025e+003,5.079053e+001
1.129989e+003,5.391980e+001
1.130953e+003,6.300293e+001
1.131917e+003,6.934802e+001
1.132882e+003,6.865186e+001
1.133846e+003,6.739893e+001
1.134810e+003,6.968237e+001
1.135774e+003,7.485046e+001
1.136739e+003,7.962512e+001
1.137703e+003,8.216504e+001
1.138667e+003,8.510754e+001
1.139631e+003,9.375378e+001
1.140595e+003,1.074823e+002
1.141560e+003,1.202614e+002
1.142524e+003,1.314773e+002
1.143488e+003,1.448391e+002
1.144452e+003,1.627498e+002
1.145417e+003,1.845804e+002
1.146381e+003,2.082180e+002
1.147345e+003,2.337894e+002
1.148309e+003,2.601488e+002
1.149274e+003,2.856199e+002
1.150238e+003,3.137433e+002
1.151202e+003,3.494253e+002
1.152166e+003,3.890947e+002
1.153130e+003,4.270176e+002
1.154095e+003,4.595658e+002
1.155059e+003,4.846215e+002
1.156023e+003,5.001158e+002
1.156987e+003,5.059266e+002
1.157952e+003,5.050605e+002
1.158916e+003,4.987439e+002
1.159880e+003,4.867429e+002
1.160844e+003,4.663296e+002
1.161809e+003,4.386278e+002
1.162773e+003,4.076000e+002
1.163737e+003,3.726616e+002
1.164701e+003,3.374706e+002
1.165666e+003,2.996136e+002
1.166630e+003,2.662380e+002
1.167594e+003,2.404297e+002
1.168558e+003,2.204086e+002
1.169522e+003,2.037061e+002
1.170487e+003,1.895358e+002
1.171451e+003,1.795103e+002
1.172415e+003,1.757058e+002
1.173379e+003,1.768580e+002
1.174344e+003,1.776267e+002
1.175308e+003,1.784877e+002
1.176272e+003,1.772311e+002
1.177236e+003,1.722104e+002
1.178201e+003,1.658621e+002
1.179165e+003,1.618027e+002
1.180129e+003,1.596327e+002
1.181093e+003,1.525841e+002
1.182057e+003,1.345481e+002
1.183022e+003,1.192179e+002
1.183986e+003,1.121410e+002
1.184950e+003,1.094894e+002
1.185914e+003,1.083271e+002
1.186879e+003,1.078956e+002
1.187843e+003,1.086172e+002
1.188807e+003,1.106681e+002
1.189771e+003,1.135336e+002
1.190736e+003,1.166621e+002
1.191700e+003,1.201212e+002
1.192664e+003,1.221528e+002
1.193628e+003,1.228859e+002
1.194593e+003,1.225747e+002
1.195557e+003,1.213389e+002
1.196521e+003,1.189933e+002
1.197485e+003,1.151044e+002
1.198449e+003,1.094999e+002
1.199414e+003,1.030498e+002
1.200378e+003,9.412524e+001
1.201342e+003,8.641199e+001
1.202306e+003,8.337732e+001
1.203271e+003,8.293079e+001
1.204235e+003,8.061426e+001
1.205199e+003,7.445142e+001
1.206163e+003,6.675891e+001
1.207128e+003,6.131250e+001
1.208092e+003,5.835400e+001
1.209056e+003,5.375952e+001
1.210020e+003,4.767078e+001
1.210984e+003,4.024158e+001
1.211949e+003,2.967249e+001
1.212913e+003,1.863452e+001
1.213877e+003,1.153198e+001
1.214841e+003,8.627319e+000
1.215806e+003,4.410522e+000
1.216770e+003,-4.849365e+000
1.217734e+003,-1.363440e+001
1.218698e+003,-1.810974e+001
1.219663e+003,-2.055164e+001
1.220627e+003,-2.365967e+001
1.221591e+003,-2.782642e+001
1.222555e+003,-3.148267e+001
1.223520e+003,-3.301306e+001
1.224484e+003,-3.297156e+001
1.225448e+003,-3.516833e+001
1.226412e+003,-4.163074e+001
1.227376e+003,-4.603369e+001
1.228341e+003,-4.843695e+001
1.229305e+003,-4.920850e+001
1.230269e+003,-4.770093e+001
1.231233e+003,-4.499377e+001
1.232198e+003,-4.276062e+001
1.233162e+003,-4.115088e+001
1.234126e+003,-4.018994e+001
1.235090e+003,-4.074292e+001
1.236055e+003,-4.197314e+001
1.237019e+003,-4.260974e+001
1.237983e+003,-4.320044e+001
1.238947e+003,-4.506506e+001
1.239911e+003,-4.846368e+001
1.240876e+003,-5.180688e+001
1.241840e+003,-5.307037e+001
1.242804e+003,-5.217859e+001
1.243768e+003,-5.014508e+001
1.244733e+003,-4.431055e+001
1.245697e+003,-4.095105e+001
1.246661e+003,-4.415985e+001
1.247625e+003,-4.774847e+001
1.248590e+003,-4.595758e+001
1.249554e+003,-3.973022e+001
1.250518e+003,-3.409351e+001
1.251482e+003,-3.156689e+001
1.252447e+003,-3.077283e+001
1.253411e+003,-3.001917e+001
1.254375e+003,-2.905017e+001
1.255339e+003,-2.777466e+001
1.256303e+003,-2.597083e+001
1.257268e+003,-2.401453e+001
1.258232e+003,-2.276025e+001
1.259196e+003,-2.190039e+001
1.260160e+003,-2.003894e+001
1.261125e+003,-1.673132e+001
1.262089e+003,-1.212610e+001
1.263053e+003,-4.406738e+000
1.264017e+003,1.162964e+000
1.264982e+003,1.830688e+000
1.265946e+003,1.378784e+000
1.266910e+003,4.199463e+000
1.267874e+003,9.629517e+000
1.268839e+003,1.337476e+001
1.269803e+003,1.261975e+001
1.270767e+003,8.772217e+000
1.271731e+003,4.198730e+000
1.272695e+003,-8.402100e-001
1.273660e+003,-5.737427e+000
1.274624e+003,-1.159705e+001
1.275588e+003,-1.662561e+001
1.276552e+003,-1.897058e+001
1.277517e+003,-1.928296e+001
1.278481e+003,-1.892664e+001
1.279445e+003,-1.799023e+001
1.280409e+003,-1.872681e+001
1.281374e+003,-2.345581e+001
1.282338e+003,-2.769507e+001
1.283302e+003,-2.873071e+001
1.284266e+003,-2.844019e+001
1.285230e+003,-2.889087e+001
1.286195e+003,-3.049438e+001
1.287159e+003,-3.249438e+001
1.288123e+003,-3.405457e+001
1.289087e+003,-3.473584e+001
1.290052e+003,-3.409644e+001
1.291016e+003,-3.166492e+001
1.291980e+003,-3.127332e+001
1.292944e+003,-3.465100e+001
1.293909e+003,-3.854974e+001
1.294873e+003,-4.171747e+001
1.295837e+003,-4.387646e+001
1.296801e+003,-4.458630e+001
1.297766e+003,-4.391980e+001
1.298730e+003,-4.340259e+001
1.299694e+003,-4.440045e+001
1.300658e+003,-4.557062e+001
1.301622e+003,-4.500635e+001
1.302587e+003,-4.332263e+001
1.303551e+003,-4.147852e+001
1.304515e+003,-3.954431e+001
1.305479e+003,-3.762720e+001
1.306444e+003,-3.599969e+001
1.307408e+003,-3.499634e+001
1.308372e+003,-3.513593e+001
1.309336e+003,-3.693152e+001
1.310301e+003,-3.842712e+001
1.311265e+003,-3.942993e+001
1.312229e+003,-3.965503e+001
1.313193e+003,-3.825769e+001
1.314157e+003,-3.675763e+001
1.315122e+003,-3.692480e+001
1.316086e+003,-3.888446e+001
1.317050e+003,-4.163910e+001
1.318014e+003,-4.445599e+001
1.318979e+003,-4.609406e+001
1.319943e+003,-4.393884e+001
1.320907e+003,-3.836658e+001
1.321871e+003,-3.524615e+001
1.322836e+003,-3.616302e+001
1.323800e+003,-3.709967e+001
1.324764e+003,-3.549591e+001
1.325728e+003,-3.260876e+001
1.326693e+003,-3.056793e+001
1.327657e+003,-2.971332e+001
1.328621e+003,-3.027795e+001
1.329585e+003,-3.181494e+001
1.330549e+003,-3.275372e+001
1.331514e+003,-3.421954e+001
1.332478e+003,-3.553088e+001
1.333442e+003,-3.504791e+001
1.334406e+003,-3.302350e+001
1.335371e+003,-3.121313e+001
1.336335e+003,-3.071326e+001
1.337299e+003,-3.111713e+001
1.338263e+003,-3.191888e+001
1.339228e+003,-3.326776e+001
1.340192e+003,-3.336682e+001
1.341156e+003,-3.137335e+001
1.342120e+003,-2.951605e+001
1.343084e+003,-2.848627e+001
1.344049e+003,-2.828296e+001
1.345013e+003,-2.876501e+001
1.345977e+003,-2.935461e+001
1.346941e+003,-2.899603e+001
1.347906e+003,-2.727173e+001
1.348870e+003,-2.608234e+001
1.349834e+003,-2.835352e+001
1.350798e+003,-3.178156e+001
1.351763e+003,-3.058960e+001
1.352727e+003,-2.562762e+001
1.353691e+003,-2.294080e+001
1.354655e+003,-2.494720e+001
1.355620e+003,-2.882129e+001
1.356584e+003,-3.185541e+001
1.357548e+003,-3.378278e+001
1.358512e+003,-3.334259e+001
1.359476e+003,-2.987183e+001
1.360441e+003,-2.744690e+001
1.361405e+003,-2.632434e+001
1.362369e+003,-2.670728e+001
1.363333e+003,-3.033362e+001
1.364298e+003,-3.472473e+001
1.365262e+003,-3.611957e+001
1.366226e+003,-3.402563e+001
1.367190e+003,-3.142133e+001
1.368155e+003,-3.096411e+001
1.369119e+003,-3.196552e+001
1.370083e+003,-3.211993e+001
1.371047e+003,-3.074194e+001
1.372011e+003,-3.038739e+001
1.372976e+003,-3.404730e+001
1.373940e+003,-3.588715e+001
1.374904e+003,-3.178210e+001
1.375868e+003,-2.552625e+001
1.376833e+003,-2.189099e+001
1.377797e+003,-2.135327e+001
1.378761e+003,-2.235388e+001
1.379725e+003,-2.467316e+001
1.380690e+003,-2.646301e+001
1.381654e+003,-2.494934e+001
1.382618e+003,-2.190033e+001
1.383582e+003,-1.972211e+001
1.384547e+003,-1.852881e+001
1.385511e+003,-1.775989e+001
1.386475e+003,-1.750317e+001
1.387439e+003,-1.716577e+001
1.388403e+003,-1.520300e+001
1.389368e+003,-1.168115e+001
1.390332e+003,-1.022205e+001
1.391296e+003,-1.147607e+001
1.392260e+003,-1.302014e+001
1.393225e+003,-1.609485e+001
1.394189e+003,-1.767462e+001
1.395153e+003,-1.434399e+001
1.396117e+003,-9.058716e+000
1.397082e+003,-6.075562e+000
1.398046e+003,-6.547607e+000
1.399010e+003,-9.311523e+000
1.399974e+003,-1.373926e+001
1.400938e+003,-1.920825e+001
1.401903e+003,-2.195642e+001
1.402867e+003,-1.987573e+001
1.403831e+003,-1.755450e+001
1.404795e+003,-1.605292e+001
1.405760e+003,-1.420850e+001
1.406724e+003,-1.237024e+001
1.407688e+003,-1.119678e+001
1.408652e+003,-1.031665e+001
1.409617e+003,-9.289429e+000
1.410581e+003,-8.620605e+000
1.411545e+003,-8.619385e+000
1.412509e+003,-8.530029e+000
1.413474e+003,-7.295532e+000
1.414438e+003,-6.677246e+000
1.415402e+003,-9.287720e+000
1.416366e+003,-1.405402e+001
1.417330e+003,-1.704797e+001
1.418295e+003,-1.670398e+001
1.419259e+003,-1.419550e+001
1.420223e+003,-9.792358e+000
1.421187e+003,-4.581665e+000
1.422152e+003,-4.258423e+000
1.423116e+003,-1.079688e+001
1.424080e+003,-1.404633e+001
1.425044e+003,-8.141235e+000
1.426009e+003,-2.777344e+000
1.426973e+003,-2.483887e+000
1.427937e+003,-4.680542e+000
1.428901e+003,-6.629272e+000
1.429865e+003,-7.224121e+000
1.430830e+003,-5.941406e+000
1.431794e+003,-2.727661e+000
1.432758e+003,1.190186e+000
1.433722e+003,4.053711e+000
1.434687e+003,6.579590e+000
1.435651e+003,9.141602e+000
1.436615e+003,9.552856e+000
1.437579e+003,9.675415e+000
1.438544e+003,9.293335e+000
1.439508e+003,9.524170e+000
1.440472e+003,1.238733e+001
1.441436e+003,1.662634e+001
1.442401e+003,1.974500e+001
1.443365e+003,2.083105e+001
1.444329e+003,1.935999e+001
1.445293e+003,1.439575e+001
1.446257e+003,8.884888e+000
1.447222e+003,9.127075e+000
1.448186e+003,1.374329e+001
1.449150e+003,1.546460e+001
1.450114e+003,1.294446e+001
1.451079e+003,9.817871e+000
1.452043e+003,7.924438e+000
1.453007e+003,7.162720e+000
1.453971e+003,7.114502e+000
1.454936e+003,7.529053e+000
1.455900e+003,8.285034e+000
1.456864e+003,9.654175e+000
1.457828e+003,1.132849e+001
1.458792e+003,1.256067e+001
1.459757e+003,1.388281e+001
1.460721e+003,1.785742e+001
1.461685e+003,2.171521e+001
1.462649e+003,1.860608e+001
1.463614e+003,7.738647e+000
1.464578e+003,-2.339111e+000
1.465542e+003,-4.237427e+000
1.466506e+003,-2.558594e-001
1.467471e+003,4.137573e+000
1.468435e+003,1.015271e+001
1.469399e+003,1.360461e+001
1.470363e+003,1.068909e+001
1.471328e+003,8.962158e+000
1.472292e+003,1.128662e+001
1.473256e+003,1.315918e+001
1.474220e+003,1.109937e+001
1.475184e+003,7.283691e+000
1.476149e+003,5.762817e+000
1.477113e+003,7.405762e+000
1.478077e+003,9.542358e+000
1.479041e+003,9.953003e+000
1.480006e+003,1.010779e+001
1.480970e+003,1.405225e+001
1.481934e+003,2.319214e+001
1.482898e+003,2.747595e+001
1.483863e+003,2.281055e+001
1.484827e+003,1.935754e+001
1.485791e+003,1.970044e+001
1.486755e+003,2.329407e+001
1.487719e+003,3.168860e+001
1.488684e+003,4.195679e+001
1.489648e+003,4.672217e+001
1.490612e+003,4.411377e+001
1.491576e+003,4.194971e+001
1.492541e+003,4.664105e+001
1.493505e+003,5.511938e+001
1.494469e+003,6.100146e+001
1.495433e+003,6.419507e+001
1.496398e+003,6.724756e+001
1.497362e+003,7.055896e+001
1.498326e+003,7.626233e+001
1.499290e+003,8.656958e+001
1.500255e+003,9.890637e+001
1.501219e+003,1.091042e+002
1.502183e+003,1.176140e+002
1.503147e+003,1.282844e+002
1.504111e+003,1.418459e+002
1.505076e+003,1.582634e+002
1.506040e+003,1.797175e+002
1.507004e+003,2.019933e+002
1.507968e+003,2.182671e+002
1.508933e+003,2.329349e+002
1.509897e+003,2.554193e+002
1.510861e+003,2.881678e+002
1.511825e+003,3.266048e+002
1.512790e+003,3.681154e+002
1.513754e+003,4.105580e+002
1.514718e+003,4.492629e+002
1.515682e+003,4.837286e+002
1.516646e+003,5.256565e+002
1.517611e+003,5.820649e+002
1.518575e+003,6.326953e+002
1.519539e+003,6.718014e+002
1.520503e+003,7.040656e+002
1.521468e+003,7.329630e+002
1.522432e+003,7.553632e+002
1.523396e+003,7.662341e+002
1.524360e+003,7.655615e+002
1.525325e+003,7.580737e+002
1.526289e+003,7.470667e+002
1.527253e+003,7.312909e+002
1.528217e+003,7.079763e+002
1.529182e+003,6.775586e+002
1.530146e+003,6.435570e+002
1.531110e+003,6.060181e+002
1.532074e+003,5.633054e+002
1.533039e+003,5.122215e+002
1.534003e+003,4.577090e+002
1.534967e+003,4.015385e+002
1.535931e+003,3.457816e+002
1.536896e+003,2.892300e+002
1.537860e+003,2.349376e+002
1.538824e+003,1.899270e+002
1.539788e+003,1.574434e+002
1.540752e+003,1.342451e+002
1.541717e+003,1.167866e+002
1.542681e+003,1.047399e+002
1.543645e+003,9.368317e+001
1.544609e+003,8.385895e+001
1.545573e+003,7.625140e+001
1.546538e+003,7.036255e+001
1.547502e+003,6.566235e+001
1.548466e+003,6.285132e+001
1.549430e+003,6.180115e+001
1.550395e+003,6.247498e+001
1.551359e+003,6.403210e+001
1.552323e+003,6.558777e+001
1.553287e+003,6.674109e+001
1.554252e+003,6.588214e+001
1.555216e+003,6.135150e+001
1.556180e+003,5.423358e+001
1.557144e+003,4.642957e+001
1.558109e+003,3.817200e+001
1.559073e+003,3.329614e+001
1.560037e+003,3.333020e+001
1.561001e+003,3.192578e+001
1.561966e+003,2.544934e+001
1.562930e+003,1.956689e+001
1.563894e+003,1.969360e+001
1.564858e+003,2.384735e+001
1.565823e+003,2.751703e+001
1.566787e+003,2.965570e+001
1.567751e+003,3.034448e+001
1.568715e+003,2.915894e+001
1.569679e+003,2.870837e+001
1.570644e+003,3.365283e+001
1.571608e+003,4.086646e+001
1.572572e+003,4.152380e+001
1.573536e+003,3.554578e+001
1.574500e+003,3.181958e+001
1.575465e+003,3.350104e+001
1.576429e+003,3.739813e+001
1.577393e+003,4.201947e+001
1.578357e+003,4.626147e+001
1.579322e+003,4.800232e+001
1.580286e+003,4.745117e+001
1.581250e+003,4.720874e+001
1.582214e+003,4.821631e+001
1.583179e+003,4.892957e+001
1.584143e+003,4.700806e+001
1.585107e+003,4.473853e+001
1.586071e+003,4.691986e+001
1.587036e+003,5.230780e+001
1.588000e+003,5.465594e+001
1.588964e+003,5.203113e+001
1.589928e+003,4.963916e+001
1.590893e+003,5.151746e+001
1.591857e+003,5.517102e+001
1.592821e+003,5.681946e+001
1.593785e+003,5.692395e+001
1.594750e+003,5.747388e+001
1.595714e+003,5.837439e+001
1.596678e+003,6.036859e+001
1.597642e+003,6.502618e+001
1.598606e+003,6.911591e+001
1.599571e+003,6.944849e+001
1.600535e+003,6.844299e+001
1.601499e+003,6.878052e+001
1.602463e+003,7.053381e+001
1.603427e+003,7.339136e+001
1.604392e+003,7.749475e+001
1.605356e+003,8.091736e+001
1.606320e+003,8.124634e+001
1.607284e+003,7.960345e+001
1.608249e+003,7.931915e+001
1.609213e+003,8.047003e+001
1.610177e+003,8.066650e+001
1.611141e+003,7.940356e+001
1.612106e+003,7.749292e+001
1.613070e+003,7.434558e+001
1.614034e+003,7.147668e+001
1.614998e+003,7.073328e+001
1.615963e+003,7.079285e+001
1.616927e+003,6.827356e+001
1.617891e+003,6.325580e+001
1.618855e+003,6.090961e+001
1.619820e+003,6.456439e+001
1.620784e+003,6.928235e+001
1.621748e+003,6.780920e+001
1.622712e+003,6.231335e+001
1.623677e+003,6.273364e+001
1.624641e+003,7.060889e+001
1.625605e+003,7.604468e+001
1.626569e+003,7.473816e+001
1.627533e+003,7.164941e+001
1.628498e+003,6.871027e+001
1.629462e+003,6.674921e+001
1.630426e+003,6.671429e+001
1.631390e+003,6.788452e+001
1.632354e+003,6.857227e+001
1.633319e+003,6.845703e+001
1.634283e+003,6.931348e+001
1.635247e+003,7.270105e+001
1.636211e+003,7.670349e+001
1.637176e+003,7.831824e+001
1.638140e+003,7.783960e+001
1.639104e+003,7.588617e+001
1.640068e+003,7.163019e+001
1.641033e+003,6.810748e+001
1.641997e+003,6.614990e+001
1.642961e+003,6.553662e+001
1.643925e+003,6.660535e+001
1.644890e+003,6.832922e+001
1.645854e+003,7.029126e+001
1.646818e+003,7.176392e+001
1.647782e+003,7.056421e+001
1.648747e+003,6.635364e+001
1.649711e+003,6.406561e+001
1.650675e+003,6.879852e+001
1.651639e+003,7.679572e+001
1.652604e+003,7.959155e+001
1.653568e+003,7.707458e+001
1.654532e+003,7.331091e+001
1.655496e+003,6.759424e+001
1.656460e+003,6.399646e+001
1.657425e+003,6.540039e+001
1.658389e+003,6.733179e+001
1.659353e+003,6.757349e+001
1.660317e+003,6.683502e+001
1.661281e+003,6.537433e+001
1.662246e+003,6.351007e+001
1.663210e+003,6.250330e+001
1.664174e+003,6.286243e+001
1.665138e+003,6.265808e+001
1.666103e+003,5.980811e+001
1.667067e+003,5.537952e+001
1.668031e+003,5.161877e+001
1.668995e+003,4.867126e+001
1.669960e+003,4.665283e+001
1.670924e+003,4.583075e+001
1.671888e+003,4.547528e+001
1.672852e+003,4.471051e+001
1.673817e+003,4.477771e+001
1.674781e+003,4.812134e+001
1.675745e+003,5.136084e+001
1.676709e+003,4.997180e+001
1.677674e+003,4.511499e+001
1.678638e+003,4.115088e+001
1.679602e+003,3.946924e+001
1.680566e+003,3.854480e+001
1.681531e+003,3.744159e+001
1.682495e+003,3.674823e+001
1.683459e+003,3.749677e+001
1.684423e+003,3.897571e+001
1.685387e+003,3.821289e+001
1.686352e+003,3.484485e+001
1.687316e+003,3.136768e+001
1.688280e+003,2.791138e+001
1.689244e+003,2.571320e+001
1.690208e+003,2.695435e+001
1.691173e+003,2.883746e+001
1.692137e+003,2.762579e+001
1.693101e+003,2.493762e+001
1.694065e+003,2.579419e+001
1.695030e+003,3.113245e+001
1.695994e+003,3.524884e+001
1.696958e+003,3.460382e+001
1.697922e+003,3.151495e+001
1.698887e+003,2.820892e+001
1.699851e+003,2.505505e+001
1.700815e+003,2.259784e+001
1.701779e+003,2.068604e+001
1.702744e+003,2.009857e+001
1.703708e+003,2.200305e+001
1.704672e+003,2.380457e+001
1.705636e+003,2.242761e+001
1.706601e+003,1.974042e+001
1.707565e+003,1.994885e+001
1.708529e+003,2.220453e+001
1.709493e+003,2.259326e+001
1.710458e+003,2.045593e+001
1.711422e+003,1.774963e+001
1.712386e+003,1.571002e+001
1.713350e+003,1.363275e+001
1.714314e+003,9.388611e+000
1.715279e+003,4.704224e+000
1.716243e+003,3.179565e+000
1.717207e+003,4.598694e+000
1.718171e+003,6.379456e+000
1.719135e+003,7.902710e+000
1.720100e+003,9.656433e+000
1.721064e+003,1.197418e+001
1.722028e+003,1.384839e+001
1.722992e+003,1.422638e+001
1.723957e+003,1.372546e+001
1.724921e+003,1.281702e+001
1.725885e+003,1.041986e+001
1.726849e+003,9.049194e+000
1.727814e+003,1.227722e+001
1.728778e+003,1.408264e+001
1.729742e+003,9.716003e+000
1.730706e+003,4.372131e+000
1.731671e+003,2.652527e+000
1.732635e+003,3.236938e+000
1.733599e+003,4.115479e+000
1.734563e+003,5.005066e+000
1.735528e+003,5.114319e+000
1.736492e+003,3.821777e+000
1.737456e+003,2.627625e+000
1.738420e+003,3.464600e+000
1.739385e+003,5.167603e+000
1.740349e+003,4.776489e+000
1.741313e+003,2.119446e+000
1.742277e+003,6.018066e-002
1.743241e+003,-9.679565e-001
1.744206e+003,-1.347778e+000
1.745170e+003,-5.844116e-001
1.746134e+003,-3.155518e-001
1.747098e+003,-1.979675e+000
1.748063e+003,-4.298157e+000
1.749027e+003,-6.101379e+000
1.749991e+003,-6.947571e+000
1.750955e+003,-6.262817e+000
1.751919e+003,-4.253418e+000
1.752884e+003,-2.778625e+000
1.753848e+003,-3.411316e+000
1.754812e+003,-4.793213e+000
1.755776e+003,-3.581360e+000
1.756741e+003,4.820557e-001
1.757705e+003,1.906433e+000
1.758669e+003,-9.523315e-001
1.759633e+003,-2.783997e+000
1.760598e+003,-3.313171e+000
1.761562e+003,-3.086548e+000
1.762526e+003,-3.988647e-001
1.763490e+003,1.947632e+000
1.764455e+003,1.516296e+000
1.765419e+003,-2.058105e-001
1.766383e+003,-1.088806e+000
1.767347e+003,-1.101624e+000
1.768312e+003,-1.300842e+000
1.769276e+003,-2.321838e+000
1.770240e+003,-3.558716e+000
1.771204e+003,-3.760315e+000
1.772168e+003,-2.936584e+000
1.773133e+003,-1.941772e+000
1.774097e+003,-8.573608e-001
1.775061e+003,-5.388794e-001
1.776025e+003,-1.742859e+000
1.776990e+003,-2.067261e+000
1.777954e+003,7.831421e-001
1.778918e+003,2.895020e+000
1.779882e+003,-5.326538e-001
1.780846e+003,-5.586365e+000
1.781811e+003,-6.360474e+000
1.782775e+003,-3.743103e+000
1.783739e+003,-6.807251e-001
1.784703e+003,2.746033e+000
1.785668e+003,4.688904e+000
1.786632e+003,2.800781e+000
1.787596e+003,1.609497e-001
1.788560e+003,-1.100464e-001
1.789525e+003,8.480835e-001
1.790489e+003,8.615112e-001
1.791453e+003,-1.687012e-001
1.792417e+003,-1.689758e+000
1.793382e+003,-3.364624e+000
1.794346e+003,-3.838379e+000
1.795310e+003,-2.365540e+000
1.796274e+003,-7.568970e-001
1.797239e+003,-9.099731e-001
1.798203e+003,-1.593750e+000
1.799167e+003,-6.717529e-001
1.800131e+003,1.072021e+000
1.801095e+003,3.070313e+000
1.802060e+003,8.091370e+000
1.803024e+003,1.075793e+001
1.803988e+003,8.826355e+000
1.804952e+003,5.900757e+000
1.805917e+003,2.688599e+000
1.806881e+003,1.129150e-001
1.807845e+003,-3.458252e-001
1.808809e+003,5.150146e-001
1.809773e+003,1.272949e+000
1.810738e+003,1.186401e+000
1.811702e+003,-1.328430e+000
1.812666e+003,-7.145447e+000
1.813630e+003,-1.155005e+001
1.814595e+003,-7.437134e+000
1.815559e+003,2.279907e+000
1.816523e+003,5.698181e+000
1.817487e+003,2.237915e+000
1.818452e+003,1.251221e-001
1.819416e+003,2.796631e-001
1.820380e+003,1.646179e+000
1.821344e+003,4.481140e+000
1.822309e+003,6.742859e+000
1.823273e+003,7.951233e+000
1.824237e+003,8.167725e+000
1.825201e+003,6.392273e+000
1.826166e+003,3.390503e+000
1.827130e+003,1.269592e+000
1.828094e+003,2.463379e-001
1.829058e+003,4.827881e-002
1.830022e+003,1.464600e+000
1.830987e+003,2.526917e+000
1.831951e+003,5.017700e-001
1.832915e+003,-2.051208e+000
1.833879e+003,-5.850830e-001
1.834844e+003,3.435059e+000
1.835808e+003,4.985779e+000
1.836772e+003,3.528137e+000
1.837736e+003,1.855164e+000
1.838700e+003,9.271240e-001
1.839665e+003,6.279907e-001
1.840629e+003,1.137024e+000
1.841593e+003,2.306946e+000
1.842557e+003,3.594788e+000
1.843522e+003,4.963318e+000
1.844486e+003,5.439819e+000
1.845450e+003,4.459839e+000
1.846414e+003,4.871765e+000
1.847379e+003,7.368774e+000
1.848343e+003,8.745850e+000
1.849307e+003,8.197815e+000
1.850271e+003,6.624390e+000
1.851236e+003,3.837036e+000
1.852200e+003,1.435364e+000
1.853164e+003,9.155884e-001
1.854128e+003,1.911255e+000
1.855093e+003,3.959473e+000
1.856057e+003,7.022278e+000
1.857021e+003,9.725037e+000
1.857985e+003,1.064740e+001
1.858949e+003,1.036359e+001
1.859914e+003,9.935486e+000
1.860878e+003,9.459656e+000
1.861842e+003,8.135437e+000
1.862806e+003,5.723633e+000
1.863771e+003,7.054016e+000
1.864735e+003,1.408691e+001
1.865699e+003,1.839929e+001
1.866663e+003,1.543793e+001
1.867627e+003,1.119629e+001
1.868592e+003,9.971863e+000
1.869556e+003,1.071906e+001
1.870520e+003,1.327509e+001
1.871484e+003,1.697205e+001
1.872449e+003,1.728564e+001
1.873413e+003,1.403333e+001
1.874377e+003,1.175977e+001
1.875341e+003,1.075757e+001
1.876306e+003,1.000421e+001
1.877270e+003,8.336182e+000
1.878234e+003,6.940186e+000
1.879198e+003,8.080811e+000
1.880163e+003,1.025629e+001
1.881127e+003,1.007556e+001
1.882091e+003,7.923767e+000
1.883055e+003,7.616821e+000
1.884020e+003,1.045941e+001
1.884984e+003,1.297467e+001
1.885948e+003,1.197241e+001
1.886912e+003,9.436401e+000
1.887876e+003,9.481750e+000
1.888841e+003,1.191248e+001
1.889805e+003,1.362958e+001
1.890769e+003,1.443866e+001
1.891733e+003,1.570392e+001
1.892698e+003,1.778479e+001
1.893662e+003,1.884338e+001
1.894626e+003,1.809631e+001
1.895590e+003,1.669122e+001
1.896554e+003,1.544366e+001
1.897519e+003,1.444287e+001
1.898483e+003,1.298041e+001
1.899447e+003,1.115015e+001
1.900411e+003,1.048004e+001
1.901376e+003,1.137769e+001
1.902340e+003,1.369043e+001
1.903304e+003,1.955731e+001
1.904268e+003,2.318750e+001
1.905233e+003,1.868121e+001
1.906197e+003,1.283832e+001
1.907161e+003,1.335645e+001
1.908125e+003,1.755518e+001
1.909090e+003,1.956329e+001
1.910054e+003,1.896844e+001
1.911018e+003,1.894916e+001
1.911982e+003,2.070258e+001
1.912947e+003,2.260291e+001
1.913911e+003,2.333038e+001
1.914875e+003,2.290094e+001
1.915839e+003,2.094513e+001
1.916803e+003,1.777338e+001
1.917768e+003,1.698438e+001
1.918732e+003,1.934534e+001
1.919696e+003,2.106830e+001
1.920660e+003,2.184412e+001
1.921625e+003,2.365411e+001
1.922589e+003,2.831708e+001
1.923553e+003,3.116498e+001
1.924517e+003,2.717657e+001
1.925481e+003,2.270709e+001
1.926446e+003,2.425549e+001
1.927410e+003,2.906372e+001
1.928374e+003,3.156555e+001
1.929338e+003,3.115131e+001
1.930303e+003,2.987262e+001
1.931267e+003,2.843134e+001
1.932231e+003,2.781976e+001
1.933195e+003,2.871100e+001
1.934160e+003,2.929901e+001
1.935124e+003,2.802234e+001
1.936088e+003,2.564130e+001
1.937052e+003,2.263696e+001
1.938017e+003,2.027515e+001
1.938981e+003,2.117078e+001
1.939945e+003,2.477704e+001
1.940909e+003,2.728259e+001
1.941874e+003,2.685339e+001
1.942838e+003,2.486414e+001
1.943802e+003,2.287103e+001
1.944766e+003,2.169177e+001
1.945730e+003,2.218243e+001
1.946695e+003,2.384418e+001
1.947659e+003,2.542426e+001
1.948623e+003,2.695978e+001
1.949587e+003,2.608844e+001
1.950552e+003,2.151526e+001
1.951516e+003,2.018396e+001
1.952480e+003,2.619910e+001
1.953444e+003,3.199310e+001
1.954408e+003,3.133716e+001
1.955373e+003,2.795978e+001
1.956337e+003,2.735931e+001
1.957301e+003,2.935846e+001
1.958265e+003,3.196771e+001
1.959230e+003,3.538013e+001
1.960194e+003,3.787427e+001
1.961158e+003,3.787897e+001
1.962122e+003,3.744958e+001
1.963087e+003,3.738196e+001
1.964051e+003,3.692212e+001
1.965015e+003,3.571680e+001
1.965979e+003,3.469373e+001
1.966944e+003,3.419995e+001
1.967908e+003,3.402002e+001
1.968872e+003,3.416559e+001
1.969836e+003,3.459674e+001
1.970801e+003,3.471326e+001
1.971765e+003,3.441052e+001
1.972729e+003,3.540967e+001
1.973693e+003,3.975281e+001
1.974657e+003,4.427643e+001
1.975622e+003,4.309424e+001
1.976586e+003,3.845477e+001
1.977550e+003,3.728571e+001
1.978514e+003,3.919147e+001
1.979479e+003,4.010388e+001
1.980443e+003,3.933295e+001
1.981407e+003,3.770575e+001
1.982371e+003,3.559796e+001
1.983335e+003,3.490332e+001
1.984300e+003,3.696277e+001
1.985264e+003,4.002655e+001
1.986228e+003,4.180139e+001
1.987192e+003,4.238586e+001
1.988157e+003,4.225226e+001
1.989121e+003,4.124945e+001
1.990085e+003,4.133942e+001
1.991049e+003,4.396967e+001
1.992014e+003,4.529211e+001
1.992978e+003,4.308618e+001
1.993942e+003,4.141089e+001
1.994906e+003,4.223981e+001
1.995871e+003,4.351190e+001
1.996835e+003,4.345251e+001
1.997799e+003,4.333344e+001
1.998763e+003,4.509717e+001
1.999728e+003,4.819867e+001
