5.003444e+002,3.383301e+001
5.013087e+002,3.292191e+001
5.022729e+002,3.301111e+001
5.032371e+002,3.383072e+001
5.042014e+002,3.360019e+001
5.051656e+002,3.253320e+001
5.061298e+002,3.148700e+001
5.070941e+002,3.123288e+001
5.080583e+002,3.192520e+001
5.090225e+002,3.192035e+001
5.099868e+002,3.055518e+001
5.109510e+002,2.938919e+001
5.119152e+002,2.944366e+001
5.128795e+002,3.086475e+001
5.138437e+002,3.193686e+001
5.148079e+002,3.285529e+001
5.157722e+002,3.272455e+001
5.167364e+002,2.984634e+001
5.177006e+002,2.478555e+001
5.186649e+002,2.058405e+001
5.196291e+002,2.255640e+001
5.205933e+002,2.686087e+001
5.215576e+002,2.885098e+001
5.225218e+002,2.795697e+001
5.234860e+002,2.558923e+001
5.244503e+002,2.449561e+001
5.254145e+002,2.551370e+001
5.263787e+002,2.515759e+001
5.273430e+002,2.210431e+001
5.283072e+002,1.856235e+001
5.292714e+002,1.772806e+001
5.302357e+002,2.107248e+001
5.311999e+002,2.354926e+001
5.321641e+002,2.515695e+001
5.331284e+002,2.586078e+001
5.340926e+002,2.515549e+001
5.350568e+002,2.264832e+001
5.360211e+002,2.004233e+001
5.369853e+002,1.935461e+001
5.379495e+002,1.942242e+001
5.389138e+002,1.922748e+001
5.398780e+002,1.836447e+001
5.408422e+002,1.721716e+001
5.418065e+002,1.697144e+001
5.427707e+002,1.750970e+001
5.437349e+002,1.823349e+001
5.446992e+002,1.906573e+001
5.456634e+002,1.988229e+001
5.466276e+002,2.031378e+001
5.475919e+002,2.003790e+001
5.485561e+002,1.986578e+001
5.495203e+002,2.015305e+001
5.504846e+002,2.031305e+001
5.514488e+002,1.949271e+001
5.524130e+002,1.713858e+001
5.533773e+002,1.457541e+001
5.543415e+002,1.203381e+001
5.553057e+002,9.913269e+000
5.562700e+002,8.562592e+000
5.572342e+002,8.174225e+000
5.581984e+002,8.645660e+000
5.591627e+002,1.058127e+001
5.601269e+002,1.333246e+001
5.610911e+002,1.515509e+001
5.620554e+002,1.505487e+001
5.630196e+002,1.318140e+001
5.639838e+002,1.145731e+001
5.649481e+002,9.499023e+000
5.659123e+002,8.245667e+000
5.668765e+002,8.370453e+000
5.678408e+002,9.573975e+000
5.688050e+002,1.074274e+001
5.697692e+002,1.137119e+001
5.707335e+002,1.171686e+001
5.716977e+002,1.204596e+001
5.726619e+002,1.224283e+001
5.736262e+002,1.210959e+001
5.745904e+002,1.149881e+001
5.755546e+002,1.070554e+001
5.765189e+002,1.001694e+001
5.774831e+002,9.284332e+000
5.784473e+002,8.405457e+000
5.794116e+002,7.391327e+000
5.803758e+002,6.402161e+000
5.813400e+002,6.129028e+000
5.823043e+002,6.533875e+000
5.832685e+002,6.805054e+000
5.842327e+002,6.799408e+000
5.851970e+002,6.664948e+000
5.861612e+002,6.628693e+000
5.871254e+002,6.085602e+000
5.880897e+002,6.170105e+000
5.890539e+002,7.828308e+000
5.900181e+002,1.002438e+001
5.909824e+002,1.113004e+001
5.919466e+002,1.004889e+001
5.929108e+002,7.779755e+000
5.938751e+002,4.850677e+000
5.948393e+002,1.934265e+000
5.958035e+002,2.864380e-001
5.967678e+002,8.125305e-001
5.977320e+002,3.173981e+000
5.986962e+002,4.079773e+000
5.996605e+002,3.317352e+000
6.006247e+002,2.760529e+000
6.015889e+002,3.645325e+000
6.025532e+002,5.826141e+000
6.035174e+002,6.855774e+000
6.044816e+002,5.443665e+000
6.054459e+002,4.225403e+000
6.064101e+002,3.579559e+000
6.073743e+002,3.356628e+000
6.083386e+002,3.287537e+000
6.093028e+002,3.454803e+000
6.102670e+002,3.382568e+000
6.112313e+002,2.048645e+000
6.121955e+002,4.642334e-001
6.131597e+002,2.358398e-001
6.141240e+002,2.407135e+000
6.150882e+002,6.018372e+000
6.160524e+002,6.787933e+000
6.170167e+002,5.314697e+000
6.179809e+002,3.785034e+000
6.189451e+002,2.941010e+000
6.199094e+002,2.693115e+000
6.208736e+002,2.977020e+000
6.218378e+002,5.309052e+000
6.228021e+002,6.749542e+000
6.237663e+002,7.044678e+000
6.247305e+002,6.349579e+000
6.256948e+002,4.550232e+000
6.266590e+002,5.615540e-001
6.276232e+002,-2.498352e+000
6.285875e+002,-2.229462e+000
6.295517e+002,-3.688049e-001
6.305159e+002,1.351105e+000
6.314802e+002,1.908325e+000
6.324444e+002,1.649994e+000
6.334086e+002,1.524200e+000
6.343729e+002,1.652069e+000
6.353371e+002,2.263000e+000
6.363013e+002,3.537354e+000
6.372656e+002,5.070007e+000
6.382298e+002,5.533508e+000
6.391940e+002,3.515350e+000
6.401583e+002,2.088135e+000
6.411225e+002,1.842987e+000
6.420867e+002,2.266449e+000
6.430510e+002,2.765778e+000
6.440152e+002,3.237946e+000
6.449794e+002,2.970428e+000
6.459437e+002,1.506104e+000
6.469079e+002,-5.542603e-001
6.478721e+002,-3.282623e+000
6.488364e+002,-6.369080e+000
6.498006e+002,-8.625366e+000
6.507648e+002,-7.166138e+000
6.517291e+002,-3.434509e+000
6.526933e+002,-8.226624e-001
6.536575e+002,1.373291e-003
6.546218e+002,-1.763306e-001
6.555860e+002,2.626953e-001
6.565502e+002,2.449402e+000
6.575145e+002,2.427094e+000
6.584787e+002,-1.594299e+000
6.594429e+002,-6.064148e+000
6.604072e+002,-8.061829e+000
6.613714e+002,-6.989807e+000
6.623356e+002,-5.606476e+000
6.632999e+002,-4.967773e+000
6.642641e+002,-4.789398e+000
6.652283e+002,-5.056580e+000
6.661926e+002,-5.537262e+000
6.671568e+002,-5.864563e+000
6.681210e+002,-5.726349e+000
6.690853e+002,-5.155243e+000
6.700495e+002,-4.058167e+000
6.710137e+002,-2.477905e+000
6.719780e+002,-9.912720e-001
6.729422e+002,-2.468262e-001
6.739064e+002,-4.779053e-001
6.748707e+002,-4.947815e-001
6.758349e+002,3.164673e-001
6.767991e+002,5.388184e-001
6.777634e+002,-7.500916e-001
6.787276e+002,-3.173767e+000
6.796918e+002,-4.734528e+000
6.806561e+002,-4.072968e+000
6.816203e+002,-3.373047e+000
6.825845e+002,-4.084259e+000
6.835488e+002,-5.218781e+000
6.845130e+002,-4.737061e+000
6.854772e+002,-8.485107e-001
6.864415e+002,4.302185e+000
6.874057e+002,5.639435e+000
6.883699e+002,3.991699e+000
6.893342e+002,1.218140e+000
6.902984e+002,-1.781799e+000
6.912626e+002,-4.656769e+000
6.922269e+002,-5.348877e+000
6.931911e+002,-8.162537e-001
6.941553e+002,2.219818e+000
6.951196e+002,2.149078e+000
6.960838e+002,3.905029e-001
6.970480e+002,-6.690979e-001
6.980123e+002,-1.932068e-001
6.989765e+002,3.391113e-001
6.999407e+002,3.676758e-001
7.009050e+002,8.837891e-002
7.018692e+002,-4.428406e-001
7.028334e+002,-1.180420e+000
7.037977e+002,-1.997864e+000
7.047619e+002,-2.435577e+000
7.057261e+002,-2.692657e+000
7.066904e+002,-3.728699e+000
7.076546e+002,-5.697388e+000
7.086188e+002,-7.599915e+000
7.095831e+002,-7.810516e+000
7.105473e+002,-5.801697e+000
7.115115e+002,-3.828003e+000
7.124758e+002,-1.601807e+000
7.134400e+002,2.299805e-001
7.144042e+002,1.563599e+000
7.153685e+002,2.412872e+000
7.163327e+002,2.216736e+000
7.172969e+002,-7.213440e-001
7.182612e+002,-3.459045e+000
7.192254e+002,-5.091614e+000
7.201896e+002,-5.608826e+000
7.211539e+002,-5.170929e+000
7.221181e+002,-3.784882e+000
7.230823e+002,-1.836884e+000
7.240466e+002,-8.859253e-002
7.250108e+002,1.524963e+000
7.259750e+002,2.466217e+000
7.269393e+002,2.243988e+000
7.279035e+002,7.874451e-001
7.288677e+002,-1.051086e+000
7.298320e+002,-4.176483e+000
7.307962e+002,-5.807098e+000
7.317604e+002,-5.073303e+000
7.327247e+002,-2.969971e+000
7.336889e+002,-7.052612e-001
7.346531e+002,1.546936e+000
7.356174e+002,2.386536e+000
7.365816e+002,3.060303e-001
7.375458e+002,-2.121338e+000
7.385101e+002,-2.616699e+000
7.394743e+002,-8.560791e-001
7.404385e+002,1.318176e+000
7.414028e+002,8.451233e-001
7.423670e+002,-1.973633e+000
7.433312e+002,-3.856171e+000
7.442955e+002,-4.343842e+000
7.452597e+002,-3.792450e+000
7.462239e+002,-2.624298e+000
7.471882e+002,-7.615662e-001
7.481524e+002,1.055603e+000
7.491166e+002,3.248657e+000
7.500809e+002,4.488525e+000
7.510451e+002,3.692719e+000
7.520093e+002,1.433655e+000
7.529736e+002,-3.528748e-001
7.539378e+002,-8.150940e-001
7.549020e+002,9.030151e-002
7.558663e+002,3.758881e+000
7.568306e+002,8.053345e+000
7.577948e+002,9.752960e+000
7.587590e+002,6.996307e+000
7.597233e+002,1.366364e+000
7.606875e+002,-2.574707e+000
7.616517e+002,-4.818573e+000
7.626160e+002,-4.855072e+000
7.635802e+002,-1.727509e+000
7.645444e+002,2.980255e+000
7.655087e+002,5.976288e+000
7.664729e+002,6.833618e+000
7.674371e+002,6.460297e+000
7.684014e+002,3.569366e+000
7.693656e+002,9.137268e-001
7.703298e+002,8.768616e-001
7.712941e+002,3.441528e+000
7.722583e+002,5.381287e+000
7.732225e+002,3.416565e+000
7.741868e+002,7.117310e-001
7.751510e+002,-6.079102e-002
7.761152e+002,6.380005e-001
7.770795e+002,9.671326e-001
7.780437e+002,-7.432861e-001
7.790079e+002,-4.014648e+000
7.799722e+002,-3.536469e+000
7.809364e+002,1.033447e+000
7.819006e+002,4.608032e+000
7.828649e+002,4.371277e+000
7.838291e+002,1.802032e+000
7.847933e+002,1.899353e+000
7.857576e+002,7.437744e+000
7.867218e+002,1.056650e+001
7.876860e+002,8.827515e+000
7.886503e+002,5.623047e+000
7.896145e+002,3.580536e+000
7.905787e+002,3.448547e+000
7.915430e+002,4.121307e+000
7.925072e+002,4.389099e+000
7.934714e+002,4.610535e+000
7.944357e+002,5.875793e+000
7.953999e+002,8.025116e+000
7.963641e+002,9.647430e+000
7.973284e+002,9.041779e+000
7.982926e+002,6.048706e+000
7.992568e+002,3.783295e+000
8.002211e+002,1.915894e+000
8.011853e+002,3.155212e-001
8.021495e+002,-7.188110e-001
8.031138e+002,-1.058716e+000
8.040780e+002,-1.091034e+000
8.050422e+002,-1.555542e+000
8.060065e+002,-9.197083e-001
8.069707e+002,2.345917e+000
8.079349e+002,5.963684e+000
8.088992e+002,7.539215e+000
8.098634e+002,6.430359e+000
8.108276e+002,4.575256e+000
8.117919e+002,4.788361e+000
8.127561e+002,5.811920e+000
8.137203e+002,5.407898e+000
8.146846e+002,3.531799e+000
8.156488e+002,1.702789e+000
8.166130e+002,1.807922e+000
8.175773e+002,4.377350e+000
8.185415e+002,5.344574e+000
8.195057e+002,2.958099e+000
8.204700e+002,1.117279e+000
8.214342e+002,1.392151e+000
8.223984e+002,3.217072e+000
8.233627e+002,5.080566e+000
8.243269e+002,6.875061e+000
8.252911e+002,7.914063e+000
8.262554e+002,7.487762e+000
8.272196e+002,6.490326e+000
8.281838e+002,5.743744e+000
8.291481e+002,5.581360e+000
8.301123e+002,5.814331e+000
8.310765e+002,6.197540e+000
8.320408e+002,6.654419e+000
8.330050e+002,6.958710e+000
8.339692e+002,7.222504e+000
8.349335e+002,7.090881e+000
8.358977e+002,5.932709e+000
8.368619e+002,3.537628e+000
8.378262e+002,2.398438e+000
8.387904e+002,3.371460e+000
8.397546e+002,4.429535e+000
8.407189e+002,5.142456e+000
8.416831e+002,5.628845e+000
8.426473e+002,6.142822e+000
8.436116e+002,6.772491e+000
8.445758e+002,7.691284e+000
8.455400e+002,9.431244e+000
8.465043e+002,1.103238e+001
8.474685e+002,1.145221e+001
8.484327e+002,1.061011e+001
8.493970e+002,9.243256e+000
8.503612e+002,8.343811e+000
8.513254e+002,7.865051e+000
8.522897e+002,8.016937e+000
8.532539e+002,9.296509e+000
8.542181e+002,1.027478e+001
8.551824e+002,1.014819e+001
8.561466e+002,9.207550e+000
8.571108e+002,8.498138e+000
8.580751e+002,7.556366e+000
8.590393e+002,6.984222e+000
8.600035e+002,6.909882e+000
8.609678e+002,7.585419e+000
8.619320e+002,9.748505e+000
8.628962e+002,1.348450e+001
8.638605e+002,1.707111e+001
8.648247e+002,1.749966e+001
8.657889e+002,1.585483e+001
8.667532e+002,1.424823e+001
8.677174e+002,1.296088e+001
8.686816e+002,1.227625e+001
8.696459e+002,1.268097e+001
8.706101e+002,1.447412e+001
8.715743e+002,1.576660e+001
8.725386e+002,1.619751e+001
8.735028e+002,1.668027e+001
8.744670e+002,1.744876e+001
8.754313e+002,1.818094e+001
8.763955e+002,1.846045e+001
8.773597e+002,1.825546e+001
8.783240e+002,1.753674e+001
8.792882e+002,1.497412e+001
8.802524e+002,1.262680e+001
8.812167e+002,1.283020e+001
8.821809e+002,1.569733e+001
8.831451e+002,1.940894e+001
8.841094e+002,2.165387e+001
8.850736e+002,2.255670e+001
8.860378e+002,2.366766e+001
8.870021e+002,2.521063e+001
8.879663e+002,2.593890e+001
8.889305e+002,2.437659e+001
8.898948e+002,2.110556e+001
8.908590e+002,1.952078e+001
8.918232e+002,2.116330e+001
8.927875e+002,2.269281e+001
8.937517e+002,2.311005e+001
8.947159e+002,2.335129e+001
8.956802e+002,2.440604e+001
8.966444e+002,2.622040e+001
8.976086e+002,2.745660e+001
8.985729e+002,2.667053e+001
8.995371e+002,2.485095e+001
9.005013e+002,2.310229e+001
9.014656e+002,2.174640e+001
9.024298e+002,2.167300e+001
9.033940e+002,2.355884e+001
9.043583e+002,2.702646e+001
9.053225e+002,3.010706e+001
9.062867e+002,3.348941e+001
9.072510e+002,3.509216e+001
9.082152e+002,3.430231e+001
9.091794e+002,3.244687e+001
9.101437e+002,3.027872e+001
9.111079e+002,2.787659e+001
9.120721e+002,2.663632e+001
9.130364e+002,2.891083e+001
9.140006e+002,3.100436e+001
9.149648e+002,3.029358e+001
9.159291e+002,2.792825e+001
9.168933e+002,2.653885e+001
9.178575e+002,2.786716e+001
9.188218e+002,3.080804e+001
9.197860e+002,3.181784e+001
9.207502e+002,3.082343e+001
9.217145e+002,2.937204e+001
9.226787e+002,2.709052e+001
9.236429e+002,2.545432e+001
9.246072e+002,2.709317e+001
9.255714e+002,3.300781e+001
9.265356e+002,3.619760e+001
9.274999e+002,3.334540e+001
9.284641e+002,2.983701e+001
9.294283e+002,2.727728e+001
9.303926e+002,2.555399e+001
9.313568e+002,2.389398e+001
9.323210e+002,2.186551e+001
9.332853e+002,1.994644e+001
9.342495e+002,1.877176e+001
9.352137e+002,1.823895e+001
9.361780e+002,1.893051e+001
9.371422e+002,2.103793e+001
9.381064e+002,2.329614e+001
9.390707e+002,2.377640e+001
9.400349e+002,2.198901e+001
9.409991e+002,2.054379e+001
9.419634e+002,1.919098e+001
9.429276e+002,1.834695e+001
9.438918e+002,1.825122e+001
9.448561e+002,1.875732e+001
9.458203e+002,1.986597e+001
9.467845e+002,2.186145e+001
9.477488e+002,2.331619e+001
9.487130e+002,2.263379e+001
9.496772e+002,2.127530e+001
9.506415e+002,2.006760e+001
9.516057e+002,1.926593e+001
9.525699e+002,1.896225e+001
9.535342e+002,1.922748e+001
9.544984e+002,1.994009e+001
9.554626e+002,2.067160e+001
9.564269e+002,2.170093e+001
9.573911e+002,2.263507e+001
9.583553e+002,2.348914e+001
9.593196e+002,2.402756e+001
9.602838e+002,2.373184e+001
9.612480e+002,2.228174e+001
9.622123e+002,2.102405e+001
9.631765e+002,2.076770e+001
9.641407e+002,2.047900e+001
9.651050e+002,1.921585e+001
9.660692e+002,1.747479e+001
9.670334e+002,1.653992e+001
9.679977e+002,1.731525e+001
9.689619e+002,1.909253e+001
9.699261e+002,2.005197e+001
9.708904e+002,2.036884e+001
9.718546e+002,2.087708e+001
9.728188e+002,2.168536e+001
9.737831e+002,2.273441e+001
9.747473e+002,2.430756e+001
9.757115e+002,2.683148e+001
9.766758e+002,2.779688e+001
9.776400e+002,2.479462e+001
9.786042e+002,2.344717e+001
9.795685e+002,2.677493e+001
9.805327e+002,3.156845e+001
9.814969e+002,3.345352e+001
9.824612e+002,3.106967e+001
9.834254e+002,2.743344e+001
9.843896e+002,2.438904e+001
9.853539e+002,2.207422e+001
9.863181e+002,2.118222e+001
9.872823e+002,2.132849e+001
9.882466e+002,2.114102e+001
9.892108e+002,1.958276e+001
9.901750e+002,1.719403e+001
9.911393e+002,1.637146e+001
9.921035e+002,1.721808e+001
9.930677e+002,1.875467e+001
9.940320e+002,2.249698e+001
9.949962e+002,2.606754e+001
9.959604e+002,2.645782e+001
9.969247e+002,2.371704e+001
9.978889e+002,2.262930e+001
9.988531e+002,2.693463e+001
9.998174e+002,3.110400e+001
1.000782e+003,3.117084e+001
1.001746e+003,2.939395e+001
1.002710e+003,2.942285e+001
1.003674e+003,3.264944e+001
1.004639e+003,3.698752e+001
1.005603e+003,3.879382e+001
1.006567e+003,3.769934e+001
1.007531e+003,3.608783e+001
1.008495e+003,3.377286e+001
1.009460e+003,3.139899e+001
1.010424e+003,2.894131e+001
1.011388e+003,2.673544e+001
1.012352e+003,2.623264e+001
1.013317e+003,2.858081e+001
1.014281e+003,3.047183e+001
1.015245e+003,3.115488e+001
1.016209e+003,3.076035e+001
1.017174e+003,2.918332e+001
1.018138e+003,2.666449e+001
1.019102e+003,2.365683e+001
1.020066e+003,2.047665e+001
1.021031e+003,1.747894e+001
1.021995e+003,1.532178e+001
1.022959e+003,1.374036e+001
1.023923e+003,1.288034e+001
1.024887e+003,1.300198e+001
1.025852e+003,1.342389e+001
1.026816e+003,1.319650e+001
1.027780e+003,1.241660e+001
1.028744e+003,1.112170e+001
1.029709e+003,8.382172e+000
1.030673e+003,6.144379e+000
1.031637e+003,5.266388e+000
1.032601e+003,5.025391e+000
1.033566e+003,4.439758e+000
1.034530e+003,3.209930e+000
1.035494e+003,1.833893e+000
1.036458e+003,1.565552e-001
1.037422e+003,-9.106445e-001
1.038387e+003,7.273560e-001
1.039351e+003,4.756104e+000
1.040315e+003,8.637573e+000
1.041279e+003,1.065826e+001
1.042244e+003,1.098618e+001
1.043208e+003,9.923889e+000
1.044172e+003,5.412048e+000
1.045136e+003,2.825531e+000
1.046101e+003,3.776398e+000
1.047065e+003,5.210907e+000
1.048029e+003,4.957275e+000
1.048993e+003,3.327271e+000
1.049958e+003,2.277283e+000
1.050922e+003,2.912811e+000
1.051886e+003,4.162079e+000
1.052850e+003,5.352570e+000
1.053814e+003,6.180756e+000
1.054779e+003,5.689178e+000
1.055743e+003,3.933716e+000
1.056707e+003,2.675995e+000
1.057671e+003,4.166016e+000
1.058636e+003,8.396088e+000
1.059600e+003,1.061130e+001
1.060564e+003,9.650604e+000
1.061528e+003,8.904114e+000
1.062493e+003,8.994843e+000
1.063457e+003,9.059418e+000
1.064421e+003,7.909454e+000
1.065385e+003,5.531311e+000
1.066349e+003,4.036926e+000
1.067314e+003,5.167664e+000
1.068278e+003,6.765442e+000
1.069242e+003,7.364777e+000
1.070206e+003,7.408508e+000
1.071171e+003,7.641449e+000
1.072135e+003,8.286194e+000
1.073099e+003,8.915955e+000
1.074063e+003,8.959839e+000
1.075028e+003,8.456604e+000
1.075992e+003,7.223755e+000
1.076956e+003,3.995422e+000
1.077920e+003,1.933350e+000
1.078885e+003,3.223633e+000
1.079849e+003,6.275879e+000
1.080813e+003,8.137634e+000
1.081777e+003,8.357483e+000
1.082741e+003,7.893982e+000
1.083706e+003,6.456787e+000
1.084670e+003,4.763092e+000
1.085634e+003,3.040222e+000
1.086598e+003,1.406555e+000
1.087563e+003,-7.019043e-004
1.088527e+003,-1.027008e+000
1.089491e+003,-1.585144e+000
1.090455e+003,-1.719116e+000
1.091420e+003,-1.497162e+000
1.092384e+003,-1.011017e+000
1.093348e+003,-3.490295e-001
1.094312e+003,4.913940e-001
1.095276e+003,2.069489e+000
1.096241e+003,3.999969e+000
1.097205e+003,4.656403e+000
1.098169e+003,3.286041e+000
1.099133e+003,1.912750e+000
1.100098e+003,1.114624e+000
1.101062e+003,8.515930e-001
1.102026e+003,1.356049e+000
1.102990e+003,2.381134e+000
1.103955e+003,3.474915e+000
1.104919e+003,4.326508e+000
1.105883e+003,4.815948e+000
1.106847e+003,4.576019e+000
1.107812e+003,3.608948e+000
1.108776e+003,3.873901e+000
1.109740e+003,6.023651e+000
1.110704e+003,8.232330e+000
1.111668e+003,9.638763e+000
1.112633e+003,1.026843e+001
1.113597e+003,9.500641e+000
1.114561e+003,6.220093e+000
1.115525e+003,3.714661e+000
1.116490e+003,3.455811e+000
1.117454e+003,3.717377e+000
1.118418e+003,3.299286e+000
1.119382e+003,2.598785e+000
1.120347e+003,2.710663e+000
1.121311e+003,4.188446e+000
1.122275e+003,6.525970e+000
1.123239e+003,9.532837e+000
1.124203e+003,1.318518e+001
1.125168e+003,1.504398e+001
1.126132e+003,1.447568e+001
1.127096e+003,1.341104e+001
1.128060e+003,1.297250e+001
1.129025e+003,1.308859e+001
1.129989e+003,1.383167e+001
1.130953e+003,1.568146e+001
1.131917e+003,1.688974e+001
1.132882e+003,1.662329e+001
1.133846e+003,1.617401e+001
1.134810e+003,1.601764e+001
1.135774e+003,1.640952e+001
1.136739e+003,1.761502e+001
1.137703e+003,1.975961e+001
1.138667e+003,2.255371e+001
1.139631e+003,2.582880e+001
1.140595e+003,2.934485e+001
1.141560e+003,3.164630e+001
1.142524e+003,3.247260e+001
1.143488e+003,3.323853e+001
1.144452e+003,3.395990e+001
1.145417e+003,3.528281e+001
1.146381e+003,3.997202e+001
1.147345e+003,4.939139e+001
1.148309e+003,5.858273e+001
1.149274e+003,6.564902e+001
1.150238e+003,7.302881e+001
1.151202e+003,8.265652e+001
1.152166e+003,9.356030e+001
1.153130e+003,1.039648e+002
1.154095e+003,1.128053e+002
1.155059e+003,1.197495e+002
1.156023e+003,1.247425e+002
1.156987e+003,1.274875e+002
1.157952e+003,1.269241e+002
1.158916e+003,1.229749e+002
1.159880e+003,1.181322e+002
1.160844e+003,1.135273e+002
1.161809e+003,1.083944e+002
1.162773e+003,1.012440e+002
1.163737e+003,9.156766e+001
1.164701e+003,8.224060e+001
1.165666e+003,7.357138e+001
1.166630e+003,6.609622e+001
1.167594e+003,6.010269e+001
1.168558e+003,5.536462e+001
1.169522e+003,5.163712e+001
1.170487e+003,4.881949e+001
1.171451e+003,4.723306e+001
1.172415e+003,4.755261e+001
1.173379e+003,4.891473e+001
1.174344e+003,4.624991e+001
1.175308e+003,3.928516e+001
1.176272e+003,3.441220e+001
1.177236e+003,3.498810e+001
1.178201e+003,3.775165e+001
1.179165e+003,3.875748e+001
1.180129e+003,3.789066e+001
1.181093e+003,3.562390e+001
1.182057e+003,3.051248e+001
1.183022e+003,2.649106e+001
1.183986e+003,2.515564e+001
1.184950e+003,2.534802e+001
1.185914e+003,2.642068e+001
1.186879e+003,2.794522e+001
1.187843e+003,2.941141e+001
1.188807e+003,3.036365e+001
1.189771e+003,3.079102e+001
1.190736e+003,3.066843e+001
1.191700e+003,2.984854e+001
1.192664e+003,3.004865e+001
1.193628e+003,3.283630e+001
1.194593e+003,3.501852e+001
1.195557e+003,3.351688e+001
1.196521e+003,2.947061e+001
1.197485e+003,2.717468e+001
1.198449e+003,2.788010e+001
1.199414e+003,2.847867e+001
1.200378e+003,2.767957e+001
1.201342e+003,2.623907e+001
1.202306e+003,2.404684e+001
1.203271e+003,2.157159e+001
1.204235e+003,1.968329e+001
1.205199e+003,1.881064e+001
1.206163e+003,1.851962e+001
1.207128e+003,1.809021e+001
1.208092e+003,1.754242e+001
1.209056e+003,1.642999e+001
1.210020e+003,1.432132e+001
1.210984e+003,1.261972e+001
1.211949e+003,1.222018e+001
1.212913e+003,1.206342e+001
1.213877e+003,1.069449e+001
1.214841e+003,8.096588e+000
1.215806e+003,5.704803e+000
1.216770e+003,4.087067e+000
1.217734e+003,2.712982e+000
1.218698e+003,1.427856e+000
1.219663e+003,-1.077576e-001
1.220627e+003,-2.724426e+000
1.221591e+003,-6.196686e+000
1.222555e+003,-8.936798e+000
1.223520e+003,-9.401367e+000
1.224484e+003,-8.148834e+000
1.225448e+003,-8.173798e+000
1.226412e+003,-1.065817e+001
1.227376e+003,-1.180731e+001
1.228341e+003,-1.105011e+001
1.229305e+003,-9.761047e+000
1.230269e+003,-8.222229e+000
1.231233e+003,-6.824066e+000
1.232198e+003,-6.397125e+000
1.233162e+003,-7.150940e+000
1.234126e+003,-7.637360e+000
1.235090e+003,-6.246246e+000
1.236055e+003,-4.867126e+000
1.237019e+003,-5.815033e+000
1.237983e+003,-8.429169e+000
1.238947e+003,-1.078787e+001
1.239911e+003,-1.201511e+001
1.240876e+003,-1.258563e+001
1.241840e+003,-1.337329e+001
1.242804e+003,-1.445865e+001
1.243768e+003,-1.418631e+001
1.244733e+003,-1.072662e+001
1.245697e+003,-8.305023e+000
1.246661e+003,-8.092438e+000
1.247625e+003,-8.501251e+000
1.248590e+003,-8.335693e+000
1.249554e+003,-7.535217e+000
1.250518e+003,-6.652924e+000
1.251482e+003,-6.016785e+000
1.252447e+003,-5.380219e+000
1.253411e+003,-4.055145e+000
1.254375e+003,-2.504761e+000
1.255339e+003,-1.933167e+000
1.256303e+003,-2.293640e+000
1.257268e+003,-2.743744e+000
1.258232e+003,-3.114075e+000
1.259196e+003,-3.213501e+000
1.260160e+003,-2.153900e+000
1.261125e+003,5.196228e-001
1.262089e+003,2.290283e+000
1.263053e+003,2.470306e+000
1.264017e+003,1.877411e+000
1.264982e+003,-3.762817e-002
1.265946e+003,-1.981415e+000
1.266910e+003,-2.955963e+000
1.267874e+003,-2.776917e+000
1.268839e+003,-1.227173e+000
1.269803e+003,1.897247e+000
1.270767e+003,4.905029e+000
1.271731e+003,4.079102e+000
1.272695e+003,-3.922424e-001
1.273660e+003,-3.156433e+000
1.274624e+003,-3.972137e+000
1.275588e+003,-3.975128e+000
1.276552e+003,-3.527588e+000
1.277517e+003,-2.521332e+000
1.278481e+003,-2.964172e-001
1.279445e+003,3.375031e+000
1.280409e+003,4.765900e+000
1.281374e+003,9.384155e-001
1.282338e+003,-3.122101e+000
1.283302e+003,-4.961029e+000
1.284266e+003,-5.555664e+000
1.285230e+003,-5.882202e+000
1.286195e+003,-6.251556e+000
1.287159e+003,-6.585999e+000
1.288123e+003,-6.763672e+000
1.289087e+003,-6.753845e+000
1.290052e+003,-6.727875e+000
1.291016e+003,-6.812653e+000
1.291980e+003,-6.796936e+000
1.292944e+003,-6.640350e+000
1.293909e+003,-6.685760e+000
1.294873e+003,-7.185883e+000
1.295837e+003,-7.682709e+000
1.296801e+003,-7.226898e+000
1.297766e+003,-5.856445e+000
1.298730e+003,-5.568085e+000
1.299694e+003,-8.034576e+000
1.300658e+003,-1.102695e+001
1.301622e+003,-1.209079e+001
1.302587e+003,-1.189145e+001
1.303551e+003,-1.124899e+001
1.304515e+003,-1.034863e+001
1.305479e+003,-9.584351e+000
1.306444e+003,-9.463684e+000
1.307408e+003,-9.649628e+000
1.308372e+003,-8.690460e+000
1.309336e+003,-6.066498e+000
1.310301e+003,-3.938904e+000
1.311265e+003,-1.824402e+000
1.312229e+003,-7.778015e-001
1.313193e+003,-1.767242e+000
1.314157e+003,-3.630920e+000
1.315122e+003,-5.479797e+000
1.316086e+003,-6.986633e+000
1.317050e+003,-7.736084e+000
1.318014e+003,-7.307312e+000
1.318979e+003,-6.717926e+000
1.319943e+003,-8.517456e+000
1.320907e+003,-1.207230e+001
1.321871e+003,-1.222607e+001
1.322836e+003,-7.954956e+000
1.323800e+003,-3.876190e+000
1.324764e+003,-2.470367e+000
1.325728e+003,-2.696869e+000
1.326693e+003,-2.966736e+000
1.327657e+003,-3.306702e+000
1.328621e+003,-3.900848e+000
1.329585e+003,-4.852081e+000
1.330549e+003,-5.176788e+000
1.331514e+003,-4.502899e+000
1.332478e+003,-3.555847e+000
1.333442e+003,-2.425781e+000
1.334406e+003,-1.501404e+000
1.335371e+003,-2.145721e+000
1.336335e+003,-5.070740e+000
1.337299e+003,-8.258636e+000
1.338263e+003,-7.725433e+000
1.339228e+003,-2.819427e+000
1.340192e+003,-2.850647e-001
1.341156e+003,-1.727722e+000
1.342120e+003,-2.996643e+000
1.343084e+003,-3.444702e+000
1.344049e+003,-3.823395e+000
1.345013e+003,-4.707947e+000
1.345977e+003,-5.879639e+000
1.346941e+003,-6.815033e+000
1.347906e+003,-7.358032e+000
1.348870e+003,-7.372375e+000
1.349834e+003,-6.281311e+000
1.350798e+003,-5.063995e+000
1.351763e+003,-5.826965e+000
1.352727e+003,-8.101776e+000
1.353691e+003,-9.241180e+000
1.354655e+003,-8.109131e+000
1.355620e+003,-6.120331e+000
1.356584e+003,-4.708588e+000
1.357548e+003,-3.818512e+000
1.358512e+003,-3.322174e+000
1.359476e+003,-3.178375e+000
1.360441e+003,-4.031891e+000
1.361405e+003,-7.118774e+000
1.362369e+003,-9.902283e+000
1.363333e+003,-1.126279e+001
1.364298e+003,-1.146985e+001
1.365262e+003,-1.080045e+001
1.366226e+003,-9.528503e+000
1.367190e+003,-8.118164e+000
1.368155e+003,-6.973480e+000
1.369119e+003,-6.118073e+000
1.370083e+003,-5.592834e+000
1.371047e+003,-5.272705e+000
1.372011e+003,-5.711975e+000
1.372976e+003,-8.369720e+000
1.373940e+003,-1.013217e+001
1.374904e+003,-9.357910e+000
1.375868e+003,-7.276520e+000
1.376833e+003,-4.963959e+000
1.377797e+003,-2.836304e+000
1.378761e+003,-2.175903e+000
1.379725e+003,-3.870758e+000
1.380690e+003,-5.946228e+000
1.381654e+003,-6.637329e+000
1.382618e+003,-6.222504e+000
1.383582e+003,-4.537140e+000
1.384547e+003,-1.875336e+000
1.385511e+003,9.295654e-002
1.386475e+003,4.617004e-001
1.387439e+003,-2.625427e-001
1.388403e+003,-1.600098e+000
1.389368e+003,-3.559814e+000
1.390332e+003,-4.654236e+000
1.391296e+003,-4.421112e+000
1.392260e+003,-3.961548e+000
1.393225e+003,-3.497925e+000
1.394189e+003,-3.006989e+000
1.395153e+003,-2.197601e+000
1.396117e+003,-1.463989e+000
1.397082e+003,-1.575409e+000
1.398046e+003,-2.528137e+000
1.399010e+003,-3.369324e+000
1.399974e+003,-3.304474e+000
1.400938e+003,-2.679962e+000
1.401903e+003,-2.084229e+000
1.402867e+003,-1.017944e+000
1.403831e+003,-6.608887e-001
1.404795e+003,-2.473358e+000
1.405760e+003,-3.360413e+000
1.406724e+003,-1.465881e+000
1.407688e+003,8.957520e-001
1.408652e+003,1.074524e+000
1.409617e+003,-6.388855e-001
1.410581e+003,-2.127502e+000
1.411545e+003,-2.585236e+000
1.412509e+003,-2.544617e+000
1.413474e+003,-2.545471e+000
1.414438e+003,-2.553131e+000
1.415402e+003,-2.074066e+000
1.416366e+003,-1.120758e+000
1.417330e+003,-4.618835e-001
1.418295e+003,-3.851929e-001
1.419259e+003,-7.236633e-001
1.420223e+003,-1.576477e+000
1.421187e+003,-2.883881e+000
1.422152e+003,-3.803925e+000
1.423116e+003,-4.318390e+000
1.424080e+003,-3.917664e+000
1.425044e+003,-1.194214e+000
1.426009e+003,8.210144e-001
1.426973e+003,-1.573181e-001
1.427937e+003,-1.944794e+000
1.428901e+003,-1.331055e+000
1.429865e+003,1.490936e+000
1.430830e+003,3.294830e+000
1.431794e+003,1.922150e+000
1.432758e+003,-8.438721e-001
1.433722e+003,-1.251099e+000
1.434687e+003,1.121368e+000
1.435651e+003,2.985382e+000
1.436615e+003,3.884491e+000
1.437579e+003,4.013947e+000
1.438544e+003,2.699707e+000
1.439508e+003,1.441315e+000
1.440472e+003,1.468536e+000
1.441436e+003,2.376801e+000
1.442401e+003,3.160248e+000
1.443365e+003,3.530151e+000
1.444329e+003,3.921173e+000
1.445293e+003,4.749695e+000
1.446257e+003,5.684082e+000
1.447222e+003,5.892212e+000
1.448186e+003,5.512787e+000
1.449150e+003,5.632416e+000
1.450114e+003,6.740601e+000
1.451079e+003,6.543732e+000
1.452043e+003,2.379364e+000
1.453007e+003,-2.509430e+000
1.453971e+003,-3.244446e+000
1.454936e+003,-4.038391e-001
1.455900e+003,1.536163e+000
1.456864e+003,1.466614e+000
1.457828e+003,1.374756e+000
1.458792e+003,2.772888e+000
1.459757e+003,4.081299e+000
1.460721e+003,3.627380e+000
1.461685e+003,2.196136e+000
1.462649e+003,1.575989e+000
1.463614e+003,2.241150e+000
1.464578e+003,3.169342e+000
1.465542e+003,3.440643e+000
1.466506e+003,3.157104e+000
1.467471e+003,2.721863e+000
1.468435e+003,2.221008e+000
1.469399e+003,1.946472e+000
1.470363e+003,1.779999e+000
1.471328e+003,1.701324e+000
1.472292e+003,9.589844e-001
1.473256e+003,7.221375e-001
1.474220e+003,2.815430e+000
1.475184e+003,6.062866e+000
1.476149e+003,7.924683e+000
1.477113e+003,7.576813e+000
1.478077e+003,6.323364e+000
1.479041e+003,5.489838e+000
1.480006e+003,5.317474e+000
1.480970e+003,6.474457e+000
1.481934e+003,9.617249e+000
1.482898e+003,1.050665e+001
1.483863e+003,6.946686e+000
1.484827e+003,4.417175e+000
1.485791e+003,5.056671e+000
1.486755e+003,6.945374e+000
1.487719e+003,8.207550e+000
1.488684e+003,9.033600e+000
1.489648e+003,1.106668e+001
1.490612e+003,1.480612e+001
1.491576e+003,1.745367e+001
1.492541e+003,1.613696e+001
1.493505e+003,1.310477e+001
1.494469e+003,1.395319e+001
1.495433e+003,1.772348e+001
1.496398e+003,1.908319e+001
1.497362e+003,1.665976e+001
1.498326e+003,1.502133e+001
1.499290e+003,1.673645e+001
1.500255e+003,2.036795e+001
1.501219e+003,2.442575e+001
1.502183e+003,2.865521e+001
1.503147e+003,3.201984e+001
1.504111e+003,3.399542e+001
1.505076e+003,3.666446e+001
1.506040e+003,4.179449e+001
1.507004e+003,4.764926e+001
1.507968e+003,5.220599e+001
1.508933e+003,5.621008e+001
1.509897e+003,6.093039e+001
1.510861e+003,6.691052e+001
1.511825e+003,7.508038e+001
1.512790e+003,8.654700e+001
1.513754e+003,9.928967e+001
1.514718e+003,1.095388e+002
1.515682e+003,1.171717e+002
1.516646e+003,1.248990e+002
1.517611e+003,1.330558e+002
1.518575e+003,1.414038e+002
1.519539e+003,1.508214e+002
1.520503e+003,1.597039e+002
1.521468e+003,1.678822e+002
1.522432e+003,1.745141e+002
1.523396e+003,1.787157e+002
1.524360e+003,1.802583e+002
1.525325e+003,1.791053e+002
1.526289e+003,1.752734e+002
1.527253e+003,1.700880e+002
1.528217e+003,1.661207e+002
1.529182e+003,1.635497e+002
1.530146e+003,1.572384e+002
1.531110e+003,1.450928e+002
1.532074e+003,1.327101e+002
1.533039e+003,1.199357e+002
1.534003e+003,1.070884e+002
1.534967e+003,9.411862e+001
1.535931e+003,8.188251e+001
1.536896e+003,7.136008e+001
1.537860e+003,6.245706e+001
1.538824e+003,5.421756e+001
1.539788e+003,4.608383e+001
1.540752e+003,3.849417e+001
1.541717e+003,3.206778e+001
1.542681e+003,2.687067e+001
1.543645e+003,2.264145e+001
1.544609e+003,1.984665e+001
1.545573e+003,1.734491e+001
1.546538e+003,1.413919e+001
1.547502e+003,1.209784e+001
1.548466e+003,1.309390e+001
1.549430e+003,1.496637e+001
1.550395e+003,1.523444e+001
1.551359e+003,1.421024e+001
1.552323e+003,1.382312e+001
1.553287e+003,1.471960e+001
1.554252e+003,1.560632e+001
1.555216e+003,1.537903e+001
1.556180e+003,1.423895e+001
1.557144e+003,1.256686e+001
1.558109e+003,1.039789e+001
1.559073e+003,8.095398e+000
1.560037e+003,5.078003e+000
1.561001e+003,2.735565e+000
1.561966e+003,1.481171e+000
1.562930e+003,1.493317e+000
1.563894e+003,3.782410e+000
1.564858e+003,7.083466e+000
1.565823e+003,7.956573e+000
1.566787e+003,5.928986e+000
1.567751e+003,5.173737e+000
1.568715e+003,8.487000e+000
1.569679e+003,1.283310e+001
1.570644e+003,1.457367e+001
1.571608e+003,1.408258e+001
1.572572e+003,1.257703e+001
1.573536e+003,1.013995e+001
1.574500e+003,8.479340e+000
1.575465e+003,8.083527e+000
1.576429e+003,8.619568e+000
1.577393e+003,1.070767e+001
1.578357e+003,1.307910e+001
1.579322e+003,1.276346e+001
1.580286e+003,9.901062e+000
1.581250e+003,8.465973e+000
1.582214e+003,1.002469e+001
1.583179e+003,1.181351e+001
1.584143e+003,1.146082e+001
1.585107e+003,1.040903e+001
1.586071e+003,1.131079e+001
1.587036e+003,1.343945e+001
1.588000e+003,1.362054e+001
1.588964e+003,1.091486e+001
1.589928e+003,8.750732e+000
1.590893e+003,9.784515e+000
1.591857e+003,1.230176e+001
1.592821e+003,1.402097e+001
1.593785e+003,1.498511e+001
1.594750e+003,1.528128e+001
1.595714e+003,1.481952e+001
1.596678e+003,1.380963e+001
1.597642e+003,1.174872e+001
1.598606e+003,1.007660e+001
1.599571e+003,9.842590e+000
1.600535e+003,1.076636e+001
1.601499e+003,1.315527e+001
1.602463e+003,1.645956e+001
1.603427e+003,1.834512e+001
1.604392e+003,1.776086e+001
1.605356e+003,1.655206e+001
1.606320e+003,1.676990e+001
1.607284e+003,1.776831e+001
1.608249e+003,1.748892e+001
1.609213e+003,1.587686e+001
1.610177e+003,1.474860e+001
1.611141e+003,1.446863e+001
1.612106e+003,1.454031e+001
1.613070e+003,1.570993e+001
1.614034e+003,1.617395e+001
1.614998e+003,1.331238e+001
1.615963e+003,9.373047e+000
1.616927e+003,8.574097e+000
1.617891e+003,1.117462e+001
1.618855e+003,1.375894e+001
1.619820e+003,1.430151e+001
1.620784e+003,1.350208e+001
1.621748e+003,1.229550e+001
1.622712e+003,1.096808e+001
1.623677e+003,1.013742e+001
1.624641e+003,9.874847e+000
1.625605e+003,9.814301e+000
1.626569e+003,9.583679e+000
1.627533e+003,9.350555e+000
1.628498e+003,9.201752e+000
1.629462e+003,9.384247e+000
1.630426e+003,9.979431e+000
1.631390e+003,1.104333e+001
1.632354e+003,1.321979e+001
1.633319e+003,1.636133e+001
1.634283e+003,1.803482e+001
1.635247e+003,1.607541e+001
1.636211e+003,1.268228e+001
1.637176e+003,1.218057e+001
1.638140e+003,1.438129e+001
1.639104e+003,1.523761e+001
1.640068e+003,1.414749e+001
1.641033e+003,1.337497e+001
1.641997e+003,1.396405e+001
1.642961e+003,1.441333e+001
1.643925e+003,1.358618e+001
1.644890e+003,1.255838e+001
1.645854e+003,1.249637e+001
1.646818e+003,1.309805e+001
1.647782e+003,1.325696e+001
1.648747e+003,1.267633e+001
1.649711e+003,1.244363e+001
1.650675e+003,1.370084e+001
1.651639e+003,1.561575e+001
1.652604e+003,1.629715e+001
1.653568e+003,1.570667e+001
1.654532e+003,1.464481e+001
1.655496e+003,1.285181e+001
1.656460e+003,1.170380e+001
1.657425e+003,1.228058e+001
1.658389e+003,1.277725e+001
1.659353e+003,1.187625e+001
1.660317e+003,1.063705e+001
1.661281e+003,1.014441e+001
1.662246e+003,1.030472e+001
1.663210e+003,1.066266e+001
1.664174e+003,1.109647e+001
1.665138e+003,1.143588e+001
1.666103e+003,1.140518e+001
1.667067e+003,1.122656e+001
1.668031e+003,1.155316e+001
1.668995e+003,1.235883e+001
1.669960e+003,1.288986e+001
1.670924e+003,1.326486e+001
1.671888e+003,1.271704e+001
1.672852e+003,1.008737e+001
1.673817e+003,7.652161e+000
1.674781e+003,6.727905e+000
1.675745e+003,6.788513e+000
1.676709e+003,7.786926e+000
1.677674e+003,9.221863e+000
1.678638e+003,9.740967e+000
1.679602e+003,8.932495e+000
1.680566e+003,7.873505e+000
1.681531e+003,7.433014e+000
1.682495e+003,7.358673e+000
1.683459e+003,6.969147e+000
1.684423e+003,6.312805e+000
1.685387e+003,6.384735e+000
1.686352e+003,7.481171e+000
1.687316e+003,7.886780e+000
1.688280e+003,6.615387e+000
1.689244e+003,5.352783e+000
1.690208e+003,6.042206e+000
1.691173e+003,6.838654e+000
1.692137e+003,5.240082e+000
1.693101e+003,2.124420e+000
1.694065e+003,1.925964e-001
1.695030e+003,-1.037598e-003
1.695994e+003,5.157166e-001
1.696958e+003,1.486725e+000
1.697922e+003,2.529877e+000
1.698887e+003,2.942108e+000
1.699851e+003,3.107483e+000
1.700815e+003,4.432129e+000
1.701779e+003,6.913940e+000
1.702744e+003,8.273712e+000
1.703708e+003,7.837036e+000
1.704672e+003,6.569366e+000
1.705636e+003,4.451080e+000
1.706601e+003,2.239929e+000
1.707565e+003,1.555847e+000
1.708529e+003,1.976044e+000
1.709493e+003,1.755371e+000
1.710458e+003,5.591125e-001
1.711422e+003,-1.739502e-001
1.712386e+003,7.923279e-001
1.713350e+003,1.854523e+000
1.714314e+003,1.388733e+000
1.715279e+003,1.416626e-001
1.716243e+003,-7.254333e-001
1.717207e+003,-1.037720e+000
1.718171e+003,-3.263245e-001
1.719135e+003,1.561859e+000
1.720100e+003,2.384857e+000
1.721064e+003,1.258545e-001
1.722028e+003,-2.590759e+000
1.722992e+003,-1.519958e+000
1.723957e+003,2.650879e+000
1.724921e+003,5.245087e+000
1.725885e+003,6.057861e+000
1.726849e+003,5.548737e+000
1.727814e+003,2.739594e+000
1.728778e+003,5.241699e-001
1.729742e+003,4.808350e-001
1.730706e+003,1.179657e+000
1.731671e+003,1.196686e+000
1.732635e+003,6.082458e-001
1.733599e+003,6.115723e-002
1.734563e+003,-1.727905e-001
1.735528e+003,-3.216553e-002
1.736492e+003,4.498901e-001
1.737456e+003,5.140991e-001
1.738420e+003,-8.985901e-001
1.739385e+003,-3.159821e+000
1.740349e+003,-3.479980e+000
1.741313e+003,-1.219421e+000
1.742277e+003,2.187195e-001
1.743241e+003,6.034851e-001
1.744206e+003,8.070984e-001
1.745170e+003,8.179321e-001
1.746134e+003,6.664124e-001
1.747098e+003,5.192566e-001
1.748063e+003,8.712769e-002
1.749027e+003,-1.408661e+000
1.749991e+003,-3.369141e+000
1.750955e+003,-4.384491e+000
1.751919e+003,-3.974030e+000
1.752884e+003,-2.377441e+000
1.753848e+003,2.494812e-001
1.754812e+003,2.799835e+000
1.755776e+003,2.986511e+000
1.756741e+003,1.007416e+000
1.757705e+003,-3.715210e-001
1.758669e+003,-1.116058e+000
1.759633e+003,-1.673798e+000
1.760598e+003,-2.508789e+000
1.761562e+003,-2.708008e+000
1.762526e+003,-8.448486e-001
1.763490e+003,7.910767e-001
1.764455e+003,2.331238e-001
1.765419e+003,-1.416229e+000
1.766383e+003,-2.661499e+000
1.767347e+003,-3.177460e+000
1.768312e+003,-2.790985e+000
1.769276e+003,-1.431702e+000
1.770240e+003,-1.437378e-001
1.771204e+003,2.578735e-001
1.772168e+003,-5.139160e-002
1.773133e+003,-1.376617e+000
1.774097e+003,-3.516571e+000
1.775061e+003,-4.137909e+000
1.776025e+003,-2.907806e+000
1.776990e+003,-1.963440e+000
1.777954e+003,-1.954285e+000
1.778918e+003,-2.068726e+000
1.779882e+003,-1.683350e+000
1.780846e+003,-1.373077e+000
1.781811e+003,-2.248047e+000
1.782775e+003,-3.679840e+000
1.783739e+003,-3.320251e+000
1.784703e+003,-5.715942e-001
1.785668e+003,1.274078e+000
1.786632e+003,2.478943e-001
1.787596e+003,-1.576447e+000
1.788560e+003,-2.910858e+000
1.789525e+003,-3.634308e+000
1.790489e+003,-3.697815e+000
1.791453e+003,-3.226807e+000
1.792417e+003,-2.081848e+000
1.793382e+003,-4.025269e-001
1.794346e+003,2.757874e-001
1.795310e+003,-9.538574e-001
1.796274e+003,-2.575775e+000
1.797239e+003,-2.833984e+000
1.798203e+003,-1.818634e+000
1.799167e+003,-9.655762e-002
1.800131e+003,2.452240e+000
1.801095e+003,3.057617e+000
1.802060e+003,5.194092e-001
1.803024e+003,-1.342773e+000
1.803988e+003,-2.427612e+000
1.804952e+003,-2.629974e+000
1.805917e+003,-1.011444e+000
1.806881e+003,7.521973e-001
1.807845e+003,1.148560e+000
1.808809e+003,3.883667e-001
1.809773e+003,-1.214966e+000
1.810738e+003,-3.161041e+000
1.811702e+003,-4.086823e+000
1.812666e+003,-3.168365e+000
1.813630e+003,-1.159668e+000
1.814595e+003,1.220947e+000
1.815559e+003,3.426941e+000
1.816523e+003,2.874969e+000
1.817487e+003,-7.779846e-001
1.818452e+003,-2.857269e+000
1.819416e+003,-2.617889e+000
1.820380e+003,-1.975159e+000
1.821344e+003,-1.490234e+000
1.822309e+003,-9.094238e-001
1.823273e+003,4.172974e-001
1.824237e+003,1.705475e+000
1.825201e+003,1.868835e+000
1.826166e+003,1.246674e+000
1.827130e+003,9.573364e-001
1.828094e+003,1.137878e+000
1.829058e+003,9.315491e-001
1.830022e+003,-4.819336e-001
1.830987e+003,-1.292297e+000
1.831951e+003,1.553741e+000
1.832915e+003,4.792572e+000
1.833879e+003,2.468323e+000
1.834844e+003,-3.459839e+000
1.835808e+003,-6.296387e+000
1.836772e+003,-5.213379e+000
1.837736e+003,-4.181763e+000
1.838700e+003,-4.993652e+000
1.839665e+003,-5.780518e+000
1.840629e+003,-4.662415e+000
1.841593e+003,-2.684753e+000
1.842557e+003,-2.280457e+000
1.843522e+003,-3.421814e+000
1.844486e+003,-3.356384e+000
1.845450e+003,-8.173218e-001
1.846414e+003,7.994080e-001
1.847379e+003,7.361450e-001
1.848343e+003,3.714905e-001
1.849307e+003,5.082092e-001
1.850271e+003,2.074280e-001
1.851236e+003,-2.087158e+000
1.852200e+003,-4.584412e+000
1.853164e+003,-4.562958e+000
1.854128e+003,-2.559784e+000
1.855093e+003,-1.262299e+000
1.856057e+003,-1.499725e+000
1.857021e+003,-1.408966e+000
1.857985e+003,6.952209e-001
1.858949e+003,2.966949e+000
1.859914e+003,1.515167e+000
1.860878e+003,-2.664825e+000
1.861842e+003,-3.895721e+000
1.862806e+003,-2.121582e+000
1.863771e+003,-2.853088e-001
1.864735e+003,1.277466e+000
1.865699e+003,1.919128e+000
1.866663e+003,9.707947e-001
1.867627e+003,1.443481e-002
1.868592e+003,7.739868e-001
1.869556e+003,1.992920e+000
1.870520e+003,1.235809e+000
1.871484e+003,-1.151459e+000
1.872449e+003,-2.823364e+000
1.873413e+003,-3.268127e+000
1.874377e+003,-2.731293e+000
1.875341e+003,-5.927124e-001
1.876306e+003,1.012817e+000
1.877270e+003,3.404236e-001
1.878234e+003,-9.337463e-001
1.879198e+003,-1.163788e+000
1.880163e+003,-5.860901e-001
1.881127e+003,3.385010e-001
1.882091e+003,1.321747e+000
1.883055e+003,1.923126e+000
1.884020e+003,1.931641e+000
1.884984e+003,1.250854e+000
1.885948e+003,-2.488098e-001
1.886912e+003,-1.808563e+000
1.887876e+003,-1.824890e+000
1.888841e+003,-4.072266e-001
1.889805e+003,1.099609e+000
1.890769e+003,2.933502e+000
1.891733e+003,3.458588e+000
1.892698e+003,1.817230e+000
1.893662e+003,3.158875e-001
1.894626e+003,-4.355774e-001
1.895590e+003,-5.019226e-001
1.896554e+003,1.881409e-001
1.897519e+003,1.557129e+000
1.898483e+003,4.372040e+000
1.899447e+003,7.572937e+000
1.900411e+003,7.574097e+000
1.901376e+003,3.618439e+000
1.902340e+003,4.956360e-001
1.903304e+003,8.529663e-002
1.904268e+003,7.428589e-001
1.905233e+003,2.406921e+000
1.906197e+003,3.864502e+000
1.907161e+003,3.423004e+000
1.908125e+003,2.129089e+000
1.909090e+003,2.118713e+000
1.910054e+003,3.102844e+000
1.911018e+003,2.863922e+000
1.911982e+003,9.319763e-001
1.912947e+003,-4.609680e-001
1.913911e+003,2.850037e-001
1.914875e+003,2.181671e+000
1.915839e+003,3.758362e+000
1.916803e+003,4.834991e+000
1.917768e+003,4.919342e+000
1.918732e+003,3.973846e+000
1.919696e+003,2.734161e+000
1.920660e+003,7.877808e-001
1.921625e+003,3.457642e-002
1.922589e+003,1.435272e+000
1.923553e+003,3.020233e+000
1.924517e+003,3.916840e+000
1.925481e+003,4.439362e+000
1.926446e+003,4.940491e+000
1.927410e+003,5.253693e+000
1.928374e+003,4.647034e+000
1.929338e+003,3.177826e+000
1.930303e+003,2.950745e+000
1.931267e+003,5.333984e+000
1.932231e+003,6.894348e+000
1.933195e+003,4.866943e+000
1.934160e+003,2.658875e+000
1.935124e+003,3.209503e+000
1.936088e+003,4.540039e+000
1.937052e+003,4.205872e+000
1.938017e+003,2.792877e+000
1.938981e+003,1.976501e+000
1.939945e+003,1.915405e+000
1.940909e+003,1.376953e+000
1.941874e+003,-9.133911e-002
1.942838e+003,-7.339172e-001
1.943802e+003,1.293823e+000
1.944766e+003,4.353638e+000
1.945730e+003,4.708344e+000
1.946695e+003,2.711578e+000
1.947659e+003,1.932617e+000
1.948623e+003,2.380798e+000
1.949587e+003,3.822693e+000
1.950552e+003,6.825806e+000
1.951516e+003,8.655365e+000
1.952480e+003,8.161743e+000
1.953444e+003,6.747192e+000
1.954408e+003,4.637299e+000
1.955373e+003,2.723206e+000
1.956337e+003,2.765594e+000
1.957301e+003,4.288666e+000
1.958265e+003,4.993744e+000
1.959230e+003,4.648529e+000
1.960194e+003,5.234741e+000
1.961158e+003,8.584930e+000
1.962122e+003,1.007404e+001
1.963087e+003,6.638702e+000
1.964051e+003,3.391571e+000
1.965015e+003,3.835938e+000
1.965979e+003,5.605804e+000
1.966944e+003,6.220795e+000
1.967908e+003,5.931610e+000
1.968872e+003,5.829590e+000
1.969836e+003,6.122070e+000
1.970801e+003,6.492432e+000
1.971765e+003,6.789764e+000
1.972729e+003,6.818817e+000
1.973693e+003,6.338043e+000
1.974657e+003,5.687927e+000
1.975622e+003,4.992279e+000
1.976586e+003,4.578522e+000
1.977550e+003,6.096069e+000
1.978514e+003,9.031860e+000
1.979479e+003,9.829865e+000
1.980443e+003,8.094421e+000
1.981407e+003,7.166534e+000
1.982371e+003,8.383698e+000
1.983335e+003,9.610443e+000
1.984300e+003,9.106049e+000
1.985264e+003,8.025146e+000
1.986228e+003,8.357025e+000
1.987192e+003,9.593079e+000
1.988157e+003,8.959015e+000
1.989121e+003,5.795166e+000
1.990085e+003,4.498932e+000
1.991049e+003,6.271667e+000
1.992014e+003,7.629822e+000
1.992978e+003,8.086334e+000
1.993942e+003,8.033997e+000
1.994906e+003,6.962585e+000
1.995871e+003,6.104340e+000
1.996835e+003,6.588257e+000
1.997799e+003,7.803772e+000
1.998763e+003,8.793335e+000
1.999728e+003,9.494568e+000
