5.003444e+002,1.794039e+002
5.013087e+002,1.762354e+002
5.022729e+002,1.724268e+002
5.032371e+002,1.691561e+002
5.042014e+002,1.672946e+002
5.051656e+002,1.667638e+002
5.061298e+002,1.661034e+002
5.070941e+002,1.636802e+002
5.080583e+002,1.584709e+002
5.090225e+002,1.548309e+002
5.099868e+002,1.541826e+002
5.109510e+002,1.530649e+002
5.119152e+002,1.486962e+002
5.128795e+002,1.406855e+002
5.138437e+002,1.358584e+002
5.148079e+002,1.409155e+002
5.157722e+002,1.460029e+002
5.167364e+002,1.467534e+002
5.177006e+002,1.424860e+002
5.186649e+002,1.356915e+002
5.196291e+002,1.280591e+002
5.205933e+002,1.222113e+002
5.215576e+002,1.207887e+002
5.225218e+002,1.230442e+002
5.234860e+002,1.263267e+002
5.244503e+002,1.267339e+002
5.254145e+002,1.242427e+002
5.263787e+002,1.221381e+002
5.273430e+002,1.205541e+002
5.283072e+002,1.192642e+002
5.292714e+002,1.179209e+002
5.302357e+002,1.162373e+002
5.311999e+002,1.121749e+002
5.321641e+002,1.036521e+002
5.331284e+002,9.616907e+001
5.340926e+002,9.485632e+001
5.350568e+002,1.016527e+002
5.360211e+002,1.074839e+002
5.369853e+002,1.034644e+002
5.379495e+002,9.654736e+001
5.389138e+002,9.150256e+001
5.398780e+002,9.026379e+001
5.408422e+002,9.170422e+001
5.418065e+002,9.402991e+001
5.427707e+002,9.693970e+001
5.437349e+002,9.786670e+001
5.446992e+002,9.577942e+001
5.456634e+002,9.120190e+001
5.466276e+002,8.618689e+001
5.475919e+002,7.869958e+001
5.485561e+002,7.430835e+001
5.495203e+002,7.493457e+001
5.504846e+002,7.754712e+001
5.514488e+002,7.797229e+001
5.524130e+002,7.428259e+001
5.533773e+002,7.064111e+001
5.543415e+002,6.957544e+001
5.553057e+002,6.951086e+001
5.562700e+002,6.848926e+001
5.572342e+002,6.522351e+001
5.581984e+002,6.094641e+001
5.591627e+002,5.983655e+001
5.601269e+002,6.098193e+001
5.610911e+002,6.135474e+001
5.620554e+002,5.907275e+001
5.630196e+002,5.431299e+001
5.639838e+002,5.139319e+001
5.649481e+002,5.233948e+001
5.659123e+002,5.226221e+001
5.668765e+002,5.083179e+001
5.678408e+002,4.884607e+001
5.688050e+002,4.720923e+001
5.697692e+002,4.400269e+001
5.707335e+002,4.199817e+001
5.716977e+002,4.425232e+001
5.726619e+002,4.798694e+001
5.736262e+002,4.939221e+001
5.745904e+002,4.573438e+001
5.755546e+002,4.008740e+001
5.765189e+002,3.624011e+001
5.774831e+002,3.328369e+001
5.784473e+002,3.067114e+001
5.794116e+002,2.836353e+001
5.803758e+002,2.686145e+001
5.813400e+002,2.643311e+001
5.823043e+002,2.642810e+001
5.832685e+002,2.585217e+001
5.842327e+002,2.478101e+001
5.851970e+002,2.381628e+001
5.861612e+002,2.374353e+001
5.871254e+002,2.412756e+001
5.880897e+002,2.505835e+001
5.890539e+002,2.718103e+001
5.900181e+002,2.932471e+001
5.909824e+002,2.962915e+001
5.919466e+002,2.648291e+001
5.929108e+002,2.291907e+001
5.938751e+002,2.254407e+001
5.948393e+002,2.383728e+001
5.958035e+002,2.428308e+001
5.967678e+002,2.218701e+001
5.977320e+002,1.853967e+001
5.986962e+002,1.977490e+001
5.996605e+002,2.520337e+001
6.006247e+002,2.909851e+001
6.015889e+002,2.831873e+001
6.025532e+002,2.330579e+001
6.035174e+002,1.943506e+001
6.044816e+002,1.736194e+001
6.054459e+002,1.619910e+001
6.064101e+002,1.651709e+001
6.073743e+002,1.749255e+001
6.083386e+002,1.784326e+001
6.093028e+002,1.696252e+001
6.102670e+002,1.560229e+001
6.112313e+002,1.364148e+001
6.121955e+002,1.170508e+001
6.131597e+002,1.065259e+001
6.141240e+002,1.103821e+001
6.150882e+002,1.242712e+001
6.160524e+002,1.348792e+001
6.170167e+002,1.462488e+001
6.179809e+002,1.631836e+001
6.189451e+002,1.872266e+001
6.199094e+002,2.124622e+001
6.208736e+002,2.202600e+001
6.218378e+002,2.092346e+001
6.228021e+002,1.952429e+001
6.237663e+002,1.796606e+001
6.247305e+002,1.641956e+001
6.256948e+002,1.457227e+001
6.266590e+002,1.105554e+001
6.276232e+002,8.440796e+000
6.285875e+002,9.449341e+000
6.295517e+002,1.229431e+001
6.305159e+002,1.519543e+001
6.314802e+002,1.688806e+001
6.324444e+002,1.709326e+001
6.334086e+002,1.558655e+001
6.343729e+002,1.329956e+001
6.353371e+002,1.037537e+001
6.363013e+002,6.339355e+000
6.372656e+002,1.791626e+000
6.382298e+002,-4.428711e-001
6.391940e+002,2.582275e+000
6.401583e+002,3.618286e+000
6.411225e+002,2.084595e+000
6.420867e+002,2.716064e-001
6.430510e+002,6.721191e-001
6.440152e+002,4.093994e+000
6.449794e+002,6.459229e+000
6.459437e+002,5.816040e+000
6.469079e+002,3.532715e+000
6.478721e+002,2.828369e-001
6.488364e+002,-3.272827e+000
6.498006e+002,-6.222290e+000
6.507648e+002,-6.827026e+000
6.517291e+002,-6.187012e+000
6.526933e+002,-6.697998e+000
6.536575e+002,-8.953125e+000
6.546218e+002,-1.157727e+001
6.555860e+002,-1.183447e+001
6.565502e+002,-8.362305e+000
6.575145e+002,-5.348022e+000
6.584787e+002,-1.639404e+000
6.594429e+002,9.289551e-001
6.604072e+002,2.752686e-001
6.613714e+002,-4.233887e+000
6.623356e+002,-8.098022e+000
6.632999e+002,-1.046436e+001
6.642641e+002,-1.151599e+001
6.652283e+002,-9.386597e+000
6.661926e+002,-4.723755e+000
6.671568e+002,-5.051270e-001
6.681210e+002,-1.190674e+000
6.690853e+002,-5.160034e+000
6.700495e+002,-6.932007e+000
6.710137e+002,-6.416870e+000
6.719780e+002,-4.819702e+000
6.729422e+002,-3.449951e+000
6.739064e+002,-2.576782e+000
6.748707e+002,-2.019287e+000
6.758349e+002,-1.704590e+000
6.767991e+002,-1.961792e+000
6.777634e+002,-2.594849e+000
6.787276e+002,-3.070679e+000
6.796918e+002,-2.771973e+000
6.806561e+002,-2.066650e+000
6.816203e+002,-1.181641e+000
6.825845e+002,6.054688e-001
6.835488e+002,2.408447e+000
6.845130e+002,2.833008e+000
6.854772e+002,8.687744e-001
6.864415e+002,-2.001953e+000
6.874057e+002,-4.140747e+000
6.883699e+002,-6.127563e+000
6.893342e+002,-7.116821e+000
6.902984e+002,-6.288208e+000
6.912626e+002,-3.870483e+000
6.922269e+002,-2.956055e+000
6.931911e+002,-3.727905e+000
6.941553e+002,-3.758545e+000
6.951196e+002,-4.283936e+000
6.960838e+002,-4.745728e+000
6.970480e+002,-3.148438e+000
6.980123e+002,2.835205e+000
6.989765e+002,6.821533e+000
6.999407e+002,4.590942e+000
7.009050e+002,7.064209e-001
7.018692e+002,-1.157593e+000
7.028334e+002,7.470703e-002
7.037977e+002,2.207642e+000
7.047619e+002,2.457031e+000
7.057261e+002,1.678223e+000
7.066904e+002,-3.405762e-002
7.076546e+002,-2.705933e+000
7.086188e+002,-4.946045e+000
7.095831e+002,-4.325195e+000
7.105473e+002,6.131592e-001
7.115115e+002,2.384277e+000
7.124758e+002,-3.666992e-001
7.134400e+002,-4.619263e+000
7.144042e+002,-8.852417e+000
7.153685e+002,-1.264026e+001
7.163327e+002,-1.534949e+001
7.172969e+002,-1.640967e+001
7.182612e+002,-1.623535e+001
7.192254e+002,-1.432458e+001
7.201896e+002,-1.167590e+001
7.211539e+002,-9.819946e+000
7.221181e+002,-9.964478e+000
7.230823e+002,-1.158777e+001
7.240466e+002,-1.380200e+001
7.250108e+002,-1.571240e+001
7.259750e+002,-1.538940e+001
7.269393e+002,-1.209265e+001
7.279035e+002,-6.923950e+000
7.288677e+002,-3.105713e+000
7.298320e+002,2.068481e+000
7.307962e+002,5.124146e+000
7.317604e+002,4.665039e+000
7.327247e+002,2.586914e+000
7.336889e+002,8.123779e-001
7.346531e+002,-1.261353e+000
7.356174e+002,-3.851929e+000
7.365816e+002,-6.305664e+000
7.375458e+002,-7.392212e+000
7.385101e+002,-5.119873e+000
7.394743e+002,2.263184e-001
7.404385e+002,5.340942e+000
7.414028e+002,4.049072e+000
7.423670e+002,-3.240234e+000
7.433312e+002,-6.930054e+000
7.442955e+002,-5.092896e+000
7.452597e+002,-9.368896e-001
7.462239e+002,1.255371e+000
7.471882e+002,2.999268e-001
7.481524e+002,1.053955e+000
7.491166e+002,3.304321e+000
7.500809e+002,5.136841e+000
7.510451e+002,6.233521e+000
7.520093e+002,6.441040e+000
7.529736e+002,5.539551e+000
7.539378e+002,3.890137e+000
7.549020e+002,2.102905e+000
7.558663e+002,-6.254883e-001
7.568306e+002,-3.068359e+000
7.577948e+002,-3.401245e+000
7.587590e+002,-8.862305e-001
7.597233e+002,2.714111e+000
7.606875e+002,3.166626e+000
7.616517e+002,1.412354e+000
7.626160e+002,1.187622e+000
7.635802e+002,4.343750e+000
7.645444e+002,8.905151e+000
7.655087e+002,1.031421e+001
7.664729e+002,6.319702e+000
7.674371e+002,3.459229e+000
7.684014e+002,9.626465e-001
7.693656e+002,3.173828e-001
7.703298e+002,4.088745e+000
7.712941e+002,1.191553e+001
7.722583e+002,1.825085e+001
7.732225e+002,1.770203e+001
7.741868e+002,1.502490e+001
7.751510e+002,1.335046e+001
7.761152e+002,1.290918e+001
7.770795e+002,1.321582e+001
7.780437e+002,1.375708e+001
7.790079e+002,1.433020e+001
7.799722e+002,1.507678e+001
7.809364e+002,1.613354e+001
7.819006e+002,1.644165e+001
7.828649e+002,1.603906e+001
7.838291e+002,1.531995e+001
7.847933e+002,1.428809e+001
7.857576e+002,1.123352e+001
7.867218e+002,8.708862e+000
7.876860e+002,7.923462e+000
7.886503e+002,8.519043e+000
7.896145e+002,1.055298e+001
7.905787e+002,1.385718e+001
7.915430e+002,1.724268e+001
7.925072e+002,1.895935e+001
7.934714e+002,1.898999e+001
7.944357e+002,1.777502e+001
7.953999e+002,1.602429e+001
7.963641e+002,1.456470e+001
7.973284e+002,1.402551e+001
7.982926e+002,1.444507e+001
7.992568e+002,1.562878e+001
8.002211e+002,1.680627e+001
8.011853e+002,1.669373e+001
8.021495e+002,1.552417e+001
8.031138e+002,1.461536e+001
8.040780e+002,1.555957e+001
8.050422e+002,1.859485e+001
8.060065e+002,2.151697e+001
8.069707e+002,2.361938e+001
8.079349e+002,2.444812e+001
8.088992e+002,2.334167e+001
8.098634e+002,2.061646e+001
8.108276e+002,1.843005e+001
8.117919e+002,2.053662e+001
8.127561e+002,2.329907e+001
8.137203e+002,2.059802e+001
8.146846e+002,1.264404e+001
8.156488e+002,5.128174e+000
8.166130e+002,4.865234e+000
8.175773e+002,1.334937e+001
8.185415e+002,1.890100e+001
8.195057e+002,1.881409e+001
8.204700e+002,1.842175e+001
8.214342e+002,2.013306e+001
8.223984e+002,2.291235e+001
8.233627e+002,2.360767e+001
8.243269e+002,2.018970e+001
8.252911e+002,1.706812e+001
8.262554e+002,1.626331e+001
8.272196e+002,1.707043e+001
8.281838e+002,1.929480e+001
8.291481e+002,2.247766e+001
8.301123e+002,2.543542e+001
8.310765e+002,2.579688e+001
8.320408e+002,2.363574e+001
8.330050e+002,2.305884e+001
8.339692e+002,2.495593e+001
8.349335e+002,2.692627e+001
8.358977e+002,2.567444e+001
8.368619e+002,2.047986e+001
8.378262e+002,2.061011e+001
8.387904e+002,3.376221e+001
8.397546e+002,4.245422e+001
8.407189e+002,3.949304e+001
8.416831e+002,2.995837e+001
8.426473e+002,2.280115e+001
8.436116e+002,2.206982e+001
8.445758e+002,2.470276e+001
8.455400e+002,2.815088e+001
8.465043e+002,3.092590e+001
8.474685e+002,3.188123e+001
8.484327e+002,3.142676e+001
8.493970e+002,3.119324e+001
8.503612e+002,3.306311e+001
8.513254e+002,3.716772e+001
8.522897e+002,4.023535e+001
8.532539e+002,4.183508e+001
8.542181e+002,4.222217e+001
8.551824e+002,4.153076e+001
8.561466e+002,4.073999e+001
8.571108e+002,4.235754e+001
8.580751e+002,4.711877e+001
8.590393e+002,5.050537e+001
8.600035e+002,5.075159e+001
8.609678e+002,5.033997e+001
8.619320e+002,5.236230e+001
8.628962e+002,5.778699e+001
8.638605e+002,6.373462e+001
8.648247e+002,6.506226e+001
8.657889e+002,6.387085e+001
8.667532e+002,6.562793e+001
8.677174e+002,7.101196e+001
8.686816e+002,7.630591e+001
8.696459e+002,7.694031e+001
8.706101e+002,7.216016e+001
8.715743e+002,7.140442e+001
8.725386e+002,7.852246e+001
8.735028e+002,8.452075e+001
8.744670e+002,8.546289e+001
8.754313e+002,8.314539e+001
8.763955e+002,8.149072e+001
8.773597e+002,8.179565e+001
8.783240e+002,8.430444e+001
8.792882e+002,9.070813e+001
8.802524e+002,9.748633e+001
8.812167e+002,1.015360e+002
8.821809e+002,1.023982e+002
8.831451e+002,1.017958e+002
8.841094e+002,1.020448e+002
8.850736e+002,1.036150e+002
8.860378e+002,1.050660e+002
8.870021e+002,1.059072e+002
8.879663e+002,1.067913e+002
8.889305e+002,1.075266e+002
8.898948e+002,1.080837e+002
8.908590e+002,1.095844e+002
8.918232e+002,1.137982e+002
8.927875e+002,1.173696e+002
8.937517e+002,1.191421e+002
8.947159e+002,1.204508e+002
8.956802e+002,1.219797e+002
8.966444e+002,1.235231e+002
8.976086e+002,1.244126e+002
8.985729e+002,1.244729e+002
8.995371e+002,1.245790e+002
9.005013e+002,1.253260e+002
9.014656e+002,1.269772e+002
9.024298e+002,1.292721e+002
9.033940e+002,1.316371e+002
9.043583e+002,1.334816e+002
9.053225e+002,1.345872e+002
9.062867e+002,1.330212e+002
9.072510e+002,1.322405e+002
9.082152e+002,1.336844e+002
9.091794e+002,1.366284e+002
9.101437e+002,1.409025e+002
9.111079e+002,1.464427e+002
9.120721e+002,1.502129e+002
9.130364e+002,1.480585e+002
9.140006e+002,1.441771e+002
9.149648e+002,1.403457e+002
9.159291e+002,1.378182e+002
9.168933e+002,1.380861e+002
9.178575e+002,1.417841e+002
9.188218e+002,1.470381e+002
9.197860e+002,1.484067e+002
9.207502e+002,1.455891e+002
9.217145e+002,1.415419e+002
9.226787e+002,1.369310e+002
9.236429e+002,1.328549e+002
9.246072e+002,1.303016e+002
9.255714e+002,1.290044e+002
9.265356e+002,1.277316e+002
9.274999e+002,1.260199e+002
9.284641e+002,1.239689e+002
9.294283e+002,1.221008e+002
9.303926e+002,1.203463e+002
9.313568e+002,1.183016e+002
9.323210e+002,1.156851e+002
9.332853e+002,1.127328e+002
9.342495e+002,1.092546e+002
9.352137e+002,1.056830e+002
9.361780e+002,1.039960e+002
9.371422e+002,1.050637e+002
9.381064e+002,1.069095e+002
9.390707e+002,1.059291e+002
9.400349e+002,1.005193e+002
9.409991e+002,9.818652e+001
9.419634e+002,1.012457e+002
9.429276e+002,1.036017e+002
9.438918e+002,1.035704e+002
9.448561e+002,1.021583e+002
9.458203e+002,1.009047e+002
9.467845e+002,1.002345e+002
9.477488e+002,1.008857e+002
9.487130e+002,1.052845e+002
9.496772e+002,1.095797e+002
9.506415e+002,1.101439e+002
9.516057e+002,1.072189e+002
9.525699e+002,1.034747e+002
9.535342e+002,1.014093e+002
9.544984e+002,1.005964e+002
9.554626e+002,9.992786e+001
9.564269e+002,1.005166e+002
9.573911e+002,1.010547e+002
9.583553e+002,1.004526e+002
9.593196e+002,9.948071e+001
9.602838e+002,9.974194e+001
9.612480e+002,1.015698e+002
9.622123e+002,1.023921e+002
9.631765e+002,1.007019e+002
9.641407e+002,9.913098e+001
9.651050e+002,9.938220e+001
9.660692e+002,1.001937e+002
9.670334e+002,9.875476e+001
9.679977e+002,9.361108e+001
9.689619e+002,8.814880e+001
9.699261e+002,8.897485e+001
9.708904e+002,9.386475e+001
9.718546e+002,9.876245e+001
9.728188e+002,1.024124e+002
9.737831e+002,1.061766e+002
9.747473e+002,1.122816e+002
9.757115e+002,1.213569e+002
9.766758e+002,1.307618e+002
9.776400e+002,1.464381e+002
9.786042e+002,1.563436e+002
9.795685e+002,1.553945e+002
9.805327e+002,1.468724e+002
9.814969e+002,1.346349e+002
9.824612e+002,1.203788e+002
9.834254e+002,1.072307e+002
9.843896e+002,9.690405e+001
9.853539e+002,8.904492e+001
9.863181e+002,8.446082e+001
9.872823e+002,8.223193e+001
9.882466e+002,8.012952e+001
9.892108e+002,7.689795e+001
9.901750e+002,7.388989e+001
9.911393e+002,7.427295e+001
9.921035e+002,7.748779e+001
9.930677e+002,8.151831e+001
9.940320e+002,8.837219e+001
9.949962e+002,9.580444e+001
9.959604e+002,1.012169e+002
9.969247e+002,1.046875e+002
9.978889e+002,1.095343e+002
9.988531e+002,1.177998e+002
9.998174e+002,1.250374e+002
1.000782e+003,1.291320e+002
1.001746e+003,1.314927e+002
1.002710e+003,1.339119e+002
1.003674e+003,1.370732e+002
1.004639e+003,1.402893e+002
1.005603e+003,1.424713e+002
1.006567e+003,1.432330e+002
1.007531e+003,1.424146e+002
1.008495e+003,1.388248e+002
1.009460e+003,1.362888e+002
1.010424e+003,1.385168e+002
1.011388e+003,1.441605e+002
1.012352e+003,1.471525e+002
1.013317e+003,1.463838e+002
1.014281e+003,1.424469e+002
1.015245e+003,1.340768e+002
1.016209e+003,1.241185e+002
1.017174e+003,1.141246e+002
1.018138e+003,1.048730e+002
1.019102e+003,9.724451e+001
1.020066e+003,9.250562e+001
1.021031e+003,8.904529e+001
1.021995e+003,7.887793e+001
1.022959e+003,6.308545e+001
1.023923e+003,5.197852e+001
1.024887e+003,5.006055e+001
1.025852e+003,5.202698e+001
1.026816e+003,4.968433e+001
1.027780e+003,4.256970e+001
1.028744e+003,3.587146e+001
1.029709e+003,2.810156e+001
1.030673e+003,2.264404e+001
1.031637e+003,2.155151e+001
1.032601e+003,2.256921e+001
1.033566e+003,2.307300e+001
1.034530e+003,2.229639e+001
1.035494e+003,2.092737e+001
1.036458e+003,1.877539e+001
1.037422e+003,1.656714e+001
1.038387e+003,1.548389e+001
1.039351e+003,1.549158e+001
1.040315e+003,1.713306e+001
1.041279e+003,2.145020e+001
1.042244e+003,2.770325e+001
1.043208e+003,3.065637e+001
1.044172e+003,2.636987e+001
1.045136e+003,2.408899e+001
1.046101e+003,2.514050e+001
1.047065e+003,2.759741e+001
1.048029e+003,3.108203e+001
1.048993e+003,3.467957e+001
1.049958e+003,3.633020e+001
1.050922e+003,3.505518e+001
1.051886e+003,3.274988e+001
1.052850e+003,2.988391e+001
1.053814e+003,2.765186e+001
1.054779e+003,2.859119e+001
1.055743e+003,3.264929e+001
1.056707e+003,3.641553e+001
1.057671e+003,3.570251e+001
1.058636e+003,3.033582e+001
1.059600e+003,2.693481e+001
1.060564e+003,2.680164e+001
1.061528e+003,2.827405e+001
1.062493e+003,3.154883e+001
1.063457e+003,3.482214e+001
1.064421e+003,3.668591e+001
1.065385e+003,3.723950e+001
1.066349e+003,3.697876e+001
1.067314e+003,3.610681e+001
1.068278e+003,3.448914e+001
1.069242e+003,3.116138e+001
1.070206e+003,2.772083e+001
1.071171e+003,2.678894e+001
1.072135e+003,2.892285e+001
1.073099e+003,3.148340e+001
1.074063e+003,3.040344e+001
1.075028e+003,2.541272e+001
1.075992e+003,2.380347e+001
1.076956e+003,2.702136e+001
1.077920e+003,2.944299e+001
1.078885e+003,2.984692e+001
1.079849e+003,2.876160e+001
1.080813e+003,2.604468e+001
1.081777e+003,2.117151e+001
1.082741e+003,1.811548e+001
1.083706e+003,2.005078e+001
1.084670e+003,2.206641e+001
1.085634e+003,2.135864e+001
1.086598e+003,1.866370e+001
1.087563e+003,1.601660e+001
1.088527e+003,1.486890e+001
1.089491e+003,1.507971e+001
1.090455e+003,1.539648e+001
1.091420e+003,1.529919e+001
1.092384e+003,1.613770e+001
1.093348e+003,1.798792e+001
1.094312e+003,1.963074e+001
1.095276e+003,2.073535e+001
1.096241e+003,2.186755e+001
1.097205e+003,2.370801e+001
1.098169e+003,2.633386e+001
1.099133e+003,2.812805e+001
1.100098e+003,2.872852e+001
1.101062e+003,2.878906e+001
1.102026e+003,2.883337e+001
1.102990e+003,2.872888e+001
1.103955e+003,2.758704e+001
1.104919e+003,2.476978e+001
1.105883e+003,2.132764e+001
1.106847e+003,1.979736e+001
1.107812e+003,2.021582e+001
1.108776e+003,2.172974e+001
1.109740e+003,2.483386e+001
1.110704e+003,2.796741e+001
1.111668e+003,3.085986e+001
1.112633e+003,3.371521e+001
1.113597e+003,3.521228e+001
1.114561e+003,3.344653e+001
1.115525e+003,3.323279e+001
1.116490e+003,3.743469e+001
1.117454e+003,4.194946e+001
1.118418e+003,4.511401e+001
1.119382e+003,4.693213e+001
1.120347e+003,4.707788e+001
1.121311e+003,4.485547e+001
1.122275e+003,4.158459e+001
1.123239e+003,4.229993e+001
1.124203e+003,4.735229e+001
1.125168e+003,4.971350e+001
1.126132e+003,4.770227e+001
1.127096e+003,4.661975e+001
1.128060e+003,5.091675e+001
1.129025e+003,5.917468e+001
1.129989e+003,6.580981e+001
1.130953e+003,7.020935e+001
1.131917e+003,7.270837e+001
1.132882e+003,7.138403e+001
1.133846e+003,7.099683e+001
1.134810e+003,7.542468e+001
1.135774e+003,8.325317e+001
1.136739e+003,8.995825e+001
1.137703e+003,9.300916e+001
1.138667e+003,9.580786e+001
1.139631e+003,1.049332e+002
1.140595e+003,1.197397e+002
1.141560e+003,1.339225e+002
1.142524e+003,1.471184e+002
1.143488e+003,1.619786e+002
1.144452e+003,1.801479e+002
1.145417e+003,2.011610e+002
1.146381e+003,2.230647e+002
1.147345e+003,2.445764e+002
1.148309e+003,2.698962e+002
1.149274e+003,3.026379e+002
1.150238e+003,3.371082e+002
1.151202e+003,3.733510e+002
1.152166e+003,4.091040e+002
1.153130e+003,4.409788e+002
1.154095e+003,4.667710e+002
1.155059e+003,4.862588e+002
1.156023e+003,5.003719e+002
1.156987e+003,5.088141e+002
1.157952e+003,5.109155e+002
1.158916e+003,5.079564e+002
1.159880e+003,4.996360e+002
1.160844e+003,4.851606e+002
1.161809e+003,4.630106e+002
1.162773e+003,4.295123e+002
1.163737e+003,3.811018e+002
1.164701e+003,3.379526e+002
1.165666e+003,3.092351e+002
1.166630e+003,2.835953e+002
1.167594e+003,2.549250e+002
1.168558e+003,2.275109e+002
1.169522e+003,2.070847e+002
1.170487e+003,1.956769e+002
1.171451e+003,1.928807e+002
1.172415e+003,1.994423e+002
1.173379e+003,2.123699e+002
1.174344e+003,2.168162e+002
1.175308e+003,2.132184e+002
1.176272e+003,2.066818e+002
1.177236e+003,1.975494e+002
1.178201e+003,1.877062e+002
1.179165e+003,1.791990e+002
1.180129e+003,1.715276e+002
1.181093e+003,1.628892e+002
1.182057e+003,1.513394e+002
1.183022e+003,1.419972e+002
1.183986e+003,1.376578e+002
1.184950e+003,1.355398e+002
1.185914e+003,1.331066e+002
1.186879e+003,1.302539e+002
1.187843e+003,1.284838e+002
1.188807e+003,1.288187e+002
1.189771e+003,1.306976e+002
1.190736e+003,1.337025e+002
1.191700e+003,1.380552e+002
1.192664e+003,1.401216e+002
1.193628e+003,1.398408e+002
1.194593e+003,1.377284e+002
1.195557e+003,1.331882e+002
1.196521e+003,1.268286e+002
1.197485e+003,1.212772e+002
1.198449e+003,1.174392e+002
1.199414e+003,1.131853e+002
1.200378e+003,1.073033e+002
1.201342e+003,1.010303e+002
1.202306e+003,9.421777e+001
1.203271e+003,8.739612e+001
1.204235e+003,8.217773e+001
1.205199e+003,7.921362e+001
1.206163e+003,7.637939e+001
1.207128e+003,6.975916e+001
1.208092e+003,5.915515e+001
1.209056e+003,5.067554e+001
1.210020e+003,4.583289e+001
1.210984e+003,3.988110e+001
1.211949e+003,2.991418e+001
1.212913e+003,1.877808e+001
1.213877e+003,1.042627e+001
1.214841e+003,5.252075e+000
1.215806e+003,9.045410e-001
1.216770e+003,-3.742554e+000
1.217734e+003,-7.634766e+000
1.218698e+003,-9.090820e+000
1.219663e+003,-1.054602e+001
1.220627e+003,-1.563159e+001
1.221591e+003,-2.428613e+001
1.222555e+003,-3.316663e+001
1.223520e+003,-3.914771e+001
1.224484e+003,-4.191357e+001
1.225448e+003,-4.106189e+001
1.226412e+003,-3.328809e+001
1.227376e+003,-2.983496e+001
1.228341e+003,-3.438892e+001
1.229305e+003,-3.936670e+001
1.230269e+003,-4.021155e+001
1.231233e+003,-3.875464e+001
1.232198e+003,-3.906250e+001
1.233162e+003,-4.200964e+001
1.234126e+003,-4.447974e+001
1.235090e+003,-4.460010e+001
1.236055e+003,-4.355298e+001
1.237019e+003,-4.176318e+001
1.237983e+003,-4.006531e+001
1.238947e+003,-4.017542e+001
1.239911e+003,-4.250256e+001
1.240876e+003,-4.554773e+001
1.241840e+003,-4.760876e+001
1.242804e+003,-4.871594e+001
1.243768e+003,-4.777856e+001
1.244733e+003,-4.235632e+001
1.245697e+003,-3.800500e+001
1.246661e+003,-3.652295e+001
1.247625e+003,-3.606848e+001
1.248590e+003,-3.491260e+001
1.249554e+003,-3.280286e+001
1.250518e+003,-3.035303e+001
1.251482e+003,-2.806934e+001
1.252447e+003,-2.680908e+001
1.253411e+003,-2.782092e+001
1.254375e+003,-2.960291e+001
1.255339e+003,-2.992456e+001
1.256303e+003,-2.835938e+001
1.257268e+003,-2.421094e+001
1.258232e+003,-1.697754e+001
1.259196e+003,-8.479004e+000
1.260160e+003,-9.846191e-001
1.261125e+003,6.239624e+000
1.262089e+003,1.089209e+001
1.263053e+003,9.464111e+000
1.264017e+003,8.219604e+000
1.264982e+003,8.766724e+000
1.265946e+003,1.047876e+001
1.266910e+003,1.351306e+001
1.267874e+003,1.706982e+001
1.268839e+003,1.925562e+001
1.269803e+003,1.883191e+001
1.270767e+003,1.684619e+001
1.271731e+003,1.573511e+001
1.272695e+003,1.547742e+001
1.273660e+003,1.131982e+001
1.274624e+003,5.468750e-001
1.275588e+003,-9.640015e+000
1.276552e+003,-1.455469e+001
1.277517e+003,-1.568701e+001
1.278481e+003,-1.613782e+001
1.279445e+003,-1.617627e+001
1.280409e+003,-1.670203e+001
1.281374e+003,-1.817346e+001
1.282338e+003,-1.980969e+001
1.283302e+003,-2.156812e+001
1.284266e+003,-2.318042e+001
1.285230e+003,-2.364246e+001
1.286195e+003,-2.351270e+001
1.287159e+003,-2.550220e+001
1.288123e+003,-3.163245e+001
1.289087e+003,-3.908496e+001
1.290052e+003,-4.004138e+001
1.291016e+003,-3.190930e+001
1.291980e+003,-2.820447e+001
1.292944e+003,-3.193945e+001
1.293909e+003,-3.673132e+001
1.294873e+003,-4.055078e+001
1.295837e+003,-4.292456e+001
1.296801e+003,-4.299219e+001
1.297766e+003,-4.086633e+001
1.298730e+003,-3.915527e+001
1.299694e+003,-4.016272e+001
1.300658e+003,-4.116187e+001
1.301622e+003,-3.732446e+001
1.302587e+003,-3.164490e+001
1.303551e+003,-2.965540e+001
1.304515e+003,-3.187378e+001
1.305479e+003,-3.428491e+001
1.306444e+003,-3.396069e+001
1.307408e+003,-3.186682e+001
1.308372e+003,-3.032446e+001
1.309336e+003,-2.926965e+001
1.310301e+003,-2.915759e+001
1.311265e+003,-3.031177e+001
1.312229e+003,-3.136987e+001
1.313193e+003,-3.182727e+001
1.314157e+003,-3.231604e+001
1.315122e+003,-3.396680e+001
1.316086e+003,-3.664685e+001
1.317050e+003,-3.868872e+001
1.318014e+003,-3.869592e+001
1.318979e+003,-3.773914e+001
1.319943e+003,-3.844458e+001
1.320907e+003,-4.019312e+001
1.321871e+003,-3.982642e+001
1.322836e+003,-3.766528e+001
1.323800e+003,-3.443311e+001
1.324764e+003,-2.890198e+001
1.325728e+003,-2.313098e+001
1.326693e+003,-2.120166e+001
1.327657e+003,-2.357849e+001
1.328621e+003,-2.687866e+001
1.329585e+003,-3.011389e+001
1.330549e+003,-3.114111e+001
1.331514e+003,-2.939734e+001
1.332478e+003,-2.725623e+001
1.333442e+003,-2.666138e+001
1.334406e+003,-2.716553e+001
1.335371e+003,-2.678137e+001
1.336335e+003,-2.440186e+001
1.337299e+003,-2.173462e+001
1.338263e+003,-2.234192e+001
1.339228e+003,-2.668799e+001
1.340192e+003,-2.974646e+001
1.341156e+003,-3.145837e+001
1.342120e+003,-3.216016e+001
1.343084e+003,-3.217493e+001
1.344049e+003,-3.191785e+001
1.345013e+003,-3.089392e+001
1.345977e+003,-2.915491e+001
1.346941e+003,-2.761035e+001
1.347906e+003,-2.664563e+001
1.348870e+003,-2.569031e+001
1.349834e+003,-2.431042e+001
1.350798e+003,-2.297656e+001
1.351763e+003,-2.148987e+001
1.352727e+003,-1.999524e+001
1.353691e+003,-2.039539e+001
1.354655e+003,-2.371765e+001
1.355620e+003,-2.769177e+001
1.356584e+003,-2.951831e+001
1.357548e+003,-2.925977e+001
1.358512e+003,-2.904285e+001
1.359476e+003,-2.947986e+001
1.360441e+003,-3.046204e+001
1.361405e+003,-3.263916e+001
1.362369e+003,-3.402271e+001
1.363333e+003,-3.346277e+001
1.364298e+003,-3.151782e+001
1.365262e+003,-2.842261e+001
1.366226e+003,-2.474060e+001
1.367190e+003,-2.206299e+001
1.368155e+003,-2.183472e+001
1.369119e+003,-2.329956e+001
1.370083e+003,-2.397437e+001
1.371047e+003,-2.333020e+001
1.372011e+003,-2.284497e+001
1.372976e+003,-2.487610e+001
1.373940e+003,-2.519592e+001
1.374904e+003,-1.967920e+001
1.375868e+003,-1.277881e+001
1.376833e+003,-1.104004e+001
1.377797e+003,-1.444189e+001
1.378761e+003,-1.714697e+001
1.379725e+003,-1.640234e+001
1.380690e+003,-1.471643e+001
1.381654e+003,-1.434692e+001
1.382618e+003,-1.456921e+001
1.383582e+003,-1.494409e+001
1.384547e+003,-1.523950e+001
1.385511e+003,-1.428125e+001
1.386475e+003,-1.141736e+001
1.387439e+003,-8.179565e+000
1.388403e+003,-6.682007e+000
1.389368e+003,-6.981689e+000
1.390332e+003,-8.170532e+000
1.391296e+003,-1.056848e+001
1.392260e+003,-1.239319e+001
1.393225e+003,-1.362231e+001
1.394189e+003,-1.413708e+001
1.395153e+003,-1.339624e+001
1.396117e+003,-1.204968e+001
1.397082e+003,-1.096204e+001
1.398046e+003,-1.025378e+001
1.399010e+003,-9.291626e+000
1.399974e+003,-7.775146e+000
1.400938e+003,-7.060059e+000
1.401903e+003,-9.973267e+000
1.402867e+003,-1.683582e+001
1.403831e+003,-1.852734e+001
1.404795e+003,-1.275366e+001
1.405760e+003,-6.605713e+000
1.406724e+003,-2.095337e+000
1.407688e+003,-6.236572e-001
1.408652e+003,-3.980469e+000
1.409617e+003,-1.059961e+001
1.410581e+003,-1.542627e+001
1.411545e+003,-1.637305e+001
1.412509e+003,-1.578235e+001
1.413474e+003,-1.620972e+001
1.414438e+003,-1.718347e+001
1.415402e+003,-1.682385e+001
1.416366e+003,-1.475696e+001
1.417330e+003,-1.153027e+001
1.418295e+003,-6.922607e+000
1.419259e+003,-2.807373e+000
1.420223e+003,-2.510376e+000
1.421187e+003,-5.513184e+000
1.422152e+003,-5.981812e+000
1.423116e+003,-2.112793e+000
1.424080e+003,8.560791e-001
1.425044e+003,-4.112549e-001
1.426009e+003,-1.945435e+000
1.426973e+003,-1.802246e+000
1.427937e+003,-1.269043e+000
1.428901e+003,-2.735840e+000
1.429865e+003,-5.279785e+000
1.430830e+003,-4.492920e+000
1.431794e+003,2.154419e+000
1.432758e+003,1.040625e+001
1.433722e+003,1.219641e+001
1.434687e+003,7.493896e+000
1.435651e+003,7.998657e+000
1.436615e+003,1.714539e+001
1.437579e+003,2.247388e+001
1.438544e+003,2.091846e+001
1.439508e+003,1.778406e+001
1.440472e+003,1.619519e+001
1.441436e+003,1.651160e+001
1.442401e+003,1.873608e+001
1.443365e+003,2.241528e+001
1.444329e+003,2.569348e+001
1.445293e+003,2.747363e+001
1.446257e+003,2.804626e+001
1.447222e+003,2.737622e+001
1.448186e+003,2.550525e+001
1.449150e+003,2.291016e+001
1.450114e+003,1.917761e+001
1.451079e+003,1.575842e+001
1.452043e+003,1.364185e+001
1.453007e+003,1.284509e+001
1.453971e+003,1.363916e+001
1.454936e+003,1.542773e+001
1.455900e+003,1.512781e+001
1.456864e+003,1.128723e+001
1.457828e+003,9.320557e+000
1.458792e+003,1.445264e+001
1.459757e+003,2.012219e+001
1.460721e+003,2.087427e+001
1.461685e+003,1.808118e+001
1.462649e+003,1.465076e+001
1.463614e+003,1.180017e+001
1.464578e+003,1.024207e+001
1.465542e+003,1.059119e+001
1.466506e+003,1.193811e+001
1.467471e+003,1.218555e+001
1.468435e+003,1.164539e+001
1.469399e+003,1.175720e+001
1.470363e+003,1.146497e+001
1.471328e+003,1.212354e+001
1.472292e+003,1.477832e+001
1.473256e+003,1.663989e+001
1.474220e+003,1.571899e+001
1.475184e+003,1.372510e+001
1.476149e+003,1.354370e+001
1.477113e+003,1.562244e+001
1.478077e+003,1.779639e+001
1.479041e+003,1.838464e+001
1.480006e+003,1.852173e+001
1.480970e+003,2.085254e+001
1.481934e+003,2.556934e+001
1.482898e+003,2.909192e+001
1.483863e+003,3.039685e+001
1.484827e+003,3.180078e+001
1.485791e+003,3.454651e+001
1.486755e+003,3.803845e+001
1.487719e+003,4.144336e+001
1.488684e+003,4.449854e+001
1.489648e+003,4.732568e+001
1.490612e+003,5.026270e+001
1.491576e+003,5.385217e+001
1.492541e+003,5.840942e+001
1.493505e+003,6.337854e+001
1.494469e+003,6.744543e+001
1.495433e+003,7.027246e+001
1.496398e+003,7.358496e+001
1.497362e+003,7.803845e+001
1.498326e+003,8.463708e+001
1.499290e+003,9.508960e+001
1.500255e+003,1.069229e+002
1.501219e+003,1.157473e+002
1.502183e+003,1.222413e+002
1.503147e+003,1.313793e+002
1.504111e+003,1.439913e+002
1.505076e+003,1.606909e+002
1.506040e+003,1.839381e+002
1.507004e+003,2.096606e+002
1.507968e+003,2.333766e+002
1.508933e+003,2.564332e+002
1.509897e+003,2.806829e+002
1.510861e+003,3.076993e+002
1.511825e+003,3.414083e+002
1.512790e+003,3.848530e+002
1.513754e+003,4.341283e+002
1.514718e+003,4.834196e+002
1.515682e+003,5.320999e+002
1.516646e+003,5.799108e+002
1.517611e+003,6.293933e+002
1.518575e+003,6.734250e+002
1.519539e+003,7.113851e+002
1.520503e+003,7.428993e+002
1.521468e+003,7.668943e+002
1.522432e+003,7.840529e+002
1.523396e+003,7.965691e+002
1.524360e+003,8.035924e+002
1.525325e+003,8.010201e+002
1.526289e+003,7.862921e+002
1.527253e+003,7.624325e+002
1.528217e+003,7.343973e+002
1.529182e+003,7.027241e+002
1.530146e+003,6.653052e+002
1.531110e+003,6.212865e+002
1.532074e+003,5.714045e+002
1.533039e+003,5.105786e+002
1.534003e+003,4.481162e+002
1.534967e+003,3.873994e+002
1.535931e+003,3.302002e+002
1.536896e+003,2.761437e+002
1.537860e+003,2.269298e+002
1.538824e+003,1.860786e+002
1.539788e+003,1.550535e+002
1.540752e+003,1.321174e+002
1.541717e+003,1.156051e+002
1.542681e+003,1.053285e+002
1.543645e+003,9.782410e+001
1.544609e+003,9.510962e+001
1.545573e+003,9.176855e+001
1.546538e+003,8.562891e+001
1.547502e+003,8.002075e+001
1.548466e+003,7.714026e+001
1.549430e+003,7.606055e+001
1.550395e+003,7.557422e+001
1.551359e+003,7.518884e+001
1.552323e+003,7.550696e+001
1.553287e+003,7.657764e+001
1.554252e+003,7.515320e+001
1.555216e+003,6.783313e+001
1.556180e+003,5.730225e+001
1.557144e+003,4.944031e+001
1.558109e+003,4.464661e+001
1.559073e+003,4.285059e+001
1.560037e+003,4.531311e+001
1.561001e+003,4.618237e+001
1.561966e+003,4.304578e+001
1.562930e+003,3.958569e+001
1.563894e+003,3.849329e+001
1.564858e+003,3.921265e+001
1.565823e+003,4.116919e+001
1.566787e+003,4.394067e+001
1.567751e+003,4.428442e+001
1.568715e+003,3.966516e+001
1.569679e+003,3.483594e+001
1.570644e+003,3.642981e+001
1.571608e+003,4.168823e+001
1.572572e+003,4.321851e+001
1.573536e+003,4.109509e+001
1.574500e+003,4.045618e+001
1.575465e+003,4.403992e+001
1.576429e+003,4.742432e+001
1.577393e+003,4.550256e+001
1.578357e+003,4.116968e+001
1.579322e+003,4.059875e+001
1.580286e+003,4.422791e+001
1.581250e+003,4.965173e+001
1.582214e+003,5.723364e+001
1.583179e+003,6.221033e+001
1.584143e+003,5.882446e+001
1.585107e+003,5.226587e+001
1.586071e+003,5.029492e+001
1.587036e+003,5.229443e+001
1.588000e+003,5.439893e+001
1.588964e+003,5.535962e+001
1.589928e+003,5.634705e+001
1.590893e+003,5.885034e+001
1.591857e+003,6.133105e+001
1.592821e+003,6.060095e+001
1.593785e+003,5.761133e+001
1.594750e+003,5.738672e+001
1.595714e+003,6.049597e+001
1.596678e+003,6.497339e+001
1.597642e+003,7.129639e+001
1.598606e+003,7.704846e+001
1.599571e+003,8.043420e+001
1.600535e+003,8.247180e+001
1.601499e+003,8.385315e+001
1.602463e+003,8.474292e+001
1.603427e+003,8.591406e+001
1.604392e+003,8.774927e+001
1.605356e+003,8.980652e+001
1.606320e+003,9.251965e+001
1.607284e+003,9.489563e+001
1.608249e+003,9.316187e+001
1.609213e+003,8.713049e+001
1.610177e+003,8.335889e+001
1.611141e+003,8.389001e+001
1.612106e+003,8.436658e+001
1.613070e+003,8.250708e+001
1.614034e+003,7.984509e+001
1.614998e+003,7.701392e+001
1.615963e+003,7.439099e+001
1.616927e+003,7.177271e+001
1.617891e+003,6.941138e+001
1.618855e+003,6.964905e+001
1.619820e+003,7.407056e+001
1.620784e+003,7.892725e+001
1.621748e+003,7.961560e+001
1.622712e+003,7.752625e+001
1.623677e+003,7.628430e+001
1.624641e+003,7.603979e+001
1.625605e+003,7.640601e+001
1.626569e+003,7.654932e+001
1.627533e+003,7.564478e+001
1.628498e+003,7.305762e+001
1.629462e+003,7.081750e+001
1.630426e+003,7.091748e+001
1.631390e+003,7.238110e+001
1.632354e+003,7.266602e+001
1.633319e+003,7.132324e+001
1.634283e+003,7.105872e+001
1.635247e+003,7.415039e+001
1.636211e+003,7.823718e+001
1.637176e+003,7.918433e+001
1.638140e+003,7.745386e+001
1.639104e+003,7.617151e+001
1.640068e+003,7.499121e+001
1.641033e+003,7.494153e+001
1.641997e+003,7.801160e+001
1.642961e+003,8.036621e+001
1.643925e+003,7.822681e+001
1.644890e+003,7.590454e+001
1.645854e+003,7.893298e+001
1.646818e+003,8.509192e+001
1.647782e+003,8.768469e+001
1.648747e+003,8.479492e+001
1.649711e+003,8.116870e+001
1.650675e+003,8.105322e+001
1.651639e+003,8.310889e+001
1.652604e+003,8.426306e+001
1.653568e+003,8.419421e+001
1.654532e+003,8.195667e+001
1.655496e+003,7.664075e+001
1.656460e+003,7.229321e+001
1.657425e+003,7.042859e+001
1.658389e+003,6.981152e+001
1.659353e+003,7.083545e+001
1.660317e+003,7.176208e+001
1.661281e+003,7.039270e+001
1.662246e+003,6.708997e+001
1.663210e+003,6.364941e+001
1.664174e+003,6.088354e+001
1.665138e+003,5.880505e+001
1.666103e+003,5.720093e+001
1.667067e+003,5.586841e+001
1.668031e+003,5.478479e+001
1.668995e+003,5.408081e+001
1.669960e+003,5.374707e+001
1.670924e+003,5.406055e+001
1.671888e+003,5.424023e+001
1.672852e+003,5.373401e+001
1.673817e+003,5.286255e+001
1.674781e+003,5.096973e+001
1.675745e+003,4.937146e+001
1.676709e+003,5.038843e+001
1.677674e+003,5.293030e+001
1.678638e+003,5.321948e+001
1.679602e+003,5.011853e+001
1.680566e+003,4.648853e+001
1.681531e+003,4.477710e+001
1.682495e+003,4.423523e+001
1.683459e+003,4.292175e+001
1.684423e+003,4.074463e+001
1.685387e+003,3.928552e+001
1.686352e+003,3.901733e+001
1.687316e+003,3.810071e+001
1.688280e+003,3.512439e+001
1.689244e+003,3.286951e+001
1.690208e+003,3.426465e+001
1.691173e+003,3.660840e+001
1.692137e+003,3.770789e+001
1.693101e+003,3.776196e+001
1.694065e+003,3.620068e+001
1.695030e+003,3.232764e+001
1.695994e+003,2.861768e+001
1.696958e+003,2.626355e+001
1.697922e+003,2.585779e+001
1.698887e+003,2.996179e+001
1.699851e+003,3.645996e+001
1.700815e+003,3.794153e+001
1.701779e+003,3.361230e+001
1.702744e+003,2.817358e+001
1.703708e+003,2.287512e+001
1.704672e+003,2.018262e+001
1.705636e+003,2.247656e+001
1.706601e+003,2.633521e+001
1.707565e+003,2.758643e+001
1.708529e+003,2.722656e+001
1.709493e+003,2.719202e+001
1.710458e+003,2.770288e+001
1.711422e+003,2.770886e+001
1.712386e+003,2.719165e+001
1.713350e+003,2.636755e+001
1.714314e+003,2.476233e+001
1.715279e+003,2.235681e+001
1.716243e+003,1.889453e+001
1.717207e+003,1.503503e+001
1.718171e+003,1.371594e+001
1.719135e+003,1.585364e+001
1.720100e+003,1.799426e+001
1.721064e+003,1.762085e+001
1.722028e+003,1.596265e+001
1.722992e+003,1.510095e+001
1.723957e+003,1.543921e+001
1.724921e+003,1.634216e+001
1.725885e+003,1.722339e+001
1.726849e+003,1.670361e+001
1.727814e+003,1.436279e+001
1.728778e+003,1.279700e+001
1.729742e+003,1.271082e+001
1.730706e+003,1.387891e+001
1.731671e+003,1.700842e+001
1.732635e+003,1.989014e+001
1.733599e+003,1.869653e+001
1.734563e+003,1.392798e+001
1.735528e+003,1.006470e+001
1.736492e+003,9.218384e+000
1.737456e+003,9.172241e+000
1.738420e+003,7.316040e+000
1.739385e+003,3.772461e+000
1.740349e+003,3.343506e-001
1.741313e+003,-3.183105e+000
1.742277e+003,-3.609619e+000
1.743241e+003,2.812988e+000
1.744206e+003,7.079590e+000
1.745170e+003,6.510254e+000
1.746134e+003,4.776611e+000
1.747098e+003,2.711060e+000
1.748063e+003,1.380249e+000
1.749027e+003,3.032959e+000
1.749991e+003,6.269165e+000
1.750955e+003,6.593872e+000
1.751919e+003,2.902100e+000
1.752884e+003,-5.207520e-001
1.753848e+003,-9.143066e-002
1.754812e+003,1.900146e+000
1.755776e+003,9.471436e-001
1.756741e+003,-2.342896e+000
1.757705e+003,-2.196167e+000
1.758669e+003,2.942749e+000
1.759633e+003,5.683350e+000
1.760598e+003,3.149902e+000
1.761562e+003,4.110107e-001
1.762526e+003,-4.960938e-001
1.763490e+003,-6.702881e-001
1.764455e+003,-5.952148e-001
1.765419e+003,-3.521729e-001
1.766383e+003,-4.870605e-001
1.767347e+003,-1.058594e+000
1.768312e+003,-1.040894e+000
1.769276e+003,-7.348633e-002
1.770240e+003,7.375488e-001
1.771204e+003,1.015869e+000
1.772168e+003,1.102051e+000
1.773133e+003,3.095703e-001
1.774097e+003,-1.201050e+000
1.775061e+003,-1.537598e+000
1.776025e+003,-9.575195e-001
1.776990e+003,3.839111e-001
1.777954e+003,3.869263e+000
1.778918e+003,6.601929e+000
1.779882e+003,4.553223e+000
1.780846e+003,1.189331e+000
1.781811e+003,2.753052e+000
1.782775e+003,7.532715e+000
1.783739e+003,8.895386e+000
1.784703e+003,5.720825e+000
1.785668e+003,3.590698e+000
1.786632e+003,4.709106e+000
1.787596e+003,6.420898e+000
1.788560e+003,8.063354e+000
1.789525e+003,9.571167e+000
1.790489e+003,9.879150e+000
1.791453e+003,9.099976e+000
1.792417e+003,7.974243e+000
1.793382e+003,6.935913e+000
1.794346e+003,8.156738e+000
1.795310e+003,1.301379e+001
1.796274e+003,1.656677e+001
1.797239e+003,1.289990e+001
1.798203e+003,5.418945e+000
1.799167e+003,3.330322e+000
1.800131e+003,6.786621e+000
1.801095e+003,7.257935e+000
1.802060e+003,2.069458e+000
1.803024e+003,4.437256e-001
1.803988e+003,6.237061e+000
1.804952e+003,1.136389e+001
1.805917e+003,1.137891e+001
1.806881e+003,9.389526e+000
1.807845e+003,9.115845e+000
1.808809e+003,9.765625e+000
1.809773e+003,7.575439e+000
1.810738e+003,2.744263e+000
1.811702e+003,1.071411e+000
1.812666e+003,6.020386e+000
1.813630e+003,1.272693e+001
1.814595e+003,1.467993e+001
1.815559e+003,1.275134e+001
1.816523e+003,1.073669e+001
1.817487e+003,8.656250e+000
1.818452e+003,7.861694e+000
1.819416e+003,9.280640e+000
1.820380e+003,1.091394e+001
1.821344e+003,1.219739e+001
1.822309e+003,1.256787e+001
1.823273e+003,1.115442e+001
1.824237e+003,9.869141e+000
1.825201e+003,1.076111e+001
1.826166e+003,1.291003e+001
1.827130e+003,1.420935e+001
1.828094e+003,1.408960e+001
1.829058e+003,1.261694e+001
1.830022e+003,9.546631e+000
1.830987e+003,6.604126e+000
1.831951e+003,5.474365e+000
1.832915e+003,5.170898e+000
1.833879e+003,4.041504e+000
1.834844e+003,2.445557e+000
1.835808e+003,1.621704e+000
1.836772e+003,1.839233e+000
1.837736e+003,2.804321e+000
1.838700e+003,4.166992e+000
1.839665e+003,5.835205e+000
1.840629e+003,8.190430e+000
1.841593e+003,1.037891e+001
1.842557e+003,9.992065e+000
1.843522e+003,7.053833e+000
1.844486e+003,5.346924e+000
1.845450e+003,6.139526e+000
1.846414e+003,7.022339e+000
1.847379e+003,6.513428e+000
1.848343e+003,6.471802e+000
1.849307e+003,8.735596e+000
1.850271e+003,1.087512e+001
1.851236e+003,1.168347e+001
1.852200e+003,1.141089e+001
1.853164e+003,9.079956e+000
1.854128e+003,5.380127e+000
1.855093e+003,3.570923e+000
1.856057e+003,5.111938e+000
1.857021e+003,7.544556e+000
1.857985e+003,8.571655e+000
1.858949e+003,8.834229e+000
1.859914e+003,9.379883e+000
1.860878e+003,1.042969e+001
1.861842e+003,1.314453e+001
1.862806e+003,1.744653e+001
1.863771e+003,1.822876e+001
1.864735e+003,1.346399e+001
1.865699e+003,9.496460e+000
1.866663e+003,9.277954e+000
1.867627e+003,1.126123e+001
1.868592e+003,1.501660e+001
1.869556e+003,1.853394e+001
1.870520e+003,1.844458e+001
1.871484e+003,1.526465e+001
1.872449e+003,1.255505e+001
1.873413e+003,1.152783e+001
1.874377e+003,1.324634e+001
1.875341e+003,1.953003e+001
1.876306e+003,2.421021e+001
1.877270e+003,2.199280e+001
1.878234e+003,1.811487e+001
1.879198e+003,1.867236e+001
1.880163e+003,2.159448e+001
1.881127e+003,2.244092e+001
1.882091e+003,2.082568e+001
1.883055e+003,1.855957e+001
1.884020e+003,1.650549e+001
1.884984e+003,1.503003e+001
1.885948e+003,1.452930e+001
1.886912e+003,1.426123e+001
1.887876e+003,1.240710e+001
1.888841e+003,9.397095e+000
1.889805e+003,1.057922e+001
1.890769e+003,1.720459e+001
1.891733e+003,2.119434e+001
1.892698e+003,2.072888e+001
1.893662e+003,1.911462e+001
1.894626e+003,1.569067e+001
1.895590e+003,1.413037e+001
1.896554e+003,1.896912e+001
1.897519e+003,2.608765e+001
1.898483e+003,3.105701e+001
1.899447e+003,3.316785e+001
1.900411e+003,3.159167e+001
1.901376e+003,2.607385e+001
1.902340e+003,2.220776e+001
1.903304e+003,2.242639e+001
1.904268e+003,2.404749e+001
1.905233e+003,2.705347e+001
1.906197e+003,2.953442e+001
1.907161e+003,2.912854e+001
1.908125e+003,2.714905e+001
1.909090e+003,2.464392e+001
1.910054e+003,2.245386e+001
1.911018e+003,2.414001e+001
1.911982e+003,3.031580e+001
1.912947e+003,3.450342e+001
1.913911e+003,3.180518e+001
1.914875e+003,2.671960e+001
1.915839e+003,2.598303e+001
1.916803e+003,2.867065e+001
1.917768e+003,3.276843e+001
1.918732e+003,3.953137e+001
1.919696e+003,4.136877e+001
1.920660e+003,3.608765e+001
1.921625e+003,3.284436e+001
1.922589e+003,3.480469e+001
1.923553e+003,3.645178e+001
1.924517e+003,3.374878e+001
1.925481e+003,3.065656e+001
1.926446e+003,3.068909e+001
1.927410e+003,3.288562e+001
1.928374e+003,3.586072e+001
1.929338e+003,3.891162e+001
1.930303e+003,3.918207e+001
1.931267e+003,3.554456e+001
1.932231e+003,3.293719e+001
1.933195e+003,3.297729e+001
1.934160e+003,3.438489e+001
1.935124e+003,3.805786e+001
1.936088e+003,4.081970e+001
1.937052e+003,3.803296e+001
1.938017e+003,3.235950e+001
1.938981e+003,2.947260e+001
1.939945e+003,3.003857e+001
1.940909e+003,3.144751e+001
1.941874e+003,3.226868e+001
1.942838e+003,3.262512e+001
1.943802e+003,3.306323e+001
1.944766e+003,3.365125e+001
1.945730e+003,3.317804e+001
1.946695e+003,3.170593e+001
1.947659e+003,3.314911e+001
1.948623e+003,3.783130e+001
1.949587e+003,4.007349e+001
1.950552e+003,3.891870e+001
1.951516e+003,3.793787e+001
1.952480e+003,3.832306e+001
1.953444e+003,3.909497e+001
1.954408e+003,4.002179e+001
1.955373e+003,3.990100e+001
1.956337e+003,3.637097e+001
1.957301e+003,3.140295e+001
1.958265e+003,3.041968e+001
1.959230e+003,3.404797e+001
1.960194e+003,3.794189e+001
1.961158e+003,4.194403e+001
1.962122e+003,4.383606e+001
1.963087e+003,4.148541e+001
1.964051e+003,3.902881e+001
1.965015e+003,3.945190e+001
1.965979e+003,4.129175e+001
1.966944e+003,4.313672e+001
1.967908e+003,4.410712e+001
1.968872e+003,4.279773e+001
1.969836e+003,4.003754e+001
1.970801e+003,3.944727e+001
1.971765e+003,4.241833e+001
1.972729e+003,4.527673e+001
1.973693e+003,4.477197e+001
1.974657e+003,4.274097e+001
1.975622e+003,4.127075e+001
1.976586e+003,4.033258e+001
1.977550e+003,4.051111e+001
1.978514e+003,4.185541e+001
1.979479e+003,4.385034e+001
1.980443e+003,4.622803e+001
1.981407e+003,4.794397e+001
1.982371e+003,4.878735e+001
1.983335e+003,4.943768e+001
1.984300e+003,5.010413e+001
1.985264e+003,5.059344e+001
1.986228e+003,5.108630e+001
1.987192e+003,5.127734e+001
1.988157e+003,4.946143e+001
1.989121e+003,4.504102e+001
1.990085e+003,4.283093e+001
1.991049e+003,4.442139e+001
1.992014e+003,4.557794e+001
1.992978e+003,4.463586e+001
1.993942e+003,4.424725e+001
1.994906e+003,4.587317e+001
1.995871e+003,4.783081e+001
1.996835e+003,4.904993e+001
1.997799e+003,5.004065e+001
1.998763e+003,5.141107e+001
1.999728e+003,5.283850e+001
