5.003444e+002,4.528313e+001
5.013087e+002,4.535246e+001
5.022729e+002,4.476547e+001
5.032371e+002,4.368474e+001
5.042014e+002,4.197072e+001
5.051656e+002,3.982327e+001
5.061298e+002,3.831758e+001
5.070941e+002,3.850824e+001
5.080583e+002,4.081424e+001
5.090225e+002,4.195882e+001
5.099868e+002,4.205490e+001
5.109510e+002,4.133832e+001
5.119152e+002,3.945848e+001
5.128795e+002,3.630772e+001
5.138437e+002,3.408960e+001
5.148079e+002,3.480577e+001
5.157722e+002,3.552419e+001
5.167364e+002,3.453648e+001
5.177006e+002,3.191876e+001
5.186649e+002,2.951778e+001
5.196291e+002,3.039670e+001
5.205933e+002,3.253410e+001
5.215576e+002,3.329291e+001
5.225218e+002,3.238463e+001
5.234860e+002,3.080072e+001
5.244503e+002,3.049603e+001
5.254145e+002,3.219385e+001
5.263787e+002,3.315738e+001
5.273430e+002,3.308623e+001
5.283072e+002,3.249796e+001
5.292714e+002,3.207570e+001
5.302357e+002,3.190329e+001
5.311999e+002,3.118095e+001
5.321641e+002,2.995744e+001
5.331284e+002,2.850760e+001
5.340926e+002,2.658728e+001
5.350568e+002,2.393088e+001
5.360211e+002,2.211040e+001
5.369853e+002,2.373700e+001
5.379495e+002,2.638425e+001
5.389138e+002,2.817728e+001
5.398780e+002,2.830132e+001
5.408422e+002,2.715121e+001
5.418065e+002,2.546262e+001
5.427707e+002,2.336296e+001
5.437349e+002,2.185211e+001
5.446992e+002,2.120833e+001
5.456634e+002,2.128984e+001
5.466276e+002,2.166641e+001
5.475919e+002,2.330663e+001
5.485561e+002,2.405898e+001
5.495203e+002,2.316498e+001
5.504846e+002,2.146091e+001
5.514488e+002,2.026874e+001
5.524130e+002,2.044514e+001
5.533773e+002,2.043910e+001
5.543415e+002,1.916278e+001
5.553057e+002,1.747919e+001
5.562700e+002,1.614685e+001
5.572342e+002,1.561821e+001
5.581984e+002,1.577905e+001
5.591627e+002,1.684352e+001
5.601269e+002,1.847507e+001
5.610911e+002,1.981314e+001
5.620554e+002,2.037553e+001
5.630196e+002,2.016028e+001
5.639838e+002,1.958411e+001
5.649481e+002,1.825133e+001
5.659123e+002,1.715016e+001
5.668765e+002,1.678836e+001
5.678408e+002,1.697153e+001
5.688050e+002,1.686646e+001
5.697692e+002,1.542184e+001
5.707335e+002,1.450108e+001
5.716977e+002,1.547192e+001
5.726619e+002,1.711354e+001
5.736262e+002,1.769928e+001
5.745904e+002,1.594139e+001
5.755546e+002,1.331400e+001
5.765189e+002,1.195091e+001
5.774831e+002,1.136786e+001
5.784473e+002,1.089787e+001
5.794116e+002,1.015128e+001
5.803758e+002,9.292938e+000
5.813400e+002,9.471954e+000
5.823043e+002,1.109190e+001
5.832685e+002,1.190884e+001
5.842327e+002,1.094315e+001
5.851970e+002,8.556015e+000
5.861612e+002,6.538071e+000
5.871254e+002,4.418182e+000
5.880897e+002,3.395752e+000
5.890539e+002,4.149277e+000
5.900181e+002,6.001663e+000
5.909824e+002,7.989212e+000
5.919466e+002,9.730209e+000
5.929108e+002,1.103500e+001
5.938751e+002,1.211757e+001
5.948393e+002,1.273235e+001
5.958035e+002,1.229141e+001
5.967678e+002,1.041208e+001
5.977320e+002,7.479462e+000
5.986962e+002,6.098877e+000
5.996605e+002,5.990967e+000
6.006247e+002,6.349152e+000
6.015889e+002,7.188324e+000
6.025532e+002,8.439133e+000
6.035174e+002,8.886505e+000
6.044816e+002,7.438675e+000
6.054459e+002,6.360229e+000
6.064101e+002,5.828842e+000
6.073743e+002,5.896042e+000
6.083386e+002,6.802429e+000
6.093028e+002,9.368958e+000
6.102670e+002,1.140579e+001
6.112313e+002,1.085509e+001
6.121955e+002,8.988586e+000
6.131597e+002,7.385727e+000
6.141240e+002,7.132660e+000
6.150882e+002,7.934326e+000
6.160524e+002,9.088989e+000
6.170167e+002,1.058496e+001
6.179809e+002,1.106676e+001
6.189451e+002,9.432877e+000
6.199094e+002,6.033401e+000
6.208736e+002,4.066788e+000
6.218378e+002,5.053848e+000
6.228021e+002,6.160522e+000
6.237663e+002,7.604660e+000
6.247305e+002,8.957504e+000
6.256948e+002,9.438034e+000
6.266590e+002,8.292435e+000
6.276232e+002,6.904678e+000
6.285875e+002,6.119232e+000
6.295517e+002,5.799240e+000
6.305159e+002,5.940903e+000
6.314802e+002,6.451828e+000
6.324444e+002,6.931030e+000
6.334086e+002,6.131592e+000
6.343729e+002,4.568741e+000
6.353371e+002,3.243301e+000
6.363013e+002,2.454788e+000
6.372656e+002,2.111603e+000
6.382298e+002,2.003845e+000
6.391940e+002,2.459290e+000
6.401583e+002,2.627045e+000
6.411225e+002,2.759186e+000
6.420867e+002,2.738998e+000
6.430510e+002,2.281693e+000
6.440152e+002,1.109482e+000
6.449794e+002,-3.081207e-001
6.459437e+002,-2.405334e+000
6.469079e+002,-4.149338e+000
6.478721e+002,-4.422516e+000
6.488364e+002,-2.957840e+000
6.498006e+002,-7.615356e-001
6.507648e+002,3.678741e-001
6.517291e+002,7.486725e-001
6.526933e+002,1.198685e+000
6.536575e+002,1.863846e+000
6.546218e+002,2.651215e+000
6.555860e+002,3.431824e+000
6.565502e+002,4.470551e+000
6.575145e+002,4.739319e+000
6.584787e+002,3.960541e+000
6.594429e+002,2.774872e+000
6.604072e+002,1.537643e+000
6.613714e+002,2.536621e-001
6.623356e+002,-6.615601e-001
6.632999e+002,-1.213821e+000
6.642641e+002,-1.355560e+000
6.652283e+002,-6.093597e-001
6.661926e+002,8.443146e-001
6.671568e+002,2.239624e+000
6.681210e+002,2.465134e+000
6.690853e+002,1.962006e+000
6.700495e+002,2.291168e+000
6.710137e+002,3.417404e+000
6.719780e+002,4.357269e+000
6.729422e+002,3.967224e+000
6.739064e+002,1.814499e+000
6.748707e+002,6.738892e-001
6.758349e+002,1.449081e+000
6.767991e+002,1.854492e+000
6.777634e+002,3.391876e-001
6.787276e+002,-2.596649e+000
6.796918e+002,-3.794159e+000
6.806561e+002,1.513672e-002
6.816203e+002,3.246841e+000
6.825845e+002,3.149429e+000
6.835488e+002,1.109299e+000
6.845130e+002,-4.015656e-001
6.854772e+002,4.997406e-001
6.864415e+002,2.877472e+000
6.874057e+002,4.682220e+000
6.883699e+002,5.824951e+000
6.893342e+002,6.142273e+000
6.902984e+002,5.507492e+000
6.912626e+002,4.138153e+000
6.922269e+002,3.273590e+000
6.931911e+002,3.677261e+000
6.941553e+002,3.900833e+000
6.951196e+002,3.014282e+000
6.960838e+002,1.939758e+000
6.970480e+002,2.589264e+000
6.980123e+002,6.524246e+000
6.989765e+002,9.298721e+000
6.999407e+002,8.819992e+000
7.009050e+002,6.932587e+000
7.018692e+002,4.775452e+000
7.028334e+002,2.868729e+000
7.037977e+002,1.167236e+000
7.047619e+002,-5.704041e-001
7.057261e+002,-1.851028e+000
7.066904e+002,-1.525406e+000
7.076546e+002,5.863800e-001
7.086188e+002,3.377716e+000
7.095831e+002,5.139938e+000
7.105473e+002,5.695694e+000
7.115115e+002,5.238174e+000
7.124758e+002,2.758255e+000
7.134400e+002,3.934174e-001
7.144042e+002,-2.479095e-001
7.153685e+002,8.796387e-001
7.163327e+002,1.629349e+000
7.172969e+002,8.319092e-002
7.182612e+002,-1.113892e+000
7.192254e+002,-4.946289e-001
7.201896e+002,1.270081e+000
7.211539e+002,2.716629e+000
7.221181e+002,2.640289e+000
7.230823e+002,1.471786e+000
7.240466e+002,4.251251e-001
7.250108e+002,-4.290161e-001
7.259750e+002,-1.198715e+000
7.269393e+002,-2.097794e+000
7.279035e+002,-3.176834e+000
7.288677e+002,-3.837509e+000
7.298320e+002,-4.082703e+000
7.307962e+002,-3.297394e+000
7.317604e+002,-5.232239e-001
7.327247e+002,2.988220e+000
7.336889e+002,5.485626e+000
7.346531e+002,6.319336e+000
7.356174e+002,5.947937e+000
7.365816e+002,4.128479e+000
7.375458e+002,2.243301e+000
7.385101e+002,1.361420e+000
7.394743e+002,1.716721e+000
7.404385e+002,2.709930e+000
7.414028e+002,3.492935e+000
7.423670e+002,3.848572e+000
7.433312e+002,4.144775e+000
7.442955e+002,4.631760e+000
7.452597e+002,4.892883e+000
7.462239e+002,4.081024e+000
7.471882e+002,1.481064e+000
7.481524e+002,8.120422e-001
7.491166e+002,3.623672e+000
7.500809e+002,5.889084e+000
7.510451e+002,5.948898e+000
7.520093e+002,4.165115e+000
7.529736e+002,2.131531e+000
7.539378e+002,3.217773e-001
7.549020e+002,-7.842102e-001
7.558663e+002,-6.492462e-001
7.568306e+002,1.109314e-001
7.577948e+002,5.831146e-001
7.587590e+002,2.045593e-001
7.597233e+002,-6.678162e-001
7.606875e+002,-5.377045e-001
7.616517e+002,5.301971e-001
7.626160e+002,1.090302e+000
7.635802e+002,5.012512e-001
7.645444e+002,-4.514313e-001
7.655087e+002,4.075623e-002
7.664729e+002,3.279984e+000
7.674371e+002,4.945801e+000
7.684014e+002,3.926605e+000
7.693656e+002,2.330658e+000
7.703298e+002,1.259323e+000
7.712941e+002,9.660492e-001
7.722583e+002,1.394333e+000
7.732225e+002,3.346451e+000
7.741868e+002,5.190781e+000
7.751510e+002,5.453415e+000
7.761152e+002,4.498642e+000
7.770795e+002,3.381943e+000
7.780437e+002,3.017227e+000
7.790079e+002,3.243988e+000
7.799722e+002,2.843811e+000
7.809364e+002,1.761414e+000
7.819006e+002,8.092804e-001
7.828649e+002,4.327087e-001
7.838291e+002,5.464478e-001
7.847933e+002,6.663361e-001
7.857576e+002,6.059113e-001
7.867218e+002,4.784546e-001
7.876860e+002,4.055481e-001
7.886503e+002,4.385681e-001
7.896145e+002,5.563049e-001
7.905787e+002,7.679138e-001
7.915430e+002,1.219025e+000
7.925072e+002,2.215622e+000
7.934714e+002,3.237076e+000
7.944357e+002,3.820496e+000
7.953999e+002,4.043365e+000
7.963641e+002,4.283524e+000
7.973284e+002,4.953262e+000
7.982926e+002,6.130997e+000
7.992568e+002,6.039413e+000
8.002211e+002,3.964722e+000
8.011853e+002,1.707809e+000
8.021495e+002,-4.651642e-001
8.031138e+002,-2.047775e+000
8.040780e+002,-1.591156e+000
8.050422e+002,2.621765e+000
8.060065e+002,6.175552e+000
8.069707e+002,7.358093e+000
8.079349e+002,7.329544e+000
8.088992e+002,7.041718e+000
8.098634e+002,6.997116e+000
8.108276e+002,7.448471e+000
8.117919e+002,9.545609e+000
8.127561e+002,1.170195e+001
8.137203e+002,1.046922e+001
8.146846e+002,5.675873e+000
8.156488e+002,4.075012e-001
8.166130e+002,-1.561081e+000
8.175773e+002,3.935852e-001
8.185415e+002,1.713287e+000
8.195057e+002,1.423477e+000
8.204700e+002,1.576111e+000
8.214342e+002,3.456070e+000
8.223984e+002,6.300903e+000
8.233627e+002,7.923431e+000
8.243269e+002,6.942444e+000
8.252911e+002,6.039154e+000
8.262554e+002,7.477310e+000
8.272196e+002,9.378098e+000
8.281838e+002,9.333694e+000
8.291481e+002,6.759003e+000
8.301123e+002,3.666824e+000
8.310765e+002,3.921524e+000
8.320408e+002,7.125580e+000
8.330050e+002,8.208359e+000
8.339692e+002,6.596985e+000
8.349335e+002,3.947235e+000
8.358977e+002,1.575455e+000
8.368619e+002,-6.339264e-001
8.378262e+002,-1.196487e+000
8.387904e+002,1.827621e+000
8.397546e+002,4.095856e+000
8.407189e+002,4.142014e+000
8.416831e+002,2.826553e+000
8.426473e+002,1.656479e+000
8.436116e+002,1.224197e+000
8.445758e+002,1.491989e+000
8.455400e+002,2.891479e+000
8.465043e+002,4.417007e+000
8.474685e+002,4.839966e+000
8.484327e+002,4.045776e+000
8.493970e+002,3.069168e+000
8.503612e+002,3.512924e+000
8.513254e+002,5.620712e+000
8.522897e+002,7.276901e+000
8.532539e+002,8.886063e+000
8.542181e+002,9.486694e+000
8.551824e+002,7.749954e+000
8.561466e+002,4.247604e+000
8.571108e+002,2.882599e+000
8.580751e+002,5.927567e+000
8.590393e+002,8.762329e+000
8.600035e+002,1.003793e+001
8.609678e+002,1.047212e+001
8.619320e+002,1.096216e+001
8.628962e+002,1.184413e+001
8.638605e+002,1.259845e+001
8.648247e+002,1.226424e+001
8.657889e+002,1.124431e+001
8.667532e+002,1.028128e+001
8.677174e+002,9.479034e+000
8.686816e+002,9.212051e+000
8.696459e+002,1.004671e+001
8.706101e+002,1.224026e+001
8.715743e+002,1.406827e+001
8.725386e+002,1.541924e+001
8.735028e+002,1.662309e+001
8.744670e+002,1.766019e+001
8.754313e+002,1.845319e+001
8.763955e+002,1.894864e+001
8.773597e+002,1.913986e+001
8.783240e+002,1.923531e+001
8.792882e+002,1.920920e+001
8.802524e+002,1.917430e+001
8.812167e+002,1.919260e+001
8.821809e+002,1.932870e+001
8.831451e+002,1.977832e+001
8.841094e+002,2.088625e+001
8.850736e+002,2.264189e+001
8.860378e+002,2.314575e+001
8.870021e+002,2.197942e+001
8.879663e+002,2.094493e+001
8.889305e+002,2.127634e+001
8.898948e+002,2.257875e+001
8.908590e+002,2.293719e+001
8.918232e+002,2.142993e+001
8.927875e+002,2.052081e+001
8.937517e+002,2.106110e+001
8.947159e+002,2.209511e+001
8.956802e+002,2.285851e+001
8.966444e+002,2.306694e+001
8.976086e+002,2.279120e+001
8.985729e+002,2.189166e+001
8.995371e+002,2.104120e+001
9.005013e+002,2.134178e+001
9.014656e+002,2.266673e+001
9.024298e+002,2.401440e+001
9.033940e+002,2.451410e+001
9.043583e+002,2.424950e+001
9.053225e+002,2.469193e+001
9.062867e+002,2.730193e+001
9.072510e+002,2.845915e+001
9.082152e+002,2.705479e+001
9.091794e+002,2.511775e+001
9.101437e+002,2.468044e+001
9.111079e+002,2.606033e+001
9.120721e+002,2.767061e+001
9.130364e+002,2.895903e+001
9.140006e+002,2.962895e+001
9.149648e+002,2.936215e+001
9.159291e+002,2.850661e+001
9.168933e+002,2.757387e+001
9.178575e+002,2.687219e+001
9.188218e+002,2.628398e+001
9.197860e+002,2.554912e+001
9.207502e+002,2.457135e+001
9.217145e+002,2.430135e+001
9.226787e+002,2.564255e+001
9.236429e+002,2.738426e+001
9.246072e+002,2.768277e+001
9.255714e+002,2.616585e+001
9.265356e+002,2.466948e+001
9.274999e+002,2.309676e+001
9.284641e+002,2.191722e+001
9.294283e+002,2.153125e+001
9.303926e+002,2.170236e+001
9.313568e+002,2.202919e+001
9.323210e+002,2.231342e+001
9.332853e+002,2.246797e+001
9.342495e+002,2.255023e+001
9.352137e+002,2.233237e+001
9.361780e+002,2.127496e+001
9.371422e+002,1.937245e+001
9.381064e+002,1.730368e+001
9.390707e+002,1.582642e+001
9.400349e+002,1.480998e+001
9.409991e+002,1.442274e+001
9.419634e+002,1.510696e+001
9.429276e+002,1.569818e+001
9.438918e+002,1.566701e+001
9.448561e+002,1.547440e+001
9.458203e+002,1.608971e+001
9.467845e+002,1.802437e+001
9.477488e+002,1.974057e+001
9.487130e+002,2.001675e+001
9.496772e+002,1.959587e+001
9.506415e+002,1.877657e+001
9.516057e+002,1.774973e+001
9.525699e+002,1.673659e+001
9.535342e+002,1.592667e+001
9.544984e+002,1.527997e+001
9.554626e+002,1.488846e+001
9.564269e+002,1.487895e+001
9.573911e+002,1.518396e+001
9.583553e+002,1.612971e+001
9.593196e+002,1.715974e+001
9.602838e+002,1.717819e+001
9.612480e+002,1.573938e+001
9.622123e+002,1.484380e+001
9.631765e+002,1.589227e+001
9.641407e+002,1.686191e+001
9.651050e+002,1.650616e+001
9.660692e+002,1.526204e+001
9.670334e+002,1.424931e+001
9.679977e+002,1.421832e+001
9.689619e+002,1.504655e+001
9.699261e+002,1.704890e+001
9.708904e+002,1.948923e+001
9.718546e+002,1.977834e+001
9.728188e+002,1.681233e+001
9.737831e+002,1.356952e+001
9.747473e+002,1.456235e+001
9.757115e+002,2.100458e+001
9.766758e+002,2.530893e+001
9.776400e+002,2.603180e+001
9.786042e+002,2.656342e+001
9.795685e+002,2.765701e+001
9.805327e+002,2.882179e+001
9.814969e+002,2.964346e+001
9.824612e+002,3.006993e+001
9.834254e+002,2.951843e+001
9.843896e+002,2.616534e+001
9.853539e+002,2.199980e+001
9.863181e+002,1.939413e+001
9.872823e+002,1.819171e+001
9.882466e+002,1.689928e+001
9.892108e+002,1.436206e+001
9.901750e+002,1.098730e+001
9.911393e+002,8.681534e+000
9.921035e+002,7.300522e+000
9.930677e+002,6.753494e+000
9.940320e+002,7.539825e+000
9.949962e+002,9.012512e+000
9.959604e+002,1.100258e+001
9.969247e+002,1.341003e+001
9.978889e+002,1.482785e+001
9.988531e+002,1.363892e+001
9.998174e+002,1.204724e+001
1.000782e+003,1.115752e+001
1.001746e+003,1.105870e+001
1.002710e+003,1.194336e+001
1.003674e+003,1.374202e+001
1.004639e+003,1.577101e+001
1.005603e+003,1.679196e+001
1.006567e+003,1.664856e+001
1.007531e+003,1.700671e+001
1.008495e+003,1.824382e+001
1.009460e+003,1.926233e+001
1.010424e+003,1.944621e+001
1.011388e+003,1.893117e+001
1.012352e+003,1.807945e+001
1.013317e+003,1.659052e+001
1.014281e+003,1.531236e+001
1.015245e+003,1.444279e+001
1.016209e+003,1.376357e+001
1.017174e+003,1.335971e+001
1.018138e+003,1.306871e+001
1.019102e+003,1.244476e+001
1.020066e+003,1.111942e+001
1.021031e+003,9.399139e+000
1.021995e+003,7.848984e+000
1.022959e+003,6.345795e+000
1.023923e+003,5.060074e+000
1.024887e+003,4.082870e+000
1.025852e+003,3.234436e+000
1.026816e+003,2.272324e+000
1.027780e+003,1.252518e+000
1.028744e+003,2.832794e-001
1.029709e+003,-1.109406e+000
1.030673e+003,-1.942093e+000
1.031637e+003,-1.673843e+000
1.032601e+003,-8.316193e-001
1.033566e+003,2.584839e-002
1.034530e+003,7.132568e-001
1.035494e+003,1.057220e+000
1.036458e+003,4.946289e-001
1.037422e+003,-4.044037e-001
1.038387e+003,-6.000061e-001
1.039351e+003,-1.301117e-001
1.040315e+003,4.430695e-001
1.041279e+003,7.048950e-001
1.042244e+003,8.547821e-001
1.043208e+003,1.746582e+000
1.044172e+003,4.569031e+000
1.045136e+003,5.730713e+000
1.046101e+003,4.523193e+000
1.047065e+003,2.532318e+000
1.048029e+003,3.138733e-002
1.048993e+003,-2.479980e+000
1.049958e+003,-3.624313e+000
1.050922e+003,-2.504013e+000
1.051886e+003,-2.532043e-001
1.052850e+003,3.109894e+000
1.053814e+003,6.228378e+000
1.054779e+003,6.785461e+000
1.055743e+003,4.531555e+000
1.056707e+003,1.530655e+000
1.057671e+003,2.617035e-001
1.058636e+003,7.141113e-001
1.059600e+003,1.134766e+000
1.060564e+003,1.737411e+000
1.061528e+003,2.289795e+000
1.062493e+003,2.605301e+000
1.063457e+003,2.738510e+000
1.064421e+003,2.939774e+000
1.065385e+003,3.264709e+000
1.066349e+003,3.131165e+000
1.067314e+003,1.918457e+000
1.068278e+003,5.265808e-001
1.069242e+003,-8.833618e-001
1.070206e+003,-1.824524e+000
1.071171e+003,-1.445313e+000
1.072135e+003,4.566345e-001
1.073099e+003,3.129532e+000
1.074063e+003,5.496613e+000
1.075028e+003,7.690857e+000
1.075992e+003,7.533890e+000
1.076956e+003,3.410019e+000
1.077920e+003,-1.181030e-001
1.078885e+003,-1.213058e+000
1.079849e+003,-5.556488e-001
1.080813e+003,8.073578e-001
1.081777e+003,2.964722e+000
1.082741e+003,4.670731e+000
1.083706e+003,4.963959e+000
1.084670e+003,4.640121e+000
1.085634e+003,3.785950e+000
1.086598e+003,2.695847e+000
1.087563e+003,1.782333e+000
1.088527e+003,1.335785e+000
1.089491e+003,1.368469e+000
1.090455e+003,1.801208e+000
1.091420e+003,2.600082e+000
1.092384e+003,3.087708e+000
1.093348e+003,3.368195e+000
1.094312e+003,3.019470e+000
1.095276e+003,1.393982e+000
1.096241e+003,-9.043121e-001
1.097205e+003,-2.167236e+000
1.098169e+003,-2.057617e+000
1.099133e+003,-1.568298e+000
1.100098e+003,-8.025208e-001
1.101062e+003,3.353882e-002
1.102026e+003,1.091629e+000
1.102990e+003,2.095490e+000
1.103955e+003,2.442474e+000
1.104919e+003,1.753891e+000
1.105883e+003,3.824005e-001
1.106847e+003,-1.037979e+000
1.107812e+003,-2.472214e+000
1.108776e+003,-2.878250e+000
1.109740e+003,-1.939636e+000
1.110704e+003,-5.350342e-001
1.111668e+003,1.113388e+000
1.112633e+003,2.893021e+000
1.113597e+003,3.900589e+000
1.114561e+003,3.621307e+000
1.115525e+003,3.334503e+000
1.116490e+003,3.863953e+000
1.117454e+003,4.114166e+000
1.118418e+003,3.081619e+000
1.119382e+003,1.284393e+000
1.120347e+003,-7.644653e-002
1.121311e+003,-3.523254e-001
1.122275e+003,6.651306e-002
1.123239e+003,9.587555e-001
1.124203e+003,2.328720e+000
1.125168e+003,2.617081e+000
1.126132e+003,1.384827e+000
1.127096e+003,-4.577637e-004
1.128060e+003,-9.303741e-001
1.129025e+003,-1.304596e+000
1.129989e+003,-1.805115e-001
1.130953e+003,3.578003e+000
1.131917e+003,6.242615e+000
1.132882e+003,5.843292e+000
1.133846e+003,5.248276e+000
1.134810e+003,6.516556e+000
1.135774e+003,9.061066e+000
1.136739e+003,1.109795e+001
1.137703e+003,1.160927e+001
1.138667e+003,1.114862e+001
1.139631e+003,1.043587e+001
1.140595e+003,9.600128e+000
1.141560e+003,9.678986e+000
1.142524e+003,1.095227e+001
1.143488e+003,1.263948e+001
1.144452e+003,1.385326e+001
1.145417e+003,1.500385e+001
1.146381e+003,1.789375e+001
1.147345e+003,2.351750e+001
1.148309e+003,2.816998e+001
1.149274e+003,3.003334e+001
1.150238e+003,3.181546e+001
1.151202e+003,3.477791e+001
1.152166e+003,3.884250e+001
1.153130e+003,4.389127e+001
1.154095e+003,4.961731e+001
1.155059e+003,5.457379e+001
1.156023e+003,5.664621e+001
1.156987e+003,5.617950e+001
1.157952e+003,5.648105e+001
1.158916e+003,5.810046e+001
1.159880e+003,5.864049e+001
1.160844e+003,5.625774e+001
1.161809e+003,5.174451e+001
1.162773e+003,4.699361e+001
1.163737e+003,4.186128e+001
1.164701e+003,3.727901e+001
1.165666e+003,3.360353e+001
1.166630e+003,3.058049e+001
1.167594e+003,2.868542e+001
1.168558e+003,2.711755e+001
1.169522e+003,2.465982e+001
1.170487e+003,2.109834e+001
1.171451e+003,1.760292e+001
1.172415e+003,1.542366e+001
1.173379e+003,1.442911e+001
1.174344e+003,1.412804e+001
1.175308e+003,1.457205e+001
1.176272e+003,1.501013e+001
1.177236e+003,1.536627e+001
1.178201e+003,1.554602e+001
1.179165e+003,1.546875e+001
1.180129e+003,1.506279e+001
1.181093e+003,1.374289e+001
1.182057e+003,1.002274e+001
1.183022e+003,7.595230e+000
1.183986e+003,8.804703e+000
1.184950e+003,1.110112e+001
1.185914e+003,1.222925e+001
1.186879e+003,1.187584e+001
1.187843e+003,1.088104e+001
1.188807e+003,9.877975e+000
1.189771e+003,8.923187e+000
1.190736e+003,8.360153e+000
1.191700e+003,8.228912e+000
1.192664e+003,7.986481e+000
1.193628e+003,7.502014e+000
1.194593e+003,7.140442e+000
1.195557e+003,7.429581e+000
1.196521e+003,8.032578e+000
1.197485e+003,7.643616e+000
1.198449e+003,5.676788e+000
1.199414e+003,4.030487e+000
1.200378e+003,3.944901e+000
1.201342e+003,4.127594e+000
1.202306e+003,3.590561e+000
1.203271e+003,2.644989e+000
1.204235e+003,2.382523e+000
1.205199e+003,3.240616e+000
1.206163e+003,4.076233e+000
1.207128e+003,2.800674e+000
1.208092e+003,-7.461090e-001
1.209056e+003,-2.262161e+000
1.210020e+003,-6.046753e-001
1.210984e+003,4.427338e-001
1.211949e+003,-6.380463e-001
1.212913e+003,-2.672394e+000
1.213877e+003,-4.106812e+000
1.214841e+003,-4.817688e+000
1.215806e+003,-5.733337e+000
1.216770e+003,-7.609787e+000
1.217734e+003,-9.168808e+000
1.218698e+003,-9.127045e+000
1.219663e+003,-8.639526e+000
1.220627e+003,-9.388611e+000
1.221591e+003,-1.141644e+001
1.222555e+003,-1.321315e+001
1.223520e+003,-1.335194e+001
1.224484e+003,-1.210719e+001
1.225448e+003,-1.097237e+001
1.226412e+003,-9.660278e+000
1.227376e+003,-9.308640e+000
1.228341e+003,-1.034685e+001
1.229305e+003,-1.188448e+001
1.230269e+003,-1.418094e+001
1.231233e+003,-1.644131e+001
1.232198e+003,-1.672107e+001
1.233162e+003,-1.435574e+001
1.234126e+003,-1.223820e+001
1.235090e+003,-1.311125e+001
1.236055e+003,-1.474124e+001
1.237019e+003,-1.438673e+001
1.237983e+003,-1.278406e+001
1.238947e+003,-1.207436e+001
1.239911e+003,-1.309332e+001
1.240876e+003,-1.462303e+001
1.241840e+003,-1.486755e+001
1.242804e+003,-1.373352e+001
1.243768e+003,-1.295782e+001
1.244733e+003,-1.275703e+001
1.245697e+003,-1.266008e+001
1.246661e+003,-1.319936e+001
1.247625e+003,-1.350587e+001
1.248590e+003,-1.240826e+001
1.249554e+003,-1.038983e+001
1.250518e+003,-9.252945e+000
1.251482e+003,-9.921539e+000
1.252447e+003,-1.104506e+001
1.253411e+003,-1.068703e+001
1.254375e+003,-9.649155e+000
1.255339e+003,-1.017336e+001
1.256303e+003,-1.218297e+001
1.257268e+003,-1.292601e+001
1.258232e+003,-1.036937e+001
1.259196e+003,-6.511337e+000
1.260160e+003,-5.522400e+000
1.261125e+003,-7.916885e+000
1.262089e+003,-9.477173e+000
1.263053e+003,-9.568924e+000
1.264017e+003,-9.171616e+000
1.264982e+003,-7.821899e+000
1.265946e+003,-6.531845e+000
1.266910e+003,-6.481216e+000
1.267874e+003,-7.459106e+000
1.268839e+003,-8.210571e+000
1.269803e+003,-7.898117e+000
1.270767e+003,-6.982727e+000
1.271731e+003,-6.215622e+000
1.272695e+003,-5.598221e+000
1.273660e+003,-5.543686e+000
1.274624e+003,-6.379456e+000
1.275588e+003,-7.338821e+000
1.276552e+003,-7.916626e+000
1.277517e+003,-8.224350e+000
1.278481e+003,-8.638809e+000
1.279445e+003,-9.236908e+000
1.280409e+003,-9.565811e+000
1.281374e+003,-9.310898e+000
1.282338e+003,-8.935944e+000
1.283302e+003,-8.451355e+000
1.284266e+003,-8.152115e+000
1.285230e+003,-8.571152e+000
1.286195e+003,-9.603439e+000
1.287159e+003,-1.043596e+001
1.288123e+003,-1.035637e+001
1.289087e+003,-9.708237e+000
1.290052e+003,-9.728851e+000
1.291016e+003,-1.069276e+001
1.291980e+003,-1.168729e+001
1.292944e+003,-1.329086e+001
1.293909e+003,-1.435623e+001
1.294873e+003,-1.405049e+001
1.295837e+003,-1.302922e+001
1.296801e+003,-1.217422e+001
1.297766e+003,-1.161908e+001
1.298730e+003,-1.107045e+001
1.299694e+003,-1.025070e+001
1.300658e+003,-9.780609e+000
1.301622e+003,-1.055470e+001
1.302587e+003,-1.193074e+001
1.303551e+003,-1.301656e+001
1.304515e+003,-1.360542e+001
1.305479e+003,-1.382280e+001
1.306444e+003,-1.377139e+001
1.307408e+003,-1.356352e+001
1.308372e+003,-1.346677e+001
1.309336e+003,-1.358694e+001
1.310301e+003,-1.350903e+001
1.311265e+003,-1.279871e+001
1.312229e+003,-1.230081e+001
1.313193e+003,-1.274321e+001
1.314157e+003,-1.324149e+001
1.315122e+003,-1.255927e+001
1.316086e+003,-1.088542e+001
1.317050e+003,-9.557709e+000
1.318014e+003,-9.384979e+000
1.318979e+003,-1.025618e+001
1.319943e+003,-1.264432e+001
1.320907e+003,-1.610788e+001
1.321871e+003,-1.715668e+001
1.322836e+003,-1.518950e+001
1.323800e+003,-1.291597e+001
1.324764e+003,-1.177948e+001
1.325728e+003,-1.118428e+001
1.326693e+003,-9.998917e+000
1.327657e+003,-8.226196e+000
1.328621e+003,-7.215225e+000
1.329585e+003,-7.502213e+000
1.330549e+003,-7.783890e+000
1.331514e+003,-7.273743e+000
1.332478e+003,-6.894485e+000
1.333442e+003,-7.753281e+000
1.334406e+003,-9.505524e+000
1.335371e+003,-1.080743e+001
1.336335e+003,-1.086014e+001
1.337299e+003,-1.026807e+001
1.338263e+003,-1.023166e+001
1.339228e+003,-1.086057e+001
1.340192e+003,-1.096379e+001
1.341156e+003,-1.011867e+001
1.342120e+003,-9.417679e+000
1.343084e+003,-8.844666e+000
1.344049e+003,-8.782211e+000
1.345013e+003,-1.008015e+001
1.345977e+003,-1.201091e+001
1.346941e+003,-1.244504e+001
1.347906e+003,-1.055730e+001
1.348870e+003,-8.198853e+000
1.349834e+003,-6.834610e+000
1.350798e+003,-6.410843e+000
1.351763e+003,-6.645065e+000
1.352727e+003,-7.444595e+000
1.353691e+003,-8.521484e+000
1.354655e+003,-9.896927e+000
1.355620e+003,-1.104591e+001
1.356584e+003,-1.129279e+001
1.357548e+003,-1.068248e+001
1.358512e+003,-9.776276e+000
1.359476e+003,-8.352371e+000
1.360441e+003,-7.583954e+000
1.361405e+003,-8.242233e+000
1.362369e+003,-8.992218e+000
1.363333e+003,-9.404587e+000
1.364298e+003,-9.383759e+000
1.365262e+003,-8.589020e+000
1.366226e+003,-7.190857e+000
1.367190e+003,-6.179504e+000
1.368155e+003,-6.448959e+000
1.369119e+003,-7.610458e+000
1.370083e+003,-8.465347e+000
1.371047e+003,-9.023727e+000
1.372011e+003,-8.844345e+000
1.372976e+003,-7.328232e+000
1.373940e+003,-6.102341e+000
1.374904e+003,-5.649841e+000
1.375868e+003,-5.800446e+000
1.376833e+003,-6.575287e+000
1.377797e+003,-7.867035e+000
1.378761e+003,-9.126984e+000
1.379725e+003,-1.022618e+001
1.380690e+003,-1.080751e+001
1.381654e+003,-9.942978e+000
1.382618e+003,-8.557770e+000
1.383582e+003,-7.911682e+000
1.384547e+003,-8.047729e+000
1.385511e+003,-8.697800e+000
1.386475e+003,-1.001369e+001
1.387439e+003,-1.095413e+001
1.388403e+003,-9.269516e+000
1.389368e+003,-4.984894e+000
1.390332e+003,-2.988129e+000
1.391296e+003,-4.512711e+000
1.392260e+003,-6.011276e+000
1.393225e+003,-6.625687e+000
1.394189e+003,-7.098557e+000
1.395153e+003,-8.107178e+000
1.396117e+003,-9.131989e+000
1.397082e+003,-9.170853e+000
1.398046e+003,-8.086777e+000
1.399010e+003,-6.815704e+000
1.399974e+003,-6.274094e+000
1.400938e+003,-6.300461e+000
1.401903e+003,-6.072830e+000
1.402867e+003,-5.211517e+000
1.403831e+003,-4.661758e+000
1.404795e+003,-4.784668e+000
1.405760e+003,-4.950272e+000
1.406724e+003,-5.174255e+000
1.407688e+003,-5.480469e+000
1.408652e+003,-5.702026e+000
1.409617e+003,-5.755859e+000
1.410581e+003,-5.661789e+000
1.411545e+003,-5.338989e+000
1.412509e+003,-5.404709e+000
1.413474e+003,-7.314194e+000
1.414438e+003,-9.567490e+000
1.415402e+003,-8.910477e+000
1.416366e+003,-5.792572e+000
1.417330e+003,-3.765182e+000
1.418295e+003,-4.341553e+000
1.419259e+003,-5.925293e+000
1.420223e+003,-7.055420e+000
1.421187e+003,-7.740356e+000
1.422152e+003,-7.490921e+000
1.423116e+003,-5.758072e+000
1.424080e+003,-4.537720e+000
1.425044e+003,-5.263382e+000
1.426009e+003,-5.832184e+000
1.426973e+003,-4.946472e+000
1.427937e+003,-3.691315e+000
1.428901e+003,-3.490234e+000
1.429865e+003,-4.298462e+000
1.430830e+003,-4.955963e+000
1.431794e+003,-4.745087e+000
1.432758e+003,-4.265335e+000
1.433722e+003,-4.637283e+000
1.434687e+003,-5.858109e+000
1.435651e+003,-6.163956e+000
1.436615e+003,-5.130005e+000
1.437579e+003,-4.451431e+000
1.438544e+003,-4.498917e+000
1.439508e+003,-4.628281e+000
1.440472e+003,-4.423447e+000
1.441436e+003,-3.859619e+000
1.442401e+003,-2.795563e+000
1.443365e+003,-1.355743e+000
1.444329e+003,-6.483307e-001
1.445293e+003,-1.665771e+000
1.446257e+003,-3.278046e+000
1.447222e+003,-3.346954e+000
1.448186e+003,-2.132843e+000
1.449150e+003,-8.068695e-001
1.450114e+003,6.638031e-001
1.451079e+003,1.589157e+000
1.452043e+003,1.488541e+000
1.453007e+003,8.631287e-001
1.453971e+003,3.357544e-001
1.454936e+003,-1.695251e-001
1.455900e+003,-1.213516e+000
1.456864e+003,-3.254471e+000
1.457828e+003,-4.445297e+000
1.458792e+003,-3.002121e+000
1.459757e+003,-1.008453e+000
1.460721e+003,6.631470e-002
1.461685e+003,3.195343e-001
1.462649e+003,4.554749e-002
1.463614e+003,-5.845947e-001
1.464578e+003,-1.269196e+000
1.465542e+003,-1.780411e+000
1.466506e+003,-2.206177e+000
1.467471e+003,-2.732452e+000
1.468435e+003,-3.335388e+000
1.469399e+003,-3.619553e+000
1.470363e+003,-3.657166e+000
1.471328e+003,-3.442505e+000
1.472292e+003,-2.717789e+000
1.473256e+003,-2.174530e+000
1.474220e+003,-2.468704e+000
1.475184e+003,-3.064850e+000
1.476149e+003,-2.819611e+000
1.477113e+003,-1.580536e+000
1.478077e+003,-6.627350e-001
1.479041e+003,-1.317261e+000
1.480006e+003,-2.705231e+000
1.480970e+003,-2.136612e+000
1.481934e+003,1.088974e+000
1.482898e+003,2.844360e+000
1.483863e+003,2.499741e+000
1.484827e+003,1.703064e+000
1.485791e+003,6.367798e-001
1.486755e+003,-3.354950e-001
1.487719e+003,-1.102097e+000
1.488684e+003,-1.578583e+000
1.489648e+003,-1.576340e+000
1.490612e+003,-9.830627e-001
1.491576e+003,4.308319e-001
1.492541e+003,3.184052e+000
1.493505e+003,6.200287e+000
1.494469e+003,6.760757e+000
1.495433e+003,5.215668e+000
1.496398e+003,4.228333e+000
1.497362e+003,4.307129e+000
1.498326e+003,4.814926e+000
1.499290e+003,5.566254e+000
1.500255e+003,6.428650e+000
1.501219e+003,7.178604e+000
1.502183e+003,7.816452e+000
1.503147e+003,8.269363e+000
1.504111e+003,8.228989e+000
1.505076e+003,9.621796e+000
1.506040e+003,1.498167e+001
1.507004e+003,2.080647e+001
1.507968e+003,2.292639e+001
1.508933e+003,2.309412e+001
1.509897e+003,2.515662e+001
1.510861e+003,2.988972e+001
1.511825e+003,3.491431e+001
1.512790e+003,3.836546e+001
1.513754e+003,4.114479e+001
1.514718e+003,4.497865e+001
1.515682e+003,4.978789e+001
1.516646e+003,5.560057e+001
1.517611e+003,6.326616e+001
1.518575e+003,7.017763e+001
1.519539e+003,7.585068e+001
1.520503e+003,8.039464e+001
1.521468e+003,8.338083e+001
1.522432e+003,8.542023e+001
1.523396e+003,8.755516e+001
1.524360e+003,8.969479e+001
1.525325e+003,9.073795e+001
1.526289e+003,8.997597e+001
1.527253e+003,8.792816e+001
1.528217e+003,8.541187e+001
1.529182e+003,8.249440e+001
1.530146e+003,7.969205e+001
1.531110e+003,7.808142e+001
1.532074e+003,7.432835e+001
1.533039e+003,6.710677e+001
1.534003e+003,5.880962e+001
1.534967e+003,4.930809e+001
1.535931e+003,4.048807e+001
1.536896e+003,3.498083e+001
1.537860e+003,3.212509e+001
1.538824e+003,2.854990e+001
1.539788e+003,2.256425e+001
1.540752e+003,1.628000e+001
1.541717e+003,1.246629e+001
1.542681e+003,1.096213e+001
1.543645e+003,1.034726e+001
1.544609e+003,1.169643e+001
1.545573e+003,1.134212e+001
1.546538e+003,7.348022e+000
1.547502e+003,3.970306e+000
1.548466e+003,2.663284e+000
1.549430e+003,2.996170e+000
1.550395e+003,5.506027e+000
1.551359e+003,8.954132e+000
1.552323e+003,1.014833e+001
1.553287e+003,8.117935e+000
1.554252e+003,5.521545e+000
1.555216e+003,4.644409e+000
1.556180e+003,4.828690e+000
1.557144e+003,4.597443e+000
1.558109e+003,3.970398e+000
1.559073e+003,3.521500e+000
1.560037e+003,3.004822e+000
1.561001e+003,2.899597e+000
1.561966e+003,4.120621e+000
1.562930e+003,5.378418e+000
1.563894e+003,5.038971e+000
1.564858e+003,3.768723e+000
1.565823e+003,3.502548e+000
1.566787e+003,4.542419e+000
1.567751e+003,5.417587e+000
1.568715e+003,5.364410e+000
1.569679e+003,4.754517e+000
1.570644e+003,3.734940e+000
1.571608e+003,2.501144e+000
1.572572e+003,1.664810e+000
1.573536e+003,1.300735e+000
1.574500e+003,1.785812e+000
1.575465e+003,3.938202e+000
1.576429e+003,5.803894e+000
1.577393e+003,5.237091e+000
1.578357e+003,3.453308e+000
1.579322e+003,2.869293e+000
1.580286e+003,3.642639e+000
1.581250e+003,4.991196e+000
1.582214e+003,6.945618e+000
1.583179e+003,8.412308e+000
1.584143e+003,8.279526e+000
1.585107e+003,7.370346e+000
1.586071e+003,6.825150e+000
1.587036e+003,6.686401e+000
1.588000e+003,6.766022e+000
1.588964e+003,6.957977e+000
1.589928e+003,7.236740e+000
1.590893e+003,7.557266e+000
1.591857e+003,8.017227e+000
1.592821e+003,9.061447e+000
1.593785e+003,1.047815e+001
1.594750e+003,1.068475e+001
1.595714e+003,9.166702e+000
1.596678e+003,8.262939e+000
1.597642e+003,9.173859e+000
1.598606e+003,1.062657e+001
1.599571e+003,1.231110e+001
1.600535e+003,1.354967e+001
1.601499e+003,1.306970e+001
1.602463e+003,1.109639e+001
1.603427e+003,8.965836e+000
1.604392e+003,7.046402e+000
1.605356e+003,6.498474e+000
1.606320e+003,9.634125e+000
1.607284e+003,1.468471e+001
1.608249e+003,1.624947e+001
1.609213e+003,1.419263e+001
1.610177e+003,1.264664e+001
1.611141e+003,1.247757e+001
1.612106e+003,1.239050e+001
1.613070e+003,1.177536e+001
1.614034e+003,1.097760e+001
1.614998e+003,9.986938e+000
1.615963e+003,9.101044e+000
1.616927e+003,8.805984e+000
1.617891e+003,9.123886e+000
1.618855e+003,9.614334e+000
1.619820e+003,9.907852e+000
1.620784e+003,1.049251e+001
1.621748e+003,1.307628e+001
1.622712e+003,1.707109e+001
1.623677e+003,1.736353e+001
1.624641e+003,1.316078e+001
1.625605e+003,9.772552e+000
1.626569e+003,7.983246e+000
1.627533e+003,7.273987e+000
1.628498e+003,7.947113e+000
1.629462e+003,9.228699e+000
1.630426e+003,1.076312e+001
1.631390e+003,1.225850e+001
1.632354e+003,1.326340e+001
1.633319e+003,1.367595e+001
1.634283e+003,1.369145e+001
1.635247e+003,1.337193e+001
1.636211e+003,1.293593e+001
1.637176e+003,1.269238e+001
1.638140e+003,1.271457e+001
1.639104e+003,1.379811e+001
1.640068e+003,1.660948e+001
1.641033e+003,1.776326e+001
1.641997e+003,1.524971e+001
1.642961e+003,1.267520e+001
1.643925e+003,1.180658e+001
1.644890e+003,1.172923e+001
1.645854e+003,1.163068e+001
1.646818e+003,1.147943e+001
1.647782e+003,1.153618e+001
1.648747e+003,1.185834e+001
1.649711e+003,1.220935e+001
1.650675e+003,1.249016e+001
1.651639e+003,1.265662e+001
1.652604e+003,1.238399e+001
1.653568e+003,1.164705e+001
1.654532e+003,1.120750e+001
1.655496e+003,1.111232e+001
1.656460e+003,1.130881e+001
1.657425e+003,1.211513e+001
1.658389e+003,1.284087e+001
1.659353e+003,1.321277e+001
1.660317e+003,1.324300e+001
1.661281e+003,1.282426e+001
1.662246e+003,1.205818e+001
1.663210e+003,1.106458e+001
1.664174e+003,9.964218e+000
1.665138e+003,9.701782e+000
1.666103e+003,1.147639e+001
1.667067e+003,1.381586e+001
1.668031e+003,1.330190e+001
1.668995e+003,1.024335e+001
1.669960e+003,9.163223e+000
1.670924e+003,1.108385e+001
1.671888e+003,1.205060e+001
1.672852e+003,1.011522e+001
1.673817e+003,7.890472e+000
1.674781e+003,6.942627e+000
1.675745e+003,6.638382e+000
1.676709e+003,6.392105e+000
1.677674e+003,6.154877e+000
1.678638e+003,5.928329e+000
1.679602e+003,5.722137e+000
1.680566e+003,5.892731e+000
1.681531e+003,7.003357e+000
1.682495e+003,8.389099e+000
1.683459e+003,8.687683e+000
1.684423e+003,8.046234e+000
1.685387e+003,7.900909e+000
1.686352e+003,8.554291e+000
1.687316e+003,8.395050e+000
1.688280e+003,6.362961e+000
1.689244e+003,4.421509e+000
1.690208e+003,4.187225e+000
1.691173e+003,4.666306e+000
1.692137e+003,4.967545e+000
1.693101e+003,5.148132e+000
1.694065e+003,5.356628e+000
1.695030e+003,5.549896e+000
1.695994e+003,5.636505e+000
1.696958e+003,5.541840e+000
1.697922e+003,5.433090e+000
1.698887e+003,5.642929e+000
1.699851e+003,6.013077e+000
1.700815e+003,5.935669e+000
1.701779e+003,5.325439e+000
1.702744e+003,4.491959e+000
1.703708e+003,3.396301e+000
1.704672e+003,3.127747e+000
1.705636e+003,5.125366e+000
1.706601e+003,7.468506e+000
1.707565e+003,7.154877e+000
1.708529e+003,5.015839e+000
1.709493e+003,3.326782e+000
1.710458e+003,2.323349e+000
1.711422e+003,1.844681e+000
1.712386e+003,2.312958e+000
1.713350e+003,2.836945e+000
1.714314e+003,2.435410e+000
1.715279e+003,1.615509e+000
1.716243e+003,1.385269e+000
1.717207e+003,1.680389e+000
1.718171e+003,1.645157e+000
1.719135e+003,1.062164e+000
1.720100e+003,8.663788e-001
1.721064e+003,1.836746e+000
1.722028e+003,2.871613e+000
1.722992e+003,2.155869e+000
1.723957e+003,2.742310e-001
1.724921e+003,3.388367e-001
1.725885e+003,2.701553e+000
1.726849e+003,3.691193e+000
1.727814e+003,1.596985e+000
1.728778e+003,-8.728027e-002
1.729742e+003,5.461731e-001
1.730706e+003,1.821442e+000
1.731671e+003,2.224548e+000
1.732635e+003,1.755798e+000
1.733599e+003,6.490021e-001
1.734563e+003,-7.459412e-001
1.735528e+003,-1.630356e+000
1.736492e+003,-1.625244e+000
1.737456e+003,-7.814026e-001
1.738420e+003,1.055969e+000
1.739385e+003,3.127899e+000
1.740349e+003,2.713165e+000
1.741313e+003,-9.843140e-001
1.742277e+003,-2.768356e+000
1.743241e+003,-1.264587e+000
1.744206e+003,-5.676270e-003
1.745170e+003,7.082672e-001
1.746134e+003,8.296967e-001
1.747098e+003,-1.491547e-001
1.748063e+003,-1.381531e+000
1.749027e+003,-2.009338e+000
1.749991e+003,-1.967834e+000
1.750955e+003,-1.310745e+000
1.751919e+003,-2.571259e-001
1.752884e+003,3.495178e-001
1.753848e+003,-1.972656e-001
1.754812e+003,-1.460464e+000
1.755776e+003,-2.594086e+000
1.756741e+003,-3.506485e+000
1.757705e+003,-3.613342e+000
1.758669e+003,-2.986267e+000
1.759633e+003,-1.497940e+000
1.760598e+003,2.424103e+000
1.761562e+003,4.779221e+000
1.762526e+003,3.467972e+000
1.763490e+003,1.343567e+000
1.764455e+003,-6.278992e-002
1.765419e+003,-6.575317e-001
1.766383e+003,-2.034760e-001
1.767347e+003,8.881378e-001
1.768312e+003,1.125183e+000
1.769276e+003,-2.356567e-001
1.770240e+003,-2.010651e+000
1.771204e+003,-3.195221e+000
1.772168e+003,-3.460388e+000
1.773133e+003,-1.531754e+000
1.774097e+003,2.206345e+000
1.775061e+003,3.646912e+000
1.776025e+003,2.039948e+000
1.776990e+003,-4.209900e-002
1.777954e+003,-2.272720e+000
1.778918e+003,-3.314423e+000
1.779882e+003,-1.217621e+000
1.780846e+003,1.667831e+000
1.781811e+003,2.257324e+000
1.782775e+003,1.059250e+000
1.783739e+003,-6.412964e-001
1.784703e+003,-2.798676e+000
1.785668e+003,-3.554077e+000
1.786632e+003,-1.073639e+000
1.787596e+003,1.397537e+000
1.788560e+003,1.219498e+000
1.789525e+003,1.878357e-002
1.790489e+003,5.166626e-002
1.791453e+003,9.457397e-001
1.792417e+003,9.508820e-001
1.793382e+003,-1.534271e-001
1.794346e+003,-4.387360e-001
1.795310e+003,1.207855e+000
1.796274e+003,2.679169e+000
1.797239e+003,1.453415e+000
1.798203e+003,-1.388351e+000
1.799167e+003,-2.673157e+000
1.800131e+003,-2.270035e+000
1.801095e+003,-2.432480e+000
1.802060e+003,-4.033096e+000
1.803024e+003,-4.425201e+000
1.803988e+003,-2.468338e+000
1.804952e+003,-4.693146e-001
1.805917e+003,8.217926e-001
1.806881e+003,1.338593e+000
1.807845e+003,6.121368e-001
1.808809e+003,-6.316986e-001
1.809773e+003,-1.170105e+000
1.810738e+003,-6.990356e-001
1.811702e+003,4.373779e-001
1.812666e+003,1.996002e+000
1.813630e+003,3.708603e+000
1.814595e+003,5.354095e+000
1.815559e+003,6.648087e+000
1.816523e+003,6.272476e+000
1.817487e+003,4.060287e+000
1.818452e+003,2.254700e+000
1.819416e+003,8.153992e-001
1.820380e+003,5.203857e-001
1.821344e+003,2.568405e+000
1.822309e+003,4.220947e+000
1.823273e+003,3.254944e+000
1.824237e+003,1.741318e+000
1.825201e+003,2.143829e+000
1.826166e+003,3.614243e+000
1.827130e+003,3.342285e+000
1.828094e+003,8.951721e-001
1.829058e+003,-3.853455e-001
1.830022e+003,1.904037e+000
1.830987e+003,4.201294e+000
1.831951e+003,3.099121e+000
1.832915e+003,5.544434e-001
1.833879e+003,-8.669434e-001
1.834844e+003,-1.205856e+000
1.835808e+003,-7.086792e-001
1.836772e+003,3.993988e-001
1.837736e+003,6.976929e-001
1.838700e+003,-4.983368e-001
1.839665e+003,-2.047455e+000
1.840629e+003,-2.971909e+000
1.841593e+003,-3.221115e+000
1.842557e+003,-2.663742e+000
1.843522e+003,-1.318344e+000
1.844486e+003,-2.093964e-001
1.845450e+003,9.045258e-001
1.846414e+003,1.492157e+000
1.847379e+003,5.721436e-001
1.848343e+003,2.012024e-001
1.849307e+003,1.977264e+000
1.850271e+003,3.560623e+000
1.851236e+003,2.892792e+000
1.852200e+003,1.287613e+000
1.853164e+003,6.168671e-001
1.854128e+003,8.204346e-001
1.855093e+003,7.696075e-001
1.856057e+003,1.385651e-001
1.857021e+003,-3.603516e-001
1.857985e+003,-1.688843e-001
1.858949e+003,3.756561e-001
1.859914e+003,7.898865e-001
1.860878e+003,1.097000e+000
1.861842e+003,1.408875e+000
1.862806e+003,1.710648e+000
1.863771e+003,1.055420e+000
1.864735e+003,-1.182190e+000
1.865699e+003,-2.322891e+000
1.866663e+003,-6.493683e-001
1.867627e+003,1.558395e+000
1.868592e+003,2.218094e+000
1.869556e+003,1.975891e+000
1.870520e+003,2.466232e+000
1.871484e+003,3.429886e+000
1.872449e+003,2.966949e+000
1.873413e+003,5.850220e-001
1.874377e+003,-1.069000e+000
1.875341e+003,-1.561783e+000
1.876306e+003,-1.161591e+000
1.877270e+003,5.904999e-001
1.878234e+003,2.577667e+000
1.879198e+003,3.960815e+000
1.880163e+003,4.657227e+000
1.881127e+003,4.415237e+000
1.882091e+003,3.538788e+000
1.883055e+003,2.986633e+000
1.884020e+003,3.151825e+000
1.884984e+003,3.704651e+000
1.885948e+003,4.374100e+000
1.886912e+003,4.904892e+000
1.887876e+003,4.716721e+000
1.888841e+003,3.904312e+000
1.889805e+003,3.555466e+000
1.890769e+003,3.750885e+000
1.891733e+003,4.032318e+000
1.892698e+003,4.546906e+000
1.893662e+003,4.506760e+000
1.894626e+003,3.420959e+000
1.895590e+003,2.060883e+000
1.896554e+003,2.758179e-001
1.897519e+003,-9.294891e-001
1.898483e+003,2.721252e-001
1.899447e+003,2.985321e+000
1.900411e+003,4.243057e+000
1.901376e+003,3.530640e+000
1.902340e+003,2.557587e+000
1.903304e+003,1.365372e+000
1.904268e+003,9.767914e-001
1.905233e+003,2.971420e+000
1.906197e+003,5.229126e+000
1.907161e+003,5.170288e+000
1.908125e+003,3.995728e+000
1.909090e+003,4.218887e+000
1.910054e+003,5.624146e+000
1.911018e+003,5.987610e+000
1.911982e+003,4.765121e+000
1.912947e+003,3.967148e+000
1.913911e+003,5.047974e+000
1.914875e+003,6.586685e+000
1.915839e+003,6.305450e+000
1.916803e+003,4.513657e+000
1.917768e+003,2.915894e+000
1.918732e+003,1.367584e+000
1.919696e+003,1.542877e+000
1.920660e+003,4.519455e+000
1.921625e+003,6.249176e+000
1.922589e+003,4.697067e+000
1.923553e+003,3.532074e+000
1.924517e+003,5.380219e+000
1.925481e+003,7.847351e+000
1.926446e+003,9.039993e+000
1.927410e+003,9.261002e+000
1.928374e+003,8.994644e+000
1.929338e+003,8.297043e+000
1.930303e+003,7.732544e+000
1.931267e+003,7.664856e+000
1.932231e+003,7.444458e+000
1.933195e+003,5.787842e+000
1.934160e+003,4.850571e+000
1.935124e+003,7.614410e+000
1.936088e+003,1.080002e+001
1.937052e+003,9.803802e+000
1.938017e+003,6.275711e+000
1.938981e+003,4.370560e+000
1.939945e+003,4.651291e+000
1.940909e+003,5.207932e+000
1.941874e+003,5.112762e+000
1.942838e+003,4.890747e+000
1.943802e+003,5.100494e+000
1.944766e+003,5.648636e+000
1.945730e+003,6.347168e+000
1.946695e+003,7.002808e+000
1.947659e+003,6.063339e+000
1.948623e+003,3.197815e+000
1.949587e+003,2.513123e+000
1.950552e+003,5.126343e+000
1.951516e+003,7.277603e+000
1.952480e+003,7.621002e+000
1.953444e+003,7.441498e+000
1.954408e+003,7.532532e+000
1.955373e+003,7.581589e+000
1.956337e+003,7.139160e+000
1.957301e+003,6.456253e+000
1.958265e+003,6.087494e+000
1.959230e+003,6.065140e+000
1.960194e+003,6.301758e+000
1.961158e+003,7.154724e+000
1.962122e+003,7.419464e+000
1.963087e+003,5.873566e+000
1.964051e+003,4.816238e+000
1.965015e+003,6.354919e+000
1.965979e+003,8.475632e+000
1.966944e+003,8.854218e+000
1.967908e+003,8.157959e+000
1.968872e+003,8.035965e+000
1.969836e+003,8.734390e+000
1.970801e+003,9.625244e+000
1.971765e+003,1.041524e+001
1.972729e+003,1.098779e+001
1.973693e+003,1.126529e+001
1.974657e+003,1.119260e+001
1.975622e+003,1.044594e+001
1.976586e+003,9.310226e+000
1.977550e+003,8.519226e+000
1.978514e+003,8.166901e+000
1.979479e+003,8.787796e+000
1.980443e+003,1.032278e+001
1.981407e+003,1.075980e+001
1.982371e+003,9.330261e+000
1.983335e+003,7.701218e+000
1.984300e+003,7.033142e+000
1.985264e+003,6.980316e+000
1.986228e+003,7.090561e+000
1.987192e+003,7.393188e+000
1.988157e+003,8.079376e+000
1.989121e+003,9.284760e+000
1.990085e+003,1.035255e+001
1.991049e+003,1.148581e+001
1.992014e+003,1.217421e+001
1.992978e+003,1.232124e+001
1.993942e+003,1.195329e+001
1.994906e+003,1.035339e+001
1.995871e+003,8.996719e+000
1.996835e+003,9.388214e+000
1.997799e+003,1.051367e+001
1.998763e+003,1.083788e+001
1.999728e+003,1.035181e+001
