5.003444e+002,4.215363e+001
5.013087e+002,4.267645e+001
5.022729e+002,4.224922e+001
5.032371e+002,4.102910e+001
5.042014e+002,3.905441e+001
5.051656e+002,3.651465e+001
5.061298e+002,3.420088e+001
5.070941e+002,3.277806e+001
5.080583e+002,3.225418e+001
5.090225e+002,3.229382e+001
5.099868e+002,3.360582e+001
5.109510e+002,3.457034e+001
5.119152e+002,3.388788e+001
5.128795e+002,3.136668e+001
5.138437e+002,3.007793e+001
5.148079e+002,3.309583e+001
5.157722e+002,3.578912e+001
5.167364e+002,3.572704e+001
5.177006e+002,3.289783e+001
5.186649e+002,2.957242e+001
5.196291e+002,2.881636e+001
5.205933e+002,2.922514e+001
5.215576e+002,2.867166e+001
5.225218e+002,2.700290e+001
5.234860e+002,2.543336e+001
5.244503e+002,2.640544e+001
5.254145e+002,3.124991e+001
5.263787e+002,3.383652e+001
5.273430e+002,3.323683e+001
5.283072e+002,3.104419e+001
5.292714e+002,2.924615e+001
5.302357e+002,2.763396e+001
5.311999e+002,2.650569e+001
5.321641e+002,2.627109e+001
5.331284e+002,2.646536e+001
5.340926e+002,2.683299e+001
5.350568e+002,2.724496e+001
5.360211e+002,2.711307e+001
5.369853e+002,2.550926e+001
5.379495e+002,2.369713e+001
5.389138e+002,2.285245e+001
5.398780e+002,2.330188e+001
5.408422e+002,2.429704e+001
5.418065e+002,2.362714e+001
5.427707e+002,2.156409e+001
5.437349e+002,1.990773e+001
5.446992e+002,1.899220e+001
5.456634e+002,1.883511e+001
5.466276e+002,1.959732e+001
5.475919e+002,2.351183e+001
5.485561e+002,2.555742e+001
5.495203e+002,2.444077e+001
5.504846e+002,2.161667e+001
5.514488e+002,1.908995e+001
5.524130e+002,1.741803e+001
5.533773e+002,1.671190e+001
5.543415e+002,1.726292e+001
5.553057e+002,1.837665e+001
5.562700e+002,1.939368e+001
5.572342e+002,1.988766e+001
5.581984e+002,1.996660e+001
5.591627e+002,2.017056e+001
5.601269e+002,2.041431e+001
5.610911e+002,2.016585e+001
5.620554e+002,1.908665e+001
5.630196e+002,1.720712e+001
5.639838e+002,1.528072e+001
5.649481e+002,1.282191e+001
5.659123e+002,1.102278e+001
5.668765e+002,1.040289e+001
5.678408e+002,1.079216e+001
5.688050e+002,1.150037e+001
5.697692e+002,1.231543e+001
5.707335e+002,1.311371e+001
5.716977e+002,1.471834e+001
5.726619e+002,1.613414e+001
5.736262e+002,1.561801e+001
5.745904e+002,1.156355e+001
5.755546e+002,7.116531e+000
5.765189e+002,7.546219e+000
5.774831e+002,1.080368e+001
5.784473e+002,1.366246e+001
5.794116e+002,1.398709e+001
5.803758e+002,1.210493e+001
5.813400e+002,1.080707e+001
5.823043e+002,1.008606e+001
5.832685e+002,9.180801e+000
5.842327e+002,7.625061e+000
5.851970e+002,5.719498e+000
5.861612e+002,4.843521e+000
5.871254e+002,6.024643e+000
5.880897e+002,7.217484e+000
5.890539e+002,8.178879e+000
5.900181e+002,8.786987e+000
5.909824e+002,9.026443e+000
5.919466e+002,8.984161e+000
5.929108e+002,8.395477e+000
5.938751e+002,6.324188e+000
5.948393e+002,3.823029e+000
5.958035e+002,2.800201e+000
5.967678e+002,4.628616e+000
5.977320e+002,8.761337e+000
5.986962e+002,1.048207e+001
5.996605e+002,9.840164e+000
6.006247e+002,8.368530e+000
6.015889e+002,6.300690e+000
6.025532e+002,3.750687e+000
6.035174e+002,2.072098e+000
6.044816e+002,2.080246e+000
6.054459e+002,2.238998e+000
6.064101e+002,2.035110e+000
6.073743e+002,1.878113e+000
6.083386e+002,2.854767e+000
6.093028e+002,6.510544e+000
6.102670e+002,9.374725e+000
6.112313e+002,7.967560e+000
6.121955e+002,4.585373e+000
6.131597e+002,2.274872e+000
6.141240e+002,3.101974e+000
6.150882e+002,6.150940e+000
6.160524e+002,7.808563e+000
6.170167e+002,8.386749e+000
6.179809e+002,8.420059e+000
6.189451e+002,7.879837e+000
6.199094e+002,6.819290e+000
6.208736e+002,6.175018e+000
6.218378e+002,6.773819e+000
6.228021e+002,7.149460e+000
6.237663e+002,7.020859e+000
6.247305e+002,6.679855e+000
6.256948e+002,6.601471e+000
6.266590e+002,7.022736e+000
6.276232e+002,7.226318e+000
6.285875e+002,6.834717e+000
6.295517e+002,6.234039e+000
6.305159e+002,5.868637e+000
6.314802e+002,5.911697e+000
6.324444e+002,5.952240e+000
6.334086e+002,4.527969e+000
6.343729e+002,2.311462e+000
6.353371e+002,1.036545e+000
6.363013e+002,1.406845e+000
6.372656e+002,2.899246e+000
6.382298e+002,3.769043e+000
6.391940e+002,3.687805e+000
6.401583e+002,3.153641e+000
6.411225e+002,2.021255e+000
6.420867e+002,8.099823e-001
6.430510e+002,7.934570e-004
6.440152e+002,-3.754272e-001
6.449794e+002,-4.993744e-001
6.459437e+002,-2.379303e-001
6.469079e+002,3.315735e-002
6.478721e+002,1.853027e-001
6.488364e+002,1.342468e-001
6.498006e+002,-2.900391e-001
6.507648e+002,-2.067810e+000
6.517291e+002,-4.453293e+000
6.526933e+002,-5.338318e+000
6.536575e+002,-4.285126e+000
6.546218e+002,-2.055771e+000
6.555860e+002,-4.461670e-002
6.565502e+002,1.888168e+000
6.575145e+002,3.080368e+000
6.584787e+002,3.736038e+000
6.594429e+002,3.647614e+000
6.604072e+002,2.192169e+000
6.613714e+002,-9.346771e-001
6.623356e+002,-3.180023e+000
6.632999e+002,-2.669952e+000
6.642641e+002,-1.735092e+000
6.652283e+002,-1.494095e+000
6.661926e+002,-1.935104e+000
6.671568e+002,-2.238586e+000
6.681210e+002,-1.408371e+000
6.690853e+002,9.024048e-002
6.700495e+002,1.204498e+000
6.710137e+002,1.906357e+000
6.719780e+002,2.198944e+000
6.729422e+002,2.050491e+000
6.739064e+002,1.352097e+000
6.748707e+002,5.048370e-001
6.758349e+002,-1.295334e+000
6.767991e+002,-2.378159e+000
6.777634e+002,-1.408386e+000
6.787276e+002,1.363861e+000
6.796918e+002,3.533981e+000
6.806561e+002,3.867340e+000
6.816203e+002,3.444183e+000
6.825845e+002,2.211243e+000
6.835488e+002,6.365051e-001
6.845130e+002,-6.709137e-001
6.854772e+002,-1.245667e+000
6.864415e+002,-1.142258e+000
6.874057e+002,-6.474457e-001
6.883699e+002,-8.010864e-003
6.893342e+002,5.253601e-001
6.902984e+002,8.546448e-001
6.912626e+002,1.026871e+000
6.922269e+002,1.091965e+000
6.931911e+002,9.401550e-001
6.941553e+002,1.236206e+000
6.951196e+002,2.130341e+000
6.960838e+002,3.236969e+000
6.970480e+002,4.073318e+000
6.980123e+002,4.589493e+000
6.989765e+002,4.860855e+000
6.999407e+002,5.206039e+000
7.009050e+002,5.186905e+000
7.018692e+002,4.122986e+000
7.028334e+002,1.943756e+000
7.037977e+002,-3.943634e-001
7.047619e+002,-1.243240e+000
7.057261e+002,-9.427490e-001
7.066904e+002,-1.843262e-001
7.076546e+002,9.158020e-001
7.086188e+002,1.974487e+000
7.095831e+002,2.355209e+000
7.105473e+002,1.728668e+000
7.115115e+002,1.151367e+000
7.124758e+002,9.447174e-001
7.134400e+002,3.962097e-001
7.144042e+002,-1.481049e+000
7.153685e+002,-4.551453e+000
7.163327e+002,-6.091553e+000
7.172969e+002,-2.148758e+000
7.182612e+002,1.122330e+000
7.192254e+002,-1.327515e-002
7.201896e+002,-3.870865e+000
7.211539e+002,-6.452530e+000
7.221181e+002,-4.221390e+000
7.230823e+002,7.065277e-001
7.240466e+002,2.465149e+000
7.250108e+002,1.800446e+000
7.259750e+002,7.980804e-001
7.269393e+002,5.248871e-001
7.279035e+002,7.416534e-001
7.288677e+002,5.846405e-001
7.298320e+002,-3.519592e-001
7.307962e+002,-5.848236e-001
7.317604e+002,5.178375e-001
7.327247e+002,2.203186e+000
7.336889e+002,3.342346e+000
7.346531e+002,3.398102e+000
7.356174e+002,2.873322e+000
7.365816e+002,2.365372e+000
7.375458e+002,1.770645e+000
7.385101e+002,7.126465e-001
7.394743e+002,-7.356415e-001
7.404385e+002,-1.879440e+000
7.414028e+002,-1.448441e+000
7.423670e+002,-1.530609e-001
7.433312e+002,-2.541351e-001
7.442955e+002,-1.831833e+000
7.452597e+002,-3.438370e+000
7.462239e+002,-3.417618e+000
7.471882e+002,-1.291779e+000
7.481524e+002,1.465454e-001
7.491166e+002,6.668091e-003
7.500809e+002,-6.164551e-002
7.510451e+002,8.051910e-001
7.520093e+002,2.321869e+000
7.529736e+002,3.393951e+000
7.539378e+002,3.613098e+000
7.549020e+002,3.384537e+000
7.558663e+002,2.589233e+000
7.568306e+002,1.685501e+000
7.577948e+002,1.228500e+000
7.587590e+002,1.505661e+000
7.597233e+002,2.265030e+000
7.606875e+002,3.148651e+000
7.616517e+002,4.228302e+000
7.626160e+002,5.414780e+000
7.635802e+002,6.920319e+000
7.645444e+002,8.335815e+000
7.655087e+002,8.738632e+000
7.664729e+002,7.785324e+000
7.674371e+002,6.309143e+000
7.684014e+002,3.674118e+000
7.693656e+002,1.237915e+000
7.703298e+002,-1.518402e-001
7.712941e+002,-3.759918e-001
7.722583e+002,1.023254e-001
7.732225e+002,1.545547e+000
7.741868e+002,3.005951e+000
7.751510e+002,3.757355e+000
7.761152e+002,3.885483e+000
7.770795e+002,3.779404e+000
7.780437e+002,3.765640e+000
7.790079e+002,3.709946e+000
7.799722e+002,2.286087e+000
7.809364e+002,-7.743835e-001
7.819006e+002,-2.898956e+000
7.828649e+002,-2.494293e+000
7.838291e+002,-2.561188e-001
7.847933e+002,1.220551e+000
7.857576e+002,1.030075e+000
7.867218e+002,1.067902e+000
7.876860e+002,2.259628e+000
7.886503e+002,3.618240e+000
7.896145e+002,4.178040e+000
7.905787e+002,3.734497e+000
7.915430e+002,3.213120e+000
7.925072e+002,3.772278e+000
7.934714e+002,4.441498e+000
7.944357e+002,4.149307e+000
7.953999e+002,3.041229e+000
7.963641e+002,1.893707e+000
7.973284e+002,1.500809e+000
7.982926e+002,1.874100e+000
7.992568e+002,3.164658e+000
8.002211e+002,5.711975e+000
8.011853e+002,7.738388e+000
8.021495e+002,9.116943e+000
8.031138e+002,9.888565e+000
8.040780e+002,9.356064e+000
8.050422e+002,5.517029e+000
8.060065e+002,3.159790e+000
8.069707e+002,4.851288e+000
8.079349e+002,7.758514e+000
8.088992e+002,8.981247e+000
8.098634e+002,7.650681e+000
8.108276e+002,5.824661e+000
8.117919e+002,6.859436e+000
8.127561e+002,9.008804e+000
8.137203e+002,8.934113e+000
8.146846e+002,6.431534e+000
8.156488e+002,3.260147e+000
8.166130e+002,1.383438e+000
8.175773e+002,8.003998e-001
8.185415e+002,1.385132e+000
8.195057e+002,4.105499e+000
8.204700e+002,6.329041e+000
8.214342e+002,6.790497e+000
8.223984e+002,6.089325e+000
8.233627e+002,6.012985e+000
8.243269e+002,7.762665e+000
8.252911e+002,9.065521e+000
8.262554e+002,8.199997e+000
8.272196e+002,6.546738e+000
8.281838e+002,5.533920e+000
8.291481e+002,5.651901e+000
8.301123e+002,6.236191e+000
8.310765e+002,6.143860e+000
8.320408e+002,5.373505e+000
8.330050e+002,4.740677e+000
8.339692e+002,4.364487e+000
8.349335e+002,4.003815e+000
8.358977e+002,3.429504e+000
8.368619e+002,2.666504e+000
8.378262e+002,2.062012e+000
8.387904e+002,1.058441e+000
8.397546e+002,6.614075e-001
8.407189e+002,1.642456e+000
8.416831e+002,3.307098e+000
8.426473e+002,4.388672e+000
8.436116e+002,4.221298e+000
8.445758e+002,3.914001e+000
8.455400e+002,4.617416e+000
8.465043e+002,5.597488e+000
8.474685e+002,6.108063e+000
8.484327e+002,6.105545e+000
8.493970e+002,6.226868e+000
8.503612e+002,7.410126e+000
8.513254e+002,9.865585e+000
8.522897e+002,1.138834e+001
8.532539e+002,1.197685e+001
8.542181e+002,1.164343e+001
8.551824e+002,9.957092e+000
8.561466e+002,7.305908e+000
8.571108e+002,5.882919e+000
8.580751e+002,6.675552e+000
8.590393e+002,7.439514e+000
8.600035e+002,7.228409e+000
8.609678e+002,6.944244e+000
8.619320e+002,7.898651e+000
8.628962e+002,1.048865e+001
8.638605e+002,1.325389e+001
8.648247e+002,1.352496e+001
8.657889e+002,1.244049e+001
8.667532e+002,1.266489e+001
8.677174e+002,1.453578e+001
8.686816e+002,1.673283e+001
8.696459e+002,1.774577e+001
8.706101e+002,1.743918e+001
8.715743e+002,1.745540e+001
8.725386e+002,1.786578e+001
8.735028e+002,1.849312e+001
8.744670e+002,1.948685e+001
8.754313e+002,2.043208e+001
8.763955e+002,2.052757e+001
8.773597e+002,1.924971e+001
8.783240e+002,1.831862e+001
8.792882e+002,1.941913e+001
8.802524e+002,2.098164e+001
8.812167e+002,2.151593e+001
8.821809e+002,2.086664e+001
8.831451e+002,2.005666e+001
8.841094e+002,2.045457e+001
8.850736e+002,2.211633e+001
8.860378e+002,2.353210e+001
8.870021e+002,2.480156e+001
8.879663e+002,2.535997e+001
8.889305e+002,2.443918e+001
8.898948e+002,2.233984e+001
8.908590e+002,2.078781e+001
8.918232e+002,1.969977e+001
8.927875e+002,1.991014e+001
8.937517e+002,2.275308e+001
8.947159e+002,2.595541e+001
8.956802e+002,2.742348e+001
8.966444e+002,2.674477e+001
8.976086e+002,2.531429e+001
8.985729e+002,2.427757e+001
8.995371e+002,2.394394e+001
9.005013e+002,2.501947e+001
9.014656e+002,2.719476e+001
9.024298e+002,2.868277e+001
9.033940e+002,2.792702e+001
9.043583e+002,2.523064e+001
9.053225e+002,2.389352e+001
9.062867e+002,2.489587e+001
9.072510e+002,2.595660e+001
9.082152e+002,2.761884e+001
9.091794e+002,2.922554e+001
9.101437e+002,2.995126e+001
9.111079e+002,2.964084e+001
9.120721e+002,2.932869e+001
9.130364e+002,3.003963e+001
9.140006e+002,3.026451e+001
9.149648e+002,2.869444e+001
9.159291e+002,2.614380e+001
9.168933e+002,2.416275e+001
9.178575e+002,2.377734e+001
9.188218e+002,2.456300e+001
9.197860e+002,2.545261e+001
9.207502e+002,2.639372e+001
9.217145e+002,2.720708e+001
9.226787e+002,2.811272e+001
9.236429e+002,2.895581e+001
9.246072e+002,2.930101e+001
9.255714e+002,2.891998e+001
9.265356e+002,2.871684e+001
9.274999e+002,2.958179e+001
9.284641e+002,2.972285e+001
9.294283e+002,2.791373e+001
9.303926e+002,2.516666e+001
9.313568e+002,2.334341e+001
9.323210e+002,2.343689e+001
9.332853e+002,2.417137e+001
9.342495e+002,2.348956e+001
9.352137e+002,2.202299e+001
9.361780e+002,2.077359e+001
9.371422e+002,2.005681e+001
9.381064e+002,1.956676e+001
9.390707e+002,1.873865e+001
9.400349e+002,1.731850e+001
9.409991e+002,1.633037e+001
9.419634e+002,1.532614e+001
9.429276e+002,1.516589e+001
9.438918e+002,1.683406e+001
9.448561e+002,1.930086e+001
9.458203e+002,2.078719e+001
9.467845e+002,2.070399e+001
9.477488e+002,2.039128e+001
9.487130e+002,2.046729e+001
9.496772e+002,2.094743e+001
9.506415e+002,2.225932e+001
9.516057e+002,2.412154e+001
9.525699e+002,2.565543e+001
9.535342e+002,2.600220e+001
9.544984e+002,2.515643e+001
9.554626e+002,2.317902e+001
9.564269e+002,1.981914e+001
9.573911e+002,1.753127e+001
9.583553e+002,1.712703e+001
9.593196e+002,1.802655e+001
9.602838e+002,1.964270e+001
9.612480e+002,2.231245e+001
9.622123e+002,2.393474e+001
9.631765e+002,2.291588e+001
9.641407e+002,2.183423e+001
9.651050e+002,2.211906e+001
9.660692e+002,2.318736e+001
9.670334e+002,2.369081e+001
9.679977e+002,2.286798e+001
9.689619e+002,2.128825e+001
9.699261e+002,1.940144e+001
9.708904e+002,1.738818e+001
9.718546e+002,1.621643e+001
9.728188e+002,1.601968e+001
9.737831e+002,1.679913e+001
9.747473e+002,1.891850e+001
9.757115e+002,2.284196e+001
9.766758e+002,2.581351e+001
9.776400e+002,2.814854e+001
9.786042e+002,2.935860e+001
9.795685e+002,2.836403e+001
9.805327e+002,2.636835e+001
9.814969e+002,2.515964e+001
9.824612e+002,2.542386e+001
9.834254e+002,2.587936e+001
9.843896e+002,2.528233e+001
9.853539e+002,2.389120e+001
9.863181e+002,2.161444e+001
9.872823e+002,1.864122e+001
9.882466e+002,1.584517e+001
9.892108e+002,1.410255e+001
9.901750e+002,1.347356e+001
9.911393e+002,1.318059e+001
9.921035e+002,1.280795e+001
9.930677e+002,1.278995e+001
9.940320e+002,1.341837e+001
9.949962e+002,1.445276e+001
9.959604e+002,1.583304e+001
9.969247e+002,1.753413e+001
9.978889e+002,1.897577e+001
9.988531e+002,1.922649e+001
9.998174e+002,1.958421e+001
1.000782e+003,2.126749e+001
1.001746e+003,2.362407e+001
1.002710e+003,2.578821e+001
1.003674e+003,2.727310e+001
1.004639e+003,2.788664e+001
1.005603e+003,2.710875e+001
1.006567e+003,2.473317e+001
1.007531e+003,2.448831e+001
1.008495e+003,2.772395e+001
1.009460e+003,3.036775e+001
1.010424e+003,2.967769e+001
1.011388e+003,2.642128e+001
1.012352e+003,2.349054e+001
1.013317e+003,2.097493e+001
1.014281e+003,1.919075e+001
1.015245e+003,1.830365e+001
1.016209e+003,1.778500e+001
1.017174e+003,1.749078e+001
1.018138e+003,1.725714e+001
1.019102e+003,1.678407e+001
1.020066e+003,1.581761e+001
1.021031e+003,1.467087e+001
1.021995e+003,1.409032e+001
1.022959e+003,1.383041e+001
1.023923e+003,1.328500e+001
1.024887e+003,1.208441e+001
1.025852e+003,1.075017e+001
1.026816e+003,1.041022e+001
1.027780e+003,1.162798e+001
1.028744e+003,1.163364e+001
1.029709e+003,8.540649e+000
1.030673e+003,6.132736e+000
1.031637e+003,6.171906e+000
1.032601e+003,7.227936e+000
1.033566e+003,7.276276e+000
1.034530e+003,5.646500e+000
1.035494e+003,3.378967e+000
1.036458e+003,9.589233e-001
1.037422e+003,-1.009796e+000
1.038387e+003,-1.222473e+000
1.039351e+003,1.485443e-001
1.040315e+003,1.692490e+000
1.041279e+003,2.446289e+000
1.042244e+003,2.566086e+000
1.043208e+003,2.530289e+000
1.044172e+003,1.956406e+000
1.045136e+003,1.651886e+000
1.046101e+003,2.265228e+000
1.047065e+003,2.645462e+000
1.048029e+003,1.384644e+000
1.048993e+003,-9.143219e-001
1.049958e+003,-1.684311e+000
1.050922e+003,8.674927e-001
1.051886e+003,3.961594e+000
1.052850e+003,4.643021e+000
1.053814e+003,4.116898e+000
1.054779e+003,3.756638e+000
1.055743e+003,3.902740e+000
1.056707e+003,4.242249e+000
1.057671e+003,4.398132e+000
1.058636e+003,4.343491e+000
1.059600e+003,4.594208e+000
1.060564e+003,5.968765e+000
1.061528e+003,6.772980e+000
1.062493e+003,5.883316e+000
1.063457e+003,4.660141e+000
1.064421e+003,5.045822e+000
1.065385e+003,7.250214e+000
1.066349e+003,8.750549e+000
1.067314e+003,7.821899e+000
1.068278e+003,6.298843e+000
1.069242e+003,5.421951e+000
1.070206e+003,4.979858e+000
1.071171e+003,4.374985e+000
1.072135e+003,3.374130e+000
1.073099e+003,2.444000e+000
1.074063e+003,2.478943e+000
1.075028e+003,3.615097e+000
1.075992e+003,5.001678e+000
1.076956e+003,7.545044e+000
1.077920e+003,8.687973e+000
1.078885e+003,6.454361e+000
1.079849e+003,2.754166e+000
1.080813e+003,1.262604e+000
1.081777e+003,2.913818e+000
1.082741e+003,4.388275e+000
1.083706e+003,3.317200e+000
1.084670e+003,1.967560e+000
1.085634e+003,1.584656e+000
1.086598e+003,1.904999e+000
1.087563e+003,2.130600e+000
1.088527e+003,1.901672e+000
1.089491e+003,1.781189e+000
1.090455e+003,2.777756e+000
1.091420e+003,4.945831e+000
1.092384e+003,6.595505e+000
1.093348e+003,7.839615e+000
1.094312e+003,8.236038e+000
1.095276e+003,7.110458e+000
1.096241e+003,5.102127e+000
1.097205e+003,4.109558e+000
1.098169e+003,4.779556e+000
1.099133e+003,4.902420e+000
1.100098e+003,2.873962e+000
1.101062e+003,9.024048e-001
1.102026e+003,6.186981e-001
1.102990e+003,1.567871e+000
1.103955e+003,2.304077e+000
1.104919e+003,1.924271e+000
1.105883e+003,9.412231e-001
1.106847e+003,4.750061e-001
1.107812e+003,5.397339e-001
1.108776e+003,7.746887e-001
1.109740e+003,1.144913e+000
1.110704e+003,1.732635e+000
1.111668e+003,3.025391e+000
1.112633e+003,4.793259e+000
1.113597e+003,5.509521e+000
1.114561e+003,4.260330e+000
1.115525e+003,3.535538e+000
1.116490e+003,4.552063e+000
1.117454e+003,5.805756e+000
1.118418e+003,6.632782e+000
1.119382e+003,6.956909e+000
1.120347e+003,6.546432e+000
1.121311e+003,5.176361e+000
1.122275e+003,3.824722e+000
1.123239e+003,5.406738e+000
1.124203e+003,9.653473e+000
1.125168e+003,1.107292e+001
1.126132e+003,8.356171e+000
1.127096e+003,5.273727e+000
1.128060e+003,4.546219e+000
1.129025e+003,5.750336e+000
1.129989e+003,7.194443e+000
1.130953e+003,9.008484e+000
1.131917e+003,1.038449e+001
1.132882e+003,1.079367e+001
1.133846e+003,1.117593e+001
1.134810e+003,1.211354e+001
1.135774e+003,1.353270e+001
1.136739e+003,1.515073e+001
1.137703e+003,1.678561e+001
1.138667e+003,1.822350e+001
1.139631e+003,1.893031e+001
1.140595e+003,1.905058e+001
1.141560e+003,2.010324e+001
1.142524e+003,2.246408e+001
1.143488e+003,2.501901e+001
1.144452e+003,2.651985e+001
1.145417e+003,2.754593e+001
1.146381e+003,3.029826e+001
1.147345e+003,3.515338e+001
1.148309e+003,4.084158e+001
1.149274e+003,4.801862e+001
1.150238e+003,5.500441e+001
1.151202e+003,6.090974e+001
1.152166e+003,6.610593e+001
1.153130e+003,7.138336e+001
1.154095e+003,7.698280e+001
1.155059e+003,8.229428e+001
1.156023e+003,8.696790e+001
1.156987e+003,9.063266e+001
1.157952e+003,9.125273e+001
1.158916e+003,8.870114e+001
1.159880e+003,8.534317e+001
1.160844e+003,8.247978e+001
1.161809e+003,7.919801e+001
1.162773e+003,7.337677e+001
1.163737e+003,6.422171e+001
1.164701e+003,5.617497e+001
1.165666e+003,5.135394e+001
1.166630e+003,4.701035e+001
1.167594e+003,4.185249e+001
1.168558e+003,3.665157e+001
1.169522e+003,3.270412e+001
1.170487e+003,3.030826e+001
1.171451e+003,2.849019e+001
1.172415e+003,2.605431e+001
1.173379e+003,2.331250e+001
1.174344e+003,2.230020e+001
1.175308e+003,2.312939e+001
1.176272e+003,2.367851e+001
1.177236e+003,2.313564e+001
1.178201e+003,2.216310e+001
1.179165e+003,2.154956e+001
1.180129e+003,2.121361e+001
1.181093e+003,2.058627e+001
1.182057e+003,1.917496e+001
1.183022e+003,1.817633e+001
1.183986e+003,1.804460e+001
1.184950e+003,1.848053e+001
1.185914e+003,1.982787e+001
1.186879e+003,2.159555e+001
1.187843e+003,2.190950e+001
1.188807e+003,1.911961e+001
1.189771e+003,1.500552e+001
1.190736e+003,1.567531e+001
1.191700e+003,2.184561e+001
1.192664e+003,2.507217e+001
1.193628e+003,2.341649e+001
1.194593e+003,2.044809e+001
1.195557e+003,1.817686e+001
1.196521e+003,1.657137e+001
1.197485e+003,1.581779e+001
1.198449e+003,1.644890e+001
1.199414e+003,1.640848e+001
1.200378e+003,1.377014e+001
1.201342e+003,1.108278e+001
1.202306e+003,9.919083e+000
1.203271e+003,9.944641e+000
1.204235e+003,1.023651e+001
1.205199e+003,1.031870e+001
1.206163e+003,1.031216e+001
1.207128e+003,1.038490e+001
1.208092e+003,1.055254e+001
1.209056e+003,1.072737e+001
1.210020e+003,1.115430e+001
1.210984e+003,1.114648e+001
1.211949e+003,1.066420e+001
1.212913e+003,9.494507e+000
1.213877e+003,6.959778e+000
1.214841e+003,3.143814e+000
1.215806e+003,2.396393e-001
1.216770e+003,-7.431946e-001
1.217734e+003,-8.615723e-001
1.218698e+003,-3.958282e-001
1.219663e+003,-2.082825e-002
1.220627e+003,-5.798950e-001
1.221591e+003,-2.165283e+000
1.222555e+003,-4.366791e+000
1.223520e+003,-6.822296e+000
1.224484e+003,-9.302658e+000
1.225448e+003,-1.095602e+001
1.226412e+003,-1.167435e+001
1.227376e+003,-1.166490e+001
1.228341e+003,-1.020523e+001
1.229305e+003,-8.930893e+000
1.230269e+003,-8.874039e+000
1.231233e+003,-9.605591e+000
1.232198e+003,-1.016402e+001
1.233162e+003,-1.024942e+001
1.234126e+003,-1.025963e+001
1.235090e+003,-1.071281e+001
1.236055e+003,-1.113788e+001
1.237019e+003,-1.088083e+001
1.237983e+003,-1.020543e+001
1.238947e+003,-9.743607e+000
1.239911e+003,-9.706268e+000
1.240876e+003,-9.816803e+000
1.241840e+003,-9.693176e+000
1.242804e+003,-9.297165e+000
1.243768e+003,-9.243469e+000
1.244733e+003,-1.016345e+001
1.245697e+003,-1.056036e+001
1.246661e+003,-1.029469e+001
1.247625e+003,-9.700211e+000
1.248590e+003,-8.443298e+000
1.249554e+003,-6.963394e+000
1.250518e+003,-6.725830e+000
1.251482e+003,-8.556274e+000
1.252447e+003,-1.076772e+001
1.253411e+003,-1.145544e+001
1.254375e+003,-1.081021e+001
1.255339e+003,-8.775269e+000
1.256303e+003,-5.462646e+000
1.257268e+003,-3.597946e+000
1.258232e+003,-5.502090e+000
1.259196e+003,-8.952972e+000
1.260160e+003,-8.656784e+000
1.261125e+003,-3.504608e+000
1.262089e+003,-9.443054e-001
1.263053e+003,-5.076981e+000
1.264017e+003,-7.918549e+000
1.264982e+003,-6.625519e+000
1.265946e+003,-3.868866e+000
1.266910e+003,-1.938263e+000
1.267874e+003,-1.183990e+000
1.268839e+003,-7.873993e-001
1.269803e+003,-1.999512e-001
1.270767e+003,9.280396e-002
1.271731e+003,-1.058167e+000
1.272695e+003,-3.545059e+000
1.273660e+003,-5.309677e+000
1.274624e+003,-6.553360e+000
1.275588e+003,-6.851654e+000
1.276552e+003,-4.759933e+000
1.277517e+003,-1.890259e+000
1.278481e+003,-1.877472e+000
1.279445e+003,-5.212250e+000
1.280409e+003,-7.576324e+000
1.281374e+003,-7.197922e+000
1.282338e+003,-5.972000e+000
1.283302e+003,-3.935211e+000
1.284266e+003,-2.276154e+000
1.285230e+003,-2.546585e+000
1.286195e+003,-4.730164e+000
1.287159e+003,-7.689362e+000
1.288123e+003,-1.045305e+001
1.289087e+003,-1.253819e+001
1.290052e+003,-1.256976e+001
1.291016e+003,-9.735153e+000
1.291980e+003,-8.007156e+000
1.292944e+003,-8.033920e+000
1.293909e+003,-8.393005e+000
1.294873e+003,-8.392380e+000
1.295837e+003,-8.332077e+000
1.296801e+003,-8.916367e+000
1.297766e+003,-1.013750e+001
1.298730e+003,-1.078362e+001
1.299694e+003,-9.992554e+000
1.300658e+003,-8.971466e+000
1.301622e+003,-9.082001e+000
1.302587e+003,-9.765656e+000
1.303551e+003,-1.026877e+001
1.304515e+003,-1.040506e+001
1.305479e+003,-1.029745e+001
1.306444e+003,-1.013742e+001
1.307408e+003,-9.832779e+000
1.308372e+003,-8.763275e+000
1.309336e+003,-6.368332e+000
1.310301e+003,-4.995270e+000
1.311265e+003,-5.288803e+000
1.312229e+003,-5.814911e+000
1.313193e+003,-6.511414e+000
1.314157e+003,-7.060303e+000
1.315122e+003,-7.024292e+000
1.316086e+003,-6.526337e+000
1.317050e+003,-6.161194e+000
1.318014e+003,-6.267868e+000
1.318979e+003,-6.704926e+000
1.319943e+003,-7.445450e+000
1.320907e+003,-8.356491e+000
1.321871e+003,-8.721024e+000
1.322836e+003,-8.564606e+000
1.323800e+003,-8.165833e+000
1.324764e+003,-7.400070e+000
1.325728e+003,-6.580139e+000
1.326693e+003,-6.375534e+000
1.327657e+003,-6.870895e+000
1.328621e+003,-7.292221e+000
1.329585e+003,-7.143936e+000
1.330549e+003,-6.804993e+000
1.331514e+003,-6.391006e+000
1.332478e+003,-6.382813e+000
1.333442e+003,-7.572601e+000
1.334406e+003,-9.505142e+000
1.335371e+003,-1.083391e+001
1.336335e+003,-1.074605e+001
1.337299e+003,-9.617645e+000
1.338263e+003,-8.104156e+000
1.339228e+003,-6.053970e+000
1.340192e+003,-5.019730e+000
1.341156e+003,-6.059311e+000
1.342120e+003,-6.493622e+000
1.343084e+003,-5.367844e+000
1.344049e+003,-4.207031e+000
1.345013e+003,-4.241486e+000
1.345977e+003,-5.200699e+000
1.346941e+003,-6.219254e+000
1.347906e+003,-7.026062e+000
1.348870e+003,-7.451096e+000
1.349834e+003,-7.283676e+000
1.350798e+003,-6.731293e+000
1.351763e+003,-5.907761e+000
1.352727e+003,-4.921600e+000
1.353691e+003,-4.597992e+000
1.354655e+003,-5.331863e+000
1.355620e+003,-6.425919e+000
1.356584e+003,-6.877991e+000
1.357548e+003,-6.805328e+000
1.358512e+003,-7.776428e+000
1.359476e+003,-1.074425e+001
1.360441e+003,-1.273674e+001
1.361405e+003,-1.282022e+001
1.362369e+003,-1.189008e+001
1.363333e+003,-9.315750e+000
1.364298e+003,-6.485474e+000
1.365262e+003,-5.439499e+000
1.366226e+003,-6.424805e+000
1.367190e+003,-7.786270e+000
1.368155e+003,-8.052063e+000
1.369119e+003,-7.555573e+000
1.370083e+003,-7.350082e+000
1.371047e+003,-7.614105e+000
1.372011e+003,-7.042007e+000
1.372976e+003,-5.036652e+000
1.373940e+003,-3.250412e+000
1.374904e+003,-2.079926e+000
1.375868e+003,-1.498596e+000
1.376833e+003,-1.801056e+000
1.377797e+003,-2.842804e+000
1.378761e+003,-3.495605e+000
1.379725e+003,-3.120590e+000
1.380690e+003,-2.653198e+000
1.381654e+003,-3.121567e+000
1.382618e+003,-4.029358e+000
1.383582e+003,-4.883713e+000
1.384547e+003,-5.591110e+000
1.385511e+003,-5.927979e+000
1.386475e+003,-5.806870e+000
1.387439e+003,-5.338623e+000
1.388403e+003,-4.458069e+000
1.389368e+003,-3.180069e+000
1.390332e+003,-2.661346e+000
1.391296e+003,-3.225845e+000
1.392260e+003,-3.834152e+000
1.393225e+003,-4.444504e+000
1.394189e+003,-4.877167e+000
1.395153e+003,-4.826202e+000
1.396117e+003,-4.607635e+000
1.397082e+003,-4.884094e+000
1.398046e+003,-5.643829e+000
1.399010e+003,-5.909515e+000
1.399974e+003,-4.809647e+000
1.400938e+003,-3.067291e+000
1.401903e+003,-2.672058e+000
1.402867e+003,-3.758621e+000
1.403831e+003,-4.456085e+000
1.404795e+003,-5.089325e+000
1.405760e+003,-5.195969e+000
1.406724e+003,-4.608170e+000
1.407688e+003,-3.758362e+000
1.408652e+003,-2.853653e+000
1.409617e+003,-1.864471e+000
1.410581e+003,-7.397614e-001
1.411545e+003,7.057648e-001
1.412509e+003,1.344803e+000
1.413474e+003,-8.979645e-001
1.414438e+003,-4.209900e+000
1.415402e+003,-5.192947e+000
1.416366e+003,-4.021866e+000
1.417330e+003,-2.757843e+000
1.418295e+003,-2.174362e+000
1.419259e+003,-1.834946e+000
1.420223e+003,-1.288971e+000
1.421187e+003,-6.491699e-001
1.422152e+003,-2.027893e-001
1.423116e+003,1.652527e-001
1.424080e+003,3.357544e-001
1.425044e+003,-1.309662e-001
1.426009e+003,-5.814056e-001
1.426973e+003,-6.219177e-001
1.427937e+003,-5.802155e-001
1.428901e+003,-8.462372e-001
1.429865e+003,-1.385117e+000
1.430830e+003,-1.967499e+000
1.431794e+003,-2.476974e+000
1.432758e+003,-2.730087e+000
1.433722e+003,-2.157440e+000
1.434687e+003,-4.758759e-001
1.435651e+003,3.737946e-001
1.436615e+003,-1.396133e+000
1.437579e+003,-2.025375e+000
1.438544e+003,-4.110870e-001
1.439508e+003,1.732422e+000
1.440472e+003,4.056046e+000
1.441436e+003,5.920166e+000
1.442401e+003,5.827393e+000
1.443365e+003,3.637482e+000
1.444329e+003,1.725861e+000
1.445293e+003,1.975555e+000
1.446257e+003,3.267807e+000
1.447222e+003,3.380981e+000
1.448186e+003,2.555618e+000
1.449150e+003,2.293121e+000
1.450114e+003,2.945801e+000
1.451079e+003,3.091736e+000
1.452043e+003,1.476730e+000
1.453007e+003,-5.343018e-001
1.453971e+003,-8.825378e-001
1.454936e+003,1.470795e-001
1.455900e+003,3.557587e-001
1.456864e+003,-1.063339e+000
1.457828e+003,-1.885208e+000
1.458792e+003,-4.603577e-001
1.459757e+003,1.658524e+000
1.460721e+003,3.894592e+000
1.461685e+003,5.663300e+000
1.462649e+003,5.707153e+000
1.463614e+003,3.894272e+000
1.464578e+003,1.874146e+000
1.465542e+003,1.082138e+000
1.466506e+003,1.041183e+000
1.467471e+003,2.756958e-001
1.468435e+003,-1.527573e+000
1.469399e+003,-1.843033e+000
1.470363e+003,9.270630e-001
1.471328e+003,2.853348e+000
1.472292e+003,2.202744e+000
1.473256e+003,1.065887e+000
1.474220e+003,1.181427e+000
1.475184e+003,2.180328e+000
1.476149e+003,2.890991e+000
1.477113e+003,2.860977e+000
1.478077e+003,2.502701e+000
1.479041e+003,2.282379e+000
1.480006e+003,2.321274e+000
1.480970e+003,2.854065e+000
1.481934e+003,4.042053e+000
1.482898e+003,4.513931e+000
1.483863e+003,3.830460e+000
1.484827e+003,3.087158e+000
1.485791e+003,2.185608e+000
1.486755e+003,1.849274e+000
1.487719e+003,3.079224e+000
1.488684e+003,5.269684e+000
1.489648e+003,6.826508e+000
1.490612e+003,7.304977e+000
1.491576e+003,7.640015e+000
1.492541e+003,8.515182e+000
1.493505e+003,9.746780e+000
1.494469e+003,1.111758e+001
1.495433e+003,1.245828e+001
1.496398e+003,1.326978e+001
1.497362e+003,1.339153e+001
1.498326e+003,1.388606e+001
1.499290e+003,1.521318e+001
1.500255e+003,1.724600e+001
1.501219e+003,2.022820e+001
1.502183e+003,2.382407e+001
1.503147e+003,2.622141e+001
1.504111e+003,2.678018e+001
1.505076e+003,2.733313e+001
1.506040e+003,2.832582e+001
1.507004e+003,3.056270e+001
1.507968e+003,3.530954e+001
1.508933e+003,4.157448e+001
1.509897e+003,4.738812e+001
1.510861e+003,5.252931e+001
1.511825e+003,5.774771e+001
1.512790e+003,6.337857e+001
1.513754e+003,6.937399e+001
1.514718e+003,7.595201e+001
1.515682e+003,8.300858e+001
1.516646e+003,8.968698e+001
1.517611e+003,9.605321e+001
1.518575e+003,1.020495e+002
1.519539e+003,1.077209e+002
1.520503e+003,1.131674e+002
1.521468e+003,1.191823e+002
1.522432e+003,1.245142e+002
1.523396e+003,1.272866e+002
1.524360e+003,1.274660e+002
1.525325e+003,1.268394e+002
1.526289e+003,1.266152e+002
1.527253e+003,1.255969e+002
1.528217e+003,1.213804e+002
1.529182e+003,1.140082e+002
1.530146e+003,1.074324e+002
1.531110e+003,1.030721e+002
1.532074e+003,9.656898e+001
1.533039e+003,8.593719e+001
1.534003e+003,7.484274e+001
1.534967e+003,6.431209e+001
1.535931e+003,5.501830e+001
1.536896e+003,4.803659e+001
1.537860e+003,4.284103e+001
1.538824e+003,3.739684e+001
1.539788e+003,3.065718e+001
1.540752e+003,2.383383e+001
1.541717e+003,1.844917e+001
1.542681e+003,1.465901e+001
1.543645e+003,1.298264e+001
1.544609e+003,1.473145e+001
1.545573e+003,1.559845e+001
1.546538e+003,1.526019e+001
1.547502e+003,1.418903e+001
1.548466e+003,1.186681e+001
1.549430e+003,9.725723e+000
1.550395e+003,9.464828e+000
1.551359e+003,1.050116e+001
1.552323e+003,1.092966e+001
1.553287e+003,1.011693e+001
1.554252e+003,8.963501e+000
1.555216e+003,8.151779e+000
1.556180e+003,7.778000e+000
1.557144e+003,8.425629e+000
1.558109e+003,1.016405e+001
1.559073e+003,1.014626e+001
1.560037e+003,7.089172e+000
1.561001e+003,4.528870e+000
1.561966e+003,3.943237e+000
1.562930e+003,4.317322e+000
1.563894e+003,4.989380e+000
1.564858e+003,5.663513e+000
1.565823e+003,5.661957e+000
1.566787e+003,4.910995e+000
1.567751e+003,4.639542e+000
1.568715e+003,5.739227e+000
1.569679e+003,7.107849e+000
1.570644e+003,6.990845e+000
1.571608e+003,6.045349e+000
1.572572e+003,6.622070e+000
1.573536e+003,8.895142e+000
1.574500e+003,1.062971e+001
1.575465e+003,1.089206e+001
1.576429e+003,1.064304e+001
1.577393e+003,1.056003e+001
1.578357e+003,1.046445e+001
1.579322e+003,1.012175e+001
1.580286e+003,9.540314e+000
1.581250e+003,8.533249e+000
1.582214e+003,6.799362e+000
1.583179e+003,5.504654e+000
1.584143e+003,5.468903e+000
1.585107e+003,6.304703e+000
1.586071e+003,8.138367e+000
1.587036e+003,1.051549e+001
1.588000e+003,1.151482e+001
1.588964e+003,1.059270e+001
1.589928e+003,9.199722e+000
1.590893e+003,7.708145e+000
1.591857e+003,6.885513e+000
1.592821e+003,8.687759e+000
1.593785e+003,1.245502e+001
1.594750e+003,1.401009e+001
1.595714e+003,1.248997e+001
1.596678e+003,1.065819e+001
1.597642e+003,8.866379e+000
1.598606e+003,8.263870e+000
1.599571e+003,1.104968e+001
1.600535e+003,1.477788e+001
1.601499e+003,1.595033e+001
1.602463e+003,1.475429e+001
1.603427e+003,1.382542e+001
1.604392e+003,1.427335e+001
1.605356e+003,1.498863e+001
1.606320e+003,1.488211e+001
1.607284e+003,1.417358e+001
1.608249e+003,1.317755e+001
1.609213e+003,1.185237e+001
1.610177e+003,1.200986e+001
1.611141e+003,1.482790e+001
1.612106e+003,1.694794e+001
1.613070e+003,1.581932e+001
1.614034e+003,1.421497e+001
1.614998e+003,1.428801e+001
1.615963e+003,1.521899e+001
1.616927e+003,1.552855e+001
1.617891e+003,1.495070e+001
1.618855e+003,1.388626e+001
1.619820e+003,1.242859e+001
1.620784e+003,1.100806e+001
1.621748e+003,1.033801e+001
1.622712e+003,1.053870e+001
1.623677e+003,1.184084e+001
1.624641e+003,1.468120e+001
1.625605e+003,1.601549e+001
1.626569e+003,1.388309e+001
1.627533e+003,1.180649e+001
1.628498e+003,1.161171e+001
1.629462e+003,1.231624e+001
1.630426e+003,1.386015e+001
1.631390e+003,1.538164e+001
1.632354e+003,1.488617e+001
1.633319e+003,1.213687e+001
1.634283e+003,9.589401e+000
1.635247e+003,8.988068e+000
1.636211e+003,9.769760e+000
1.637176e+003,1.134030e+001
1.638140e+003,1.364294e+001
1.639104e+003,1.516876e+001
1.640068e+003,1.580183e+001
1.641033e+003,1.569934e+001
1.641997e+003,1.408066e+001
1.642961e+003,1.300887e+001
1.643925e+003,1.425951e+001
1.644890e+003,1.586826e+001
1.645854e+003,1.565271e+001
1.646818e+003,1.411172e+001
1.647782e+003,1.295853e+001
1.648747e+003,1.272646e+001
1.649711e+003,1.287874e+001
1.650675e+003,1.309918e+001
1.651639e+003,1.333415e+001
1.652604e+003,1.342805e+001
1.653568e+003,1.331201e+001
1.654532e+003,1.236324e+001
1.655496e+003,9.982620e+000
1.656460e+003,8.844635e+000
1.657425e+003,1.049817e+001
1.658389e+003,1.260992e+001
1.659353e+003,1.447083e+001
1.660317e+003,1.569212e+001
1.661281e+003,1.551921e+001
1.662246e+003,1.433958e+001
1.663210e+003,1.332864e+001
1.664174e+003,1.291891e+001
1.665138e+003,1.291646e+001
1.666103e+003,1.338847e+001
1.667067e+003,1.364011e+001
1.668031e+003,1.159531e+001
1.668995e+003,7.598862e+000
1.669960e+003,6.850189e+000
1.670924e+003,1.088783e+001
1.671888e+003,1.324019e+001
1.672852e+003,1.073164e+001
1.673817e+003,7.665436e+000
1.674781e+003,6.203400e+000
1.675745e+003,6.027237e+000
1.676709e+003,7.736252e+000
1.677674e+003,1.037546e+001
1.678638e+003,1.090172e+001
1.679602e+003,8.402039e+000
1.680566e+003,6.256683e+000
1.681531e+003,7.529114e+000
1.682495e+003,1.022224e+001
1.683459e+003,1.078560e+001
1.684423e+003,9.479645e+000
1.685387e+003,8.309845e+000
1.686352e+003,7.495758e+000
1.687316e+003,6.655685e+000
1.688280e+003,5.406448e+000
1.689244e+003,4.577988e+000
1.690208e+003,4.599609e+000
1.691173e+003,5.474899e+000
1.692137e+003,8.502029e+000
1.693101e+003,1.250810e+001
1.694065e+003,1.302797e+001
1.695030e+003,8.738571e+000
1.695994e+003,4.901627e+000
1.696958e+003,5.243729e+000
1.697922e+003,7.208679e+000
1.698887e+003,7.775497e+000
1.699851e+003,7.341339e+000
1.700815e+003,7.079681e+000
1.701779e+003,7.034103e+000
1.702744e+003,6.284424e+000
1.703708e+003,4.286880e+000
1.704672e+003,3.074646e+000
1.705636e+003,4.624298e+000
1.706601e+003,6.990768e+000
1.707565e+003,7.689240e+000
1.708529e+003,6.994125e+000
1.709493e+003,5.110123e+000
1.710458e+003,1.848221e+000
1.711422e+003,-7.308960e-001
1.712386e+003,-1.617386e+000
1.713350e+003,-1.582199e+000
1.714314e+003,-1.367645e+000
1.715279e+003,-7.454834e-001
1.716243e+003,1.573975e+000
1.717207e+003,4.917267e+000
1.718171e+003,5.444626e+000
1.719135e+003,2.124619e+000
1.720100e+003,-5.794067e-001
1.721064e+003,4.806213e-001
1.722028e+003,2.930298e+000
1.722992e+003,3.497894e+000
1.723957e+003,2.616364e+000
1.724921e+003,2.285080e+000
1.725885e+003,2.484253e+000
1.726849e+003,2.256561e+000
1.727814e+003,1.128174e+000
1.728778e+003,3.459930e-001
1.729742e+003,6.526489e-001
1.730706e+003,1.285095e+000
1.731671e+003,1.493210e+000
1.732635e+003,1.256989e+000
1.733599e+003,7.294006e-001
1.734563e+003,1.583862e-001
1.735528e+003,6.770325e-002
1.736492e+003,6.884308e-001
1.737456e+003,1.699921e+000
1.738420e+003,2.829956e+000
1.739385e+003,3.741623e+000
1.740349e+003,3.400162e+000
1.741313e+003,1.518188e+000
1.742277e+003,2.136230e-001
1.743241e+003,-3.077240e-001
1.744206e+003,-4.685822e-001
1.745170e+003,8.212280e-002
1.746134e+003,4.177856e-001
1.747098e+003,-5.456390e-001
1.748063e+003,-1.588120e+000
1.749027e+003,-9.675140e-001
1.749991e+003,8.527069e-001
1.750955e+003,2.244522e+000
1.751919e+003,2.583740e+000
1.752884e+003,2.243240e+000
1.753848e+003,1.519974e+000
1.754812e+003,5.952301e-001
1.755776e+003,-1.066132e-001
1.756741e+003,-5.067596e-001
1.757705e+003,-7.605591e-001
1.758669e+003,-1.040421e+000
1.759633e+003,-8.829041e-001
1.760598e+003,8.509827e-002
1.761562e+003,8.817444e-001
1.762526e+003,1.716492e+000
1.763490e+003,1.965836e+000
1.764455e+003,3.534241e-001
1.765419e+003,-1.681107e+000
1.766383e+003,-1.705658e+000
1.767347e+003,1.701355e-001
1.768312e+003,1.871323e+000
1.769276e+003,2.406906e+000
1.770240e+003,2.065598e+000
1.771204e+003,9.942474e-001
1.772168e+003,-3.056488e-001
1.773133e+003,-9.897156e-001
1.774097e+003,-1.060776e+000
1.775061e+003,-5.076599e-002
1.776025e+003,2.388336e+000
1.776990e+003,2.565933e+000
1.777954e+003,-2.076004e+000
1.778918e+003,-5.937332e+000
1.779882e+003,-4.140381e+000
1.780846e+003,-1.271210e-001
1.781811e+003,1.921082e+000
1.782775e+003,2.280746e+000
1.783739e+003,1.539734e+000
1.784703e+003,-3.353729e-001
1.785668e+003,-1.593704e+000
1.786632e+003,-1.513931e+000
1.787596e+003,-8.332367e-001
1.788560e+003,7.136841e-001
1.789525e+003,2.215088e+000
1.790489e+003,1.767563e+000
1.791453e+003,1.998901e-002
1.792417e+003,-5.740356e-001
1.793382e+003,4.322357e-001
1.794346e+003,1.725143e+000
1.795310e+003,2.663742e+000
1.796274e+003,2.675629e+000
1.797239e+003,8.680420e-001
1.798203e+003,-1.679321e+000
1.799167e+003,-1.651749e+000
1.800131e+003,1.424026e+000
1.801095e+003,2.522583e+000
1.802060e+003,5.386810e-001
1.803024e+003,-1.085938e+000
1.803988e+003,-2.761734e+000
1.804952e+003,-3.243973e+000
1.805917e+003,-6.703186e-001
1.806881e+003,2.293533e+000
1.807845e+003,2.891663e+000
1.808809e+003,1.819061e+000
1.809773e+003,1.021942e+000
1.810738e+003,9.506683e-001
1.811702e+003,6.734009e-001
1.812666e+003,-3.831024e-001
1.813630e+003,-1.380936e+000
1.814595e+003,-1.126648e+000
1.815559e+003,1.861572e-002
1.816523e+003,8.021088e-001
1.817487e+003,1.279541e+000
1.818452e+003,7.885284e-001
1.819416e+003,-1.399902e+000
1.820380e+003,-2.168121e+000
1.821344e+003,5.562286e-001
1.822309e+003,2.948212e+000
1.823273e+003,2.028839e+000
1.824237e+003,4.156342e-001
1.825201e+003,1.101578e+000
1.826166e+003,3.171539e+000
1.827130e+003,3.799561e+000
1.828094e+003,2.502045e+000
1.829058e+003,1.389282e+000
1.830022e+003,1.669006e+000
1.830987e+003,2.129745e+000
1.831951e+003,1.836380e+000
1.832915e+003,1.072098e+000
1.833879e+003,8.131409e-002
1.834844e+003,-1.007721e+000
1.835808e+003,-2.210327e+000
1.836772e+003,-3.341446e+000
1.837736e+003,-2.714981e+000
1.838700e+003,4.604492e-001
1.839665e+003,2.857574e+000
1.840629e+003,1.135117e+000
1.841593e+003,-2.332886e+000
1.842557e+003,-2.439575e+000
1.843522e+003,7.519226e-001
1.844486e+003,2.751724e+000
1.845450e+003,3.256348e+000
1.846414e+003,3.321823e+000
1.847379e+003,2.395920e+000
1.848343e+003,1.484741e+000
1.849307e+003,7.705383e-001
1.850271e+003,3.897095e-001
1.851236e+003,5.287018e-001
1.852200e+003,1.072250e+000
1.853164e+003,2.056686e+000
1.854128e+003,3.085953e+000
1.855093e+003,3.241577e+000
1.856057e+003,2.367172e+000
1.857021e+003,1.607605e+000
1.857985e+003,1.898880e+000
1.858949e+003,2.618973e+000
1.859914e+003,2.634872e+000
1.860878e+003,2.159058e+000
1.861842e+003,2.358154e+000
1.862806e+003,3.226776e+000
1.863771e+003,3.780060e+000
1.864735e+003,3.796326e+000
1.865699e+003,3.537201e+000
1.866663e+003,2.952896e+000
1.867627e+003,2.611633e+000
1.868592e+003,3.064606e+000
1.869556e+003,3.888672e+000
1.870520e+003,4.712708e+000
1.871484e+003,5.399429e+000
1.872449e+003,4.815887e+000
1.873413e+003,2.459427e+000
1.874377e+003,1.405579e+000
1.875341e+003,3.362610e+000
1.876306e+003,5.290039e+000
1.877270e+003,5.694794e+000
1.878234e+003,5.130692e+000
1.879198e+003,3.559036e+000
1.880163e+003,1.837769e+000
1.881127e+003,1.508621e+000
1.882091e+003,2.510040e+000
1.883055e+003,3.756760e+000
1.884020e+003,4.650665e+000
1.884984e+003,4.573578e+000
1.885948e+003,2.915329e+000
1.886912e+003,6.826935e-001
1.887876e+003,-1.310883e-001
1.888841e+003,4.214478e-001
1.889805e+003,1.865234e+000
1.890769e+003,4.612793e+000
1.891733e+003,5.942139e+000
1.892698e+003,5.020401e+000
1.893662e+003,3.890915e+000
1.894626e+003,3.124603e+000
1.895590e+003,2.568466e+000
1.896554e+003,2.119904e+000
1.897519e+003,1.908722e+000
1.898483e+003,1.951080e+000
1.899447e+003,2.231750e+000
1.900411e+003,3.126724e+000
1.901376e+003,4.795578e+000
1.902340e+003,5.871948e+000
1.903304e+003,5.471115e+000
1.904268e+003,4.911911e+000
1.905233e+003,5.402924e+000
1.906197e+003,5.813446e+000
1.907161e+003,4.135132e+000
1.908125e+003,1.981232e+000
1.909090e+003,2.936295e+000
1.910054e+003,6.310135e+000
1.911018e+003,7.844894e+000
1.911982e+003,6.399796e+000
1.912947e+003,5.327103e+000
1.913911e+003,7.067673e+000
1.914875e+003,9.463501e+000
1.915839e+003,9.031296e+000
1.916803e+003,6.353210e+000
1.917768e+003,4.745987e+000
1.918732e+003,4.404877e+000
1.919696e+003,4.281326e+000
1.920660e+003,4.481888e+000
1.921625e+003,4.683838e+000
1.922589e+003,4.550919e+000
1.923553e+003,4.710037e+000
1.924517e+003,5.891281e+000
1.925481e+003,7.175705e+000
1.926446e+003,7.841293e+000
1.927410e+003,8.004868e+000
1.928374e+003,7.798187e+000
1.929338e+003,7.223953e+000
1.930303e+003,6.659546e+000
1.931267e+003,6.258728e+000
1.932231e+003,6.136169e+000
1.933195e+003,6.226501e+000
1.934160e+003,6.544983e+000
1.935124e+003,7.560837e+000
1.936088e+003,8.391006e+000
1.937052e+003,7.598679e+000
1.938017e+003,6.035522e+000
1.938981e+003,5.801270e+000
1.939945e+003,6.922928e+000
1.940909e+003,7.647751e+000
1.941874e+003,7.151749e+000
1.942838e+003,6.037323e+000
1.943802e+003,4.888351e+000
1.944766e+003,4.044144e+000
1.945730e+003,3.982971e+000
1.946695e+003,4.619507e+000
1.947659e+003,6.000031e+000
1.948623e+003,8.255005e+000
1.949587e+003,9.440155e+000
1.950552e+003,9.156677e+000
1.951516e+003,8.769089e+000
1.952480e+003,8.535721e+000
1.953444e+003,8.724884e+000
1.954408e+003,9.913361e+000
1.955373e+003,1.113033e+001
1.956337e+003,1.100134e+001
1.957301e+003,9.944839e+000
1.958265e+003,9.112930e+000
1.959230e+003,8.602661e+000
1.960194e+003,7.807190e+000
1.961158e+003,5.140854e+000
1.962122e+003,4.175598e+000
1.963087e+003,7.542557e+000
1.964051e+003,1.080817e+001
1.965015e+003,1.158711e+001
1.965979e+003,1.107758e+001
1.966944e+003,9.962250e+000
1.967908e+003,8.742584e+000
1.968872e+003,8.018234e+000
1.969836e+003,7.878113e+000
1.970801e+003,8.179749e+000
1.971765e+003,8.809830e+000
1.972729e+003,9.117233e+000
1.973693e+003,8.384872e+000
1.974657e+003,7.500000e+000
1.975622e+003,7.989655e+000
1.976586e+003,9.240585e+000
1.977550e+003,9.435623e+000
1.978514e+003,8.886261e+000
1.979479e+003,9.800827e+000
1.980443e+003,1.231914e+001
1.981407e+003,1.328979e+001
1.982371e+003,1.150243e+001
1.983335e+003,9.453049e+000
1.984300e+003,8.922485e+000
1.985264e+003,9.262756e+000
1.986228e+003,9.584824e+000
1.987192e+003,9.936707e+000
1.988157e+003,1.063820e+001
1.989121e+003,1.196069e+001
1.990085e+003,1.238930e+001
1.991049e+003,1.160841e+001
1.992014e+003,1.067996e+001
1.992978e+003,9.409607e+000
1.993942e+003,8.339310e+000
1.994906e+003,7.390137e+000
1.995871e+003,6.974609e+000
1.996835e+003,7.779037e+000
1.997799e+003,9.144913e+000
1.998763e+003,1.027849e+001
1.999728e+003,1.097685e+001
