5.003444e+002,3.140079e+001
5.013087e+002,3.088477e+001
5.022729e+002,3.100615e+001
5.032371e+002,3.177271e+001
5.042014e+002,3.261819e+001
5.051656e+002,3.352669e+001
5.061298e+002,3.407985e+001
5.070941e+002,3.377878e+001
5.080583e+002,3.223752e+001
5.090225e+002,3.158803e+001
5.099868e+002,3.290776e+001
5.109510e+002,3.372632e+001
5.119152e+002,3.228397e+001
5.128795e+002,2.833803e+001
5.138437e+002,2.546957e+001
5.148079e+002,2.552878e+001
5.157722e+002,2.638023e+001
5.167364e+002,2.775017e+001
5.177006e+002,2.915909e+001
5.186649e+002,2.974133e+001
5.196291e+002,2.791469e+001
5.205933e+002,2.525806e+001
5.215576e+002,2.287726e+001
5.225218e+002,2.100172e+001
5.234860e+002,2.009792e+001
5.244503e+002,2.126724e+001
5.254145e+002,2.565314e+001
5.263787e+002,2.798927e+001
5.273430e+002,2.748198e+001
5.283072e+002,2.549719e+001
5.292714e+002,2.372745e+001
5.302357e+002,2.194023e+001
5.311999e+002,2.044595e+001
5.321641e+002,1.913141e+001
5.331284e+002,1.845354e+001
5.340926e+002,1.902229e+001
5.350568e+002,2.108575e+001
5.360211e+002,2.286115e+001
5.369853e+002,2.247890e+001
5.379495e+002,2.151205e+001
5.389138e+002,2.130548e+001
5.398780e+002,2.227696e+001
5.408422e+002,2.366960e+001
5.418065e+002,2.318521e+001
5.427707e+002,2.113501e+001
5.437349e+002,1.972835e+001
5.446992e+002,1.965802e+001
5.456634e+002,2.049326e+001
5.466276e+002,2.076900e+001
5.475919e+002,2.008693e+001
5.485561e+002,1.935333e+001
5.495203e+002,1.839615e+001
5.504846e+002,1.735378e+001
5.514488e+002,1.651494e+001
5.524130e+002,1.620578e+001
5.533773e+002,1.583795e+001
5.543415e+002,1.501421e+001
5.553057e+002,1.403918e+001
5.562700e+002,1.307980e+001
5.572342e+002,1.222600e+001
5.581984e+002,1.166743e+001
5.591627e+002,1.226184e+001
5.601269e+002,1.363440e+001
5.610911e+002,1.490785e+001
5.620554e+002,1.559818e+001
5.630196e+002,1.567651e+001
5.639838e+002,1.537367e+001
5.649481e+002,1.441066e+001
5.659123e+002,1.349667e+001
5.668765e+002,1.325137e+001
5.678408e+002,1.336592e+001
5.688050e+002,1.254552e+001
5.697692e+002,8.535858e+000
5.707335e+002,5.925339e+000
5.716977e+002,7.556702e+000
5.726619e+002,1.095828e+001
5.736262e+002,1.260306e+001
5.745904e+002,9.841187e+000
5.755546e+002,5.719620e+000
5.765189e+002,4.921448e+000
5.774831e+002,6.197632e+000
5.784473e+002,7.887589e+000
5.794116e+002,8.915817e+000
5.803758e+002,9.348160e+000
5.813400e+002,8.473297e+000
5.823043e+002,5.591965e+000
5.832685e+002,3.051941e+000
5.842327e+002,1.888824e+000
5.851970e+002,2.013885e+000
5.861612e+002,2.228790e+000
5.871254e+002,1.836182e+000
5.880897e+002,2.018356e+000
5.890539e+002,3.750671e+000
5.900181e+002,5.986084e+000
5.909824e+002,6.842712e+000
5.919466e+002,4.577133e+000
5.929108e+002,2.030594e+000
5.938751e+002,2.546234e+000
5.948393e+002,4.753448e+000
5.958035e+002,6.682785e+000
5.967678e+002,6.909042e+000
5.977320e+002,5.684326e+000
5.986962e+002,4.015045e+000
5.996605e+002,1.554398e+000
6.006247e+002,4.351807e-002
6.015889e+002,9.795685e-001
6.025532e+002,4.124023e+000
6.035174e+002,5.671631e+000
6.044816e+002,3.616837e+000
6.054459e+002,2.055969e+000
6.064101e+002,1.664047e+000
6.073743e+002,2.126724e+000
6.083386e+002,2.841919e+000
6.093028e+002,3.724609e+000
6.102670e+002,4.435043e+000
6.112313e+002,4.558777e+000
6.121955e+002,4.408035e+000
6.131597e+002,4.514725e+000
6.141240e+002,5.215897e+000
6.150882e+002,6.145370e+000
6.160524e+002,5.539337e+000
6.170167e+002,3.752579e+000
6.179809e+002,2.103455e+000
6.189451e+002,1.090225e+000
6.199094e+002,5.900879e-001
6.208736e+002,1.808624e-001
6.218378e+002,-4.005432e-001
6.228021e+002,-1.977997e-001
6.237663e+002,1.612747e+000
6.247305e+002,4.124634e+000
6.256948e+002,5.882706e+000
6.266590e+002,6.205841e+000
6.276232e+002,5.504898e+000
6.285875e+002,3.843445e+000
6.295517e+002,1.949677e+000
6.305159e+002,4.180908e-001
6.314802e+002,-4.369507e-001
6.324444e+002,-7.029877e-001
6.334086e+002,1.507721e-001
6.343729e+002,1.775909e+000
6.353371e+002,2.666672e+000
6.363013e+002,2.053940e+000
6.372656e+002,5.398254e-001
6.382298e+002,4.542694e-001
6.391940e+002,4.328049e+000
6.401583e+002,6.117294e+000
6.411225e+002,4.914169e+000
6.420867e+002,2.353821e+000
6.430510e+002,5.879211e-002
6.440152e+002,-1.834610e+000
6.449794e+002,-3.028107e+000
6.459437e+002,-3.164703e+000
6.469079e+002,-2.862503e+000
6.478721e+002,-2.392670e+000
6.488364e+002,-1.901642e+000
6.498006e+002,-1.510712e+000
6.507648e+002,-1.682678e+000
6.517291e+002,-2.200363e+000
6.526933e+002,-2.480835e+000
6.536575e+002,-2.433945e+000
6.546218e+002,-1.983932e+000
6.555860e+002,-8.933411e-001
6.565502e+002,1.668442e+000
6.575145e+002,2.883163e+000
6.584787e+002,2.386185e+000
6.594429e+002,1.073639e+000
6.604072e+002,-6.282959e-001
6.613714e+002,-2.755554e+000
6.623356e+002,-4.371552e+000
6.632999e+002,-4.809647e+000
6.642641e+002,-5.009491e+000
6.652283e+002,-5.379074e+000
6.661926e+002,-5.860779e+000
6.671568e+002,-6.116272e+000
6.681210e+002,-5.871872e+000
6.690853e+002,-5.076294e+000
6.700495e+002,-3.286163e+000
6.710137e+002,-6.107635e-001
6.719780e+002,1.532288e+000
6.729422e+002,1.488510e+000
6.739064e+002,-1.421921e+000
6.748707e+002,-2.747421e+000
6.758349e+002,-1.637772e+000
6.767991e+002,-4.864197e-001
6.777634e+002,-2.258148e-001
6.787276e+002,-6.735229e-001
6.796918e+002,-8.892517e-001
6.806561e+002,-4.856720e-001
6.816203e+002,-1.014709e-001
6.825845e+002,6.021118e-002
6.835488e+002,3.393555e-002
6.845130e+002,-1.188965e-001
6.854772e+002,-3.544006e-001
6.864415e+002,-4.444122e-001
6.874057e+002,8.142090e-002
6.883699e+002,8.352966e-001
6.893342e+002,1.113281e+000
6.902984e+002,5.373535e-001
6.912626e+002,-7.256317e-001
6.922269e+002,-1.816162e+000
6.931911e+002,-3.046021e+000
6.941553e+002,-3.225677e+000
6.951196e+002,-1.533630e+000
6.960838e+002,7.909393e-001
6.970480e+002,1.704102e+000
6.980123e+002,1.217957e-001
6.989765e+002,-9.723816e-001
6.999407e+002,1.215668e-001
7.009050e+002,1.722992e+000
7.018692e+002,2.612198e+000
7.028334e+002,2.309402e+000
7.037977e+002,1.105774e+000
7.047619e+002,-1.249832e+000
7.057261e+002,-3.705215e+000
7.066904e+002,-3.891418e+000
7.076546e+002,-1.435059e+000
7.086188e+002,1.935272e+000
7.095831e+002,3.414825e+000
7.105473e+002,1.980743e+000
7.115115e+002,1.586792e+000
7.124758e+002,3.735092e+000
7.134400e+002,5.172913e+000
7.144042e+002,3.045410e+000
7.153685e+002,-2.505417e+000
7.163327e+002,-6.185715e+000
7.172969e+002,-3.115219e+000
7.182612e+002,1.812439e-001
7.192254e+002,5.192871e-001
7.201896e+002,-1.090103e+000
7.211539e+002,-1.616577e+000
7.221181e+002,1.798294e+000
7.230823e+002,6.630569e+000
7.240466e+002,5.177322e+000
7.250108e+002,-8.981018e-001
7.259750e+002,-5.450928e+000
7.269393e+002,-4.738937e+000
7.279035e+002,2.670288e-001
7.288677e+002,2.562775e+000
7.298320e+002,-7.026062e-001
7.307962e+002,-2.662521e+000
7.317604e+002,-2.336044e+000
7.327247e+002,-6.462555e-001
7.336889e+002,1.227798e+000
7.346531e+002,3.053879e+000
7.356174e+002,3.929916e+000
7.365816e+002,3.677643e+000
7.375458e+002,2.761108e+000
7.385101e+002,8.816528e-001
7.394743e+002,-1.649429e+000
7.404385e+002,-3.555756e+000
7.414028e+002,-2.513672e+000
7.423670e+002,4.816742e-001
7.433312e+002,1.685837e+000
7.442955e+002,9.346161e-001
7.452597e+002,-1.752319e-001
7.462239e+002,2.076569e-001
7.471882e+002,2.627029e+000
7.481524e+002,3.851517e+000
7.491166e+002,3.110001e+000
7.500809e+002,1.911621e+000
7.510451e+002,4.989166e-001
7.520093e+002,-9.319611e-001
7.529736e+002,-1.867050e+000
7.539378e+002,-1.437744e+000
7.549020e+002,-1.080276e+000
7.558663e+002,-2.320328e+000
7.568306e+002,-4.046753e+000
7.577948e+002,-4.588562e+000
7.587590e+002,-3.054596e+000
7.597233e+002,-4.284210e-001
7.606875e+002,5.744781e-001
7.616517e+002,2.491760e-001
7.626160e+002,-8.094788e-002
7.635802e+002,-6.147766e-002
7.645444e+002,1.470184e-001
7.655087e+002,9.689331e-002
7.664729e+002,-6.974640e-001
7.674371e+002,-7.000275e-001
7.684014e+002,7.356415e-001
7.693656e+002,2.296646e+000
7.703298e+002,3.541763e+000
7.712941e+002,4.268082e+000
7.722583e+002,3.764908e+000
7.732225e+002,-1.329193e-001
7.741868e+002,-3.915024e+000
7.751510e+002,-4.434784e+000
7.761152e+002,-2.413696e+000
7.770795e+002,-2.731323e-002
7.780437e+002,7.908936e-001
7.790079e+002,2.274017e-001
7.799722e+002,2.939911e-001
7.809364e+002,1.062607e+000
7.819006e+002,1.577682e+000
7.828649e+002,1.151779e+000
7.838291e+002,3.156891e-001
7.847933e+002,7.348938e-001
7.857576e+002,3.295883e+000
7.867218e+002,5.321991e+000
7.876860e+002,6.827896e+000
7.886503e+002,7.637466e+000
7.896145e+002,7.248749e+000
7.905787e+002,5.665054e+000
7.915430e+002,4.119019e+000
7.925072e+002,4.089355e+000
7.934714e+002,4.509567e+000
7.944357e+002,4.395782e+000
7.953999e+002,3.788956e+000
7.963641e+002,3.131287e+000
7.973284e+002,2.863647e+000
7.982926e+002,3.018204e+000
7.992568e+002,3.043320e+000
8.002211e+002,2.534927e+000
8.011853e+002,1.992432e+000
8.021495e+002,1.851624e+000
8.031138e+002,2.207626e+000
8.040780e+002,2.750595e+000
8.050422e+002,3.114105e+000
8.060065e+002,3.826797e+000
8.069707e+002,5.348755e+000
8.079349e+002,6.911041e+000
8.088992e+002,8.028809e+000
8.098634e+002,8.505310e+000
8.108276e+002,8.126709e+000
8.117919e+002,5.608612e+000
8.127561e+002,2.021698e+000
8.137203e+002,6.460571e-002
8.146846e+002,1.857300e-001
8.156488e+002,1.532608e+000
8.166130e+002,3.077164e+000
8.175773e+002,4.914993e+000
8.185415e+002,6.133286e+000
8.195057e+002,6.293564e+000
8.204700e+002,6.254883e+000
8.214342e+002,6.170685e+000
8.223984e+002,6.110794e+000
8.233627e+002,6.286530e+000
8.243269e+002,7.093430e+000
8.252911e+002,7.573792e+000
8.262554e+002,6.939651e+000
8.272196e+002,5.897903e+000
8.281838e+002,5.109772e+000
8.291481e+002,4.836319e+000
8.301123e+002,4.907242e+000
8.310765e+002,5.117554e+000
8.320408e+002,5.382919e+000
8.330050e+002,5.360413e+000
8.339692e+002,5.095764e+000
8.349335e+002,4.466782e+000
8.358977e+002,3.060257e+000
8.368619e+002,6.581573e-001
8.378262e+002,-3.125458e-001
8.387904e+002,1.833252e+000
8.397546e+002,3.317917e+000
8.407189e+002,2.703629e+000
8.416831e+002,9.452057e-001
8.426473e+002,-1.699524e-001
8.436116e+002,2.470093e-001
8.445758e+002,1.145065e+000
8.455400e+002,5.959778e-001
8.465043e+002,-8.528137e-002
8.474685e+002,1.476944e+000
8.484327e+002,5.669952e+000
8.493970e+002,1.033014e+001
8.503612e+002,1.159683e+001
8.513254e+002,8.695541e+000
8.522897e+002,6.854904e+000
8.532539e+002,6.065063e+000
8.542181e+002,5.974594e+000
8.551824e+002,6.863129e+000
8.561466e+002,8.713242e+000
8.571108e+002,1.020320e+001
8.580751e+002,9.997635e+000
8.590393e+002,1.016354e+001
8.600035e+002,1.180536e+001
8.609678e+002,1.414897e+001
8.619320e+002,1.662077e+001
8.628962e+002,1.884717e+001
8.638605e+002,2.011211e+001
8.648247e+002,1.828473e+001
8.657889e+002,1.498564e+001
8.667532e+002,1.405009e+001
8.677174e+002,1.597223e+001
8.686816e+002,1.872664e+001
8.696459e+002,2.010118e+001
8.706101e+002,2.003285e+001
8.715743e+002,1.948499e+001
8.725386e+002,1.759027e+001
8.735028e+002,1.637617e+001
8.744670e+002,1.649409e+001
8.754313e+002,1.740314e+001
8.763955e+002,1.833018e+001
8.773597e+002,1.927338e+001
8.783240e+002,1.962158e+001
8.792882e+002,1.840599e+001
8.802524e+002,1.670586e+001
8.812167e+002,1.499487e+001
8.821809e+002,1.372888e+001
8.831451e+002,1.381683e+001
8.841094e+002,1.663637e+001
8.850736e+002,2.208603e+001
8.860378e+002,2.523268e+001
8.870021e+002,2.558757e+001
8.879663e+002,2.550809e+001
8.889305e+002,2.639151e+001
8.898948e+002,2.788124e+001
8.908590e+002,2.830402e+001
8.918232e+002,2.697742e+001
8.927875e+002,2.569846e+001
8.937517e+002,2.467189e+001
8.947159e+002,2.397502e+001
8.956802e+002,2.367885e+001
8.966444e+002,2.366899e+001
8.976086e+002,2.355336e+001
8.985729e+002,2.276958e+001
8.995371e+002,2.217264e+001
9.005013e+002,2.314307e+001
9.014656e+002,2.551468e+001
9.024298e+002,2.820731e+001
9.033940e+002,3.040065e+001
9.043583e+002,3.192735e+001
9.053225e+002,3.235809e+001
9.062867e+002,3.050262e+001
9.072510e+002,2.880605e+001
9.082152e+002,2.709903e+001
9.091794e+002,2.603912e+001
9.101437e+002,2.667746e+001
9.111079e+002,2.919301e+001
9.120721e+002,3.114105e+001
9.130364e+002,3.019492e+001
9.140006e+002,2.873439e+001
9.149648e+002,2.806253e+001
9.159291e+002,2.819547e+001
9.168933e+002,2.886136e+001
9.178575e+002,2.977956e+001
9.188218e+002,3.054431e+001
9.197860e+002,2.966876e+001
9.207502e+002,2.702495e+001
9.217145e+002,2.524057e+001
9.226787e+002,2.520593e+001
9.236429e+002,2.617648e+001
9.246072e+002,2.728142e+001
9.255714e+002,2.860825e+001
9.265356e+002,2.904718e+001
9.274999e+002,2.749593e+001
9.284641e+002,2.591913e+001
9.294283e+002,2.510573e+001
9.303926e+002,2.482910e+001
9.313568e+002,2.444522e+001
9.323210e+002,2.359137e+001
9.332853e+002,2.271753e+001
9.342495e+002,2.288727e+001
9.352137e+002,2.343236e+001
9.361780e+002,2.350349e+001
9.371422e+002,2.300600e+001
9.381064e+002,2.199228e+001
9.390707e+002,2.022523e+001
9.400349e+002,1.719582e+001
9.409991e+002,1.593930e+001
9.419634e+002,1.773549e+001
9.429276e+002,1.932935e+001
9.438918e+002,1.975224e+001
9.448561e+002,1.953859e+001
9.458203e+002,1.971086e+001
9.467845e+002,2.068239e+001
9.477488e+002,2.160043e+001
9.487130e+002,2.135370e+001
9.496772e+002,2.105325e+001
9.506415e+002,2.198395e+001
9.516057e+002,2.388170e+001
9.525699e+002,2.522862e+001
9.535342e+002,2.450017e+001
9.544984e+002,2.197186e+001
9.554626e+002,2.053378e+001
9.564269e+002,2.049330e+001
9.573911e+002,2.064386e+001
9.583553e+002,2.043889e+001
9.593196e+002,2.026505e+001
9.602838e+002,2.089682e+001
9.612480e+002,2.256635e+001
9.622123e+002,2.398409e+001
9.631765e+002,2.534325e+001
9.641407e+002,2.593629e+001
9.651050e+002,2.479704e+001
9.660692e+002,2.258130e+001
9.670334e+002,2.072435e+001
9.679977e+002,2.019940e+001
9.689619e+002,2.047340e+001
9.699261e+002,2.006035e+001
9.708904e+002,1.917592e+001
9.718546e+002,1.880551e+001
9.728188e+002,1.911937e+001
9.737831e+002,1.993413e+001
9.747473e+002,2.115015e+001
9.757115e+002,2.290828e+001
9.766758e+002,2.456157e+001
9.776400e+002,2.592728e+001
9.786042e+002,2.763747e+001
9.795685e+002,3.071635e+001
9.805327e+002,3.364659e+001
9.814969e+002,3.440097e+001
9.824612e+002,3.238226e+001
9.834254e+002,2.931728e+001
9.843896e+002,2.603052e+001
9.853539e+002,2.284691e+001
9.863181e+002,2.018555e+001
9.872823e+002,1.798201e+001
9.882466e+002,1.601866e+001
9.892108e+002,1.423686e+001
9.901750e+002,1.288435e+001
9.911393e+002,1.254237e+001
9.921035e+002,1.330888e+001
9.930677e+002,1.430038e+001
9.940320e+002,1.594014e+001
9.949962e+002,1.771053e+001
9.959604e+002,1.898242e+001
9.969247e+002,1.977498e+001
9.978889e+002,2.101958e+001
9.988531e+002,2.370721e+001
9.998174e+002,2.580470e+001
1.000782e+003,2.555260e+001
1.001746e+003,2.437222e+001
1.002710e+003,2.465030e+001
1.003674e+003,2.719983e+001
1.004639e+003,3.014342e+001
1.005603e+003,2.999445e+001
1.006567e+003,2.634091e+001
1.007531e+003,2.500357e+001
1.008495e+003,2.719258e+001
1.009460e+003,2.920573e+001
1.010424e+003,2.859985e+001
1.011388e+003,2.603645e+001
1.012352e+003,2.405789e+001
1.013317e+003,2.304144e+001
1.014281e+003,2.231805e+001
1.015245e+003,2.166940e+001
1.016209e+003,2.102882e+001
1.017174e+003,2.055077e+001
1.018138e+003,2.011873e+001
1.019102e+003,1.936012e+001
1.020066e+003,1.798993e+001
1.021031e+003,1.621597e+001
1.021995e+003,1.411938e+001
1.022959e+003,1.168977e+001
1.023923e+003,9.912125e+000
1.024887e+003,9.351532e+000
1.025852e+003,9.104172e+000
1.026816e+003,7.501556e+000
1.027780e+003,4.059692e+000
1.028744e+003,2.074188e+000
1.029709e+003,2.588135e+000
1.030673e+003,3.572113e+000
1.031637e+003,4.798233e+000
1.032601e+003,5.918686e+000
1.033566e+003,6.775208e+000
1.034530e+003,7.325394e+000
1.035494e+003,7.084427e+000
1.036458e+003,4.579239e+000
1.037422e+003,1.415878e+000
1.038387e+003,5.509186e-001
1.039351e+003,1.864426e+000
1.040315e+003,3.506012e+000
1.041279e+003,4.170090e+000
1.042244e+003,4.114578e+000
1.043208e+003,4.368195e+000
1.044172e+003,5.265533e+000
1.045136e+003,5.601395e+000
1.046101e+003,5.220001e+000
1.047065e+003,4.579895e+000
1.048029e+003,3.516098e+000
1.048993e+003,2.345047e+000
1.049958e+003,2.269684e+000
1.050922e+003,4.350388e+000
1.051886e+003,6.619400e+000
1.052850e+003,7.045837e+000
1.053814e+003,6.415482e+000
1.054779e+003,5.285446e+000
1.055743e+003,3.969177e+000
1.056707e+003,3.302124e+000
1.057671e+003,4.416611e+000
1.058636e+003,7.303543e+000
1.059600e+003,8.156921e+000
1.060564e+003,4.979614e+000
1.061528e+003,3.101196e+000
1.062493e+003,3.740555e+000
1.063457e+003,5.416946e+000
1.064421e+003,6.933517e+000
1.065385e+003,8.156708e+000
1.066349e+003,8.532135e+000
1.067314e+003,7.185471e+000
1.068278e+003,5.576508e+000
1.069242e+003,4.581116e+000
1.070206e+003,4.160492e+000
1.071171e+003,4.208786e+000
1.072135e+003,4.586945e+000
1.073099e+003,5.091232e+000
1.074063e+003,5.491989e+000
1.075028e+003,5.842438e+000
1.075992e+003,5.963760e+000
1.076956e+003,6.002243e+000
1.077920e+003,5.451279e+000
1.078885e+003,3.511749e+000
1.079849e+003,1.245316e+000
1.080813e+003,7.383728e-001
1.081777e+003,2.604507e+000
1.082741e+003,4.457321e+000
1.083706e+003,4.752579e+000
1.084670e+003,4.740646e+000
1.085634e+003,5.247330e+000
1.086598e+003,5.952835e+000
1.087563e+003,6.039246e+000
1.088527e+003,5.161118e+000
1.089491e+003,4.061813e+000
1.090455e+003,4.147217e+000
1.091420e+003,5.486496e+000
1.092384e+003,5.241486e+000
1.093348e+003,2.356827e+000
1.094312e+003,-3.501282e-001
1.095276e+003,-1.209290e+000
1.096241e+003,-4.938965e-001
1.097205e+003,9.399414e-001
1.098169e+003,3.303223e+000
1.099133e+003,5.214539e+000
1.100098e+003,6.529083e+000
1.101062e+003,7.072784e+000
1.102026e+003,6.422607e+000
1.102990e+003,4.928162e+000
1.103955e+003,3.120438e+000
1.104919e+003,1.312088e+000
1.105883e+003,-2.041931e-001
1.106847e+003,-7.272491e-001
1.107812e+003,-2.066650e-001
1.108776e+003,8.879395e-001
1.109740e+003,2.778122e+000
1.110704e+003,4.754395e+000
1.111668e+003,6.668320e+000
1.112633e+003,8.445816e+000
1.113597e+003,9.262680e+000
1.114561e+003,8.470108e+000
1.115525e+003,7.781113e+000
1.116490e+003,7.723495e+000
1.117454e+003,7.894226e+000
1.118418e+003,8.179550e+000
1.119382e+003,8.597015e+000
1.120347e+003,9.273300e+000
1.121311e+003,1.018037e+001
1.122275e+003,1.071866e+001
1.123239e+003,9.887283e+000
1.124203e+003,7.915939e+000
1.125168e+003,5.804626e+000
1.126132e+003,3.227692e+000
1.127096e+003,1.647842e+000
1.128060e+003,2.510803e+000
1.129025e+003,5.297729e+000
1.129989e+003,7.767731e+000
1.130953e+003,9.683517e+000
1.131917e+003,1.135201e+001
1.132882e+003,1.338968e+001
1.133846e+003,1.486900e+001
1.134810e+003,1.473761e+001
1.135774e+003,1.363860e+001
1.136739e+003,1.309097e+001
1.137703e+003,1.393091e+001
1.138667e+003,1.534631e+001
1.139631e+003,1.576424e+001
1.140595e+003,1.542010e+001
1.141560e+003,1.633574e+001
1.142524e+003,1.867590e+001
1.143488e+003,2.237578e+001
1.144452e+003,2.833643e+001
1.145417e+003,3.561926e+001
1.146381e+003,4.035381e+001
1.147345e+003,4.080759e+001
1.148309e+003,4.305878e+001
1.149274e+003,4.993008e+001
1.150238e+003,5.757613e+001
1.151202e+003,6.421725e+001
1.152166e+003,7.023969e+001
1.153130e+003,7.691612e+001
1.154095e+003,8.464125e+001
1.155059e+003,9.206302e+001
1.156023e+003,9.769989e+001
1.156987e+003,1.013039e+002
1.157952e+003,1.023000e+002
1.158916e+003,1.007498e+002
1.159880e+003,9.788106e+001
1.160844e+003,9.394307e+001
1.161809e+003,8.877640e+001
1.162773e+003,8.224002e+001
1.163737e+003,7.403850e+001
1.164701e+003,6.586737e+001
1.165666e+003,5.721762e+001
1.166630e+003,4.989471e+001
1.167594e+003,4.498494e+001
1.168558e+003,4.161182e+001
1.169522e+003,3.875317e+001
1.170487e+003,3.599168e+001
1.171451e+003,3.344748e+001
1.172415e+003,3.120042e+001
1.173379e+003,2.926395e+001
1.174344e+003,2.771727e+001
1.175308e+003,2.648123e+001
1.176272e+003,2.632408e+001
1.177236e+003,2.869455e+001
1.178201e+003,3.143196e+001
1.179165e+003,3.140628e+001
1.180129e+003,2.849495e+001
1.181093e+003,2.581253e+001
1.182057e+003,2.401822e+001
1.183022e+003,2.264052e+001
1.183986e+003,2.148074e+001
1.184950e+003,2.061327e+001
1.185914e+003,2.015265e+001
1.186879e+003,2.011723e+001
1.187843e+003,2.040294e+001
1.188807e+003,2.088237e+001
1.189771e+003,2.164774e+001
1.190736e+003,2.344044e+001
1.191700e+003,2.649767e+001
1.192664e+003,2.763069e+001
1.193628e+003,2.567245e+001
1.194593e+003,2.306802e+001
1.195557e+003,2.141220e+001
1.196521e+003,2.046423e+001
1.197485e+003,1.947862e+001
1.198449e+003,1.841167e+001
1.199414e+003,1.718387e+001
1.200378e+003,1.531781e+001
1.201342e+003,1.369781e+001
1.202306e+003,1.278723e+001
1.203271e+003,1.253656e+001
1.204235e+003,1.313910e+001
1.205199e+003,1.452628e+001
1.206163e+003,1.548940e+001
1.207128e+003,1.377203e+001
1.208092e+003,9.172745e+000
1.209056e+003,7.036606e+000
1.210020e+003,8.647369e+000
1.210984e+003,9.708054e+000
1.211949e+003,8.671524e+000
1.212913e+003,6.583862e+000
1.213877e+003,4.807938e+000
1.214841e+003,3.466309e+000
1.215806e+003,1.842682e+000
1.216770e+003,-8.947754e-001
1.217734e+003,-3.122528e+000
1.218698e+003,-3.220703e+000
1.219663e+003,-2.659561e+000
1.220627e+003,-3.480942e+000
1.221591e+003,-5.802628e+000
1.222555e+003,-7.976730e+000
1.223520e+003,-8.440369e+000
1.224484e+003,-7.550583e+000
1.225448e+003,-7.257690e+000
1.226412e+003,-8.111633e+000
1.227376e+003,-8.380249e+000
1.228341e+003,-7.122360e+000
1.229305e+003,-6.426270e+000
1.230269e+003,-8.176010e+000
1.231233e+003,-1.109695e+001
1.232198e+003,-1.235893e+001
1.233162e+003,-1.111726e+001
1.234126e+003,-9.532394e+000
1.235090e+003,-9.074478e+000
1.236055e+003,-9.265747e+000
1.237019e+003,-9.621368e+000
1.237983e+003,-1.015242e+001
1.238947e+003,-1.099992e+001
1.239911e+003,-1.215704e+001
1.240876e+003,-1.302313e+001
1.241840e+003,-1.266203e+001
1.242804e+003,-1.097423e+001
1.243768e+003,-9.804825e+000
1.244733e+003,-1.017491e+001
1.245697e+003,-9.661804e+000
1.246661e+003,-6.995117e+000
1.247625e+003,-4.566620e+000
1.248590e+003,-4.304214e+000
1.249554e+003,-5.743179e+000
1.250518e+003,-7.276154e+000
1.251482e+003,-8.287506e+000
1.252447e+003,-8.862183e+000
1.253411e+003,-8.879044e+000
1.254375e+003,-8.438858e+000
1.255339e+003,-7.895493e+000
1.256303e+003,-7.210754e+000
1.257268e+003,-6.161255e+000
1.258232e+003,-4.505539e+000
1.259196e+003,-2.831482e+000
1.260160e+003,-2.200790e+000
1.261125e+003,-2.651703e+000
1.262089e+003,-3.334702e+000
1.263053e+003,-5.778397e+000
1.264017e+003,-6.531769e+000
1.264982e+003,-2.771133e+000
1.265946e+003,1.616241e+000
1.266910e+003,2.659760e+000
1.267874e+003,5.605316e-001
1.268839e+003,-1.635696e+000
1.269803e+003,-1.908173e+000
1.270767e+003,-1.264908e+000
1.271731e+003,-1.721222e+000
1.272695e+003,-3.159912e+000
1.273660e+003,-3.575241e+000
1.274624e+003,-2.535843e+000
1.275588e+003,-1.970444e+000
1.276552e+003,-3.136658e+000
1.277517e+003,-5.170761e+000
1.278481e+003,-6.705078e+000
1.279445e+003,-7.710632e+000
1.280409e+003,-8.111877e+000
1.281374e+003,-7.397675e+000
1.282338e+003,-6.659821e+000
1.283302e+003,-6.304367e+000
1.284266e+003,-6.356216e+000
1.285230e+003,-7.138321e+000
1.286195e+003,-8.431519e+000
1.287159e+003,-9.296875e+000
1.288123e+003,-8.912323e+000
1.289087e+003,-7.687500e+000
1.290052e+003,-7.104568e+000
1.291016e+003,-7.599106e+000
1.291980e+003,-7.421677e+000
1.292944e+003,-6.037155e+000
1.293909e+003,-4.924561e+000
1.294873e+003,-4.461304e+000
1.295837e+003,-4.530334e+000
1.296801e+003,-5.349136e+000
1.297766e+003,-6.801575e+000
1.298730e+003,-7.471664e+000
1.299694e+003,-6.222061e+000
1.300658e+003,-4.818710e+000
1.301622e+003,-5.481079e+000
1.302587e+003,-7.101776e+000
1.303551e+003,-7.927872e+000
1.304515e+003,-7.663269e+000
1.305479e+003,-7.307648e+000
1.306444e+003,-7.807999e+000
1.307408e+003,-8.773056e+000
1.308372e+003,-8.521530e+000
1.309336e+003,-6.259811e+000
1.310301e+003,-5.286850e+000
1.311265e+003,-7.163223e+000
1.312229e+003,-8.462143e+000
1.313193e+003,-7.632080e+000
1.314157e+003,-6.151321e+000
1.315122e+003,-5.911896e+000
1.316086e+003,-6.861557e+000
1.317050e+003,-6.955444e+000
1.318014e+003,-4.660629e+000
1.318979e+003,-2.111984e+000
1.319943e+003,-3.885391e+000
1.320907e+003,-9.252899e+000
1.321871e+003,-1.170277e+001
1.322836e+003,-1.044307e+001
1.323800e+003,-8.728882e+000
1.324764e+003,-8.307480e+000
1.325728e+003,-8.445953e+000
1.326693e+003,-7.869766e+000
1.327657e+003,-6.587692e+000
1.328621e+003,-5.557678e+000
1.329585e+003,-4.893112e+000
1.330549e+003,-4.153381e+000
1.331514e+003,-2.644531e+000
1.332478e+003,-1.714722e+000
1.333442e+003,-3.414566e+000
1.334406e+003,-6.873108e+000
1.335371e+003,-8.900406e+000
1.336335e+003,-7.627213e+000
1.337299e+003,-4.900650e+000
1.338263e+003,-4.344101e+000
1.339228e+003,-6.333633e+000
1.340192e+003,-6.885376e+000
1.341156e+003,-4.673431e+000
1.342120e+003,-3.089417e+000
1.343084e+003,-2.938751e+000
1.344049e+003,-3.475388e+000
1.345013e+003,-4.059952e+000
1.345977e+003,-4.644608e+000
1.346941e+003,-5.520279e+000
1.347906e+003,-6.825226e+000
1.348870e+003,-8.190842e+000
1.349834e+003,-9.621933e+000
1.350798e+003,-1.067163e+001
1.351763e+003,-1.023573e+001
1.352727e+003,-8.562637e+000
1.353691e+003,-7.335434e+000
1.354655e+003,-7.251785e+000
1.355620e+003,-7.429871e+000
1.356584e+003,-6.566940e+000
1.357548e+003,-4.837372e+000
1.358512e+003,-4.218048e+000
1.359476e+003,-5.269363e+000
1.360441e+003,-6.506714e+000
1.361405e+003,-8.022980e+000
1.362369e+003,-9.020111e+000
1.363333e+003,-8.836777e+000
1.364298e+003,-8.002319e+000
1.365262e+003,-7.188004e+000
1.366226e+003,-6.615189e+000
1.367190e+003,-6.202545e+000
1.368155e+003,-5.886765e+000
1.369119e+003,-5.537994e+000
1.370083e+003,-4.642776e+000
1.371047e+003,-2.714355e+000
1.372011e+003,-2.301544e+000
1.372976e+003,-5.214447e+000
1.373940e+003,-7.414047e+000
1.374904e+003,-6.972412e+000
1.375868e+003,-5.214050e+000
1.376833e+003,-3.486572e+000
1.377797e+003,-2.110260e+000
1.378761e+003,-1.656052e+000
1.379725e+003,-2.603821e+000
1.380690e+003,-3.668335e+000
1.381654e+003,-3.004166e+000
1.382618e+003,-1.854309e+000
1.383582e+003,-2.564499e+000
1.384547e+003,-4.832962e+000
1.385511e+003,-5.451096e+000
1.386475e+003,-2.406113e+000
1.387439e+003,1.460419e+000
1.388403e+003,1.306229e+000
1.389368e+003,-2.862244e+000
1.390332e+003,-5.063080e+000
1.391296e+003,-4.137543e+000
1.392260e+003,-3.079254e+000
1.393225e+003,-2.214249e+000
1.394189e+003,-1.832626e+000
1.395153e+003,-2.622910e+000
1.396117e+003,-3.777344e+000
1.397082e+003,-3.806915e+000
1.398046e+003,-2.540268e+000
1.399010e+003,-1.635696e+000
1.399974e+003,-2.729416e+000
1.400938e+003,-4.906616e+000
1.401903e+003,-4.793991e+000
1.402867e+003,-1.181442e+000
1.403831e+003,6.394653e-001
1.404795e+003,-8.829041e-001
1.405760e+003,-2.274872e+000
1.406724e+003,-2.353638e+000
1.407688e+003,-2.033859e+000
1.408652e+003,-2.229385e+000
1.409617e+003,-2.812393e+000
1.410581e+003,-3.139679e+000
1.411545e+003,-2.957123e+000
1.412509e+003,-2.503021e+000
1.413474e+003,-2.019531e+000
1.414438e+003,-1.570343e+000
1.415402e+003,-8.485107e-001
1.416366e+003,9.722900e-002
1.417330e+003,3.488312e-001
1.418295e+003,-6.248779e-001
1.419259e+003,-1.737442e+000
1.420223e+003,-1.730026e+000
1.421187e+003,-8.291168e-001
1.422152e+003,4.939270e-002
1.423116e+003,1.177139e+000
1.424080e+003,1.709976e+000
1.425044e+003,5.640106e-001
1.426009e+003,-5.331116e-001
1.426973e+003,-8.804779e-001
1.427937e+003,-7.849884e-001
1.428901e+003,-3.663788e-001
1.429865e+003,1.715546e-001
1.430830e+003,2.792664e-001
1.431794e+003,-4.422607e-001
1.432758e+003,-1.639313e+000
1.433722e+003,-2.511124e+000
1.434687e+003,-2.933777e+000
1.435651e+003,-2.665237e+000
1.436615e+003,-1.384384e+000
1.437579e+003,-6.068268e-001
1.438544e+003,-1.104034e+000
1.439508e+003,-1.396667e+000
1.440472e+003,-3.674316e-002
1.441436e+003,2.224762e+000
1.442401e+003,3.791321e+000
1.443365e+003,4.255264e+000
1.444329e+003,4.356125e+000
1.445293e+003,4.719894e+000
1.446257e+003,4.931290e+000
1.447222e+003,3.813034e+000
1.448186e+003,1.674072e+000
1.449150e+003,2.811127e-001
1.450114e+003,-3.059692e-001
1.451079e+003,4.559326e-002
1.452043e+003,2.438782e+000
1.453007e+003,5.234116e+000
1.453971e+003,5.874100e+000
1.454936e+003,4.559662e+000
1.455900e+003,3.406952e+000
1.456864e+003,2.961838e+000
1.457828e+003,2.510834e+000
1.458792e+003,1.096298e+000
1.459757e+003,-1.140137e-001
1.460721e+003,2.935333e-001
1.461685e+003,1.525482e+000
1.462649e+003,1.804382e+000
1.463614e+003,7.899628e-001
1.464578e+003,-1.214600e-001
1.465542e+003,3.655701e-001
1.466506e+003,1.583527e+000
1.467471e+003,1.578049e+000
1.468435e+003,1.348877e-001
1.469399e+003,-8.406525e-001
1.470363e+003,-1.532669e+000
1.471328e+003,-1.551178e+000
1.472292e+003,-1.839142e-001
1.473256e+003,1.062271e+000
1.474220e+003,1.040939e+000
1.475184e+003,3.148804e-001
1.476149e+003,-2.874756e-002
1.477113e+003,3.149567e-001
1.478077e+003,8.924866e-001
1.479041e+003,1.352509e+000
1.480006e+003,1.835037e+000
1.480970e+003,2.628281e+000
1.481934e+003,3.943176e+000
1.482898e+003,4.082306e+000
1.483863e+003,1.441299e+000
1.484827e+003,-3.878784e-002
1.485791e+003,1.534515e+000
1.486755e+003,4.130005e+000
1.487719e+003,6.275757e+000
1.488684e+003,7.651321e+000
1.489648e+003,7.835556e+000
1.490612e+003,6.814651e+000
1.491576e+003,6.156219e+000
1.492541e+003,7.148560e+000
1.493505e+003,9.167938e+000
1.494469e+003,1.131578e+001
1.495433e+003,1.333629e+001
1.496398e+003,1.388240e+001
1.497362e+003,1.234702e+001
1.498326e+003,1.135225e+001
1.499290e+003,1.226425e+001
1.500255e+003,1.443419e+001
1.501219e+003,1.736066e+001
1.502183e+003,2.078818e+001
1.503147e+003,2.350125e+001
1.504111e+003,2.502957e+001
1.505076e+003,2.689658e+001
1.506040e+003,3.015735e+001
1.507004e+003,3.404260e+001
1.507968e+003,3.724011e+001
1.508933e+003,4.055956e+001
1.509897e+003,4.607271e+001
1.510861e+003,5.419342e+001
1.511825e+003,6.257541e+001
1.512790e+003,6.944516e+001
1.513754e+003,7.548799e+001
1.514718e+003,8.204086e+001
1.515682e+003,8.900049e+001
1.516646e+003,9.658000e+001
1.517611e+003,1.053031e+002
1.518575e+003,1.137491e+002
1.519539e+003,1.228333e+002
1.520503e+003,1.303288e+002
1.521468e+003,1.347908e+002
1.522432e+003,1.369453e+002
1.523396e+003,1.374037e+002
1.524360e+003,1.366808e+002
1.525325e+003,1.360520e+002
1.526289e+003,1.363932e+002
1.527253e+003,1.360590e+002
1.528217e+003,1.317620e+002
1.529182e+003,1.235292e+002
1.530146e+003,1.168610e+002
1.531110e+003,1.139698e+002
1.532074e+003,1.082087e+002
1.533039e+003,9.732349e+001
1.534003e+003,8.539815e+001
1.534967e+003,7.312265e+001
1.535931e+003,6.198389e+001
1.536896e+003,5.437579e+001
1.537860e+003,4.935081e+001
1.538824e+003,4.264606e+001
1.539788e+003,3.225032e+001
1.540752e+003,2.208315e+001
1.541717e+003,1.736452e+001
1.542681e+003,1.741254e+001
1.543645e+003,1.734570e+001
1.544609e+003,1.767165e+001
1.545573e+003,1.674458e+001
1.546538e+003,1.335567e+001
1.547502e+003,1.003024e+001
1.548466e+003,7.071381e+000
1.549430e+003,5.361343e+000
1.550395e+003,6.590317e+000
1.551359e+003,9.592331e+000
1.552323e+003,1.102466e+001
1.553287e+003,9.814575e+000
1.554252e+003,8.184967e+000
1.555216e+003,8.071411e+000
1.556180e+003,8.814056e+000
1.557144e+003,8.947189e+000
1.558109e+003,8.481598e+000
1.559073e+003,7.878159e+000
1.560037e+003,6.883530e+000
1.561001e+003,5.957260e+000
1.561966e+003,5.608444e+000
1.562930e+003,5.345978e+000
1.563894e+003,4.024078e+000
1.564858e+003,2.447723e+000
1.565823e+003,3.228012e+000
1.566787e+003,6.645599e+000
1.567751e+003,8.971222e+000
1.568715e+003,7.887756e+000
1.569679e+003,5.692139e+000
1.570644e+003,5.186371e+000
1.571608e+003,5.732376e+000
1.572572e+003,5.373795e+000
1.573536e+003,4.089035e+000
1.574500e+003,4.008133e+000
1.575465e+003,6.634155e+000
1.576429e+003,9.297989e+000
1.577393e+003,9.492310e+000
1.578357e+003,8.293304e+000
1.579322e+003,7.914383e+000
1.580286e+003,8.483017e+000
1.581250e+003,8.796371e+000
1.582214e+003,8.299118e+000
1.583179e+003,8.228378e+000
1.584143e+003,1.008191e+001
1.585107e+003,1.220470e+001
1.586071e+003,1.231810e+001
1.587036e+003,1.110492e+001
1.588000e+003,1.032401e+001
1.588964e+003,1.028323e+001
1.589928e+003,1.037990e+001
1.590893e+003,1.015408e+001
1.591857e+003,9.946793e+000
1.592821e+003,1.068192e+001
1.593785e+003,1.203529e+001
1.594750e+003,1.163664e+001
1.595714e+003,8.740799e+000
1.596678e+003,6.764801e+000
1.597642e+003,7.351013e+000
1.598606e+003,8.911316e+000
1.599571e+003,1.093674e+001
1.600535e+003,1.273004e+001
1.601499e+003,1.307008e+001
1.602463e+003,1.212840e+001
1.603427e+003,1.124651e+001
1.604392e+003,1.096083e+001
1.605356e+003,1.097928e+001
1.606320e+003,1.122729e+001
1.607284e+003,1.148825e+001
1.608249e+003,1.081027e+001
1.609213e+003,9.131241e+000
1.610177e+003,8.781433e+000
1.611141e+003,1.079482e+001
1.612106e+003,1.253935e+001
1.613070e+003,1.278204e+001
1.614034e+003,1.219879e+001
1.614998e+003,1.064998e+001
1.615963e+003,8.862717e+000
1.616927e+003,8.005249e+000
1.617891e+003,8.193222e+000
1.618855e+003,8.757095e+000
1.619820e+003,9.278625e+000
1.620784e+003,9.779633e+000
1.621748e+003,1.044048e+001
1.622712e+003,1.139857e+001
1.623677e+003,1.288454e+001
1.624641e+003,1.524298e+001
1.625605e+003,1.608420e+001
1.626569e+003,1.368159e+001
1.627533e+003,1.117282e+001
1.628498e+003,9.681183e+000
1.629462e+003,9.297546e+000
1.630426e+003,1.114008e+001
1.631390e+003,1.383574e+001
1.632354e+003,1.412161e+001
1.633319e+003,1.148958e+001
1.634283e+003,9.332626e+000
1.635247e+003,1.036371e+001
1.636211e+003,1.259497e+001
1.637176e+003,1.217412e+001
1.638140e+003,9.391556e+000
1.639104e+003,8.089188e+000
1.640068e+003,8.627823e+000
1.641033e+003,9.478851e+000
1.641997e+003,1.054189e+001
1.642961e+003,1.157581e+001
1.643925e+003,1.258844e+001
1.644890e+003,1.340742e+001
1.645854e+003,1.387793e+001
1.646818e+003,1.397409e+001
1.647782e+003,1.346881e+001
1.648747e+003,1.238147e+001
1.649711e+003,1.189137e+001
1.650675e+003,1.331432e+001
1.651639e+003,1.539792e+001
1.652604e+003,1.514673e+001
1.653568e+003,1.261125e+001
1.654532e+003,1.074356e+001
1.655496e+003,9.655197e+000
1.656460e+003,9.415787e+000
1.657425e+003,1.078250e+001
1.658389e+003,1.211499e+001
1.659353e+003,1.253210e+001
1.660317e+003,1.245728e+001
1.661281e+003,1.227048e+001
1.662246e+003,1.198190e+001
1.663210e+003,1.155659e+001
1.664174e+003,1.101062e+001
1.665138e+003,1.020717e+001
1.666103e+003,8.743332e+000
1.667067e+003,7.266830e+000
1.668031e+003,7.558304e+000
1.668995e+003,9.447128e+000
1.669960e+003,9.881714e+000
1.670924e+003,8.286453e+000
1.671888e+003,6.872314e+000
1.672852e+003,6.089005e+000
1.673817e+003,5.871933e+000
1.674781e+003,6.631195e+000
1.675745e+003,7.541977e+000
1.676709e+003,7.721771e+000
1.677674e+003,7.225510e+000
1.678638e+003,6.262451e+000
1.679602e+003,4.920242e+000
1.680566e+003,4.183685e+000
1.681531e+003,5.161530e+000
1.682495e+003,6.861008e+000
1.683459e+003,7.423431e+000
1.684423e+003,6.986603e+000
1.685387e+003,6.921326e+000
1.686352e+003,7.498047e+000
1.687316e+003,7.360321e+000
1.688280e+003,5.494446e+000
1.689244e+003,3.903168e+000
1.690208e+003,4.483261e+000
1.691173e+003,5.798782e+000
1.692137e+003,6.408264e+000
1.693101e+003,6.501831e+000
1.694065e+003,6.832443e+000
1.695030e+003,7.523361e+000
1.695994e+003,7.467499e+000
1.696958e+003,5.436874e+000
1.697922e+003,3.093048e+000
1.698887e+003,2.716904e+000
1.699851e+003,3.709183e+000
1.700815e+003,4.296524e+000
1.701779e+003,4.263367e+000
1.702744e+003,3.384521e+000
1.703708e+003,1.313522e+000
1.704672e+003,-2.055359e-002
1.705636e+003,1.124771e+000
1.706601e+003,3.170181e+000
1.707565e+003,4.098206e+000
1.708529e+003,4.149307e+000
1.709493e+003,3.740265e+000
1.710458e+003,2.876877e+000
1.711422e+003,1.792206e+000
1.712386e+003,1.313782e-002
1.713350e+003,-1.123169e+000
1.714314e+003,-8.186340e-002
1.715279e+003,1.853943e+000
1.716243e+003,2.606598e+000
1.717207e+003,2.236664e+000
1.718171e+003,1.865875e+000
1.719135e+003,1.826508e+000
1.720100e+003,1.845093e+000
1.721064e+003,1.644943e+000
1.722028e+003,1.585297e+000
1.722992e+003,2.603531e+000
1.723957e+003,4.373886e+000
1.724921e+003,4.165421e+000
1.725885e+003,1.307678e+000
1.726849e+003,-2.211609e-001
1.727814e+003,1.489746e+000
1.728778e+003,3.225922e+000
1.729742e+003,3.682602e+000
1.730706e+003,3.418823e+000
1.731671e+003,2.471497e+000
1.732635e+003,1.255341e+000
1.733599e+003,9.758453e-001
1.734563e+003,1.665833e+000
1.735528e+003,1.626587e+000
1.736492e+003,-7.751465e-002
1.737456e+003,-1.983551e+000
1.738420e+003,-2.364410e+000
1.739385e+003,-1.590042e+000
1.740349e+003,-6.362610e-001
1.741313e+003,8.806305e-001
1.742277e+003,9.509735e-001
1.743241e+003,-1.712189e+000
1.744206e+003,-3.548203e+000
1.745170e+003,-3.661011e+000
1.746134e+003,-3.470779e+000
1.747098e+003,-3.428482e+000
1.748063e+003,-3.769257e+000
1.749027e+003,-5.265121e+000
1.749991e+003,-7.182205e+000
1.750955e+003,-7.553421e+000
1.751919e+003,-5.923569e+000
1.752884e+003,-3.976532e+000
1.753848e+003,-3.105743e+000
1.754812e+003,-2.864349e+000
1.755776e+003,-2.241913e+000
1.756741e+003,-1.192871e+000
1.757705e+003,-1.036453e+000
1.758669e+003,-2.284164e+000
1.759633e+003,-3.156891e+000
1.760598e+003,-3.640305e+000
1.761562e+003,-3.613770e+000
1.762526e+003,-2.462021e+000
1.763490e+003,-1.229156e+000
1.764455e+003,-2.015381e-001
1.765419e+003,2.159424e-001
1.766383e+003,-1.254745e+000
1.767347e+003,-4.104095e+000
1.768312e+003,-5.421402e+000
1.769276e+003,-3.839539e+000
1.770240e+003,-1.369354e+000
1.771204e+003,3.464508e-001
1.772168e+003,1.322723e+000
1.773133e+003,1.015274e+000
1.774097e+003,-3.785400e-001
1.775061e+003,-5.978699e-001
1.776025e+003,7.127686e-001
1.776990e+003,1.393173e+000
1.777954e+003,6.671295e-001
1.778918e+003,-3.955688e-001
1.779882e+003,-1.323898e+000
1.780846e+003,-2.100952e+000
1.781811e+003,-2.654694e+000
1.782775e+003,-2.943787e+000
1.783739e+003,-2.798004e+000
1.784703e+003,-2.107025e+000
1.785668e+003,-1.636398e+000
1.786632e+003,-2.188141e+000
1.787596e+003,-2.629990e+000
1.788560e+003,-1.898407e+000
1.789525e+003,-4.819641e-001
1.790489e+003,1.332245e+000
1.791453e+003,2.987671e+000
1.792417e+003,2.953629e+000
1.793382e+003,1.074677e+000
1.794346e+003,-1.051895e+000
1.795310e+003,-2.661484e+000
1.796274e+003,-3.412399e+000
1.797239e+003,-2.669647e+000
1.798203e+003,-9.649506e-001
1.799167e+003,-3.751068e-001
1.800131e+003,-1.267715e+000
1.801095e+003,-2.134674e+000
1.802060e+003,-3.251984e+000
1.803024e+003,-3.545670e+000
1.803988e+003,-2.390274e+000
1.804952e+003,-1.167877e+000
1.805917e+003,-3.186646e-001
1.806881e+003,9.852600e-002
1.807845e+003,-2.691498e-001
1.808809e+003,-8.824921e-001
1.809773e+003,-6.413574e-001
1.810738e+003,5.430298e-001
1.811702e+003,1.806870e+000
1.812666e+003,2.575668e+000
1.813630e+003,2.473877e+000
1.814595e+003,7.681274e-001
1.815559e+003,-1.955643e+000
1.816523e+003,-3.039841e+000
1.817487e+003,-2.297089e+000
1.818452e+003,-1.760818e+000
1.819416e+003,-1.615433e+000
1.820380e+003,-1.149582e+000
1.821344e+003,-4.898071e-003
1.822309e+003,1.084427e+000
1.823273e+003,2.149323e+000
1.824237e+003,2.735855e+000
1.825201e+003,1.919815e+000
1.826166e+003,2.169189e-001
1.827130e+003,-1.054337e+000
1.828094e+003,-1.680527e+000
1.829058e+003,-1.700531e+000
1.830022e+003,-8.753967e-001
1.830987e+003,1.634216e-001
1.831951e+003,1.067520e+000
1.832915e+003,1.744583e+000
1.833879e+003,2.152679e+000
1.834844e+003,2.191925e+000
1.835808e+003,1.257645e+000
1.836772e+003,-5.263062e-001
1.837736e+003,-1.333542e+000
1.838700e+003,-3.652039e-001
1.839665e+003,5.138397e-001
1.840629e+003,-4.848785e-001
1.841593e+003,-2.269379e+000
1.842557e+003,-2.529556e+000
1.843522e+003,-1.296494e+000
1.844486e+003,-6.126404e-001
1.845450e+003,-7.628326e-001
1.846414e+003,-6.946411e-001
1.847379e+003,-5.548248e-001
1.848343e+003,-2.985229e-001
1.849307e+003,4.556122e-001
1.850271e+003,1.053223e+000
1.851236e+003,8.434753e-001
1.852200e+003,3.906097e-001
1.853164e+003,6.077881e-001
1.854128e+003,1.203293e+000
1.855093e+003,7.547455e-001
1.856057e+003,-9.574280e-001
1.857021e+003,-1.491730e+000
1.857985e+003,1.426743e+000
1.858949e+003,5.205734e+000
1.859914e+003,4.729568e+000
1.860878e+003,1.055161e+000
1.861842e+003,4.636383e-001
1.862806e+003,3.050781e+000
1.863771e+003,4.270264e+000
1.864735e+003,3.090469e+000
1.865699e+003,1.644348e+000
1.866663e+003,8.145599e-001
1.867627e+003,2.398682e-001
1.868592e+003,-4.428406e-001
1.869556e+003,-1.233521e+000
1.870520e+003,-2.225586e+000
1.871484e+003,-3.274796e+000
1.872449e+003,-3.182816e+000
1.873413e+003,-1.224304e+000
1.874377e+003,5.350037e-001
1.875341e+003,8.354034e-001
1.876306e+003,1.228607e+000
1.877270e+003,3.529449e+000
1.878234e+003,5.356995e+000
1.879198e+003,3.246750e+000
1.880163e+003,-5.770721e-001
1.881127e+003,-1.786301e+000
1.882091e+003,-1.259003e-001
1.883055e+003,2.261368e+000
1.884020e+003,4.248169e+000
1.884984e+003,5.079971e+000
1.885948e+003,4.026459e+000
1.886912e+003,2.139206e+000
1.887876e+003,1.507736e+000
1.888841e+003,2.070724e+000
1.889805e+003,3.180069e+000
1.890769e+003,5.148926e+000
1.891733e+003,5.918182e+000
1.892698e+003,4.874664e+000
1.893662e+003,3.452423e+000
1.894626e+003,1.884872e+000
1.895590e+003,4.780579e-001
1.896554e+003,-1.057556e+000
1.897519e+003,-1.886673e+000
1.898483e+003,-4.380798e-001
1.899447e+003,2.462448e+000
1.900411e+003,4.336563e+000
1.901376e+003,4.823166e+000
1.902340e+003,4.120087e+000
1.903304e+003,9.118500e-001
1.904268e+003,-1.312485e+000
1.905233e+003,8.945465e-001
1.906197e+003,3.925247e+000
1.907161e+003,3.496658e+000
1.908125e+003,1.466980e+000
1.909090e+003,1.644119e+000
1.910054e+003,3.875641e+000
1.911018e+003,5.741531e+000
1.911982e+003,6.370544e+000
1.912947e+003,6.003006e+000
1.913911e+003,4.788132e+000
1.914875e+003,3.559082e+000
1.915839e+003,3.685547e+000
1.916803e+003,4.694733e+000
1.917768e+003,4.284485e+000
1.918732e+003,2.056244e+000
1.919696e+003,1.599365e+000
1.920660e+003,3.882233e+000
1.921625e+003,5.430222e+000
1.922589e+003,4.873825e+000
1.923553e+003,4.351639e+000
1.924517e+003,5.799103e+000
1.925481e+003,7.051971e+000
1.926446e+003,5.290741e+000
1.927410e+003,2.313034e+000
1.928374e+003,1.968521e+000
1.929338e+003,4.256866e+000
1.930303e+003,5.901169e+000
1.931267e+003,6.212402e+000
1.932231e+003,5.908737e+000
1.933195e+003,4.185059e+000
1.934160e+003,3.074585e+000
1.935124e+003,5.078354e+000
1.936088e+003,7.657791e+000
1.937052e+003,7.649643e+000
1.938017e+003,5.810913e+000
1.938981e+003,3.969864e+000
1.939945e+003,2.680878e+000
1.940909e+003,2.155930e+000
1.941874e+003,2.398407e+000
1.942838e+003,2.775635e+000
1.943802e+003,2.761139e+000
1.944766e+003,2.744217e+000
1.945730e+003,3.425049e+000
1.946695e+003,4.609528e+000
1.947659e+003,5.087891e+000
1.948623e+003,4.741516e+000
1.949587e+003,4.923386e+000
1.950552e+003,6.118881e+000
1.951516e+003,6.550812e+000
1.952480e+003,5.181808e+000
1.953444e+003,3.860123e+000
1.954408e+003,3.831757e+000
1.955373e+003,4.484772e+000
1.956337e+003,5.160461e+000
1.957301e+003,5.969299e+000
1.958265e+003,7.155914e+000
1.959230e+003,8.869888e+000
1.960194e+003,9.781998e+000
1.961158e+003,9.045639e+000
1.962122e+003,8.204346e+000
1.963087e+003,7.537811e+000
1.964051e+003,7.053253e+000
1.965015e+003,7.024231e+000
1.965979e+003,7.109268e+000
1.966944e+003,6.783920e+000
1.967908e+003,6.222473e+000
1.968872e+003,5.942230e+000
1.969836e+003,5.959290e+000
1.970801e+003,5.796829e+000
1.971765e+003,5.281464e+000
1.972729e+003,4.840912e+000
1.973693e+003,4.727020e+000
1.974657e+003,5.169235e+000
1.975622e+003,7.087570e+000
1.976586e+003,9.570389e+000
1.977550e+003,9.929184e+000
1.978514e+003,8.570923e+000
1.979479e+003,7.983673e+000
1.980443e+003,8.476425e+000
1.981407e+003,8.953110e+000
1.982371e+003,9.070984e+000
1.983335e+003,8.418518e+000
1.984300e+003,6.424591e+000
1.985264e+003,4.513901e+000
1.986228e+003,5.163940e+000
1.987192e+003,7.637268e+000
1.988157e+003,7.959991e+000
1.989121e+003,5.367767e+000
1.990085e+003,4.862991e+000
1.991049e+003,8.255844e+000
1.992014e+003,1.016473e+001
1.992978e+003,8.220459e+000
1.993942e+003,6.983963e+000
1.994906e+003,9.030579e+000
1.995871e+003,1.128409e+001
1.996835e+003,1.148787e+001
1.997799e+003,1.052693e+001
1.998763e+003,9.450531e+000
1.999728e+003,8.454514e+000
