5.003444e+002,3.099628e+001
5.013087e+002,3.183524e+001
5.022729e+002,3.109612e+001
5.032371e+002,2.947174e+001
5.042014e+002,2.898569e+001
5.051656e+002,2.947862e+001
5.061298e+002,2.994031e+001
5.070941e+002,2.935698e+001
5.080583e+002,2.729628e+001
5.090225e+002,2.621240e+001
5.099868e+002,2.636363e+001
5.109510e+002,2.684253e+001
5.119152e+002,2.738211e+001
5.128795e+002,2.800194e+001
5.138437e+002,2.823151e+001
5.148079e+002,2.774310e+001
5.157722e+002,2.707631e+001
5.167364e+002,2.666940e+001
5.177006e+002,2.633887e+001
5.186649e+002,2.518047e+001
5.196291e+002,2.089304e+001
5.205933e+002,1.632559e+001
5.215576e+002,1.472630e+001
5.225218e+002,1.618570e+001
5.234860e+002,1.933488e+001
5.244503e+002,2.199138e+001
5.254145e+002,2.436472e+001
5.263787e+002,2.459282e+001
5.273430e+002,2.089932e+001
5.283072e+002,1.625861e+001
5.292714e+002,1.506432e+001
5.302357e+002,1.963840e+001
5.311999e+002,2.221219e+001
5.321641e+002,2.081569e+001
5.331284e+002,1.856979e+001
5.340926e+002,1.808218e+001
5.350568e+002,2.035826e+001
5.360211e+002,2.235632e+001
5.369853e+002,2.096347e+001
5.379495e+002,1.849397e+001
5.389138e+002,1.668008e+001
5.398780e+002,1.618224e+001
5.408422e+002,1.639507e+001
5.418065e+002,1.547498e+001
5.427707e+002,1.367635e+001
5.437349e+002,1.321594e+001
5.446992e+002,1.508743e+001
5.456634e+002,1.839058e+001
5.466276e+002,1.999445e+001
5.475919e+002,1.798969e+001
5.485561e+002,1.656914e+001
5.495203e+002,1.630090e+001
5.504846e+002,1.644962e+001
5.514488e+002,1.599498e+001
5.524130e+002,1.453836e+001
5.533773e+002,1.274321e+001
5.543415e+002,1.031752e+001
5.553057e+002,8.124634e+000
5.562700e+002,7.147934e+000
5.572342e+002,7.960129e+000
5.581984e+002,9.794067e+000
5.591627e+002,1.130565e+001
5.601269e+002,1.253181e+001
5.610911e+002,1.310051e+001
5.620554e+002,1.272583e+001
5.630196e+002,1.148703e+001
5.639838e+002,1.061409e+001
5.649481e+002,1.032698e+001
5.659123e+002,1.009435e+001
5.668765e+002,1.032913e+001
5.678408e+002,1.078481e+001
5.688050e+002,1.041316e+001
5.697692e+002,7.604507e+000
5.707335e+002,5.388626e+000
5.716977e+002,4.845474e+000
5.726619e+002,5.450150e+000
5.736262e+002,6.677200e+000
5.745904e+002,8.383881e+000
5.755546e+002,9.808197e+000
5.765189e+002,9.508713e+000
5.774831e+002,8.027969e+000
5.784473e+002,6.383453e+000
5.794116e+002,5.333588e+000
5.803758e+002,4.918869e+000
5.813400e+002,4.508118e+000
5.823043e+002,3.726532e+000
5.832685e+002,3.285202e+000
5.842327e+002,4.034836e+000
5.851970e+002,5.761169e+000
5.861612e+002,6.428665e+000
5.871254e+002,3.912491e+000
5.880897e+002,2.135315e+000
5.890539e+002,2.476212e+000
5.900181e+002,3.854492e+000
5.909824e+002,4.281067e+000
5.919466e+002,2.112411e+000
5.929108e+002,-2.858124e-001
5.938751e+002,-3.864899e-001
5.948393e+002,9.602509e-001
5.958035e+002,2.576584e+000
5.967678e+002,3.615524e+000
5.977320e+002,4.205368e+000
5.986962e+002,4.953751e+000
5.996605e+002,5.727798e+000
6.006247e+002,6.289459e+000
6.015889e+002,6.695419e+000
6.025532e+002,6.923477e+000
6.035174e+002,6.443054e+000
6.044816e+002,4.455032e+000
6.054459e+002,2.598022e+000
6.064101e+002,4.458008e-001
6.073743e+002,-1.326889e+000
6.083386e+002,-1.213974e+000
6.093028e+002,2.857819e+000
6.102670e+002,6.366394e+000
6.112313e+002,5.029922e+000
6.121955e+002,1.372284e+000
6.131597e+002,-1.252670e+000
6.141240e+002,-5.704803e-001
6.150882e+002,2.424179e+000
6.160524e+002,3.484894e+000
6.170167e+002,3.028198e+000
6.179809e+002,2.856934e+000
6.189451e+002,3.970367e+000
6.199094e+002,5.994080e+000
6.208736e+002,6.550629e+000
6.218378e+002,4.207275e+000
6.228021e+002,2.202484e+000
6.237663e+002,7.707977e-001
6.247305e+002,-1.057281e-001
6.256948e+002,-5.264282e-001
6.266590e+002,-5.211029e-001
6.276232e+002,-3.584595e-001
6.285875e+002,9.542847e-002
6.295517e+002,6.109314e-001
6.305159e+002,9.584961e-001
6.314802e+002,9.571991e-001
6.324444e+002,5.191803e-001
6.334086e+002,-1.194290e+000
6.343729e+002,-3.463623e+000
6.353371e+002,-3.990768e+000
6.363013e+002,-1.716827e+000
6.372656e+002,2.404694e+000
6.382298e+002,5.116119e+000
6.391940e+002,6.301041e+000
6.401583e+002,5.627335e+000
6.411225e+002,1.423523e+000
6.420867e+002,-3.486572e+000
6.430510e+002,-5.448975e+000
6.440152e+002,-2.598755e+000
6.449794e+002,-4.628601e-001
6.459437e+002,-3.631271e+000
6.469079e+002,-7.396713e+000
6.478721e+002,-7.200806e+000
6.488364e+002,-1.921753e+000
6.498006e+002,4.554321e+000
6.507648e+002,4.557312e+000
6.517291e+002,3.274231e-001
6.526933e+002,-2.777435e+000
6.536575e+002,-3.768494e+000
6.546218e+002,-3.385925e+000
6.555860e+002,-2.990707e+000
6.565502e+002,-2.312195e+000
6.575145e+002,-2.396576e+000
6.584787e+002,-3.844070e+000
6.594429e+002,-5.448181e+000
6.604072e+002,-6.426865e+000
6.613714e+002,-6.698715e+000
6.623356e+002,-6.063278e+000
6.632999e+002,-3.191055e+000
6.642641e+002,-6.323242e-001
6.652283e+002,8.302307e-002
6.661926e+002,-8.708954e-001
6.671568e+002,-2.079681e+000
6.681210e+002,-1.884323e+000
6.690853e+002,-8.984070e-001
6.700495e+002,-9.273529e-001
6.710137e+002,-1.897812e+000
6.719780e+002,-2.411835e+000
6.729422e+002,-7.901611e-001
6.739064e+002,3.705780e+000
6.748707e+002,5.357376e+000
6.758349e+002,2.475098e+000
6.767991e+002,-4.583130e-001
6.777634e+002,-1.417297e+000
6.787276e+002,-5.003815e-001
6.796918e+002,5.455933e-001
6.806561e+002,1.599152e+000
6.816203e+002,1.746292e+000
6.825845e+002,-4.341431e-001
6.835488e+002,-3.525421e+000
6.845130e+002,-5.158234e+000
6.854772e+002,-3.426773e+000
6.864415e+002,1.948090e-001
6.874057e+002,2.364609e+000
6.883699e+002,3.247559e+000
6.893342e+002,3.324417e+000
6.902984e+002,2.834396e+000
6.912626e+002,1.923187e+000
6.922269e+002,1.303467e+000
6.931911e+002,1.700882e+000
6.941553e+002,1.776627e+000
6.951196e+002,1.111984e+000
6.960838e+002,-6.552124e-002
6.970480e+002,-1.524948e+000
6.980123e+002,-3.736237e+000
6.989765e+002,-4.562439e+000
6.999407e+002,-2.244171e+000
7.009050e+002,7.596741e-001
7.018692e+002,2.434174e+000
7.028334e+002,2.129822e+000
7.037977e+002,9.721069e-001
7.047619e+002,8.645630e-001
7.057261e+002,1.321625e+000
7.066904e+002,8.944092e-001
7.076546e+002,-6.492310e-001
7.086188e+002,-2.296585e+000
7.095831e+002,-2.342484e+000
7.105473e+002,7.357788e-002
7.115115e+002,1.092148e+000
7.124758e+002,-2.969818e-001
7.134400e+002,-1.859848e+000
7.144042e+002,-2.167145e+000
7.153685e+002,-1.126495e+000
7.163327e+002,2.085876e-002
7.172969e+002,8.203125e-001
7.182612e+002,1.556519e+000
7.192254e+002,2.366760e+000
7.201896e+002,3.125687e+000
7.211539e+002,3.654251e+000
7.221181e+002,3.842499e+000
7.230823e+002,3.602661e+000
7.240466e+002,2.469131e+000
7.250108e+002,8.183289e-001
7.259750e+002,-1.027679e-001
7.269393e+002,4.546967e-001
7.279035e+002,2.077484e+000
7.288677e+002,2.468002e+000
7.298320e+002,-2.182007e-003
7.307962e+002,-1.102478e+000
7.317604e+002,4.361115e-001
7.327247e+002,3.138931e+000
7.336889e+002,4.934921e+000
7.346531e+002,5.072891e+000
7.356174e+002,4.134308e+000
7.365816e+002,1.993607e+000
7.375458e+002,-7.450867e-002
7.385101e+002,-1.155838e+000
7.394743e+002,-1.005844e+000
7.404385e+002,4.939270e-002
7.414028e+002,1.829071e+000
7.423670e+002,3.687088e+000
7.433312e+002,4.034042e+000
7.442955e+002,2.866409e+000
7.452597e+002,1.294647e+000
7.462239e+002,4.000397e-001
7.471882e+002,2.072754e-001
7.481524e+002,4.069519e-001
7.491166e+002,1.232101e+000
7.500809e+002,1.730255e+000
7.510451e+002,1.536758e+000
7.520093e+002,7.232513e-001
7.529736e+002,-4.823151e-001
7.539378e+002,-2.505417e+000
7.549020e+002,-3.616455e+000
7.558663e+002,-2.148911e+000
7.568306e+002,5.037994e-001
7.577948e+002,2.260315e+000
7.587590e+002,1.884918e+000
7.597233e+002,2.951050e-001
7.606875e+002,8.113861e-001
7.616517e+002,3.219864e+000
7.626160e+002,4.792007e+000
7.635802e+002,4.610458e+000
7.645444e+002,3.525787e+000
7.655087e+002,3.313385e+000
7.664729e+002,4.523331e+000
7.674371e+002,5.331161e+000
7.684014e+002,5.956879e+000
7.693656e+002,5.933472e+000
7.703298e+002,4.312592e+000
7.712941e+002,1.329285e+000
7.722583e+002,-5.709534e-001
7.732225e+002,1.853775e+000
7.741868e+002,4.686295e+000
7.751510e+002,4.449127e+000
7.761152e+002,1.930252e+000
7.770795e+002,-5.493622e-001
7.780437e+002,-9.610901e-001
7.790079e+002,4.214172e-001
7.799722e+002,1.881516e+000
7.809364e+002,3.586670e+000
7.819006e+002,4.537781e+000
7.828649e+002,3.942291e+000
7.838291e+002,2.418488e+000
7.847933e+002,1.957230e+000
7.857576e+002,3.737778e+000
7.867218e+002,4.165543e+000
7.876860e+002,1.345535e+000
7.886503e+002,-1.723694e+000
7.896145e+002,-2.190735e+000
7.905787e+002,5.345001e-001
7.915430e+002,3.716019e+000
7.925072e+002,3.952148e+000
7.934714e+002,3.076263e+000
7.944357e+002,3.379257e+000
7.953999e+002,4.964203e+000
7.963641e+002,6.663681e+000
7.973284e+002,7.093933e+000
7.982926e+002,6.146179e+000
7.992568e+002,6.017303e+000
8.002211e+002,7.150635e+000
8.011853e+002,7.558365e+000
8.021495e+002,6.220184e+000
8.031138e+002,3.893539e+000
8.040780e+002,2.709702e+000
8.050422e+002,3.389359e+000
8.060065e+002,4.365540e+000
8.069707e+002,5.713440e+000
8.079349e+002,6.564819e+000
8.088992e+002,5.762558e+000
8.098634e+002,3.143555e+000
8.108276e+002,3.343658e-001
8.117919e+002,-2.546997e-001
8.127561e+002,3.300476e-001
8.137203e+002,2.241669e-001
8.146846e+002,-6.159668e-001
8.156488e+002,-9.477081e-001
8.166130e+002,9.453735e-001
8.175773e+002,5.915817e+000
8.185415e+002,7.608078e+000
8.195057e+002,2.905746e+000
8.204700e+002,-8.551788e-001
8.214342e+002,-7.353058e-001
8.223984e+002,2.204147e+000
8.233627e+002,5.121124e+000
8.243269e+002,7.748093e+000
8.252911e+002,8.812485e+000
8.262554e+002,6.547089e+000
8.272196e+002,3.378784e+000
8.281838e+002,1.917236e+000
8.291481e+002,3.008347e+000
8.301123e+002,5.292969e+000
8.310765e+002,6.471848e+000
8.320408e+002,6.546738e+000
8.330050e+002,6.819626e+000
8.339692e+002,7.601929e+000
8.349335e+002,7.925842e+000
8.358977e+002,6.254135e+000
8.368619e+002,2.067093e+000
8.378262e+002,3.492889e-001
8.387904e+002,3.685730e+000
8.397546e+002,6.454712e+000
8.407189e+002,7.188904e+000
8.416831e+002,6.470749e+000
8.426473e+002,5.254974e+000
8.436116e+002,3.701492e+000
8.445758e+002,2.983704e+000
8.455400e+002,4.806534e+000
8.465043e+002,7.553955e+000
8.474685e+002,9.995636e+000
8.484327e+002,1.169164e+001
8.493970e+002,1.227016e+001
8.503612e+002,1.077083e+001
8.513254e+002,6.470642e+000
8.522897e+002,5.637650e+000
8.532539e+002,1.048712e+001
8.542181e+002,1.528404e+001
8.551824e+002,1.664278e+001
8.561466e+002,1.506831e+001
8.571108e+002,1.366939e+001
8.580751e+002,1.266396e+001
8.590393e+002,1.174197e+001
8.600035e+002,1.055827e+001
8.609678e+002,9.757050e+000
8.619320e+002,1.026637e+001
8.628962e+002,1.234418e+001
8.638605e+002,1.488341e+001
8.648247e+002,1.642868e+001
8.657889e+002,1.705130e+001
8.667532e+002,1.662083e+001
8.677174e+002,1.512526e+001
8.686816e+002,1.369908e+001
8.696459e+002,1.381232e+001
8.706101e+002,1.587602e+001
8.715743e+002,1.692020e+001
8.725386e+002,1.582999e+001
8.735028e+002,1.526382e+001
8.744670e+002,1.606535e+001
8.754313e+002,1.760323e+001
8.763955e+002,1.884450e+001
8.773597e+002,1.957303e+001
8.783240e+002,1.983694e+001
8.792882e+002,1.907758e+001
8.802524e+002,1.819635e+001
8.812167e+002,1.817996e+001
8.821809e+002,1.909666e+001
8.831451e+002,2.027432e+001
8.841094e+002,2.091412e+001
8.850736e+002,2.104282e+001
8.860378e+002,2.008566e+001
8.870021e+002,1.743684e+001
8.879663e+002,1.556885e+001
8.889305e+002,1.627980e+001
8.898948e+002,1.897696e+001
8.908590e+002,2.084386e+001
8.918232e+002,2.169698e+001
8.927875e+002,2.181523e+001
8.937517e+002,2.018491e+001
8.947159e+002,1.871971e+001
8.956802e+002,1.944249e+001
8.966444e+002,2.238223e+001
8.976086e+002,2.505586e+001
8.985729e+002,2.477098e+001
8.995371e+002,2.308716e+001
9.005013e+002,2.264653e+001
9.014656e+002,2.337480e+001
9.024298e+002,2.412901e+001
9.033940e+002,2.389731e+001
9.043583e+002,2.283012e+001
9.053225e+002,2.300240e+001
9.062867e+002,2.581189e+001
9.072510e+002,2.790317e+001
9.082152e+002,2.947852e+001
9.091794e+002,3.041530e+001
9.101437e+002,3.036240e+001
9.111079e+002,2.923758e+001
9.120721e+002,2.794516e+001
9.130364e+002,2.643532e+001
9.140006e+002,2.518791e+001
9.149648e+002,2.468767e+001
9.159291e+002,2.486436e+001
9.168933e+002,2.544316e+001
9.178575e+002,2.615842e+001
9.188218e+002,2.687932e+001
9.197860e+002,2.745830e+001
9.207502e+002,2.787862e+001
9.217145e+002,2.740666e+001
9.226787e+002,2.550891e+001
9.236429e+002,2.334367e+001
9.246072e+002,2.243294e+001
9.255714e+002,2.291734e+001
9.265356e+002,2.335773e+001
9.274999e+002,2.363168e+001
9.284641e+002,2.358499e+001
9.294283e+002,2.310754e+001
9.303926e+002,2.238150e+001
9.313568e+002,2.155464e+001
9.323210e+002,2.065816e+001
9.332853e+002,2.001578e+001
9.342495e+002,2.051460e+001
9.352137e+002,2.152557e+001
9.361780e+002,2.242111e+001
9.371422e+002,2.313869e+001
9.381064e+002,2.332307e+001
9.390707e+002,2.221178e+001
9.400349e+002,1.929208e+001
9.409991e+002,1.760220e+001
9.419634e+002,1.749043e+001
9.429276e+002,1.788771e+001
9.438918e+002,1.921397e+001
9.448561e+002,2.070999e+001
9.458203e+002,2.090584e+001
9.467845e+002,1.913370e+001
9.477488e+002,1.762285e+001
9.487130e+002,1.856805e+001
9.496772e+002,2.004114e+001
9.506415e+002,2.048540e+001
9.516057e+002,1.987793e+001
9.525699e+002,1.920552e+001
9.535342e+002,1.943706e+001
9.544984e+002,2.030316e+001
9.554626e+002,1.960612e+001
9.564269e+002,1.693858e+001
9.573911e+002,1.565311e+001
9.583553e+002,1.774121e+001
9.593196e+002,2.116632e+001
9.602838e+002,2.249986e+001
9.612480e+002,2.110149e+001
9.622123e+002,1.954176e+001
9.631765e+002,1.815538e+001
9.641407e+002,1.726399e+001
9.651050e+002,1.723293e+001
9.660692e+002,1.771614e+001
9.670334e+002,1.821611e+001
9.679977e+002,1.851155e+001
9.689619e+002,1.858752e+001
9.699261e+002,1.768782e+001
9.708904e+002,1.617032e+001
9.718546e+002,1.552850e+001
9.728188e+002,1.611446e+001
9.737831e+002,1.729698e+001
9.747473e+002,1.829503e+001
9.757115e+002,1.906393e+001
9.766758e+002,2.015178e+001
9.776400e+002,2.224936e+001
9.786042e+002,2.404250e+001
9.795685e+002,2.533472e+001
9.805327e+002,2.590005e+001
9.814969e+002,2.545389e+001
9.824612e+002,2.397899e+001
9.834254e+002,2.221350e+001
9.843896e+002,2.033206e+001
9.853539e+002,1.864952e+001
9.863181e+002,1.787526e+001
9.872823e+002,1.773544e+001
9.882466e+002,1.704852e+001
9.892108e+002,1.487102e+001
9.901750e+002,1.184290e+001
9.911393e+002,1.147223e+001
9.921035e+002,1.572066e+001
9.930677e+002,1.883102e+001
9.940320e+002,2.032513e+001
9.949962e+002,2.107840e+001
9.959604e+002,2.162656e+001
9.969247e+002,2.208800e+001
9.978889e+002,2.294707e+001
9.988531e+002,2.481380e+001
9.998174e+002,2.622485e+001
1.000782e+003,2.565450e+001
1.001746e+003,2.453606e+001
1.002710e+003,2.522192e+001
1.003674e+003,2.851999e+001
1.004639e+003,3.274832e+001
1.005603e+003,3.501146e+001
1.006567e+003,3.501987e+001
1.007531e+003,3.391017e+001
1.008495e+003,3.109930e+001
1.009460e+003,2.843013e+001
1.010424e+003,2.689636e+001
1.011388e+003,2.643364e+001
1.012352e+003,2.688506e+001
1.013317e+003,2.907916e+001
1.014281e+003,3.023911e+001
1.015245e+003,2.909291e+001
1.016209e+003,2.711049e+001
1.017174e+003,2.534767e+001
1.018138e+003,2.391151e+001
1.019102e+003,2.216005e+001
1.020066e+003,1.950729e+001
1.021031e+003,1.658865e+001
1.021995e+003,1.526540e+001
1.022959e+003,1.506062e+001
1.023923e+003,1.433940e+001
1.024887e+003,1.229018e+001
1.025852e+003,9.911331e+000
1.026816e+003,9.072006e+000
1.027780e+003,1.040242e+001
1.028744e+003,1.076700e+001
1.029709e+003,9.346573e+000
1.030673e+003,7.573227e+000
1.031637e+003,5.312088e+000
1.032601e+003,3.090240e+000
1.033566e+003,1.703476e+000
1.034530e+003,1.441208e+000
1.035494e+003,1.581009e+000
1.036458e+003,1.057907e+000
1.037422e+003,5.365906e-001
1.038387e+003,1.438583e+000
1.039351e+003,3.603790e+000
1.040315e+003,5.577072e+000
1.041279e+003,6.291718e+000
1.042244e+003,6.068085e+000
1.043208e+003,6.253387e+000
1.044172e+003,7.372559e+000
1.045136e+003,7.684799e+000
1.046101e+003,6.775787e+000
1.047065e+003,5.621887e+000
1.048029e+003,4.770523e+000
1.048993e+003,4.174728e+000
1.049958e+003,3.417160e+000
1.050922e+003,2.100311e+000
1.051886e+003,1.338562e+000
1.052850e+003,2.743454e+000
1.053814e+003,5.036224e+000
1.054779e+003,6.548508e+000
1.055743e+003,6.931610e+000
1.056707e+003,7.034454e+000
1.057671e+003,7.949539e+000
1.058636e+003,9.659454e+000
1.059600e+003,9.801697e+000
1.060564e+003,6.608948e+000
1.061528e+003,4.810989e+000
1.062493e+003,5.826965e+000
1.063457e+003,7.766769e+000
1.064421e+003,8.736511e+000
1.065385e+003,8.563263e+000
1.066349e+003,8.070923e+000
1.067314e+003,7.623428e+000
1.068278e+003,7.011917e+000
1.069242e+003,5.724808e+000
1.070206e+003,4.369232e+000
1.071171e+003,4.112625e+000
1.072135e+003,5.237152e+000
1.073099e+003,6.457611e+000
1.074063e+003,5.615097e+000
1.075028e+003,2.455078e+000
1.075992e+003,1.231003e+000
1.076956e+003,2.810410e+000
1.077920e+003,4.268219e+000
1.078885e+003,4.482986e+000
1.079849e+003,4.074036e+000
1.080813e+003,4.123459e+000
1.081777e+003,4.866669e+000
1.082741e+003,5.656265e+000
1.083706e+003,6.369812e+000
1.084670e+003,6.585358e+000
1.085634e+003,5.685684e+000
1.086598e+003,4.153214e+000
1.087563e+003,3.017059e+000
1.088527e+003,2.867401e+000
1.089491e+003,3.130157e+000
1.090455e+003,2.375885e+000
1.091420e+003,3.590240e-001
1.092384e+003,-2.310028e-001
1.093348e+003,1.161026e+000
1.094312e+003,2.732391e+000
1.095276e+003,3.724152e+000
1.096241e+003,4.235504e+000
1.097205e+003,4.230072e+000
1.098169e+003,3.378174e+000
1.099133e+003,2.659653e+000
1.100098e+003,2.654556e+000
1.101062e+003,2.803360e+000
1.102026e+003,2.652374e+000
1.102990e+003,2.382477e+000
1.103955e+003,2.551590e+000
1.104919e+003,3.461426e+000
1.105883e+003,4.567459e+000
1.106847e+003,4.597687e+000
1.107812e+003,3.546036e+000
1.108776e+003,3.829498e+000
1.109740e+003,6.348755e+000
1.110704e+003,8.554245e+000
1.111668e+003,8.361115e+000
1.112633e+003,6.423462e+000
1.113597e+003,5.184692e+000
1.114561e+003,4.700302e+000
1.115525e+003,5.125946e+000
1.116490e+003,7.439865e+000
1.117454e+003,9.623245e+000
1.118418e+003,1.050525e+001
1.119382e+003,1.023717e+001
1.120347e+003,9.331268e+000
1.121311e+003,8.007782e+000
1.122275e+003,6.470184e+000
1.123239e+003,5.175598e+000
1.124203e+003,4.464951e+000
1.125168e+003,6.058716e+000
1.126132e+003,1.102225e+001
1.127096e+003,1.597984e+001
1.128060e+003,1.836893e+001
1.129025e+003,1.850394e+001
1.129989e+003,1.789717e+001
1.130953e+003,1.605284e+001
1.131917e+003,1.468106e+001
1.132882e+003,1.425072e+001
1.133846e+003,1.443326e+001
1.134810e+003,1.518752e+001
1.135774e+003,1.638689e+001
1.136739e+003,1.790594e+001
1.137703e+003,1.965305e+001
1.138667e+003,2.141248e+001
1.139631e+003,2.271452e+001
1.140595e+003,2.366197e+001
1.141560e+003,2.528745e+001
1.142524e+003,2.772510e+001
1.143488e+003,3.089581e+001
1.144452e+003,3.480751e+001
1.145417e+003,3.936818e+001
1.146381e+003,4.417056e+001
1.147345e+003,4.893584e+001
1.148309e+003,5.462030e+001
1.149274e+003,6.253604e+001
1.150238e+003,7.038451e+001
1.151202e+003,7.704337e+001
1.152166e+003,8.286761e+001
1.153130e+003,8.860738e+001
1.154095e+003,9.450995e+001
1.155059e+003,1.002716e+002
1.156023e+003,1.061998e+002
1.156987e+003,1.116411e+002
1.157952e+003,1.127431e+002
1.158916e+003,1.093699e+002
1.159880e+003,1.041774e+002
1.160844e+003,9.748367e+001
1.161809e+003,8.975612e+001
1.162773e+003,8.246469e+001
1.163737e+003,7.568083e+001
1.164701e+003,6.908420e+001
1.165666e+003,6.272922e+001
1.166630e+003,5.660551e+001
1.167594e+003,4.994333e+001
1.168558e+003,4.381287e+001
1.169522e+003,3.968208e+001
1.170487e+003,3.794000e+001
1.171451e+003,3.799606e+001
1.172415e+003,3.952464e+001
1.173379e+003,4.179779e+001
1.174344e+003,4.055408e+001
1.175308e+003,3.556856e+001
1.176272e+003,3.225591e+001
1.177236e+003,3.410800e+001
1.178201e+003,3.722061e+001
1.179165e+003,3.576553e+001
1.180129e+003,2.957460e+001
1.181093e+003,2.554382e+001
1.182057e+003,2.648061e+001
1.183022e+003,2.787326e+001
1.183986e+003,2.850298e+001
1.184950e+003,2.842281e+001
1.185914e+003,2.738187e+001
1.186879e+003,2.571544e+001
1.187843e+003,2.423230e+001
1.188807e+003,2.353194e+001
1.189771e+003,2.370049e+001
1.190736e+003,2.560313e+001
1.191700e+003,2.957939e+001
1.192664e+003,3.125984e+001
1.193628e+003,2.914423e+001
1.194593e+003,2.629854e+001
1.195557e+003,2.433257e+001
1.196521e+003,2.332004e+001
1.197485e+003,2.414951e+001
1.198449e+003,2.815977e+001
1.199414e+003,3.023056e+001
1.200378e+003,2.571011e+001
1.201342e+003,2.064828e+001
1.202306e+003,1.891655e+001
1.203271e+003,1.962387e+001
1.204235e+003,2.021367e+001
1.205199e+003,1.941121e+001
1.206163e+003,1.797244e+001
1.207128e+003,1.714568e+001
1.208092e+003,1.699623e+001
1.209056e+003,1.620308e+001
1.210020e+003,1.472420e+001
1.210984e+003,1.287794e+001
1.211949e+003,1.049797e+001
1.212913e+003,7.895920e+000
1.213877e+003,5.321365e+000
1.214841e+003,2.859955e+000
1.215806e+003,1.303940e+000
1.216770e+003,1.736786e+000
1.217734e+003,1.833603e+000
1.218698e+003,-1.110352e+000
1.219663e+003,-4.727768e+000
1.220627e+003,-5.509125e+000
1.221591e+003,-3.338684e+000
1.222555e+003,-1.388367e+000
1.223520e+003,-2.619568e+000
1.224484e+003,-6.136566e+000
1.225448e+003,-7.846497e+000
1.226412e+003,-6.562500e+000
1.227376e+003,-6.092010e+000
1.228341e+003,-7.443542e+000
1.229305e+003,-8.528229e+000
1.230269e+003,-7.578262e+000
1.231233e+003,-5.744400e+000
1.232198e+003,-5.791336e+000
1.233162e+003,-8.512482e+000
1.234126e+003,-1.049893e+001
1.235090e+003,-8.450729e+000
1.236055e+003,-5.425323e+000
1.237019e+003,-4.966064e+000
1.237983e+003,-6.304718e+000
1.238947e+003,-6.927017e+000
1.239911e+003,-5.743027e+000
1.240876e+003,-4.200211e+000
1.241840e+003,-4.634781e+000
1.242804e+003,-7.197769e+000
1.243768e+003,-8.795258e+000
1.244733e+003,-8.362396e+000
1.245697e+003,-8.321533e+000
1.246661e+003,-9.634613e+000
1.247625e+003,-1.089758e+001
1.248590e+003,-1.098273e+001
1.249554e+003,-9.936249e+000
1.250518e+003,-8.286865e+000
1.251482e+003,-6.257294e+000
1.252447e+003,-4.476593e+000
1.253411e+003,-3.874924e+000
1.254375e+003,-3.821365e+000
1.255339e+003,-2.713501e+000
1.256303e+003,-5.375061e-001
1.257268e+003,5.937805e-001
1.258232e+003,-1.059937e+000
1.259196e+003,-3.978851e+000
1.260160e+003,-4.764435e+000
1.261125e+003,-2.918518e+000
1.262089e+003,-1.377502e+000
1.263053e+003,-7.328339e-001
1.264017e+003,-2.821655e-001
1.264982e+003,4.429626e-002
1.265946e+003,4.081879e-001
1.266910e+003,8.451843e-001
1.267874e+003,1.443726e+000
1.268839e+003,2.664124e+000
1.269803e+003,4.845718e+000
1.270767e+003,6.850967e+000
1.271731e+003,6.192047e+000
1.272695e+003,2.986221e+000
1.273660e+003,7.366791e-001
1.274624e+003,-4.338379e-001
1.275588e+003,-1.215912e+000
1.276552e+003,-1.794891e+000
1.277517e+003,-2.108154e+000
1.278481e+003,-1.984802e+000
1.279445e+003,-1.378464e+000
1.280409e+003,-1.364090e+000
1.281374e+003,-2.371674e+000
1.282338e+003,-3.957260e+000
1.283302e+003,-6.641617e+000
1.284266e+003,-9.283813e+000
1.285230e+003,-1.033134e+001
1.286195e+003,-9.843918e+000
1.287159e+003,-9.405792e+000
1.288123e+003,-1.028111e+001
1.289087e+003,-1.158609e+001
1.290052e+003,-1.072971e+001
1.291016e+003,-6.821075e+000
1.291980e+003,-4.191513e+000
1.292944e+003,-2.879333e+000
1.293909e+003,-2.818375e+000
1.294873e+003,-4.763367e+000
1.295837e+003,-7.347870e+000
1.296801e+003,-8.631592e+000
1.297766e+003,-8.428741e+000
1.298730e+003,-8.267029e+000
1.299694e+003,-9.096405e+000
1.300658e+003,-1.013094e+001
1.301622e+003,-1.084756e+001
1.302587e+003,-1.097064e+001
1.303551e+003,-9.444641e+000
1.304515e+003,-6.314804e+000
1.305479e+003,-4.085938e+000
1.306444e+003,-5.124588e+000
1.307408e+003,-8.219284e+000
1.308372e+003,-8.873886e+000
1.309336e+003,-5.859756e+000
1.310301e+003,-4.231934e+000
1.311265e+003,-4.984146e+000
1.312229e+003,-6.077377e+000
1.313193e+003,-7.286804e+000
1.314157e+003,-8.365433e+000
1.315122e+003,-9.070480e+000
1.316086e+003,-9.447510e+000
1.317050e+003,-9.831665e+000
1.318014e+003,-1.042628e+001
1.318979e+003,-1.081659e+001
1.319943e+003,-1.026616e+001
1.320907e+003,-8.788452e+000
1.321871e+003,-7.101730e+000
1.322836e+003,-5.214355e+000
1.323800e+003,-3.659210e+000
1.324764e+003,-2.189972e+000
1.325728e+003,-1.451950e+000
1.326693e+003,-3.385986e+000
1.327657e+003,-8.162369e+000
1.328621e+003,-1.079224e+001
1.329585e+003,-8.446854e+000
1.330549e+003,-5.715469e+000
1.331514e+003,-5.322495e+000
1.332478e+003,-5.886520e+000
1.333442e+003,-6.050247e+000
1.334406e+003,-5.729065e+000
1.335371e+003,-5.657013e+000
1.336335e+003,-6.260284e+000
1.337299e+003,-6.950317e+000
1.338263e+003,-6.562119e+000
1.339228e+003,-4.855240e+000
1.340192e+003,-4.318207e+000
1.341156e+003,-5.832642e+000
1.342120e+003,-7.139648e+000
1.343084e+003,-8.572174e+000
1.344049e+003,-9.292343e+000
1.345013e+003,-7.842957e+000
1.345977e+003,-4.968903e+000
1.346941e+003,-3.090088e+000
1.347906e+003,-3.101730e+000
1.348870e+003,-3.837280e+000
1.349834e+003,-4.593109e+000
1.350798e+003,-5.161301e+000
1.351763e+003,-4.939056e+000
1.352727e+003,-4.057022e+000
1.353691e+003,-3.423477e+000
1.354655e+003,-3.330139e+000
1.355620e+003,-3.660538e+000
1.356584e+003,-4.405518e+000
1.357548e+003,-5.468933e+000
1.358512e+003,-6.355469e+000
1.359476e+003,-7.396484e+000
1.360441e+003,-7.697601e+000
1.361405e+003,-5.982681e+000
1.362369e+003,-4.517563e+000
1.363333e+003,-4.672256e+000
1.364298e+003,-5.642761e+000
1.365262e+003,-6.271011e+000
1.366226e+003,-6.233597e+000
1.367190e+003,-5.909027e+000
1.368155e+003,-5.633057e+000
1.369119e+003,-5.352951e+000
1.370083e+003,-4.849136e+000
1.371047e+003,-3.889725e+000
1.372011e+003,-3.551468e+000
1.372976e+003,-4.565384e+000
1.373940e+003,-5.431671e+000
1.374904e+003,-5.726944e+000
1.375868e+003,-5.407120e+000
1.376833e+003,-3.803711e+000
1.377797e+003,-1.325348e+000
1.378761e+003,-7.229156e-001
1.379725e+003,-3.702911e+000
1.380690e+003,-7.012405e+000
1.381654e+003,-6.768677e+000
1.382618e+003,-4.972305e+000
1.383582e+003,-4.767990e+000
1.384547e+003,-5.979843e+000
1.385511e+003,-5.665909e+000
1.386475e+003,-1.990540e+000
1.387439e+003,2.456100e+000
1.388403e+003,3.541245e+000
1.389368e+003,1.263397e+000
1.390332e+003,-7.831268e-001
1.391296e+003,-2.735611e+000
1.392260e+003,-3.804352e+000
1.393225e+003,-3.730957e+000
1.394189e+003,-3.008484e+000
1.395153e+003,-1.400131e+000
1.396117e+003,4.611969e-001
1.397082e+003,1.898773e+000
1.398046e+003,2.630524e+000
1.399010e+003,2.396866e+000
1.399974e+003,8.381042e-001
1.400938e+003,-1.477463e+000
1.401903e+003,-2.366516e+000
1.402867e+003,-1.139130e+000
1.403831e+003,-5.372620e-002
1.404795e+003,1.224533e+000
1.405760e+003,1.674728e+000
1.406724e+003,2.029266e-001
1.407688e+003,-2.118225e+000
1.408652e+003,-4.117462e+000
1.409617e+003,-5.468796e+000
1.410581e+003,-5.803268e+000
1.411545e+003,-4.798462e+000
1.412509e+003,-3.721878e+000
1.413474e+003,-4.122269e+000
1.414438e+003,-5.198517e+000
1.415402e+003,-5.545517e+000
1.416366e+003,-5.058838e+000
1.417330e+003,-3.652649e+000
1.418295e+003,-9.081116e-001
1.419259e+003,1.324768e+000
1.420223e+003,-1.578217e-001
1.421187e+003,-4.487488e+000
1.422152e+003,-5.358185e+000
1.423116e+003,-1.238235e+000
1.424080e+003,2.106598e+000
1.425044e+003,2.651413e+000
1.426009e+003,2.355911e+000
1.426973e+003,1.106705e+000
1.427937e+003,-2.110291e-002
1.428901e+003,8.025818e-001
1.429865e+003,3.192596e+000
1.430830e+003,4.641495e+000
1.431794e+003,3.462708e+000
1.432758e+003,7.723083e-001
1.433722e+003,-1.166153e+000
1.434687e+003,-2.243729e+000
1.435651e+003,-2.077362e+000
1.436615e+003,5.096436e-003
1.437579e+003,1.615128e+000
1.438544e+003,2.520615e+000
1.439508e+003,3.013702e+000
1.440472e+003,3.351135e+000
1.441436e+003,3.538757e+000
1.442401e+003,3.236984e+000
1.443365e+003,2.438614e+000
1.444329e+003,2.114365e+000
1.445293e+003,3.173569e+000
1.446257e+003,4.711838e+000
1.447222e+003,4.845505e+000
1.448186e+003,3.814255e+000
1.449150e+003,2.955872e+000
1.450114e+003,2.375961e+000
1.451079e+003,1.840714e+000
1.452043e+003,9.921417e-001
1.453007e+003,4.316559e-001
1.453971e+003,1.328384e+000
1.454936e+003,3.358322e+000
1.455900e+003,4.236130e+000
1.456864e+003,3.197525e+000
1.457828e+003,2.214111e+000
1.458792e+003,2.578598e+000
1.459757e+003,3.182053e+000
1.460721e+003,3.030869e+000
1.461685e+003,2.449188e+000
1.462649e+003,2.173416e+000
1.463614e+003,2.443695e+000
1.464578e+003,3.103439e+000
1.465542e+003,4.107300e+000
1.466506e+003,5.070007e+000
1.467471e+003,4.800323e+000
1.468435e+003,3.039108e+000
1.469399e+003,1.956696e+000
1.470363e+003,1.351288e+000
1.471328e+003,1.705383e+000
1.472292e+003,4.617157e+000
1.473256e+003,6.877579e+000
1.474220e+003,5.592728e+000
1.475184e+003,2.299026e+000
1.476149e+003,-7.786560e-002
1.477113e+003,-5.269470e-001
1.478077e+003,2.371521e-001
1.479041e+003,1.672104e+000
1.480006e+003,3.423737e+000
1.480970e+003,3.992798e+000
1.481934e+003,2.734116e+000
1.482898e+003,2.588867e+000
1.483863e+003,4.763489e+000
1.484827e+003,6.179474e+000
1.485791e+003,5.249023e+000
1.486755e+003,4.077759e+000
1.487719e+003,4.513046e+000
1.488684e+003,6.271027e+000
1.489648e+003,8.505112e+000
1.490612e+003,1.093867e+001
1.491576e+003,1.268195e+001
1.492541e+003,1.270670e+001
1.493505e+003,1.197337e+001
1.494469e+003,1.275647e+001
1.495433e+003,1.467424e+001
1.496398e+003,1.627179e+001
1.497362e+003,1.773494e+001
1.498326e+003,1.834819e+001
1.499290e+003,1.618338e+001
1.500255e+003,1.401993e+001
1.501219e+003,1.618129e+001
1.502183e+003,2.197099e+001
1.503147e+003,2.691740e+001
1.504111e+003,2.983049e+001
1.505076e+003,3.299187e+001
1.506040e+003,3.802621e+001
1.507004e+003,4.364963e+001
1.507968e+003,4.878940e+001
1.508933e+003,5.346346e+001
1.509897e+003,5.725565e+001
1.510861e+003,6.041916e+001
1.511825e+003,6.515028e+001
1.512790e+003,7.299182e+001
1.513754e+003,8.291893e+001
1.514718e+003,9.361475e+001
1.515682e+003,1.049460e+002
1.516646e+003,1.149920e+002
1.517611e+003,1.233022e+002
1.518575e+003,1.313441e+002
1.519539e+003,1.406109e+002
1.520503e+003,1.488857e+002
1.521468e+003,1.554413e+002
1.522432e+003,1.599325e+002
1.523396e+003,1.617347e+002
1.524360e+003,1.610493e+002
1.525325e+003,1.590356e+002
1.526289e+003,1.564977e+002
1.527253e+003,1.532017e+002
1.528217e+003,1.487322e+002
1.529182e+003,1.431960e+002
1.530146e+003,1.357143e+002
1.531110e+003,1.251437e+002
1.532074e+003,1.144498e+002
1.533039e+003,1.040701e+002
1.534003e+003,9.288205e+001
1.534967e+003,7.943549e+001
1.535931e+003,6.605894e+001
1.536896e+003,5.539432e+001
1.537860e+003,4.742062e+001
1.538824e+003,4.033607e+001
1.539788e+003,3.316321e+001
1.540752e+003,2.660016e+001
1.541717e+003,2.156482e+001
1.542681e+003,1.811609e+001
1.543645e+003,1.614279e+001
1.544609e+003,1.657239e+001
1.545573e+003,1.645952e+001
1.546538e+003,1.565134e+001
1.547502e+003,1.421089e+001
1.548466e+003,1.150842e+001
1.549430e+003,8.987244e+000
1.550395e+003,7.783096e+000
1.551359e+003,7.952927e+000
1.552323e+003,9.972107e+000
1.553287e+003,1.376823e+001
1.554252e+003,1.625214e+001
1.555216e+003,1.439801e+001
1.556180e+003,1.021387e+001
1.557144e+003,8.524948e+000
1.558109e+003,9.482513e+000
1.559073e+003,9.206039e+000
1.560037e+003,6.850891e+000
1.561001e+003,4.544006e+000
1.561966e+003,2.623367e+000
1.562930e+003,1.651215e+000
1.563894e+003,2.592056e+000
1.564858e+003,4.645447e+000
1.565823e+003,5.909485e+000
1.566787e+003,6.031036e+000
1.567751e+003,6.171478e+000
1.568715e+003,7.123901e+000
1.569679e+003,8.051834e+000
1.570644e+003,7.709152e+000
1.571608e+003,6.430969e+000
1.572572e+003,5.307312e+000
1.573536e+003,4.429825e+000
1.574500e+003,4.146393e+000
1.575465e+003,4.801620e+000
1.576429e+003,5.637741e+000
1.577393e+003,5.898331e+000
1.578357e+003,5.905319e+000
1.579322e+003,6.649292e+000
1.580286e+003,8.096985e+000
1.581250e+003,8.424530e+000
1.582214e+003,6.660217e+000
1.583179e+003,5.276489e+000
1.584143e+003,6.688782e+000
1.585107e+003,8.817276e+000
1.586071e+003,8.767197e+000
1.587036e+003,7.311371e+000
1.588000e+003,6.481384e+000
1.588964e+003,6.637482e+000
1.589928e+003,7.258606e+000
1.590893e+003,8.395279e+000
1.591857e+003,9.465469e+000
1.592821e+003,9.196503e+000
1.593785e+003,7.973999e+000
1.594750e+003,8.135574e+000
1.595714e+003,1.016444e+001
1.596678e+003,1.195741e+001
1.597642e+003,1.277913e+001
1.598606e+003,1.297238e+001
1.599571e+003,1.252457e+001
1.600535e+003,1.190250e+001
1.601499e+003,1.168463e+001
1.602463e+003,1.183751e+001
1.603427e+003,1.203537e+001
1.604392e+003,1.215244e+001
1.605356e+003,1.229517e+001
1.606320e+003,1.267445e+001
1.607284e+003,1.314096e+001
1.608249e+003,1.324016e+001
1.609213e+003,1.296382e+001
1.610177e+003,1.254715e+001
1.611141e+003,1.198897e+001
1.612106e+003,1.140450e+001
1.613070e+003,1.103621e+001
1.614034e+003,1.045181e+001
1.614998e+003,8.858627e+000
1.615963e+003,7.036392e+000
1.616927e+003,6.289490e+000
1.617891e+003,6.764542e+000
1.618855e+003,7.917892e+000
1.619820e+003,9.541656e+000
1.620784e+003,1.079532e+001
1.621748e+003,1.021600e+001
1.622712e+003,8.373474e+000
1.623677e+003,8.269470e+000
1.624641e+003,1.041504e+001
1.625605e+003,1.133028e+001
1.626569e+003,8.640671e+000
1.627533e+003,6.863373e+000
1.628498e+003,9.867889e+000
1.629462e+003,1.342847e+001
1.630426e+003,1.315913e+001
1.631390e+003,1.071820e+001
1.632354e+003,1.077164e+001
1.633319e+003,1.411060e+001
1.634283e+003,1.633493e+001
1.635247e+003,1.381087e+001
1.636211e+003,9.438156e+000
1.637176e+003,8.994003e+000
1.638140e+003,1.215454e+001
1.639104e+003,1.272644e+001
1.640068e+003,9.385986e+000
1.641033e+003,7.787827e+000
1.641997e+003,1.080241e+001
1.642961e+003,1.382892e+001
1.643925e+003,1.478384e+001
1.644890e+003,1.449829e+001
1.645854e+003,1.335945e+001
1.646818e+003,1.174716e+001
1.647782e+003,1.007373e+001
1.648747e+003,8.556641e+000
1.649711e+003,8.156616e+000
1.650675e+003,1.000974e+001
1.651639e+003,1.290500e+001
1.652604e+003,1.439777e+001
1.653568e+003,1.444728e+001
1.654532e+003,1.293895e+001
1.655496e+003,9.065842e+000
1.656460e+003,6.563507e+000
1.657425e+003,7.705536e+000
1.658389e+003,8.914581e+000
1.659353e+003,7.750977e+000
1.660317e+003,6.017441e+000
1.661281e+003,5.584076e+000
1.662246e+003,6.312592e+000
1.663210e+003,7.432480e+000
1.664174e+003,8.683975e+000
1.665138e+003,9.604004e+000
1.666103e+003,9.659225e+000
1.667067e+003,9.244720e+000
1.668031e+003,9.218094e+000
1.668995e+003,9.578949e+000
1.669960e+003,9.994522e+000
1.670924e+003,1.049956e+001
1.671888e+003,1.096529e+001
1.672852e+003,1.162077e+001
1.673817e+003,1.170621e+001
1.674781e+003,1.002187e+001
1.675745e+003,8.070557e+000
1.676709e+003,7.892532e+000
1.677674e+003,8.914948e+000
1.678638e+003,8.883316e+000
1.679602e+003,7.114182e+000
1.680566e+003,5.161896e+000
1.681531e+003,4.261627e+000
1.682495e+003,3.969528e+000
1.683459e+003,3.448669e+000
1.684423e+003,2.693298e+000
1.685387e+003,1.901871e+000
1.686352e+003,1.029419e+000
1.687316e+003,9.748230e-001
1.688280e+003,2.391953e+000
1.689244e+003,3.995438e+000
1.690208e+003,5.370682e+000
1.691173e+003,5.986511e+000
1.692137e+003,4.223572e+000
1.693101e+003,1.280487e+000
1.694065e+003,1.274399e+000
1.695030e+003,5.248077e+000
1.695994e+003,8.511627e+000
1.696958e+003,7.930466e+000
1.697922e+003,5.570908e+000
1.698887e+003,3.365143e+000
1.699851e+003,1.619125e+000
1.700815e+003,1.492508e+000
1.701779e+003,2.990494e+000
1.702744e+003,4.151398e+000
1.703708e+003,4.412354e+000
1.704672e+003,4.503006e+000
1.705636e+003,5.036758e+000
1.706601e+003,5.303864e+000
1.707565e+003,3.975327e+000
1.708529e+003,1.733383e+000
1.709493e+003,5.574341e-001
1.710458e+003,7.199097e-001
1.711422e+003,1.347275e+000
1.712386e+003,3.051208e+000
1.713350e+003,4.089172e+000
1.714314e+003,1.763077e+000
1.715279e+003,-1.574265e+000
1.716243e+003,-1.468292e+000
1.717207e+003,1.673477e+000
1.718171e+003,4.389893e+000
1.719135e+003,5.741333e+000
1.720100e+003,5.878632e+000
1.721064e+003,4.601349e+000
1.722028e+003,2.808029e+000
1.722992e+003,1.826202e+000
1.723957e+003,1.639862e+000
1.724921e+003,1.622269e+000
1.725885e+003,1.671341e+000
1.726849e+003,1.482330e+000
1.727814e+003,1.056686e+000
1.728778e+003,6.734314e-001
1.729742e+003,3.135681e-001
1.730706e+003,1.031952e-001
1.731671e+003,2.841034e-001
1.732635e+003,4.878387e-001
1.733599e+003,4.733276e-002
1.734563e+003,-9.422913e-001
1.735528e+003,-1.583557e+000
1.736492e+003,-1.453232e+000
1.737456e+003,-1.460571e+000
1.738420e+003,-2.777771e+000
1.739385e+003,-4.940216e+000
1.740349e+003,-5.945419e+000
1.741313e+003,-5.525909e+000
1.742277e+003,-4.937637e+000
1.743241e+003,-3.583252e+000
1.744206e+003,-2.845062e+000
1.745170e+003,-3.781815e+000
1.746134e+003,-4.451004e+000
1.747098e+003,-3.550476e+000
1.748063e+003,-1.996506e+000
1.749027e+003,-4.449310e-001
1.749991e+003,6.548004e-001
1.750955e+003,5.065460e-001
1.751919e+003,-9.990082e-001
1.752884e+003,-2.901962e+000
1.753848e+003,-4.429855e+000
1.754812e+003,-5.243546e+000
1.755776e+003,-4.370132e+000
1.756741e+003,-1.820129e+000
1.757705e+003,-7.233429e-001
1.758669e+003,-1.666290e+000
1.759633e+003,-2.602585e+000
1.760598e+003,-4.228210e+000
1.761562e+003,-4.635162e+000
1.762526e+003,-1.634094e+000
1.763490e+003,1.255585e+000
1.764455e+003,1.220612e+000
1.765419e+003,-3.862915e-001
1.766383e+003,-1.510422e+000
1.767347e+003,-1.805084e+000
1.768312e+003,-1.582855e+000
1.769276e+003,-1.001282e+000
1.770240e+003,-6.233978e-001
1.771204e+003,-1.050385e+000
1.772168e+003,-1.799835e+000
1.773133e+003,-1.999252e+000
1.774097e+003,-1.679199e+000
1.775061e+003,-9.083405e-001
1.776025e+003,3.856354e-001
1.776990e+003,7.075806e-001
1.777954e+003,-8.382721e-001
1.778918e+003,-2.247910e+000
1.779882e+003,-1.849411e+000
1.780846e+003,-8.639069e-001
1.781811e+003,-1.093979e+000
1.782775e+003,-2.033737e+000
1.783739e+003,-1.902557e+000
1.784703e+003,-3.070374e-001
1.785668e+003,1.013504e+000
1.786632e+003,1.269440e+000
1.787596e+003,9.060974e-001
1.788560e+003,1.247101e-001
1.789525e+003,-7.454071e-001
1.790489e+003,-1.471329e+000
1.791453e+003,-2.022675e+000
1.792417e+003,-2.283081e+000
1.793382e+003,-2.221329e+000
1.794346e+003,-1.747101e+000
1.795310e+003,-7.644196e-001
1.796274e+003,-2.045898e-001
1.797239e+003,-1.291397e+000
1.798203e+003,-3.081223e+000
1.799167e+003,-2.716888e+000
1.800131e+003,1.920013e-001
1.801095e+003,1.290283e+000
1.802060e+003,-5.059967e-001
1.803024e+003,-1.834961e+000
1.803988e+003,-2.361038e+000
1.804952e+003,-2.512192e+000
1.805917e+003,-1.923920e+000
1.806881e+003,-1.543045e+000
1.807845e+003,-2.704895e+000
1.808809e+003,-4.600845e+000
1.809773e+003,-5.617676e+000
1.810738e+003,-5.349945e+000
1.811702e+003,-4.265686e+000
1.812666e+003,-2.687668e+000
1.813630e+003,-8.172150e-001
1.814595e+003,1.325287e+000
1.815559e+003,3.184769e+000
1.816523e+003,1.962540e+000
1.817487e+003,-2.788910e+000
1.818452e+003,-5.100113e+000
1.819416e+003,-3.847763e+000
1.820380e+003,-2.341263e+000
1.821344e+003,-1.391037e+000
1.822309e+003,-6.909790e-001
1.823273e+003,1.039886e-001
1.824237e+003,7.610474e-001
1.825201e+003,1.141739e+000
1.826166e+003,1.073395e+000
1.827130e+003,-1.972809e-001
1.828094e+003,-2.749084e+000
1.829058e+003,-4.160370e+000
1.830022e+003,-2.786636e+000
1.830987e+003,-8.486786e-001
1.831951e+003,2.285614e-001
1.832915e+003,4.607544e-001
1.833879e+003,-8.806458e-001
1.834844e+003,-2.945053e+000
1.835808e+003,-2.848694e+000
1.836772e+003,-4.135742e-001
1.837736e+003,1.388245e+000
1.838700e+003,1.211212e+000
1.839665e+003,3.565216e-001
1.840629e+003,1.646423e-002
1.841593e+003,-1.004181e-001
1.842557e+003,-7.667847e-001
1.843522e+003,-1.970581e+000
1.844486e+003,-2.400787e+000
1.845450e+003,-1.644409e+000
1.846414e+003,-6.433258e-001
1.847379e+003,9.570770e-001
1.848343e+003,2.000519e+000
1.849307e+003,1.992065e+000
1.850271e+003,1.586746e+000
1.851236e+003,1.441269e+000
1.852200e+003,1.182388e+000
1.853164e+003,-4.336395e-001
1.854128e+003,-2.855026e+000
1.855093e+003,-3.739777e+000
1.856057e+003,-2.279312e+000
1.857021e+003,-3.576355e-001
1.857985e+003,4.531097e-001
1.858949e+003,5.412140e-001
1.859914e+003,4.467163e-001
1.860878e+003,2.638092e-001
1.861842e+003,4.808960e-001
1.862806e+003,1.084534e+000
1.863771e+003,1.269089e+000
1.864735e+003,7.442322e-001
1.865699e+003,3.308868e-001
1.866663e+003,4.410858e-001
1.867627e+003,8.440094e-001
1.868592e+003,1.589630e+000
1.869556e+003,2.155365e+000
1.870520e+003,1.569000e+000
1.871484e+003,1.251221e-003
1.872449e+003,-1.518417e+000
1.873413e+003,-2.999405e+000
1.874377e+003,-3.036957e+000
1.875341e+003,2.066345e-001
1.876306e+003,2.695557e+000
1.877270e+003,1.066727e+000
1.878234e+003,-1.293549e+000
1.879198e+003,-3.383636e-001
1.880163e+003,2.258698e+000
1.881127e+003,2.902710e+000
1.882091e+003,1.425232e+000
1.883055e+003,-6.327820e-002
1.884020e+003,-6.543427e-001
1.884984e+003,-1.094360e+000
1.885948e+003,-2.091507e+000
1.886912e+003,-2.940842e+000
1.887876e+003,-2.053024e+000
1.888841e+003,3.858490e-001
1.889805e+003,1.882370e+000
1.890769e+003,2.285355e+000
1.891733e+003,2.567108e+000
1.892698e+003,2.798019e+000
1.893662e+003,2.771240e+000
1.894626e+003,2.303543e+000
1.895590e+003,1.773468e+000
1.896554e+003,1.125366e+000
1.897519e+003,8.675537e-001
1.898483e+003,2.070984e+000
1.899447e+003,4.056152e+000
1.900411e+003,4.592880e+000
1.901376e+003,3.265884e+000
1.902340e+003,2.099365e+000
1.903304e+003,1.907272e+000
1.904268e+003,1.931366e+000
1.905233e+003,1.758957e+000
1.906197e+003,1.601624e+000
1.907161e+003,1.862488e+000
1.908125e+003,2.241745e+000
1.909090e+003,1.919708e+000
1.910054e+003,1.031204e+000
1.911018e+003,6.487274e-001
1.911982e+003,1.112457e+000
1.912947e+003,1.557419e+000
1.913911e+003,1.320313e+000
1.914875e+003,1.209778e+000
1.915839e+003,2.563431e+000
1.916803e+003,4.884552e+000
1.917768e+003,5.907669e+000
1.918732e+003,5.461990e+000
1.919696e+003,5.311859e+000
1.920660e+003,5.771622e+000
1.921625e+003,5.845428e+000
1.922589e+003,5.015289e+000
1.923553e+003,4.135727e+000
1.924517e+003,4.070770e+000
1.925481e+003,3.802505e+000
1.926446e+003,1.527954e+000
1.927410e+003,-1.249481e+000
1.928374e+003,-1.160156e+000
1.929338e+003,1.709961e+000
1.930303e+003,3.729858e+000
1.931267e+003,4.098175e+000
1.932231e+003,3.715637e+000
1.933195e+003,1.917145e+000
1.934160e+003,5.583496e-001
1.935124e+003,1.463699e+000
1.936088e+003,3.137924e+000
1.937052e+003,4.039688e+000
1.938017e+003,4.209030e+000
1.938981e+003,3.579742e+000
1.939945e+003,2.602173e+000
1.940909e+003,3.226593e+000
1.941874e+003,6.056122e+000
1.942838e+003,8.056198e+000
1.943802e+003,6.370987e+000
1.944766e+003,3.238739e+000
1.945730e+003,3.204926e+000
1.946695e+003,5.692322e+000
1.947659e+003,6.227783e+000
1.948623e+003,4.552017e+000
1.949587e+003,3.799347e+000
1.950552e+003,4.758591e+000
1.951516e+003,4.806549e+000
1.952480e+003,2.347443e+000
1.953444e+003,3.417816e-001
1.954408e+003,1.125977e+000
1.955373e+003,3.117188e+000
1.956337e+003,4.567215e+000
1.957301e+003,5.518723e+000
1.958265e+003,5.747009e+000
1.959230e+003,5.197983e+000
1.960194e+003,4.430786e+000
1.961158e+003,2.769165e+000
1.962122e+003,1.747131e+000
1.963087e+003,1.949585e+000
1.964051e+003,2.710556e+000
1.965015e+003,4.388306e+000
1.965979e+003,5.952515e+000
1.966944e+003,6.094681e+000
1.967908e+003,5.329361e+000
1.968872e+003,4.714569e+000
1.969836e+003,4.520142e+000
1.970801e+003,4.639496e+000
1.971765e+003,5.006577e+000
1.972729e+003,5.387863e+000
1.973693e+003,5.607452e+000
1.974657e+003,5.642120e+000
1.975622e+003,5.269608e+000
1.976586e+003,4.689621e+000
1.977550e+003,4.655258e+000
1.978514e+003,5.075165e+000
1.979479e+003,5.108765e+000
1.980443e+003,4.642960e+000
1.981407e+003,4.306625e+000
1.982371e+003,4.363815e+000
1.983335e+003,4.708023e+000
1.984300e+003,5.254715e+000
1.985264e+003,5.741776e+000
1.986228e+003,5.784103e+000
1.987192e+003,5.510468e+000
1.988157e+003,5.634415e+000
1.989121e+003,6.348282e+000
1.990085e+003,6.641602e+000
1.991049e+003,6.404175e+000
1.992014e+003,6.066360e+000
1.992978e+003,5.022003e+000
1.993942e+003,4.690414e+000
1.994906e+003,6.397064e+000
1.995871e+003,8.122437e+000
1.996835e+003,8.118759e+000
1.997799e+003,7.411209e+000
1.998763e+003,7.793457e+000
1.999728e+003,8.908066e+000
