5.003444e+002,3.672119e+001
5.013087e+002,3.732745e+001
5.022729e+002,3.772745e+001
5.032371e+002,3.783765e+001
5.042014e+002,3.657721e+001
5.051656e+002,3.426260e+001
5.061298e+002,3.245563e+001
5.070941e+002,3.264066e+001
5.080583e+002,3.529553e+001
5.090225e+002,3.663867e+001
5.099868e+002,3.646622e+001
5.109510e+002,3.568912e+001
5.119152e+002,3.460352e+001
5.128795e+002,3.321817e+001
5.138437e+002,3.198065e+001
5.148079e+002,3.119626e+001
5.157722e+002,3.053470e+001
5.167364e+002,2.989737e+001
5.177006e+002,2.916248e+001
5.186649e+002,2.814923e+001
5.196291e+002,2.636627e+001
5.205933e+002,2.477417e+001
5.215576e+002,2.427097e+001
5.225218e+002,2.477780e+001
5.234860e+002,2.585931e+001
5.244503e+002,2.699149e+001
5.254145e+002,2.855231e+001
5.263787e+002,2.877267e+001
5.273430e+002,2.656100e+001
5.283072e+002,2.374710e+001
5.292714e+002,2.300592e+001
5.302357e+002,2.565836e+001
5.311999e+002,2.696097e+001
5.321641e+002,2.614822e+001
5.331284e+002,2.462961e+001
5.340926e+002,2.305911e+001
5.350568e+002,2.150900e+001
5.360211e+002,2.071179e+001
5.369853e+002,2.261649e+001
5.379495e+002,2.513611e+001
5.389138e+002,2.640524e+001
5.398780e+002,2.571448e+001
5.408422e+002,2.378400e+001
5.418065e+002,2.256604e+001
5.427707e+002,2.195203e+001
5.437349e+002,2.120566e+001
5.446992e+002,2.010092e+001
5.456634e+002,1.871164e+001
5.466276e+002,1.733746e+001
5.475919e+002,1.541864e+001
5.485561e+002,1.450629e+001
5.495203e+002,1.511154e+001
5.504846e+002,1.644894e+001
5.514488e+002,1.763095e+001
5.524130e+002,1.879990e+001
5.533773e+002,1.893143e+001
5.543415e+002,1.677039e+001
5.553057e+002,1.396960e+001
5.562700e+002,1.225351e+001
5.572342e+002,1.264594e+001
5.581984e+002,1.415747e+001
5.591627e+002,1.465884e+001
5.601269e+002,1.455991e+001
5.610911e+002,1.433716e+001
5.620554e+002,1.415848e+001
5.630196e+002,1.397867e+001
5.639838e+002,1.402124e+001
5.649481e+002,1.515634e+001
5.659123e+002,1.529471e+001
5.668765e+002,1.343616e+001
5.678408e+002,1.052249e+001
5.688050e+002,9.030090e+000
5.697692e+002,1.042740e+001
5.707335e+002,1.164142e+001
5.716977e+002,1.183289e+001
5.726619e+002,1.139386e+001
5.736262e+002,1.086935e+001
5.745904e+002,1.060971e+001
5.755546e+002,1.062573e+001
5.765189e+002,1.102579e+001
5.774831e+002,1.138651e+001
5.784473e+002,1.113895e+001
5.794116e+002,9.973022e+000
5.803758e+002,8.050903e+000
5.813400e+002,5.878632e+000
5.823043e+002,2.752228e+000
5.832685e+002,4.528198e-001
5.842327e+002,1.622009e-001
5.851970e+002,1.663849e+000
5.861612e+002,2.817566e+000
5.871254e+002,2.486053e+000
5.880897e+002,2.534424e+000
5.890539e+002,3.385254e+000
5.900181e+002,4.742432e+000
5.909824e+002,6.230835e+000
5.919466e+002,7.905640e+000
5.929108e+002,9.098846e+000
5.938751e+002,9.455811e+000
5.948393e+002,8.996338e+000
5.958035e+002,7.440918e+000
5.967678e+002,4.645599e+000
5.977320e+002,1.078613e+000
5.986962e+002,1.136780e-001
5.996605e+002,1.405945e+000
6.006247e+002,3.128937e+000
6.015889e+002,4.843994e+000
6.025532e+002,6.514099e+000
6.035174e+002,7.388000e+000
6.044816e+002,7.003510e+000
6.054459e+002,6.250671e+000
6.064101e+002,4.399506e+000
6.073743e+002,2.374512e+000
6.083386e+002,2.014313e+000
6.093028e+002,5.232269e+000
6.102670e+002,8.465851e+000
6.112313e+002,8.804718e+000
6.121955e+002,7.472504e+000
6.131597e+002,5.830658e+000
6.141240e+002,4.843201e+000
6.150882e+002,4.571442e+000
6.160524e+002,6.197144e+000
6.170167e+002,9.440887e+000
6.179809e+002,1.135669e+001
6.189451e+002,1.000510e+001
6.199094e+002,5.890869e+000
6.208736e+002,3.566742e+000
6.218378e+002,5.543915e+000
6.228021e+002,6.902863e+000
6.237663e+002,6.829041e+000
6.247305e+002,6.043823e+000
6.256948e+002,5.738800e+000
6.266590e+002,6.435669e+000
6.276232e+002,7.074493e+000
6.285875e+002,7.259186e+000
6.295517e+002,7.178192e+000
6.305159e+002,6.988647e+000
6.314802e+002,6.720703e+000
6.324444e+002,6.195801e+000
6.334086e+002,4.952942e+000
6.343729e+002,3.330170e+000
6.353371e+002,1.668640e+000
6.363013e+002,-4.739380e-002
6.372656e+002,-1.672455e+000
6.382298e+002,-2.525665e+000
6.391940e+002,-1.619080e+000
6.401583e+002,-1.321808e+000
6.411225e+002,-1.926941e+000
6.420867e+002,-2.678314e+000
6.430510e+002,-2.623291e+000
6.440152e+002,-1.275696e+000
6.449794e+002,-5.947571e-001
6.459437e+002,-1.982330e+000
6.469079e+002,-3.997162e+000
6.478721e+002,-5.608276e+000
6.488364e+002,-6.369232e+000
6.498006e+002,-6.534088e+000
6.507648e+002,-6.645081e+000
6.517291e+002,-6.595490e+000
6.526933e+002,-5.845367e+000
6.536575e+002,-4.263336e+000
6.546218e+002,-2.279175e+000
6.555860e+002,-6.711731e-001
6.565502e+002,5.348816e-001
6.575145e+002,1.201874e+000
6.584787e+002,1.532806e+000
6.594429e+002,1.291321e+000
6.604072e+002,-2.544250e-001
6.613714e+002,-3.462402e+000
6.623356e+002,-5.282837e+000
6.632999e+002,-2.606537e+000
6.642641e+002,1.671753e-001
6.652283e+002,5.584412e-001
6.661926e+002,-1.273560e+000
6.671568e+002,-3.225922e+000
6.681210e+002,-2.698792e+000
6.690853e+002,-7.881165e-001
6.700495e+002,-5.298157e-001
6.710137e+002,-1.865662e+000
6.719780e+002,-3.184570e+000
6.729422e+002,-2.697266e+000
6.739064e+002,6.869507e-002
6.748707e+002,1.405151e+000
6.758349e+002,6.702271e-001
6.767991e+002,-3.552856e-001
6.777634e+002,-1.379303e+000
6.787276e+002,-2.073700e+000
6.796918e+002,-1.035706e+000
6.806561e+002,5.129059e+000
6.816203e+002,9.530914e+000
6.825845e+002,8.398560e+000
6.835488e+002,3.924194e+000
6.845130e+002,-3.258667e-001
6.854772e+002,-1.757935e+000
6.864415e+002,-9.905701e-001
6.874057e+002,9.171143e-001
6.883699e+002,3.215668e+000
6.893342e+002,4.050598e+000
6.902984e+002,2.302124e+000
6.912626e+002,-1.475128e+000
6.922269e+002,-3.789551e+000
6.931911e+002,-3.471375e+000
6.941553e+002,-2.753113e+000
6.951196e+002,-1.583710e+000
6.960838e+002,-4.442139e-001
6.970480e+002,-1.402588e-001
6.980123e+002,-1.307404e+000
6.989765e+002,-1.838409e+000
6.999407e+002,-2.007751e-001
7.009050e+002,1.758636e+000
7.018692e+002,2.569611e+000
7.028334e+002,1.726196e+000
7.037977e+002,-1.490479e-001
7.047619e+002,-2.885559e+000
7.057261e+002,-5.367706e+000
7.066904e+002,-4.860382e+000
7.076546e+002,-9.375916e-001
7.086188e+002,3.871368e+000
7.095831e+002,5.482849e+000
7.105473e+002,2.519257e+000
7.115115e+002,9.841919e-002
7.124758e+002,-2.431335e+000
7.134400e+002,-4.061127e+000
7.144042e+002,-3.560883e+000
7.153685e+002,-9.431458e-001
7.163327e+002,1.096832e+000
7.172969e+002,9.855957e-001
7.182612e+002,3.228760e-001
7.192254e+002,-6.722107e-001
7.201896e+002,-1.781799e+000
7.211539e+002,-2.681854e+000
7.221181e+002,-3.023834e+000
7.230823e+002,-3.186523e+000
7.240466e+002,-4.692810e+000
7.250108e+002,-6.971313e+000
7.259750e+002,-7.912903e+000
7.269393e+002,-6.223602e+000
7.279035e+002,-2.485321e+000
7.288677e+002,-2.044067e-001
7.298320e+002,-5.327759e-001
7.307962e+002,-2.714233e-001
7.317604e+002,1.166229e+000
7.327247e+002,3.199036e+000
7.336889e+002,4.998566e+000
7.346531e+002,6.232208e+000
7.356174e+002,6.529755e+000
7.365816e+002,6.016449e+000
7.375458e+002,5.052368e+000
7.385101e+002,3.554688e+000
7.394743e+002,1.693024e+000
7.404385e+002,3.817749e-002
7.414028e+002,-4.916992e-001
7.423670e+002,-4.181824e-001
7.433312e+002,-8.711243e-001
7.442955e+002,-1.746277e+000
7.452597e+002,-2.289581e+000
7.462239e+002,-1.665741e+000
7.471882e+002,4.169006e-001
7.481524e+002,2.083344e+000
7.491166e+002,3.188049e+000
7.500809e+002,3.676361e+000
7.510451e+002,3.667175e+000
7.520093e+002,3.056244e+000
7.529736e+002,1.382446e+000
7.539378e+002,-2.267853e+000
7.549020e+002,-5.516235e+000
7.558663e+002,-7.357422e+000
7.568306e+002,-7.848816e+000
7.577948e+002,-6.785095e+000
7.587590e+002,-4.213837e+000
7.597233e+002,-1.012939e+000
7.606875e+002,2.545776e-001
7.616517e+002,-4.000854e-002
7.626160e+002,2.338562e-001
7.635802e+002,1.939941e+000
7.645444e+002,4.216919e+000
7.655087e+002,5.135559e+000
7.664729e+002,3.864380e+000
7.674371e+002,2.843628e+000
7.684014e+002,2.173401e+000
7.693656e+002,1.766327e+000
7.703298e+002,1.575378e+000
7.712941e+002,1.621216e+000
7.722583e+002,2.044067e+000
7.732225e+002,3.680756e+000
7.741868e+002,4.964050e+000
7.751510e+002,4.329834e+000
7.761152e+002,2.288513e+000
7.770795e+002,7.046509e-002
7.780437e+002,-1.269470e+000
7.790079e+002,-1.798767e+000
7.799722e+002,-1.450897e+000
7.809364e+002,-1.687927e-001
7.819006e+002,9.320679e-001
7.828649e+002,1.328064e+000
7.838291e+002,1.378601e+000
7.847933e+002,2.122589e+000
7.857576e+002,4.230408e+000
7.867218e+002,5.380371e+000
7.876860e+002,5.139008e+000
7.886503e+002,4.283600e+000
7.896145e+002,3.099426e+000
7.905787e+002,1.785522e+000
7.915430e+002,1.075867e+000
7.925072e+002,2.275452e+000
7.934714e+002,3.950867e+000
7.944357e+002,4.848877e+000
7.953999e+002,4.941162e+000
7.963641e+002,4.481934e+000
7.973284e+002,3.634125e+000
7.982926e+002,2.328339e+000
7.992568e+002,2.294250e+000
8.002211e+002,3.984802e+000
8.011853e+002,5.089661e+000
8.021495e+002,4.788635e+000
8.031138e+002,3.662262e+000
8.040780e+002,3.035187e+000
8.050422e+002,2.963501e+000
8.060065e+002,3.279755e+000
8.069707e+002,4.047058e+000
8.079349e+002,4.838409e+000
8.088992e+002,5.169617e+000
8.098634e+002,5.006653e+000
8.108276e+002,5.050934e+000
8.117919e+002,6.428528e+000
8.127561e+002,8.295837e+000
8.137203e+002,9.736359e+000
8.146846e+002,1.078537e+001
8.156488e+002,1.102802e+001
8.166130e+002,9.624390e+000
8.175773e+002,5.953857e+000
8.185415e+002,4.117889e+000
8.195057e+002,4.997894e+000
8.204700e+002,5.917633e+000
8.214342e+002,5.849243e+000
8.223984e+002,5.157379e+000
8.233627e+002,4.971497e+000
8.243269e+002,6.009369e+000
8.252911e+002,7.071289e+000
8.262554e+002,7.211853e+000
8.272196e+002,7.104614e+000
8.281838e+002,7.805267e+000
8.291481e+002,9.456573e+000
8.301123e+002,1.078494e+001
8.310765e+002,9.278015e+000
8.320408e+002,5.112854e+000
8.330050e+002,1.953400e+000
8.339692e+002,2.346802e-002
8.349335e+002,-8.515320e-001
8.358977e+002,-5.268250e-001
8.368619e+002,1.283203e+000
8.378262e+002,2.888245e+000
8.387904e+002,4.025574e+000
8.397546e+002,4.926605e+000
8.407189e+002,5.658112e+000
8.416831e+002,6.219513e+000
8.426473e+002,6.658783e+000
8.436116e+002,7.070984e+000
8.445758e+002,7.141998e+000
8.455400e+002,5.462128e+000
8.465043e+002,3.440948e+000
8.474685e+002,3.213440e+000
8.484327e+002,5.332062e+000
8.493970e+002,8.604340e+000
8.503612e+002,1.086139e+001
8.513254e+002,1.189996e+001
8.522897e+002,1.221671e+001
8.532539e+002,1.142841e+001
8.542181e+002,1.031366e+001
8.551824e+002,9.266266e+000
8.561466e+002,8.502075e+000
8.571108e+002,8.477783e+000
8.580751e+002,9.149323e+000
8.590393e+002,1.001886e+001
8.600035e+002,1.161111e+001
8.609678e+002,1.324426e+001
8.619320e+002,1.366599e+001
8.628962e+002,1.251892e+001
8.638605e+002,1.167938e+001
8.648247e+002,1.515833e+001
8.657889e+002,2.067712e+001
8.667532e+002,2.314771e+001
8.677174e+002,2.190576e+001
8.686816e+002,1.933636e+001
8.696459e+002,1.816440e+001
8.706101e+002,1.870932e+001
8.715743e+002,1.901611e+001
8.725386e+002,1.897513e+001
8.735028e+002,1.890204e+001
8.744670e+002,1.826224e+001
8.754313e+002,1.754443e+001
8.763955e+002,1.803278e+001
8.773597e+002,2.067325e+001
8.783240e+002,2.303857e+001
8.792882e+002,2.273309e+001
8.802524e+002,2.166275e+001
8.812167e+002,2.144449e+001
8.821809e+002,2.242535e+001
8.831451e+002,2.407065e+001
8.841094e+002,2.578748e+001
8.850736e+002,2.761188e+001
8.860378e+002,2.834216e+001
8.870021e+002,2.749286e+001
8.879663e+002,2.699463e+001
8.889305e+002,2.861426e+001
8.898948e+002,3.159418e+001
8.908590e+002,3.207318e+001
8.918232e+002,2.769958e+001
8.927875e+002,2.455576e+001
8.937517e+002,2.411035e+001
8.947159e+002,2.510275e+001
8.956802e+002,2.681973e+001
8.966444e+002,2.875479e+001
8.976086e+002,3.019800e+001
8.985729e+002,3.060864e+001
8.995371e+002,3.016422e+001
9.005013e+002,2.857614e+001
9.014656e+002,2.629303e+001
9.024298e+002,2.499817e+001
9.033940e+002,2.596631e+001
9.043583e+002,2.874463e+001
9.053225e+002,3.072601e+001
9.062867e+002,3.152029e+001
9.072510e+002,3.161792e+001
9.082152e+002,3.047995e+001
9.091794e+002,2.937509e+001
9.101437e+002,2.975006e+001
9.111079e+002,3.183328e+001
9.120721e+002,3.371042e+001
9.130364e+002,3.409540e+001
9.140006e+002,3.372916e+001
9.149648e+002,3.295410e+001
9.159291e+002,3.200073e+001
9.168933e+002,3.075281e+001
9.178575e+002,2.908957e+001
9.188218e+002,2.754333e+001
9.197860e+002,2.886020e+001
9.207502e+002,3.310736e+001
9.217145e+002,3.521310e+001
9.226787e+002,3.360095e+001
9.236429e+002,3.044485e+001
9.246072e+002,2.826843e+001
9.255714e+002,2.695139e+001
9.265356e+002,2.657864e+001
9.274999e+002,2.806262e+001
9.284641e+002,2.936017e+001
9.294283e+002,3.001291e+001
9.303926e+002,3.004535e+001
9.313568e+002,2.949506e+001
9.323210e+002,2.832727e+001
9.332853e+002,2.699744e+001
9.342495e+002,2.645035e+001
9.352137e+002,2.616119e+001
9.361780e+002,2.551315e+001
9.371422e+002,2.448288e+001
9.381064e+002,2.309528e+001
9.390707e+002,2.100403e+001
9.400349e+002,1.756836e+001
9.409991e+002,1.670355e+001
9.419634e+002,2.055270e+001
9.429276e+002,2.376773e+001
9.438918e+002,2.449591e+001
9.448561e+002,2.393610e+001
9.458203e+002,2.425098e+001
9.467845e+002,2.621771e+001
9.477488e+002,2.842267e+001
9.487130e+002,3.028433e+001
9.496772e+002,3.152826e+001
9.506415e+002,3.156174e+001
9.516057e+002,3.060388e+001
9.525699e+002,2.953763e+001
9.535342e+002,2.921408e+001
9.544984e+002,2.941702e+001
9.554626e+002,2.872974e+001
9.564269e+002,2.720175e+001
9.573911e+002,2.597690e+001
9.583553e+002,2.524582e+001
9.593196e+002,2.493713e+001
9.602838e+002,2.500977e+001
9.612480e+002,2.546875e+001
9.622123e+002,2.604700e+001
9.631765e+002,2.801422e+001
9.641407e+002,2.888693e+001
9.651050e+002,2.617542e+001
9.660692e+002,2.144870e+001
9.670334e+002,1.812460e+001
9.679977e+002,1.842606e+001
9.689619e+002,2.100134e+001
9.699261e+002,2.334491e+001
9.708904e+002,2.526425e+001
9.718546e+002,2.602917e+001
9.728188e+002,2.508755e+001
9.737831e+002,2.429611e+001
9.747473e+002,2.673721e+001
9.757115e+002,3.349551e+001
9.766758e+002,3.785773e+001
9.776400e+002,3.873697e+001
9.786042e+002,3.880829e+001
9.795685e+002,3.826505e+001
9.805327e+002,3.717679e+001
9.814969e+002,3.557422e+001
9.824612e+002,3.357404e+001
9.834254e+002,3.159479e+001
9.843896e+002,2.974017e+001
9.853539e+002,2.801166e+001
9.863181e+002,2.661841e+001
9.872823e+002,2.537515e+001
9.882466e+002,2.379044e+001
9.892108e+002,2.158139e+001
9.901750e+002,1.915939e+001
9.911393e+002,1.801541e+001
9.921035e+002,1.783920e+001
9.930677e+002,1.876123e+001
9.940320e+002,2.196381e+001
9.949962e+002,2.569409e+001
9.959604e+002,2.839752e+001
9.969247e+002,2.998856e+001
9.978889e+002,3.115421e+001
9.988531e+002,3.136816e+001
9.998174e+002,3.176645e+001
1.000782e+003,3.349384e+001
1.001746e+003,3.594736e+001
1.002710e+003,3.854245e+001
1.003674e+003,4.079089e+001
1.004639e+003,4.179675e+001
1.005603e+003,3.963947e+001
1.006567e+003,3.388916e+001
1.007531e+003,3.193661e+001
1.008495e+003,3.523071e+001
1.009460e+003,3.920932e+001
1.010424e+003,4.181534e+001
1.011388e+003,4.306589e+001
1.012352e+003,4.255844e+001
1.013317e+003,3.892065e+001
1.014281e+003,3.598526e+001
1.015245e+003,3.534219e+001
1.016209e+003,3.516592e+001
1.017174e+003,3.419135e+001
1.018138e+003,3.238034e+001
1.019102e+003,3.056339e+001
1.020066e+003,2.949854e+001
1.021031e+003,2.886304e+001
1.021995e+003,2.739563e+001
1.022959e+003,2.509140e+001
1.023923e+003,2.243121e+001
1.024887e+003,1.938190e+001
1.025852e+003,1.630118e+001
1.026816e+003,1.369318e+001
1.027780e+003,1.157297e+001
1.028744e+003,1.050391e+001
1.029709e+003,1.198447e+001
1.030673e+003,1.273129e+001
1.031637e+003,1.089023e+001
1.032601e+003,7.989685e+000
1.033566e+003,6.259338e+000
1.034530e+003,6.521576e+000
1.035494e+003,7.810822e+000
1.036458e+003,9.750092e+000
1.037422e+003,1.143790e+001
1.038387e+003,1.115082e+001
1.039351e+003,8.998047e+000
1.040315e+003,6.585297e+000
1.041279e+003,5.058746e+000
1.042244e+003,4.472992e+000
1.043208e+003,4.886017e+000
1.044172e+003,7.125793e+000
1.045136e+003,8.634979e+000
1.046101e+003,9.333008e+000
1.047065e+003,9.533447e+000
1.048029e+003,8.838806e+000
1.048993e+003,7.681091e+000
1.049958e+003,7.740326e+000
1.050922e+003,1.043417e+001
1.051886e+003,1.319525e+001
1.052850e+003,1.332898e+001
1.053814e+003,1.195651e+001
1.054779e+003,1.012314e+001
1.055743e+003,8.190979e+000
1.056707e+003,6.384125e+000
1.057671e+003,4.933258e+000
1.058636e+003,3.806580e+000
1.059600e+003,3.955383e+000
1.060564e+003,7.105072e+000
1.061528e+003,9.363434e+000
1.062493e+003,9.769287e+000
1.063457e+003,9.034943e+000
1.064421e+003,7.697876e+000
1.065385e+003,5.935547e+000
1.066349e+003,4.755707e+000
1.067314e+003,4.989136e+000
1.068278e+003,5.639313e+000
1.069242e+003,6.544678e+000
1.070206e+003,7.253418e+000
1.071171e+003,6.602142e+000
1.072135e+003,4.280182e+000
1.073099e+003,1.803101e+000
1.074063e+003,1.931183e+000
1.075028e+003,5.052094e+000
1.075992e+003,6.874634e+000
1.076956e+003,6.816925e+000
1.077920e+003,6.474274e+000
1.078885e+003,6.375122e+000
1.079849e+003,6.600677e+000
1.080813e+003,7.400085e+000
1.081777e+003,9.028381e+000
1.082741e+003,1.013797e+001
1.083706e+003,8.921814e+000
1.084670e+003,7.638489e+000
1.085634e+003,7.437408e+000
1.086598e+003,8.180939e+000
1.087563e+003,9.814819e+000
1.088527e+003,1.220734e+001
1.089491e+003,1.425580e+001
1.090455e+003,1.324655e+001
1.091420e+003,8.620880e+000
1.092384e+003,6.763397e+000
1.093348e+003,9.084198e+000
1.094312e+003,1.128806e+001
1.095276e+003,1.079489e+001
1.096241e+003,8.467712e+000
1.097205e+003,6.508850e+000
1.098169e+003,4.845154e+000
1.099133e+003,4.143127e+000
1.100098e+003,5.295868e+000
1.101062e+003,6.929230e+000
1.102026e+003,8.970337e+000
1.102990e+003,1.070435e+001
1.103955e+003,1.068417e+001
1.104919e+003,8.035706e+000
1.105883e+003,3.959686e+000
1.106847e+003,6.388550e-001
1.107812e+003,-1.751923e+000
1.108776e+003,-5.575867e-001
1.109740e+003,6.294830e+000
1.110704e+003,1.268280e+001
1.111668e+003,1.370776e+001
1.112633e+003,1.069388e+001
1.113597e+003,8.933502e+000
1.114561e+003,9.019379e+000
1.115525e+003,9.840393e+000
1.116490e+003,1.154269e+001
1.117454e+003,1.322888e+001
1.118418e+003,1.431638e+001
1.119382e+003,1.505905e+001
1.120347e+003,1.608655e+001
1.121311e+003,1.766272e+001
1.122275e+003,1.928473e+001
1.123239e+003,2.066760e+001
1.124203e+003,2.181238e+001
1.125168e+003,2.049969e+001
1.126132e+003,1.522742e+001
1.127096e+003,1.109982e+001
1.128060e+003,1.311163e+001
1.129025e+003,1.966946e+001
1.129989e+003,2.322180e+001
1.130953e+003,2.186774e+001
1.131917e+003,2.050140e+001
1.132882e+003,1.987653e+001
1.133846e+003,2.030005e+001
1.134810e+003,2.262460e+001
1.135774e+003,2.611063e+001
1.136739e+003,2.931586e+001
1.137703e+003,3.139923e+001
1.138667e+003,3.244165e+001
1.139631e+003,3.202267e+001
1.140595e+003,3.057913e+001
1.141560e+003,3.184985e+001
1.142524e+003,3.666040e+001
1.143488e+003,4.231024e+001
1.144452e+003,4.652237e+001
1.145417e+003,5.004456e+001
1.146381e+003,5.590237e+001
1.147345e+003,6.525266e+001
1.148309e+003,7.389191e+001
1.149274e+003,7.930350e+001
1.150238e+003,8.545975e+001
1.151202e+003,9.485614e+001
1.152166e+003,1.066277e+002
1.153130e+003,1.194159e+002
1.154095e+003,1.321807e+002
1.155059e+003,1.431019e+002
1.156023e+003,1.498588e+002
1.156987e+003,1.523944e+002
1.157952e+003,1.524527e+002
1.158916e+003,1.502718e+002
1.159880e+003,1.464123e+002
1.160844e+003,1.404584e+002
1.161809e+003,1.326228e+002
1.162773e+003,1.238845e+002
1.163737e+003,1.142281e+002
1.164701e+003,1.038179e+002
1.165666e+003,9.147217e+001
1.166630e+003,7.991037e+001
1.167594e+003,6.939987e+001
1.168558e+003,6.056339e+001
1.169522e+003,5.456140e+001
1.170487e+003,5.142612e+001
1.171451e+003,4.955173e+001
1.172415e+003,4.714688e+001
1.173379e+003,4.435251e+001
1.174344e+003,4.204272e+001
1.175308e+003,4.018747e+001
1.176272e+003,3.913821e+001
1.177236e+003,3.960754e+001
1.178201e+003,4.058322e+001
1.179165e+003,4.083054e+001
1.180129e+003,4.024023e+001
1.181093e+003,3.860449e+001
1.182057e+003,3.448517e+001
1.183022e+003,3.161996e+001
1.183986e+003,3.238104e+001
1.184950e+003,3.420462e+001
1.185914e+003,3.467511e+001
1.186879e+003,3.361209e+001
1.187843e+003,3.224271e+001
1.188807e+003,3.149432e+001
1.189771e+003,3.140820e+001
1.190736e+003,3.264923e+001
1.191700e+003,3.547366e+001
1.192664e+003,3.647873e+001
1.193628e+003,3.404584e+001
1.194593e+003,3.167001e+001
1.195557e+003,3.262244e+001
1.196521e+003,3.563708e+001
1.197485e+003,3.594229e+001
1.198449e+003,3.185074e+001
1.199414e+003,2.826318e+001
1.200378e+003,2.798877e+001
1.201342e+003,2.842487e+001
1.202306e+003,2.781329e+001
1.203271e+003,2.655029e+001
1.204235e+003,2.625012e+001
1.205199e+003,2.755954e+001
1.206163e+003,2.882080e+001
1.207128e+003,2.704932e+001
1.208092e+003,2.203806e+001
1.209056e+003,1.898315e+001
1.210020e+003,1.880240e+001
1.210984e+003,1.838843e+001
1.211949e+003,1.671771e+001
1.212913e+003,1.435907e+001
1.213877e+003,1.193188e+001
1.214841e+003,9.550262e+000
1.215806e+003,7.562469e+000
1.216770e+003,6.083466e+000
1.217734e+003,5.022736e+000
1.218698e+003,4.461365e+000
1.219663e+003,3.985229e+000
1.220627e+003,3.157135e+000
1.221591e+003,1.886230e+000
1.222555e+003,2.128296e-001
1.223520e+003,-1.831329e+000
1.224484e+003,-3.976410e+000
1.225448e+003,-5.218475e+000
1.226412e+003,-5.039673e+000
1.227376e+003,-5.123474e+000
1.228341e+003,-5.721252e+000
1.229305e+003,-6.387207e+000
1.230269e+003,-7.121063e+000
1.231233e+003,-7.702148e+000
1.232198e+003,-7.413635e+000
1.233162e+003,-5.935699e+000
1.234126e+003,-4.830261e+000
1.235090e+003,-5.705597e+000
1.236055e+003,-7.260193e+000
1.237019e+003,-8.149414e+000
1.237983e+003,-8.523163e+000
1.238947e+003,-8.688599e+000
1.239911e+003,-8.716858e+000
1.240876e+003,-8.879425e+000
1.241840e+003,-9.872589e+000
1.242804e+003,-1.184433e+001
1.243768e+003,-1.183829e+001
1.244733e+003,-7.096619e+000
1.245697e+003,-4.007904e+000
1.246661e+003,-4.424286e+000
1.247625e+003,-5.655853e+000
1.248590e+003,-5.405853e+000
1.249554e+003,-3.977325e+000
1.250518e+003,-3.202637e+000
1.251482e+003,-4.000336e+000
1.252447e+003,-5.596069e+000
1.253411e+003,-7.379639e+000
1.254375e+003,-8.924103e+000
1.255339e+003,-9.500702e+000
1.256303e+003,-9.023376e+000
1.257268e+003,-7.783630e+000
1.258232e+003,-5.953766e+000
1.259196e+003,-3.779297e+000
1.260160e+003,-1.226257e+000
1.261125e+003,2.111572e+000
1.262089e+003,3.963684e+000
1.263053e+003,2.386475e+000
1.264017e+003,1.105011e+000
1.264982e+003,1.330475e+000
1.265946e+003,2.089172e+000
1.266910e+003,2.492706e+000
1.267874e+003,2.446045e+000
1.268839e+003,2.297211e+000
1.269803e+003,2.278198e+000
1.270767e+003,2.420471e+000
1.271731e+003,2.858368e+000
1.272695e+003,3.641785e+000
1.273660e+003,4.332977e+000
1.274624e+003,4.883057e+000
1.275588e+003,4.838776e+000
1.276552e+003,3.684540e+000
1.277517e+003,2.127167e+000
1.278481e+003,1.718994e+000
1.279445e+003,2.681366e+000
1.280409e+003,1.998840e+000
1.281374e+003,-3.545532e+000
1.282338e+003,-7.776886e+000
1.283302e+003,-6.424194e+000
1.284266e+003,-2.857117e+000
1.285230e+003,-6.332703e-001
1.286195e+003,-4.886780e-001
1.287159e+003,-1.300964e+000
1.288123e+003,-2.100433e+000
1.289087e+003,-2.922058e+000
1.290052e+003,-4.182281e+000
1.291016e+003,-6.377136e+000
1.291980e+003,-7.519470e+000
1.292944e+003,-7.074493e+000
1.293909e+003,-6.617065e+000
1.294873e+003,-6.710083e+000
1.295837e+003,-6.948273e+000
1.296801e+003,-6.585419e+000
1.297766e+003,-5.622833e+000
1.298730e+003,-5.401337e+000
1.299694e+003,-7.145447e+000
1.300658e+003,-9.125153e+000
1.301622e+003,-9.607788e+000
1.302587e+003,-8.874268e+000
1.303551e+003,-6.502167e+000
1.304515e+003,-2.734985e+000
1.305479e+003,-6.794434e-001
1.306444e+003,-3.383636e+000
1.307408e+003,-9.077057e+000
1.308372e+003,-1.127774e+001
1.309336e+003,-8.445984e+000
1.310301e+003,-6.886139e+000
1.311265e+003,-8.245941e+000
1.312229e+003,-9.082001e+000
1.313193e+003,-8.056488e+000
1.314157e+003,-6.304321e+000
1.315122e+003,-4.672455e+000
1.316086e+003,-3.634094e+000
1.317050e+003,-3.842194e+000
1.318014e+003,-5.745392e+000
1.318979e+003,-8.433594e+000
1.319943e+003,-1.084232e+001
1.320907e+003,-1.265324e+001
1.321871e+003,-1.193903e+001
1.322836e+003,-8.002319e+000
1.323800e+003,-4.382813e+000
1.324764e+003,-2.911041e+000
1.325728e+003,-2.884430e+000
1.326693e+003,-3.652893e+000
1.327657e+003,-5.296021e+000
1.328621e+003,-5.550476e+000
1.329585e+003,-2.281494e+000
1.330549e+003,6.108093e-001
1.331514e+003,5.333557e-001
1.332478e+003,-8.866882e-001
1.333442e+003,-2.385071e+000
1.334406e+003,-3.524658e+000
1.335371e+003,-4.105530e+000
1.336335e+003,-4.024994e+000
1.337299e+003,-3.431274e+000
1.338263e+003,-2.573822e+000
1.339228e+003,-1.307159e+000
1.340192e+003,-1.125275e+000
1.341156e+003,-3.117767e+000
1.342120e+003,-4.529358e+000
1.343084e+003,-4.618561e+000
1.344049e+003,-4.541321e+000
1.345013e+003,-5.242859e+000
1.345977e+003,-6.425140e+000
1.346941e+003,-7.181519e+000
1.347906e+003,-7.198456e+000
1.348870e+003,-6.865845e+000
1.349834e+003,-6.800751e+000
1.350798e+003,-6.463837e+000
1.351763e+003,-3.963898e+000
1.352727e+003,8.901978e-002
1.353691e+003,1.694824e+000
1.354655e+003,-1.018097e+000
1.355620e+003,-5.045258e+000
1.356584e+003,-7.030762e+000
1.357548e+003,-7.096863e+000
1.358512e+003,-6.560333e+000
1.359476e+003,-5.162476e+000
1.360441e+003,-4.399567e+000
1.361405e+003,-5.340271e+000
1.362369e+003,-6.100891e+000
1.363333e+003,-5.274841e+000
1.364298e+003,-3.904510e+000
1.365262e+003,-3.732056e+000
1.366226e+003,-4.971039e+000
1.367190e+003,-6.158142e+000
1.368155e+003,-5.981598e+000
1.369119e+003,-4.900116e+000
1.370083e+003,-4.354309e+000
1.371047e+003,-4.533295e+000
1.372011e+003,-4.079407e+000
1.372976e+003,-2.187286e+000
1.373940e+003,-1.037750e+000
1.374904e+003,-1.928436e+000
1.375868e+003,-3.556915e+000
1.376833e+003,-4.391022e+000
1.377797e+003,-4.354980e+000
1.378761e+003,-4.046967e+000
1.379725e+003,-3.561981e+000
1.380690e+003,-3.253845e+000
1.381654e+003,-3.914490e+000
1.382618e+003,-4.705566e+000
1.383582e+003,-4.286896e+000
1.384547e+003,-2.750488e+000
1.385511e+003,-1.298096e+000
1.386475e+003,-5.538635e-001
1.387439e+003,-3.264771e-001
1.388403e+003,-4.676514e-001
1.389368e+003,-9.885864e-001
1.390332e+003,-8.937073e-001
1.391296e+003,8.937683e-001
1.392260e+003,1.295654e+000
1.393225e+003,-2.300873e+000
1.394189e+003,-5.335876e+000
1.395153e+003,-4.304535e+000
1.396117e+003,-1.371735e+000
1.397082e+003,-4.732666e-001
1.398046e+003,-2.281708e+000
1.399010e+003,-3.670807e+000
1.399974e+003,-1.807831e+000
1.400938e+003,1.898041e+000
1.401903e+003,3.431793e+000
1.402867e+003,2.640991e+000
1.403831e+003,1.625336e+000
1.404795e+003,-7.404785e-001
1.405760e+003,-2.177307e+000
1.406724e+003,-1.194885e+000
1.407688e+003,1.833191e-001
1.408652e+003,-5.088806e-001
1.409617e+003,-2.871094e+000
1.410581e+003,-4.412323e+000
1.411545e+003,-4.132202e+000
1.412509e+003,-2.964233e+000
1.413474e+003,-1.511414e+000
1.414438e+003,-1.369629e-001
1.415402e+003,1.036041e+000
1.416366e+003,2.004456e+000
1.417330e+003,2.006317e+000
1.418295e+003,5.131531e-001
1.419259e+003,-1.152588e+000
1.420223e+003,-1.391449e+000
1.421187e+003,-5.303040e-001
1.422152e+003,-1.418457e-001
1.423116e+003,-2.922363e-001
1.424080e+003,-2.988892e-001
1.425044e+003,4.547729e-001
1.426009e+003,6.163635e-001
1.426973e+003,-1.713531e+000
1.427937e+003,-4.159637e+000
1.428901e+003,-3.124390e+000
1.429865e+003,1.023987e+000
1.430830e+003,4.575104e+000
1.431794e+003,5.015839e+000
1.432758e+003,3.486023e+000
1.433722e+003,2.307281e+000
1.434687e+003,1.611725e+000
1.435651e+003,2.118286e+000
1.436615e+003,4.739929e+000
1.437579e+003,6.269623e+000
1.438544e+003,5.513214e+000
1.439508e+003,4.639862e+000
1.440472e+003,5.661285e+000
1.441436e+003,7.607452e+000
1.442401e+003,8.235840e+000
1.443365e+003,7.046112e+000
1.444329e+003,5.512726e+000
1.445293e+003,4.709412e+000
1.446257e+003,4.389557e+000
1.447222e+003,3.955383e+000
1.448186e+003,3.488312e+000
1.449150e+003,3.647430e+000
1.450114e+003,4.561890e+000
1.451079e+003,5.604187e+000
1.452043e+003,6.665466e+000
1.453007e+003,7.713684e+000
1.453971e+003,8.953735e+000
1.454936e+003,1.012885e+001
1.455900e+003,9.407684e+000
1.456864e+003,5.677002e+000
1.457828e+003,2.892365e+000
1.458792e+003,4.447052e+000
1.459757e+003,6.722351e+000
1.460721e+003,6.626892e+000
1.461685e+003,5.016693e+000
1.462649e+003,3.829620e+000
1.463614e+003,3.660553e+000
1.464578e+003,4.057404e+000
1.465542e+003,4.680542e+000
1.466506e+003,5.275696e+000
1.467471e+003,5.161407e+000
1.468435e+003,4.288635e+000
1.469399e+003,3.745209e+000
1.470363e+003,3.210541e+000
1.471328e+003,3.257629e+000
1.472292e+003,4.611755e+000
1.473256e+003,5.736511e+000
1.474220e+003,5.531525e+000
1.475184e+003,4.545410e+000
1.476149e+003,3.648712e+000
1.477113e+003,3.170563e+000
1.478077e+003,3.186340e+000
1.479041e+003,3.886047e+000
1.480006e+003,5.281555e+000
1.480970e+003,7.193970e+000
1.481934e+003,9.895721e+000
1.482898e+003,1.121735e+001
1.483863e+003,1.029736e+001
1.484827e+003,9.308075e+000
1.485791e+003,8.647095e+000
1.486755e+003,8.525482e+000
1.487719e+003,9.162506e+000
1.488684e+003,1.032962e+001
1.489648e+003,1.169739e+001
1.490612e+003,1.320572e+001
1.491576e+003,1.453873e+001
1.492541e+003,1.525580e+001
1.493505e+003,1.577594e+001
1.494469e+003,1.715073e+001
1.495433e+003,1.909708e+001
1.496398e+003,2.083032e+001
1.497362e+003,2.234137e+001
1.498326e+003,2.412805e+001
1.499290e+003,2.656723e+001
1.500255e+003,2.928799e+001
1.501219e+003,3.169879e+001
1.502183e+003,3.382599e+001
1.503147e+003,3.598560e+001
1.504111e+003,3.807980e+001
1.505076e+003,4.106848e+001
1.506040e+003,4.571521e+001
1.507004e+003,5.142175e+001
1.507968e+003,5.769821e+001
1.508933e+003,6.442847e+001
1.509897e+003,7.117767e+001
1.510861e+003,7.815845e+001
1.511825e+003,8.662360e+001
1.512790e+003,9.756918e+001
1.513754e+003,1.098393e+002
1.514718e+003,1.214372e+002
1.515682e+003,1.322189e+002
1.516646e+003,1.435215e+002
1.517611e+003,1.564102e+002
1.518575e+003,1.678833e+002
1.519539e+003,1.774099e+002
1.520503e+003,1.851591e+002
1.521468e+003,1.908363e+002
1.522432e+003,1.948127e+002
1.523396e+003,1.976201e+002
1.524360e+003,1.992818e+002
1.525325e+003,1.997157e+002
1.526289e+003,1.989019e+002
1.527253e+003,1.961629e+002
1.528217e+003,1.899408e+002
1.529182e+003,1.803100e+002
1.530146e+003,1.715517e+002
1.531110e+003,1.654598e+002
1.532074e+003,1.564901e+002
1.533039e+003,1.431478e+002
1.534003e+003,1.278114e+002
1.534967e+003,1.099575e+002
1.535931e+003,9.238049e+001
1.536896e+003,7.795840e+001
1.537860e+003,6.677963e+001
1.538824e+003,5.722137e+001
1.539788e+003,4.833417e+001
1.540752e+003,4.031241e+001
1.541717e+003,3.342398e+001
1.542681e+003,2.783755e+001
1.543645e+003,2.396625e+001
1.544609e+003,2.277295e+001
1.545573e+003,2.133664e+001
1.546538e+003,1.951340e+001
1.547502e+003,1.723889e+001
1.548466e+003,1.363199e+001
1.549430e+003,1.060733e+001
1.550395e+003,1.048682e+001
1.551359e+003,1.245563e+001
1.552323e+003,1.400250e+001
1.553287e+003,1.424377e+001
1.554252e+003,1.388229e+001
1.555216e+003,1.342426e+001
1.556180e+003,1.299384e+001
1.557144e+003,1.305374e+001
1.558109e+003,1.367157e+001
1.559073e+003,1.346140e+001
1.560037e+003,1.174518e+001
1.561001e+003,1.012158e+001
1.561966e+003,9.222839e+000
1.562930e+003,8.908234e+000
1.563894e+003,9.222198e+000
1.564858e+003,9.791016e+000
1.565823e+003,9.858002e+000
1.566787e+003,9.270630e+000
1.567751e+003,8.294769e+000
1.568715e+003,6.875366e+000
1.569679e+003,5.965729e+000
1.570644e+003,7.488983e+000
1.571608e+003,1.008841e+001
1.572572e+003,9.601685e+000
1.573536e+003,5.909790e+000
1.574500e+003,3.765717e+000
1.575465e+003,5.408539e+000
1.576429e+003,7.837769e+000
1.577393e+003,8.679291e+000
1.578357e+003,8.517609e+000
1.579322e+003,8.466614e+000
1.580286e+003,8.674133e+000
1.581250e+003,9.268677e+000
1.582214e+003,1.040405e+001
1.583179e+003,1.148367e+001
1.584143e+003,1.192044e+001
1.585107e+003,1.204852e+001
1.586071e+003,1.271368e+001
1.587036e+003,1.374799e+001
1.588000e+003,1.402072e+001
1.588964e+003,1.314267e+001
1.589928e+003,1.220737e+001
1.590893e+003,1.185617e+001
1.591857e+003,1.198279e+001
1.592821e+003,1.258026e+001
1.593785e+003,1.358142e+001
1.594750e+003,1.458737e+001
1.595714e+003,1.561182e+001
1.596678e+003,1.572348e+001
1.597642e+003,1.384366e+001
1.598606e+003,1.201917e+001
1.599571e+003,1.168201e+001
1.600535e+003,1.254401e+001
1.601499e+003,1.514706e+001
1.602463e+003,1.875665e+001
1.603427e+003,1.994891e+001
1.604392e+003,1.705115e+001
1.605356e+003,1.385568e+001
1.606320e+003,1.506168e+001
1.607284e+003,1.867682e+001
1.608249e+003,1.829251e+001
1.609213e+003,1.371521e+001
1.610177e+003,1.156522e+001
1.611141e+003,1.414960e+001
1.612106e+003,1.616837e+001
1.613070e+003,1.375574e+001
1.614034e+003,1.102359e+001
1.614998e+003,1.087894e+001
1.615963e+003,1.251749e+001
1.616927e+003,1.500345e+001
1.617891e+003,1.774127e+001
1.618855e+003,1.875037e+001
1.619820e+003,1.651517e+001
1.620784e+003,1.333237e+001
1.621748e+003,1.289993e+001
1.622712e+003,1.490289e+001
1.623677e+003,1.634442e+001
1.624641e+003,1.728091e+001
1.625605e+003,1.717758e+001
1.626569e+003,1.458054e+001
1.627533e+003,1.247681e+001
1.628498e+003,1.303793e+001
1.629462e+003,1.434097e+001
1.630426e+003,1.494476e+001
1.631390e+003,1.486066e+001
1.632354e+003,1.413086e+001
1.633319e+003,1.294144e+001
1.634283e+003,1.267639e+001
1.635247e+003,1.466983e+001
1.636211e+003,1.711548e+001
1.637176e+003,1.622153e+001
1.638140e+003,1.238452e+001
1.639104e+003,1.102142e+001
1.640068e+003,1.290762e+001
1.641033e+003,1.462561e+001
1.641997e+003,1.568335e+001
1.642961e+003,1.604810e+001
1.643925e+003,1.509543e+001
1.644890e+003,1.398358e+001
1.645854e+003,1.393845e+001
1.646818e+003,1.466879e+001
1.647782e+003,1.515552e+001
1.648747e+003,1.509576e+001
1.649711e+003,1.516119e+001
1.650675e+003,1.603973e+001
1.651639e+003,1.737878e+001
1.652604e+003,1.848190e+001
1.653568e+003,1.925381e+001
1.654532e+003,1.867789e+001
1.655496e+003,1.604184e+001
1.656460e+003,1.447678e+001
1.657425e+003,1.588840e+001
1.658389e+003,1.731000e+001
1.659353e+003,1.699020e+001
1.660317e+003,1.595773e+001
1.661281e+003,1.521658e+001
1.662246e+003,1.473590e+001
1.663210e+003,1.420148e+001
1.664174e+003,1.353992e+001
1.665138e+003,1.264548e+001
1.666103e+003,1.122653e+001
1.667067e+003,9.656708e+000
1.668031e+003,8.970795e+000
1.668995e+003,9.104431e+000
1.669960e+003,8.365509e+000
1.670924e+003,6.267426e+000
1.671888e+003,5.085266e+000
1.672852e+003,6.067932e+000
1.673817e+003,7.194946e+000
1.674781e+003,6.294800e+000
1.675745e+003,5.467834e+000
1.676709e+003,7.968750e+000
1.677674e+003,1.257669e+001
1.678638e+003,1.516656e+001
1.679602e+003,1.444705e+001
1.680566e+003,1.193497e+001
1.681531e+003,7.885529e+000
1.682495e+003,4.129303e+000
1.683459e+003,4.489288e+000
1.684423e+003,8.044037e+000
1.685387e+003,8.985748e+000
1.686352e+003,6.438782e+000
1.687316e+003,4.843842e+000
1.688280e+003,6.393097e+000
1.689244e+003,7.721191e+000
1.690208e+003,5.033386e+000
1.691173e+003,1.645813e+000
1.692137e+003,1.724030e+000
1.693101e+003,4.416107e+000
1.694065e+003,6.393921e+000
1.695030e+003,6.761536e+000
1.695994e+003,5.937317e+000
1.696958e+003,3.376312e+000
1.697922e+003,8.799133e-001
1.698887e+003,1.173523e+000
1.699851e+003,3.318909e+000
1.700815e+003,4.494995e+000
1.701779e+003,4.381653e+000
1.702744e+003,2.951447e+000
1.703708e+003,-2.843323e-001
1.704672e+003,-2.260315e+000
1.705636e+003,-6.924438e-002
1.706601e+003,3.577301e+000
1.707565e+003,5.128845e+000
1.708529e+003,5.008392e+000
1.709493e+003,3.875153e+000
1.710458e+003,1.629547e+000
1.711422e+003,-1.654358e-001
1.712386e+003,-8.923340e-001
1.713350e+003,-7.268677e-001
1.714314e+003,5.475769e-001
1.715279e+003,2.190674e+000
1.716243e+003,3.118439e+000
1.717207e+003,3.339142e+000
1.718171e+003,3.126068e+000
1.719135e+003,2.582581e+000
1.720100e+003,2.927094e+000
1.721064e+003,5.403076e+000
1.722028e+003,7.651337e+000
1.722992e+003,5.788605e+000
1.723957e+003,9.378052e-001
1.724921e+003,-9.607391e-001
1.725885e+003,3.615112e-001
1.726849e+003,1.168060e+000
1.727814e+003,5.697632e-001
1.728778e+003,2.478638e-001
1.729742e+003,1.116180e+000
1.730706e+003,2.318420e+000
1.731671e+003,3.139221e+000
1.732635e+003,3.349854e+000
1.733599e+003,2.899139e+000
1.734563e+003,1.944031e+000
1.735528e+003,4.360352e-001
1.736492e+003,-1.701447e+000
1.737456e+003,-3.040939e+000
1.738420e+003,-1.672470e+000
1.739385e+003,1.265930e+000
1.740349e+003,1.837341e+000
1.741313e+003,-5.656281e-001
1.742277e+003,-1.775208e+000
1.743241e+003,-4.521027e-001
1.744206e+003,9.547424e-002
1.745170e+003,-1.644669e+000
1.746134e+003,-3.114090e+000
1.747098e+003,-2.945190e+000
1.748063e+003,-1.738739e+000
1.749027e+003,3.616180e-001
1.749991e+003,2.668060e+000
1.750955e+003,3.971466e+000
1.751919e+003,3.810028e+000
1.752884e+003,2.355606e+000
1.753848e+003,-2.802887e-001
1.754812e+003,-3.335815e+000
1.755776e+003,-5.252243e+000
1.756741e+003,-5.925583e+000
1.757705e+003,-5.182663e+000
1.758669e+003,-2.300903e+000
1.759633e+003,-4.395294e-001
1.760598e+003,-7.611389e-001
1.761562e+003,-1.123886e+000
1.762526e+003,-4.741974e-001
1.763490e+003,1.618500e-001
1.764455e+003,2.164917e-001
1.765419e+003,-2.816772e-001
1.766383e+003,-1.816391e+000
1.767347e+003,-3.982880e+000
1.768312e+003,-4.738251e+000
1.769276e+003,-3.125671e+000
1.770240e+003,-1.138901e+000
1.771204e+003,-6.475372e-001
1.772168e+003,-1.071365e+000
1.773133e+003,-1.468338e+000
1.774097e+003,-1.828156e+000
1.775061e+003,-1.954758e+000
1.776025e+003,-1.919769e+000
1.776990e+003,-1.930862e+000
1.777954e+003,-1.958450e+000
1.778918e+003,-1.841766e+000
1.779882e+003,-1.405762e+000
1.780846e+003,-1.041519e+000
1.781811e+003,-1.453964e+000
1.782775e+003,-2.222794e+000
1.783739e+003,-1.802383e+000
1.784703e+003,2.198486e-001
1.785668e+003,1.595154e+000
1.786632e+003,8.918304e-001
1.787596e+003,-3.605652e-001
1.788560e+003,-9.136963e-001
1.789525e+003,-1.109497e+000
1.790489e+003,-1.893951e+000
1.791453e+003,-2.931381e+000
1.792417e+003,-2.520004e+000
1.793382e+003,-5.275726e-001
1.794346e+003,5.572357e-001
1.795310e+003,-6.582184e-001
1.796274e+003,-2.580811e+000
1.797239e+003,-3.344711e+000
1.798203e+003,-3.169769e+000
1.799167e+003,-3.301086e+000
1.800131e+003,-4.219635e+000
1.801095e+003,-3.898041e+000
1.802060e+003,-3.460999e-001
1.803024e+003,1.618149e+000
1.803988e+003,3.222961e-001
1.804952e+003,-1.327988e+000
1.805917e+003,-2.325516e+000
1.806881e+003,-2.716934e+000
1.807845e+003,-2.150482e+000
1.808809e+003,-1.203354e+000
1.809773e+003,-9.807892e-001
1.810738e+003,-1.682114e+000
1.811702e+003,-2.806091e+000
1.812666e+003,-4.019836e+000
1.813630e+003,-4.715363e+000
1.814595e+003,-3.900116e+000
1.815559e+003,-2.140182e+000
1.816523e+003,-1.903931e+000
1.817487e+003,-3.424683e+000
1.818452e+003,-3.264832e+000
1.819416e+003,-1.076050e-001
1.820380e+003,1.600250e+000
1.821344e+003,-1.132935e+000
1.822309e+003,-3.274414e+000
1.823273e+003,-7.348480e-001
1.824237e+003,3.088531e+000
1.825201e+003,5.074646e+000
1.826166e+003,5.277664e+000
1.827130e+003,4.117554e+000
1.828094e+003,1.696320e+000
1.829058e+003,-5.080566e-001
1.830022e+003,-1.831360e+000
1.830987e+003,-2.431976e+000
1.831951e+003,-2.062332e+000
1.832915e+003,-1.319473e+000
1.833879e+003,-1.130310e+000
1.834844e+003,-1.335144e+000
1.835808e+003,-9.841156e-001
1.836772e+003,-1.138916e-001
1.837736e+003,-8.955841e-001
1.838700e+003,-4.422516e+000
1.839665e+003,-7.428589e+000
1.840629e+003,-6.696075e+000
1.841593e+003,-3.917694e+000
1.842557e+003,-2.818359e+000
1.843522e+003,-3.370346e+000
1.844486e+003,-2.876923e+000
1.845450e+003,5.280457e-001
1.846414e+003,1.606964e+000
1.847379e+003,-2.389832e+000
1.848343e+003,-5.308731e+000
1.849307e+003,-4.562149e+000
1.850271e+003,-2.833160e+000
1.851236e+003,-1.758759e+000
1.852200e+003,-1.057846e+000
1.853164e+003,1.008606e-001
1.854128e+003,1.296890e+000
1.855093e+003,9.934692e-001
1.856057e+003,-1.086288e+000
1.857021e+003,-3.009842e+000
1.857985e+003,-3.264832e+000
1.858949e+003,-2.397812e+000
1.859914e+003,-9.548798e-001
1.860878e+003,8.924866e-001
1.861842e+003,2.123825e+000
1.862806e+003,2.698730e+000
1.863771e+003,1.763031e+000
1.864735e+003,-1.483856e+000
1.865699e+003,-3.388199e+000
1.866663e+003,-1.658051e+000
1.867627e+003,7.445831e-001
1.868592e+003,9.670105e-001
1.869556e+003,6.625366e-002
1.870520e+003,6.848145e-001
1.871484e+003,2.387939e+000
1.872449e+003,2.005432e+000
1.873413e+003,-1.297058e+000
1.874377e+003,-3.260666e+000
1.875341e+003,-2.176376e+000
1.876306e+003,-7.171478e-001
1.877270e+003,-1.757050e-001
1.878234e+003,-1.222534e-001
1.879198e+003,-2.779541e-001
1.880163e+003,-3.961792e-001
1.881127e+003,-4.341125e-002
1.882091e+003,7.216644e-001
1.883055e+003,1.579544e+000
1.884020e+003,2.274139e+000
1.884984e+003,2.046524e+000
1.885948e+003,1.710663e-001
1.886912e+003,-2.497528e+000
1.887876e+003,-4.456451e+000
1.888841e+003,-5.590851e+000
1.889805e+003,-4.063309e+000
1.890769e+003,1.014099e+000
1.891733e+003,3.832352e+000
1.892698e+003,2.902481e+000
1.893662e+003,1.769470e+000
1.894626e+003,1.669907e+000
1.895590e+003,1.727142e+000
1.896554e+003,1.268570e+000
1.897519e+003,8.035889e-001
1.898483e+003,8.744507e-001
1.899447e+003,1.286926e+000
1.900411e+003,1.715576e+000
1.901376e+003,2.167450e+000
1.902340e+003,2.360794e+000
1.903304e+003,2.100540e+000
1.904268e+003,1.651077e+000
1.905233e+003,1.239731e+000
1.906197e+003,7.475586e-001
1.907161e+003,-2.298431e-001
1.908125e+003,-1.187714e+000
1.909090e+003,-1.280060e+000
1.910054e+003,-6.023254e-001
1.911018e+003,2.950439e-001
1.911982e+003,1.249390e+000
1.912947e+003,2.422775e+000
1.913911e+003,3.908096e+000
1.914875e+003,5.115173e+000
1.915839e+003,5.032089e+000
1.916803e+003,3.815094e+000
1.917768e+003,2.490250e+000
1.918732e+003,8.469238e-001
1.919696e+003,1.266632e+000
1.920660e+003,5.032211e+000
1.921625e+003,7.436096e+000
1.922589e+003,6.648224e+000
1.923553e+003,5.500824e+000
1.924517e+003,5.946030e+000
1.925481e+003,6.273071e+000
1.926446e+003,4.368271e+000
1.927410e+003,1.496384e+000
1.928374e+003,1.665039e-001
1.929338e+003,4.209747e-001
1.930303e+003,7.497711e-001
1.931267e+003,8.020630e-001
1.932231e+003,1.420700e+000
1.933195e+003,3.642487e+000
1.934160e+003,5.533020e+000
1.935124e+003,5.480927e+000
1.936088e+003,4.400055e+000
1.937052e+003,2.892609e+000
1.938017e+003,1.722260e+000
1.938981e+003,2.675995e+000
1.939945e+003,5.313751e+000
1.940909e+003,6.556808e+000
1.941874e+003,5.080963e+000
1.942838e+003,2.812073e+000
1.943802e+003,1.570450e+000
1.944766e+003,1.489395e+000
1.945730e+003,2.953506e+000
1.946695e+003,5.524414e+000
1.947659e+003,5.987396e+000
1.948623e+003,4.074341e+000
1.949587e+003,2.755707e+000
1.950552e+003,2.440536e+000
1.951516e+003,2.655869e+000
1.952480e+003,3.634277e+000
1.953444e+003,4.243713e+000
1.954408e+003,3.324265e+000
1.955373e+003,1.821213e+000
1.956337e+003,1.087830e+000
1.957301e+003,1.126099e+000
1.958265e+003,1.455200e+000
1.959230e+003,2.032516e+000
1.960194e+003,3.355881e+000
1.961158e+003,6.815704e+000
1.962122e+003,8.601227e+000
1.963087e+003,6.280838e+000
1.964051e+003,3.865402e+000
1.965015e+003,4.184998e+000
1.965979e+003,5.272736e+000
1.966944e+003,4.574051e+000
1.967908e+003,3.000992e+000
1.968872e+003,2.896210e+000
1.969836e+003,4.322830e+000
1.970801e+003,5.402130e+000
1.971765e+003,5.382797e+000
1.972729e+003,5.504959e+000
1.973693e+003,6.929718e+000
1.974657e+003,8.691772e+000
1.975622e+003,9.192917e+000
1.976586e+003,8.866318e+000
1.977550e+003,9.018768e+000
1.978514e+003,9.642548e+000
1.979479e+003,1.035527e+001
1.980443e+003,1.103880e+001
1.981407e+003,1.131470e+001
1.982371e+003,1.108847e+001
1.983335e+003,1.043558e+001
1.984300e+003,9.283981e+000
1.985264e+003,7.880951e+000
1.986228e+003,6.581207e+000
1.987192e+003,5.577820e+000
1.988157e+003,6.000626e+000
1.989121e+003,8.323105e+000
1.990085e+003,9.901581e+000
1.991049e+003,1.100110e+001
1.992014e+003,1.095432e+001
1.992978e+003,8.345444e+000
1.993942e+003,6.263306e+000
1.994906e+003,5.849533e+000
1.995871e+003,6.236725e+000
1.996835e+003,6.969284e+000
1.997799e+003,8.074905e+000
1.998763e+003,1.023743e+001
1.999728e+003,1.278616e+001
