5.003444e+002,1.899781e+002
5.013087e+002,1.828881e+002
5.022729e+002,1.776451e+002
5.032371e+002,1.749755e+002
5.042014e+002,1.730732e+002
5.051656e+002,1.720759e+002
5.061298e+002,1.722206e+002
5.070941e+002,1.738234e+002
5.080583e+002,1.772876e+002
5.090225e+002,1.766984e+002
5.099868e+002,1.696569e+002
5.109510e+002,1.624097e+002
5.119152e+002,1.584606e+002
5.128795e+002,1.582321e+002
5.138437e+002,1.577281e+002
5.148079e+002,1.550568e+002
5.157722e+002,1.527034e+002
5.167364e+002,1.522861e+002
5.177006e+002,1.531808e+002
5.186649e+002,1.525034e+002
5.196291e+002,1.454191e+002
5.205933e+002,1.373846e+002
5.215576e+002,1.336799e+002
5.225218e+002,1.340549e+002
5.234860e+002,1.359614e+002
5.244503e+002,1.357305e+002
5.254145e+002,1.337197e+002
5.263787e+002,1.313093e+002
5.273430e+002,1.276129e+002
5.283072e+002,1.240978e+002
5.292714e+002,1.227273e+002
5.302357e+002,1.238234e+002
5.311999e+002,1.238489e+002
5.321641e+002,1.244921e+002
5.331284e+002,1.245249e+002
5.340926e+002,1.219943e+002
5.350568e+002,1.155714e+002
5.360211e+002,1.083558e+002
5.369853e+002,1.038412e+002
5.379495e+002,1.012112e+002
5.389138e+002,1.001506e+002
5.398780e+002,1.001268e+002
5.408422e+002,1.002693e+002
5.418065e+002,9.800793e+001
5.427707e+002,9.378223e+001
5.437349e+002,9.095142e+001
5.446992e+002,9.049548e+001
5.456634e+002,9.171753e+001
5.466276e+002,9.247693e+001
5.475919e+002,9.339111e+001
5.485561e+002,9.349170e+001
5.495203e+002,9.279102e+001
5.504846e+002,9.061658e+001
5.514488e+002,8.572083e+001
5.524130e+002,7.619092e+001
5.533773e+002,6.864844e+001
5.543415e+002,6.692212e+001
5.553057e+002,6.811365e+001
5.562700e+002,6.918677e+001
5.572342e+002,6.817920e+001
5.581984e+002,6.620630e+001
5.591627e+002,6.712512e+001
5.601269e+002,7.017310e+001
5.610911e+002,7.301111e+001
5.620554e+002,7.425671e+001
5.630196e+002,7.362610e+001
5.639838e+002,7.118030e+001
5.649481e+002,6.447900e+001
5.659123e+002,5.958704e+001
5.668765e+002,6.016406e+001
5.678408e+002,6.445825e+001
5.688050e+002,6.598218e+001
5.697692e+002,5.900037e+001
5.707335e+002,5.232410e+001
5.716977e+002,4.941370e+001
5.726619e+002,4.876953e+001
5.736262e+002,4.822351e+001
5.745904e+002,4.643408e+001
5.755546e+002,4.450110e+001
5.765189e+002,4.368945e+001
5.774831e+002,4.289941e+001
5.784473e+002,4.093127e+001
5.794116e+002,3.731946e+001
5.803758e+002,3.282617e+001
5.813400e+002,3.088745e+001
5.823043e+002,3.093237e+001
5.832685e+002,3.092212e+001
5.842327e+002,3.077930e+001
5.851970e+002,3.107898e+001
5.861612e+002,3.234497e+001
5.871254e+002,3.524658e+001
5.880897e+002,3.732483e+001
5.890539e+002,3.707422e+001
5.900181e+002,3.544263e+001
5.909824e+002,3.462268e+001
5.919466e+002,3.706641e+001
5.929108e+002,3.888110e+001
5.938751e+002,3.502283e+001
5.948393e+002,2.819617e+001
5.958035e+002,2.254419e+001
5.967678e+002,2.118945e+001
5.977320e+002,2.387195e+001
5.986962e+002,2.695081e+001
5.996605e+002,2.980737e+001
6.006247e+002,3.111780e+001
6.015889e+002,2.978015e+001
6.025532e+002,2.609705e+001
6.035174e+002,2.323889e+001
6.044816e+002,2.171643e+001
6.054459e+002,2.089771e+001
6.064101e+002,2.124390e+001
6.073743e+002,2.208032e+001
6.083386e+002,2.241541e+001
6.093028e+002,2.193848e+001
6.102670e+002,2.082141e+001
6.112313e+002,1.796753e+001
6.121955e+002,1.489636e+001
6.131597e+002,1.405237e+001
6.141240e+002,1.700037e+001
6.150882e+002,2.215906e+001
6.160524e+002,2.261523e+001
6.170167e+002,1.959399e+001
6.179809e+002,1.723706e+001
6.189451e+002,1.722119e+001
6.199094e+002,1.881104e+001
6.208736e+002,1.911743e+001
6.218378e+002,1.757385e+001
6.228021e+002,1.692236e+001
6.237663e+002,1.819116e+001
6.247305e+002,2.054541e+001
6.256948e+002,2.228796e+001
6.266590e+002,2.196606e+001
6.276232e+002,2.087195e+001
6.285875e+002,2.070691e+001
6.295517e+002,2.106531e+001
6.305159e+002,2.141235e+001
6.314802e+002,2.119849e+001
6.324444e+002,1.998474e+001
6.334086e+002,1.717346e+001
6.343729e+002,1.373279e+001
6.353371e+002,9.966309e+000
6.363013e+002,5.445923e+000
6.372656e+002,7.652588e-001
6.382298e+002,-1.247559e+000
6.391940e+002,2.548340e+000
6.401583e+002,4.518555e+000
6.411225e+002,4.955688e+000
6.420867e+002,4.905151e+000
6.430510e+002,4.954224e+000
6.440152e+002,4.566040e+000
6.449794e+002,3.806274e+000
6.459437e+002,3.526733e+000
6.469079e+002,2.561157e+000
6.478721e+002,-4.267578e-001
6.488364e+002,-5.417847e+000
6.498006e+002,-1.036450e+001
6.507648e+002,-1.169873e+001
6.517291e+002,-1.072229e+001
6.526933e+002,-9.713257e+000
6.536575e+002,-9.106812e+000
6.546218e+002,-9.034058e+000
6.555860e+002,-9.808105e+000
6.565502e+002,-1.267761e+001
6.575145e+002,-1.370410e+001
6.584787e+002,-1.147205e+001
6.594429e+002,-8.675171e+000
6.604072e+002,-7.865967e+000
6.613714e+002,-9.672607e+000
6.623356e+002,-1.006958e+001
6.632999e+002,-6.200439e+000
6.642641e+002,-2.231567e+000
6.652283e+002,1.156006e+000
6.661926e+002,3.481812e+000
6.671568e+002,3.645630e+000
6.681210e+002,-1.404541e+000
6.690853e+002,-8.997314e+000
6.700495e+002,-1.076770e+001
6.710137e+002,-6.851318e+000
6.719780e+002,-1.793701e+000
6.729422e+002,-6.065674e-001
6.739064e+002,-4.544678e+000
6.748707e+002,-6.637939e+000
6.758349e+002,-6.398315e+000
6.767991e+002,-5.803955e+000
6.777634e+002,-4.217407e+000
6.787276e+002,-1.600098e+000
6.796918e+002,-5.731201e-001
6.806561e+002,-5.299561e+000
6.816203e+002,-9.776001e+000
6.825845e+002,-1.197559e+001
6.835488e+002,-1.219861e+001
6.845130e+002,-1.115210e+001
6.854772e+002,-9.181396e+000
6.864415e+002,-5.794067e+000
6.874057e+002,2.563477e-003
6.883699e+002,6.332397e+000
6.893342e+002,1.001111e+001
6.902984e+002,9.411133e+000
6.912626e+002,5.130493e+000
6.922269e+002,-2.637939e-001
6.931911e+002,-8.953125e+000
6.941553e+002,-1.355298e+001
6.951196e+002,-1.275488e+001
6.960838e+002,-9.075195e+000
6.970480e+002,-5.672241e+000
6.980123e+002,-2.602173e+000
6.989765e+002,-3.609619e-001
6.999407e+002,8.316650e-001
7.009050e+002,1.185669e+000
7.018692e+002,6.234131e-001
7.028334e+002,-8.630371e-001
7.037977e+002,-3.034180e+000
7.047619e+002,-5.444336e+000
7.057261e+002,-7.295776e+000
7.066904e+002,-7.942749e+000
7.076546e+002,-7.320313e+000
7.086188e+002,-6.065186e+000
7.095831e+002,-5.220825e+000
7.105473e+002,-5.472046e+000
7.115115e+002,-5.182739e+000
7.124758e+002,-3.988037e+000
7.134400e+002,-3.185547e+000
7.144042e+002,-3.309814e+000
7.153685e+002,-4.106567e+000
7.163327e+002,-4.876221e+000
7.172969e+002,-5.227051e+000
7.182612e+002,-5.398926e+000
7.192254e+002,-5.849121e+000
7.201896e+002,-6.561157e+000
7.211539e+002,-7.295532e+000
7.221181e+002,-7.784546e+000
7.230823e+002,-7.945190e+000
7.240466e+002,-7.215088e+000
7.250108e+002,-5.328125e+000
7.259750e+002,-3.681274e+000
7.269393e+002,-3.770386e+000
7.279035e+002,-6.119141e+000
7.288677e+002,-8.825928e+000
7.298320e+002,-1.144092e+001
7.307962e+002,-1.188086e+001
7.317604e+002,-9.080200e+000
7.327247e+002,-4.194336e+000
7.336889e+002,1.349243e+000
7.346531e+002,7.167969e+000
7.356174e+002,8.776611e+000
7.365816e+002,2.513916e+000
7.375458e+002,-4.712036e+000
7.385101e+002,-7.437866e+000
7.394743e+002,-4.579224e+000
7.404385e+002,3.863525e-001
7.414028e+002,1.962402e+000
7.423670e+002,-5.441895e-001
7.433312e+002,-2.587036e+000
7.442955e+002,-2.744751e+000
7.452597e+002,-1.740845e+000
7.462239e+002,-1.151245e+000
7.471882e+002,-1.848389e+000
7.481524e+002,-5.134277e-001
7.491166e+002,2.505615e+000
7.500809e+002,5.427246e+000
7.510451e+002,9.139282e+000
7.520093e+002,1.251318e+001
7.529736e+002,1.162268e+001
7.539378e+002,1.692505e+000
7.549020e+002,-6.345825e+000
7.558663e+002,-3.808716e+000
7.568306e+002,3.813599e+000
7.577948e+002,8.288696e+000
7.587590e+002,4.631714e+000
7.597233e+002,-3.956665e+000
7.606875e+002,-5.712646e+000
7.616517e+002,-1.061646e+000
7.626160e+002,2.046875e+000
7.635802e+002,1.261230e+000
7.645444e+002,-1.392212e+000
7.655087e+002,-1.731934e+000
7.664729e+002,1.705566e+000
7.674371e+002,3.764893e+000
7.684014e+002,2.651978e+000
7.693656e+002,1.482910e+000
7.703298e+002,3.167358e+000
7.712941e+002,7.720215e+000
7.722583e+002,1.103064e+001
7.732225e+002,8.018677e+000
7.741868e+002,4.456055e+000
7.751510e+002,5.052490e+000
7.761152e+002,9.121094e+000
7.770795e+002,1.440332e+001
7.780437e+002,1.884729e+001
7.790079e+002,2.204651e+001
7.799722e+002,2.115540e+001
7.809364e+002,1.568298e+001
7.819006e+002,1.154248e+001
7.828649e+002,1.246802e+001
7.838291e+002,1.722168e+001
7.847933e+002,2.049939e+001
7.857576e+002,2.100500e+001
7.867218e+002,1.933264e+001
7.876860e+002,1.503271e+001
7.886503e+002,1.076672e+001
7.896145e+002,8.648438e+000
7.905787e+002,9.196655e+000
7.915430e+002,1.104614e+001
7.925072e+002,1.271619e+001
7.934714e+002,1.366211e+001
7.944357e+002,1.444446e+001
7.953999e+002,1.537744e+001
7.963641e+002,1.572559e+001
7.973284e+002,1.421582e+001
7.982926e+002,1.056470e+001
7.992568e+002,1.151086e+001
8.002211e+002,1.813721e+001
8.011853e+002,2.288184e+001
8.021495e+002,2.372168e+001
8.031138e+002,2.250269e+001
8.040780e+002,2.263672e+001
8.050422e+002,2.470105e+001
8.060065e+002,2.587195e+001
8.069707e+002,2.403064e+001
8.079349e+002,2.083618e+001
8.088992e+002,1.774658e+001
8.098634e+002,1.578479e+001
8.108276e+002,1.592285e+001
8.117919e+002,2.070081e+001
8.127561e+002,2.627258e+001
8.137203e+002,2.662537e+001
8.146846e+002,2.194446e+001
8.156488e+002,1.649609e+001
8.166130e+002,1.502258e+001
8.175773e+002,1.807007e+001
8.185415e+002,2.058618e+001
8.195057e+002,2.207153e+001
8.204700e+002,2.242078e+001
8.214342e+002,2.031665e+001
8.223984e+002,1.709375e+001
8.233627e+002,1.674780e+001
8.243269e+002,2.320862e+001
8.252911e+002,2.798926e+001
8.262554e+002,2.411829e+001
8.272196e+002,1.752148e+001
8.281838e+002,1.464001e+001
8.291481e+002,1.748584e+001
8.301123e+002,2.238135e+001
8.310765e+002,2.273218e+001
8.320408e+002,1.872424e+001
8.330050e+002,1.661023e+001
8.339692e+002,1.715149e+001
8.349335e+002,1.882666e+001
8.358977e+002,2.082898e+001
8.368619e+002,2.387024e+001
8.378262e+002,2.512122e+001
8.387904e+002,2.093774e+001
8.397546e+002,1.789246e+001
8.407189e+002,1.805811e+001
8.416831e+002,2.049939e+001
8.426473e+002,2.339746e+001
8.436116e+002,2.606641e+001
8.445758e+002,2.911121e+001
8.455400e+002,3.350403e+001
8.465043e+002,3.695386e+001
8.474685e+002,3.732080e+001
8.484327e+002,3.479785e+001
8.493970e+002,3.141931e+001
8.503612e+002,2.964001e+001
8.513254e+002,2.936121e+001
8.522897e+002,2.940125e+001
8.532539e+002,2.915210e+001
8.542181e+002,2.897986e+001
8.551824e+002,2.965063e+001
8.561466e+002,3.190137e+001
8.571108e+002,3.603345e+001
8.580751e+002,4.202039e+001
8.590393e+002,4.631055e+001
8.600035e+002,4.742664e+001
8.609678e+002,4.779944e+001
8.619320e+002,5.000659e+001
8.628962e+002,5.495117e+001
8.638605e+002,6.117944e+001
8.648247e+002,6.720020e+001
8.657889e+002,7.254871e+001
8.667532e+002,7.654602e+001
8.677174e+002,7.907690e+001
8.686816e+002,8.035815e+001
8.696459e+002,8.064087e+001
8.706101e+002,8.011072e+001
8.715743e+002,8.021008e+001
8.725386e+002,8.030762e+001
8.735028e+002,8.187097e+001
8.744670e+002,8.616028e+001
8.754313e+002,9.091125e+001
8.763955e+002,9.224463e+001
8.773597e+002,8.836401e+001
8.783240e+002,8.436572e+001
8.792882e+002,8.248438e+001
8.802524e+002,8.240686e+001
8.812167e+002,8.519238e+001
8.821809e+002,9.030151e+001
8.831451e+002,9.530591e+001
8.841094e+002,9.701196e+001
8.850736e+002,9.620020e+001
8.860378e+002,9.903992e+001
8.870021e+002,1.059950e+002
8.879663e+002,1.127297e+002
8.889305e+002,1.169165e+002
8.898948e+002,1.185126e+002
8.908590e+002,1.181544e+002
8.918232e+002,1.141110e+002
8.927875e+002,1.124268e+002
8.937517e+002,1.150563e+002
8.947159e+002,1.197551e+002
8.956802e+002,1.249349e+002
8.966444e+002,1.294609e+002
8.976086e+002,1.321486e+002
8.985729e+002,1.317850e+002
8.995371e+002,1.303693e+002
9.005013e+002,1.300698e+002
9.014656e+002,1.313302e+002
9.024298e+002,1.344172e+002
9.033940e+002,1.392670e+002
9.043583e+002,1.449805e+002
9.053225e+002,1.490836e+002
9.062867e+002,1.502593e+002
9.072510e+002,1.501602e+002
9.082152e+002,1.488011e+002
9.091794e+002,1.478436e+002
9.101437e+002,1.491373e+002
9.111079e+002,1.529258e+002
9.120721e+002,1.560790e+002
9.130364e+002,1.551434e+002
9.140006e+002,1.530276e+002
9.149648e+002,1.514993e+002
9.159291e+002,1.511973e+002
9.168933e+002,1.526387e+002
9.178575e+002,1.557649e+002
9.188218e+002,1.588861e+002
9.197860e+002,1.566099e+002
9.207502e+002,1.484602e+002
9.217145e+002,1.417505e+002
9.226787e+002,1.394420e+002
9.236429e+002,1.393699e+002
9.246072e+002,1.378047e+002
9.255714e+002,1.336498e+002
9.265356e+002,1.308318e+002
9.274999e+002,1.311614e+002
9.284641e+002,1.309980e+002
9.294283e+002,1.297581e+002
9.303926e+002,1.275317e+002
9.313568e+002,1.244427e+002
9.323210e+002,1.204629e+002
9.332853e+002,1.158169e+002
9.342495e+002,1.092469e+002
9.352137e+002,1.024613e+002
9.361780e+002,9.994519e+001
9.371422e+002,1.030927e+002
9.381064e+002,1.085292e+002
9.390707e+002,1.109872e+002
9.400349e+002,1.091458e+002
9.409991e+002,1.080454e+002
9.419634e+002,1.079933e+002
9.429276e+002,1.078000e+002
9.438918e+002,1.076940e+002
9.448561e+002,1.073738e+002
9.458203e+002,1.059692e+002
9.467845e+002,1.030282e+002
9.477488e+002,1.012941e+002
9.487130e+002,1.030748e+002
9.496772e+002,1.063741e+002
9.506415e+002,1.105432e+002
9.516057e+002,1.149043e+002
9.525699e+002,1.183527e+002
9.535342e+002,1.197616e+002
9.544984e+002,1.188580e+002
9.554626e+002,1.150625e+002
9.564269e+002,1.085654e+002
9.573911e+002,1.040016e+002
9.583553e+002,1.029248e+002
9.593196e+002,1.039003e+002
9.602838e+002,1.048635e+002
9.612480e+002,1.055366e+002
9.622123e+002,1.059354e+002
9.631765e+002,1.074270e+002
9.641407e+002,1.078488e+002
9.651050e+002,1.049268e+002
9.660692e+002,9.973083e+001
9.670334e+002,9.504968e+001
9.679977e+002,9.301855e+001
9.689619e+002,9.311035e+001
9.699261e+002,9.212793e+001
9.708904e+002,9.054016e+001
9.718546e+002,9.241577e+001
9.728188e+002,9.875745e+001
9.737831e+002,1.070128e+002
9.747473e+002,1.143495e+002
9.757115e+002,1.209277e+002
9.766758e+002,1.270355e+002
9.776400e+002,1.341780e+002
9.786042e+002,1.402256e+002
9.795685e+002,1.455765e+002
9.805327e+002,1.480768e+002
9.814969e+002,1.447306e+002
9.824612e+002,1.349723e+002
9.834254e+002,1.238922e+002
9.843896e+002,1.141481e+002
9.853539e+002,1.058933e+002
9.863181e+002,1.004399e+002
9.872823e+002,9.686023e+001
9.882466e+002,9.246729e+001
9.892108e+002,8.556787e+001
9.901750e+002,7.802820e+001
9.911393e+002,7.665125e+001
9.921035e+002,8.426196e+001
9.930677e+002,8.975488e+001
9.940320e+002,9.213013e+001
9.949962e+002,9.414099e+001
9.959604e+002,9.831042e+001
9.969247e+002,1.048986e+002
9.978889e+002,1.119485e+002
9.988531e+002,1.175660e+002
9.998174e+002,1.224440e+002
1.000782e+003,1.293040e+002
1.001746e+003,1.361893e+002
1.002710e+003,1.391149e+002
1.003674e+003,1.366930e+002
1.004639e+003,1.322452e+002
1.005603e+003,1.317316e+002
1.006567e+003,1.353636e+002
1.007531e+003,1.384735e+002
1.008495e+003,1.417488e+002
1.009460e+003,1.435575e+002
1.010424e+003,1.425308e+002
1.011388e+003,1.394645e+002
1.012352e+003,1.367865e+002
1.013317e+003,1.340939e+002
1.014281e+003,1.323727e+002
1.015245e+003,1.346541e+002
1.016209e+003,1.348960e+002
1.017174e+003,1.273706e+002
1.018138e+003,1.133132e+002
1.019102e+003,9.904956e+001
1.020066e+003,8.979163e+001
1.021031e+003,8.474158e+001
1.021995e+003,8.128271e+001
1.022959e+003,7.833289e+001
1.023923e+003,7.370972e+001
1.024887e+003,6.647192e+001
1.025852e+003,5.732678e+001
1.026816e+003,4.698083e+001
1.027780e+003,3.507507e+001
1.028744e+003,2.644836e+001
1.029709e+003,2.251855e+001
1.030673e+003,2.028210e+001
1.031637e+003,1.924658e+001
1.032601e+003,1.882825e+001
1.033566e+003,1.901929e+001
1.034530e+003,1.995837e+001
1.035494e+003,2.065601e+001
1.036458e+003,1.878601e+001
1.037422e+003,1.619727e+001
1.038387e+003,1.640125e+001
1.039351e+003,1.916895e+001
1.040315e+003,2.282080e+001
1.041279e+003,2.671228e+001
1.042244e+003,3.054260e+001
1.043208e+003,3.114893e+001
1.044172e+003,2.468335e+001
1.045136e+003,2.010107e+001
1.046101e+003,1.804138e+001
1.047065e+003,1.796204e+001
1.048029e+003,2.063794e+001
1.048993e+003,2.483240e+001
1.049958e+003,2.716553e+001
1.050922e+003,2.609680e+001
1.051886e+003,2.382813e+001
1.052850e+003,2.074304e+001
1.053814e+003,1.849487e+001
1.054779e+003,2.035535e+001
1.055743e+003,2.637488e+001
1.056707e+003,3.276294e+001
1.057671e+003,3.501892e+001
1.058636e+003,3.297107e+001
1.059600e+003,3.010852e+001
1.060564e+003,2.522400e+001
1.061528e+003,2.303186e+001
1.062493e+003,2.604468e+001
1.063457e+003,2.951318e+001
1.064421e+003,2.759070e+001
1.065385e+003,2.008008e+001
1.066349e+003,1.488916e+001
1.067314e+003,1.791077e+001
1.068278e+003,2.238098e+001
1.069242e+003,2.357642e+001
1.070206e+003,2.315222e+001
1.071171e+003,2.347107e+001
1.072135e+003,2.531763e+001
1.073099e+003,2.802979e+001
1.074063e+003,3.118445e+001
1.075028e+003,3.525012e+001
1.075992e+003,3.641736e+001
1.076956e+003,3.296313e+001
1.077920e+003,2.897534e+001
1.078885e+003,2.623438e+001
1.079849e+003,2.476819e+001
1.080813e+003,2.424023e+001
1.081777e+003,2.479590e+001
1.082741e+003,2.589551e+001
1.083706e+003,2.714282e+001
1.084670e+003,2.754370e+001
1.085634e+003,2.652612e+001
1.086598e+003,2.422961e+001
1.087563e+003,2.084119e+001
1.088527e+003,1.692285e+001
1.089491e+003,1.380420e+001
1.090455e+003,1.319946e+001
1.091420e+003,1.490100e+001
1.092384e+003,1.661890e+001
1.093348e+003,1.904785e+001
1.094312e+003,1.930432e+001
1.095276e+003,1.395154e+001
1.096241e+003,6.004150e+000
1.097205e+003,4.133423e+000
1.098169e+003,1.098401e+001
1.099133e+003,1.756531e+001
1.100098e+003,2.187341e+001
1.101062e+003,2.428345e+001
1.102026e+003,2.398450e+001
1.102990e+003,2.211328e+001
1.103955e+003,2.053943e+001
1.104919e+003,2.028198e+001
1.105883e+003,2.099146e+001
1.106847e+003,2.256079e+001
1.107812e+003,2.486902e+001
1.108776e+003,2.599414e+001
1.109740e+003,2.525073e+001
1.110704e+003,2.460938e+001
1.111668e+003,2.613892e+001
1.112633e+003,2.980298e+001
1.113597e+003,3.380615e+001
1.114561e+003,3.835437e+001
1.115525e+003,4.086865e+001
1.116490e+003,3.872046e+001
1.117454e+003,3.615405e+001
1.118418e+003,3.649097e+001
1.119382e+003,3.956274e+001
1.120347e+003,4.305994e+001
1.121311e+003,4.502930e+001
1.122275e+003,4.562146e+001
1.123239e+003,4.724866e+001
1.124203e+003,5.050525e+001
1.125168e+003,5.182605e+001
1.126132e+003,5.034595e+001
1.127096e+003,4.907275e+001
1.128060e+003,4.952051e+001
1.129025e+003,5.146423e+001
1.129989e+003,5.543164e+001
1.130953e+003,6.292188e+001
1.131917e+003,6.831128e+001
1.132882e+003,6.861157e+001
1.133846e+003,6.871484e+001
1.134810e+003,7.093726e+001
1.135774e+003,7.569373e+001
1.136739e+003,8.327148e+001
1.137703e+003,9.368274e+001
1.138667e+003,1.045769e+002
1.139631e+003,1.109365e+002
1.140595e+003,1.137793e+002
1.141560e+003,1.228950e+002
1.142524e+003,1.400288e+002
1.143488e+003,1.607799e+002
1.144452e+003,1.825831e+002
1.145417e+003,2.054031e+002
1.146381e+003,2.291230e+002
1.147345e+003,2.535127e+002
1.148309e+003,2.787957e+002
1.149274e+003,3.036521e+002
1.150238e+003,3.313821e+002
1.151202e+003,3.658641e+002
1.152166e+003,4.047410e+002
1.153130e+003,4.451080e+002
1.154095e+003,4.842874e+002
1.155059e+003,5.164893e+002
1.156023e+003,5.343198e+002
1.156987e+003,5.381077e+002
1.157952e+003,5.355475e+002
1.158916e+003,5.277408e+002
1.159880e+003,5.158167e+002
1.160844e+003,4.997765e+002
1.161809e+003,4.777057e+002
1.162773e+003,4.461097e+002
1.163737e+003,4.027699e+002
1.164701e+003,3.603367e+002
1.165666e+003,3.195900e+002
1.166630e+003,2.840435e+002
1.167594e+003,2.550773e+002
1.168558e+003,2.319679e+002
1.169522e+003,2.145559e+002
1.170487e+003,2.022584e+002
1.171451e+003,1.934292e+002
1.172415e+003,1.860609e+002
1.173379e+003,1.803334e+002
1.174344e+003,1.789891e+002
1.175308e+003,1.825675e+002
1.176272e+003,1.844875e+002
1.177236e+003,1.836567e+002
1.178201e+003,1.798436e+002
1.179165e+003,1.709728e+002
1.180129e+003,1.564307e+002
1.181093e+003,1.436531e+002
1.182057e+003,1.343060e+002
1.183022e+003,1.276602e+002
1.183986e+003,1.236600e+002
1.184950e+003,1.217137e+002
1.185914e+003,1.223162e+002
1.186879e+003,1.248322e+002
1.187843e+003,1.271334e+002
1.188807e+003,1.272646e+002
1.189771e+003,1.258055e+002
1.190736e+003,1.251740e+002
1.191700e+003,1.253114e+002
1.192664e+003,1.265505e+002
1.193628e+003,1.310088e+002
1.194593e+003,1.347151e+002
1.195557e+003,1.349519e+002
1.196521e+003,1.319305e+002
1.197485e+003,1.261576e+002
1.198449e+003,1.166420e+002
1.199414e+003,1.081737e+002
1.200378e+003,1.042571e+002
1.201342e+003,1.009872e+002
1.202306e+003,9.540161e+001
1.203271e+003,8.817712e+001
1.204235e+003,8.164111e+001
1.205199e+003,7.701440e+001
1.206163e+003,7.323901e+001
1.207128e+003,6.840198e+001
1.208092e+003,6.252686e+001
1.209056e+003,5.610913e+001
1.210020e+003,4.950281e+001
1.210984e+003,4.197290e+001
1.211949e+003,3.215930e+001
1.212913e+003,2.170337e+001
1.213877e+003,1.320911e+001
1.214841e+003,6.952026e+000
1.215806e+003,5.150146e-001
1.216770e+003,-7.975708e+000
1.217734e+003,-1.563367e+001
1.218698e+003,-2.112842e+001
1.219663e+003,-2.504150e+001
1.220627e+003,-2.742896e+001
1.221591e+003,-2.868701e+001
1.222555e+003,-3.010510e+001
1.223520e+003,-3.280396e+001
1.224484e+003,-3.605481e+001
1.225448e+003,-3.755835e+001
1.226412e+003,-3.586755e+001
1.227376e+003,-3.606848e+001
1.228341e+003,-4.036157e+001
1.229305e+003,-4.444043e+001
1.230269e+003,-4.516296e+001
1.231233e+003,-4.430054e+001
1.232198e+003,-4.587573e+001
1.233162e+003,-5.081470e+001
1.234126e+003,-5.464246e+001
1.235090e+003,-5.408752e+001
1.236055e+003,-5.164502e+001
1.237019e+003,-4.915808e+001
1.237983e+003,-4.726611e+001
1.238947e+003,-4.698193e+001
1.239911e+003,-4.841272e+001
1.240876e+003,-5.042700e+001
1.241840e+003,-5.170093e+001
1.242804e+003,-5.216455e+001
1.243768e+003,-5.251428e+001
1.244733e+003,-5.317700e+001
1.245697e+003,-5.302344e+001
1.246661e+003,-5.238525e+001
1.247625e+003,-5.165637e+001
1.248590e+003,-5.173914e+001
1.249554e+003,-5.122595e+001
1.250518e+003,-4.591174e+001
1.251482e+003,-3.364099e+001
1.252447e+003,-2.252954e+001
1.253411e+003,-2.345544e+001
1.254375e+003,-3.116821e+001
1.255339e+003,-3.567859e+001
1.256303e+003,-3.618445e+001
1.257268e+003,-3.320557e+001
1.258232e+003,-2.622046e+001
1.259196e+003,-1.849194e+001
1.260160e+003,-1.674023e+001
1.261125e+003,-2.206714e+001
1.262089e+003,-2.311230e+001
1.263053e+003,-1.634460e+001
1.264017e+003,-9.115967e+000
1.264982e+003,-1.313965e+000
1.265946e+003,5.309570e+000
1.266910e+003,8.991089e+000
1.267874e+003,9.920410e+000
1.268839e+003,9.753906e+000
1.269803e+003,9.622192e+000
1.270767e+003,8.730957e+000
1.271731e+003,5.068604e+000
1.272695e+003,-9.154053e-001
1.273660e+003,-4.265991e+000
1.274624e+003,-4.436646e+000
1.275588e+003,-5.730225e+000
1.276552e+003,-1.053931e+001
1.277517e+003,-1.688623e+001
1.278481e+003,-2.218909e+001
1.279445e+003,-2.657410e+001
1.280409e+003,-2.898401e+001
1.281374e+003,-2.759631e+001
1.282338e+003,-2.583459e+001
1.283302e+003,-2.544995e+001
1.284266e+003,-2.586951e+001
1.285230e+003,-2.620044e+001
1.286195e+003,-2.656812e+001
1.287159e+003,-2.796667e+001
1.288123e+003,-3.097131e+001
1.289087e+003,-3.470032e+001
1.290052e+003,-3.761658e+001
1.291016e+003,-4.013062e+001
1.291980e+003,-4.188293e+001
1.292944e+003,-4.295276e+001
1.293909e+003,-4.427979e+001
1.294873e+003,-4.651843e+001
1.295837e+003,-4.814600e+001
1.296801e+003,-4.637280e+001
1.297766e+003,-4.124341e+001
1.298730e+003,-3.781189e+001
1.299694e+003,-3.982898e+001
1.300658e+003,-4.340088e+001
1.301622e+003,-4.374341e+001
1.302587e+003,-4.229407e+001
1.303551e+003,-4.157336e+001
1.304515e+003,-4.178711e+001
1.305479e+003,-4.168542e+001
1.306444e+003,-4.066089e+001
1.307408e+003,-3.890881e+001
1.308372e+003,-3.582056e+001
1.309336e+003,-3.005200e+001
1.310301e+003,-2.734937e+001
1.311265e+003,-2.982361e+001
1.312229e+003,-3.237451e+001
1.313193e+003,-3.310864e+001
1.314157e+003,-3.375122e+001
1.315122e+003,-3.725916e+001
1.316086e+003,-4.313391e+001
1.317050e+003,-4.728674e+001
1.318014e+003,-4.670361e+001
1.318979e+003,-4.331152e+001
1.319943e+003,-4.048926e+001
1.320907e+003,-3.806018e+001
1.321871e+003,-3.654065e+001
1.322836e+003,-3.703796e+001
1.323800e+003,-3.731604e+001
1.324764e+003,-3.583313e+001
1.325728e+003,-3.334937e+001
1.326693e+003,-3.123486e+001
1.327657e+003,-2.984241e+001
1.328621e+003,-2.935388e+001
1.329585e+003,-2.832678e+001
1.330549e+003,-2.750525e+001
1.331514e+003,-2.894556e+001
1.332478e+003,-3.184399e+001
1.333442e+003,-3.576807e+001
1.334406e+003,-3.962732e+001
1.335371e+003,-4.152026e+001
1.336335e+003,-4.036523e+001
1.337299e+003,-3.726636e+001
1.338263e+003,-3.445068e+001
1.339228e+003,-3.191345e+001
1.340192e+003,-2.942908e+001
1.341156e+003,-2.652771e+001
1.342120e+003,-2.439380e+001
1.343084e+003,-2.352905e+001
1.344049e+003,-2.423682e+001
1.345013e+003,-2.724438e+001
1.345977e+003,-3.120679e+001
1.346941e+003,-3.316467e+001
1.347906e+003,-3.206177e+001
1.348870e+003,-2.973499e+001
1.349834e+003,-2.731555e+001
1.350798e+003,-2.573486e+001
1.351763e+003,-2.625720e+001
1.352727e+003,-2.840466e+001
1.353691e+003,-3.010547e+001
1.354655e+003,-3.027759e+001
1.355620e+003,-3.067688e+001
1.356584e+003,-3.470020e+001
1.357548e+003,-4.128748e+001
1.358512e+003,-4.178345e+001
1.359476e+003,-3.359436e+001
1.360441e+003,-2.737988e+001
1.361405e+003,-2.526917e+001
1.362369e+003,-2.564685e+001
1.363333e+003,-2.955432e+001
1.364298e+003,-3.456458e+001
1.365262e+003,-3.803564e+001
1.366226e+003,-3.898828e+001
1.367190e+003,-3.706055e+001
1.368155e+003,-3.182690e+001
1.369119e+003,-2.494275e+001
1.370083e+003,-2.160876e+001
1.371047e+003,-2.242371e+001
1.372011e+003,-2.342664e+001
1.372976e+003,-2.613733e+001
1.373940e+003,-2.830811e+001
1.374904e+003,-2.852246e+001
1.375868e+003,-2.762476e+001
1.376833e+003,-2.648962e+001
1.377797e+003,-2.555115e+001
1.378761e+003,-2.589746e+001
1.379725e+003,-2.823206e+001
1.380690e+003,-3.064636e+001
1.381654e+003,-3.147070e+001
1.382618e+003,-3.070435e+001
1.383582e+003,-2.797327e+001
1.384547e+003,-2.350940e+001
1.385511e+003,-1.843738e+001
1.386475e+003,-1.311084e+001
1.387439e+003,-9.181396e+000
1.388403e+003,-1.026941e+001
1.389368e+003,-1.640747e+001
1.390332e+003,-1.832166e+001
1.391296e+003,-1.263208e+001
1.392260e+003,-8.220825e+000
1.393225e+003,-7.268799e+000
1.394189e+003,-8.023071e+000
1.395153e+003,-1.049304e+001
1.396117e+003,-1.354980e+001
1.397082e+003,-1.560645e+001
1.398046e+003,-1.620459e+001
1.399010e+003,-1.642175e+001
1.399974e+003,-1.761060e+001
1.400938e+003,-1.970837e+001
1.401903e+003,-2.054175e+001
1.402867e+003,-1.810706e+001
1.403831e+003,-1.597253e+001
1.404795e+003,-1.594678e+001
1.405760e+003,-1.526074e+001
1.406724e+003,-1.308350e+001
1.407688e+003,-1.162573e+001
1.408652e+003,-1.263159e+001
1.409617e+003,-1.527502e+001
1.410581e+003,-1.781946e+001
1.411545e+003,-1.987634e+001
1.412509e+003,-2.021729e+001
1.413474e+003,-1.652356e+001
1.414438e+003,-1.203894e+001
1.415402e+003,-1.112219e+001
1.416366e+003,-1.296582e+001
1.417330e+003,-1.523022e+001
1.418295e+003,-1.732837e+001
1.419259e+003,-1.829602e+001
1.420223e+003,-1.663477e+001
1.421187e+003,-1.324854e+001
1.422152e+003,-1.192395e+001
1.423116e+003,-1.324182e+001
1.424080e+003,-1.270642e+001
1.425044e+003,-7.268799e+000
1.426009e+003,-2.915894e+000
1.426973e+003,-3.642456e+000
1.427937e+003,-5.984009e+000
1.428901e+003,-5.117554e+000
1.429865e+003,-8.267822e-001
1.430830e+003,3.284546e+000
1.431794e+003,4.571289e+000
1.432758e+003,4.143555e+000
1.433722e+003,4.879150e+000
1.434687e+003,7.654053e+000
1.435651e+003,1.175647e+001
1.436615e+003,1.783215e+001
1.437579e+003,2.019543e+001
1.438544e+003,1.615918e+001
1.439508e+003,1.103845e+001
1.440472e+003,7.453369e+000
1.441436e+003,6.464722e+000
1.442401e+003,1.039954e+001
1.443365e+003,1.879480e+001
1.444329e+003,2.458582e+001
1.445293e+003,2.225574e+001
1.446257e+003,1.596167e+001
1.447222e+003,1.259741e+001
1.448186e+003,1.176453e+001
1.449150e+003,1.269604e+001
1.450114e+003,1.610767e+001
1.451079e+003,1.731506e+001
1.452043e+003,1.224268e+001
1.453007e+003,5.620850e+000
1.453971e+003,3.873047e+000
1.454936e+003,6.234131e+000
1.455900e+003,8.088257e+000
1.456864e+003,8.706665e+000
1.457828e+003,9.132080e+000
1.458792e+003,9.740479e+000
1.459757e+003,9.789673e+000
1.460721e+003,8.710693e+000
1.461685e+003,6.630249e+000
1.462649e+003,3.432129e+000
1.463614e+003,-4.077148e-001
1.464578e+003,-2.606079e+000
1.465542e+003,-1.071655e+000
1.466506e+003,2.609497e+000
1.467471e+003,4.380981e+000
1.468435e+003,4.446655e+000
1.469399e+003,5.008911e+000
1.470363e+003,3.207886e+000
1.471328e+003,4.935791e+000
1.472292e+003,1.623694e+001
1.473256e+003,2.572046e+001
1.474220e+003,2.381250e+001
1.475184e+003,1.551892e+001
1.476149e+003,1.095959e+001
1.477113e+003,1.292834e+001
1.478077e+003,1.597717e+001
1.479041e+003,1.526953e+001
1.480006e+003,1.288525e+001
1.480970e+003,1.465479e+001
1.481934e+003,2.154126e+001
1.482898e+003,2.576978e+001
1.483863e+003,2.436792e+001
1.484827e+003,2.448291e+001
1.485791e+003,3.050037e+001
1.486755e+003,3.763000e+001
1.487719e+003,4.100269e+001
1.488684e+003,4.106372e+001
1.489648e+003,4.033655e+001
1.490612e+003,4.003577e+001
1.491576e+003,4.176208e+001
1.492541e+003,4.688513e+001
1.493505e+003,5.394934e+001
1.494469e+003,6.004956e+001
1.495433e+003,6.476636e+001
1.496398e+003,6.933398e+001
1.497362e+003,7.434351e+001
1.498326e+003,8.100891e+001
1.499290e+003,9.053979e+001
1.500255e+003,1.014404e+002
1.501219e+003,1.114969e+002
1.502183e+003,1.206798e+002
1.503147e+003,1.295112e+002
1.504111e+003,1.373375e+002
1.505076e+003,1.487311e+002
1.506040e+003,1.665774e+002
1.507004e+003,1.895481e+002
1.507968e+003,2.177924e+002
1.508933e+003,2.490973e+002
1.509897e+003,2.781456e+002
1.510861e+003,3.051842e+002
1.511825e+003,3.367450e+002
1.512790e+003,3.773625e+002
1.513754e+003,4.232268e+002
1.514718e+003,4.682374e+002
1.515682e+003,5.117909e+002
1.516646e+003,5.563804e+002
1.517611e+003,6.045050e+002
1.518575e+003,6.498147e+002
1.519539e+003,6.929181e+002
1.520503e+003,7.312644e+002
1.521468e+003,7.652526e+002
1.522432e+003,7.921025e+002
1.523396e+003,8.082651e+002
1.524360e+003,8.133424e+002
1.525325e+003,8.097953e+002
1.526289e+003,7.994114e+002
1.527253e+003,7.819327e+002
1.528217e+003,7.561705e+002
1.529182e+003,7.225936e+002
1.530146e+003,6.861383e+002
1.531110e+003,6.475884e+002
1.532074e+003,6.030791e+002
1.533039e+003,5.500168e+002
1.534003e+003,4.915945e+002
1.534967e+003,4.259714e+002
1.535931e+003,3.606388e+002
1.536896e+003,3.015133e+002
1.537860e+003,2.506570e+002
1.538824e+003,2.089255e+002
1.539788e+003,1.762036e+002
1.540752e+003,1.500222e+002
1.541717e+003,1.276915e+002
1.542681e+003,1.092727e+002
1.543645e+003,9.232385e+001
1.544609e+003,7.565076e+001
1.545573e+003,6.608960e+001
1.546538e+003,6.828552e+001
1.547502e+003,6.945715e+001
1.548466e+003,6.359619e+001
1.549430e+003,5.722119e+001
1.550395e+003,5.701184e+001
1.551359e+003,6.158948e+001
1.552323e+003,6.671265e+001
1.553287e+003,7.064648e+001
1.554252e+003,7.122571e+001
1.555216e+003,6.604797e+001
1.556180e+003,5.721460e+001
1.557144e+003,4.889014e+001
1.558109e+003,4.139795e+001
1.559073e+003,3.819641e+001
1.560037e+003,4.127588e+001
1.561001e+003,4.256982e+001
1.561966e+003,3.866187e+001
1.562930e+003,3.426990e+001
1.563894e+003,3.356799e+001
1.564858e+003,3.512073e+001
1.565823e+003,3.522742e+001
1.566787e+003,3.319373e+001
1.567751e+003,3.170325e+001
1.568715e+003,3.263477e+001
1.569679e+003,3.439270e+001
1.570644e+003,3.470447e+001
1.571608e+003,3.363318e+001
1.572572e+003,3.244238e+001
1.573536e+003,3.154285e+001
1.574500e+003,3.147351e+001
1.575465e+003,3.211914e+001
1.576429e+003,3.361646e+001
1.577393e+003,3.590015e+001
1.578357e+003,3.878723e+001
1.579322e+003,4.328845e+001
1.580286e+003,4.926953e+001
1.581250e+003,5.204395e+001
1.582214e+003,4.920996e+001
1.583179e+003,4.660925e+001
1.584143e+003,4.943994e+001
1.585107e+003,5.335339e+001
1.586071e+003,5.259509e+001
1.587036e+003,4.929895e+001
1.588000e+003,4.812317e+001
1.588964e+003,4.967188e+001
1.589928e+003,5.213391e+001
1.590893e+003,5.494910e+001
1.591857e+003,5.762207e+001
1.592821e+003,5.912024e+001
1.593785e+003,5.983337e+001
1.594750e+003,6.144849e+001
1.595714e+003,6.399109e+001
1.596678e+003,6.679968e+001
1.597642e+003,7.036853e+001
1.598606e+003,7.314246e+001
1.599571e+003,7.300903e+001
1.600535e+003,7.230554e+001
1.601499e+003,7.402197e+001
1.602463e+003,7.790320e+001
1.603427e+003,8.224915e+001
1.604392e+003,8.662988e+001
1.605356e+003,8.973914e+001
1.606320e+003,9.003052e+001
1.607284e+003,8.818555e+001
1.608249e+003,8.600122e+001
1.609213e+003,8.349866e+001
1.610177e+003,8.007104e+001
1.611141e+003,7.492761e+001
1.612106e+003,7.063611e+001
1.613070e+003,6.881177e+001
1.614034e+003,6.786658e+001
1.614998e+003,6.632996e+001
1.615963e+003,6.509326e+001
1.616927e+003,6.592493e+001
1.617891e+003,6.871704e+001
1.618855e+003,7.144897e+001
1.619820e+003,7.275562e+001
1.620784e+003,7.244629e+001
1.621748e+003,7.097839e+001
1.622712e+003,6.930615e+001
1.623677e+003,6.804968e+001
1.624641e+003,6.714063e+001
1.625605e+003,6.762952e+001
1.626569e+003,6.941748e+001
1.627533e+003,7.013513e+001
1.628498e+003,6.754492e+001
1.629462e+003,6.574670e+001
1.630426e+003,6.953174e+001
1.631390e+003,7.627051e+001
1.632354e+003,7.992603e+001
1.633319e+003,7.912122e+001
1.634283e+003,7.714331e+001
1.635247e+003,7.622327e+001
1.636211e+003,7.576355e+001
1.637176e+003,7.541699e+001
1.638140e+003,7.532703e+001
1.639104e+003,7.285266e+001
1.640068e+003,6.615515e+001
1.641033e+003,6.292810e+001
1.641997e+003,6.869226e+001
1.642961e+003,7.374011e+001
1.643925e+003,7.071973e+001
1.644890e+003,6.663367e+001
1.645854e+003,6.967151e+001
1.646818e+003,7.727515e+001
1.647782e+003,8.119812e+001
1.648747e+003,7.904724e+001
1.649711e+003,7.636182e+001
1.650675e+003,7.841052e+001
1.651639e+003,8.252759e+001
1.652604e+003,8.159448e+001
1.653568e+003,7.557825e+001
1.654532e+003,7.321997e+001
1.655496e+003,7.635693e+001
1.656460e+003,7.821716e+001
1.657425e+003,7.690601e+001
1.658389e+003,7.431421e+001
1.659353e+003,7.043567e+001
1.660317e+003,6.658960e+001
1.661281e+003,6.476135e+001
1.662246e+003,6.397693e+001
1.663210e+003,6.101270e+001
1.664174e+003,5.514526e+001
1.665138e+003,5.030298e+001
1.666103e+003,4.964294e+001
1.667067e+003,5.157092e+001
1.668031e+003,5.401404e+001
1.668995e+003,5.692322e+001
1.669960e+003,5.739880e+001
1.670924e+003,5.481799e+001
1.671888e+003,5.220483e+001
1.672852e+003,4.977832e+001
1.673817e+003,4.790674e+001
1.674781e+003,4.672351e+001
1.675745e+003,4.613550e+001
1.676709e+003,4.657178e+001
1.677674e+003,4.744836e+001
1.678638e+003,4.666296e+001
1.679602e+003,4.361938e+001
1.680566e+003,4.169409e+001
1.681531e+003,4.477295e+001
1.682495e+003,4.955469e+001
1.683459e+003,4.910938e+001
1.684423e+003,4.413013e+001
1.685387e+003,4.162085e+001
1.686352e+003,4.285559e+001
1.687316e+003,4.250720e+001
1.688280e+003,3.782581e+001
1.689244e+003,3.309790e+001
1.690208e+003,3.103333e+001
1.691173e+003,3.065515e+001
1.692137e+003,3.264661e+001
1.693101e+003,3.604944e+001
1.694065e+003,3.614746e+001
1.695030e+003,3.115381e+001
1.695994e+003,2.650928e+001
1.696958e+003,2.667322e+001
1.697922e+003,2.815784e+001
1.698887e+003,2.590125e+001
1.699851e+003,2.162683e+001
1.700815e+003,2.064148e+001
1.701779e+003,2.304688e+001
1.702744e+003,2.403271e+001
1.703708e+003,2.239099e+001
1.704672e+003,2.039758e+001
1.705636e+003,1.829773e+001
1.706601e+003,1.662329e+001
1.707565e+003,1.798523e+001
1.708529e+003,2.153101e+001
1.709493e+003,2.305054e+001
1.710458e+003,2.174536e+001
1.711422e+003,2.062097e+001
1.712386e+003,2.289978e+001
1.713350e+003,2.428625e+001
1.714314e+003,1.863391e+001
1.715279e+003,1.035498e+001
1.716243e+003,7.976685e+000
1.717207e+003,1.092822e+001
1.718171e+003,1.296960e+001
1.719135e+003,1.249304e+001
1.720100e+003,1.114844e+001
1.721064e+003,9.806030e+000
1.722028e+003,7.778931e+000
1.722992e+003,3.656738e+000
1.723957e+003,-1.008057e+000
1.724921e+003,6.921387e-002
1.725885e+003,7.269531e+000
1.726849e+003,1.131287e+001
1.727814e+003,9.494385e+000
1.728778e+003,8.042725e+000
1.729742e+003,1.066821e+001
1.730706e+003,1.351672e+001
1.731671e+003,1.148242e+001
1.732635e+003,6.140747e+000
1.733599e+003,2.170532e+000
1.734563e+003,1.065186e+000
1.735528e+003,2.189819e+000
1.736492e+003,4.936523e+000
1.737456e+003,7.520508e+000
1.738420e+003,7.864258e+000
1.739385e+003,5.918823e+000
1.740349e+003,2.963257e+000
1.741313e+003,-1.073242e+000
1.742277e+003,-3.639160e+000
1.743241e+003,-3.542358e+000
1.744206e+003,-3.070923e+000
1.745170e+003,-2.444458e+000
1.746134e+003,-2.156250e+000
1.747098e+003,-3.531616e+000
1.748063e+003,-4.697144e+000
1.749027e+003,-3.082397e+000
1.749991e+003,7.884521e-001
1.750955e+003,5.737183e+000
1.751919e+003,1.042029e+001
1.752884e+003,1.078833e+001
1.753848e+003,3.356445e+000
1.754812e+003,-7.216431e+000
1.755776e+003,-1.091174e+001
1.756741e+003,-7.513184e+000
1.757705e+003,-5.566040e+000
1.758669e+003,-6.525757e+000
1.759633e+003,-5.909424e+000
1.760598e+003,-1.398315e+000
1.761562e+003,1.135742e+000
1.762526e+003,-1.140381e+000
1.763490e+003,-3.800293e+000
1.764455e+003,-2.750122e+000
1.765419e+003,-3.332520e-001
1.766383e+003,-1.807129e+000
1.767347e+003,-6.914551e+000
1.768312e+003,-9.812500e+000
1.769276e+003,-7.878540e+000
1.770240e+003,-4.137939e+000
1.771204e+003,-3.575439e-001
1.772168e+003,3.277100e+000
1.773133e+003,5.219849e+000
1.774097e+003,5.502441e+000
1.775061e+003,4.384399e+000
1.776025e+003,1.123535e+000
1.776990e+003,-2.141357e+000
1.777954e+003,-4.465820e+000
1.778918e+003,-5.323975e+000
1.779882e+003,-3.809814e+000
1.780846e+003,-2.051514e+000
1.781811e+003,-2.671997e+000
1.782775e+003,-4.811157e+000
1.783739e+003,-6.190552e+000
1.784703e+003,-6.351685e+000
1.785668e+003,-5.248291e+000
1.786632e+003,-2.183716e+000
1.787596e+003,-7.800293e-002
1.788560e+003,-1.946777e+000
1.789525e+003,-4.022827e+000
1.790489e+003,-1.074219e-002
1.791453e+003,7.375122e+000
1.792417e+003,8.893311e+000
1.793382e+003,3.254883e+000
1.794346e+003,-1.330811e+000
1.795310e+003,-4.932861e-001
1.796274e+003,1.430054e+000
1.797239e+003,-3.125000e-001
1.798203e+003,-3.795166e+000
1.799167e+003,-4.926392e+000
1.800131e+003,-4.510620e+000
1.801095e+003,-3.951660e+000
1.802060e+003,-1.594727e+000
1.803024e+003,3.355713e-001
1.803988e+003,1.053223e+000
1.804952e+003,1.245850e+000
1.805917e+003,1.379517e+000
1.806881e+003,9.912109e-001
1.807845e+003,-1.234253e+000
1.808809e+003,-3.695557e+000
1.809773e+003,-3.042969e+000
1.810738e+003,9.257813e-001
1.811702e+003,5.097778e+000
1.812666e+003,7.447876e+000
1.813630e+003,8.508179e+000
1.814595e+003,9.073486e+000
1.815559e+003,8.713013e+000
1.816523e+003,5.619019e+000
1.817487e+003,-5.617676e-001
1.818452e+003,-3.680786e+000
1.819416e+003,-2.147095e+000
1.820380e+003,1.727295e-001
1.821344e+003,2.177856e+000
1.822309e+003,3.733398e+000
1.823273e+003,5.441650e+000
1.824237e+003,6.940430e+000
1.825201e+003,7.621094e+000
1.826166e+003,7.296387e+000
1.827130e+003,5.345093e+000
1.828094e+003,1.585815e+000
1.829058e+003,-8.878174e-001
1.830022e+003,1.309814e-001
1.830987e+003,2.195190e+000
1.831951e+003,3.957642e+000
1.832915e+003,5.064575e+000
1.833879e+003,4.589722e+000
1.834844e+003,3.005737e+000
1.835808e+003,1.491943e+000
1.836772e+003,4.571533e-001
1.837736e+003,9.023438e-001
1.838700e+003,3.089844e+000
1.839665e+003,4.636230e+000
1.840629e+003,3.316162e+000
1.841593e+003,1.095093e+000
1.842557e+003,2.059814e+000
1.843522e+003,6.106812e+000
1.844486e+003,7.372437e+000
1.845450e+003,3.847778e+000
1.846414e+003,2.761719e+000
1.847379e+003,5.042969e+000
1.848343e+003,6.705444e+000
1.849307e+003,6.623047e+000
1.850271e+003,6.112427e+000
1.851236e+003,6.140259e+000
1.852200e+003,6.880493e+000
1.853164e+003,8.808594e+000
1.854128e+003,1.046008e+001
1.855093e+003,8.246338e+000
1.856057e+003,1.860596e+000
1.857021e+003,-2.991333e+000
1.857985e+003,-1.618164e+000
1.858949e+003,2.464722e+000
1.859914e+003,3.190308e+000
1.860878e+003,1.475708e+000
1.861842e+003,2.041504e+000
1.862806e+003,4.803467e+000
1.863771e+003,6.185059e+000
1.864735e+003,5.013428e+000
1.865699e+003,4.006592e+000
1.866663e+003,4.429932e+000
1.867627e+003,6.228516e+000
1.868592e+003,1.012683e+001
1.869556e+003,1.387756e+001
1.870520e+003,1.382776e+001
1.871484e+003,1.045203e+001
1.872449e+003,6.966064e+000
1.873413e+003,4.451782e+000
1.874377e+003,4.789795e+000
1.875341e+003,7.923706e+000
1.876306e+003,1.218848e+001
1.877270e+003,1.933740e+001
1.878234e+003,2.447339e+001
1.879198e+003,2.099609e+001
1.880163e+003,1.302197e+001
1.881127e+003,8.159912e+000
1.882091e+003,7.362915e+000
1.883055e+003,7.466675e+000
1.884020e+003,7.050293e+000
1.884984e+003,7.358398e+000
1.885948e+003,9.596924e+000
1.886912e+003,1.279089e+001
1.887876e+003,1.516687e+001
1.888841e+003,1.677478e+001
1.889805e+003,1.731799e+001
1.890769e+003,1.665430e+001
1.891733e+003,1.548096e+001
1.892698e+003,1.247534e+001
1.893662e+003,1.145557e+001
1.894626e+003,1.633618e+001
1.895590e+003,2.052856e+001
1.896554e+003,1.810339e+001
1.897519e+003,1.404749e+001
1.898483e+003,1.457532e+001
1.899447e+003,1.785913e+001
1.900411e+003,1.788794e+001
1.901376e+003,1.362292e+001
1.902340e+003,1.102173e+001
1.903304e+003,1.295349e+001
1.904268e+003,1.586133e+001
1.905233e+003,1.883911e+001
1.906197e+003,2.096960e+001
1.907161e+003,2.009253e+001
1.908125e+003,1.850940e+001
1.909090e+003,2.115161e+001
1.910054e+003,2.657861e+001
1.911018e+003,2.788220e+001
1.911982e+003,2.351489e+001
1.912947e+003,1.942676e+001
1.913911e+003,1.982727e+001
1.914875e+003,2.247742e+001
1.915839e+003,2.376160e+001
1.916803e+003,2.364880e+001
1.917768e+003,2.426611e+001
1.918732e+003,2.635205e+001
1.919696e+003,2.641895e+001
1.920660e+003,2.311731e+001
1.921625e+003,2.262793e+001
1.922589e+003,2.815271e+001
1.923553e+003,3.291089e+001
1.924517e+003,3.356067e+001
1.925481e+003,3.181348e+001
1.926446e+003,2.764539e+001
1.927410e+003,2.279614e+001
1.928374e+003,2.030640e+001
1.929338e+003,2.007349e+001
1.930303e+003,2.105640e+001
1.931267e+003,2.443372e+001
1.932231e+003,2.702332e+001
1.933195e+003,2.567700e+001
1.934160e+003,2.393225e+001
1.935124e+003,2.484521e+001
1.936088e+003,2.612939e+001
1.937052e+003,2.504822e+001
1.938017e+003,2.281189e+001
1.938981e+003,2.224109e+001
1.939945e+003,2.331152e+001
1.940909e+003,2.331689e+001
1.941874e+003,2.106873e+001
1.942838e+003,1.890686e+001
1.943802e+003,1.945081e+001
1.944766e+003,2.212256e+001
1.945730e+003,2.506433e+001
1.946695e+003,2.772754e+001
1.947659e+003,2.818420e+001
1.948623e+003,2.602783e+001
1.949587e+003,2.472034e+001
1.950552e+003,2.487683e+001
1.951516e+003,2.622595e+001
1.952480e+003,2.970227e+001
1.953444e+003,3.201392e+001
1.954408e+003,2.944153e+001
1.955373e+003,2.521057e+001
1.956337e+003,2.488464e+001
1.957301e+003,2.773352e+001
1.958265e+003,2.897986e+001
1.959230e+003,2.823840e+001
1.960194e+003,2.900183e+001
1.961158e+003,3.167249e+001
1.962122e+003,3.423511e+001
1.963087e+003,3.708936e+001
1.964051e+003,3.886597e+001
1.965015e+003,3.936780e+001
1.965979e+003,3.888391e+001
1.966944e+003,3.616663e+001
1.967908e+003,3.245105e+001
1.968872e+003,3.017542e+001
1.969836e+003,2.977856e+001
1.970801e+003,3.040161e+001
1.971765e+003,3.164807e+001
1.972729e+003,3.305371e+001
1.973693e+003,3.405188e+001
1.974657e+003,3.533435e+001
1.975622e+003,3.829187e+001
1.976586e+003,4.187024e+001
1.977550e+003,4.381152e+001
1.978514e+003,4.440845e+001
1.979479e+003,4.445813e+001
1.980443e+003,4.401855e+001
1.981407e+003,4.374023e+001
1.982371e+003,4.408350e+001
1.983335e+003,4.432629e+001
1.984300e+003,4.344714e+001
1.985264e+003,4.277869e+001
1.986228e+003,4.514404e+001
1.987192e+003,4.937317e+001
1.988157e+003,4.912073e+001
1.989121e+003,4.300061e+001
1.990085e+003,4.082104e+001
1.991049e+003,4.584326e+001
1.992014e+003,4.881409e+001
1.992978e+003,4.648328e+001
1.993942e+003,4.431335e+001
1.994906e+003,4.436292e+001
1.995871e+003,4.506543e+001
1.996835e+003,4.509351e+001
1.997799e+003,4.549573e+001
1.998763e+003,4.844360e+001
1.999728e+003,5.281409e+001
