5.003444e+002,3.229398e+001
5.013087e+002,3.350397e+001
5.022729e+002,3.362698e+001
5.032371e+002,3.296710e+001
5.042014e+002,3.214758e+001
5.051656e+002,3.122055e+001
5.061298e+002,3.006857e+001
5.070941e+002,2.841837e+001
5.080583e+002,2.580811e+001
5.090225e+002,2.498773e+001
5.099868e+002,2.696408e+001
5.109510e+002,2.904016e+001
5.119152e+002,2.982480e+001
5.128795e+002,2.920090e+001
5.138437e+002,2.852145e+001
5.148079e+002,2.866599e+001
5.157722e+002,2.858127e+001
5.167364e+002,2.763028e+001
5.177006e+002,2.577243e+001
5.186649e+002,2.352045e+001
5.196291e+002,2.130539e+001
5.205933e+002,1.959656e+001
5.215576e+002,1.865680e+001
5.225218e+002,1.837689e+001
5.234860e+002,1.859787e+001
5.244503e+002,1.926495e+001
5.254145e+002,2.080829e+001
5.263787e+002,2.207104e+001
5.273430e+002,2.321890e+001
5.283072e+002,2.399448e+001
5.292714e+002,2.391284e+001
5.302357e+002,2.236566e+001
5.311999e+002,2.052206e+001
5.321641e+002,1.819342e+001
5.331284e+002,1.632309e+001
5.340926e+002,1.577109e+001
5.350568e+002,1.683987e+001
5.360211e+002,1.794073e+001
5.369853e+002,1.753522e+001
5.379495e+002,1.687106e+001
5.389138e+002,1.717160e+001
5.398780e+002,1.873602e+001
5.408422e+002,2.063025e+001
5.418065e+002,1.987936e+001
5.427707e+002,1.694260e+001
5.437349e+002,1.515170e+001
5.446992e+002,1.552039e+001
5.456634e+002,1.746817e+001
5.466276e+002,1.904968e+001
5.475919e+002,2.107175e+001
5.485561e+002,2.156927e+001
5.495203e+002,1.904337e+001
5.504846e+002,1.529062e+001
5.514488e+002,1.308994e+001
5.524130e+002,1.422806e+001
5.533773e+002,1.543826e+001
5.543415e+002,1.493835e+001
5.553057e+002,1.365521e+001
5.562700e+002,1.236548e+001
5.572342e+002,1.152841e+001
5.581984e+002,1.110818e+001
5.591627e+002,1.125552e+001
5.601269e+002,1.189978e+001
5.610911e+002,1.294199e+001
5.620554e+002,1.436108e+001
5.630196e+002,1.588449e+001
5.639838e+002,1.558841e+001
5.649481e+002,1.159702e+001
5.659123e+002,8.545441e+000
5.668765e+002,7.920074e+000
5.678408e+002,9.050140e+000
5.688050e+002,9.655457e+000
5.697692e+002,7.926300e+000
5.707335e+002,6.916870e+000
5.716977e+002,8.409821e+000
5.726619e+002,1.098169e+001
5.736262e+002,1.265109e+001
5.745904e+002,1.199045e+001
5.755546e+002,1.045538e+001
5.765189e+002,1.027850e+001
5.774831e+002,1.078387e+001
5.784473e+002,1.107486e+001
5.794116e+002,1.062036e+001
5.803758e+002,9.589203e+000
5.813400e+002,8.491394e+000
5.823043e+002,6.831726e+000
5.832685e+002,5.598755e+000
5.842327e+002,6.001343e+000
5.851970e+002,7.710144e+000
5.861612e+002,7.737213e+000
5.871254e+002,1.918091e+000
5.880897e+002,-1.623352e+000
5.890539e+002,3.405762e-001
5.900181e+002,5.199402e+000
5.909824e+002,8.472260e+000
5.919466e+002,7.008423e+000
5.929108e+002,4.024597e+000
5.938751e+002,2.771881e+000
5.948393e+002,2.780334e+000
5.958035e+002,3.673767e+000
5.967678e+002,5.163605e+000
5.977320e+002,7.040680e+000
5.986962e+002,6.425507e+000
5.996605e+002,2.954193e+000
6.006247e+002,5.242615e-001
6.015889e+002,1.804321e+000
6.025532e+002,6.439178e+000
6.035174e+002,8.811554e+000
6.044816e+002,6.598450e+000
6.054459e+002,4.445679e+000
6.064101e+002,2.287720e+000
6.073743e+002,7.204285e-001
6.083386e+002,8.929443e-001
6.093028e+002,4.383209e+000
6.102670e+002,7.889709e+000
6.112313e+002,8.794739e+000
6.121955e+002,8.121399e+000
6.131597e+002,7.197754e+000
6.141240e+002,6.925629e+000
6.150882e+002,6.999847e+000
6.160524e+002,5.751709e+000
6.170167e+002,3.519501e+000
6.179809e+002,2.417847e+000
6.189451e+002,3.841522e+000
6.199094e+002,7.175812e+000
6.208736e+002,8.322357e+000
6.218378e+002,4.634613e+000
6.228021e+002,2.046204e+000
6.237663e+002,1.255554e+000
6.247305e+002,1.877930e+000
6.256948e+002,3.325897e+000
6.266590e+002,5.714508e+000
6.276232e+002,7.715027e+000
6.285875e+002,8.746918e+000
6.295517e+002,9.231537e+000
6.305159e+002,9.672424e+000
6.314802e+002,1.025143e+001
6.324444e+002,1.043881e+001
6.334086e+002,8.247040e+000
6.343729e+002,4.646301e+000
6.353371e+002,1.789185e+000
6.363013e+002,3.823853e-001
6.372656e+002,1.647949e-001
6.382298e+002,3.819275e-001
6.391940e+002,1.789825e+000
6.401583e+002,2.476135e+000
6.411225e+002,2.745483e+000
6.420867e+002,2.515778e+000
6.430510e+002,1.332031e+000
6.440152e+002,-1.451874e+000
6.449794e+002,-4.084320e+000
6.459437e+002,-6.313263e+000
6.469079e+002,-7.651581e+000
6.478721e+002,-7.038483e+000
6.488364e+002,-4.393921e+000
6.498006e+002,-1.331818e+000
6.507648e+002,-1.280975e+000
6.517291e+002,-3.105682e+000
6.526933e+002,-3.936951e+000
6.536575e+002,-3.232300e+000
6.546218e+002,-1.514221e+000
6.555860e+002,2.822876e-001
6.565502e+002,2.419342e+000
6.575145e+002,3.907288e+000
6.584787e+002,5.062592e+000
6.594429e+002,5.470306e+000
6.604072e+002,4.325592e+000
6.613714e+002,1.285004e+000
6.623356e+002,-8.743896e-001
6.632999e+002,9.130859e-002
6.642641e+002,1.236176e+000
6.652283e+002,8.717346e-001
6.661926e+002,-8.052368e-001
6.671568e+002,-2.155334e+000
6.681210e+002,-1.003174e+000
6.690853e+002,1.464813e+000
6.700495e+002,2.181122e+000
6.710137e+002,1.170044e+000
6.719780e+002,-3.574829e-001
6.729422e+002,-1.180786e+000
6.739064e+002,-1.269928e+000
6.748707e+002,-1.086334e+000
6.758349e+002,-4.372559e-001
6.767991e+002,1.033325e-001
6.777634e+002,3.666077e-001
6.787276e+002,5.070801e-001
6.796918e+002,9.175415e-001
6.806561e+002,2.008148e+000
6.816203e+002,2.727051e+000
6.825845e+002,2.321747e+000
6.835488e+002,1.352356e+000
6.845130e+002,9.550171e-001
6.854772e+002,2.133636e+000
6.864415e+002,3.759247e+000
6.874057e+002,2.200623e+000
6.883699e+002,-1.444153e+000
6.893342e+002,-3.552887e+000
6.902984e+002,-1.876831e+000
6.912626e+002,2.829834e+000
6.922269e+002,4.954010e+000
6.931911e+002,2.383301e+000
6.941553e+002,5.581055e-001
6.951196e+002,-5.367126e-001
6.960838e+002,-8.502197e-001
6.970480e+002,5.847168e-002
6.980123e+002,2.978516e+000
6.989765e+002,5.614136e+000
6.999407e+002,7.219299e+000
7.009050e+002,8.061920e+000
7.018692e+002,8.301178e+000
7.028334e+002,7.983032e+000
7.037977e+002,6.990082e+000
7.047619e+002,4.724365e+000
7.057261e+002,2.018433e+000
7.066904e+002,2.057495e-001
7.076546e+002,-4.963684e-001
7.086188e+002,-1.307068e-001
7.095831e+002,1.412445e+000
7.105473e+002,5.003723e+000
7.115115e+002,6.472473e+000
7.124758e+002,4.840118e+000
7.134400e+002,2.448853e+000
7.144042e+002,5.234680e-001
7.153685e+002,-7.770691e-001
7.163327e+002,-1.644012e+000
7.172969e+002,-1.916992e+000
7.182612e+002,-1.896210e+000
7.192254e+002,-1.622223e+000
7.201896e+002,-1.237518e+000
7.211539e+002,-9.109192e-001
7.221181e+002,-7.632141e-001
7.230823e+002,-7.295532e-001
7.240466e+002,-6.203918e-001
7.250108e+002,-3.128967e-001
7.259750e+002,2.038269e-001
7.269393e+002,8.629150e-001
7.279035e+002,1.391815e+000
7.288677e+002,1.029633e+000
7.298320e+002,-2.118164e+000
7.307962e+002,-2.956055e+000
7.317604e+002,9.655151e-001
7.327247e+002,6.600494e+000
7.336889e+002,9.442566e+000
7.346531e+002,7.513092e+000
7.356174e+002,4.423889e+000
7.365816e+002,1.871613e+000
7.375458e+002,4.272461e-002
7.385101e+002,-8.092957e-001
7.394743e+002,-7.098389e-001
7.404385e+002,3.155518e-002
7.414028e+002,1.100128e+000
7.423670e+002,1.953979e+000
7.433312e+002,1.855927e+000
7.442955e+002,9.537048e-001
7.452597e+002,-6.628418e-002
7.462239e+002,-7.540283e-001
7.471882e+002,-1.441803e+000
7.481524e+002,-5.021973e-001
7.491166e+002,3.143768e+000
7.500809e+002,6.367706e+000
7.510451e+002,8.230194e+000
7.520093e+002,8.725494e+000
7.529736e+002,8.146393e+000
7.539378e+002,6.107635e+000
7.549020e+002,4.245911e+000
7.558663e+002,3.568359e+000
7.568306e+002,3.633942e+000
7.577948e+002,3.698120e+000
7.587590e+002,3.284088e+000
7.597233e+002,2.689758e+000
7.606875e+002,3.565613e+000
7.616517e+002,5.802429e+000
7.626160e+002,7.139771e+000
7.635802e+002,6.832794e+000
7.645444e+002,5.576508e+000
7.655087e+002,4.691467e+000
7.664729e+002,4.059479e+000
7.674371e+002,4.053131e+000
7.684014e+002,5.305664e+000
7.693656e+002,6.471863e+000
7.703298e+002,6.481628e+000
7.712941e+002,5.359131e+000
7.722583e+002,4.513641e+000
7.732225e+002,5.516205e+000
7.741868e+002,6.648743e+000
7.751510e+002,6.441742e+000
7.761152e+002,5.200287e+000
7.770795e+002,3.826416e+000
7.780437e+002,3.089111e+000
7.790079e+002,2.866669e+000
7.799722e+002,2.416229e+000
7.809364e+002,1.596252e+000
7.819006e+002,1.287476e+000
7.828649e+002,2.518372e+000
7.838291e+002,4.725677e+000
7.847933e+002,5.629700e+000
7.857576e+002,3.943695e+000
7.867218e+002,2.401642e+000
7.876860e+002,1.665283e+000
7.886503e+002,1.447540e+000
7.896145e+002,1.519104e+000
7.905787e+002,1.798126e+000
7.915430e+002,2.284790e+000
7.925072e+002,2.658875e+000
7.934714e+002,3.185425e+000
7.944357e+002,5.066010e+000
7.953999e+002,8.025269e+000
7.963641e+002,1.015982e+001
7.973284e+002,9.174561e+000
7.982926e+002,4.820862e+000
7.992568e+002,2.069702e+000
8.002211e+002,7.436218e-001
8.011853e+002,-6.625366e-002
8.021495e+002,-4.162598e-002
8.031138e+002,7.729797e-001
8.040780e+002,1.336945e+000
8.050422e+002,6.805725e-001
8.060065e+002,5.911255e-001
8.069707e+002,1.624603e+000
8.079349e+002,3.199524e+000
8.088992e+002,4.986298e+000
8.098634e+002,6.865479e+000
8.108276e+002,8.736786e+000
8.117919e+002,1.076306e+001
8.127561e+002,1.198752e+001
8.137203e+002,1.045859e+001
8.146846e+002,6.230682e+000
8.156488e+002,1.898315e+000
8.166130e+002,5.770264e-001
8.175773e+002,2.759552e+000
8.185415e+002,4.753021e+000
8.195057e+002,6.974152e+000
8.204700e+002,8.252930e+000
8.214342e+002,7.247772e+000
8.223984e+002,5.008423e+000
8.233627e+002,4.543915e+000
8.243269e+002,8.132324e+000
8.252911e+002,1.120340e+001
8.262554e+002,1.073090e+001
8.272196e+002,8.724579e+000
8.281838e+002,7.038757e+000
8.291481e+002,6.443054e+000
8.301123e+002,6.520447e+000
8.310765e+002,6.631165e+000
8.320408e+002,6.735931e+000
8.330050e+002,6.932434e+000
8.339692e+002,7.348297e+000
8.349335e+002,7.626099e+000
8.358977e+002,7.461517e+000
8.368619e+002,6.929016e+000
8.378262e+002,6.155884e+000
8.387904e+002,4.095734e+000
8.397546e+002,2.728882e+000
8.407189e+002,2.937134e+000
8.416831e+002,4.116333e+000
8.426473e+002,5.285797e+000
8.436116e+002,6.117798e+000
8.445758e+002,6.516968e+000
8.455400e+002,5.900452e+000
8.465043e+002,4.713959e+000
8.474685e+002,3.665375e+000
8.484327e+002,3.086548e+000
8.493970e+002,2.741577e+000
8.503612e+002,1.930389e+000
8.513254e+002,2.852783e-001
8.522897e+002,1.188354e+000
8.532539e+002,6.565979e+000
8.542181e+002,1.144589e+001
8.551824e+002,1.246921e+001
8.561466e+002,1.035086e+001
8.571108e+002,9.748535e+000
8.580751e+002,1.273938e+001
8.590393e+002,1.494580e+001
8.600035e+002,1.461899e+001
8.609678e+002,1.330823e+001
8.619320e+002,1.271649e+001
8.628962e+002,1.351578e+001
8.638605e+002,1.499710e+001
8.648247e+002,1.651999e+001
8.657889e+002,1.776242e+001
8.667532e+002,1.785535e+001
8.677174e+002,1.668842e+001
8.686816e+002,1.532898e+001
8.696459e+002,1.503857e+001
8.706101e+002,1.603705e+001
8.715743e+002,1.724222e+001
8.725386e+002,1.961523e+001
8.735028e+002,2.103168e+001
8.744670e+002,1.985181e+001
8.754313e+002,1.734534e+001
8.763955e+002,1.611447e+001
8.773597e+002,1.731107e+001
8.783240e+002,1.915942e+001
8.792882e+002,2.082977e+001
8.802524e+002,2.203467e+001
8.812167e+002,2.232443e+001
8.821809e+002,2.176169e+001
8.831451e+002,2.088150e+001
8.841094e+002,2.037698e+001
8.850736e+002,2.041193e+001
8.860378e+002,2.108096e+001
8.870021e+002,2.243582e+001
8.879663e+002,2.374481e+001
8.889305e+002,2.468161e+001
8.898948e+002,2.516397e+001
8.908590e+002,2.496475e+001
8.918232e+002,2.349030e+001
8.927875e+002,2.261194e+001
8.937517e+002,2.268607e+001
8.947159e+002,2.345670e+001
8.956802e+002,2.488876e+001
8.966444e+002,2.671069e+001
8.976086e+002,2.821796e+001
8.985729e+002,2.891428e+001
8.995371e+002,2.895633e+001
9.005013e+002,2.814270e+001
9.014656e+002,2.681299e+001
9.024298e+002,2.618872e+001
9.033940e+002,2.719052e+001
9.043583e+002,2.938138e+001
9.053225e+002,3.036487e+001
9.062867e+002,2.826553e+001
9.072510e+002,2.712061e+001
9.082152e+002,2.797195e+001
9.091794e+002,2.957864e+001
9.101437e+002,3.073181e+001
9.111079e+002,3.122256e+001
9.120721e+002,3.150253e+001
9.130364e+002,3.195474e+001
9.140006e+002,3.177725e+001
9.149648e+002,3.028198e+001
9.159291e+002,2.803357e+001
9.168933e+002,2.567368e+001
9.178575e+002,2.361530e+001
9.188218e+002,2.233591e+001
9.197860e+002,2.468469e+001
9.207502e+002,3.077930e+001
9.217145e+002,3.382401e+001
9.226787e+002,3.129520e+001
9.236429e+002,2.678806e+001
9.246072e+002,2.516910e+001
9.255714e+002,2.703003e+001
9.265356e+002,2.787744e+001
9.274999e+002,2.541312e+001
9.284641e+002,2.337607e+001
9.294283e+002,2.368076e+001
9.303926e+002,2.533667e+001
9.313568e+002,2.642270e+001
9.323210e+002,2.594431e+001
9.332853e+002,2.449536e+001
9.342495e+002,2.260034e+001
9.352137e+002,2.042746e+001
9.361780e+002,1.830206e+001
9.371422e+002,1.642831e+001
9.381064e+002,1.499814e+001
9.390707e+002,1.409399e+001
9.400349e+002,1.351883e+001
9.409991e+002,1.359189e+001
9.419634e+002,1.418396e+001
9.429276e+002,1.537939e+001
9.438918e+002,1.806506e+001
9.448561e+002,2.116821e+001
9.458203e+002,2.281989e+001
9.467845e+002,2.237326e+001
9.477488e+002,2.146448e+001
9.487130e+002,2.077982e+001
9.496772e+002,2.045615e+001
9.506415e+002,2.095438e+001
9.516057e+002,2.203867e+001
9.525699e+002,2.280725e+001
9.535342e+002,2.233865e+001
9.544984e+002,2.077628e+001
9.554626e+002,1.991119e+001
9.564269e+002,1.980396e+001
9.573911e+002,2.075024e+001
9.583553e+002,2.439276e+001
9.593196e+002,2.835660e+001
9.602838e+002,2.799115e+001
9.612480e+002,2.158682e+001
9.622123e+002,1.714166e+001
9.631765e+002,1.855356e+001
9.641407e+002,2.088834e+001
9.651050e+002,2.254370e+001
9.660692e+002,2.307901e+001
9.670334e+002,2.208472e+001
9.679977e+002,1.933118e+001
9.689619e+002,1.655307e+001
9.699261e+002,1.848218e+001
9.708904e+002,2.317160e+001
9.718546e+002,2.496136e+001
9.728188e+002,2.207980e+001
9.737831e+002,1.789124e+001
9.747473e+002,1.695984e+001
9.757115e+002,1.994727e+001
9.766758e+002,2.302066e+001
9.776400e+002,2.739899e+001
9.786042e+002,3.065387e+001
9.795685e+002,3.201785e+001
9.805327e+002,3.172562e+001
9.814969e+002,2.972601e+001
9.824612e+002,2.609119e+001
9.834254e+002,2.305435e+001
9.843896e+002,2.322397e+001
9.853539e+002,2.467523e+001
9.863181e+002,2.599167e+001
9.872823e+002,2.665308e+001
9.882466e+002,2.576440e+001
9.892108e+002,2.265067e+001
9.901750e+002,1.807471e+001
9.911393e+002,1.599515e+001
9.921035e+002,1.768961e+001
9.930677e+002,1.900635e+001
9.940320e+002,2.014371e+001
9.949962e+002,2.094565e+001
9.959604e+002,2.084363e+001
9.969247e+002,1.993689e+001
9.978889e+002,2.000092e+001
9.988531e+002,2.236081e+001
9.998174e+002,2.481219e+001
1.000782e+003,2.597836e+001
1.001746e+003,2.664304e+001
1.002710e+003,2.822516e+001
1.003674e+003,3.115131e+001
1.004639e+003,3.411594e+001
1.005603e+003,3.473013e+001
1.006567e+003,3.264896e+001
1.007531e+003,3.130762e+001
1.008495e+003,3.066992e+001
1.009460e+003,3.079883e+001
1.010424e+003,3.252176e+001
1.011388e+003,3.524033e+001
1.012352e+003,3.618781e+001
1.013317e+003,3.407269e+001
1.014281e+003,3.183875e+001
1.015245e+003,3.045728e+001
1.016209e+003,2.913538e+001
1.017174e+003,2.715842e+001
1.018138e+003,2.468701e+001
1.019102e+003,2.268903e+001
1.020066e+003,2.213181e+001
1.021031e+003,2.224655e+001
1.021995e+003,1.991031e+001
1.022959e+003,1.554718e+001
1.023923e+003,1.225980e+001
1.024887e+003,1.111789e+001
1.025852e+003,1.131726e+001
1.026816e+003,1.196042e+001
1.027780e+003,1.351193e+001
1.028744e+003,1.393668e+001
1.029709e+003,1.220187e+001
1.030673e+003,1.029108e+001
1.031637e+003,8.244812e+000
1.032601e+003,6.482880e+000
1.033566e+003,5.604950e+000
1.034530e+003,5.855530e+000
1.035494e+003,6.845306e+000
1.036458e+003,8.742462e+000
1.037422e+003,1.055408e+001
1.038387e+003,1.057159e+001
1.039351e+003,8.817719e+000
1.040315e+003,6.348785e+000
1.041279e+003,3.841156e+000
1.042244e+003,1.586731e+000
1.043208e+003,7.339172e-001
1.044172e+003,1.634521e+000
1.045136e+003,3.219666e+000
1.046101e+003,6.916595e+000
1.047065e+003,9.983459e+000
1.048029e+003,1.006601e+001
1.048993e+003,7.777405e+000
1.049958e+003,5.933960e+000
1.050922e+003,6.023682e+000
1.051886e+003,6.755493e+000
1.052850e+003,6.733795e+000
1.053814e+003,6.439240e+000
1.054779e+003,6.666229e+000
1.055743e+003,7.457703e+000
1.056707e+003,7.913574e+000
1.057671e+003,6.866760e+000
1.058636e+003,4.267914e+000
1.059600e+003,3.383820e+000
1.060564e+003,5.925385e+000
1.061528e+003,8.032684e+000
1.062493e+003,8.936096e+000
1.063457e+003,9.020447e+000
1.064421e+003,8.763641e+000
1.065385e+003,8.298401e+000
1.066349e+003,7.533905e+000
1.067314e+003,6.045746e+000
1.068278e+003,4.716949e+000
1.069242e+003,4.167358e+000
1.070206e+003,4.259827e+000
1.071171e+003,4.765656e+000
1.072135e+003,5.467773e+000
1.073099e+003,6.146851e+000
1.074063e+003,6.570190e+000
1.075028e+003,6.788879e+000
1.075992e+003,6.848969e+000
1.076956e+003,6.544983e+000
1.077920e+003,6.175995e+000
1.078885e+003,6.054993e+000
1.079849e+003,6.103943e+000
1.080813e+003,6.009949e+000
1.081777e+003,5.694763e+000
1.082741e+003,5.603668e+000
1.083706e+003,5.841461e+000
1.084670e+003,6.130280e+000
1.085634e+003,6.271484e+000
1.086598e+003,6.367035e+000
1.087563e+003,6.877991e+000
1.088527e+003,8.057678e+000
1.089491e+003,9.317780e+000
1.090455e+003,9.163391e+000
1.091420e+003,7.260742e+000
1.092384e+003,5.940460e+000
1.093348e+003,5.467651e+000
1.094312e+003,4.819458e+000
1.095276e+003,3.258392e+000
1.096241e+003,1.273895e+000
1.097205e+003,-6.011963e-003
1.098169e+003,-6.921692e-001
1.099133e+003,-3.315735e-001
1.100098e+003,2.392578e+000
1.101062e+003,5.214142e+000
1.102026e+003,6.879913e+000
1.102990e+003,7.430725e+000
1.103955e+003,7.163422e+000
1.104919e+003,6.264038e+000
1.105883e+003,5.328339e+000
1.106847e+003,6.025940e+000
1.107812e+003,8.308929e+000
1.108776e+003,8.605774e+000
1.109740e+003,5.863739e+000
1.110704e+003,3.012604e+000
1.111668e+003,1.964905e+000
1.112633e+003,2.702911e+000
1.113597e+003,5.131836e+000
1.114561e+003,1.059305e+001
1.115525e+003,1.416504e+001
1.116490e+003,1.342511e+001
1.117454e+003,1.144214e+001
1.118418e+003,9.634949e+000
1.119382e+003,8.559143e+000
1.120347e+003,8.462341e+000
1.121311e+003,9.356445e+000
1.122275e+003,1.074472e+001
1.123239e+003,1.253275e+001
1.124203e+003,1.466840e+001
1.125168e+003,1.413776e+001
1.126132e+003,9.630005e+000
1.127096e+003,5.413269e+000
1.128060e+003,4.900299e+000
1.129025e+003,7.331848e+000
1.129989e+003,9.427826e+000
1.130953e+003,1.082468e+001
1.131917e+003,1.206299e+001
1.132882e+003,1.295517e+001
1.133846e+003,1.420660e+001
1.134810e+003,1.640808e+001
1.135774e+003,1.935153e+001
1.136739e+003,2.267841e+001
1.137703e+003,2.614047e+001
1.138667e+003,2.906506e+001
1.139631e+003,2.995276e+001
1.140595e+003,2.907678e+001
1.141560e+003,2.938077e+001
1.142524e+003,3.118448e+001
1.143488e+003,3.399402e+001
1.144452e+003,3.736026e+001
1.145417e+003,4.139737e+001
1.146381e+003,4.660971e+001
1.147345e+003,5.320300e+001
1.148309e+003,6.033395e+001
1.149274e+003,6.836172e+001
1.150238e+003,7.641818e+001
1.151202e+003,8.398267e+001
1.152166e+003,9.143909e+001
1.153130e+003,9.994470e+001
1.154095e+003,1.096874e+002
1.155059e+003,1.182635e+002
1.156023e+003,1.222598e+002
1.156987e+003,1.221191e+002
1.157952e+003,1.223789e+002
1.158916e+003,1.236798e+002
1.159880e+003,1.238084e+002
1.160844e+003,1.215946e+002
1.161809e+003,1.168119e+002
1.162773e+003,1.088496e+002
1.163737e+003,9.679004e+001
1.164701e+003,8.585699e+001
1.165666e+003,7.852103e+001
1.166630e+003,7.161819e+001
1.167594e+003,6.318185e+001
1.168558e+003,5.477676e+001
1.169522e+003,4.853238e+001
1.170487e+003,4.513336e+001
1.171451e+003,4.407532e+001
1.172415e+003,4.514438e+001
1.173379e+003,4.753964e+001
1.174344e+003,4.684778e+001
1.175308e+003,4.294870e+001
1.176272e+003,4.005475e+001
1.177236e+003,4.053964e+001
1.178201e+003,4.201810e+001
1.179165e+003,4.111276e+001
1.180129e+003,3.766705e+001
1.181093e+003,3.456381e+001
1.182057e+003,3.257593e+001
1.183022e+003,3.092432e+001
1.183986e+003,2.915793e+001
1.184950e+003,2.766202e+001
1.185914e+003,2.703940e+001
1.186879e+003,2.719580e+001
1.187843e+003,2.728268e+001
1.188807e+003,2.653073e+001
1.189771e+003,2.550974e+001
1.190736e+003,2.641971e+001
1.191700e+003,2.954379e+001
1.192664e+003,3.136786e+001
1.193628e+003,3.102768e+001
1.194593e+003,3.028949e+001
1.195557e+003,3.059714e+001
1.196521e+003,3.147675e+001
1.197485e+003,3.114359e+001
1.198449e+003,2.886591e+001
1.199414e+003,2.696411e+001
1.200378e+003,2.710477e+001
1.201342e+003,2.742911e+001
1.202306e+003,2.649780e+001
1.203271e+003,2.475253e+001
1.204235e+003,2.365558e+001
1.205199e+003,2.384097e+001
1.206163e+003,2.403665e+001
1.207128e+003,2.191556e+001
1.208092e+003,1.731317e+001
1.209056e+003,1.473337e+001
1.210020e+003,1.509491e+001
1.210984e+003,1.526532e+001
1.211949e+003,1.436429e+001
1.212913e+003,1.271780e+001
1.213877e+003,1.080298e+001
1.214841e+003,8.695801e+000
1.215806e+003,5.972748e+000
1.216770e+003,1.161926e+000
1.217734e+003,-2.205963e+000
1.218698e+003,-4.946594e-001
1.219663e+003,2.909363e+000
1.220627e+003,3.654755e+000
1.221591e+003,1.228973e+000
1.222555e+003,-1.771301e+000
1.223520e+003,-2.929413e+000
1.224484e+003,-2.509186e+000
1.225448e+003,-2.106262e+000
1.226412e+003,-1.944733e+000
1.227376e+003,-1.333496e+000
1.228341e+003,1.079132e+000
1.229305e+003,2.314880e+000
1.230269e+003,-5.020142e-001
1.231233e+003,-5.315491e+000
1.232198e+003,-7.682861e+000
1.233162e+003,-6.305145e+000
1.234126e+003,-4.192535e+000
1.235090e+003,-3.155243e+000
1.236055e+003,-2.995209e+000
1.237019e+003,-3.785187e+000
1.237983e+003,-5.193787e+000
1.238947e+003,-6.347992e+000
1.239911e+003,-6.803284e+000
1.240876e+003,-6.645752e+000
1.241840e+003,-6.085175e+000
1.242804e+003,-5.122314e+000
1.243768e+003,-3.635223e+000
1.244733e+003,5.768433e-001
1.245697e+003,2.210602e+000
1.246661e+003,-2.130768e+000
1.247625e+003,-6.781158e+000
1.248590e+003,-6.653503e+000
1.249554e+003,-2.850647e+000
1.250518e+003,-2.494507e-001
1.251482e+003,-1.187042e+000
1.252447e+003,-3.325195e+000
1.253411e+003,-3.898712e+000
1.254375e+003,-3.420013e+000
1.255339e+003,-3.069641e+000
1.256303e+003,-2.843811e+000
1.257268e+003,-2.733276e+000
1.258232e+003,-3.059021e+000
1.259196e+003,-3.422638e+000
1.260160e+003,-2.534668e+000
1.261125e+003,6.042480e-002
1.262089e+003,1.919769e+000
1.263053e+003,2.229156e+000
1.264017e+003,2.113525e+000
1.264982e+003,1.616058e+000
1.265946e+003,1.097137e+000
1.266910e+003,6.749268e-001
1.267874e+003,5.260010e-001
1.268839e+003,1.209290e+000
1.269803e+003,3.129608e+000
1.270767e+003,5.252045e+000
1.271731e+003,5.357880e+000
1.272695e+003,3.595978e+000
1.273660e+003,3.071167e+000
1.274624e+003,4.341980e+000
1.275588e+003,4.877991e+000
1.276552e+003,2.810577e+000
1.277517e+003,-3.953247e-001
1.278481e+003,-2.090057e+000
1.279445e+003,-2.083435e+000
1.280409e+003,-2.040558e+000
1.281374e+003,-2.279327e+000
1.282338e+003,-2.834564e+000
1.283302e+003,-4.091217e+000
1.284266e+003,-5.454132e+000
1.285230e+003,-6.352417e+000
1.286195e+003,-6.648834e+000
1.287159e+003,-6.291046e+000
1.288123e+003,-5.165588e+000
1.289087e+003,-3.598602e+000
1.290052e+003,-2.897552e+000
1.291016e+003,-3.469727e+000
1.291980e+003,-3.943573e+000
1.292944e+003,-4.682037e+000
1.293909e+003,-5.144623e+000
1.294873e+003,-4.388275e+000
1.295837e+003,-3.404419e+000
1.296801e+003,-4.017120e+000
1.297766e+003,-6.283508e+000
1.298730e+003,-7.825195e+000
1.299694e+003,-7.231384e+000
1.300658e+003,-5.979889e+000
1.301622e+003,-5.175720e+000
1.302587e+003,-4.916809e+000
1.303551e+003,-5.879913e+000
1.304515e+003,-7.959930e+000
1.305479e+003,-9.549927e+000
1.306444e+003,-9.350830e+000
1.307408e+003,-7.942230e+000
1.308372e+003,-7.062439e+000
1.309336e+003,-6.911102e+000
1.310301e+003,-6.721375e+000
1.311265e+003,-6.332703e+000
1.312229e+003,-5.880005e+000
1.313193e+003,-5.493134e+000
1.314157e+003,-5.069672e+000
1.315122e+003,-4.208557e+000
1.316086e+003,-3.176636e+000
1.317050e+003,-3.025757e+000
1.318014e+003,-4.436829e+000
1.318979e+003,-6.536499e+000
1.319943e+003,-8.152313e+000
1.320907e+003,-9.095795e+000
1.321871e+003,-8.605988e+000
1.322836e+003,-6.446411e+000
1.323800e+003,-4.297211e+000
1.324764e+003,-2.908356e+000
1.325728e+003,-2.091064e+000
1.326693e+003,-1.662292e+000
1.327657e+003,-1.702698e+000
1.328621e+003,-1.937775e+000
1.329585e+003,-1.961670e+000
1.330549e+003,-1.890228e+000
1.331514e+003,-1.965240e+000
1.332478e+003,-2.463501e+000
1.333442e+003,-4.128174e+000
1.334406e+003,-6.300568e+000
1.335371e+003,-6.905487e+000
1.336335e+003,-4.776306e+000
1.337299e+003,-1.667725e+000
1.338263e+003,-1.018250e+000
1.339228e+003,-3.145782e+000
1.340192e+003,-4.702759e+000
1.341156e+003,-5.957825e+000
1.342120e+003,-6.330627e+000
1.343084e+003,-5.276489e+000
1.344049e+003,-3.982727e+000
1.345013e+003,-3.091553e+000
1.345977e+003,-2.620911e+000
1.346941e+003,-2.647705e+000
1.347906e+003,-3.244385e+000
1.348870e+003,-3.856873e+000
1.349834e+003,-4.142303e+000
1.350798e+003,-4.075378e+000
1.351763e+003,-3.296234e+000
1.352727e+003,-1.946899e+000
1.353691e+003,-1.130249e+000
1.354655e+003,-1.320648e+000
1.355620e+003,-1.818481e+000
1.356584e+003,-1.539612e+000
1.357548e+003,-6.229858e-001
1.358512e+003,-9.304810e-001
1.359476e+003,-3.298370e+000
1.360441e+003,-5.390961e+000
1.361405e+003,-6.828491e+000
1.362369e+003,-7.481476e+000
1.363333e+003,-6.567047e+000
1.364298e+003,-5.147766e+000
1.365262e+003,-5.017334e+000
1.366226e+003,-6.277710e+000
1.367190e+003,-6.905334e+000
1.368155e+003,-5.054901e+000
1.369119e+003,-1.789001e+000
1.370083e+003,-4.491882e-001
1.371047e+003,-1.424957e+000
1.372011e+003,-2.633850e+000
1.372976e+003,-5.160767e+000
1.373940e+003,-6.822876e+000
1.374904e+003,-6.455444e+000
1.375868e+003,-4.895874e+000
1.376833e+003,-2.854034e+000
1.377797e+003,-6.548767e-001
1.378761e+003,7.780151e-001
1.379725e+003,9.938049e-001
1.380690e+003,6.719666e-001
1.381654e+003,2.602844e-001
1.382618e+003,-6.973267e-002
1.383582e+003,1.535034e-002
1.384547e+003,4.476318e-001
1.385511e+003,5.413513e-001
1.386475e+003,-2.782898e-001
1.387439e+003,-1.051422e+000
1.388403e+003,4.792175e-001
1.389368e+003,4.280029e+000
1.390332e+003,4.593903e+000
1.391296e+003,-1.429108e+000
1.392260e+003,-5.243988e+000
1.393225e+003,-3.613129e+000
1.394189e+003,-1.032562e+000
1.395153e+003,6.534424e-001
1.396117e+003,1.308289e+000
1.397082e+003,9.154358e-001
1.398046e+003,-2.637939e-001
1.399010e+003,-1.562347e+000
1.399974e+003,-2.488037e+000
1.400938e+003,-2.952454e+000
1.401903e+003,-2.035522e+000
1.402867e+003,1.307648e+000
1.403831e+003,3.171143e+000
1.404795e+003,2.047852e+000
1.405760e+003,1.168030e+000
1.406724e+003,1.794067e+000
1.407688e+003,2.616333e+000
1.408652e+003,2.526184e+000
1.409617e+003,1.579437e+000
1.410581e+003,-2.520142e-001
1.411545e+003,-3.282990e+000
1.412509e+003,-5.613556e+000
1.413474e+003,-5.054749e+000
1.414438e+003,-3.019501e+000
1.415402e+003,-1.272522e+000
1.416366e+003,1.801453e-001
1.417330e+003,8.978577e-001
1.418295e+003,5.584717e-001
1.419259e+003,4.333496e-003
1.420223e+003,3.192749e-001
1.421187e+003,1.185913e+000
1.422152e+003,1.089203e+000
1.423116e+003,-1.980896e-001
1.424080e+003,-1.230438e+000
1.425044e+003,-2.254730e+000
1.426009e+003,-2.517395e+000
1.426973e+003,-1.165771e+000
1.427937e+003,8.045654e-001
1.428901e+003,2.378784e+000
1.429865e+003,3.432220e+000
1.430830e+003,4.362122e+000
1.431794e+003,5.355835e+000
1.432758e+003,5.978149e+000
1.433722e+003,5.481049e+000
1.434687e+003,3.929871e+000
1.435651e+003,3.411377e+000
1.436615e+003,3.846558e+000
1.437579e+003,4.379395e+000
1.438544e+003,5.523804e+000
1.439508e+003,6.292145e+000
1.440472e+003,5.349060e+000
1.441436e+003,3.983215e+000
1.442401e+003,5.210419e+000
1.443365e+003,9.313446e+000
1.444329e+003,1.196909e+001
1.445293e+003,9.611603e+000
1.446257e+003,5.258942e+000
1.447222e+003,4.967651e+000
1.448186e+003,7.811371e+000
1.449150e+003,8.744019e+000
1.450114e+003,6.845276e+000
1.451079e+003,4.863190e+000
1.452043e+003,4.280701e+000
1.453007e+003,4.536896e+000
1.453971e+003,5.048553e+000
1.454936e+003,5.625000e+000
1.455900e+003,5.304474e+000
1.456864e+003,3.593872e+000
1.457828e+003,2.315338e+000
1.458792e+003,3.002380e+000
1.459757e+003,3.919983e+000
1.460721e+003,3.583893e+000
1.461685e+003,2.412476e+000
1.462649e+003,1.272583e+000
1.463614e+003,5.146790e-001
1.464578e+003,3.366089e-001
1.465542e+003,9.748230e-001
1.466506e+003,1.989380e+000
1.467471e+003,2.047089e+000
1.468435e+003,8.691101e-001
1.469399e+003,1.081573e+000
1.470363e+003,4.266296e+000
1.471328e+003,6.396515e+000
1.472292e+003,5.842438e+000
1.473256e+003,4.385376e+000
1.474220e+003,3.046906e+000
1.475184e+003,2.276154e+000
1.476149e+003,2.439728e+000
1.477113e+003,3.445770e+000
1.478077e+003,4.680725e+000
1.479041e+003,5.690704e+000
1.480006e+003,6.489410e+000
1.480970e+003,6.721252e+000
1.481934e+003,5.932129e+000
1.482898e+003,5.829926e+000
1.483863e+003,7.245270e+000
1.484827e+003,8.031952e+000
1.485791e+003,7.044525e+000
1.486755e+003,5.958893e+000
1.487719e+003,6.601746e+000
1.488684e+003,8.259247e+000
1.489648e+003,8.342346e+000
1.490612e+003,6.217377e+000
1.491576e+003,5.643341e+000
1.492541e+003,1.027600e+001
1.493505e+003,1.722797e+001
1.494469e+003,1.992249e+001
1.495433e+003,1.893555e+001
1.496398e+003,1.868573e+001
1.497362e+003,2.032553e+001
1.498326e+003,2.149484e+001
1.499290e+003,1.939420e+001
1.500255e+003,1.719788e+001
1.501219e+003,1.996478e+001
1.502183e+003,2.679611e+001
1.503147e+003,3.204810e+001
1.504111e+003,3.420340e+001
1.505076e+003,3.618631e+001
1.506040e+003,3.934616e+001
1.507004e+003,4.356845e+001
1.507968e+003,4.896024e+001
1.508933e+003,5.511926e+001
1.509897e+003,6.119986e+001
1.510861e+003,6.728552e+001
1.511825e+003,7.413934e+001
1.512790e+003,8.221027e+001
1.513754e+003,9.097366e+001
1.514718e+003,9.965033e+001
1.515682e+003,1.081036e+002
1.516646e+003,1.167997e+002
1.517611e+003,1.257258e+002
1.518575e+003,1.354773e+002
1.519539e+003,1.489496e+002
1.520503e+003,1.607662e+002
1.521468e+003,1.676708e+002
1.522432e+003,1.712276e+002
1.523396e+003,1.737921e+002
1.524360e+003,1.756795e+002
1.525325e+003,1.758533e+002
1.526289e+003,1.736669e+002
1.527253e+003,1.694987e+002
1.528217e+003,1.638138e+002
1.529182e+003,1.567234e+002
1.530146e+003,1.496272e+002
1.531110e+003,1.436632e+002
1.532074e+003,1.351693e+002
1.533039e+003,1.218483e+002
1.534003e+003,1.079370e+002
1.534967e+003,9.528824e+001
1.535931e+003,8.369394e+001
1.536896e+003,7.260629e+001
1.537860e+003,6.207642e+001
1.538824e+003,5.238361e+001
1.539788e+003,4.360373e+001
1.540752e+003,3.566718e+001
1.541717e+003,2.844223e+001
1.542681e+003,2.232336e+001
1.543645e+003,1.916336e+001
1.544609e+003,2.070898e+001
1.545573e+003,2.130515e+001
1.546538e+003,2.017822e+001
1.547502e+003,1.869211e+001
1.548466e+003,1.720569e+001
1.549430e+003,1.611081e+001
1.550395e+003,1.596289e+001
1.551359e+003,1.629764e+001
1.552323e+003,1.584946e+001
1.553287e+003,1.425845e+001
1.554252e+003,1.274866e+001
1.555216e+003,1.248514e+001
1.556180e+003,1.268765e+001
1.557144e+003,1.130814e+001
1.558109e+003,8.351654e+000
1.559073e+003,6.852844e+000
1.560037e+003,7.538147e+000
1.561001e+003,7.755280e+000
1.561966e+003,6.038025e+000
1.562930e+003,4.478607e+000
1.563894e+003,5.319183e+000
1.564858e+003,7.583527e+000
1.565823e+003,8.900543e+000
1.566787e+003,8.791931e+000
1.567751e+003,8.020874e+000
1.568715e+003,6.801605e+000
1.569679e+003,5.949524e+000
1.570644e+003,6.880554e+000
1.571608e+003,8.695374e+000
1.572572e+003,9.005249e+000
1.573536e+003,7.816589e+000
1.574500e+003,6.606628e+000
1.575465e+003,5.411774e+000
1.576429e+003,4.902985e+000
1.577393e+003,5.769623e+000
1.578357e+003,7.545685e+000
1.579322e+003,9.871857e+000
1.580286e+003,1.260468e+001
1.581250e+003,1.398270e+001
1.582214e+003,1.315753e+001
1.583179e+003,1.204474e+001
1.584143e+003,1.191086e+001
1.585107e+003,1.221320e+001
1.586071e+003,1.270294e+001
1.587036e+003,1.329459e+001
1.588000e+003,1.303711e+001
1.588964e+003,1.155499e+001
1.589928e+003,1.005096e+001
1.590893e+003,9.181915e+000
1.591857e+003,8.931946e+000
1.592821e+003,9.519562e+000
1.593785e+003,1.080566e+001
1.594750e+003,1.186639e+001
1.595714e+003,1.255191e+001
1.596678e+003,1.270154e+001
1.597642e+003,1.165869e+001
1.598606e+003,1.099063e+001
1.599571e+003,1.253210e+001
1.600535e+003,1.490762e+001
1.601499e+003,1.646783e+001
1.602463e+003,1.703580e+001
1.603427e+003,1.670010e+001
1.604392e+003,1.537167e+001
1.605356e+003,1.427396e+001
1.606320e+003,1.507120e+001
1.607284e+003,1.693219e+001
1.608249e+003,1.729898e+001
1.609213e+003,1.611172e+001
1.610177e+003,1.528046e+001
1.611141e+003,1.527753e+001
1.612106e+003,1.525644e+001
1.613070e+003,1.429065e+001
1.614034e+003,1.362479e+001
1.614998e+003,1.496136e+001
1.615963e+003,1.691928e+001
1.616927e+003,1.665686e+001
1.617891e+003,1.405283e+001
1.618855e+003,1.192862e+001
1.619820e+003,1.192749e+001
1.620784e+003,1.282419e+001
1.621748e+003,1.339691e+001
1.622712e+003,1.381396e+001
1.623677e+003,1.356076e+001
1.624641e+003,1.240292e+001
1.625605e+003,1.214264e+001
1.626569e+003,1.360489e+001
1.627533e+003,1.447977e+001
1.628498e+003,1.311102e+001
1.629462e+003,1.153784e+001
1.630426e+003,1.151117e+001
1.631390e+003,1.258640e+001
1.632354e+003,1.382767e+001
1.633319e+003,1.485419e+001
1.634283e+003,1.503058e+001
1.635247e+003,1.367599e+001
1.636211e+003,1.176587e+001
1.637176e+003,1.121048e+001
1.638140e+003,1.198380e+001
1.639104e+003,1.265555e+001
1.640068e+003,1.317242e+001
1.641033e+003,1.332190e+001
1.641997e+003,1.249695e+001
1.642961e+003,1.225482e+001
1.643925e+003,1.452295e+001
1.644890e+003,1.674622e+001
1.645854e+003,1.558524e+001
1.646818e+003,1.227100e+001
1.647782e+003,1.041742e+001
1.648747e+003,1.113260e+001
1.649711e+003,1.309314e+001
1.650675e+003,1.559900e+001
1.651639e+003,1.808566e+001
1.652604e+003,1.918875e+001
1.653568e+003,1.885260e+001
1.654532e+003,1.752795e+001
1.655496e+003,1.477408e+001
1.656460e+003,1.270718e+001
1.657425e+003,1.224026e+001
1.658389e+003,1.232837e+001
1.659353e+003,1.268839e+001
1.660317e+003,1.302249e+001
1.661281e+003,1.296115e+001
1.662246e+003,1.254364e+001
1.663210e+003,1.209363e+001
1.664174e+003,1.176669e+001
1.665138e+003,1.138275e+001
1.666103e+003,1.066437e+001
1.667067e+003,9.784821e+000
1.668031e+003,9.095337e+000
1.668995e+003,8.654633e+000
1.669960e+003,9.049408e+000
1.670924e+003,1.087250e+001
1.671888e+003,1.124527e+001
1.672852e+003,7.762024e+000
1.673817e+003,4.656403e+000
1.674781e+003,4.799133e+000
1.675745e+003,6.501923e+000
1.676709e+003,8.491791e+000
1.677674e+003,1.033838e+001
1.678638e+003,1.127512e+001
1.679602e+003,1.106714e+001
1.680566e+003,1.060876e+001
1.681531e+003,1.084625e+001
1.682495e+003,1.109521e+001
1.683459e+003,9.347626e+000
1.684423e+003,6.109680e+000
1.685387e+003,5.705841e+000
1.686352e+003,9.051880e+000
1.687316e+003,1.114136e+001
1.688280e+003,9.760803e+000
1.689244e+003,7.930756e+000
1.690208e+003,7.946442e+000
1.691173e+003,8.563843e+000
1.692137e+003,8.759003e+000
1.693101e+003,8.538635e+000
1.694065e+003,7.537018e+000
1.695030e+003,5.482880e+000
1.695994e+003,3.937439e+000
1.696958e+003,4.382690e+000
1.697922e+003,5.355103e+000
1.698887e+003,4.811249e+000
1.699851e+003,3.363892e+000
1.700815e+003,2.766052e+000
1.701779e+003,3.094879e+000
1.702744e+003,3.599426e+000
1.703708e+003,4.168915e+000
1.704672e+003,5.068329e+000
1.705636e+003,6.468475e+000
1.706601e+003,7.896423e+000
1.707565e+003,9.277649e+000
1.708529e+003,1.041629e+001
1.709493e+003,1.017657e+001
1.710458e+003,8.328735e+000
1.711422e+003,5.832489e+000
1.712386e+003,2.050812e+000
1.713350e+003,-7.783813e-001
1.714314e+003,-2.380676e-001
1.715279e+003,1.777039e+000
1.716243e+003,1.990662e+000
1.717207e+003,6.621094e-001
1.718171e+003,4.099426e-001
1.719135e+003,1.985443e+000
1.720100e+003,3.735657e+000
1.721064e+003,4.686676e+000
1.722028e+003,4.643158e+000
1.722992e+003,3.037750e+000
1.723957e+003,4.524536e-001
1.724921e+003,-3.905640e-001
1.725885e+003,6.813660e-001
1.726849e+003,6.593628e-001
1.727814e+003,-2.133331e+000
1.728778e+003,-3.921844e+000
1.729742e+003,-2.778229e+000
1.730706e+003,-2.953186e-001
1.731671e+003,2.788452e+000
1.732635e+003,5.401337e+000
1.733599e+003,5.984314e+000
1.734563e+003,4.541595e+000
1.735528e+003,1.819000e+000
1.736492e+003,-1.844757e+000
1.737456e+003,-4.655334e+000
1.738420e+003,-4.345490e+000
1.739385e+003,-1.887024e+000
1.740349e+003,-4.279785e-001
1.741313e+003,-7.858276e-002
1.742277e+003,3.623657e-001
1.743241e+003,1.567383e+000
1.744206e+003,2.058838e+000
1.745170e+003,1.050293e+000
1.746134e+003,-1.791077e-001
1.747098e+003,-1.473358e+000
1.748063e+003,-2.228607e+000
1.749027e+003,-1.407196e+000
1.749991e+003,4.842529e-001
1.750955e+003,2.102783e+000
1.751919e+003,2.873383e+000
1.752884e+003,2.823639e+000
1.753848e+003,1.955444e+000
1.754812e+003,7.874756e-001
1.755776e+003,5.649719e-001
1.756741e+003,1.360199e+000
1.757705e+003,1.203064e+000
1.758669e+003,-6.478271e-001
1.759633e+003,-1.608917e+000
1.760598e+003,-8.713074e-001
1.761562e+003,-2.225647e-001
1.762526e+003,2.506409e-001
1.763490e+003,2.825012e-001
1.764455e+003,-7.710571e-001
1.765419e+003,-2.112946e+000
1.766383e+003,-2.557770e+000
1.767347e+003,-2.131805e+000
1.768312e+003,-1.724792e+000
1.769276e+003,-1.799713e+000
1.770240e+003,-1.791809e+000
1.771204e+003,-6.682739e-001
1.772168e+003,9.506531e-001
1.773133e+003,9.643555e-001
1.774097e+003,-3.746338e-001
1.775061e+003,-3.582764e-002
1.776025e+003,2.545837e+000
1.776990e+003,3.404694e+000
1.777954e+003,4.760132e-001
1.778918e+003,-2.284180e+000
1.779882e+003,-1.686707e+000
1.780846e+003,1.368408e-001
1.781811e+003,3.952637e-001
1.782775e+003,-4.242554e-001
1.783739e+003,-7.826538e-001
1.784703e+003,-3.864136e-001
1.785668e+003,1.060181e-001
1.786632e+003,3.140259e-001
1.787596e+003,3.293152e-001
1.788560e+003,1.402893e-001
1.789525e+003,2.344666e-001
1.790489e+003,1.476166e+000
1.791453e+003,3.313293e+000
1.792417e+003,4.133270e+000
1.793382e+003,3.675140e+000
1.794346e+003,3.057983e+000
1.795310e+003,2.856964e+000
1.796274e+003,2.626923e+000
1.797239e+003,1.962677e+000
1.798203e+003,1.059174e+000
1.799167e+003,-1.196899e-001
1.800131e+003,-2.074066e+000
1.801095e+003,-2.994141e+000
1.802060e+003,-1.790833e+000
1.803024e+003,-8.371277e-001
1.803988e+003,-4.113770e-001
1.804952e+003,-4.178467e-001
1.805917e+003,-1.225861e+000
1.806881e+003,-2.102356e+000
1.807845e+003,-2.480133e+000
1.808809e+003,-2.193481e+000
1.809773e+003,-6.123047e-001
1.810738e+003,1.855133e+000
1.811702e+003,2.716492e+000
1.812666e+003,4.759216e-001
1.813630e+003,-2.050140e+000
1.814595e+003,-8.353577e-001
1.815559e+003,2.914825e+000
1.816523e+003,4.380646e+000
1.817487e+003,3.415222e+000
1.818452e+003,2.038605e+000
1.819416e+003,4.632568e-002
1.820380e+003,-1.004486e+000
1.821344e+003,1.536865e-001
1.822309e+003,8.389893e-001
1.823273e+003,-1.538055e+000
1.824237e+003,-4.136414e+000
1.825201e+003,-3.569397e+000
1.826166e+003,-1.019989e+000
1.827130e+003,-6.524658e-002
1.828094e+003,-1.320129e+000
1.829058e+003,-1.929382e+000
1.830022e+003,-1.273193e-001
1.830987e+003,2.044830e+000
1.831951e+003,3.140533e+000
1.832915e+003,3.411224e+000
1.833879e+003,3.135437e+000
1.834844e+003,2.351532e+000
1.835808e+003,6.394958e-001
1.836772e+003,-1.770996e+000
1.837736e+003,-2.429504e+000
1.838700e+003,-2.453918e-001
1.839665e+003,1.527618e+000
1.840629e+003,-2.692261e-001
1.841593e+003,-3.662262e+000
1.842557e+003,-4.629059e+000
1.843522e+003,-3.199860e+000
1.844486e+003,-1.105957e+000
1.845450e+003,3.460297e+000
1.846414e+003,5.462952e+000
1.847379e+003,2.188019e+000
1.848343e+003,-3.792419e-001
1.849307e+003,6.520386e-001
1.850271e+003,1.942230e+000
1.851236e+003,7.202759e-001
1.852200e+003,-1.448639e+000
1.853164e+003,-2.437592e+000
1.854128e+003,-2.222717e+000
1.855093e+003,-1.734344e+000
1.856057e+003,-1.214294e+000
1.857021e+003,-1.903992e-001
1.857985e+003,1.766479e+000
1.858949e+003,3.809662e+000
1.859914e+003,4.282776e+000
1.860878e+003,3.585266e+000
1.861842e+003,4.154968e+000
1.862806e+003,6.017914e+000
1.863771e+003,5.580170e+000
1.864735e+003,1.333527e+000
1.865699e+003,-1.093109e+000
1.866663e+003,2.069977e+000
1.867627e+003,5.440796e+000
1.868592e+003,2.915649e+000
1.869556e+003,-1.940247e+000
1.870520e+003,-1.439728e+000
1.871484e+003,3.428528e+000
1.872449e+003,6.085785e+000
1.873413e+003,5.861359e+000
1.874377e+003,5.300751e+000
1.875341e+003,4.496613e+000
1.876306e+003,3.610168e+000
1.877270e+003,2.381714e+000
1.878234e+003,1.336884e+000
1.879198e+003,1.531555e+000
1.880163e+003,2.170715e+000
1.881127e+003,1.432770e+000
1.882091e+003,-4.383240e-001
1.883055e+003,-1.425018e+000
1.884020e+003,-7.351990e-001
1.884984e+003,6.724854e-001
1.885948e+003,1.982056e+000
1.886912e+003,2.769501e+000
1.887876e+003,1.894562e+000
1.888841e+003,-3.424988e-001
1.889805e+003,2.258301e-003
1.890769e+003,3.729431e+000
1.891733e+003,5.603668e+000
1.892698e+003,4.273102e+000
1.893662e+003,2.899200e+000
1.894626e+003,2.576752e+000
1.895590e+003,2.577454e+000
1.896554e+003,2.079712e+000
1.897519e+003,1.984680e+000
1.898483e+003,3.803711e+000
1.899447e+003,6.748138e+000
1.900411e+003,8.456909e+000
1.901376e+003,8.556549e+000
1.902340e+003,8.212036e+000
1.903304e+003,7.781921e+000
1.904268e+003,7.080872e+000
1.905233e+003,5.925476e+000
1.906197e+003,4.623230e+000
1.907161e+003,3.202484e+000
1.908125e+003,2.072632e+000
1.909090e+003,2.057617e+000
1.910054e+003,2.827209e+000
1.911018e+003,3.075531e+000
1.911982e+003,2.508759e+000
1.912947e+003,2.225586e+000
1.913911e+003,2.993896e+000
1.914875e+003,3.997742e+000
1.915839e+003,3.857697e+000
1.916803e+003,2.790222e+000
1.917768e+003,2.412842e+000
1.918732e+003,2.837158e+000
1.919696e+003,3.996613e+000
1.920660e+003,6.497314e+000
1.921625e+003,8.237976e+000
1.922589e+003,8.581848e+000
1.923553e+003,8.190430e+000
1.924517e+003,6.549011e+000
1.925481e+003,5.120575e+000
1.926446e+003,5.581177e+000
1.927410e+003,7.050476e+000
1.928374e+003,7.866974e+000
1.929338e+003,7.801514e+000
1.930303e+003,6.977020e+000
1.931267e+003,5.204163e+000
1.932231e+003,4.090302e+000
1.933195e+003,4.562500e+000
1.934160e+003,5.375946e+000
1.935124e+003,5.626556e+000
1.936088e+003,5.622742e+000
1.937052e+003,6.151367e+000
1.938017e+003,6.861572e+000
1.938981e+003,6.437561e+000
1.939945e+003,5.011932e+000
1.940909e+003,4.384766e+000
1.941874e+003,5.256104e+000
1.942838e+003,6.107727e+000
1.943802e+003,5.594604e+000
1.944766e+003,4.853058e+000
1.945730e+003,6.102478e+000
1.946695e+003,8.896484e+000
1.947659e+003,1.024939e+001
1.948623e+003,9.997192e+000
1.949587e+003,9.972229e+000
1.950552e+003,1.085226e+001
1.951516e+003,1.006851e+001
1.952480e+003,5.628479e+000
1.953444e+003,1.754700e+000
1.954408e+003,1.594177e+000
1.955373e+003,3.236115e+000
1.956337e+003,4.543640e+000
1.957301e+003,5.663452e+000
1.958265e+003,6.679047e+000
1.959230e+003,7.655975e+000
1.960194e+003,8.107971e+000
1.961158e+003,6.828125e+000
1.962122e+003,6.283630e+000
1.963087e+003,8.436981e+000
1.964051e+003,9.943115e+000
1.965015e+003,8.607574e+000
1.965979e+003,6.214966e+000
1.966944e+003,3.396515e+000
1.967908e+003,1.304657e+000
1.968872e+003,2.280853e+000
1.969836e+003,5.833344e+000
1.970801e+003,8.832092e+000
1.971765e+003,9.901001e+000
1.972729e+003,9.500366e+000
1.973693e+003,7.694336e+000
1.974657e+003,5.576477e+000
1.975622e+003,4.341614e+000
1.976586e+003,4.140015e+000
1.977550e+003,6.425385e+000
1.978514e+003,1.049072e+001
1.979479e+003,1.176260e+001
1.980443e+003,9.706268e+000
1.981407e+003,8.138458e+000
1.982371e+003,8.573761e+000
1.983335e+003,8.657776e+000
1.984300e+003,6.333069e+000
1.985264e+003,3.672455e+000
1.986228e+003,4.146545e+000
1.987192e+003,6.984894e+000
1.988157e+003,8.172089e+000
1.989121e+003,7.419098e+000
1.990085e+003,6.708801e+000
1.991049e+003,5.449493e+000
1.992014e+003,5.612915e+000
1.992978e+003,9.211304e+000
1.993942e+003,1.166476e+001
1.994906e+003,9.985107e+000
1.995871e+003,8.099731e+000
1.996835e+003,9.688354e+000
1.997799e+003,1.250946e+001
1.998763e+003,1.266913e+001
1.999728e+003,1.062366e+001
