5.003444e+002,4.621034e+001
5.013087e+002,4.546059e+001
5.022729e+002,4.557648e+001
5.032371e+002,4.617017e+001
5.042014e+002,4.546481e+001
5.051656e+002,4.367648e+001
5.061298e+002,4.153522e+001
5.070941e+002,3.958542e+001
5.080583e+002,3.764729e+001
5.090225e+002,3.675110e+001
5.099868e+002,3.751334e+001
5.109510e+002,3.830440e+001
5.119152e+002,3.821498e+001
5.128795e+002,3.715465e+001
5.138437e+002,3.628357e+001
5.148079e+002,3.609421e+001
5.157722e+002,3.614024e+001
5.167364e+002,3.636560e+001
5.177006e+002,3.662817e+001
5.186649e+002,3.670151e+001
5.196291e+002,3.656190e+001
5.205933e+002,3.608592e+001
5.215576e+002,3.460141e+001
5.225218e+002,3.213272e+001
5.234860e+002,2.940170e+001
5.244503e+002,2.778877e+001
5.254145e+002,2.777733e+001
5.263787e+002,2.864844e+001
5.273430e+002,3.104048e+001
5.283072e+002,3.388832e+001
5.292714e+002,3.573763e+001
5.302357e+002,3.627713e+001
5.311999e+002,3.582095e+001
5.321641e+002,3.412497e+001
5.331284e+002,3.218492e+001
5.340926e+002,3.068578e+001
5.350568e+002,2.982921e+001
5.360211e+002,2.910141e+001
5.369853e+002,2.842094e+001
5.379495e+002,2.764882e+001
5.389138e+002,2.633797e+001
5.398780e+002,2.442871e+001
5.408422e+002,2.248294e+001
5.418065e+002,2.245673e+001
5.427707e+002,2.402687e+001
5.437349e+002,2.487323e+001
5.446992e+002,2.415111e+001
5.456634e+002,2.241856e+001
5.466276e+002,2.170862e+001
5.475919e+002,2.369463e+001
5.485561e+002,2.474597e+001
5.495203e+002,2.391316e+001
5.504846e+002,2.225192e+001
5.514488e+002,2.147131e+001
5.524130e+002,2.279594e+001
5.533773e+002,2.373407e+001
5.543415e+002,2.257054e+001
5.553057e+002,2.067186e+001
5.562700e+002,1.939473e+001
5.572342e+002,1.955391e+001
5.581984e+002,2.056819e+001
5.591627e+002,2.161276e+001
5.601269e+002,2.253130e+001
5.610911e+002,2.239583e+001
5.620554e+002,2.057536e+001
5.630196e+002,1.737714e+001
5.639838e+002,1.604527e+001
5.649481e+002,1.854350e+001
5.659123e+002,2.005751e+001
5.668765e+002,1.929643e+001
5.678408e+002,1.711646e+001
5.688050e+002,1.579390e+001
5.697692e+002,1.627762e+001
5.707335e+002,1.682504e+001
5.716977e+002,1.701062e+001
5.726619e+002,1.698183e+001
5.736262e+002,1.707925e+001
5.745904e+002,1.762759e+001
5.755546e+002,1.804906e+001
5.765189e+002,1.676573e+001
5.774831e+002,1.466655e+001
5.784473e+002,1.377724e+001
5.794116e+002,1.550687e+001
5.803758e+002,1.951982e+001
5.813400e+002,2.027716e+001
5.823043e+002,1.674420e+001
5.832685e+002,1.339069e+001
5.842327e+002,1.168031e+001
5.851970e+002,1.154137e+001
5.861612e+002,1.206921e+001
5.871254e+002,1.440742e+001
5.880897e+002,1.586378e+001
5.890539e+002,1.531700e+001
5.900181e+002,1.359641e+001
5.909824e+002,1.216103e+001
5.919466e+002,1.203548e+001
5.929108e+002,1.233417e+001
5.938751e+002,1.212050e+001
5.948393e+002,1.155209e+001
5.958035e+002,1.078426e+001
5.967678e+002,9.955292e+000
5.977320e+002,9.189972e+000
5.986962e+002,9.365494e+000
5.996605e+002,1.040227e+001
6.006247e+002,1.108888e+001
6.015889e+002,1.062086e+001
6.025532e+002,9.126389e+000
6.035174e+002,8.324295e+000
6.044816e+002,9.037109e+000
6.054459e+002,9.659790e+000
6.064101e+002,9.811905e+000
6.073743e+002,9.736786e+000
6.083386e+002,9.946365e+000
6.093028e+002,1.082155e+001
6.102670e+002,1.188879e+001
6.112313e+002,1.292987e+001
6.121955e+002,1.380046e+001
6.131597e+002,1.439041e+001
6.141240e+002,1.460815e+001
6.150882e+002,1.436703e+001
6.160524e+002,1.304045e+001
6.170167e+002,1.088776e+001
6.179809e+002,8.904465e+000
6.189451e+002,7.481216e+000
6.199094e+002,6.518021e+000
6.208736e+002,5.636017e+000
6.218378e+002,4.473633e+000
6.228021e+002,4.118301e+000
6.237663e+002,5.222290e+000
6.247305e+002,7.090073e+000
6.256948e+002,8.590347e+000
6.266590e+002,9.171738e+000
6.276232e+002,9.307114e+000
6.285875e+002,9.545547e+000
6.295517e+002,9.681808e+000
6.305159e+002,9.317886e+000
6.314802e+002,8.250580e+000
6.324444e+002,6.856888e+000
6.334086e+002,6.421646e+000
6.343729e+002,6.730209e+000
6.353371e+002,7.116272e+000
6.363013e+002,7.320862e+000
6.372656e+002,7.388245e+000
6.382298e+002,7.580063e+000
6.391940e+002,8.357758e+000
6.401583e+002,8.505646e+000
6.411225e+002,7.675095e+000
6.420867e+002,6.602493e+000
6.430510e+002,6.242203e+000
6.440152e+002,7.105148e+000
6.449794e+002,7.342194e+000
6.459437e+002,4.997055e+000
6.469079e+002,2.445221e+000
6.478721e+002,2.003418e+000
6.488364e+002,4.248032e+000
6.498006e+002,7.212967e+000
6.507648e+002,6.975632e+000
6.517291e+002,4.700180e+000
6.526933e+002,3.357956e+000
6.536575e+002,3.534531e+000
6.546218e+002,4.373550e+000
6.555860e+002,4.151031e+000
6.565502e+002,1.641861e+000
6.575145e+002,8.379517e-001
6.584787e+002,2.860519e+000
6.594429e+002,5.460831e+000
6.604072e+002,6.906738e+000
6.613714e+002,6.895737e+000
6.623356e+002,6.593369e+000
6.632999e+002,6.108917e+000
6.642641e+002,5.727188e+000
6.652283e+002,5.930511e+000
6.661926e+002,6.595428e+000
6.671568e+002,7.063965e+000
6.681210e+002,6.379532e+000
6.690853e+002,4.905838e+000
6.700495e+002,3.842056e+000
6.710137e+002,3.205246e+000
6.719780e+002,2.728668e+000
6.729422e+002,2.066498e+000
6.739064e+002,1.037674e+000
6.748707e+002,8.020630e-001
6.758349e+002,1.930206e+000
6.767991e+002,2.907562e+000
6.777634e+002,2.962494e+000
6.787276e+002,2.315918e+000
6.796918e+002,2.225632e+000
6.806561e+002,3.685760e+000
6.816203e+002,5.017624e+000
6.825845e+002,5.835068e+000
6.835488e+002,6.033981e+000
6.845130e+002,5.252121e+000
6.854772e+002,3.047272e+000
6.864415e+002,8.180084e-001
6.874057e+002,2.430847e+000
6.883699e+002,6.315002e+000
6.893342e+002,8.345337e+000
6.902984e+002,6.057053e+000
6.912626e+002,3.745728e-001
6.922269e+002,-2.502106e+000
6.931911e+002,1.822052e-001
6.941553e+002,2.264587e+000
6.951196e+002,2.868561e+000
6.960838e+002,2.598206e+000
6.970480e+002,2.522095e+000
6.980123e+002,3.091522e+000
6.989765e+002,3.359589e+000
6.999407e+002,2.390594e+000
7.009050e+002,1.364380e+000
7.018692e+002,1.396149e+000
7.028334e+002,2.746323e+000
7.037977e+002,4.490524e+000
7.047619e+002,5.437561e+000
7.057261e+002,5.685120e+000
7.066904e+002,4.905319e+000
7.076546e+002,3.039734e+000
7.086188e+002,1.119888e+000
7.095831e+002,8.334198e-001
7.105473e+002,2.798248e+000
7.115115e+002,4.425964e+000
7.124758e+002,6.488602e+000
7.134400e+002,7.528397e+000
7.144042e+002,5.792404e+000
7.153685e+002,1.441223e+000
7.163327e+002,-1.239304e+000
7.172969e+002,2.395004e+000
7.182612e+002,5.682007e+000
7.192254e+002,5.251373e+000
7.201896e+002,2.251648e+000
7.211539e+002,-4.416504e-001
7.221181e+002,-4.056396e-001
7.230823e+002,1.414261e+000
7.240466e+002,2.400620e+000
7.250108e+002,2.786423e+000
7.259750e+002,2.991928e+000
7.269393e+002,3.118683e+000
7.279035e+002,3.117722e+000
7.288677e+002,3.440399e+000
7.298320e+002,5.551865e+000
7.307962e+002,6.501099e+000
7.317604e+002,4.954407e+000
7.327247e+002,2.611984e+000
7.336889e+002,1.986404e+000
7.346531e+002,4.129318e+000
7.356174e+002,5.898010e+000
7.365816e+002,5.566040e+000
7.375458e+002,4.582596e+000
7.385101e+002,3.927887e+000
7.394743e+002,3.895248e+000
7.404385e+002,4.117935e+000
7.414028e+002,3.992722e+000
7.423670e+002,3.431976e+000
7.433312e+002,3.075317e+000
7.442955e+002,3.138367e+000
7.452597e+002,3.347961e+000
7.462239e+002,3.227158e+000
7.471882e+002,2.493423e+000
7.481524e+002,2.508408e+000
7.491166e+002,3.621872e+000
7.500809e+002,4.648193e+000
7.510451e+002,5.398605e+000
7.520093e+002,5.735352e+000
7.529736e+002,5.232880e+000
7.539378e+002,2.949310e+000
7.549020e+002,1.242676e+000
7.558663e+002,2.222595e+000
7.568306e+002,4.375137e+000
7.577948e+002,5.351563e+000
7.587590e+002,3.800934e+000
7.597233e+002,9.300232e-001
7.606875e+002,9.132385e-001
7.616517e+002,3.429123e+000
7.626160e+002,5.385284e+000
7.635802e+002,5.962723e+000
7.645444e+002,5.669769e+000
7.655087e+002,5.581802e+000
7.664729e+002,6.139969e+000
7.674371e+002,5.757187e+000
7.684014e+002,3.438400e+000
7.693656e+002,1.127487e+000
7.703298e+002,-3.509521e-002
7.712941e+002,1.328583e-001
7.722583e+002,1.178116e+000
7.732225e+002,3.724457e+000
7.741868e+002,6.110367e+000
7.751510e+002,6.546646e+000
7.761152e+002,5.677734e+000
7.770795e+002,5.321594e+000
7.780437e+002,7.087173e+000
7.790079e+002,1.051953e+001
7.799722e+002,1.183513e+001
7.809364e+002,1.113589e+001
7.819006e+002,9.698395e+000
7.828649e+002,7.454758e+000
7.838291e+002,4.907944e+000
7.847933e+002,3.647141e+000
7.857576e+002,4.409683e+000
7.867218e+002,5.090866e+000
7.876860e+002,5.088470e+000
7.886503e+002,5.199356e+000
7.896145e+002,6.438385e+000
7.905787e+002,8.934158e+000
7.915430e+002,1.115265e+001
7.925072e+002,1.101167e+001
7.934714e+002,9.686813e+000
7.944357e+002,8.223953e+000
7.953999e+002,6.960266e+000
7.963641e+002,6.275375e+000
7.973284e+002,6.597427e+000
7.982926e+002,8.020889e+000
7.992568e+002,8.649429e+000
8.002211e+002,8.100922e+000
8.011853e+002,7.230804e+000
8.021495e+002,6.514008e+000
8.031138e+002,6.007370e+000
8.040780e+002,5.383530e+000
8.050422e+002,4.091827e+000
8.060065e+002,3.229294e+000
8.069707e+002,2.954956e+000
8.079349e+002,3.186783e+000
8.088992e+002,4.104599e+000
8.098634e+002,5.709106e+000
8.108276e+002,7.438263e+000
8.117919e+002,8.395370e+000
8.127561e+002,8.633316e+000
8.137203e+002,8.577408e+000
8.146846e+002,8.387634e+000
8.156488e+002,8.100998e+000
8.166130e+002,7.657593e+000
8.175773e+002,6.952866e+000
8.185415e+002,6.543579e+000
8.195057e+002,5.944397e+000
8.204700e+002,5.943420e+000
8.214342e+002,7.689484e+000
8.223984e+002,1.023679e+001
8.233627e+002,1.093565e+001
8.243269e+002,7.965805e+000
8.252911e+002,4.924164e+000
8.262554e+002,3.819077e+000
8.272196e+002,3.745041e+000
8.281838e+002,3.804459e+000
8.291481e+002,3.647385e+000
8.301123e+002,3.609619e+000
8.310765e+002,4.415085e+000
8.320408e+002,5.914154e+000
8.330050e+002,6.657455e+000
8.339692e+002,6.500702e+000
8.349335e+002,5.880707e+000
8.358977e+002,4.984879e+000
8.368619e+002,3.673706e+000
8.378262e+002,3.571747e+000
8.387904e+002,6.136398e+000
8.397546e+002,8.108994e+000
8.407189e+002,8.717331e+000
8.416831e+002,8.199738e+000
8.426473e+002,6.875198e+000
8.436116e+002,4.649673e+000
8.445758e+002,2.723541e+000
8.455400e+002,2.112381e+000
8.465043e+002,2.367355e+000
8.474685e+002,3.560333e+000
8.484327e+002,5.588135e+000
8.493970e+002,7.768600e+000
8.503612e+002,8.806686e+000
8.513254e+002,8.414902e+000
8.522897e+002,8.428146e+000
8.532539e+002,9.016983e+000
8.542181e+002,9.598694e+000
8.551824e+002,9.824722e+000
8.561466e+002,9.869659e+000
8.571108e+002,1.040698e+001
8.580751e+002,1.191034e+001
8.590393e+002,1.294287e+001
8.600035e+002,1.304033e+001
8.609678e+002,1.264249e+001
8.619320e+002,1.194139e+001
8.628962e+002,1.110159e+001
8.638605e+002,1.081221e+001
8.648247e+002,1.298680e+001
8.657889e+002,1.620612e+001
8.667532e+002,1.709921e+001
8.677174e+002,1.523337e+001
8.686816e+002,1.282707e+001
8.696459e+002,1.258606e+001
8.706101e+002,1.503761e+001
8.715743e+002,1.609215e+001
8.725386e+002,1.448926e+001
8.735028e+002,1.325961e+001
8.744670e+002,1.321368e+001
8.754313e+002,1.388849e+001
8.763955e+002,1.432872e+001
8.773597e+002,1.407726e+001
8.783240e+002,1.434534e+001
8.792882e+002,1.656940e+001
8.802524e+002,1.919150e+001
8.812167e+002,2.076276e+001
8.821809e+002,2.109605e+001
8.831451e+002,2.113385e+001
8.841094e+002,2.216478e+001
8.850736e+002,2.415236e+001
8.860378e+002,2.480234e+001
8.870021e+002,2.379782e+001
8.879663e+002,2.260860e+001
8.889305e+002,2.182054e+001
8.898948e+002,2.140833e+001
8.908590e+002,2.150537e+001
8.918232e+002,2.286125e+001
8.927875e+002,2.365076e+001
8.937517e+002,2.293399e+001
8.947159e+002,2.197711e+001
8.956802e+002,2.195917e+001
8.966444e+002,2.296002e+001
8.976086e+002,2.374788e+001
8.985729e+002,2.269794e+001
8.995371e+002,2.131259e+001
9.005013e+002,2.221075e+001
9.014656e+002,2.511346e+001
9.024298e+002,2.827133e+001
9.033940e+002,3.035161e+001
9.043583e+002,3.132872e+001
9.053225e+002,3.170830e+001
9.062867e+002,3.067259e+001
9.072510e+002,2.992123e+001
9.082152e+002,2.999463e+001
9.091794e+002,3.027347e+001
9.101437e+002,2.999777e+001
9.111079e+002,2.902937e+001
9.120721e+002,2.823712e+001
9.130364e+002,2.780646e+001
9.140006e+002,2.785721e+001
9.149648e+002,2.914865e+001
9.159291e+002,3.107883e+001
9.168933e+002,3.231296e+001
9.178575e+002,3.188286e+001
9.188218e+002,3.029861e+001
9.197860e+002,2.955049e+001
9.207502e+002,2.962926e+001
9.217145e+002,2.909550e+001
9.226787e+002,2.760205e+001
9.236429e+002,2.571251e+001
9.246072e+002,2.387794e+001
9.255714e+002,2.182471e+001
9.265356e+002,2.085666e+001
9.274999e+002,2.202037e+001
9.284641e+002,2.329337e+001
9.294283e+002,2.442191e+001
9.303926e+002,2.514340e+001
9.313568e+002,2.503149e+001
9.323210e+002,2.380917e+001
9.332853e+002,2.221867e+001
9.342495e+002,2.129498e+001
9.352137e+002,2.083299e+001
9.361780e+002,2.097174e+001
9.371422e+002,2.178081e+001
9.381064e+002,2.250658e+001
9.390707e+002,2.189662e+001
9.400349e+002,1.944638e+001
9.409991e+002,1.838925e+001
9.419634e+002,1.964043e+001
9.429276e+002,2.084697e+001
9.438918e+002,2.149779e+001
9.448561e+002,2.173242e+001
9.458203e+002,2.182516e+001
9.467845e+002,2.187161e+001
9.477488e+002,2.184535e+001
9.487130e+002,2.149442e+001
9.496772e+002,2.117987e+001
9.506415e+002,2.160178e+001
9.516057e+002,2.245988e+001
9.525699e+002,2.246074e+001
9.535342e+002,2.028011e+001
9.544984e+002,1.628729e+001
9.554626e+002,1.414151e+001
9.564269e+002,1.411485e+001
9.573911e+002,1.456807e+001
9.583553e+002,1.522264e+001
9.593196e+002,1.599683e+001
9.602838e+002,1.676700e+001
9.612480e+002,1.749484e+001
9.622123e+002,1.822330e+001
9.631765e+002,1.986575e+001
9.641407e+002,2.071178e+001
9.651050e+002,1.906612e+001
9.660692e+002,1.599500e+001
9.670334e+002,1.381476e+001
9.679977e+002,1.402559e+001
9.689619e+002,1.570969e+001
9.699261e+002,1.687721e+001
9.708904e+002,1.768236e+001
9.718546e+002,1.893085e+001
9.728188e+002,2.086214e+001
9.737831e+002,2.284758e+001
9.747473e+002,2.413567e+001
9.757115e+002,2.469658e+001
9.766758e+002,2.487347e+001
9.776400e+002,2.486577e+001
9.786042e+002,2.439934e+001
9.795685e+002,2.312663e+001
9.805327e+002,2.133301e+001
9.814969e+002,1.940828e+001
9.824612e+002,1.754893e+001
9.834254e+002,1.581006e+001
9.843896e+002,1.399174e+001
9.853539e+002,1.230380e+001
9.863181e+002,1.103928e+001
9.872823e+002,1.013892e+001
9.882466e+002,9.443985e+000
9.892108e+002,8.918228e+000
9.901750e+002,8.693954e+000
9.911393e+002,8.803040e+000
9.921035e+002,9.193039e+000
9.930677e+002,9.483948e+000
9.940320e+002,1.016472e+001
9.949962e+002,1.055264e+001
9.959604e+002,9.295883e+000
9.969247e+002,6.509842e+000
9.978889e+002,5.666214e+000
9.988531e+002,1.036426e+001
9.998174e+002,1.470920e+001
1.000782e+003,1.488144e+001
1.001746e+003,1.263673e+001
1.002710e+003,1.048872e+001
1.003674e+003,9.610580e+000
1.004639e+003,9.445755e+000
1.005603e+003,9.006409e+000
1.006567e+003,8.228577e+000
1.007531e+003,8.204422e+000
1.008495e+003,9.384201e+000
1.009460e+003,1.042075e+001
1.010424e+003,1.031584e+001
1.011388e+003,9.417984e+000
1.012352e+003,9.214096e+000
1.013317e+003,1.068959e+001
1.014281e+003,1.099289e+001
1.015245e+003,8.256165e+000
1.016209e+003,5.073532e+000
1.017174e+003,3.143204e+000
1.018138e+003,2.727356e+000
1.019102e+003,3.406616e+000
1.020066e+003,5.057037e+000
1.021031e+003,6.975815e+000
1.021995e+003,6.374939e+000
1.022959e+003,3.760086e+000
1.023923e+003,2.117203e+000
1.024887e+003,2.598145e+000
1.025852e+003,4.129807e+000
1.026816e+003,5.230438e+000
1.027780e+003,6.056366e+000
1.028744e+003,6.035370e+000
1.029709e+003,4.571167e+000
1.030673e+003,2.868805e+000
1.031637e+003,3.268585e-001
1.032601e+003,-1.908218e+000
1.033566e+003,-1.807358e+000
1.034530e+003,1.269821e+000
1.035494e+003,4.626312e+000
1.036458e+003,5.167313e+000
1.037422e+003,3.998978e+000
1.038387e+003,2.929474e+000
1.039351e+003,2.039490e+000
1.040315e+003,1.120178e+000
1.041279e+003,1.754761e-002
1.042244e+003,-1.129868e+000
1.043208e+003,-1.850449e+000
1.044172e+003,-2.578384e+000
1.045136e+003,-2.126953e+000
1.046101e+003,7.787018e-001
1.047065e+003,3.627197e+000
1.048029e+003,4.847137e+000
1.048993e+003,4.519440e+000
1.049958e+003,3.292740e+000
1.050922e+003,8.732452e-001
1.051886e+003,-6.319275e-001
1.052850e+003,2.208847e+000
1.053814e+003,6.510208e+000
1.054779e+003,8.471344e+000
1.055743e+003,7.311310e+000
1.056707e+003,4.658142e+000
1.057671e+003,2.376160e+000
1.058636e+003,4.457092e-001
1.059600e+003,-2.051392e-001
1.060564e+003,1.934738e+000
1.061528e+003,3.326981e+000
1.062493e+003,2.573029e+000
1.063457e+003,1.289108e+000
1.064421e+003,1.792801e+000
1.065385e+003,4.303818e+000
1.066349e+003,5.513336e+000
1.067314e+003,2.076889e+000
1.068278e+003,-1.126694e+000
1.069242e+003,3.978424e-001
1.070206e+003,4.164658e+000
1.071171e+003,5.778000e+000
1.072135e+003,3.545410e+000
1.073099e+003,-6.053162e-002
1.074063e+003,-7.498322e-001
1.075028e+003,1.872681e+000
1.075992e+003,3.144440e+000
1.076956e+003,2.231155e+000
1.077920e+003,1.478851e+000
1.078885e+003,2.247208e+000
1.079849e+003,3.686401e+000
1.080813e+003,4.071503e+000
1.081777e+003,3.008835e+000
1.082741e+003,1.915924e+000
1.083706e+003,1.441040e+000
1.084670e+003,9.943085e-001
1.085634e+003,9.724426e-002
1.086598e+003,-9.876404e-001
1.087563e+003,-1.733017e+000
1.088527e+003,-1.794083e+000
1.089491e+003,-1.160782e+000
1.090455e+003,2.282257e-001
1.091420e+003,2.410309e+000
1.092384e+003,2.965622e+000
1.093348e+003,9.240112e-001
1.094312e+003,-1.073166e+000
1.095276e+003,-1.144180e+000
1.096241e+003,1.027069e-001
1.097205e+003,5.855103e-001
1.098169e+003,-2.962341e-001
1.099133e+003,-1.097137e+000
1.100098e+003,-1.490128e+000
1.101062e+003,-1.372360e+000
1.102026e+003,-2.159576e-001
1.102990e+003,1.485886e+000
1.103955e+003,2.630859e+000
1.104919e+003,2.545837e+000
1.105883e+003,1.794495e+000
1.106847e+003,1.676788e+000
1.107812e+003,2.180252e+000
1.108776e+003,2.161194e+000
1.109740e+003,1.523331e+000
1.110704e+003,4.646301e-001
1.111668e+003,-1.176819e+000
1.112633e+003,-3.076096e+000
1.113597e+003,-3.976822e+000
1.114561e+003,-3.526108e+000
1.115525e+003,-2.763535e+000
1.116490e+003,-1.890732e+000
1.117454e+003,-1.013840e+000
1.118418e+003,2.342834e-001
1.119382e+003,1.498062e+000
1.120347e+003,1.727905e+000
1.121311e+003,2.178345e-001
1.122275e+003,-2.088379e+000
1.123239e+003,-3.100037e+000
1.124203e+003,-2.728180e+000
1.125168e+003,-1.701202e+000
1.126132e+003,4.296417e-001
1.127096e+003,2.001068e+000
1.128060e+003,1.198669e+000
1.129025e+003,-1.407913e+000
1.129989e+003,-2.819702e+000
1.130953e+003,-2.166199e+000
1.131917e+003,-1.958450e+000
1.132882e+003,-3.698746e+000
1.133846e+003,-5.164291e+000
1.134810e+003,-4.891296e+000
1.135774e+003,-3.185684e+000
1.136739e+003,-8.859558e-001
1.137703e+003,1.491364e+000
1.138667e+003,3.401428e+000
1.139631e+003,3.597504e+000
1.140595e+003,2.325333e+000
1.141560e+003,2.049789e+000
1.142524e+003,2.988388e+000
1.143488e+003,4.786819e+000
1.144452e+003,7.815903e+000
1.145417e+003,1.150648e+001
1.146381e+003,1.359369e+001
1.147345e+003,1.321129e+001
1.148309e+003,1.328516e+001
1.149274e+003,1.444861e+001
1.150238e+003,1.636607e+001
1.151202e+003,1.932309e+001
1.152166e+003,2.287489e+001
1.153130e+003,2.659387e+001
1.154095e+003,3.009317e+001
1.155059e+003,3.240669e+001
1.156023e+003,3.199213e+001
1.156987e+003,2.923750e+001
1.157952e+003,2.751816e+001
1.158916e+003,2.727002e+001
1.159880e+003,2.650748e+001
1.160844e+003,2.365131e+001
1.161809e+003,1.945593e+001
1.162773e+003,1.576018e+001
1.163737e+003,1.256505e+001
1.164701e+003,9.970856e+000
1.165666e+003,8.533203e+000
1.166630e+003,7.277954e+000
1.167594e+003,5.940353e+000
1.168558e+003,4.508743e+000
1.169522e+003,2.762665e+000
1.170487e+003,8.154297e-001
1.171451e+003,-4.106140e-001
1.172415e+003,2.787476e-001
1.173379e+003,2.324371e+000
1.174344e+003,2.644623e+000
1.175308e+003,1.168884e+000
1.176272e+003,2.249298e-001
1.177236e+003,1.160629e+000
1.178201e+003,2.586746e+000
1.179165e+003,2.446869e+000
1.180129e+003,6.591034e-001
1.181093e+003,-5.055237e-001
1.182057e+003,1.215363e-001
1.183022e+003,4.483643e-001
1.183986e+003,-8.634491e-001
1.184950e+003,-2.404785e+000
1.185914e+003,-2.705246e+000
1.186879e+003,-1.720398e+000
1.187843e+003,-3.428192e-001
1.188807e+003,7.030945e-001
1.189771e+003,1.188187e+000
1.190736e+003,1.611938e-001
1.191700e+003,-2.684158e+000
1.192664e+003,-3.631836e+000
1.193628e+003,-6.634216e-001
1.194593e+003,2.143677e+000
1.195557e+003,1.556290e+000
1.196521e+003,-1.584427e+000
1.197485e+003,-4.514618e+000
1.198449e+003,-7.189728e+000
1.199414e+003,-8.419540e+000
1.200378e+003,-6.797195e+000
1.201342e+003,-4.356125e+000
1.202306e+003,-1.684814e+000
1.203271e+003,6.311646e-001
1.204235e+003,1.832611e+000
1.205199e+003,1.596039e+000
1.206163e+003,4.032288e-001
1.207128e+003,-9.733429e-001
1.208092e+003,-2.514465e+000
1.209056e+003,-4.930954e+000
1.210020e+003,-9.418243e+000
1.210984e+003,-1.231799e+001
1.211949e+003,-1.156856e+001
1.212913e+003,-9.348251e+000
1.213877e+003,-8.335098e+000
1.214841e+003,-8.691071e+000
1.215806e+003,-9.277527e+000
1.216770e+003,-9.642761e+000
1.217734e+003,-1.022954e+001
1.218698e+003,-1.189104e+001
1.219663e+003,-1.366895e+001
1.220627e+003,-1.435210e+001
1.221591e+003,-1.376077e+001
1.222555e+003,-1.231433e+001
1.223520e+003,-1.031795e+001
1.224484e+003,-8.194412e+000
1.225448e+003,-8.151917e+000
1.226412e+003,-1.191158e+001
1.227376e+003,-1.392792e+001
1.228341e+003,-1.342862e+001
1.229305e+003,-1.219037e+001
1.230269e+003,-1.041722e+001
1.231233e+003,-8.802795e+000
1.232198e+003,-8.998596e+000
1.233162e+003,-1.151973e+001
1.234126e+003,-1.346933e+001
1.235090e+003,-1.224919e+001
1.236055e+003,-1.001328e+001
1.237019e+003,-8.797470e+000
1.237983e+003,-8.575851e+000
1.238947e+003,-9.091049e+000
1.239911e+003,-1.018343e+001
1.240876e+003,-1.152586e+001
1.241840e+003,-1.270454e+001
1.242804e+003,-1.371466e+001
1.243768e+003,-1.455180e+001
1.244733e+003,-1.543460e+001
1.245697e+003,-1.578342e+001
1.246661e+003,-1.532944e+001
1.247625e+003,-1.467455e+001
1.248590e+003,-1.427231e+001
1.249554e+003,-1.397595e+001
1.250518e+003,-1.324469e+001
1.251482e+003,-1.182877e+001
1.252447e+003,-1.040738e+001
1.253411e+003,-9.447418e+000
1.254375e+003,-9.158173e+000
1.255339e+003,-1.056808e+001
1.256303e+003,-1.353508e+001
1.257268e+003,-1.530873e+001
1.258232e+003,-1.400589e+001
1.259196e+003,-1.122620e+001
1.260160e+003,-1.024800e+001
1.261125e+003,-1.141858e+001
1.262089e+003,-1.182889e+001
1.263053e+003,-1.063986e+001
1.264017e+003,-9.468430e+000
1.264982e+003,-8.180145e+000
1.265946e+003,-7.390564e+000
1.266910e+003,-7.966995e+000
1.267874e+003,-9.627258e+000
1.268839e+003,-1.128377e+001
1.269803e+003,-1.221898e+001
1.270767e+003,-1.247072e+001
1.271731e+003,-1.194580e+001
1.272695e+003,-1.062909e+001
1.273660e+003,-9.543457e+000
1.274624e+003,-8.783844e+000
1.275588e+003,-8.403275e+000
1.276552e+003,-8.431839e+000
1.277517e+003,-8.729324e+000
1.278481e+003,-9.333282e+000
1.279445e+003,-1.034708e+001
1.280409e+003,-1.051144e+001
1.281374e+003,-8.163208e+000
1.282338e+003,-6.596390e+000
1.283302e+003,-8.343033e+000
1.284266e+003,-1.122818e+001
1.285230e+003,-1.287021e+001
1.286195e+003,-1.288550e+001
1.287159e+003,-1.214027e+001
1.288123e+003,-1.130399e+001
1.289087e+003,-1.057549e+001
1.290052e+003,-1.077000e+001
1.291016e+003,-1.248843e+001
1.291980e+003,-1.311848e+001
1.292944e+003,-1.153401e+001
1.293909e+003,-1.054561e+001
1.294873e+003,-1.175908e+001
1.295837e+003,-1.377158e+001
1.296801e+003,-1.458282e+001
1.297766e+003,-1.398137e+001
1.298730e+003,-1.336087e+001
1.299694e+003,-1.361403e+001
1.300658e+003,-1.390831e+001
1.301622e+003,-1.292740e+001
1.302587e+003,-1.145013e+001
1.303551e+003,-1.091260e+001
1.304515e+003,-1.145804e+001
1.305479e+003,-1.190768e+001
1.306444e+003,-1.128275e+001
1.307408e+003,-1.001854e+001
1.308372e+003,-9.456467e+000
1.309336e+003,-9.673721e+000
1.310301e+003,-1.040845e+001
1.311265e+003,-1.266443e+001
1.312229e+003,-1.407512e+001
1.313193e+003,-1.354803e+001
1.314157e+003,-1.212117e+001
1.315122e+003,-1.062616e+001
1.316086e+003,-9.417221e+000
1.317050e+003,-8.800461e+000
1.318014e+003,-8.985992e+000
1.318979e+003,-9.456543e+000
1.319943e+003,-9.200684e+000
1.320907e+003,-8.347656e+000
1.321871e+003,-8.485825e+000
1.322836e+003,-1.023914e+001
1.323800e+003,-1.133110e+001
1.324764e+003,-9.422379e+000
1.325728e+003,-6.650146e+000
1.326693e+003,-7.321976e+000
1.327657e+003,-1.166570e+001
1.328621e+003,-1.447940e+001
1.329585e+003,-1.364342e+001
1.330549e+003,-1.189034e+001
1.331514e+003,-1.017255e+001
1.332478e+003,-9.018631e+000
1.333442e+003,-9.199844e+000
1.334406e+003,-1.036772e+001
1.335371e+003,-1.146075e+001
1.336335e+003,-1.182112e+001
1.337299e+003,-1.159081e+001
1.338263e+003,-1.104477e+001
1.339228e+003,-1.015608e+001
1.340192e+003,-9.151428e+000
1.341156e+003,-7.432541e+000
1.342120e+003,-6.475021e+000
1.343084e+003,-7.137177e+000
1.344049e+003,-8.194443e+000
1.345013e+003,-8.643768e+000
1.345977e+003,-8.498566e+000
1.346941e+003,-8.177399e+000
1.347906e+003,-7.823257e+000
1.348870e+003,-7.527863e+000
1.349834e+003,-7.339157e+000
1.350798e+003,-7.375000e+000
1.351763e+003,-7.822906e+000
1.352727e+003,-8.585785e+000
1.353691e+003,-9.300781e+000
1.354655e+003,-9.944534e+000
1.355620e+003,-1.009566e+001
1.356584e+003,-8.858749e+000
1.357548e+003,-6.451431e+000
1.358512e+003,-5.160965e+000
1.359476e+003,-5.550217e+000
1.360441e+003,-6.052902e+000
1.361405e+003,-6.369995e+000
1.362369e+003,-6.520157e+000
1.363333e+003,-6.177994e+000
1.364298e+003,-5.825470e+000
1.365262e+003,-6.281372e+000
1.366226e+003,-7.585388e+000
1.367190e+003,-8.878448e+000
1.368155e+003,-9.395447e+000
1.369119e+003,-9.329437e+000
1.370083e+003,-9.244492e+000
1.371047e+003,-9.073273e+000
1.372011e+003,-9.023331e+000
1.372976e+003,-9.247528e+000
1.373940e+003,-9.548187e+000
1.374904e+003,-1.032204e+001
1.375868e+003,-1.076820e+001
1.376833e+003,-9.277283e+000
1.377797e+003,-6.194077e+000
1.378761e+003,-4.566177e+000
1.379725e+003,-6.008759e+000
1.380690e+003,-8.121964e+000
1.381654e+003,-8.528412e+000
1.382618e+003,-7.977814e+000
1.383582e+003,-7.418564e+000
1.384547e+003,-6.903961e+000
1.385511e+003,-6.123398e+000
1.386475e+003,-4.838593e+000
1.387439e+003,-3.641235e+000
1.388403e+003,-3.501434e+000
1.389368e+003,-4.424515e+000
1.390332e+003,-5.414490e+000
1.391296e+003,-6.771286e+000
1.392260e+003,-7.398087e+000
1.393225e+003,-5.973679e+000
1.394189e+003,-5.009521e+000
1.395153e+003,-6.653961e+000
1.396117e+003,-9.390762e+000
1.397082e+003,-1.072833e+001
1.398046e+003,-1.006168e+001
1.399010e+003,-8.773132e+000
1.399974e+003,-8.171921e+000
1.400938e+003,-7.986649e+000
1.401903e+003,-7.073135e+000
1.402867e+003,-4.932388e+000
1.403831e+003,-3.349136e+000
1.404795e+003,-2.776337e+000
1.405760e+003,-2.306992e+000
1.406724e+003,-1.240616e+000
1.407688e+003,-6.519928e-001
1.408652e+003,-2.236725e+000
1.409617e+003,-5.469681e+000
1.410581e+003,-7.556046e+000
1.411545e+003,-7.292252e+000
1.412509e+003,-6.200180e+000
1.413474e+003,-5.330170e+000
1.414438e+003,-4.961700e+000
1.415402e+003,-5.831207e+000
1.416366e+003,-7.554291e+000
1.417330e+003,-8.189438e+000
1.418295e+003,-6.850021e+000
1.419259e+003,-4.679657e+000
1.420223e+003,-2.656113e+000
1.421187e+003,-9.555054e-001
1.422152e+003,-5.555573e-001
1.423116e+003,-1.855759e+000
1.424080e+003,-2.891144e+000
1.425044e+003,-3.027039e+000
1.426009e+003,-3.058441e+000
1.426973e+003,-3.377777e+000
1.427937e+003,-3.734848e+000
1.428901e+003,-3.544006e+000
1.429865e+003,-2.952576e+000
1.430830e+003,-3.051819e+000
1.431794e+003,-4.559601e+000
1.432758e+003,-6.311081e+000
1.433722e+003,-5.772125e+000
1.434687e+003,-2.532822e+000
1.435651e+003,-8.576965e-001
1.436615e+003,-2.546951e+000
1.437579e+003,-3.631210e+000
1.438544e+003,-3.102005e+000
1.439508e+003,-2.484543e+000
1.440472e+003,-2.889618e+000
1.441436e+003,-3.829086e+000
1.442401e+003,-4.440079e+000
1.443365e+003,-4.487366e+000
1.444329e+003,-3.876190e+000
1.445293e+003,-2.328705e+000
1.446257e+003,-5.646820e-001
1.447222e+003,-1.668701e-001
1.448186e+003,-8.808746e-001
1.449150e+003,-1.192978e+000
1.450114e+003,-7.577515e-001
1.451079e+003,-9.185486e-001
1.452043e+003,-3.448868e+000
1.453007e+003,-6.091476e+000
1.453971e+003,-5.001831e+000
1.454936e+003,-8.280945e-001
1.455900e+003,1.423477e+000
1.456864e+003,4.171753e-001
1.457828e+003,-1.380295e+000
1.458792e+003,-3.604034e+000
1.459757e+003,-5.180832e+000
1.460721e+003,-4.536301e+000
1.461685e+003,-2.747696e+000
1.462649e+003,-1.985672e+000
1.463614e+003,-2.775833e+000
1.464578e+003,-4.238281e+000
1.465542e+003,-5.800186e+000
1.466506e+003,-7.179977e+000
1.467471e+003,-7.210632e+000
1.468435e+003,-5.337173e+000
1.469399e+003,-4.498383e+000
1.470363e+003,-6.385529e+000
1.471328e+003,-7.282944e+000
1.472292e+003,-5.675064e+000
1.473256e+003,-3.658966e+000
1.474220e+003,-2.309372e+000
1.475184e+003,-1.716187e+000
1.476149e+003,-1.983704e+000
1.477113e+003,-3.006180e+000
1.478077e+003,-4.037277e+000
1.479041e+003,-4.285919e+000
1.480006e+003,-3.898315e+000
1.480970e+003,-3.489746e+000
1.481934e+003,-3.093719e+000
1.482898e+003,-2.909271e+000
1.483863e+003,-3.267593e+000
1.484827e+003,-3.386108e+000
1.485791e+003,-2.931915e+000
1.486755e+003,-2.134781e+000
1.487719e+003,-9.983826e-001
1.488684e+003,1.796570e-001
1.489648e+003,7.886505e-001
1.490612e+003,6.801453e-001
1.491576e+003,2.436676e-001
1.492541e+003,-4.509735e-001
1.493505e+003,-9.528961e-001
1.494469e+003,9.553528e-002
1.495433e+003,2.311325e+000
1.496398e+003,3.929153e+000
1.497362e+003,4.928375e+000
1.498326e+003,5.173645e+000
1.499290e+003,3.979721e+000
1.500255e+003,2.394897e+000
1.501219e+003,1.685471e+000
1.502183e+003,1.833969e+000
1.503147e+003,2.630981e+000
1.504111e+003,4.067734e+000
1.505076e+003,6.008575e+000
1.506040e+003,8.941559e+000
1.507004e+003,1.176152e+001
1.507968e+003,1.321065e+001
1.508933e+003,1.381131e+001
1.509897e+003,1.446729e+001
1.510861e+003,1.550679e+001
1.511825e+003,1.741405e+001
1.512790e+003,2.055513e+001
1.513754e+003,2.443307e+001
1.514718e+003,2.844958e+001
1.515682e+003,3.253831e+001
1.516646e+003,3.566418e+001
1.517611e+003,3.760320e+001
1.518575e+003,3.915620e+001
1.519539e+003,4.015028e+001
1.520503e+003,4.139925e+001
1.521468e+003,4.406833e+001
1.522432e+003,4.679485e+001
1.523396e+003,4.757625e+001
1.524360e+003,4.631178e+001
1.525325e+003,4.450276e+001
1.526289e+003,4.316580e+001
1.527253e+003,4.174739e+001
1.528217e+003,3.910675e+001
1.529182e+003,3.527362e+001
1.530146e+003,3.224698e+001
1.531110e+003,3.091434e+001
1.532074e+003,2.859956e+001
1.533039e+003,2.361867e+001
1.534003e+003,1.916849e+001
1.534967e+003,1.734166e+001
1.535931e+003,1.658342e+001
1.536896e+003,1.508595e+001
1.537860e+003,1.273154e+001
1.538824e+003,1.029692e+001
1.539788e+003,8.163498e+000
1.540752e+003,6.155273e+000
1.541717e+003,4.026443e+000
1.542681e+003,2.013504e+000
1.543645e+003,1.372650e+000
1.544609e+003,2.849457e+000
1.545573e+003,4.072479e+000
1.546538e+003,5.095245e+000
1.547502e+003,5.578430e+000
1.548466e+003,5.194794e+000
1.549430e+003,4.588699e+000
1.550395e+003,4.202362e+000
1.551359e+003,4.095764e+000
1.552323e+003,4.433945e+000
1.553287e+003,5.232574e+000
1.554252e+003,5.802292e+000
1.555216e+003,5.450043e+000
1.556180e+003,4.673111e+000
1.557144e+003,4.871704e+000
1.558109e+003,6.107086e+000
1.559073e+003,5.828979e+000
1.560037e+003,2.968018e+000
1.561001e+003,4.958649e-001
1.561966e+003,-6.230927e-001
1.562930e+003,-7.364807e-001
1.563894e+003,2.542725e-001
1.564858e+003,1.784485e+000
1.565823e+003,2.589127e+000
1.566787e+003,2.441101e+000
1.567751e+003,2.169601e+000
1.568715e+003,2.253052e+000
1.569679e+003,2.448196e+000
1.570644e+003,2.305023e+000
1.571608e+003,1.989410e+000
1.572572e+003,2.270859e+000
1.573536e+003,3.243835e+000
1.574500e+003,3.799454e+000
1.575465e+003,3.350754e+000
1.576429e+003,2.671799e+000
1.577393e+003,2.056503e+000
1.578357e+003,1.734161e+000
1.579322e+003,2.533707e+000
1.580286e+003,4.390564e+000
1.581250e+003,5.460327e+000
1.582214e+003,4.898529e+000
1.583179e+003,4.561432e+000
1.584143e+003,6.309586e+000
1.585107e+003,8.480896e+000
1.586071e+003,8.791321e+000
1.587036e+003,7.847885e+000
1.588000e+003,7.343781e+000
1.588964e+003,7.619385e+000
1.589928e+003,7.656693e+000
1.590893e+003,6.826218e+000
1.591857e+003,5.377304e+000
1.592821e+003,2.883926e+000
1.593785e+003,-8.662415e-002
1.594750e+003,2.710724e-001
1.595714e+003,5.062973e+000
1.596678e+003,8.655380e+000
1.597642e+003,7.991287e+000
1.598606e+003,6.664612e+000
1.599571e+003,8.103348e+000
1.600535e+003,1.036560e+001
1.601499e+003,1.060686e+001
1.602463e+003,9.028198e+000
1.603427e+003,7.974579e+000
1.604392e+003,8.431702e+000
1.605356e+003,9.393555e+000
1.606320e+003,9.879166e+000
1.607284e+003,1.007460e+001
1.608249e+003,1.066516e+001
1.609213e+003,1.168320e+001
1.610177e+003,1.185948e+001
1.611141e+003,1.050563e+001
1.612106e+003,9.507416e+000
1.613070e+003,1.027205e+001
1.614034e+003,1.125754e+001
1.614998e+003,1.113866e+001
1.615963e+003,1.056320e+001
1.616927e+003,1.091096e+001
1.617891e+003,1.219514e+001
1.618855e+003,1.280061e+001
1.619820e+003,1.158615e+001
1.620784e+003,9.946487e+000
1.621748e+003,1.023904e+001
1.622712e+003,1.218520e+001
1.623677e+003,1.333165e+001
1.624641e+003,1.358177e+001
1.625605e+003,1.353279e+001
1.626569e+003,1.289684e+001
1.627533e+003,1.224223e+001
1.628498e+003,1.186632e+001
1.629462e+003,1.175113e+001
1.630426e+003,1.220630e+001
1.631390e+003,1.278300e+001
1.632354e+003,1.237624e+001
1.633319e+003,1.083809e+001
1.634283e+003,9.390930e+000
1.635247e+003,8.807266e+000
1.636211e+003,9.180252e+000
1.637176e+003,1.140166e+001
1.638140e+003,1.525050e+001
1.639104e+003,1.652878e+001
1.640068e+003,1.430588e+001
1.641033e+003,1.249881e+001
1.641997e+003,1.227106e+001
1.642961e+003,1.244067e+001
1.643925e+003,1.243198e+001
1.644890e+003,1.246001e+001
1.645854e+003,1.290051e+001
1.646818e+003,1.351294e+001
1.647782e+003,1.361684e+001
1.648747e+003,1.302922e+001
1.649711e+003,1.239879e+001
1.650675e+003,1.236821e+001
1.651639e+003,1.255812e+001
1.652604e+003,1.196542e+001
1.653568e+003,1.058607e+001
1.654532e+003,9.580658e+000
1.655496e+003,9.053223e+000
1.656460e+003,8.748566e+000
1.657425e+003,8.619751e+000
1.658389e+003,8.749573e+000
1.659353e+003,9.321762e+000
1.660317e+003,1.003264e+001
1.661281e+003,1.061497e+001
1.662246e+003,1.100972e+001
1.663210e+003,1.129558e+001
1.664174e+003,1.150987e+001
1.665138e+003,1.129739e+001
1.666103e+003,1.020036e+001
1.667067e+003,8.634186e+000
1.668031e+003,7.424500e+000
1.668995e+003,6.587524e+000
1.669960e+003,5.956665e+000
1.670924e+003,5.469666e+000
1.671888e+003,5.567657e+000
1.672852e+003,6.902176e+000
1.673817e+003,8.022156e+000
1.674781e+003,7.705353e+000
1.675745e+003,6.922943e+000
1.676709e+003,6.670212e+000
1.677674e+003,6.910553e+000
1.678638e+003,7.193115e+000
1.679602e+003,7.382050e+000
1.680566e+003,7.856705e+000
1.681531e+003,9.159698e+000
1.682495e+003,1.069034e+001
1.683459e+003,1.159706e+001
1.684423e+003,1.175159e+001
1.685387e+003,1.019296e+001
1.686352e+003,6.512268e+000
1.687316e+003,4.037186e+000
1.688280e+003,4.153351e+000
1.689244e+003,5.075867e+000
1.690208e+003,5.671600e+000
1.691173e+003,6.230637e+000
1.692137e+003,7.488495e+000
1.693101e+003,9.064560e+000
1.694065e+003,9.428146e+000
1.695030e+003,8.103104e+000
1.695994e+003,6.439941e+000
1.696958e+003,5.098846e+000
1.697922e+003,4.142303e+000
1.698887e+003,3.602539e+000
1.699851e+003,3.524582e+000
1.700815e+003,4.207840e+000
1.701779e+003,5.605423e+000
1.702744e+003,6.467850e+000
1.703708e+003,6.413406e+000
1.704672e+003,6.068634e+000
1.705636e+003,5.707352e+000
1.706601e+003,5.262390e+000
1.707565e+003,4.759598e+000
1.708529e+003,4.253403e+000
1.709493e+003,3.608902e+000
1.710458e+003,2.713974e+000
1.711422e+003,2.487885e+000
1.712386e+003,4.098221e+000
1.713350e+003,5.677490e+000
1.714314e+003,5.195114e+000
1.715279e+003,3.880295e+000
1.716243e+003,4.283386e+000
1.717207e+003,6.036453e+000
1.718171e+003,6.228516e+000
1.719135e+003,4.076782e+000
1.720100e+003,1.968750e+000
1.721064e+003,1.371994e+000
1.722028e+003,1.871231e+000
1.722992e+003,3.382889e+000
1.723957e+003,5.587692e+000
1.724921e+003,6.073837e+000
1.725885e+003,4.432632e+000
1.726849e+003,3.047943e+000
1.727814e+003,2.569107e+000
1.728778e+003,2.301666e+000
1.729742e+003,1.947861e+000
1.730706e+003,1.616760e+000
1.731671e+003,1.195511e+000
1.732635e+003,8.241730e-001
1.733599e+003,1.017044e+000
1.734563e+003,1.837067e+000
1.735528e+003,2.901596e+000
1.736492e+003,3.970856e+000
1.737456e+003,4.273087e+000
1.738420e+003,2.737244e+000
1.739385e+003,4.150391e-003
1.740349e+003,-1.322571e+000
1.741313e+003,-9.169617e-001
1.742277e+003,-4.612427e-001
1.743241e+003,9.295654e-002
1.744206e+003,7.331848e-001
1.745170e+003,1.605469e+000
1.746134e+003,2.314575e+000
1.747098e+003,2.386490e+000
1.748063e+003,2.356125e+000
1.749027e+003,3.321045e+000
1.749991e+003,4.688690e+000
1.750955e+003,4.376038e+000
1.751919e+003,1.994522e+000
1.752884e+003,-3.099060e-002
1.753848e+003,3.252411e-001
1.754812e+003,1.872894e+000
1.755776e+003,2.268509e+000
1.756741e+003,1.616486e+000
1.757705e+003,1.214737e+000
1.758669e+003,1.038879e+000
1.759633e+003,1.017563e+000
1.760598e+003,1.311432e+000
1.761562e+003,1.405136e+000
1.762526e+003,1.420334e+000
1.763490e+003,1.060684e+000
1.764455e+003,-5.829010e-001
1.765419e+003,-2.367355e+000
1.766383e+003,-2.368713e+000
1.767347e+003,-6.848755e-001
1.768312e+003,1.118347e+000
1.769276e+003,2.307648e+000
1.770240e+003,2.479477e+000
1.771204e+003,8.736420e-001
1.772168e+003,-1.491272e+000
1.773133e+003,-2.393356e+000
1.774097e+003,-1.961029e+000
1.775061e+003,-1.312225e+000
1.776025e+003,-5.271454e-001
1.776990e+003,-3.526306e-001
1.777954e+003,-1.324615e+000
1.778918e+003,-2.082657e+000
1.779882e+003,-1.734955e+000
1.780846e+003,-6.661987e-001
1.781811e+003,1.315048e+000
1.782775e+003,3.605179e+000
1.783739e+003,3.833145e+000
1.784703e+003,1.488327e+000
1.785668e+003,-4.874115e-001
1.786632e+003,-1.160202e+000
1.787596e+003,-9.110718e-001
1.788560e+003,9.228516e-001
1.789525e+003,3.034714e+000
1.790489e+003,3.160858e+000
1.791453e+003,1.830673e+000
1.792417e+003,1.294952e+000
1.793382e+003,1.941864e+000
1.794346e+003,2.120239e+000
1.795310e+003,8.816071e-001
1.796274e+003,-3.262939e-001
1.797239e+003,3.429871e-001
1.798203e+003,2.173615e+000
1.799167e+003,2.490952e+000
1.800131e+003,7.575073e-001
1.801095e+003,1.112823e-001
1.802060e+003,1.706558e+000
1.803024e+003,2.720596e+000
1.803988e+003,2.430939e+000
1.804952e+003,1.964355e+000
1.805917e+003,1.879868e+000
1.806881e+003,1.847778e+000
1.807845e+003,1.392456e+000
1.808809e+003,7.847137e-001
1.809773e+003,6.647949e-001
1.810738e+003,1.095398e+000
1.811702e+003,1.500748e+000
1.812666e+003,1.518677e+000
1.813630e+003,1.513809e+000
1.814595e+003,2.048904e+000
1.815559e+003,2.858810e+000
1.816523e+003,2.800659e+000
1.817487e+003,1.768311e+000
1.818452e+003,1.351471e+000
1.819416e+003,2.029922e+000
1.820380e+003,2.323975e+000
1.821344e+003,1.420395e+000
1.822309e+003,4.811859e-001
1.823273e+003,1.370087e-001
1.824237e+003,2.287750e-001
1.825201e+003,7.913818e-001
1.826166e+003,1.557632e+000
1.827130e+003,1.985931e+000
1.828094e+003,1.949265e+000
1.829058e+003,1.363449e+000
1.830022e+003,-2.273560e-001
1.830987e+003,-1.366348e+000
1.831951e+003,-7.177124e-001
1.832915e+003,1.018768e+000
1.833879e+003,3.814941e+000
1.834844e+003,6.651749e+000
1.835808e+003,5.942749e+000
1.836772e+003,1.663101e+000
1.837736e+003,-1.201126e+000
1.838700e+003,-4.777985e-001
1.839665e+003,1.192093e+000
1.840629e+003,1.509766e+000
1.841593e+003,1.031876e+000
1.842557e+003,8.675079e-001
1.843522e+003,1.008209e+000
1.844486e+003,1.028824e+000
1.845450e+003,1.102478e+000
1.846414e+003,8.821564e-001
1.847379e+003,-7.391205e-001
1.848343e+003,-1.356140e+000
1.849307e+003,8.663788e-001
1.850271e+003,3.226685e+000
1.851236e+003,3.607452e+000
1.852200e+003,3.077606e+000
1.853164e+003,3.435364e+000
1.854128e+003,4.423477e+000
1.855093e+003,4.359070e+000
1.856057e+003,2.784393e+000
1.857021e+003,1.166107e+000
1.857985e+003,6.693726e-001
1.858949e+003,8.469238e-001
1.859914e+003,1.092163e+000
1.860878e+003,1.382858e+000
1.861842e+003,1.255600e+000
1.862806e+003,6.529694e-001
1.863771e+003,1.408859e+000
1.864735e+003,4.309021e+000
1.865699e+003,6.182999e+000
1.866663e+003,5.428329e+000
1.867627e+003,3.774261e+000
1.868592e+003,2.063141e+000
1.869556e+003,7.570343e-001
1.870520e+003,1.328949e+000
1.871484e+003,3.362015e+000
1.872449e+003,4.004395e+000
1.873413e+003,2.834244e+000
1.874377e+003,1.691193e+000
1.875341e+003,5.308228e-001
1.876306e+003,-1.130066e-001
1.877270e+003,1.684875e-001
1.878234e+003,9.497070e-001
1.879198e+003,2.276184e+000
1.880163e+003,3.598389e+000
1.881127e+003,3.843628e+000
1.882091e+003,3.149292e+000
1.883055e+003,2.578537e+000
1.884020e+003,2.606125e+000
1.884984e+003,3.100006e+000
1.885948e+003,3.972290e+000
1.886912e+003,4.842346e+000
1.887876e+003,4.879227e+000
1.888841e+003,4.186371e+000
1.889805e+003,3.990204e+000
1.890769e+003,4.418121e+000
1.891733e+003,4.653702e+000
1.892698e+003,4.529297e+000
1.893662e+003,4.291855e+000
1.894626e+003,4.017609e+000
1.895590e+003,3.717010e+000
1.896554e+003,3.411209e+000
1.897519e+003,3.147659e+000
1.898483e+003,2.955856e+000
1.899447e+003,2.743866e+000
1.900411e+003,2.310135e+000
1.901376e+003,1.614716e+000
1.902340e+003,1.329788e+000
1.903304e+003,1.940292e+000
1.904268e+003,2.623703e+000
1.905233e+003,3.219208e+000
1.906197e+003,3.382980e+000
1.907161e+003,2.360489e+000
1.908125e+003,8.775635e-001
1.909090e+003,4.707336e-002
1.910054e+003,-7.736206e-003
1.911018e+003,6.336060e-001
1.911982e+003,1.870895e+000
1.912947e+003,3.136276e+000
1.913911e+003,3.997391e+000
1.914875e+003,4.797821e+000
1.915839e+003,6.193604e+000
1.916803e+003,7.687164e+000
1.917768e+003,6.597885e+000
1.918732e+003,2.246231e+000
1.919696e+003,1.215973e-001
1.920660e+003,7.964935e-001
1.921625e+003,2.547653e+000
1.922589e+003,6.282791e+000
1.923553e+003,8.865067e+000
1.924517e+003,7.339218e+000
1.925481e+003,5.102890e+000
1.926446e+003,5.487701e+000
1.927410e+003,7.199554e+000
1.928374e+003,7.414917e+000
1.929338e+003,6.025742e+000
1.930303e+003,5.193588e+000
1.931267e+003,5.753067e+000
1.932231e+003,6.291336e+000
1.933195e+003,5.993164e+000
1.934160e+003,5.514877e+000
1.935124e+003,5.370575e+000
1.936088e+003,5.246964e+000
1.937052e+003,4.554642e+000
1.938017e+003,3.745544e+000
1.938981e+003,3.954849e+000
1.939945e+003,5.113388e+000
1.940909e+003,6.044647e+000
1.941874e+003,6.186401e+000
1.942838e+003,5.867401e+000
1.943802e+003,5.419312e+000
1.944766e+003,5.138138e+000
1.945730e+003,5.525848e+000
1.946695e+003,6.451584e+000
1.947659e+003,7.285828e+000
1.948623e+003,8.029648e+000
1.949587e+003,8.421371e+000
1.950552e+003,8.337082e+000
1.951516e+003,8.543945e+000
1.952480e+003,9.719650e+000
1.953444e+003,1.030124e+001
1.954408e+003,8.760345e+000
1.955373e+003,6.368484e+000
1.956337e+003,4.656158e+000
1.957301e+003,3.746964e+000
1.958265e+003,4.094559e+000
1.959230e+003,5.966736e+000
1.960194e+003,6.945389e+000
1.961158e+003,5.826782e+000
1.962122e+003,4.888168e+000
1.963087e+003,4.846481e+000
1.964051e+003,5.003860e+000
1.965015e+003,4.989227e+000
1.965979e+003,5.085297e+000
1.966944e+003,5.779648e+000
1.967908e+003,6.600952e+000
1.968872e+003,6.447266e+000
1.969836e+003,5.548431e+000
1.970801e+003,5.676788e+000
1.971765e+003,7.477859e+000
1.972729e+003,8.794861e+000
1.973693e+003,7.537659e+000
1.974657e+003,5.589035e+000
1.975622e+003,5.890686e+000
1.976586e+003,7.629044e+000
1.977550e+003,8.752060e+000
1.978514e+003,9.317963e+000
1.979479e+003,1.006636e+001
1.980443e+003,1.101884e+001
1.981407e+003,1.069511e+001
1.982371e+003,8.483459e+000
1.983335e+003,6.603348e+000
1.984300e+003,6.696655e+000
1.985264e+003,7.964005e+000
1.986228e+003,9.442657e+000
1.987192e+003,1.082767e+001
1.988157e+003,1.040469e+001
1.989121e+003,7.625885e+000
1.990085e+003,6.068436e+000
1.991049e+003,6.626968e+000
1.992014e+003,6.669769e+000
1.992978e+003,4.878830e+000
1.993942e+003,3.845306e+000
1.994906e+003,4.996353e+000
1.995871e+003,6.647659e+000
1.996835e+003,7.691788e+000
1.997799e+003,8.423676e+000
1.998763e+003,9.542694e+000
1.999728e+003,1.078514e+001
