5.003444e+002,3.129691e+001
5.013087e+002,2.967592e+001
5.022729e+002,2.798154e+001
5.032371e+002,2.642929e+001
5.042014e+002,2.484439e+001
5.051656e+002,2.333302e+001
5.061298e+002,2.261040e+001
5.070941e+002,2.348845e+001
5.080583e+002,2.655563e+001
5.090225e+002,2.718126e+001
5.099868e+002,2.335780e+001
5.109510e+002,1.997021e+001
5.119152e+002,2.005429e+001
5.128795e+002,2.399529e+001
5.138437e+002,2.703862e+001
5.148079e+002,2.712056e+001
5.157722e+002,2.647681e+001
5.167364e+002,2.604640e+001
5.177006e+002,2.581355e+001
5.186649e+002,2.481482e+001
5.196291e+002,2.084222e+001
5.205933e+002,1.645105e+001
5.215576e+002,1.443825e+001
5.225218e+002,1.492584e+001
5.234860e+002,1.687808e+001
5.244503e+002,1.865425e+001
5.254145e+002,2.046277e+001
5.263787e+002,2.121390e+001
5.273430e+002,2.005156e+001
5.283072e+002,1.841353e+001
5.292714e+002,1.852200e+001
5.302357e+002,2.190881e+001
5.311999e+002,2.310085e+001
5.321641e+002,2.029613e+001
5.331284e+002,1.668330e+001
5.340926e+002,1.462741e+001
5.350568e+002,1.497029e+001
5.360211e+002,1.601143e+001
5.369853e+002,1.682530e+001
5.379495e+002,1.741963e+001
5.389138e+002,1.764394e+001
5.398780e+002,1.745126e+001
5.408422e+002,1.694339e+001
5.418065e+002,1.633545e+001
5.427707e+002,1.566724e+001
5.437349e+002,1.533060e+001
5.446992e+002,1.544942e+001
5.456634e+002,1.591855e+001
5.466276e+002,1.643346e+001
5.475919e+002,1.750848e+001
5.485561e+002,1.801842e+001
5.495203e+002,1.771198e+001
5.504846e+002,1.678360e+001
5.514488e+002,1.552039e+001
5.524130e+002,1.397066e+001
5.533773e+002,1.238074e+001
5.543415e+002,1.062280e+001
5.553057e+002,9.021225e+000
5.562700e+002,7.857834e+000
5.572342e+002,7.288513e+000
5.581984e+002,7.240829e+000
5.591627e+002,7.924774e+000
5.601269e+002,9.096466e+000
5.610911e+002,1.019748e+001
5.620554e+002,1.094749e+001
5.630196e+002,1.121184e+001
5.639838e+002,1.014836e+001
5.649481e+002,5.646393e+000
5.659123e+002,2.878021e+000
5.668765e+002,3.747543e+000
5.678408e+002,7.190674e+000
5.688050e+002,1.002562e+001
5.697692e+002,1.134517e+001
5.707335e+002,1.161795e+001
5.716977e+002,1.075676e+001
5.726619e+002,9.224289e+000
5.736262e+002,7.399124e+000
5.745904e+002,5.424011e+000
5.755546e+002,3.891266e+000
5.765189e+002,3.566422e+000
5.774831e+002,3.995636e+000
5.784473e+002,4.701080e+000
5.794116e+002,5.408875e+000
5.803758e+002,6.176376e+000
5.813400e+002,6.486359e+000
5.823043e+002,5.929688e+000
5.832685e+002,5.580750e+000
5.842327e+002,6.246002e+000
5.851970e+002,7.773834e+000
5.861612e+002,8.599670e+000
5.871254e+002,7.856461e+000
5.880897e+002,6.820938e+000
5.890539e+002,5.036621e+000
5.900181e+002,3.175446e+000
5.909824e+002,2.447556e+000
5.919466e+002,4.110291e+000
5.929108e+002,6.171310e+000
5.938751e+002,6.236435e+000
5.948393e+002,5.223099e+000
5.958035e+002,4.690781e+000
5.967678e+002,5.778961e+000
5.977320e+002,8.128906e+000
5.986962e+002,8.134430e+000
5.996605e+002,5.638382e+000
6.006247e+002,3.408356e+000
6.015889e+002,2.906815e+000
6.025532e+002,4.012054e+000
6.035174e+002,4.605667e+000
6.044816e+002,4.311325e+000
6.054459e+002,3.886093e+000
6.064101e+002,3.137589e+000
6.073743e+002,2.359360e+000
6.083386e+002,2.084167e+000
6.093028e+002,2.792664e+000
6.102670e+002,3.774567e+000
6.112313e+002,4.458496e+000
6.121955e+002,4.954544e+000
6.131597e+002,5.544876e+000
6.141240e+002,6.395828e+000
6.150882e+002,7.206696e+000
6.160524e+002,6.348846e+000
6.170167e+002,4.197937e+000
6.179809e+002,2.508148e+000
6.189451e+002,2.136551e+000
6.199094e+002,2.818710e+000
6.208736e+002,2.991074e+000
6.218378e+002,2.062790e+000
6.228021e+002,1.564011e+000
6.237663e+002,2.003067e+000
6.247305e+002,2.899002e+000
6.256948e+002,3.379883e+000
6.266590e+002,2.843475e+000
6.276232e+002,2.134583e+000
6.285875e+002,2.105652e+000
6.295517e+002,2.268204e+000
6.305159e+002,2.079178e+000
6.314802e+002,1.202759e+000
6.324444e+002,-2.330170e-001
6.334086e+002,-2.487793e+000
6.343729e+002,-4.959549e+000
6.353371e+002,-5.474319e+000
6.363013e+002,-2.954666e+000
6.372656e+002,1.526154e+000
6.382298e+002,4.253006e+000
6.391940e+002,4.228378e+000
6.401583e+002,3.248398e+000
6.411225e+002,3.429565e-001
6.420867e+002,-2.728790e+000
6.430510e+002,-3.677704e+000
6.440152e+002,-1.292114e+000
6.449794e+002,6.449127e-001
6.459437e+002,-4.833984e-002
6.469079e+002,-1.705078e+000
6.478721e+002,-3.141754e+000
6.488364e+002,-3.867416e+000
6.498006e+002,-4.239914e+000
6.507648e+002,-5.219681e+000
6.517291e+002,-6.366791e+000
6.526933e+002,-6.143600e+000
6.536575e+002,-4.175461e+000
6.546218e+002,-1.671539e+000
6.555860e+002,-1.019791e+000
6.565502e+002,-3.722626e+000
6.575145e+002,-5.143509e+000
6.584787e+002,-5.010483e+000
6.594429e+002,-4.005676e+000
6.604072e+002,-2.306625e+000
6.613714e+002,2.085419e-001
6.623356e+002,2.086639e+000
6.632999e+002,2.250168e+000
6.642641e+002,1.791458e+000
6.652283e+002,9.473114e-001
6.661926e+002,7.438660e-002
6.671568e+002,-3.127594e-001
6.681210e+002,4.776154e-001
6.690853e+002,2.029083e+000
6.700495e+002,3.471542e+000
6.710137e+002,4.744431e+000
6.719780e+002,5.439804e+000
6.729422e+002,5.051773e+000
6.739064e+002,3.297913e+000
6.748707e+002,1.807663e+000
6.758349e+002,5.020752e-001
6.767991e+002,-5.931549e-001
6.777634e+002,-1.296036e+000
6.787276e+002,-1.570816e+000
6.796918e+002,-1.736771e+000
6.806561e+002,-2.287766e+000
6.816203e+002,-2.520264e+000
6.825845e+002,-1.724518e+000
6.835488e+002,-5.034943e-001
6.845130e+002,9.271240e-002
6.854772e+002,-7.659760e-001
6.864415e+002,-2.184799e+000
6.874057e+002,-2.608109e+000
6.883699e+002,-2.278778e+000
6.893342e+002,-9.558258e-001
6.902984e+002,1.714493e+000
6.912626e+002,5.258453e+000
6.922269e+002,6.132523e+000
6.931911e+002,1.541199e+000
6.941553e+002,-1.567001e+000
6.951196e+002,-2.141968e+000
6.960838e+002,-1.360001e+000
6.970480e+002,-1.067032e+000
6.980123e+002,-1.993942e+000
6.989765e+002,-2.244995e+000
6.999407e+002,-2.963409e-001
7.009050e+002,1.926315e+000
7.018692e+002,2.647232e+000
7.028334e+002,1.391907e+000
7.037977e+002,-4.828491e-001
7.047619e+002,-7.114868e-001
7.057261e+002,1.726685e-001
7.066904e+002,9.723511e-001
7.076546e+002,1.489655e+000
7.086188e+002,1.783920e+000
7.095831e+002,1.938049e+000
7.105473e+002,1.886597e+000
7.115115e+002,1.623123e+000
7.124758e+002,4.812622e-001
7.134400e+002,-2.793732e-001
7.144042e+002,6.842041e-001
7.153685e+002,3.357605e+000
7.163327e+002,5.023361e+000
7.172969e+002,3.416473e+000
7.182612e+002,1.428513e+000
7.192254e+002,-1.557922e-001
7.201896e+002,-1.230911e+000
7.211539e+002,-1.804977e+000
7.221181e+002,-1.782669e+000
7.230823e+002,-1.550858e+000
7.240466e+002,-2.453354e+000
7.250108e+002,-4.061737e+000
7.259750e+002,-4.950577e+000
7.269393e+002,-4.325302e+000
7.279035e+002,-2.508316e+000
7.288677e+002,-1.141495e+000
7.298320e+002,6.165771e-001
7.307962e+002,1.266068e+000
7.317604e+002,-5.806580e-001
7.327247e+002,-3.057480e+000
7.336889e+002,-3.319870e+000
7.346531e+002,-4.241943e-002
7.356174e+002,2.532883e+000
7.365816e+002,1.761322e+000
7.375458e+002,1.340485e-001
7.385101e+002,-2.449493e-001
7.394743e+002,9.718170e-001
7.404385e+002,2.128632e+000
7.414028e+002,1.502686e-001
7.423670e+002,-4.184570e+000
7.433312e+002,-5.965820e+000
7.442955e+002,-4.577179e+000
7.452597e+002,-1.467987e+000
7.462239e+002,2.078003e+000
7.471882e+002,6.616165e+000
7.481524e+002,8.591309e+000
7.491166e+002,6.179184e+000
7.500809e+002,3.431412e+000
7.510451e+002,1.551880e+000
7.520093e+002,5.858612e-001
7.529736e+002,2.489624e-001
7.539378e+002,1.080963e+000
7.549020e+002,1.825165e+000
7.558663e+002,1.440170e+000
7.568306e+002,5.243683e-001
7.577948e+002,-1.851654e-001
7.587590e+002,-2.729187e-001
7.597233e+002,7.029724e-002
7.606875e+002,8.317566e-001
7.616517e+002,2.008621e+000
7.626160e+002,2.401779e+000
7.635802e+002,1.520874e+000
7.645444e+002,-6.718445e-002
7.655087e+002,-1.279419e+000
7.664729e+002,-2.230240e+000
7.674371e+002,-2.514908e+000
7.684014e+002,-2.058640e+000
7.693656e+002,-1.179642e+000
7.703298e+002,3.726959e-001
7.712941e+002,2.436615e+000
7.722583e+002,3.690323e+000
7.732225e+002,1.905853e+000
7.741868e+002,1.324158e-001
7.751510e+002,1.277130e+000
7.761152e+002,4.538147e+000
7.770795e+002,7.687271e+000
7.780437e+002,8.741653e+000
7.790079e+002,7.890762e+000
7.799722e+002,6.766785e+000
7.809364e+002,5.229736e+000
7.819006e+002,4.229645e+000
7.828649e+002,4.697510e+000
7.838291e+002,6.135635e+000
7.847933e+002,6.588150e+000
7.857576e+002,5.080246e+000
7.867218e+002,3.687622e+000
7.876860e+002,2.690521e+000
7.886503e+002,2.229965e+000
7.896145e+002,2.841522e+000
7.905787e+002,4.495102e+000
7.915430e+002,5.664932e+000
7.925072e+002,3.630417e+000
7.934714e+002,6.349182e-001
7.944357e+002,-7.266235e-001
7.953999e+002,-2.369080e-001
7.963641e+002,1.201035e+000
7.973284e+002,2.566696e+000
7.982926e+002,3.861160e+000
7.992568e+002,4.968536e+000
8.002211e+002,6.045609e+000
8.011853e+002,6.250961e+000
8.021495e+002,4.958832e+000
8.031138e+002,2.840744e+000
8.040780e+002,1.728973e+000
8.050422e+002,2.111359e+000
8.060065e+002,2.994827e+000
8.069707e+002,4.842133e+000
8.079349e+002,6.344070e+000
8.088992e+002,5.967773e+000
8.098634e+002,3.391815e+000
8.108276e+002,2.535858e-001
8.117919e+002,-1.490677e+000
8.127561e+002,-2.192719e+000
8.137203e+002,-1.865479e+000
8.146846e+002,-4.158478e-001
8.156488e+002,1.339890e+000
8.166130e+002,2.298386e+000
8.175773e+002,2.271698e+000
8.185415e+002,2.356506e+000
8.195057e+002,2.098755e+000
8.204700e+002,2.220612e+000
8.214342e+002,3.522720e+000
8.223984e+002,5.392670e+000
8.233627e+002,6.125534e+000
8.243269e+002,4.639099e+000
8.252911e+002,3.026413e+000
8.262554e+002,2.464157e+000
8.272196e+002,2.428864e+000
8.281838e+002,2.487503e+000
8.291481e+002,2.410828e+000
8.301123e+002,2.111145e+000
8.310765e+002,1.311523e+000
8.320408e+002,9.552002e-002
8.330050e+002,-3.154297e-001
8.339692e+002,3.543243e-001
8.349335e+002,1.286591e+000
8.358977e+002,1.722137e+000
8.368619e+002,1.684448e+000
8.378262e+002,1.524979e+000
8.387904e+002,5.596313e-001
8.397546e+002,7.780457e-002
8.407189e+002,8.650360e-001
8.416831e+002,2.268661e+000
8.426473e+002,2.981003e+000
8.436116e+002,2.225388e+000
8.445758e+002,1.629318e+000
8.455400e+002,3.429153e+000
8.465043e+002,5.844879e+000
8.474685e+002,6.975403e+000
8.484327e+002,6.432129e+000
8.493970e+002,5.094116e+000
8.503612e+002,4.235580e+000
8.513254e+002,3.832275e+000
8.522897e+002,4.035950e+000
8.532539e+002,5.052505e+000
8.542181e+002,6.149231e+000
8.551824e+002,7.196152e+000
8.561466e+002,8.272278e+000
8.571108e+002,8.948349e+000
8.580751e+002,8.149063e+000
8.590393e+002,7.608032e+000
8.600035e+002,7.948898e+000
8.609678e+002,9.001984e+000
8.619320e+002,1.095079e+001
8.628962e+002,1.369232e+001
8.638605e+002,1.595099e+001
8.648247e+002,1.519768e+001
8.657889e+002,1.263179e+001
8.667532e+002,1.075012e+001
8.677174e+002,9.883514e+000
8.686816e+002,9.713501e+000
8.696459e+002,9.952621e+000
8.706101e+002,1.069762e+001
8.715743e+002,1.166098e+001
8.725386e+002,1.332031e+001
8.735028e+002,1.461107e+001
8.744670e+002,1.498280e+001
8.754313e+002,1.468596e+001
8.763955e+002,1.413911e+001
8.773597e+002,1.326273e+001
8.783240e+002,1.319485e+001
8.792882e+002,1.580493e+001
8.802524e+002,1.870901e+001
8.812167e+002,1.943510e+001
8.821809e+002,1.782021e+001
8.831451e+002,1.579764e+001
8.841094e+002,1.594255e+001
8.850736e+002,1.824770e+001
8.860378e+002,1.956847e+001
8.870021e+002,1.980486e+001
8.879663e+002,1.942004e+001
8.889305e+002,1.812350e+001
8.898948e+002,1.619278e+001
8.908590e+002,1.540047e+001
8.918232e+002,1.705026e+001
8.927875e+002,1.809618e+001
8.937517e+002,1.682835e+001
8.947159e+002,1.553305e+001
8.956802e+002,1.671684e+001
8.966444e+002,2.042464e+001
8.976086e+002,2.351796e+001
8.985729e+002,2.235689e+001
8.995371e+002,1.927171e+001
9.005013e+002,1.820108e+001
9.014656e+002,1.902696e+001
9.024298e+002,2.024727e+001
9.033940e+002,2.064194e+001
9.043583e+002,2.029210e+001
9.053225e+002,2.067493e+001
9.062867e+002,2.290724e+001
9.072510e+002,2.421365e+001
9.082152e+002,2.400682e+001
9.091794e+002,2.347675e+001
9.101437e+002,2.388139e+001
9.111079e+002,2.541493e+001
9.120721e+002,2.677882e+001
9.130364e+002,2.699635e+001
9.140006e+002,2.673820e+001
9.149648e+002,2.663274e+001
9.159291e+002,2.651587e+001
9.168933e+002,2.562857e+001
9.178575e+002,2.341391e+001
9.188218e+002,2.048103e+001
9.197860e+002,1.933740e+001
9.207502e+002,1.994418e+001
9.217145e+002,2.048094e+001
9.226787e+002,2.105450e+001
9.236429e+002,2.132025e+001
9.246072e+002,2.019836e+001
9.255714e+002,1.696193e+001
9.265356e+002,1.571736e+001
9.274999e+002,1.940732e+001
9.284641e+002,2.258951e+001
9.294283e+002,2.325920e+001
9.303926e+002,2.220207e+001
9.313568e+002,2.105984e+001
9.323210e+002,2.065343e+001
9.332853e+002,2.052380e+001
9.342495e+002,2.026599e+001
9.352137e+002,1.968053e+001
9.361780e+002,1.799367e+001
9.371422e+002,1.518950e+001
9.381064e+002,1.297687e+001
9.390707e+002,1.377748e+001
9.400349e+002,1.818797e+001
9.409991e+002,2.061412e+001
9.419634e+002,2.007600e+001
9.429276e+002,1.906235e+001
9.438918e+002,1.762135e+001
9.448561e+002,1.634686e+001
9.458203e+002,1.647481e+001
9.467845e+002,1.874443e+001
9.477488e+002,2.061214e+001
9.487130e+002,1.935829e+001
9.496772e+002,1.742693e+001
9.506415e+002,1.673058e+001
9.516057e+002,1.733667e+001
9.525699e+002,1.819928e+001
9.535342e+002,1.827515e+001
9.544984e+002,1.763792e+001
9.554626e+002,1.741920e+001
9.564269e+002,1.795953e+001
9.573911e+002,1.819875e+001
9.583553e+002,1.750580e+001
9.593196e+002,1.642140e+001
9.602838e+002,1.590898e+001
9.612480e+002,1.613454e+001
9.622123e+002,1.618787e+001
9.631765e+002,1.595772e+001
9.641407e+002,1.544606e+001
9.651050e+002,1.395947e+001
9.660692e+002,1.218616e+001
9.670334e+002,1.184651e+001
9.679977e+002,1.413664e+001
9.689619e+002,1.733182e+001
9.699261e+002,1.638873e+001
9.708904e+002,1.288397e+001
9.718546e+002,1.216682e+001
9.728188e+002,1.580768e+001
9.737831e+002,2.061615e+001
9.747473e+002,2.210741e+001
9.757115e+002,1.940312e+001
9.766758e+002,1.839738e+001
9.776400e+002,2.138838e+001
9.786042e+002,2.349438e+001
9.795685e+002,2.353360e+001
9.805327e+002,2.186711e+001
9.814969e+002,1.852225e+001
9.824612e+002,1.356432e+001
9.834254e+002,9.613037e+000
9.843896e+002,1.051837e+001
9.853539e+002,1.286359e+001
9.863181e+002,1.273825e+001
9.872823e+002,1.021043e+001
9.882466e+002,7.600082e+000
9.892108e+002,6.989975e+000
9.901750e+002,8.277283e+000
9.911393e+002,9.517044e+000
9.921035e+002,1.036911e+001
9.930677e+002,1.100938e+001
9.940320e+002,1.161198e+001
9.949962e+002,1.211937e+001
9.959604e+002,1.241470e+001
9.969247e+002,1.252621e+001
9.978889e+002,1.268806e+001
9.988531e+002,1.281105e+001
9.998174e+002,1.288951e+001
1.000782e+003,1.314148e+001
1.001746e+003,1.347575e+001
1.002710e+003,1.358798e+001
1.003674e+003,1.338504e+001
1.004639e+003,1.322397e+001
1.005603e+003,1.377397e+001
1.006567e+003,1.507996e+001
1.007531e+003,1.629422e+001
1.008495e+003,1.785413e+001
1.009460e+003,1.857259e+001
1.010424e+003,1.728862e+001
1.011388e+003,1.456203e+001
1.012352e+003,1.250398e+001
1.013317e+003,1.122414e+001
1.014281e+003,1.085173e+001
1.015245e+003,1.208752e+001
1.016209e+003,1.332358e+001
1.017174e+003,1.353445e+001
1.018138e+003,1.260825e+001
1.019102e+003,1.088620e+001
1.020066e+003,8.559067e+000
1.021031e+003,6.099533e+000
1.021995e+003,4.695602e+000
1.022959e+003,4.041489e+000
1.023923e+003,3.605835e+000
1.024887e+003,3.240646e+000
1.025852e+003,2.918365e+000
1.026816e+003,2.563553e+000
1.027780e+003,2.138596e+000
1.028744e+003,2.333710e+000
1.029709e+003,4.859161e+000
1.030673e+003,6.013336e+000
1.031637e+003,3.328629e+000
1.032601e+003,-9.157867e-001
1.033566e+003,-3.462341e+000
1.034530e+003,-3.148712e+000
1.035494e+003,-1.573303e+000
1.036458e+003,7.524109e-002
1.037422e+003,1.388489e+000
1.038387e+003,1.445435e+000
1.039351e+003,3.680267e-001
1.040315e+003,-4.334869e-001
1.041279e+003,2.460632e-001
1.042244e+003,1.991989e+000
1.043208e+003,2.431931e+000
1.044172e+003,8.441162e-002
1.045136e+003,-1.282806e+000
1.046101e+003,-8.878937e-001
1.047065e+003,-1.439667e-001
1.048029e+003,-1.602478e-001
1.048993e+003,-7.216644e-001
1.049958e+003,-4.925537e-001
1.050922e+003,1.618668e+000
1.051886e+003,3.682404e+000
1.052850e+003,3.587982e+000
1.053814e+003,2.315231e+000
1.054779e+003,4.841309e-001
1.055743e+003,-1.474716e+000
1.056707e+003,-2.184235e+000
1.057671e+003,2.346649e-001
1.058636e+003,5.787872e+000
1.059600e+003,7.739075e+000
1.060564e+003,3.131027e+000
1.061528e+003,-2.660675e-001
1.062493e+003,-9.705048e-001
1.063457e+003,-5.409241e-001
1.064421e+003,-5.224304e-001
1.065385e+003,-1.052353e+000
1.066349e+003,-1.448105e+000
1.067314e+003,-1.464645e+000
1.068278e+003,-1.067551e+000
1.069242e+003,1.339569e-001
1.070206e+003,1.659683e+000
1.071171e+003,2.583954e+000
1.072135e+003,2.543365e+000
1.073099e+003,2.205521e+000
1.074063e+003,2.825577e+000
1.075028e+003,4.592178e+000
1.075992e+003,5.484772e+000
1.076956e+003,5.158966e+000
1.077920e+003,4.541199e+000
1.078885e+003,3.907425e+000
1.079849e+003,3.388779e+000
1.080813e+003,3.271072e+000
1.081777e+003,3.748764e+000
1.082741e+003,3.879486e+000
1.083706e+003,2.485016e+000
1.084670e+003,9.653778e-001
1.085634e+003,-8.317566e-002
1.086598e+003,-6.080627e-001
1.087563e+003,-5.005035e-001
1.088527e+003,2.869415e-001
1.089491e+003,1.346115e+000
1.090455e+003,1.664093e+000
1.091420e+003,1.041763e+000
1.092384e+003,7.490540e-001
1.093348e+003,7.629700e-001
1.094312e+003,9.487915e-001
1.095276e+003,1.593460e+000
1.096241e+003,2.484085e+000
1.097205e+003,2.680038e+000
1.098169e+003,1.771225e+000
1.099133e+003,7.554626e-001
1.100098e+003,-5.283813e-001
1.101062e+003,-1.209534e+000
1.102026e+003,-2.093506e-002
1.102990e+003,2.196228e+000
1.103955e+003,3.342163e+000
1.104919e+003,2.146484e+000
1.105883e+003,-1.310120e-001
1.106847e+003,-6.709442e-001
1.107812e+003,5.595093e-001
1.108776e+003,1.358551e+000
1.109740e+003,1.776932e+000
1.110704e+003,1.474228e+000
1.111668e+003,-5.858612e-001
1.112633e+003,-3.584229e+000
1.113597e+003,-3.858139e+000
1.114561e+003,4.002686e-001
1.115525e+003,3.697556e+000
1.116490e+003,3.806076e+000
1.117454e+003,3.026505e+000
1.118418e+003,2.477386e+000
1.119382e+003,2.509369e+000
1.120347e+003,3.337494e+000
1.121311e+003,4.991165e+000
1.122275e+003,6.557281e+000
1.123239e+003,6.208008e+000
1.124203e+003,4.303299e+000
1.125168e+003,3.616653e+000
1.126132e+003,4.666534e+000
1.127096e+003,6.210724e+000
1.128060e+003,7.649963e+000
1.129025e+003,8.781998e+000
1.129989e+003,8.510269e+000
1.130953e+003,5.386383e+000
1.131917e+003,3.965271e+000
1.132882e+003,7.103867e+000
1.133846e+003,1.055318e+001
1.134810e+003,1.160095e+001
1.135774e+003,1.078452e+001
1.136739e+003,9.870651e+000
1.137703e+003,9.873260e+000
1.138667e+003,1.077592e+001
1.139631e+003,1.297762e+001
1.140595e+003,1.617375e+001
1.141560e+003,1.782590e+001
1.142524e+003,1.732158e+001
1.143488e+003,1.740570e+001
1.144452e+003,2.025563e+001
1.145417e+003,2.514282e+001
1.146381e+003,2.922408e+001
1.147345e+003,3.159239e+001
1.148309e+003,3.534802e+001
1.149274e+003,4.325214e+001
1.150238e+003,5.071049e+001
1.151202e+003,5.568806e+001
1.152166e+003,5.845563e+001
1.153130e+003,5.951790e+001
1.154095e+003,5.917717e+001
1.155059e+003,5.842468e+001
1.156023e+003,5.922025e+001
1.156987e+003,6.111641e+001
1.157952e+003,6.032996e+001
1.158916e+003,5.679382e+001
1.159880e+003,5.233293e+001
1.160844e+003,4.726801e+001
1.161809e+003,4.172592e+001
1.162773e+003,3.605373e+001
1.163737e+003,2.987529e+001
1.164701e+003,2.536409e+001
1.165666e+003,2.458823e+001
1.166630e+003,2.419827e+001
1.167594e+003,2.331555e+001
1.168558e+003,2.189352e+001
1.169522e+003,1.979597e+001
1.170487e+003,1.716707e+001
1.171451e+003,1.474405e+001
1.172415e+003,1.328145e+001
1.173379e+003,1.274263e+001
1.174344e+003,1.350644e+001
1.175308e+003,1.582303e+001
1.176272e+003,1.662793e+001
1.177236e+003,1.364041e+001
1.178201e+003,9.728592e+000
1.179165e+003,8.868256e+000
1.180129e+003,1.101985e+001
1.181093e+003,1.207497e+001
1.182057e+003,1.041081e+001
1.183022e+003,8.837021e+000
1.183986e+003,8.079987e+000
1.184950e+003,8.129074e+000
1.185914e+003,9.574326e+000
1.186879e+003,1.194708e+001
1.187843e+003,1.347015e+001
1.188807e+003,1.262006e+001
1.189771e+003,1.048672e+001
1.190736e+003,1.085852e+001
1.191700e+003,1.417610e+001
1.192664e+003,1.498206e+001
1.193628e+003,1.125507e+001
1.194593e+003,7.112061e+000
1.195557e+003,5.478287e+000
1.196521e+003,5.755295e+000
1.197485e+003,5.934570e+000
1.198449e+003,5.725769e+000
1.199414e+003,5.479553e+000
1.200378e+003,5.381058e+000
1.201342e+003,5.289749e+000
1.202306e+003,5.150909e+000
1.203271e+003,4.869873e+000
1.204235e+003,4.297897e+000
1.205199e+003,3.408051e+000
1.206163e+003,2.408310e+000
1.207128e+003,1.620438e+000
1.208092e+003,1.071716e+000
1.209056e+003,4.015503e-001
1.210020e+003,-5.401154e-001
1.210984e+003,-1.279068e+000
1.211949e+003,-1.451660e+000
1.212913e+003,-1.540161e+000
1.213877e+003,-2.171341e+000
1.214841e+003,-3.342377e+000
1.215806e+003,-4.491058e+000
1.216770e+003,-5.370758e+000
1.217734e+003,-6.291016e+000
1.218698e+003,-8.072327e+000
1.219663e+003,-9.776779e+000
1.220627e+003,-9.729065e+000
1.221591e+003,-8.048248e+000
1.222555e+003,-6.878082e+000
1.223520e+003,-8.241196e+000
1.224484e+003,-1.131522e+001
1.225448e+003,-1.233563e+001
1.226412e+003,-9.661011e+000
1.227376e+003,-8.666672e+000
1.228341e+003,-1.119557e+001
1.229305e+003,-1.335313e+001
1.230269e+003,-1.237714e+001
1.231233e+003,-9.723434e+000
1.232198e+003,-8.536636e+000
1.233162e+003,-9.628754e+000
1.234126e+003,-1.098888e+001
1.235090e+003,-1.132619e+001
1.236055e+003,-1.123965e+001
1.237019e+003,-1.149692e+001
1.237983e+003,-1.190425e+001
1.238947e+003,-1.170844e+001
1.239911e+003,-1.055507e+001
1.240876e+003,-9.073517e+000
1.241840e+003,-8.201721e+000
1.242804e+003,-7.934341e+000
1.243768e+003,-8.214188e+000
1.244733e+003,-1.005043e+001
1.245697e+003,-1.105603e+001
1.246661e+003,-1.080086e+001
1.247625e+003,-1.008905e+001
1.248590e+003,-9.144882e+000
1.249554e+003,-8.165405e+000
1.250518e+003,-7.622955e+000
1.251482e+003,-7.801956e+000
1.252447e+003,-8.388672e+000
1.253411e+003,-9.079071e+000
1.254375e+003,-9.713898e+000
1.255339e+003,-1.024480e+001
1.256303e+003,-1.057999e+001
1.257268e+003,-9.978455e+000
1.258232e+003,-7.740280e+000
1.259196e+003,-4.956680e+000
1.260160e+003,-3.865784e+000
1.261125e+003,-4.755798e+000
1.262089e+003,-4.982010e+000
1.263053e+003,-3.855988e+000
1.264017e+003,-2.754807e+000
1.264982e+003,-1.651093e+000
1.265946e+003,-8.881836e-001
1.266910e+003,-8.785706e-001
1.267874e+003,-1.523438e+000
1.268839e+003,-2.438507e+000
1.269803e+003,-3.373322e+000
1.270767e+003,-4.093811e+000
1.271731e+003,-4.017715e+000
1.272695e+003,-3.123459e+000
1.273660e+003,-2.513153e+000
1.274624e+003,-2.250717e+000
1.275588e+003,-2.632645e+000
1.276552e+003,-4.218460e+000
1.277517e+003,-6.206360e+000
1.278481e+003,-7.166870e+000
1.279445e+003,-7.001953e+000
1.280409e+003,-6.643646e+000
1.281374e+003,-6.160721e+000
1.282338e+003,-5.815323e+000
1.283302e+003,-5.695724e+000
1.284266e+003,-5.824448e+000
1.285230e+003,-6.390274e+000
1.286195e+003,-7.283966e+000
1.287159e+003,-8.012650e+000
1.288123e+003,-8.125000e+000
1.289087e+003,-7.748032e+000
1.290052e+003,-7.445023e+000
1.291016e+003,-7.186371e+000
1.291980e+003,-7.497681e+000
1.292944e+003,-9.110382e+000
1.293909e+003,-1.048137e+001
1.294873e+003,-1.071506e+001
1.295837e+003,-1.037581e+001
1.296801e+003,-1.025078e+001
1.297766e+003,-1.045258e+001
1.298730e+003,-1.076363e+001
1.299694e+003,-1.122861e+001
1.300658e+003,-1.162219e+001
1.301622e+003,-1.181526e+001
1.302587e+003,-1.165633e+001
1.303551e+003,-1.057039e+001
1.304515e+003,-8.574234e+000
1.305479e+003,-7.069550e+000
1.306444e+003,-7.375992e+000
1.307408e+003,-8.895721e+000
1.308372e+003,-9.432632e+000
1.309336e+003,-8.678436e+000
1.310301e+003,-7.898117e+000
1.311265e+003,-6.547302e+000
1.312229e+003,-5.814423e+000
1.313193e+003,-6.523041e+000
1.314157e+003,-7.763077e+000
1.315122e+003,-8.811935e+000
1.316086e+003,-9.424255e+000
1.317050e+003,-9.259705e+000
1.318014e+003,-7.955002e+000
1.318979e+003,-6.538757e+000
1.319943e+003,-7.222610e+000
1.320907e+003,-9.656906e+000
1.321871e+003,-1.087103e+001
1.322836e+003,-1.059085e+001
1.323800e+003,-1.016405e+001
1.324764e+003,-1.050372e+001
1.325728e+003,-1.099800e+001
1.326693e+003,-1.049046e+001
1.327657e+003,-8.986740e+000
1.328621e+003,-7.815628e+000
1.329585e+003,-7.215530e+000
1.330549e+003,-6.607819e+000
1.331514e+003,-5.755722e+000
1.332478e+003,-5.118423e+000
1.333442e+003,-5.054688e+000
1.334406e+003,-5.504242e+000
1.335371e+003,-6.169128e+000
1.336335e+003,-6.880783e+000
1.337299e+003,-7.947342e+000
1.338263e+003,-1.017043e+001
1.339228e+003,-1.395694e+001
1.340192e+003,-1.495677e+001
1.341156e+003,-1.076346e+001
1.342120e+003,-7.539490e+000
1.343084e+003,-6.938904e+000
1.344049e+003,-7.089096e+000
1.345013e+003,-6.283905e+000
1.345977e+003,-4.743103e+000
1.346941e+003,-3.639755e+000
1.347906e+003,-3.385040e+000
1.348870e+003,-3.946838e+000
1.349834e+003,-6.159332e+000
1.350798e+003,-8.544495e+000
1.351763e+003,-7.614090e+000
1.352727e+003,-4.040451e+000
1.353691e+003,-2.131088e+000
1.354655e+003,-3.717468e+000
1.355620e+003,-6.423492e+000
1.356584e+003,-7.609467e+000
1.357548e+003,-7.363953e+000
1.358512e+003,-6.608368e+000
1.359476e+003,-4.970062e+000
1.360441e+003,-4.232727e+000
1.361405e+003,-5.623413e+000
1.362369e+003,-7.042084e+000
1.363333e+003,-7.325775e+000
1.364298e+003,-7.048401e+000
1.365262e+003,-7.225128e+000
1.366226e+003,-8.003510e+000
1.367190e+003,-8.476547e+000
1.368155e+003,-7.803497e+000
1.369119e+003,-6.668167e+000
1.370083e+003,-7.320404e+000
1.371047e+003,-1.048981e+001
1.372011e+003,-1.204907e+001
1.372976e+003,-1.105360e+001
1.373940e+003,-1.000394e+001
1.374904e+003,-1.019920e+001
1.375868e+003,-1.050531e+001
1.376833e+003,-9.269547e+000
1.377797e+003,-6.606110e+000
1.378761e+003,-4.060257e+000
1.379725e+003,-2.012634e+000
1.380690e+003,-1.040604e+000
1.381654e+003,-2.702255e+000
1.382618e+003,-5.318115e+000
1.383582e+003,-6.566650e+000
1.384547e+003,-6.433914e+000
1.385511e+003,-6.104477e+000
1.386475e+003,-6.168900e+000
1.387439e+003,-6.471725e+000
1.388403e+003,-6.965942e+000
1.389368e+003,-7.658081e+000
1.390332e+003,-7.235703e+000
1.391296e+003,-4.473602e+000
1.392260e+003,-2.896317e+000
1.393225e+003,-4.749985e+000
1.394189e+003,-6.369308e+000
1.395153e+003,-4.819473e+000
1.396117e+003,-2.014984e+000
1.397082e+003,-1.365219e+000
1.398046e+003,-3.475586e+000
1.399010e+003,-5.912216e+000
1.399974e+003,-6.518982e+000
1.400938e+003,-5.793381e+000
1.401903e+003,-4.870056e+000
1.402867e+003,-3.249878e+000
1.403831e+003,-2.540710e+000
1.404795e+003,-4.117416e+000
1.405760e+003,-4.981979e+000
1.406724e+003,-3.444427e+000
1.407688e+003,-1.466797e+000
1.408652e+003,-1.332565e+000
1.409617e+003,-2.801590e+000
1.410581e+003,-4.078171e+000
1.411545e+003,-4.518814e+000
1.412509e+003,-4.302368e+000
1.413474e+003,-3.267975e+000
1.414438e+003,-2.053070e+000
1.415402e+003,-1.408936e+000
1.416366e+003,-1.268906e+000
1.417330e+003,-1.771667e+000
1.418295e+003,-3.221375e+000
1.419259e+003,-4.380585e+000
1.420223e+003,-3.347473e+000
1.421187e+003,-6.921082e-001
1.422152e+003,8.560181e-002
1.423116e+003,-1.889267e+000
1.424080e+003,-2.673065e+000
1.425044e+003,3.062134e-001
1.426009e+003,2.850571e+000
1.426973e+003,2.951630e+000
1.427937e+003,1.804291e+000
1.428901e+003,8.120575e-001
1.429865e+003,2.678070e-001
1.430830e+003,-4.210815e-001
1.431794e+003,-1.670074e+000
1.432758e+003,-2.671875e+000
1.433722e+003,-1.521362e+000
1.434687e+003,2.272827e+000
1.435651e+003,3.872330e+000
1.436615e+003,6.336823e-001
1.437579e+003,-1.556824e+000
1.438544e+003,-1.472260e+000
1.439508e+003,-8.359833e-001
1.440472e+003,-1.024170e+000
1.441436e+003,-1.306061e+000
1.442401e+003,3.666229e-001
1.443365e+003,4.129761e+000
1.444329e+003,6.753952e+000
1.445293e+003,5.768845e+000
1.446257e+003,2.662186e+000
1.447222e+003,-4.647369e-001
1.448186e+003,-3.428970e+000
1.449150e+003,-4.732376e+000
1.450114e+003,-3.949814e+000
1.451079e+003,-2.867645e+000
1.452043e+003,-2.269272e+000
1.453007e+003,-1.820770e+000
1.453971e+003,-1.066956e+000
1.454936e+003,-1.163177e-001
1.455900e+003,4.893951e-001
1.456864e+003,6.537476e-001
1.457828e+003,6.045380e-001
1.458792e+003,-1.693726e-003
1.459757e+003,-4.697418e-001
1.460721e+003,7.475281e-002
1.461685e+003,1.117920e+000
1.462649e+003,1.653030e+000
1.463614e+003,1.452332e+000
1.464578e+003,8.290100e-001
1.465542e+003,-1.153259e-001
1.466506e+003,-1.090286e+000
1.467471e+003,-9.684448e-001
1.468435e+003,6.802368e-001
1.469399e+003,1.887924e+000
1.470363e+003,2.421555e+000
1.471328e+003,2.381699e+000
1.472292e+003,1.041260e+000
1.473256e+003,-3.385315e-001
1.474220e+003,-6.060181e-001
1.475184e+003,-5.267334e-002
1.476149e+003,5.321350e-001
1.477113e+003,7.592163e-001
1.478077e+003,6.115875e-001
1.479041e+003,1.332245e-001
1.480006e+003,-3.935699e-001
1.480970e+003,-1.912994e-001
1.481934e+003,9.790192e-001
1.482898e+003,1.349289e+000
1.483863e+003,1.042023e-001
1.484827e+003,-7.510071e-001
1.485791e+003,-6.748657e-001
1.486755e+003,1.673889e-001
1.487719e+003,1.910965e+000
1.488684e+003,4.120316e+000
1.489648e+003,5.957718e+000
1.490612e+003,7.201447e+000
1.491576e+003,8.056747e+000
1.492541e+003,8.601654e+000
1.493505e+003,8.891693e+000
1.494469e+003,8.929596e+000
1.495433e+003,8.684036e+000
1.496398e+003,8.774460e+000
1.497362e+003,9.569824e+000
1.498326e+003,1.033882e+001
1.499290e+003,1.022737e+001
1.500255e+003,1.017555e+001
1.501219e+003,1.156747e+001
1.502183e+003,1.419064e+001
1.503147e+003,1.682683e+001
1.504111e+003,1.920650e+001
1.505076e+003,2.157719e+001
1.506040e+003,2.374689e+001
1.507004e+003,2.641469e+001
1.507968e+003,3.044136e+001
1.508933e+003,3.536078e+001
1.509897e+003,4.040695e+001
1.510861e+003,4.553067e+001
1.511825e+003,5.040231e+001
1.512790e+003,5.445789e+001
1.513754e+003,5.835185e+001
1.514718e+003,6.393544e+001
1.515682e+003,7.110089e+001
1.516646e+003,7.639735e+001
1.517611e+003,7.903078e+001
1.518575e+003,8.141977e+001
1.519539e+003,8.532614e+001
1.520503e+003,8.832689e+001
1.521468e+003,8.860147e+001
1.522432e+003,8.731430e+001
1.523396e+003,8.611000e+001
1.524360e+003,8.523291e+001
1.525325e+003,8.404221e+001
1.526289e+003,8.214745e+001
1.527253e+003,7.949681e+001
1.528217e+003,7.597556e+001
1.529182e+003,7.166628e+001
1.530146e+003,6.600758e+001
1.531110e+003,5.716736e+001
1.532074e+003,5.027025e+001
1.533039e+003,4.692516e+001
1.534003e+003,4.345976e+001
1.534967e+003,3.848642e+001
1.535931e+003,3.277682e+001
1.536896e+003,2.653435e+001
1.537860e+003,2.052774e+001
1.538824e+003,1.655481e+001
1.539788e+003,1.536679e+001
1.540752e+003,1.508646e+001
1.541717e+003,1.333647e+001
1.542681e+003,1.045259e+001
1.543645e+003,8.235107e+000
1.544609e+003,6.751221e+000
1.545573e+003,6.201096e+000
1.546538e+003,6.562531e+000
1.547502e+003,7.537842e+000
1.548466e+003,1.022073e+001
1.549430e+003,1.277879e+001
1.550395e+003,1.284117e+001
1.551359e+003,1.102087e+001
1.552323e+003,9.826553e+000
1.553287e+003,1.010028e+001
1.554252e+003,1.014281e+001
1.555216e+003,8.299744e+000
1.556180e+003,5.641296e+000
1.557144e+003,4.858673e+000
1.558109e+003,6.073822e+000
1.559073e+003,6.419189e+000
1.560037e+003,5.377258e+000
1.561001e+003,4.083847e+000
1.561966e+003,2.590790e+000
1.562930e+003,1.588913e+000
1.563894e+003,1.937927e+000
1.564858e+003,3.091446e+000
1.565823e+003,3.723984e+000
1.566787e+003,3.590073e+000
1.567751e+003,3.609924e+000
1.568715e+003,4.511978e+000
1.569679e+003,5.250717e+000
1.570644e+003,4.037003e+000
1.571608e+003,1.631302e+000
1.572572e+003,3.805084e-001
1.573536e+003,4.290314e-001
1.574500e+003,1.253708e+000
1.575465e+003,3.148926e+000
1.576429e+003,4.958099e+000
1.577393e+003,5.562943e+000
1.578357e+003,5.425217e+000
1.579322e+003,5.563858e+000
1.580286e+003,6.046082e+000
1.581250e+003,6.246002e+000
1.582214e+003,5.898575e+000
1.583179e+003,5.514679e+000
1.584143e+003,5.636139e+000
1.585107e+003,5.646683e+000
1.586071e+003,4.293503e+000
1.587036e+003,2.392166e+000
1.588000e+003,2.300293e+000
1.588964e+003,4.517227e+000
1.589928e+003,7.329987e+000
1.590893e+003,1.068340e+001
1.591857e+003,1.299767e+001
1.592821e+003,1.069136e+001
1.593785e+003,4.862930e+000
1.594750e+003,1.967194e+000
1.595714e+003,3.047028e+000
1.596678e+003,5.123169e+000
1.597642e+003,7.986694e+000
1.598606e+003,1.006055e+001
1.599571e+003,9.341843e+000
1.600535e+003,7.668762e+000
1.601499e+003,7.493835e+000
1.602463e+003,8.710800e+000
1.603427e+003,9.814850e+000
1.604392e+003,1.025079e+001
1.605356e+003,1.006485e+001
1.606320e+003,8.780945e+000
1.607284e+003,7.091080e+000
1.608249e+003,7.372192e+000
1.609213e+003,9.726791e+000
1.610177e+003,1.057478e+001
1.611141e+003,8.406769e+000
1.612106e+003,7.022308e+000
1.613070e+003,9.745758e+000
1.614034e+003,1.252264e+001
1.614998e+003,1.187720e+001
1.615963e+003,9.476532e+000
1.616927e+003,8.173553e+000
1.617891e+003,8.409363e+000
1.618855e+003,9.203735e+000
1.619820e+003,1.002449e+001
1.620784e+003,1.057115e+001
1.621748e+003,1.068410e+001
1.622712e+003,1.046846e+001
1.623677e+003,9.267914e+000
1.624641e+003,6.642059e+000
1.625605e+003,5.777740e+000
1.626569e+003,8.056625e+000
1.627533e+003,1.050072e+001
1.628498e+003,1.256889e+001
1.629462e+003,1.365773e+001
1.630426e+003,1.242497e+001
1.631390e+003,9.951004e+000
1.632354e+003,8.587265e+000
1.633319e+003,8.858688e+000
1.634283e+003,9.645142e+000
1.635247e+003,1.024651e+001
1.636211e+003,1.042201e+001
1.637176e+003,9.346939e+000
1.638140e+003,7.243301e+000
1.639104e+003,7.061478e+000
1.640068e+003,9.492294e+000
1.641033e+003,1.129741e+001
1.641997e+003,1.144337e+001
1.642961e+003,1.125076e+001
1.643925e+003,1.147238e+001
1.644890e+003,1.162247e+001
1.645854e+003,1.071196e+001
1.646818e+003,9.358444e+000
1.647782e+003,9.671219e+000
1.648747e+003,1.209030e+001
1.649711e+003,1.363097e+001
1.650675e+003,1.155423e+001
1.651639e+003,7.862610e+000
1.652604e+003,6.562653e+000
1.653568e+003,7.518890e+000
1.654532e+003,8.911484e+000
1.655496e+003,1.112196e+001
1.656460e+003,1.203360e+001
1.657425e+003,9.912231e+000
1.658389e+003,7.961014e+000
1.659353e+003,8.130081e+000
1.660317e+003,9.144653e+000
1.661281e+003,9.870316e+000
1.662246e+003,1.013510e+001
1.663210e+003,9.999588e+000
1.664174e+003,9.525726e+000
1.665138e+003,8.777115e+000
1.666103e+003,7.681458e+000
1.667067e+003,6.405426e+000
1.668031e+003,5.191299e+000
1.668995e+003,4.111053e+000
1.669960e+003,3.908203e+000
1.670924e+003,4.878235e+000
1.671888e+003,5.856567e+000
1.672852e+003,6.684586e+000
1.673817e+003,7.028641e+000
1.674781e+003,6.179520e+000
1.675745e+003,5.121841e+000
1.676709e+003,5.296875e+000
1.677674e+003,6.216522e+000
1.678638e+003,5.847321e+000
1.679602e+003,3.588455e+000
1.680566e+003,1.839050e+000
1.681531e+003,2.782822e+000
1.682495e+003,5.020798e+000
1.683459e+003,6.160904e+000
1.684423e+003,6.282562e+000
1.685387e+003,6.205612e+000
1.686352e+003,6.001007e+000
1.687316e+003,5.912506e+000
1.688280e+003,6.292496e+000
1.689244e+003,6.273636e+000
1.690208e+003,4.355545e+000
1.691173e+003,2.237137e+000
1.692137e+003,2.233719e+000
1.693101e+003,3.771088e+000
1.694065e+003,4.489349e+000
1.695030e+003,3.709396e+000
1.695994e+003,2.727234e+000
1.696958e+003,2.260483e+000
1.697922e+003,2.207703e+000
1.698887e+003,2.820557e+000
1.699851e+003,3.707245e+000
1.700815e+003,3.322601e+000
1.701779e+003,1.533203e+000
1.702744e+003,1.425018e-001
1.703708e+003,-2.614746e-001
1.704672e+003,2.505035e-001
1.705636e+003,2.111328e+000
1.706601e+003,4.092285e+000
1.707565e+003,4.607895e+000
1.708529e+003,3.948517e+000
1.709493e+003,2.366913e+000
1.710458e+003,-3.375397e-001
1.711422e+003,-1.929840e+000
1.712386e+003,-4.867706e-001
1.713350e+003,1.328995e+000
1.714314e+003,1.282013e+000
1.715279e+003,1.044312e-001
1.716243e+003,-1.361679e+000
1.717207e+003,-2.720306e+000
1.718171e+003,-2.724564e+000
1.719135e+003,-1.017441e+000
1.720100e+003,1.546371e+000
1.721064e+003,4.827194e+000
1.722028e+003,7.222778e+000
1.722992e+003,5.924408e+000
1.723957e+003,1.886932e+000
1.724921e+003,1.986694e-001
1.725885e+003,1.074509e+000
1.726849e+003,1.537079e+000
1.727814e+003,7.667389e-001
1.728778e+003,3.602600e-001
1.729742e+003,1.347504e+000
1.730706e+003,2.621979e+000
1.731671e+003,3.127548e+000
1.732635e+003,2.869705e+000
1.733599e+003,2.181381e+000
1.734563e+003,1.300079e+000
1.735528e+003,3.667603e-001
1.736492e+003,-5.901794e-001
1.737456e+003,-1.173523e+000
1.738420e+003,-8.196564e-001
1.739385e+003,1.089478e-002
1.740349e+003,-1.364136e-001
1.741313e+003,-1.469315e+000
1.742277e+003,-2.351593e+000
1.743241e+003,-2.454987e+000
1.744206e+003,-2.497498e+000
1.745170e+003,-2.706421e+000
1.746134e+003,-2.816177e+000
1.747098e+003,-2.875275e+000
1.748063e+003,-2.629486e+000
1.749027e+003,-1.331345e+000
1.749991e+003,4.630127e-001
1.750955e+003,1.150879e+000
1.751919e+003,3.130341e-001
1.752884e+003,-8.019257e-001
1.753848e+003,-1.167313e+000
1.754812e+003,-9.592438e-001
1.755776e+003,-2.929688e-001
1.756741e+003,8.616180e-001
1.757705e+003,3.557129e-001
1.758669e+003,-3.054062e+000
1.759633e+003,-4.683578e+000
1.760598e+003,-3.020157e+000
1.761562e+003,-1.147476e+000
1.762526e+003,1.242645e+000
1.763490e+003,2.475403e+000
1.764455e+003,1.526947e-001
1.765419e+003,-3.449783e+000
1.766383e+003,-4.819077e+000
1.767347e+003,-3.745346e+000
1.768312e+003,-2.042725e+000
1.769276e+003,-5.644073e-001
1.770240e+003,2.397156e-001
1.771204e+003,-2.592468e-001
1.772168e+003,-1.310974e+000
1.773133e+003,-1.430374e+000
1.774097e+003,-6.772156e-001
1.775061e+003,7.882080e-001
1.776025e+003,3.200882e+000
1.776990e+003,3.432724e+000
1.777954e+003,-5.742645e-001
1.778918e+003,-4.393524e+000
1.779882e+003,-4.767685e+000
1.780846e+003,-3.385406e+000
1.781811e+003,-1.982895e+000
1.782775e+003,-7.414551e-001
1.783739e+003,-5.899353e-001
1.784703e+003,-1.786819e+000
1.785668e+003,-2.126755e+000
1.786632e+003,1.848450e-001
1.787596e+003,2.195847e+000
1.788560e+003,1.138107e+000
1.789525e+003,-8.315277e-001
1.790489e+003,-6.663818e-001
1.791453e+003,1.111206e+000
1.792417e+003,2.626221e+000
1.793382e+003,3.379791e+000
1.794346e+003,3.210358e+000
1.795310e+003,1.990280e+000
1.796274e+003,-6.718445e-002
1.797239e+003,-3.011658e+000
1.798203e+003,-5.828156e+000
1.799167e+003,-5.332870e+000
1.800131e+003,-9.077148e-001
1.801095e+003,1.300751e+000
1.802060e+003,-2.836456e-001
1.803024e+003,-9.743195e-001
1.803988e+003,2.245636e-001
1.804952e+003,1.585541e+000
1.805917e+003,2.521591e+000
1.806881e+003,3.025665e+000
1.807845e+003,3.136551e+000
1.808809e+003,2.937057e+000
1.809773e+003,2.326523e+000
1.810738e+003,1.453049e+000
1.811702e+003,1.059158e+000
1.812666e+003,1.576736e+000
1.813630e+003,2.171326e+000
1.814595e+003,1.687378e+000
1.815559e+003,3.619843e-001
1.816523e+003,-8.209839e-001
1.817487e+003,-1.873383e+000
1.818452e+003,-2.310150e+000
1.819416e+003,-1.927780e+000
1.820380e+003,-1.143890e+000
1.821344e+003,5.011139e-001
1.822309e+003,1.506805e+000
1.823273e+003,3.045654e-001
1.824237e+003,-1.251923e+000
1.825201e+003,-8.737030e-001
1.826166e+003,5.659180e-001
1.827130e+003,2.127991e-001
1.828094e+003,-2.372177e+000
1.829058e+003,-3.756973e+000
1.830022e+003,-1.707596e+000
1.830987e+003,8.600006e-001
1.831951e+003,1.721970e+000
1.832915e+003,1.505417e+000
1.833879e+003,7.593079e-001
1.834844e+003,-2.222137e-001
1.835808e+003,-7.746124e-001
1.836772e+003,-7.706604e-001
1.837736e+003,-2.449799e-001
1.838700e+003,7.674103e-001
1.839665e+003,1.676178e+000
1.840629e+003,2.017151e+000
1.841593e+003,1.852829e+000
1.842557e+003,1.179382e+000
1.843522e+003,1.281738e-003
1.844486e+003,-1.012253e+000
1.845450e+003,-2.075821e+000
1.846414e+003,-2.274017e+000
1.847379e+003,-8.717651e-001
1.848343e+003,6.008911e-002
1.849307e+003,-3.594208e-001
1.850271e+003,-1.050262e+000
1.851236e+003,-1.497147e+000
1.852200e+003,-1.449570e+000
1.853164e+003,-3.015289e-001
1.854128e+003,1.339310e+000
1.855093e+003,1.637268e+000
1.856057e+003,1.663971e-001
1.857021e+003,-1.008209e+000
1.857985e+003,-1.290741e-001
1.858949e+003,1.522461e+000
1.859914e+003,1.677689e+000
1.860878e+003,6.656647e-001
1.861842e+003,2.934265e-001
1.862806e+003,5.608978e-001
1.863771e+003,3.207855e-001
1.864735e+003,-8.360901e-001
1.865699e+003,-1.677429e+000
1.866663e+003,-1.507492e+000
1.867627e+003,-1.000443e+000
1.868592e+003,-8.013763e-001
1.869556e+003,-8.027802e-001
1.870520e+003,-6.789246e-001
1.871484e+003,-4.379425e-001
1.872449e+003,3.941345e-002
1.873413e+003,1.234299e+000
1.874377e+003,1.954208e+000
1.875341e+003,1.041473e+000
1.876306e+003,1.557465e-001
1.877270e+003,1.732025e-001
1.878234e+003,5.832520e-001
1.879198e+003,1.095932e+000
1.880163e+003,1.558151e+000
1.881127e+003,1.835663e+000
1.882091e+003,1.894394e+000
1.883055e+003,1.516388e+000
1.884020e+003,7.099152e-001
1.884984e+003,4.709778e-001
1.885948e+003,1.775757e+000
1.886912e+003,3.316742e+000
1.887876e+003,2.194534e+000
1.888841e+003,-1.231812e+000
1.889805e+003,-2.368866e+000
1.890769e+003,-6.462708e-001
1.891733e+003,1.673584e-001
1.892698e+003,-1.061493e+000
1.893662e+003,-1.408295e+000
1.894626e+003,1.389847e+000
1.895590e+003,3.735626e+000
1.896554e+003,2.366211e+000
1.897519e+003,-1.445160e-001
1.898483e+003,-7.994232e-001
1.899447e+003,-4.583740e-002
1.900411e+003,3.966217e-001
1.901376e+003,2.631989e-001
1.902340e+003,3.048401e-001
1.903304e+003,1.138489e+000
1.904268e+003,1.649734e+000
1.905233e+003,5.660095e-001
1.906197e+003,-5.351257e-001
1.907161e+003,6.485596e-001
1.908125e+003,2.710983e+000
1.909090e+003,2.653900e+000
1.910054e+003,6.379852e-001
1.911018e+003,-1.120880e+000
1.911982e+003,-1.738007e+000
1.912947e+003,-1.444138e+000
1.913911e+003,-4.370728e-001
1.914875e+003,9.237366e-001
1.915839e+003,2.083191e+000
1.916803e+003,2.943817e+000
1.917768e+003,3.361572e+000
1.918732e+003,3.365128e+000
1.919696e+003,3.144745e+000
1.920660e+003,2.604340e+000
1.921625e+003,2.308151e+000
1.922589e+003,2.510544e+000
1.923553e+003,2.627228e+000
1.924517e+003,2.214844e+000
1.925481e+003,1.733688e+000
1.926446e+003,1.313232e+000
1.927410e+003,1.228882e+000
1.928374e+003,2.392181e+000
1.929338e+003,4.603043e+000
1.930303e+003,5.436005e+000
1.931267e+003,3.774765e+000
1.932231e+003,2.834030e+000
1.933195e+003,5.105682e+000
1.934160e+003,7.146637e+000
1.935124e+003,6.037491e+000
1.936088e+003,3.563187e+000
1.937052e+003,1.547592e+000
1.938017e+003,3.451691e-001
1.938981e+003,4.541168e-001
1.939945e+003,1.499710e+000
1.940909e+003,1.681778e+000
1.941874e+003,3.047180e-001
1.942838e+003,-6.983185e-001
1.943802e+003,6.025696e-001
1.944766e+003,3.096481e+000
1.945730e+003,4.474594e+000
1.946695e+003,4.733292e+000
1.947659e+003,4.186371e+000
1.948623e+003,2.696640e+000
1.949587e+003,1.630356e+000
1.950552e+003,1.126907e+000
1.951516e+003,1.334442e+000
1.952480e+003,2.638733e+000
1.953444e+003,3.953583e+000
1.954408e+003,4.641022e+000
1.955373e+003,4.690536e+000
1.956337e+003,3.918564e+000
1.957301e+003,2.694885e+000
1.958265e+003,1.961746e+000
1.959230e+003,1.785660e+000
1.960194e+003,1.840820e+000
1.961158e+003,1.919861e+000
1.962122e+003,2.161880e+000
1.963087e+003,2.942719e+000
1.964051e+003,3.531586e+000
1.965015e+003,3.246033e+000
1.965979e+003,2.973267e+000
1.966944e+003,3.906174e+000
1.967908e+003,5.238403e+000
1.968872e+003,5.296219e+000
1.969836e+003,4.145401e+000
1.970801e+003,3.335159e+000
1.971765e+003,3.509781e+000
1.972729e+003,3.723618e+000
1.973693e+003,3.059982e+000
1.974657e+003,2.311722e+000
1.975622e+003,2.850311e+000
1.976586e+003,4.110352e+000
1.977550e+003,4.657394e+000
1.978514e+003,4.594971e+000
1.979479e+003,4.473358e+000
1.980443e+003,4.373901e+000
1.981407e+003,4.468948e+000
1.982371e+003,4.863724e+000
1.983335e+003,5.464996e+000
1.984300e+003,6.199463e+000
1.985264e+003,6.790192e+000
1.986228e+003,6.882233e+000
1.987192e+003,6.495728e+000
1.988157e+003,5.697296e+000
1.989121e+003,4.344604e+000
1.990085e+003,3.523071e+000
1.991049e+003,3.370178e+000
1.992014e+003,3.586563e+000
1.992978e+003,4.681686e+000
1.993942e+003,5.289658e+000
1.994906e+003,4.635330e+000
1.995871e+003,3.666473e+000
1.996835e+003,2.587051e+000
1.997799e+003,1.984924e+000
1.998763e+003,2.899399e+000
1.999728e+003,4.975922e+000
