5.003444e+002,7.903802e+001
5.013087e+002,8.136713e+001
5.022729e+002,8.143106e+001
5.032371e+002,7.990485e+001
5.042014e+002,7.907788e+001
5.051656e+002,7.887106e+001
5.061298e+002,7.880605e+001
5.070941e+002,7.839888e+001
5.080583e+002,7.743489e+001
5.090225e+002,7.710088e+001
5.099868e+002,7.802605e+001
5.109510e+002,7.872317e+001
5.119152e+002,7.823658e+001
5.128795e+002,7.644894e+001
5.138437e+002,7.501313e+001
5.148079e+002,7.519296e+001
5.157722e+002,7.525280e+001
5.167364e+002,7.428660e+001
5.177006e+002,7.226713e+001
5.186649e+002,6.995142e+001
5.196291e+002,6.791820e+001
5.205933e+002,6.660980e+001
5.215576e+002,6.682051e+001
5.225218e+002,6.833684e+001
5.234860e+002,7.010213e+001
5.244503e+002,7.030374e+001
5.254145e+002,6.844319e+001
5.263787e+002,6.721245e+001
5.273430e+002,6.675504e+001
5.283072e+002,6.681613e+001
5.292714e+002,6.704128e+001
5.302357e+002,6.731850e+001
5.311999e+002,6.775184e+001
5.321641e+002,6.915778e+001
5.331284e+002,7.036034e+001
5.340926e+002,7.016463e+001
5.350568e+002,6.799401e+001
5.360211e+002,6.553565e+001
5.369853e+002,6.446098e+001
5.379495e+002,6.399049e+001
5.389138e+002,6.353040e+001
5.398780e+002,6.281250e+001
5.408422e+002,6.198477e+001
5.418065e+002,6.157401e+001
5.427707e+002,6.149907e+001
5.437349e+002,6.109508e+001
5.446992e+002,6.005772e+001
5.456634e+002,5.863008e+001
5.466276e+002,5.769574e+001
5.475919e+002,5.757782e+001
5.485561e+002,5.775487e+001
5.495203e+002,5.851077e+001
5.504846e+002,5.937191e+001
5.514488e+002,5.967687e+001
5.524130e+002,5.907066e+001
5.533773e+002,5.827474e+001
5.543415e+002,5.729688e+001
5.553057e+002,5.654420e+001
5.562700e+002,5.668821e+001
5.572342e+002,5.810709e+001
5.581984e+002,5.981683e+001
5.591627e+002,5.944739e+001
5.601269e+002,5.768910e+001
5.610911e+002,5.534093e+001
5.620554e+002,5.267619e+001
5.630196e+002,4.987585e+001
5.639838e+002,4.899986e+001
5.649481e+002,5.186790e+001
5.659123e+002,5.400658e+001
5.668765e+002,5.457059e+001
5.678408e+002,5.400677e+001
5.688050e+002,5.342169e+001
5.697692e+002,5.291945e+001
5.707335e+002,5.232102e+001
5.716977e+002,5.155923e+001
5.726619e+002,5.075321e+001
5.736262e+002,5.009335e+001
5.745904e+002,4.975761e+001
5.755546e+002,4.949265e+001
5.765189e+002,4.855145e+001
5.774831e+002,4.729176e+001
5.784473e+002,4.658700e+001
5.794116e+002,4.706273e+001
5.803758e+002,4.859906e+001
5.813400e+002,4.882109e+001
5.823043e+002,4.710172e+001
5.832685e+002,4.578384e+001
5.842327e+002,4.614371e+001
5.851970e+002,4.789670e+001
5.861612e+002,4.880029e+001
5.871254e+002,4.714217e+001
5.880897e+002,4.605345e+001
5.890539e+002,4.636285e+001
5.900181e+002,4.754610e+001
5.909824e+002,4.876871e+001
5.919466e+002,4.971677e+001
5.929108e+002,5.011243e+001
5.938751e+002,4.966044e+001
5.948393e+002,4.867480e+001
5.958035e+002,4.761784e+001
5.967678e+002,4.683782e+001
5.977320e+002,4.632801e+001
5.986962e+002,4.571325e+001
5.996605e+002,4.488062e+001
6.006247e+002,4.413579e+001
6.015889e+002,4.354558e+001
6.025532e+002,4.313686e+001
6.035174e+002,4.311566e+001
6.044816e+002,4.398625e+001
6.054459e+002,4.476524e+001
6.064101e+002,4.539940e+001
6.073743e+002,4.582507e+001
6.083386e+002,4.595781e+001
6.093028e+002,4.568587e+001
6.102670e+002,4.526369e+001
6.112313e+002,4.473028e+001
6.121955e+002,4.423785e+001
6.131597e+002,4.407204e+001
6.141240e+002,4.440990e+001
6.150882e+002,4.500574e+001
6.160524e+002,4.477480e+001
6.170167e+002,4.390966e+001
6.179809e+002,4.292272e+001
6.189451e+002,4.196406e+001
6.199094e+002,4.099760e+001
6.208736e+002,4.005037e+001
6.218378e+002,3.901535e+001
6.228021e+002,3.832088e+001
6.237663e+002,3.799699e+001
6.247305e+002,3.806590e+001
6.256948e+002,3.865382e+001
6.266590e+002,4.010471e+001
6.276232e+002,4.118607e+001
6.285875e+002,4.088361e+001
6.295517e+002,4.016586e+001
6.305159e+002,4.009261e+001
6.314802e+002,4.119222e+001
6.324444e+002,4.286086e+001
6.334086e+002,4.376495e+001
6.343729e+002,4.408187e+001
6.353371e+002,4.356020e+001
6.363013e+002,4.187933e+001
6.372656e+002,3.953672e+001
6.382298e+002,3.840690e+001
6.391940e+002,4.012862e+001
6.401583e+002,4.090402e+001
6.411225e+002,3.999467e+001
6.420867e+002,3.863615e+001
6.430510e+002,3.848528e+001
6.440152e+002,4.045145e+001
6.449794e+002,4.162289e+001
6.459437e+002,3.976288e+001
6.469079e+002,3.718800e+001
6.478721e+002,3.570459e+001
6.488364e+002,3.594315e+001
6.498006e+002,3.704774e+001
6.507648e+002,3.780203e+001
6.517291e+002,3.810218e+001
6.526933e+002,3.748281e+001
6.536575e+002,3.578480e+001
6.546218e+002,3.373252e+001
6.555860e+002,3.274215e+001
6.565502e+002,3.352253e+001
6.575145e+002,3.392078e+001
6.584787e+002,3.306487e+001
6.594429e+002,3.256033e+001
6.604072e+002,3.421240e+001
6.613714e+002,3.858846e+001
6.623356e+002,4.186635e+001
6.632999e+002,4.111481e+001
6.642641e+002,3.968373e+001
6.652283e+002,3.968803e+001
6.661926e+002,4.100584e+001
6.671568e+002,4.168521e+001
6.681210e+002,3.887569e+001
6.690853e+002,3.407793e+001
6.700495e+002,3.151006e+001
6.710137e+002,3.118327e+001
6.719780e+002,3.177663e+001
6.729422e+002,3.186138e+001
6.739064e+002,3.118909e+001
6.748707e+002,3.140199e+001
6.758349e+002,3.350472e+001
6.767991e+002,3.505752e+001
6.777634e+002,3.464925e+001
6.787276e+002,3.263584e+001
6.796918e+002,3.138593e+001
6.806561e+002,3.244424e+001
6.816203e+002,3.357388e+001
6.825845e+002,3.404907e+001
6.835488e+002,3.397063e+001
6.845130e+002,3.350140e+001
6.854772e+002,3.269171e+001
6.864415e+002,3.206398e+001
6.874057e+002,3.280756e+001
6.883699e+002,3.442892e+001
6.893342e+002,3.606978e+001
6.902984e+002,3.733948e+001
6.912626e+002,3.815175e+001
6.922269e+002,3.775335e+001
6.931911e+002,3.485181e+001
6.941553e+002,3.270513e+001
6.951196e+002,3.152634e+001
6.960838e+002,3.110351e+001
6.970480e+002,3.132775e+001
6.980123e+002,3.263494e+001
6.989765e+002,3.351328e+001
6.999407e+002,3.256165e+001
7.009050e+002,3.152406e+001
7.018692e+002,3.227528e+001
7.028334e+002,3.516441e+001
7.037977e+002,3.821082e+001
7.047619e+002,3.793843e+001
7.057261e+002,3.565047e+001
7.066904e+002,3.358374e+001
7.076546e+002,3.209435e+001
7.086188e+002,3.146074e+001
7.095831e+002,3.229094e+001
7.105473e+002,3.553545e+001
7.115115e+002,3.696399e+001
7.124758e+002,3.565340e+001
7.134400e+002,3.381924e+001
7.144042e+002,3.261744e+001
7.153685e+002,3.215780e+001
7.163327e+002,3.214896e+001
7.172969e+002,3.311138e+001
7.182612e+002,3.393792e+001
7.192254e+002,3.406852e+001
7.201896e+002,3.365719e+001
7.211539e+002,3.307742e+001
7.221181e+002,3.260847e+001
7.230823e+002,3.233638e+001
7.240466e+002,3.260289e+001
7.250108e+002,3.331352e+001
7.259750e+002,3.383476e+001
7.269393e+002,3.372647e+001
7.279035e+002,3.297267e+001
7.288677e+002,3.209232e+001
7.298320e+002,3.088976e+001
7.307962e+002,3.012444e+001
7.317604e+002,2.979978e+001
7.327247e+002,2.997710e+001
7.336889e+002,3.094247e+001
7.346531e+002,3.308674e+001
7.356174e+002,3.441785e+001
7.365816e+002,3.378414e+001
7.375458e+002,3.238108e+001
7.385101e+002,3.068292e+001
7.394743e+002,2.906238e+001
7.404385e+002,2.800445e+001
7.414028e+002,2.842979e+001
7.423670e+002,2.991796e+001
7.433312e+002,3.092002e+001
7.442955e+002,3.141785e+001
7.452597e+002,3.186530e+001
7.462239e+002,3.275346e+001
7.471882e+002,3.417560e+001
7.481524e+002,3.548051e+001
7.491166e+002,3.760628e+001
7.500809e+002,3.841420e+001
7.510451e+002,3.622247e+001
7.520093e+002,3.188480e+001
7.529736e+002,2.832956e+001
7.539378e+002,2.688519e+001
7.549020e+002,2.699329e+001
7.558663e+002,2.906586e+001
7.568306e+002,3.186216e+001
7.577948e+002,3.365533e+001
7.587590e+002,3.342088e+001
7.597233e+002,3.185374e+001
7.606875e+002,3.103931e+001
7.616517e+002,3.095102e+001
7.626160e+002,3.124232e+001
7.635802e+002,3.203249e+001
7.645444e+002,3.299658e+001
7.655087e+002,3.343134e+001
7.664729e+002,3.315845e+001
7.674371e+002,3.260588e+001
7.684014e+002,3.137478e+001
7.693656e+002,3.029724e+001
7.703298e+002,2.986310e+001
7.712941e+002,3.015441e+001
7.722583e+002,3.099326e+001
7.732225e+002,3.281922e+001
7.741868e+002,3.460589e+001
7.751510e+002,3.547935e+001
7.761152e+002,3.561111e+001
7.770795e+002,3.564016e+001
7.780437e+002,3.612620e+001
7.790079e+002,3.686668e+001
7.799722e+002,3.583952e+001
7.809364e+002,3.286752e+001
7.819006e+002,3.041608e+001
7.828649e+002,2.963197e+001
7.838291e+002,3.015575e+001
7.847933e+002,3.072166e+001
7.857576e+002,3.147593e+001
7.867218e+002,3.167049e+001
7.876860e+002,3.041060e+001
7.886503e+002,2.929274e+001
7.896145e+002,2.997301e+001
7.905787e+002,3.274641e+001
7.915430e+002,3.572551e+001
7.925072e+002,3.693185e+001
7.934714e+002,3.698246e+001
7.944357e+002,3.644553e+001
7.953999e+002,3.550021e+001
7.963641e+002,3.417690e+001
7.973284e+002,3.240935e+001
7.982926e+002,3.010639e+001
7.992568e+002,2.956794e+001
8.002211e+002,3.147550e+001
8.011853e+002,3.312229e+001
8.021495e+002,3.361522e+001
8.031138e+002,3.326961e+001
8.040780e+002,3.285130e+001
8.050422e+002,3.215041e+001
8.060065e+002,3.175995e+001
8.069707e+002,3.176575e+001
8.079349e+002,3.208491e+001
8.088992e+002,3.276402e+001
8.098634e+002,3.380363e+001
8.108276e+002,3.500613e+001
8.117919e+002,3.624899e+001
8.127561e+002,3.715771e+001
8.137203e+002,3.711335e+001
8.146846e+002,3.614005e+001
8.156488e+002,3.481724e+001
8.166130e+002,3.376130e+001
8.175773e+002,3.293848e+001
8.185415e+002,3.246306e+001
8.195057e+002,3.239221e+001
8.204700e+002,3.238002e+001
8.214342e+002,3.226819e+001
8.223984e+002,3.213449e+001
8.233627e+002,3.225871e+001
8.243269e+002,3.299893e+001
8.252911e+002,3.351987e+001
8.262554e+002,3.329007e+001
8.272196e+002,3.267954e+001
8.281838e+002,3.188739e+001
8.291481e+002,3.108574e+001
8.301123e+002,3.058363e+001
8.310765e+002,3.115819e+001
8.320408e+002,3.258674e+001
8.330050e+002,3.261250e+001
8.339692e+002,3.080347e+001
8.349335e+002,2.862974e+001
8.358977e+002,2.753706e+001
8.368619e+002,2.764274e+001
8.378262e+002,2.826263e+001
8.387904e+002,2.985631e+001
8.397546e+002,3.128221e+001
8.407189e+002,3.251825e+001
8.416831e+002,3.334972e+001
8.426473e+002,3.331209e+001
8.436116e+002,3.200529e+001
8.445758e+002,3.066877e+001
8.455400e+002,3.063349e+001
8.465043e+002,3.114687e+001
8.474685e+002,3.151555e+001
8.484327e+002,3.159232e+001
8.493970e+002,3.166229e+001
8.503612e+002,3.212424e+001
8.513254e+002,3.304370e+001
8.522897e+002,3.363562e+001
8.532539e+002,3.400706e+001
8.542181e+002,3.389314e+001
8.551824e+002,3.274678e+001
8.561466e+002,3.086224e+001
8.571108e+002,3.017253e+001
8.580751e+002,3.191348e+001
8.590393e+002,3.348382e+001
8.600035e+002,3.369868e+001
8.609678e+002,3.360232e+001
8.619320e+002,3.475173e+001
8.628962e+002,3.762918e+001
8.638605e+002,4.050764e+001
8.648247e+002,4.025296e+001
8.657889e+002,3.815466e+001
8.667532e+002,3.680293e+001
8.677174e+002,3.654126e+001
8.686816e+002,3.732735e+001
8.696459e+002,3.948633e+001
8.706101e+002,4.355342e+001
8.715743e+002,4.503790e+001
8.725386e+002,4.147865e+001
8.735028e+002,3.874452e+001
8.744670e+002,3.866595e+001
8.754313e+002,4.020188e+001
8.763955e+002,4.128535e+001
8.773597e+002,4.112627e+001
8.783240e+002,4.108921e+001
8.792882e+002,4.277366e+001
8.802524e+002,4.457163e+001
8.812167e+002,4.476122e+001
8.821809e+002,4.325626e+001
8.831451e+002,4.141924e+001
8.841094e+002,4.102077e+001
8.850736e+002,4.211618e+001
8.860378e+002,4.350154e+001
8.870021e+002,4.537756e+001
8.879663e+002,4.672108e+001
8.889305e+002,4.645135e+001
8.898948e+002,4.498477e+001
8.908590e+002,4.469534e+001
8.918232e+002,4.691264e+001
8.927875e+002,4.849393e+001
8.937517e+002,4.794006e+001
8.947159e+002,4.716161e+001
8.956802e+002,4.820095e+001
8.966444e+002,5.114283e+001
8.976086e+002,5.358178e+001
8.985729e+002,5.270579e+001
8.995371e+002,5.028898e+001
9.005013e+002,4.935755e+001
9.014656e+002,4.982037e+001
9.024298e+002,5.060099e+001
9.033940e+002,5.086945e+001
9.043583e+002,5.062242e+001
9.053225e+002,5.032834e+001
9.062867e+002,4.977664e+001
9.072510e+002,4.935767e+001
9.082152e+002,4.925354e+001
9.091794e+002,4.934554e+001
9.101437e+002,4.941727e+001
9.111079e+002,4.942279e+001
9.120721e+002,4.976747e+001
9.130364e+002,5.109314e+001
9.140006e+002,5.235725e+001
9.149648e+002,5.321748e+001
9.159291e+002,5.360355e+001
9.168933e+002,5.328158e+001
9.178575e+002,5.207819e+001
9.188218e+002,5.038430e+001
9.197860e+002,4.979389e+001
9.207502e+002,5.028684e+001
9.217145e+002,5.065716e+001
9.226787e+002,5.073603e+001
9.236429e+002,5.073787e+001
9.246072e+002,5.108502e+001
9.255714e+002,5.199454e+001
9.265356e+002,5.175023e+001
9.274999e+002,4.843155e+001
9.284641e+002,4.564636e+001
9.294283e+002,4.493419e+001
9.303926e+002,4.564445e+001
9.313568e+002,4.652913e+001
9.323210e+002,4.697925e+001
9.332853e+002,4.697342e+001
9.342495e+002,4.599422e+001
9.352137e+002,4.461672e+001
9.361780e+002,4.403893e+001
9.371422e+002,4.454450e+001
9.381064e+002,4.503381e+001
9.390707e+002,4.379324e+001
9.400349e+002,4.024360e+001
9.409991e+002,3.839811e+001
9.419634e+002,3.925263e+001
9.429276e+002,4.023238e+001
9.438918e+002,4.113461e+001
9.448561e+002,4.162608e+001
9.458203e+002,4.100691e+001
9.467845e+002,3.886154e+001
9.477488e+002,3.684023e+001
9.487130e+002,3.586086e+001
9.496772e+002,3.570543e+001
9.506415e+002,3.661842e+001
9.516057e+002,3.834230e+001
9.525699e+002,4.029779e+001
9.535342e+002,4.195676e+001
9.544984e+002,4.312985e+001
9.554626e+002,4.194276e+001
9.564269e+002,3.791923e+001
9.573911e+002,3.483686e+001
9.583553e+002,3.395966e+001
9.593196e+002,3.444248e+001
9.602838e+002,3.520773e+001
9.612480e+002,3.646658e+001
9.622123e+002,3.677775e+001
9.631765e+002,3.451573e+001
9.641407e+002,3.249052e+001
9.651050e+002,3.192744e+001
9.660692e+002,3.263555e+001
9.670334e+002,3.419231e+001
9.679977e+002,3.641896e+001
9.689619e+002,3.857391e+001
9.699261e+002,3.810065e+001
9.708904e+002,3.597911e+001
9.718546e+002,3.532213e+001
9.728188e+002,3.691286e+001
9.737831e+002,3.958646e+001
9.747473e+002,4.217545e+001
9.757115e+002,4.496523e+001
9.766758e+002,4.616317e+001
9.776400e+002,4.453310e+001
9.786042e+002,4.293858e+001
9.795685e+002,4.195954e+001
9.805327e+002,4.133125e+001
9.814969e+002,4.068119e+001
9.824612e+002,3.993543e+001
9.834254e+002,3.930172e+001
9.843896e+002,3.967436e+001
9.853539e+002,3.963983e+001
9.863181e+002,3.688194e+001
9.872823e+002,3.186452e+001
9.882466e+002,2.731696e+001
9.892108e+002,2.563657e+001
9.901750e+002,2.654131e+001
9.911393e+002,2.739240e+001
9.921035e+002,2.832500e+001
9.930677e+002,2.853992e+001
9.940320e+002,2.783459e+001
9.949962e+002,2.666466e+001
9.959604e+002,2.492672e+001
9.969247e+002,2.275695e+001
9.978889e+002,2.210285e+001
9.988531e+002,2.539283e+001
9.998174e+002,2.839645e+001
1.000782e+003,2.826648e+001
1.001746e+003,2.640147e+001
1.002710e+003,2.484580e+001
1.003674e+003,2.452172e+001
1.004639e+003,2.487799e+001
1.005603e+003,2.501248e+001
1.006567e+003,2.486964e+001
1.007531e+003,2.409168e+001
1.008495e+003,2.236941e+001
1.009460e+003,2.068093e+001
1.010424e+003,1.934652e+001
1.011388e+003,1.850060e+001
1.012352e+003,1.880855e+001
1.013317e+003,2.106098e+001
1.014281e+003,2.296846e+001
1.015245e+003,2.386116e+001
1.016209e+003,2.415341e+001
1.017174e+003,2.393644e+001
1.018138e+003,2.342451e+001
1.019102e+003,2.313599e+001
1.020066e+003,2.361506e+001
1.021031e+003,2.428606e+001
1.021995e+003,2.273566e+001
1.022959e+003,1.945985e+001
1.023923e+003,1.758900e+001
1.024887e+003,1.852261e+001
1.025852e+003,2.062787e+001
1.026816e+003,2.135288e+001
1.027780e+003,2.047924e+001
1.028744e+003,1.947435e+001
1.029709e+003,1.796928e+001
1.030673e+003,1.687219e+001
1.031637e+003,1.659858e+001
1.032601e+003,1.680331e+001
1.033566e+003,1.692139e+001
1.034530e+003,1.678936e+001
1.035494e+003,1.707111e+001
1.036458e+003,1.917938e+001
1.037422e+003,2.167052e+001
1.038387e+003,2.153241e+001
1.039351e+003,1.903651e+001
1.040315e+003,1.747701e+001
1.041279e+003,1.960874e+001
1.042244e+003,2.434303e+001
1.043208e+003,2.602942e+001
1.044172e+003,2.194512e+001
1.045136e+003,1.920348e+001
1.046101e+003,1.851823e+001
1.047065e+003,1.861544e+001
1.048029e+003,1.898932e+001
1.048993e+003,1.942399e+001
1.049958e+003,1.948818e+001
1.050922e+003,1.874982e+001
1.051886e+003,1.831236e+001
1.052850e+003,1.996459e+001
1.053814e+003,2.223462e+001
1.054779e+003,2.310881e+001
1.055743e+003,2.220451e+001
1.056707e+003,2.057925e+001
1.057671e+003,1.949933e+001
1.058636e+003,1.895549e+001
1.059600e+003,1.817107e+001
1.060564e+003,1.609777e+001
1.061528e+003,1.544473e+001
1.062493e+003,1.745830e+001
1.063457e+003,2.037801e+001
1.064421e+003,2.267653e+001
1.065385e+003,2.415453e+001
1.066349e+003,2.427600e+001
1.067314e+003,2.161839e+001
1.068278e+003,1.885058e+001
1.069242e+003,1.784898e+001
1.070206e+003,1.804745e+001
1.071171e+003,1.854556e+001
1.072135e+003,1.888401e+001
1.073099e+003,1.908045e+001
1.074063e+003,1.918575e+001
1.075028e+003,1.918906e+001
1.075992e+003,1.973159e+001
1.076956e+003,2.127985e+001
1.077920e+003,2.240916e+001
1.078885e+003,2.269521e+001
1.079849e+003,2.228754e+001
1.080813e+003,2.116243e+001
1.081777e+003,1.909325e+001
1.082741e+003,1.761511e+001
1.083706e+003,1.789613e+001
1.084670e+003,1.855708e+001
1.085634e+003,1.897064e+001
1.086598e+003,1.916717e+001
1.087563e+003,1.956384e+001
1.088527e+003,2.035458e+001
1.089491e+003,2.097230e+001
1.090455e+003,2.008899e+001
1.091420e+003,1.744773e+001
1.092384e+003,1.561918e+001
1.093348e+003,1.455140e+001
1.094312e+003,1.423116e+001
1.095276e+003,1.519968e+001
1.096241e+003,1.696562e+001
1.097205e+003,1.784936e+001
1.098169e+003,1.736005e+001
1.099133e+003,1.671135e+001
1.100098e+003,1.593201e+001
1.101062e+003,1.558755e+001
1.102026e+003,1.654204e+001
1.102990e+003,1.820381e+001
1.103955e+003,1.909169e+001
1.104919e+003,1.831863e+001
1.105883e+003,1.685736e+001
1.106847e+003,1.700670e+001
1.107812e+003,1.876039e+001
1.108776e+003,1.913092e+001
1.109740e+003,1.754063e+001
1.110704e+003,1.550617e+001
1.111668e+003,1.390694e+001
1.112633e+003,1.279693e+001
1.113597e+003,1.231799e+001
1.114561e+003,1.259837e+001
1.115525e+003,1.316779e+001
1.116490e+003,1.441892e+001
1.117454e+003,1.535493e+001
1.118418e+003,1.502507e+001
1.119382e+003,1.389626e+001
1.120347e+003,1.318384e+001
1.121311e+003,1.358504e+001
1.122275e+003,1.448044e+001
1.123239e+003,1.478247e+001
1.124203e+003,1.459785e+001
1.125168e+003,1.451933e+001
1.126132e+003,1.468277e+001
1.127096e+003,1.475259e+001
1.128060e+003,1.436686e+001
1.129025e+003,1.361079e+001
1.129989e+003,1.296039e+001
1.130953e+003,1.233056e+001
1.131917e+003,1.204284e+001
1.132882e+003,1.252249e+001
1.133846e+003,1.303262e+001
1.134810e+003,1.323033e+001
1.135774e+003,1.306811e+001
1.136739e+003,1.236829e+001
1.137703e+003,1.105773e+001
1.138667e+003,9.952469e+000
1.139631e+003,1.076122e+001
1.140595e+003,1.322546e+001
1.141560e+003,1.480465e+001
1.142524e+003,1.522099e+001
1.143488e+003,1.551082e+001
1.144452e+003,1.646980e+001
1.145417e+003,1.784216e+001
1.146381e+003,1.873264e+001
1.147345e+003,1.907835e+001
1.148309e+003,1.891556e+001
1.149274e+003,1.723483e+001
1.150238e+003,1.616975e+001
1.151202e+003,1.739271e+001
1.152166e+003,1.996223e+001
1.153130e+003,2.206112e+001
1.154095e+003,2.278764e+001
1.155059e+003,2.266122e+001
1.156023e+003,2.248621e+001
1.156987e+003,2.222364e+001
1.157952e+003,2.140594e+001
1.158916e+003,2.001592e+001
1.159880e+003,1.867837e+001
1.160844e+003,1.741917e+001
1.161809e+003,1.636885e+001
1.162773e+003,1.621263e+001
1.163737e+003,1.736089e+001
1.164701e+003,1.758163e+001
1.165666e+003,1.485078e+001
1.166630e+003,1.268039e+001
1.167594e+003,1.272823e+001
1.168558e+003,1.397008e+001
1.169522e+003,1.517983e+001
1.170487e+003,1.582122e+001
1.171451e+003,1.572649e+001
1.172415e+003,1.453751e+001
1.173379e+003,1.261761e+001
1.174344e+003,1.235317e+001
1.175308e+003,1.394669e+001
1.176272e+003,1.430815e+001
1.177236e+003,1.096902e+001
1.178201e+003,7.073723e+000
1.179165e+003,7.399048e+000
1.180129e+003,1.197945e+001
1.181093e+003,1.426987e+001
1.182057e+003,1.134129e+001
1.183022e+003,8.334946e+000
1.183986e+003,7.019661e+000
1.184950e+003,6.651176e+000
1.185914e+003,6.572845e+000
1.186879e+003,6.654289e+000
1.187843e+003,7.278114e+000
1.188807e+003,8.778908e+000
1.189771e+003,1.047977e+001
1.190736e+003,1.015282e+001
1.191700e+003,7.507919e+000
1.192664e+003,5.802185e+000
1.193628e+003,5.871323e+000
1.194593e+003,6.256424e+000
1.195557e+003,5.911980e+000
1.196521e+003,5.026840e+000
1.197485e+003,4.257233e+000
1.198449e+003,3.665176e+000
1.199414e+003,3.335503e+000
1.200378e+003,3.222847e+000
1.201342e+003,3.459457e+000
1.202306e+003,4.394203e+000
1.203271e+003,5.688087e+000
1.204235e+003,6.754852e+000
1.205199e+003,7.294350e+000
1.206163e+003,7.435188e+000
1.207128e+003,7.391808e+000
1.208092e+003,7.176178e+000
1.209056e+003,6.187462e+000
1.210020e+003,3.852707e+000
1.210984e+003,2.024513e+000
1.211949e+003,1.249603e+000
1.212913e+003,1.223419e+000
1.213877e+003,1.914490e+000
1.214841e+003,3.261894e+000
1.215806e+003,3.872009e+000
1.216770e+003,2.739708e+000
1.217734e+003,1.442329e+000
1.218698e+003,1.080818e+000
1.219663e+003,1.164444e+000
1.220627e+003,1.191559e+000
1.221591e+003,1.011719e+000
1.222555e+003,5.707397e-001
1.223520e+003,-1.999283e-001
1.224484e+003,-1.068695e+000
1.225448e+003,-1.006233e+000
1.226412e+003,6.825790e-001
1.227376e+003,1.730904e+000
1.228341e+003,1.792496e+000
1.229305e+003,1.597275e+000
1.230269e+003,1.664085e+000
1.231233e+003,1.714867e+000
1.232198e+003,8.796387e-001
1.233162e+003,-1.126488e+000
1.234126e+003,-2.466972e+000
1.235090e+003,-1.200340e+000
1.236055e+003,7.429352e-001
1.237019e+003,1.319641e+000
1.237983e+003,8.082657e-001
1.238947e+003,6.546783e-002
1.239911e+003,-5.183182e-001
1.240876e+003,-9.004669e-001
1.241840e+003,-1.023346e+000
1.242804e+003,-8.708267e-001
1.243768e+003,-7.140045e-001
1.244733e+003,-6.522522e-001
1.245697e+003,-4.357300e-001
1.246661e+003,1.034164e-001
1.247625e+003,5.834579e-001
1.248590e+003,6.906433e-001
1.249554e+003,5.429230e-001
1.250518e+003,5.019455e-001
1.251482e+003,7.139206e-001
1.252447e+003,9.484558e-001
1.253411e+003,1.018555e+000
1.254375e+003,9.354782e-001
1.255339e+003,5.716324e-001
1.256303e+003,-2.722168e-002
1.257268e+003,-3.139038e-001
1.258232e+003,1.055450e-001
1.259196e+003,7.934570e-001
1.260160e+003,7.473907e-001
1.261125e+003,-2.598190e-001
1.262089e+003,-3.031082e-001
1.263053e+003,2.157089e+000
1.264017e+003,3.815025e+000
1.264982e+003,3.368256e+000
1.265946e+003,2.214600e+000
1.266910e+003,1.726425e+000
1.267874e+003,1.913849e+000
1.268839e+003,1.786980e+000
1.269803e+003,6.844559e-001
1.270767e+003,-6.999588e-001
1.271731e+003,-9.741745e-001
1.272695e+003,-1.210251e-001
1.273660e+003,7.043381e-001
1.274624e+003,1.542160e+000
1.275588e+003,1.969109e+000
1.276552e+003,1.580757e+000
1.277517e+003,7.820816e-001
1.278481e+003,1.755676e-001
1.279445e+003,-2.438812e-001
1.280409e+003,-1.606216e-001
1.281374e+003,9.099350e-001
1.282338e+003,2.024857e+000
1.283302e+003,3.107094e+000
1.284266e+003,3.708076e+000
1.285230e+003,2.961906e+000
1.286195e+003,1.083992e+000
1.287159e+003,-6.542206e-001
1.288123e+003,-1.185501e+000
1.289087e+003,-7.434006e-001
1.290052e+003,-8.670044e-002
1.291016e+003,9.708099e-001
1.291980e+003,1.378853e+000
1.292944e+003,9.220505e-001
1.293909e+003,9.147644e-002
1.294873e+003,-1.498947e+000
1.295837e+003,-2.968842e+000
1.296801e+003,-2.733162e+000
1.297766e+003,-7.652969e-001
1.298730e+003,6.230469e-001
1.299694e+003,-2.706146e-002
1.300658e+003,-1.319710e+000
1.301622e+003,-1.731186e+000
1.302587e+003,-1.650902e+000
1.303551e+003,-1.853622e+000
1.304515e+003,-2.384483e+000
1.305479e+003,-2.270767e+000
1.306444e+003,-5.365143e-001
1.307408e+003,2.076523e+000
1.308372e+003,2.987984e+000
1.309336e+003,1.547256e+000
1.310301e+003,3.787231e-001
1.311265e+003,-3.845596e-001
1.312229e+003,-8.167648e-001
1.313193e+003,-8.408127e-001
1.314157e+003,-6.149216e-001
1.315122e+003,-3.089294e-001
1.316086e+003,5.799866e-002
1.317050e+003,7.406082e-001
1.318014e+003,1.984375e+000
1.318979e+003,3.121727e+000
1.319943e+003,2.694984e+000
1.320907e+003,9.413757e-001
1.321871e+003,-6.711578e-002
1.322836e+003,-2.496643e-001
1.323800e+003,8.600616e-002
1.324764e+003,1.378426e+000
1.325728e+003,2.801453e+000
1.326693e+003,2.619713e+000
1.327657e+003,7.300644e-001
1.328621e+003,-5.228958e-001
1.329585e+003,-2.572861e-001
1.330549e+003,5.609894e-001
1.331514e+003,1.922112e+000
1.332478e+003,2.958000e+000
1.333442e+003,2.618401e+000
1.334406e+003,1.173874e+000
1.335371e+003,-2.790604e-001
1.336335e+003,-1.066841e+000
1.337299e+003,-1.447510e+000
1.338263e+003,-1.950706e+000
1.339228e+003,-2.650093e+000
1.340192e+003,-2.742973e+000
1.341156e+003,-1.367569e+000
1.342120e+003,-6.936951e-001
1.343084e+003,-1.904633e+000
1.344049e+003,-3.219452e+000
1.345013e+003,-2.940796e+000
1.345977e+003,-1.430153e+000
1.346941e+003,-1.939011e-001
1.347906e+003,2.212296e-001
1.348870e+003,4.396820e-001
1.349834e+003,1.228310e+000
1.350798e+003,1.979469e+000
1.351763e+003,1.439934e+000
1.352727e+003,-1.455994e-001
1.353691e+003,-1.452164e+000
1.354655e+003,-2.070709e+000
1.355620e+003,-2.009796e+000
1.356584e+003,-9.392853e-001
1.357548e+003,9.788895e-001
1.358512e+003,2.026199e+000
1.359476e+003,1.604759e+000
1.360441e+003,1.578682e+000
1.361405e+003,3.220978e+000
1.362369e+003,4.541794e+000
1.363333e+003,4.275406e+000
1.364298e+003,3.214783e+000
1.365262e+003,2.513138e+000
1.366226e+003,2.467606e+000
1.367190e+003,2.610474e+000
1.368155e+003,2.523636e+000
1.369119e+003,2.316002e+000
1.370083e+003,2.339470e+000
1.371047e+003,2.663155e+000
1.372011e+003,3.078491e+000
1.372976e+003,3.777145e+000
1.373940e+003,4.214546e+000
1.374904e+003,4.098068e+000
1.375868e+003,3.712646e+000
1.376833e+003,3.436371e+000
1.377797e+003,3.253639e+000
1.378761e+003,2.753014e+000
1.379725e+003,1.635292e+000
1.380690e+003,6.004639e-001
1.381654e+003,4.032059e-001
1.382618e+003,7.578583e-001
1.383582e+003,1.416512e+000
1.384547e+003,2.301155e+000
1.385511e+003,3.132080e+000
1.386475e+003,3.750496e+000
1.387439e+003,4.227562e+000
1.388403e+003,4.748199e+000
1.389368e+003,5.305710e+000
1.390332e+003,5.424744e+000
1.391296e+003,5.093636e+000
1.392260e+003,4.349556e+000
1.393225e+003,2.634193e+000
1.394189e+003,1.139038e+000
1.395153e+003,6.624374e-001
1.396117e+003,8.109894e-001
1.397082e+003,9.970093e-001
1.398046e+003,1.006927e+000
1.399010e+003,8.028717e-001
1.399974e+003,2.957382e-001
1.400938e+003,-2.292709e-001
1.401903e+003,3.514023e-001
1.402867e+003,2.587677e+000
1.403831e+003,4.041023e+000
1.404795e+003,4.422928e+000
1.405760e+003,4.355324e+000
1.406724e+003,3.592804e+000
1.407688e+003,2.654495e+000
1.408652e+003,2.188980e+000
1.409617e+003,2.272293e+000
1.410581e+003,2.854118e+000
1.411545e+003,4.098587e+000
1.412509e+003,4.819702e+000
1.413474e+003,3.129799e+000
1.414438e+003,5.730209e-001
1.415402e+003,-1.285629e-001
1.416366e+003,8.949661e-001
1.417330e+003,2.325996e+000
1.418295e+003,3.827034e+000
1.419259e+003,4.926025e+000
1.420223e+003,4.782959e+000
1.421187e+003,3.614075e+000
1.422152e+003,3.035019e+000
1.423116e+003,3.370483e+000
1.424080e+003,3.503395e+000
1.425044e+003,2.827171e+000
1.426009e+003,2.123413e+000
1.426973e+003,1.503777e+000
1.427937e+003,1.158997e+000
1.428901e+003,1.353706e+000
1.429865e+003,2.076080e+000
1.430830e+003,3.196915e+000
1.431794e+003,4.589348e+000
1.432758e+003,5.862556e+000
1.433722e+003,6.292168e+000
1.434687e+003,5.909203e+000
1.435651e+003,5.213493e+000
1.436615e+003,3.103088e+000
1.437579e+003,2.017807e+000
1.438544e+003,2.965187e+000
1.439508e+003,4.233772e+000
1.440472e+003,5.021355e+000
1.441436e+003,5.227280e+000
1.442401e+003,4.467476e+000
1.443365e+003,2.824982e+000
1.444329e+003,1.810875e+000
1.445293e+003,2.661964e+000
1.446257e+003,4.503113e+000
1.447222e+003,6.008247e+000
1.448186e+003,7.069786e+000
1.449150e+003,6.768936e+000
1.450114e+003,4.625397e+000
1.451079e+003,2.691948e+000
1.452043e+003,1.893578e+000
1.453007e+003,2.028175e+000
1.453971e+003,3.260490e+000
1.454936e+003,5.316368e+000
1.455900e+003,6.367699e+000
1.456864e+003,5.940933e+000
1.457828e+003,4.892265e+000
1.458792e+003,2.779572e+000
1.459757e+003,1.037369e+000
1.460721e+003,1.277985e+000
1.461685e+003,2.679947e+000
1.462649e+003,3.573601e+000
1.463614e+003,3.525291e+000
1.464578e+003,3.055885e+000
1.465542e+003,2.493477e+000
1.466506e+003,2.034401e+000
1.467471e+003,2.577881e+000
1.468435e+003,4.662117e+000
1.469399e+003,5.278580e+000
1.470363e+003,2.573524e+000
1.471328e+003,6.912460e-001
1.472292e+003,9.685593e-001
1.473256e+003,1.851288e+000
1.474220e+003,2.543503e+000
1.475184e+003,2.928123e+000
1.476149e+003,3.019722e+000
1.477113e+003,2.819275e+000
1.478077e+003,2.338211e+000
1.479041e+003,1.606384e+000
1.480006e+003,8.221741e-001
1.480970e+003,5.839386e-001
1.481934e+003,9.922867e-001
1.482898e+003,1.353165e+000
1.483863e+003,1.482231e+000
1.484827e+003,1.802361e+000
1.485791e+003,2.850990e+000
1.486755e+003,3.841225e+000
1.487719e+003,3.819336e+000
1.488684e+003,3.100105e+000
1.489648e+003,2.673904e+000
1.490612e+003,2.886955e+000
1.491576e+003,3.530380e+000
1.492541e+003,4.534195e+000
1.493505e+003,5.632988e+000
1.494469e+003,6.376236e+000
1.495433e+003,6.701874e+000
1.496398e+003,6.187248e+000
1.497362e+003,4.474686e+000
1.498326e+003,3.150673e+000
1.499290e+003,3.504944e+000
1.500255e+003,4.363586e+000
1.501219e+003,3.663681e+000
1.502183e+003,1.834877e+000
1.503147e+003,1.848495e+000
1.504111e+003,4.691574e+000
1.505076e+003,7.669701e+000
1.506040e+003,9.535973e+000
1.507004e+003,1.048957e+001
1.507968e+003,1.050224e+001
1.508933e+003,9.950562e+000
1.509897e+003,9.452477e+000
1.510861e+003,9.220589e+000
1.511825e+003,9.670609e+000
1.512790e+003,1.115508e+001
1.513754e+003,1.321523e+001
1.514718e+003,1.511424e+001
1.515682e+003,1.681993e+001
1.516646e+003,1.832197e+001
1.517611e+003,1.982307e+001
1.518575e+003,2.075561e+001
1.519539e+003,2.022000e+001
1.520503e+003,1.989777e+001
1.521468e+003,2.107341e+001
1.522432e+003,2.275751e+001
1.523396e+003,2.375578e+001
1.524360e+003,2.373362e+001
1.525325e+003,2.253263e+001
1.526289e+003,2.006343e+001
1.527253e+003,1.754472e+001
1.528217e+003,1.733963e+001
1.529182e+003,1.952172e+001
1.530146e+003,2.014238e+001
1.531110e+003,1.836480e+001
1.532074e+003,1.649120e+001
1.533039e+003,1.449673e+001
1.534003e+003,1.252283e+001
1.534967e+003,1.061324e+001
1.535931e+003,8.918930e+000
1.536896e+003,7.513962e+000
1.537860e+003,6.465744e+000
1.538824e+003,5.901299e+000
1.539788e+003,5.850189e+000
1.540752e+003,6.114265e+000
1.541717e+003,6.505348e+000
1.542681e+003,6.997169e+000
1.543645e+003,7.333832e+000
1.544609e+003,7.621445e+000
1.545573e+003,7.554176e+000
1.546538e+003,6.240677e+000
1.547502e+003,5.617882e+000
1.548466e+003,6.850227e+000
1.549430e+003,8.840477e+000
1.550395e+003,1.097816e+001
1.551359e+003,1.272720e+001
1.552323e+003,1.289925e+001
1.553287e+003,1.119395e+001
1.554252e+003,9.231300e+000
1.555216e+003,8.442230e+000
1.556180e+003,8.298302e+000
1.557144e+003,7.538620e+000
1.558109e+003,6.158539e+000
1.559073e+003,5.121262e+000
1.560037e+003,4.406090e+000
1.561001e+003,3.978714e+000
1.561966e+003,4.354195e+000
1.562930e+003,4.641487e+000
1.563894e+003,3.372879e+000
1.564858e+003,1.451881e+000
1.565823e+003,1.387321e+000
1.566787e+003,3.556404e+000
1.567751e+003,5.818253e+000
1.568715e+003,7.092056e+000
1.569679e+003,7.675003e+000
1.570644e+003,7.711861e+000
1.571608e+003,7.340958e+000
1.572572e+003,7.053490e+000
1.573536e+003,6.892944e+000
1.574500e+003,6.830055e+000
1.575465e+003,6.928520e+000
1.576429e+003,6.970245e+000
1.577393e+003,6.449020e+000
1.578357e+003,5.859856e+000
1.579322e+003,6.519791e+000
1.580286e+003,8.379936e+000
1.581250e+003,9.486809e+000
1.582214e+003,9.089424e+000
1.583179e+003,8.417618e+000
1.584143e+003,8.188736e+000
1.585107e+003,8.297005e+000
1.586071e+003,8.907593e+000
1.587036e+003,9.785805e+000
1.588000e+003,9.858330e+000
1.588964e+003,8.793152e+000
1.589928e+003,8.015869e+000
1.590893e+003,8.698311e+000
1.591857e+003,9.990387e+000
1.592821e+003,1.067374e+001
1.593785e+003,1.082784e+001
1.594750e+003,1.092902e+001
1.595714e+003,1.107201e+001
1.596678e+003,1.065498e+001
1.597642e+003,8.599045e+000
1.598606e+003,7.186340e+000
1.599571e+003,9.114090e+000
1.600535e+003,1.221701e+001
1.601499e+003,1.363630e+001
1.602463e+003,1.339101e+001
1.603427e+003,1.294279e+001
1.604392e+003,1.282242e+001
1.605356e+003,1.319749e+001
1.606320e+003,1.488586e+001
1.607284e+003,1.699934e+001
1.608249e+003,1.643653e+001
1.609213e+003,1.306331e+001
1.610177e+003,1.147562e+001
1.611141e+003,1.316219e+001
1.612106e+003,1.483944e+001
1.613070e+003,1.489468e+001
1.614034e+003,1.436503e+001
1.614998e+003,1.368243e+001
1.615963e+003,1.305640e+001
1.616927e+003,1.276900e+001
1.617891e+003,1.284289e+001
1.618855e+003,1.312631e+001
1.619820e+003,1.352983e+001
1.620784e+003,1.394704e+001
1.621748e+003,1.422546e+001
1.622712e+003,1.449604e+001
1.623677e+003,1.533942e+001
1.624641e+003,1.698554e+001
1.625605e+003,1.785131e+001
1.626569e+003,1.693935e+001
1.627533e+003,1.604932e+001
1.628498e+003,1.643660e+001
1.629462e+003,1.699650e+001
1.630426e+003,1.670606e+001
1.631390e+003,1.582874e+001
1.632354e+003,1.491190e+001
1.633319e+003,1.418142e+001
1.634283e+003,1.415958e+001
1.635247e+003,1.540943e+001
1.636211e+003,1.700345e+001
1.637176e+003,1.704006e+001
1.638140e+003,1.569339e+001
1.639104e+003,1.547855e+001
1.640068e+003,1.683421e+001
1.641033e+003,1.779964e+001
1.641997e+003,1.771949e+001
1.642961e+003,1.745035e+001
1.643925e+003,1.768417e+001
1.644890e+003,1.774442e+001
1.645854e+003,1.653905e+001
1.646818e+003,1.463090e+001
1.647782e+003,1.360593e+001
1.648747e+003,1.391859e+001
1.649711e+003,1.470821e+001
1.650675e+003,1.547076e+001
1.651639e+003,1.589014e+001
1.652604e+003,1.495705e+001
1.653568e+003,1.271770e+001
1.654532e+003,1.118856e+001
1.655496e+003,1.035218e+001
1.656460e+003,1.072993e+001
1.657425e+003,1.375697e+001
1.658389e+003,1.633877e+001
1.659353e+003,1.673294e+001
1.660317e+003,1.594549e+001
1.661281e+003,1.449291e+001
1.662246e+003,1.288288e+001
1.663210e+003,1.238500e+001
1.664174e+003,1.336297e+001
1.665138e+003,1.413023e+001
1.666103e+003,1.313703e+001
1.667067e+003,1.115702e+001
1.668031e+003,9.463646e+000
1.668995e+003,8.134102e+000
1.669960e+003,8.319656e+000
1.670924e+003,1.060207e+001
1.671888e+003,1.233047e+001
1.672852e+003,1.244734e+001
1.673817e+003,1.211649e+001
1.674781e+003,1.219495e+001
1.675745e+003,1.216108e+001
1.676709e+003,1.101913e+001
1.677674e+003,9.261803e+000
1.678638e+003,8.592018e+000
1.679602e+003,9.533760e+000
1.680566e+003,1.080278e+001
1.681531e+003,1.170116e+001
1.682495e+003,1.200820e+001
1.683459e+003,1.075907e+001
1.684423e+003,8.348289e+000
1.685387e+003,7.825195e+000
1.686352e+003,9.804405e+000
1.687316e+003,1.084031e+001
1.688280e+003,9.245338e+000
1.689244e+003,7.573090e+000
1.690208e+003,7.891930e+000
1.691173e+003,8.992722e+000
1.692137e+003,9.753304e+000
1.693101e+003,1.020431e+001
1.694065e+003,1.068396e+001
1.695030e+003,1.125871e+001
1.695994e+003,1.104514e+001
1.696958e+003,8.964905e+000
1.697922e+003,6.525261e+000
1.698887e+003,5.736679e+000
1.699851e+003,6.110085e+000
1.700815e+003,6.114738e+000
1.701779e+003,5.604485e+000
1.702744e+003,5.167824e+000
1.703708e+003,5.015411e+000
1.704672e+003,5.082703e+000
1.705636e+003,5.487167e+000
1.706601e+003,5.797501e+000
1.707565e+003,5.326355e+000
1.708529e+003,4.330124e+000
1.709493e+003,3.403755e+000
1.710458e+003,2.556305e+000
1.711422e+003,2.266373e+000
1.712386e+003,2.973175e+000
1.713350e+003,4.075928e+000
1.714314e+003,5.629105e+000
1.715279e+003,6.896713e+000
1.716243e+003,6.269341e+000
1.717207e+003,4.127602e+000
1.718171e+003,2.802818e+000
1.719135e+003,2.949188e+000
1.720100e+003,2.987022e+000
1.721064e+003,1.677460e+000
1.722028e+003,2.801971e-001
1.722992e+003,8.343124e-001
1.723957e+003,2.971764e+000
1.724921e+003,4.346214e+000
1.725885e+003,4.885605e+000
1.726849e+003,4.851845e+000
1.727814e+003,3.731827e+000
1.728778e+003,2.946907e+000
1.729742e+003,3.516922e+000
1.730706e+003,4.292969e+000
1.731671e+003,3.928955e+000
1.732635e+003,2.886070e+000
1.733599e+003,2.286400e+000
1.734563e+003,2.408730e+000
1.735528e+003,3.175362e+000
1.736492e+003,4.519905e+000
1.737456e+003,5.592239e+000
1.738420e+003,5.329758e+000
1.739385e+003,4.093582e+000
1.740349e+003,3.357826e+000
1.741313e+003,3.338257e+000
1.742277e+003,2.879875e+000
1.743241e+003,1.121826e+000
1.744206e+003,3.545151e-001
1.745170e+003,1.697029e+000
1.746134e+003,3.093208e+000
1.747098e+003,3.518120e+000
1.748063e+003,3.301323e+000
1.749027e+003,2.733932e+000
1.749991e+003,2.010391e+000
1.750955e+003,1.246559e+000
1.751919e+003,5.497131e-001
1.752884e+003,2.710266e-001
1.753848e+003,7.145462e-001
1.754812e+003,1.447556e+000
1.755776e+003,1.669281e+000
1.756741e+003,1.413811e+000
1.757705e+003,4.572449e-001
1.758669e+003,-1.876160e+000
1.759633e+003,-2.994614e+000
1.760598e+003,-1.765373e+000
1.761562e+003,-5.898132e-001
1.762526e+003,2.433777e-002
1.763490e+003,2.093811e-001
1.764455e+003,-2.868729e-001
1.765419e+003,-9.491425e-001
1.766383e+003,-9.173050e-001
1.767347e+003,-2.584686e-001
1.768312e+003,1.986771e-001
1.769276e+003,5.519867e-002
1.770240e+003,-5.010834e-001
1.771204e+003,-1.501907e+000
1.772168e+003,-2.443977e+000
1.773133e+003,-1.967445e+000
1.774097e+003,-2.687759e-001
1.775061e+003,6.691132e-001
1.776025e+003,5.774536e-001
1.776990e+003,-5.442810e-002
1.777954e+003,-1.303772e+000
1.778918e+003,-2.418762e+000
1.779882e+003,-3.178490e+000
1.780846e+003,-3.296089e+000
1.781811e+003,-1.877029e+000
1.782775e+003,4.860764e-001
1.783739e+003,1.729912e+000
1.784703e+003,1.509331e+000
1.785668e+003,1.040108e+000
1.786632e+003,6.138306e-001
1.787596e+003,2.686310e-001
1.788560e+003,2.806625e-001
1.789525e+003,3.180008e-001
1.790489e+003,-5.231705e-001
1.791453e+003,-1.778404e+000
1.792417e+003,-1.504601e+000
1.793382e+003,4.647446e-001
1.794346e+003,1.390198e+000
1.795310e+003,-2.774734e-001
1.796274e+003,-2.330338e+000
1.797239e+003,-2.130127e+000
1.798203e+003,-4.601746e-001
1.799167e+003,-3.401184e-002
1.800131e+003,-1.237198e+000
1.801095e+003,-1.616035e+000
1.802060e+003,-3.305359e-001
1.803024e+003,5.042801e-001
1.803988e+003,4.779587e-001
1.804952e+003,1.658020e-001
1.805917e+003,-6.486588e-001
1.806881e+003,-1.207977e+000
1.807845e+003,-4.188385e-001
1.808809e+003,1.101578e+000
1.809773e+003,2.039345e+000
1.810738e+003,2.088142e+000
1.811702e+003,1.724030e+000
1.812666e+003,1.256905e+000
1.813630e+003,8.757553e-001
1.814595e+003,8.784561e-001
1.815559e+003,1.113556e+000
1.816523e+003,9.270706e-001
1.817487e+003,2.564545e-001
1.818452e+003,2.407074e-002
1.819416e+003,4.788208e-001
1.820380e+003,8.891525e-001
1.821344e+003,1.102058e+000
1.822309e+003,1.080940e+000
1.823273e+003,7.148514e-001
1.824237e+003,2.434540e-001
1.825201e+003,-1.382599e-001
1.826166e+003,-4.505310e-001
1.827130e+003,-8.565750e-001
1.828094e+003,-1.379211e+000
1.829058e+003,-1.439758e+000
1.830022e+003,-5.711975e-001
1.830987e+003,4.868011e-001
1.831951e+003,1.219513e+000
1.832915e+003,1.700401e+000
1.833879e+003,2.234077e+000
1.834844e+003,2.576324e+000
1.835808e+003,1.569443e+000
1.836772e+003,-6.956711e-001
1.837736e+003,-1.820930e+000
1.838700e+003,-7.407074e-001
1.839665e+003,7.139206e-001
1.840629e+003,8.948517e-001
1.841593e+003,3.770752e-001
1.842557e+003,3.972931e-001
1.843522e+003,9.388504e-001
1.844486e+003,8.038712e-001
1.845450e+003,-6.013412e-001
1.846414e+003,-1.440376e+000
1.847379e+003,-1.874199e+000
1.848343e+003,-1.640175e+000
1.849307e+003,-4.364014e-002
1.850271e+003,1.645638e+000
1.851236e+003,3.002419e+000
1.852200e+003,3.623474e+000
1.853164e+003,2.500946e+000
1.854128e+003,2.149582e-001
1.855093e+003,-1.242424e+000
1.856057e+003,-1.127190e+000
1.857021e+003,-4.918213e-001
1.857985e+003,-2.116852e-001
1.858949e+003,-5.773926e-002
1.859914e+003,5.457001e-001
1.860878e+003,1.427139e+000
1.861842e+003,1.424133e+000
1.862806e+003,4.933472e-001
1.863771e+003,-1.932602e-001
1.864735e+003,-4.383316e-001
1.865699e+003,-5.465317e-001
1.866663e+003,-5.935364e-001
1.867627e+003,-5.849228e-001
1.868592e+003,-5.446167e-001
1.869556e+003,-5.108871e-001
1.870520e+003,-3.698120e-001
1.871484e+003,-1.992493e-001
1.872449e+003,-6.485596e-001
1.873413e+003,-2.035568e+000
1.874377e+003,-2.642113e+000
1.875341e+003,-1.507683e+000
1.876306e+003,-2.707367e-001
1.877270e+003,9.667969e-002
1.878234e+003,2.216644e-001
1.879198e+003,9.806442e-001
1.880163e+003,1.898506e+000
1.881127e+003,1.840225e+000
1.882091e+003,9.263840e-001
1.883055e+003,2.636108e-001
1.884020e+003,3.321686e-001
1.884984e+003,9.091415e-001
1.885948e+003,1.828598e+000
1.886912e+003,2.632454e+000
1.887876e+003,2.261002e+000
1.888841e+003,8.766251e-001
1.889805e+003,6.001205e-001
1.890769e+003,1.760246e+000
1.891733e+003,2.207153e+000
1.892698e+003,1.409378e+000
1.893662e+003,5.984268e-001
1.894626e+003,-2.234650e-001
1.895590e+003,-3.638077e-001
1.896554e+003,1.855003e+000
1.897519e+003,4.199036e+000
1.898483e+003,3.207085e+000
1.899447e+003,-6.761169e-002
1.900411e+003,-1.496597e+000
1.901376e+003,-3.062592e-001
1.902340e+003,9.903107e-001
1.903304e+003,1.636818e+000
1.904268e+003,1.856583e+000
1.905233e+003,1.482536e+000
1.906197e+003,1.063538e+000
1.907161e+003,1.449425e+000
1.908125e+003,2.079079e+000
1.909090e+003,1.779404e+000
1.910054e+003,6.007156e-001
1.911018e+003,-7.928085e-001
1.911982e+003,-2.011169e+000
1.912947e+003,-2.323280e+000
1.913911e+003,-1.204254e+000
1.914875e+003,4.928970e-001
1.915839e+003,1.443375e+000
1.916803e+003,1.735367e+000
1.917768e+003,1.978157e+000
1.918732e+003,2.244194e+000
1.919696e+003,2.076683e+000
1.920660e+003,1.106895e+000
1.921625e+003,8.532944e-001
1.922589e+003,2.146973e+000
1.923553e+003,3.334969e+000
1.924517e+003,3.552422e+000
1.925481e+003,3.288567e+000
1.926446e+003,2.811623e+000
1.927410e+003,2.229607e+000
1.928374e+003,1.573174e+000
1.929338e+003,8.890305e-001
1.930303e+003,8.410950e-001
1.931267e+003,1.927116e+000
1.932231e+003,2.774620e+000
1.933195e+003,2.835663e+000
1.934160e+003,2.291725e+000
1.935124e+003,2.145996e-001
1.936088e+003,-1.563110e+000
1.937052e+003,3.087311e-001
1.938017e+003,3.933746e+000
1.938981e+003,4.361610e+000
1.939945e+003,1.480476e+000
1.940909e+003,-5.179977e-001
1.941874e+003,2.215805e-001
1.942838e+003,1.623512e+000
1.943802e+003,1.795441e+000
1.944766e+003,1.349655e+000
1.945730e+003,1.484436e+000
1.946695e+003,2.059601e+000
1.947659e+003,1.921593e+000
1.948623e+003,9.031296e-001
1.949587e+003,1.258995e+000
1.950552e+003,3.886917e+000
1.951516e+003,5.148117e+000
1.952480e+003,3.199158e+000
1.953444e+003,9.805679e-001
1.954408e+003,5.751572e-001
1.955373e+003,9.371109e-001
1.956337e+003,6.245346e-001
1.957301e+003,-8.324432e-002
1.958265e+003,-4.267349e-001
1.959230e+003,-4.261017e-001
1.960194e+003,3.333664e-001
1.961158e+003,2.799583e+000
1.962122e+003,4.541145e+000
1.963087e+003,4.799171e+000
1.964051e+003,4.354607e+000
1.965015e+003,2.983536e+000
1.965979e+003,1.789207e+000
1.966944e+003,2.118523e+000
1.967908e+003,3.241356e+000
1.968872e+003,3.694267e+000
1.969836e+003,3.361153e+000
1.970801e+003,3.208115e+000
1.971765e+003,3.608025e+000
1.972729e+003,3.600380e+000
1.973693e+003,2.189262e+000
1.974657e+003,4.665833e-001
1.975622e+003,-1.492615e-001
1.976586e+003,2.598953e-001
1.977550e+003,2.114090e+000
1.978514e+003,4.940147e+000
1.979479e+003,5.905678e+000
1.980443e+003,4.689972e+000
1.981407e+003,3.532639e+000
1.982371e+003,3.269524e+000
1.983335e+003,3.369530e+000
1.984300e+003,3.469009e+000
1.985264e+003,3.386215e+000
1.986228e+003,2.766541e+000
1.987192e+003,1.857437e+000
1.988157e+003,2.034683e+000
1.989121e+003,3.689186e+000
1.990085e+003,4.473473e+000
1.991049e+003,4.065529e+000
1.992014e+003,3.476311e+000
1.992978e+003,2.163582e+000
1.993942e+003,1.552353e+000
1.994906e+003,2.930244e+000
1.995871e+003,4.353058e+000
1.996835e+003,3.902031e+000
1.997799e+003,2.910347e+000
1.998763e+003,3.792290e+000
1.999728e+003,6.051186e+000
