5.003444e+002,2.501318e+001
5.013087e+002,2.254126e+001
5.022729e+002,2.185242e+001
5.032371e+002,2.267993e+001
5.042014e+002,1.993591e+001
5.051656e+002,1.451013e+001
5.061298e+002,1.020251e+001
5.070941e+002,1.045740e+001
5.080583e+002,1.601917e+001
5.090225e+002,1.908765e+001
5.099868e+002,1.891821e+001
5.109510e+002,1.789539e+001
5.119152e+002,1.731384e+001
5.128795e+002,1.737231e+001
5.138437e+002,1.689148e+001
5.148079e+002,1.574121e+001
5.157722e+002,1.421069e+001
5.167364e+002,1.128271e+001
5.177006e+002,7.129517e+000
5.186649e+002,3.342041e+000
5.196291e+002,2.897583e+000
5.205933e+002,5.360107e+000
5.215576e+002,9.867065e+000
5.225218e+002,1.516199e+001
5.234860e+002,1.918994e+001
5.244503e+002,1.922083e+001
5.254145e+002,1.490247e+001
5.263787e+002,1.193140e+001
5.273430e+002,1.020825e+001
5.283072e+002,9.867798e+000
5.292714e+002,1.096875e+001
5.302357e+002,1.314209e+001
5.311999e+002,1.471973e+001
5.321641e+002,1.789490e+001
5.331284e+002,2.094714e+001
5.340926e+002,2.156531e+001
5.350568e+002,1.824426e+001
5.360211e+002,1.396729e+001
5.369853e+002,1.308459e+001
5.379495e+002,1.364502e+001
5.389138e+002,1.357520e+001
5.398780e+002,1.199939e+001
5.408422e+002,9.660400e+000
5.418065e+002,9.146729e+000
5.427707e+002,1.019849e+001
5.437349e+002,1.150354e+001
5.446992e+002,1.271375e+001
5.456634e+002,1.366504e+001
5.466276e+002,1.419189e+001
5.475919e+002,1.614795e+001
5.485561e+002,1.564795e+001
5.495203e+002,9.453979e+000
5.504846e+002,1.010498e+000
5.514488e+002,-4.179077e+000
5.524130e+002,-2.461914e+000
5.533773e+002,3.867188e-001
5.543415e+002,1.645142e+000
5.553057e+002,1.985840e+000
5.562700e+002,1.461670e+000
5.572342e+002,1.806641e-002
5.581984e+002,-1.399780e+000
5.591627e+002,1.401489e+000
5.601269e+002,7.104370e+000
5.610911e+002,1.182483e+001
5.620554e+002,1.324500e+001
5.630196e+002,1.134473e+001
5.639838e+002,9.188599e+000
5.649481e+002,6.742554e+000
5.659123e+002,4.208740e+000
5.668765e+002,2.791016e+000
5.678408e+002,2.625854e+000
5.688050e+002,2.629150e+000
5.697692e+002,1.520386e+000
5.707335e+002,-1.139160e+000
5.716977e+002,-6.596436e+000
5.726619e+002,-1.247034e+001
5.736262e+002,-1.537952e+001
5.745904e+002,-1.250757e+001
5.755546e+002,-7.113037e+000
5.765189e+002,-5.564575e+000
5.774831e+002,-6.933838e+000
5.784473e+002,-8.277344e+000
5.794116e+002,-7.219604e+000
5.803758e+002,-3.539429e+000
5.813400e+002,-2.840698e+000
5.823043e+002,-7.211060e+000
5.832685e+002,-1.180334e+001
5.842327e+002,-1.443237e+001
5.851970e+002,-1.463770e+001
5.861612e+002,-1.341370e+001
5.871254e+002,-1.189001e+001
5.880897e+002,-8.815308e+000
5.890539e+002,-2.151245e+000
5.900181e+002,5.346924e+000
5.909824e+002,9.119507e+000
5.919466e+002,5.263184e+000
5.929108e+002,1.195068e-001
5.938751e+002,1.510986e+000
5.948393e+002,6.160645e+000
5.958035e+002,8.783081e+000
5.967678e+002,5.719238e+000
5.977320e+002,-1.414795e+000
5.986962e+002,-2.498901e+000
5.996605e+002,1.094849e+000
6.006247e+002,5.160522e+000
6.015889e+002,8.737061e+000
6.025532e+002,1.180859e+001
6.035174e+002,1.272803e+001
6.044816e+002,9.368408e+000
6.054459e+002,6.274170e+000
6.064101e+002,4.276855e+000
6.073743e+002,2.833862e+000
6.083386e+002,5.968018e-001
6.093028e+002,-4.010498e+000
6.102670e+002,-6.852661e+000
6.112313e+002,-4.260620e+000
6.121955e+002,1.027466e+000
6.131597e+002,5.751709e+000
6.141240e+002,7.609009e+000
6.150882e+002,6.860962e+000
6.160524e+002,3.940063e+000
6.170167e+002,-2.780762e-001
6.179809e+002,-1.602173e+000
6.189451e+002,2.867310e+000
6.199094e+002,1.130688e+001
6.208736e+002,1.315247e+001
6.218378e+002,1.162598e+000
6.228021e+002,-7.496216e+000
6.237663e+002,-1.076379e+001
6.247305e+002,-9.657715e+000
6.256948e+002,-5.655518e+000
6.266590e+002,2.000977e+000
6.276232e+002,7.009888e+000
6.285875e+002,5.628418e+000
6.295517e+002,1.748901e+000
6.305159e+002,-8.892822e-001
6.314802e+002,-5.417480e-001
6.324444e+002,7.979736e-001
6.334086e+002,-2.208496e+000
6.343729e+002,-7.208008e+000
6.353371e+002,-9.070435e+000
6.363013e+002,-5.648438e+000
6.372656e+002,8.640137e-001
6.382298e+002,3.395264e+000
6.391940e+002,-2.792114e+000
6.401583e+002,-7.858765e+000
6.411225e+002,-1.103992e+001
6.420867e+002,-1.144434e+001
6.430510e+002,-7.883423e+000
6.440152e+002,6.931152e-001
6.449794e+002,7.257080e+000
6.459437e+002,9.312012e+000
6.469079e+002,7.850830e+000
6.478721e+002,1.755737e+000
6.488364e+002,-8.072632e+000
6.498006e+002,-1.691382e+001
6.507648e+002,-1.504541e+001
6.517291e+002,-6.508667e+000
6.526933e+002,-5.773926e-002
6.536575e+002,2.619751e+000
6.546218e+002,2.704712e+000
6.555860e+002,2.437134e+000
6.565502e+002,1.028442e+000
6.575145e+002,8.713379e-001
6.584787e+002,3.122559e+000
6.594429e+002,5.679932e+000
6.604072e+002,6.825806e+000
6.613714e+002,6.246216e+000
6.623356e+002,5.640503e+000
6.632999e+002,5.969971e+000
6.642641e+002,5.114258e+000
6.652283e+002,1.570557e+000
6.661926e+002,-3.585571e+000
6.671568e+002,-7.462891e+000
6.681210e+002,-6.864746e+000
6.690853e+002,-3.252319e+000
6.700495e+002,6.916504e-001
6.710137e+002,4.779175e+000
6.719780e+002,7.433472e+000
6.729422e+002,6.586914e+000
6.739064e+002,8.194580e-001
6.748707e+002,-2.033813e+000
6.758349e+002,-2.093506e-001
6.767991e+002,1.182129e+000
6.777634e+002,2.468262e-001
6.787276e+002,-2.018677e+000
6.796918e+002,-2.344727e+000
6.806561e+002,1.090820e+000
6.816203e+002,4.201172e+000
6.825845e+002,5.522583e+000
6.835488e+002,5.481689e+000
6.845130e+002,5.171387e+000
6.854772e+002,5.638794e+000
6.864415e+002,6.645264e+000
6.874057e+002,5.230591e+000
6.883699e+002,1.559692e+000
6.893342e+002,-9.938965e-001
6.902984e+002,-9.326172e-002
6.912626e+002,3.759644e+000
6.922269e+002,5.016602e+000
6.931911e+002,1.798706e+000
6.941553e+002,1.388916e+000
6.951196e+002,4.923584e+000
6.960838e+002,9.683594e+000
6.970480e+002,1.197705e+001
6.980123e+002,1.060376e+001
6.989765e+002,9.178101e+000
6.999407e+002,8.561646e+000
7.009050e+002,8.629150e+000
7.018692e+002,9.878418e+000
7.028334e+002,1.202600e+001
7.037977e+002,1.335559e+001
7.047619e+002,1.138806e+001
7.057261e+002,7.645874e+000
7.066904e+002,2.746582e+000
7.076546e+002,-3.252563e+000
7.086188e+002,-7.997314e+000
7.095831e+002,-7.352905e+000
7.105473e+002,1.325928e+000
7.115115e+002,5.161987e+000
7.124758e+002,-1.843262e-002
7.134400e+002,-5.496704e+000
7.144042e+002,-3.624146e+000
7.153685e+002,5.820190e+000
7.163327e+002,1.050659e+001
7.172969e+002,-4.172974e+000
7.182612e+002,-1.622449e+001
7.192254e+002,-1.429175e+001
7.201896e+002,-3.042480e+000
7.211539e+002,6.709106e+000
7.221181e+002,5.917969e+000
7.230823e+002,-1.284180e+000
7.240466e+002,-3.265503e+000
7.250108e+002,-3.125000e-001
7.259750e+002,4.317383e+000
7.269393e+002,8.214844e+000
7.279035e+002,1.023328e+001
7.288677e+002,9.336914e+000
7.298320e+002,4.505005e+000
7.307962e+002,2.011963e+000
7.317604e+002,3.216797e+000
7.327247e+002,6.857666e+000
7.336889e+002,1.067883e+001
7.346531e+002,1.294995e+001
7.356174e+002,1.299146e+001
7.365816e+002,1.243701e+001
7.375458e+002,1.197754e+001
7.385101e+002,1.162671e+001
7.394743e+002,1.155469e+001
7.404385e+002,1.233765e+001
7.414028e+002,1.510632e+001
7.423670e+002,1.696887e+001
7.433312e+002,1.372449e+001
7.442955e+002,5.972168e+000
7.452597e+002,-9.753418e-002
7.462239e+002,2.713745e+000
7.471882e+002,1.714783e+001
7.481524e+002,2.644971e+001
7.491166e+002,2.603308e+001
7.500809e+002,2.388428e+001
7.510451e+002,2.262842e+001
7.520093e+002,2.220789e+001
7.529736e+002,2.155896e+001
7.539378e+002,2.152673e+001
7.549020e+002,2.166223e+001
7.558663e+002,2.121619e+001
7.568306e+002,2.058630e+001
7.577948e+002,2.005505e+001
7.587590e+002,1.946460e+001
7.597233e+002,1.812744e+001
7.606875e+002,1.609680e+001
7.616517e+002,1.414941e+001
7.626160e+002,1.173730e+001
7.635802e+002,8.308838e+000
7.645444e+002,5.216309e+000
7.655087e+002,5.348511e+000
7.664729e+002,1.058740e+001
7.674371e+002,1.431287e+001
7.684014e+002,1.583594e+001
7.693656e+002,1.610754e+001
7.703298e+002,1.520667e+001
7.712941e+002,1.359180e+001
7.722583e+002,1.316650e+001
7.732225e+002,1.728613e+001
7.741868e+002,2.106079e+001
7.751510e+002,1.947119e+001
7.761152e+002,1.425488e+001
7.770795e+002,9.923950e+000
7.780437e+002,1.034424e+001
7.790079e+002,1.452417e+001
7.799722e+002,1.644788e+001
7.809364e+002,1.624731e+001
7.819006e+002,1.487939e+001
7.828649e+002,1.241602e+001
7.838291e+002,1.003735e+001
7.847933e+002,1.032312e+001
7.857576e+002,1.462915e+001
7.867218e+002,1.628345e+001
7.876860e+002,1.421497e+001
7.886503e+002,1.131519e+001
7.896145e+002,1.023499e+001
7.905787e+002,1.151367e+001
7.915430e+002,1.251917e+001
7.925072e+002,7.873047e+000
7.934714e+002,1.252686e+000
7.944357e+002,-1.640625e+000
7.953999e+002,-1.666260e-001
7.963641e+002,2.805298e+000
7.973284e+002,3.603149e+000
7.982926e+002,1.950439e+000
7.992568e+002,4.085449e+000
8.002211e+002,1.082275e+001
8.011853e+002,1.446399e+001
8.021495e+002,1.238208e+001
8.031138e+002,7.622314e+000
8.040780e+002,6.829224e+000
8.050422e+002,1.252673e+001
8.060065e+002,1.701294e+001
8.069707e+002,1.580298e+001
8.079349e+002,1.232324e+001
8.088992e+002,1.066748e+001
8.098634e+002,1.255566e+001
8.108276e+002,1.578772e+001
8.117919e+002,1.610388e+001
8.127561e+002,1.326965e+001
8.137203e+002,1.039771e+001
8.146846e+002,8.896606e+000
8.156488e+002,7.963745e+000
8.166130e+002,5.566040e+000
8.175773e+002,4.891357e-001
8.185415e+002,-2.893066e-001
8.195057e+002,3.635986e+000
8.204700e+002,8.448364e+000
8.214342e+002,1.417419e+001
8.223984e+002,1.986829e+001
8.233627e+002,2.320496e+001
8.243269e+002,2.295325e+001
8.252911e+002,2.182727e+001
8.262554e+002,1.972498e+001
8.272196e+002,1.848035e+001
8.281838e+002,2.084131e+001
8.291481e+002,2.716089e+001
8.301123e+002,3.431970e+001
8.310765e+002,3.667151e+001
8.320408e+002,3.411755e+001
8.330050e+002,3.187292e+001
8.339692e+002,3.048523e+001
8.349335e+002,2.936218e+001
8.358977e+002,2.821899e+001
8.368619e+002,2.759082e+001
8.378262e+002,2.743848e+001
8.387904e+002,2.686475e+001
8.397546e+002,2.610693e+001
8.407189e+002,2.465479e+001
8.416831e+002,2.340039e+001
8.426473e+002,2.409424e+001
8.436116e+002,2.801685e+001
8.445758e+002,3.264868e+001
8.455400e+002,3.455212e+001
8.465043e+002,3.383142e+001
8.474685e+002,3.112683e+001
8.484327e+002,2.776941e+001
8.493970e+002,2.571094e+001
8.503612e+002,2.707507e+001
8.513254e+002,3.225281e+001
8.522897e+002,3.410242e+001
8.532539e+002,2.998608e+001
8.542181e+002,2.508118e+001
8.551824e+002,2.264514e+001
8.561466e+002,2.372510e+001
8.571108e+002,2.894336e+001
8.580751e+002,4.024219e+001
8.590393e+002,4.808167e+001
8.600035e+002,4.960571e+001
8.609678e+002,4.801868e+001
8.619320e+002,4.607312e+001
8.628962e+002,4.497009e+001
8.638605e+002,4.500366e+001
8.648247e+002,4.797888e+001
8.657889e+002,5.198804e+001
8.667532e+002,5.344604e+001
8.677174e+002,5.187036e+001
8.686816e+002,4.817041e+001
8.696459e+002,4.302808e+001
8.706101e+002,3.628870e+001
8.715743e+002,3.389331e+001
8.725386e+002,3.946069e+001
8.735028e+002,4.452527e+001
8.744670e+002,4.465173e+001
8.754313e+002,4.194263e+001
8.763955e+002,4.208582e+001
8.773597e+002,4.858423e+001
8.783240e+002,5.429395e+001
8.792882e+002,5.302649e+001
8.802524e+002,4.856091e+001
8.812167e+002,4.294202e+001
8.821809e+002,3.755103e+001
8.831451e+002,3.414734e+001
8.841094e+002,3.535730e+001
8.850736e+002,4.178809e+001
8.860378e+002,4.802856e+001
8.870021e+002,5.403699e+001
8.879663e+002,5.816016e+001
8.889305e+002,5.779797e+001
8.898948e+002,5.376855e+001
8.908590e+002,5.219751e+001
8.918232e+002,5.705798e+001
8.927875e+002,6.011060e+001
8.937517e+002,5.816016e+001
8.947159e+002,5.506714e+001
8.956802e+002,5.329382e+001
8.966444e+002,5.295569e+001
8.976086e+002,5.268787e+001
8.985729e+002,5.225671e+001
8.995371e+002,5.227820e+001
9.005013e+002,5.251550e+001
9.014656e+002,5.340552e+001
9.024298e+002,5.487036e+001
9.033940e+002,5.616101e+001
9.043583e+002,5.674951e+001
9.053225e+002,5.873279e+001
9.062867e+002,6.455847e+001
9.072510e+002,6.695898e+001
9.082152e+002,6.475366e+001
9.091794e+002,6.194104e+001
9.101437e+002,6.272961e+001
9.111079e+002,6.771960e+001
9.120721e+002,7.173828e+001
9.130364e+002,7.033997e+001
9.140006e+002,6.629077e+001
9.149648e+002,5.948193e+001
9.159291e+002,5.285693e+001
9.168933e+002,5.111584e+001
9.178575e+002,5.697681e+001
9.188218e+002,6.719275e+001
9.197860e+002,7.225098e+001
9.207502e+002,7.175061e+001
9.217145e+002,6.923193e+001
9.226787e+002,6.519226e+001
9.236429e+002,6.185681e+001
9.246072e+002,6.188635e+001
9.255714e+002,6.550134e+001
9.265356e+002,6.725281e+001
9.274999e+002,6.370508e+001
9.284641e+002,6.004871e+001
9.294283e+002,5.858691e+001
9.303926e+002,5.897192e+001
9.313568e+002,6.035071e+001
9.323210e+002,6.234705e+001
9.332853e+002,6.341101e+001
9.342495e+002,5.982788e+001
9.352137e+002,5.363953e+001
9.361780e+002,4.831238e+001
9.371422e+002,4.538989e+001
9.381064e+002,4.509656e+001
9.390707e+002,4.688232e+001
9.400349e+002,4.992615e+001
9.409991e+002,5.342529e+001
9.419634e+002,5.866345e+001
9.429276e+002,6.216553e+001
9.438918e+002,6.162524e+001
9.448561e+002,5.964209e+001
9.458203e+002,6.083789e+001
9.467845e+002,6.722424e+001
9.477488e+002,7.483435e+001
9.487130e+002,8.365088e+001
9.496772e+002,8.989929e+001
9.506415e+002,8.800171e+001
9.516057e+002,7.952417e+001
9.525699e+002,7.167505e+001
9.535342e+002,7.143652e+001
9.544984e+002,7.718103e+001
9.554626e+002,7.796228e+001
9.564269e+002,7.422852e+001
9.573911e+002,7.208276e+001
9.583553e+002,7.262671e+001
9.593196e+002,7.523975e+001
9.602838e+002,7.969409e+001
9.612480e+002,8.654565e+001
9.622123e+002,9.124146e+001
9.631765e+002,9.135059e+001
9.641407e+002,9.098132e+001
9.651050e+002,9.270898e+001
9.660692e+002,9.466528e+001
9.670334e+002,9.285254e+001
9.679977e+002,8.525635e+001
9.689619e+002,7.634290e+001
9.699261e+002,7.409412e+001
9.708904e+002,7.594287e+001
9.718546e+002,7.790564e+001
9.728188e+002,7.878271e+001
9.737831e+002,7.896191e+001
9.747473e+002,7.924915e+001
9.757115e+002,7.991248e+001
9.766758e+002,8.122388e+001
9.776400e+002,8.615491e+001
9.786042e+002,8.981201e+001
9.795685e+002,8.885864e+001
9.805327e+002,8.548022e+001
9.814969e+002,8.378430e+001
9.824612e+002,8.580286e+001
9.834254e+002,8.876196e+001
9.843896e+002,8.810974e+001
9.853539e+002,8.624500e+001
9.863181e+002,8.610083e+001
9.872823e+002,8.710046e+001
9.882466e+002,8.759216e+001
9.892108e+002,8.705481e+001
9.901750e+002,8.760852e+001
9.911393e+002,9.423181e+001
9.921035e+002,1.091520e+002
9.930677e+002,1.207354e+002
9.940320e+002,1.277908e+002
9.949962e+002,1.340515e+002
9.959604e+002,1.426165e+002
9.969247e+002,1.539072e+002
9.978889e+002,1.666132e+002
9.988531e+002,1.808130e+002
9.998174e+002,1.918765e+002
1.000782e+003,1.989668e+002
1.001746e+003,2.025837e+002
1.002710e+003,2.016235e+002
1.003674e+003,1.962144e+002
1.004639e+003,1.899603e+002
1.005603e+003,1.894590e+002
1.006567e+003,1.950159e+002
1.007531e+003,1.997659e+002
1.008495e+003,2.036873e+002
1.009460e+003,2.073396e+002
1.010424e+003,2.122057e+002
1.011388e+003,2.176873e+002
1.012352e+003,2.201514e+002
1.013317e+003,2.179556e+002
1.014281e+003,2.134485e+002
1.015245e+003,2.069242e+002
1.016209e+003,1.984197e+002
1.017174e+003,1.878699e+002
1.018138e+003,1.757961e+002
1.019102e+003,1.630056e+002
1.020066e+003,1.502527e+002
1.021031e+003,1.385409e+002
1.021995e+003,1.277814e+002
1.022959e+003,1.171100e+002
1.023923e+003,1.108031e+002
1.024887e+003,1.122592e+002
1.025852e+003,1.147362e+002
1.026816e+003,1.062642e+002
1.027780e+003,8.387671e+001
1.028744e+003,6.882947e+001
1.029709e+003,6.713770e+001
1.030673e+003,6.715161e+001
1.031637e+003,6.556897e+001
1.032601e+003,6.297107e+001
1.033566e+003,6.132520e+001
1.034530e+003,6.159424e+001
1.035494e+003,6.229358e+001
1.036458e+003,6.056860e+001
1.037422e+003,5.813489e+001
1.038387e+003,5.875854e+001
1.039351e+003,6.196143e+001
1.040315e+003,6.475256e+001
1.041279e+003,6.529810e+001
1.042244e+003,6.441003e+001
1.043208e+003,6.388831e+001
1.044172e+003,6.306787e+001
1.045136e+003,6.152734e+001
1.046101e+003,5.838599e+001
1.047065e+003,5.645215e+001
1.048029e+003,5.774219e+001
1.048993e+003,6.143079e+001
1.049958e+003,6.524121e+001
1.050922e+003,6.910217e+001
1.051886e+003,7.216785e+001
1.052850e+003,7.277344e+001
1.053814e+003,7.216211e+001
1.054779e+003,7.193091e+001
1.055743e+003,7.221313e+001
1.056707e+003,7.179700e+001
1.057671e+003,6.908655e+001
1.058636e+003,6.383569e+001
1.059600e+003,6.245923e+001
1.060564e+003,6.991748e+001
1.061528e+003,7.660010e+001
1.062493e+003,8.045105e+001
1.063457e+003,8.137732e+001
1.064421e+003,8.002649e+001
1.065385e+003,7.691101e+001
1.066349e+003,7.135876e+001
1.067314e+003,5.910400e+001
1.068278e+003,4.928552e+001
1.069242e+003,5.018933e+001
1.070206e+003,5.751233e+001
1.071171e+003,6.397852e+001
1.072135e+003,6.600854e+001
1.073099e+003,6.540479e+001
1.074063e+003,6.600330e+001
1.075028e+003,6.836682e+001
1.075992e+003,7.065247e+001
1.076956e+003,7.373157e+001
1.077920e+003,7.373169e+001
1.078885e+003,6.817480e+001
1.079849e+003,6.049988e+001
1.080813e+003,5.641260e+001
1.081777e+003,5.726880e+001
1.082741e+003,5.936279e+001
1.083706e+003,5.975745e+001
1.084670e+003,5.964832e+001
1.085634e+003,6.012415e+001
1.086598e+003,6.057922e+001
1.087563e+003,5.978772e+001
1.088527e+003,5.767358e+001
1.089491e+003,5.618347e+001
1.090455e+003,5.778699e+001
1.091420e+003,6.203528e+001
1.092384e+003,6.433960e+001
1.093348e+003,6.311987e+001
1.094312e+003,6.127747e+001
1.095276e+003,6.180017e+001
1.096241e+003,6.426440e+001
1.097205e+003,6.523853e+001
1.098169e+003,6.300684e+001
1.099133e+003,6.057410e+001
1.100098e+003,5.915759e+001
1.101062e+003,5.881372e+001
1.102026e+003,5.987610e+001
1.102990e+003,6.216492e+001
1.103955e+003,6.499744e+001
1.104919e+003,6.777209e+001
1.105883e+003,7.057104e+001
1.106847e+003,7.445422e+001
1.107812e+003,7.921704e+001
1.108776e+003,8.238928e+001
1.109740e+003,8.325146e+001
1.110704e+003,8.386292e+001
1.111668e+003,8.657275e+001
1.112633e+003,9.161182e+001
1.113597e+003,9.709412e+001
1.114561e+003,1.026096e+002
1.115525e+003,1.068073e+002
1.116490e+003,1.092665e+002
1.117454e+003,1.102437e+002
1.118418e+003,1.090469e+002
1.119382e+003,1.078291e+002
1.120347e+003,1.105615e+002
1.121311e+003,1.187704e+002
1.122275e+003,1.271183e+002
1.123239e+003,1.266019e+002
1.124203e+003,1.195245e+002
1.125168e+003,1.176327e+002
1.126132e+003,1.230317e+002
1.127096e+003,1.312976e+002
1.128060e+003,1.399536e+002
1.129025e+003,1.480743e+002
1.129989e+003,1.524171e+002
1.130953e+003,1.496814e+002
1.131917e+003,1.491118e+002
1.132882e+003,1.553635e+002
1.133846e+003,1.630132e+002
1.134810e+003,1.686102e+002
1.135774e+003,1.729812e+002
1.136739e+003,1.781233e+002
1.137703e+003,1.851509e+002
1.138667e+003,1.952322e+002
1.139631e+003,2.121305e+002
1.140595e+003,2.345780e+002
1.141560e+003,2.523823e+002
1.142524e+003,2.635417e+002
1.143488e+003,2.788975e+002
1.144452e+003,3.066628e+002
1.145417e+003,3.440912e+002
1.146381e+003,3.810100e+002
1.147345e+003,4.153035e+002
1.148309e+003,4.530657e+002
1.149274e+003,4.993591e+002
1.150238e+003,5.467018e+002
1.151202e+003,5.934668e+002
1.152166e+003,6.389539e+002
1.153130e+003,6.831746e+002
1.154095e+003,7.247859e+002
1.155059e+003,7.588636e+002
1.156023e+003,7.803417e+002
1.156987e+003,7.893049e+002
1.157952e+003,7.898169e+002
1.158916e+003,7.841882e+002
1.159880e+003,7.704346e+002
1.160844e+003,7.430050e+002
1.161809e+003,7.041589e+002
1.162773e+003,6.619470e+002
1.163737e+003,6.163430e+002
1.164701e+003,5.684407e+002
1.165666e+003,5.116110e+002
1.166630e+003,4.614915e+002
1.167594e+003,4.233882e+002
1.168558e+003,3.955618e+002
1.169522e+003,3.759412e+002
1.170487e+003,3.634044e+002
1.171451e+003,3.578649e+002
1.172415e+003,3.597212e+002
1.173379e+003,3.671699e+002
1.174344e+003,3.738872e+002
1.175308e+003,3.811111e+002
1.176272e+003,3.814032e+002
1.177236e+003,3.687842e+002
1.178201e+003,3.515984e+002
1.179165e+003,3.401448e+002
1.180129e+003,3.336367e+002
1.181093e+003,3.242216e+002
1.182057e+003,3.081907e+002
1.183022e+003,2.934880e+002
1.183986e+003,2.829932e+002
1.184950e+003,2.752141e+002
1.185914e+003,2.684706e+002
1.186879e+003,2.631774e+002
1.187843e+003,2.616101e+002
1.188807e+003,2.653420e+002
1.189771e+003,2.724333e+002
1.190736e+003,2.788923e+002
1.191700e+003,2.846732e+002
1.192664e+003,2.884792e+002
1.193628e+003,2.915391e+002
1.194593e+003,2.923052e+002
1.195557e+003,2.884402e+002
1.196521e+003,2.809249e+002
1.197485e+003,2.738662e+002
1.198449e+003,2.683323e+002
1.199414e+003,2.624653e+002
1.200378e+003,2.541660e+002
1.201342e+003,2.465625e+002
1.202306e+003,2.434742e+002
1.203271e+003,2.416567e+002
1.204235e+003,2.337715e+002
1.205199e+003,2.170676e+002
1.206163e+003,1.980798e+002
1.207128e+003,1.877245e+002
1.208092e+003,1.867349e+002
1.209056e+003,1.815271e+002
1.210020e+003,1.699824e+002
1.210984e+003,1.594189e+002
1.211949e+003,1.537172e+002
1.212913e+003,1.484806e+002
1.213877e+003,1.371914e+002
1.214841e+003,1.200254e+002
1.215806e+003,1.058999e+002
1.216770e+003,9.854590e+001
1.217734e+003,9.427917e+001
1.218698e+003,9.042651e+001
1.219663e+003,8.663379e+001
1.220627e+003,8.255127e+001
1.221591e+003,7.829492e+001
1.222555e+003,7.471741e+001
1.223520e+003,7.287866e+001
1.224484e+003,7.242822e+001
1.225448e+003,6.947913e+001
1.226412e+003,6.127747e+001
1.227376e+003,5.633557e+001
1.228341e+003,5.604309e+001
1.229305e+003,5.654297e+001
1.230269e+003,5.571106e+001
1.231233e+003,5.407275e+001
1.232198e+003,5.329419e+001
1.233162e+003,5.430200e+001
1.234126e+003,5.649609e+001
1.235090e+003,5.934021e+001
1.236055e+003,6.175159e+001
1.237019e+003,6.315552e+001
1.237983e+003,6.307776e+001
1.238947e+003,6.069299e+001
1.239911e+003,5.623999e+001
1.240876e+003,5.257385e+001
1.241840e+003,5.401514e+001
1.242804e+003,6.117896e+001
1.243768e+003,6.335193e+001
1.244733e+003,5.336255e+001
1.245697e+003,4.798108e+001
1.246661e+003,4.993982e+001
1.247625e+003,5.352795e+001
1.248590e+003,5.485425e+001
1.249554e+003,5.527649e+001
1.250518e+003,5.878223e+001
1.251482e+003,6.680737e+001
1.252447e+003,7.550781e+001
1.253411e+003,8.182312e+001
1.254375e+003,8.635645e+001
1.255339e+003,8.913745e+001
1.256303e+003,9.073145e+001
1.257268e+003,9.263501e+001
1.258232e+003,9.472107e+001
1.259196e+003,9.634705e+001
1.260160e+003,9.727417e+001
1.261125e+003,9.769751e+001
1.262089e+003,1.023745e+002
1.263053e+003,1.148357e+002
1.264017e+003,1.257760e+002
1.264982e+003,1.350396e+002
1.265946e+003,1.412275e+002
1.266910e+003,1.425093e+002
1.267874e+003,1.394673e+002
1.268839e+003,1.343580e+002
1.269803e+003,1.287196e+002
1.270767e+003,1.225623e+002
1.271731e+003,1.156230e+002
1.272695e+003,1.085730e+002
1.273660e+003,1.041587e+002
1.274624e+003,1.019843e+002
1.275588e+003,9.904419e+001
1.276552e+003,9.495679e+001
1.277517e+003,9.040259e+001
1.278481e+003,8.488062e+001
1.279445e+003,7.784265e+001
1.280409e+003,7.221606e+001
1.281374e+003,6.934253e+001
1.282338e+003,6.807715e+001
1.283302e+003,6.789429e+001
1.284266e+003,6.847107e+001
1.285230e+003,7.086194e+001
1.286195e+003,7.386353e+001
1.287159e+003,7.321533e+001
1.288123e+003,6.580859e+001
1.289087e+003,5.529834e+001
1.290052e+003,5.101184e+001
1.291016e+003,5.469580e+001
1.291980e+003,5.546411e+001
1.292944e+003,4.912207e+001
1.293909e+003,4.366235e+001
1.294873e+003,4.433362e+001
1.295837e+003,4.807178e+001
1.296801e+003,4.993848e+001
1.297766e+003,4.941479e+001
1.298730e+003,4.986743e+001
1.299694e+003,5.336096e+001
1.300658e+003,5.622302e+001
1.301622e+003,5.380933e+001
1.302587e+003,4.930542e+001
1.303551e+003,4.751929e+001
1.304515e+003,4.948779e+001
1.305479e+003,5.239880e+001
1.306444e+003,5.329175e+001
1.307408e+003,5.280469e+001
1.308372e+003,5.514941e+001
1.309336e+003,6.235864e+001
1.310301e+003,6.574915e+001
1.311265e+003,6.276294e+001
1.312229e+003,5.986377e+001
1.313193e+003,5.918042e+001
1.314157e+003,5.883179e+001
1.315122e+003,5.633777e+001
1.316086e+003,5.150452e+001
1.317050e+003,4.588550e+001
1.318014e+003,4.076929e+001
1.318979e+003,3.772021e+001
1.319943e+003,3.962427e+001
1.320907e+003,4.632483e+001
1.321871e+003,5.151001e+001
1.322836e+003,5.335107e+001
1.323800e+003,5.437988e+001
1.324764e+003,5.640796e+001
1.325728e+003,5.863660e+001
1.326693e+003,5.901001e+001
1.327657e+003,5.687207e+001
1.328621e+003,5.433032e+001
1.329585e+003,5.410107e+001
1.330549e+003,5.589709e+001
1.331514e+003,5.773230e+001
1.332478e+003,5.818188e+001
1.333442e+003,5.619751e+001
1.334406e+003,5.288647e+001
1.335371e+003,5.058521e+001
1.336335e+003,5.065002e+001
1.337299e+003,5.202905e+001
1.338263e+003,5.227490e+001
1.339228e+003,5.107251e+001
1.340192e+003,5.223291e+001
1.341156e+003,5.764807e+001
1.342120e+003,6.237927e+001
1.343084e+003,6.504565e+001
1.344049e+003,6.549951e+001
1.345013e+003,6.424902e+001
1.345977e+003,6.213379e+001
1.346941e+003,5.954700e+001
1.347906e+003,5.644580e+001
1.348870e+003,5.409351e+001
1.349834e+003,5.401685e+001
1.350798e+003,5.425488e+001
1.351763e+003,5.163220e+001
1.352727e+003,4.701880e+001
1.353691e+003,4.401733e+001
1.354655e+003,4.427686e+001
1.355620e+003,4.581152e+001
1.356584e+003,4.666492e+001
1.357548e+003,4.721179e+001
1.358512e+003,4.759814e+001
1.359476e+003,4.639233e+001
1.360441e+003,4.506421e+001
1.361405e+003,4.456958e+001
1.362369e+003,4.454248e+001
1.363333e+003,4.533350e+001
1.364298e+003,4.633325e+001
1.365262e+003,4.679761e+001
1.366226e+003,4.655225e+001
1.367190e+003,4.585498e+001
1.368155e+003,4.491553e+001
1.369119e+003,4.396045e+001
1.370083e+003,4.406250e+001
1.371047e+003,4.647241e+001
1.372011e+003,4.669067e+001
1.372976e+003,3.957007e+001
1.373940e+003,3.479761e+001
1.374904e+003,3.786450e+001
1.375868e+003,4.487695e+001
1.376833e+003,5.155103e+001
1.377797e+003,5.676733e+001
1.378761e+003,5.928589e+001
1.379725e+003,5.842920e+001
1.380690e+003,5.621851e+001
1.381654e+003,5.428394e+001
1.382618e+003,5.295508e+001
1.383582e+003,5.245996e+001
1.384547e+003,5.279126e+001
1.385511e+003,5.374536e+001
1.386475e+003,5.484839e+001
1.387439e+003,5.601318e+001
1.388403e+003,5.754443e+001
1.389368e+003,5.932593e+001
1.390332e+003,6.050781e+001
1.391296e+003,6.131079e+001
1.392260e+003,6.252441e+001
1.393225e+003,6.556567e+001
1.394189e+003,6.722632e+001
1.395153e+003,6.446997e+001
1.396117e+003,5.971045e+001
1.397082e+003,5.677441e+001
1.398046e+003,5.691553e+001
1.399010e+003,5.867969e+001
1.399974e+003,6.014771e+001
1.400938e+003,6.011890e+001
1.401903e+003,5.812378e+001
1.402867e+003,5.612573e+001
1.403831e+003,5.700562e+001
1.404795e+003,5.881152e+001
1.405760e+003,6.317749e+001
1.406724e+003,7.306030e+001
1.407688e+003,8.051978e+001
1.408652e+003,7.612744e+001
1.409617e+003,6.272681e+001
1.410581e+003,5.262183e+001
1.411545e+003,5.060718e+001
1.412509e+003,5.291772e+001
1.413474e+003,5.732153e+001
1.414438e+003,6.113647e+001
1.415402e+003,6.183105e+001
1.416366e+003,6.063696e+001
1.417330e+003,5.970532e+001
1.418295e+003,5.977417e+001
1.419259e+003,6.083447e+001
1.420223e+003,6.270386e+001
1.421187e+003,6.452124e+001
1.422152e+003,6.478564e+001
1.423116e+003,6.367236e+001
1.424080e+003,6.448047e+001
1.425044e+003,6.705176e+001
1.426009e+003,7.078198e+001
1.426973e+003,7.808154e+001
1.427937e+003,8.472168e+001
1.428901e+003,8.511377e+001
1.429865e+003,8.024438e+001
1.430830e+003,7.580688e+001
1.431794e+003,7.508154e+001
1.432758e+003,7.600928e+001
1.433722e+003,7.580176e+001
1.434687e+003,7.573804e+001
1.435651e+003,7.927344e+001
1.436615e+003,8.554077e+001
1.437579e+003,8.920728e+001
1.438544e+003,8.948218e+001
1.439508e+003,8.834692e+001
1.440472e+003,8.748535e+001
1.441436e+003,8.746338e+001
1.442401e+003,8.820337e+001
1.443365e+003,8.924976e+001
1.444329e+003,8.990698e+001
1.445293e+003,9.005566e+001
1.446257e+003,8.984082e+001
1.447222e+003,8.853589e+001
1.448186e+003,8.625659e+001
1.449150e+003,8.462939e+001
1.450114e+003,8.363525e+001
1.451079e+003,8.235889e+001
1.452043e+003,8.074463e+001
1.453007e+003,7.979150e+001
1.453971e+003,7.995166e+001
1.454936e+003,8.079346e+001
1.455900e+003,8.294214e+001
1.456864e+003,8.801270e+001
1.457828e+003,9.127100e+001
1.458792e+003,8.678540e+001
1.459757e+003,8.075757e+001
1.460721e+003,7.850024e+001
1.461685e+003,7.859863e+001
1.462649e+003,7.783521e+001
1.463614e+003,7.590063e+001
1.464578e+003,7.524683e+001
1.465542e+003,7.800073e+001
1.466506e+003,8.212134e+001
1.467471e+003,8.262427e+001
1.468435e+003,7.990332e+001
1.469399e+003,7.810498e+001
1.470363e+003,7.438208e+001
1.471328e+003,7.340576e+001
1.472292e+003,7.793286e+001
1.473256e+003,8.164209e+001
1.474220e+003,8.054175e+001
1.475184e+003,7.740649e+001
1.476149e+003,7.677637e+001
1.477113e+003,7.938477e+001
1.478077e+003,8.270679e+001
1.479041e+003,8.523511e+001
1.480006e+003,8.756006e+001
1.480970e+003,8.909570e+001
1.481934e+003,8.801904e+001
1.482898e+003,8.895435e+001
1.483863e+003,9.366724e+001
1.484827e+003,9.714282e+001
1.485791e+003,9.773657e+001
1.486755e+003,9.870044e+001
1.487719e+003,1.022957e+002
1.488684e+003,1.076743e+002
1.489648e+003,1.133279e+002
1.490612e+003,1.192954e+002
1.491576e+003,1.262659e+002
1.492541e+003,1.346025e+002
1.493505e+003,1.432173e+002
1.494469e+003,1.496133e+002
1.495433e+003,1.530999e+002
1.496398e+003,1.567317e+002
1.497362e+003,1.622007e+002
1.498326e+003,1.696526e+002
1.499290e+003,1.782319e+002
1.500255e+003,1.890837e+002
1.501219e+003,2.043062e+002
1.502183e+003,2.228777e+002
1.503147e+003,2.398994e+002
1.504111e+003,2.532729e+002
1.505076e+003,2.703879e+002
1.506040e+003,2.963096e+002
1.507004e+003,3.278533e+002
1.507968e+003,3.623027e+002
1.508933e+003,3.991497e+002
1.509897e+003,4.372388e+002
1.510861e+003,4.780374e+002
1.511825e+003,5.244460e+002
1.512790e+003,5.768220e+002
1.513754e+003,6.350923e+002
1.514718e+003,7.032087e+002
1.515682e+003,7.800698e+002
1.516646e+003,8.506702e+002
1.517611e+003,9.143044e+002
1.518575e+003,9.738992e+002
1.519539e+003,1.036769e+003
1.520503e+003,1.091324e+003
1.521468e+003,1.132129e+003
1.522432e+003,1.159220e+003
1.523396e+003,1.173657e+003
1.524360e+003,1.175326e+003
1.525325e+003,1.162681e+003
1.526289e+003,1.135031e+003
1.527253e+003,1.097541e+003
1.528217e+003,1.059385e+003
1.529182e+003,1.021592e+003
1.530146e+003,9.711321e+002
1.531110e+003,9.022056e+002
1.532074e+003,8.288687e+002
1.533039e+003,7.469351e+002
1.534003e+003,6.626870e+002
1.534967e+003,5.778320e+002
1.535931e+003,4.973125e+002
1.536896e+003,4.240439e+002
1.537860e+003,3.598472e+002
1.538824e+003,3.066003e+002
1.539788e+003,2.645085e+002
1.540752e+003,2.308340e+002
1.541717e+003,2.028840e+002
1.542681e+003,1.812070e+002
1.543645e+003,1.651772e+002
1.544609e+003,1.583682e+002
1.545573e+003,1.516448e+002
1.546538e+003,1.438745e+002
1.547502e+003,1.343516e+002
1.548466e+003,1.223777e+002
1.549430e+003,1.118313e+002
1.550395e+003,1.062151e+002
1.551359e+003,1.039980e+002
1.552323e+003,1.009065e+002
1.553287e+003,9.578247e+001
1.554252e+003,9.274976e+001
1.555216e+003,9.602319e+001
1.556180e+003,1.015767e+002
1.557144e+003,9.953809e+001
1.558109e+003,9.002100e+001
1.559073e+003,8.342773e+001
1.560037e+003,7.919727e+001
1.561001e+003,7.577148e+001
1.561966e+003,7.540479e+001
1.562930e+003,7.619238e+001
1.563894e+003,7.464209e+001
1.564858e+003,7.177710e+001
1.565823e+003,7.206909e+001
1.566787e+003,7.589795e+001
1.567751e+003,7.661328e+001
1.568715e+003,6.966650e+001
1.569679e+003,6.212476e+001
1.570644e+003,6.312915e+001
1.571608e+003,6.919946e+001
1.572572e+003,7.256299e+001
1.573536e+003,7.373047e+001
1.574500e+003,7.372827e+001
1.575465e+003,7.118262e+001
1.576429e+003,6.930225e+001
1.577393e+003,7.148389e+001
1.578357e+003,7.504858e+001
1.579322e+003,7.510645e+001
1.580286e+003,7.197559e+001
1.581250e+003,6.994360e+001
1.582214e+003,7.036426e+001
1.583179e+003,7.179297e+001
1.584143e+003,7.383423e+001
1.585107e+003,7.447900e+001
1.586071e+003,7.149316e+001
1.587036e+003,6.739844e+001
1.588000e+003,6.602710e+001
1.588964e+003,6.735498e+001
1.589928e+003,7.101318e+001
1.590893e+003,7.882104e+001
1.591857e+003,8.724829e+001
1.592821e+003,9.038354e+001
1.593785e+003,8.934253e+001
1.594750e+003,8.962744e+001
1.595714e+003,9.166553e+001
1.596678e+003,9.296216e+001
1.597642e+003,9.239063e+001
1.598606e+003,9.125830e+001
1.599571e+003,8.983960e+001
1.600535e+003,8.965698e+001
1.601499e+003,9.350464e+001
1.602463e+003,1.002385e+002
1.603427e+003,1.052314e+002
1.604392e+003,1.068359e+002
1.605356e+003,1.053174e+002
1.606320e+003,9.935156e+001
1.607284e+003,9.111304e+001
1.608249e+003,8.735864e+001
1.609213e+003,8.832593e+001
1.610177e+003,8.659790e+001
1.611141e+003,7.976221e+001
1.612106e+003,7.325342e+001
1.613070e+003,6.949292e+001
1.614034e+003,6.700439e+001
1.614998e+003,6.534644e+001
1.615963e+003,6.411401e+001
1.616927e+003,6.172314e+001
1.617891e+003,5.821729e+001
1.618855e+003,5.699170e+001
1.619820e+003,6.013135e+001
1.620784e+003,6.264551e+001
1.621748e+003,5.789697e+001
1.622712e+003,4.898193e+001
1.623677e+003,4.629028e+001
1.624641e+003,5.112085e+001
1.625605e+003,5.574365e+001
1.626569e+003,5.571216e+001
1.627533e+003,5.431299e+001
1.628498e+003,5.512061e+001
1.629462e+003,5.616431e+001
1.630426e+003,5.526855e+001
1.631390e+003,5.280054e+001
1.632354e+003,4.940112e+001
1.633319e+003,4.552197e+001
1.634283e+003,4.390381e+001
1.635247e+003,4.716895e+001
1.636211e+003,5.127417e+001
1.637176e+003,4.837549e+001
1.638140e+003,3.962109e+001
1.639104e+003,3.542749e+001
1.640068e+003,3.667798e+001
1.641033e+003,3.806909e+001
1.641997e+003,3.823364e+001
1.642961e+003,3.959302e+001
1.643925e+003,4.398340e+001
1.644890e+003,4.929517e+001
1.645854e+003,5.376196e+001
1.646818e+003,5.693774e+001
1.647782e+003,5.831128e+001
1.648747e+003,5.780811e+001
1.649711e+003,5.738257e+001
1.650675e+003,5.955859e+001
1.651639e+003,6.308643e+001
1.652604e+003,6.363428e+001
1.653568e+003,6.074609e+001
1.654532e+003,5.861206e+001
1.655496e+003,5.798926e+001
1.656460e+003,5.618945e+001
1.657425e+003,5.164722e+001
1.658389e+003,4.777222e+001
1.659353e+003,4.658740e+001
1.660317e+003,4.661206e+001
1.661281e+003,4.641260e+001
1.662246e+003,4.558057e+001
1.663210e+003,4.432568e+001
1.664174e+003,4.310669e+001
1.665138e+003,4.190454e+001
1.666103e+003,4.001416e+001
1.667067e+003,3.777075e+001
1.668031e+003,3.704004e+001
1.668995e+003,3.788403e+001
1.669960e+003,3.733325e+001
1.670924e+003,3.541333e+001
1.671888e+003,3.218823e+001
1.672852e+003,2.450122e+001
1.673817e+003,1.892432e+001
1.674781e+003,2.126709e+001
1.675745e+003,2.629614e+001
1.676709e+003,2.804541e+001
1.677674e+003,2.722656e+001
1.678638e+003,2.796851e+001
1.679602e+003,3.153955e+001
1.680566e+003,3.502905e+001
1.681531e+003,3.756738e+001
1.682495e+003,3.830029e+001
1.683459e+003,3.265552e+001
1.684423e+003,2.163232e+001
1.685387e+003,1.637842e+001
1.686352e+003,1.895825e+001
1.687316e+003,2.133203e+001
1.688280e+003,2.031177e+001
1.689244e+003,1.962183e+001
1.690208e+003,2.301855e+001
1.691173e+003,2.690527e+001
1.692137e+003,2.803711e+001
1.693101e+003,2.739575e+001
1.694065e+003,2.545483e+001
1.695030e+003,2.122607e+001
1.695994e+003,1.827881e+001
1.696958e+003,2.053564e+001
1.697922e+003,2.428638e+001
1.698887e+003,2.497778e+001
1.699851e+003,2.363452e+001
1.700815e+003,2.226270e+001
1.701779e+003,2.054517e+001
1.702744e+003,1.813159e+001
1.703708e+003,1.548511e+001
1.704672e+003,1.500830e+001
1.705636e+003,1.820923e+001
1.706601e+003,2.168213e+001
1.707565e+003,2.176343e+001
1.708529e+003,2.019653e+001
1.709493e+003,1.999756e+001
1.710458e+003,2.142480e+001
1.711422e+003,2.329639e+001
1.712386e+003,2.686621e+001
1.713350e+003,3.037158e+001
1.714314e+003,3.283423e+001
1.715279e+003,3.210620e+001
1.716243e+003,2.257324e+001
1.717207e+003,7.000732e+000
1.718171e+003,-8.991699e-001
1.719135e+003,2.875732e+000
1.720100e+003,9.498779e+000
1.721064e+003,1.334180e+001
1.722028e+003,1.490186e+001
1.722992e+003,1.577734e+001
1.723957e+003,1.691602e+001
1.724921e+003,1.698633e+001
1.725885e+003,1.385107e+001
1.726849e+003,1.115894e+001
1.727814e+003,1.225928e+001
1.728778e+003,1.417480e+001
1.729742e+003,1.525586e+001
1.730706e+003,1.612793e+001
1.731671e+003,1.666748e+001
1.732635e+003,1.570581e+001
1.733599e+003,1.321411e+001
1.734563e+003,1.026685e+001
1.735528e+003,6.968750e+000
1.736492e+003,2.883545e+000
1.737456e+003,-3.466797e-001
1.738420e+003,-7.546387e-001
1.739385e+003,5.981445e-001
1.740349e+003,3.387695e+000
1.741313e+003,9.666016e+000
1.742277e+003,1.100391e+001
1.743241e+003,3.498291e+000
1.744206e+003,-6.940918e-001
1.745170e+003,1.198730e+000
1.746134e+003,4.116455e+000
1.747098e+003,6.042236e+000
1.748063e+003,6.722900e+000
1.749027e+003,5.493896e+000
1.749991e+003,3.443115e+000
1.750955e+003,2.640137e+000
1.751919e+003,3.576172e+000
1.752884e+003,5.531982e+000
1.753848e+003,7.966553e+000
1.754812e+003,9.347412e+000
1.755776e+003,6.855957e+000
1.756741e+003,1.656738e+000
1.757705e+003,7.561035e-001
1.758669e+003,4.663574e+000
1.759633e+003,8.809082e+000
1.760598e+003,1.422681e+001
1.761562e+003,1.587158e+001
1.762526e+003,1.075977e+001
1.763490e+003,5.085449e+000
1.764455e+003,3.026611e+000
1.765419e+003,3.712402e+000
1.766383e+003,4.209717e+000
1.767347e+003,4.133301e+000
1.768312e+003,6.943115e+000
1.769276e+003,1.408936e+001
1.770240e+003,1.925928e+001
1.771204e+003,1.641602e+001
1.772168e+003,9.779053e+000
1.773133e+003,6.695068e+000
1.774097e+003,6.738037e+000
1.775061e+003,5.964355e+000
1.776025e+003,2.695801e+000
1.776990e+003,-4.787598e-001
1.777954e+003,-2.682617e+000
1.778918e+003,-7.805176e-001
1.779882e+003,1.055273e+001
1.780846e+003,2.277002e+001
1.781811e+003,2.516772e+001
1.782775e+003,2.016040e+001
1.783739e+003,1.389429e+001
1.784703e+003,7.180664e+000
1.785668e+003,4.114014e+000
1.786632e+003,7.434326e+000
1.787596e+003,1.077490e+001
1.788560e+003,1.053369e+001
1.789525e+003,9.677246e+000
1.790489e+003,1.070679e+001
1.791453e+003,1.291870e+001
1.792417e+003,1.593018e+001
1.793382e+003,1.929614e+001
1.794346e+003,1.933252e+001
1.795310e+003,1.368750e+001
1.796274e+003,6.717041e+000
1.797239e+003,4.015869e+000
1.798203e+003,5.737793e+000
1.799167e+003,8.440918e+000
1.800131e+003,1.029346e+001
1.801095e+003,9.624268e+000
1.802060e+003,8.301514e+000
1.803024e+003,6.084229e+000
1.803988e+003,-1.074463e+000
1.804952e+003,-5.769531e+000
1.805917e+003,-1.104004e+000
1.806881e+003,4.756592e+000
1.807845e+003,2.382080e+000
1.808809e+003,-4.346924e+000
1.809773e+003,-6.041504e+000
1.810738e+003,-1.141113e+000
1.811702e+003,4.507813e+000
1.812666e+003,7.124756e+000
1.813630e+003,8.718018e+000
1.814595e+003,1.256860e+001
1.815559e+003,1.662646e+001
1.816523e+003,1.193604e+001
1.817487e+003,-2.675293e+000
1.818452e+003,-8.891846e+000
1.819416e+003,-1.815430e+000
1.820380e+003,5.110352e+000
1.821344e+003,8.453125e+000
1.822309e+003,8.261475e+000
1.823273e+003,2.402832e+000
1.824237e+003,-3.497070e+000
1.825201e+003,-4.477783e+000
1.826166e+003,-1.618164e+000
1.827130e+003,3.355957e+000
1.828094e+003,9.535156e+000
1.829058e+003,1.200684e+001
1.830022e+003,7.614258e+000
1.830987e+003,2.483154e+000
1.831951e+003,2.418213e+000
1.832915e+003,4.196289e+000
1.833879e+003,2.351074e+000
1.834844e+003,-1.784912e+000
1.835808e+003,-3.417725e+000
1.836772e+003,-1.784180e+000
1.837736e+003,9.458008e-001
1.838700e+003,3.378174e+000
1.839665e+003,4.452637e+000
1.840629e+003,3.573486e+000
1.841593e+003,1.678223e+000
1.842557e+003,-5.004883e-002
1.843522e+003,-1.679443e+000
1.844486e+003,-4.326904e+000
1.845450e+003,-8.804688e+000
1.846414e+003,-9.839355e+000
1.847379e+003,-6.551514e+000
1.848343e+003,-4.724365e+000
1.849307e+003,-6.016602e+000
1.850271e+003,-8.083740e+000
1.851236e+003,-9.426025e+000
1.852200e+003,-9.244873e+000
1.853164e+003,-7.710205e+000
1.854128e+003,-5.943604e+000
1.855093e+003,-3.743652e+000
1.856057e+003,-4.997559e-001
1.857021e+003,1.038574e+000
1.857985e+003,-2.302490e+000
1.858949e+003,-8.065186e+000
1.859914e+003,-1.253638e+001
1.860878e+003,-1.508618e+001
1.861842e+003,-1.324487e+001
1.862806e+003,-7.279541e+000
1.863771e+003,-1.551514e+000
1.864735e+003,3.443115e+000
1.865699e+003,4.545654e+000
1.866663e+003,-1.192383e+000
1.867627e+003,-6.133545e+000
1.868592e+003,-3.153564e+000
1.869556e+003,2.740479e+000
1.870520e+003,4.319824e+000
1.871484e+003,1.840332e+000
1.872449e+003,-2.694580e+000
1.873413e+003,-7.146484e+000
1.874377e+003,-8.580322e+000
1.875341e+003,-8.665283e+000
1.876306e+003,-7.807129e+000
1.877270e+003,-5.849854e+000
1.878234e+003,-4.070557e+000
1.879198e+003,-3.054199e+000
1.880163e+003,-2.673096e+000
1.881127e+003,-2.993408e+000
1.882091e+003,-3.419678e+000
1.883055e+003,-2.239014e+000
1.884020e+003,9.074707e-001
1.884984e+003,3.310303e+000
1.885948e+003,2.537842e+000
1.886912e+003,1.342773e-001
1.887876e+003,-6.625977e-001
1.888841e+003,1.176758e-001
1.889805e+003,6.467285e-001
1.890769e+003,9.685059e-001
1.891733e+003,5.969238e-001
1.892698e+003,-2.388672e+000
1.893662e+003,-3.553711e+000
1.894626e+003,7.990723e-001
1.895590e+003,5.339355e+000
1.896554e+003,7.069824e+000
1.897519e+003,7.641357e+000
1.898483e+003,7.593018e+000
1.899447e+003,6.343750e+000
1.900411e+003,4.878174e+000
1.901376e+003,3.754883e+000
1.902340e+003,2.506348e+000
1.903304e+003,2.346191e-001
1.904268e+003,-1.514893e+000
1.905233e+003,-7.202148e-002
1.906197e+003,1.565186e+000
1.907161e+003,-3.964844e-001
1.908125e+003,-3.635986e+000
1.909090e+003,-5.096191e+000
1.910054e+003,-4.834961e+000
1.911018e+003,-2.319824e+000
1.911982e+003,2.486572e+000
1.912947e+003,5.505371e+000
1.913911e+003,3.432861e+000
1.914875e+003,-9.379883e-001
1.915839e+003,-3.928467e+000
1.916803e+003,-6.032227e+000
1.917768e+003,-4.587402e+000
1.918732e+003,2.404297e+000
1.919696e+003,4.439941e+000
1.920660e+003,-7.402344e-001
1.921625e+003,-2.688965e+000
1.922589e+003,2.803467e+000
1.923553e+003,7.103516e+000
1.924517e+003,3.504639e+000
1.925481e+003,-1.008545e+000
1.926446e+003,1.035156e+000
1.927410e+003,6.217773e+000
1.928374e+003,6.530762e+000
1.929338e+003,1.306641e+000
1.930303e+003,-1.586426e+000
1.931267e+003,2.727295e+000
1.932231e+003,5.614502e+000
1.933195e+003,-1.933838e+000
1.934160e+003,-8.637207e+000
1.935124e+003,-3.604980e+000
1.936088e+003,4.121826e+000
1.937052e+003,4.322266e+000
1.938017e+003,-5.688477e-001
1.938981e+003,-5.553223e+000
1.939945e+003,-8.907715e+000
1.940909e+003,-8.656006e+000
1.941874e+003,-4.588135e+000
1.942838e+003,-9.616699e-001
1.943802e+003,-8.232422e-001
1.944766e+003,-1.854248e+000
1.945730e+003,-1.678711e+000
1.946695e+003,-1.149658e+000
1.947659e+003,-9.296875e-001
1.948623e+003,-1.285156e+000
1.949587e+003,-2.519287e+000
1.950552e+003,-4.815186e+000
1.951516e+003,-4.413330e+000
1.952480e+003,2.224121e+000
1.953444e+003,6.619141e+000
1.954408e+003,-3.515625e-002
1.955373e+003,-1.067749e+001
1.956337e+003,-1.421289e+001
1.957301e+003,-1.119507e+001
1.958265e+003,-6.984863e+000
1.959230e+003,-1.193115e+000
1.960194e+003,2.684814e+000
1.961158e+003,-2.128906e-001
1.962122e+003,-2.085693e+000
1.963087e+003,2.660400e+000
1.964051e+003,5.141602e+000
1.965015e+003,-2.586182e+000
1.965979e+003,-1.045776e+001
1.966944e+003,-6.947266e+000
1.967908e+003,1.681641e+000
1.968872e+003,2.607666e+000
1.969836e+003,-4.175537e+000
1.970801e+003,-8.688477e+000
1.971765e+003,-6.618164e+000
1.972729e+003,-2.629150e+000
1.973693e+003,-7.104492e-001
1.974657e+003,7.192383e-001
1.975622e+003,4.417725e+000
1.976586e+003,8.603760e+000
1.977550e+003,9.060303e+000
1.978514e+003,6.879150e+000
1.979479e+003,6.854736e+000
1.980443e+003,9.272217e+000
1.981407e+003,1.034180e+001
1.982371e+003,9.075439e+000
1.983335e+003,6.479492e+000
1.984300e+003,2.177002e+000
1.985264e+003,-1.404785e+000
1.986228e+003,6.918945e-001
1.987192e+003,7.034912e+000
1.988157e+003,1.043408e+001
1.989121e+003,1.126953e+001
1.990085e+003,9.157715e+000
1.991049e+003,1.492676e+000
1.992014e+003,-2.508301e+000
1.992978e+003,8.347168e-001
1.993942e+003,3.188721e+000
1.994906e+003,6.525879e-001
1.995871e+003,-2.669678e+000
1.996835e+003,-4.568848e+000
1.997799e+003,-4.147461e+000
1.998763e+003,8.564453e-001
1.999728e+003,8.220947e+000
