5.003444e+002,4.143161e+001
5.013087e+002,4.175575e+001
5.022729e+002,4.111201e+001
5.032371e+002,4.013928e+001
5.042014e+002,4.076204e+001
5.051656e+002,4.270840e+001
5.061298e+002,4.435895e+001
5.070941e+002,4.413641e+001
5.080583e+002,4.147134e+001
5.090225e+002,3.971075e+001
5.099868e+002,3.932736e+001
5.109510e+002,3.902776e+001
5.119152e+002,3.788678e+001
5.128795e+002,3.577763e+001
5.138437e+002,3.464314e+001
5.148079e+002,3.647656e+001
5.157722e+002,3.825725e+001
5.167364e+002,3.867973e+001
5.177006e+002,3.757430e+001
5.186649e+002,3.573575e+001
5.196291e+002,3.366254e+001
5.205933e+002,3.197392e+001
5.215576e+002,3.139944e+001
5.225218e+002,3.181483e+001
5.234860e+002,3.261055e+001
5.244503e+002,3.284378e+001
5.254145e+002,3.252559e+001
5.263787e+002,3.164801e+001
5.273430e+002,2.950807e+001
5.283072e+002,2.727251e+001
5.292714e+002,2.665282e+001
5.302357e+002,2.850378e+001
5.311999e+002,2.984346e+001
5.321641e+002,3.065599e+001
5.331284e+002,3.097522e+001
5.340926e+002,3.057054e+001
5.350568e+002,2.923763e+001
5.360211e+002,2.779855e+001
5.369853e+002,2.714798e+001
5.379495e+002,2.691888e+001
5.389138e+002,2.694002e+001
5.398780e+002,2.704903e+001
5.408422e+002,2.705161e+001
5.418065e+002,2.625507e+001
5.427707e+002,2.480833e+001
5.437349e+002,2.387732e+001
5.446992e+002,2.394643e+001
5.456634e+002,2.459033e+001
5.466276e+002,2.433069e+001
5.475919e+002,2.192792e+001
5.485561e+002,2.019890e+001
5.495203e+002,1.938489e+001
5.504846e+002,1.915848e+001
5.514488e+002,1.914662e+001
5.524130e+002,1.943834e+001
5.533773e+002,1.965750e+001
5.543415e+002,1.955249e+001
5.553057e+002,1.932454e+001
5.562700e+002,1.907915e+001
5.572342e+002,1.887148e+001
5.581984e+002,1.882343e+001
5.591627e+002,1.992752e+001
5.601269e+002,2.158305e+001
5.610911e+002,2.196304e+001
5.620554e+002,1.997116e+001
5.630196e+002,1.598419e+001
5.639838e+002,1.385840e+001
5.649481e+002,1.506898e+001
5.659123e+002,1.598079e+001
5.668765e+002,1.586937e+001
5.678408e+002,1.518864e+001
5.688050e+002,1.510687e+001
5.697692e+002,1.645546e+001
5.707335e+002,1.728024e+001
5.716977e+002,1.692946e+001
5.726619e+002,1.585641e+001
5.736262e+002,1.461597e+001
5.745904e+002,1.354327e+001
5.755546e+002,1.271375e+001
5.765189e+002,1.177199e+001
5.774831e+002,1.094666e+001
5.784473e+002,1.114783e+001
5.794116e+002,1.302528e+001
5.803758e+002,1.633563e+001
5.813400e+002,1.665765e+001
5.823043e+002,1.294461e+001
5.832685e+002,9.577179e+000
5.842327e+002,8.085419e+000
5.851970e+002,8.350769e+000
5.861612e+002,9.152939e+000
5.871254e+002,1.114279e+001
5.880897e+002,1.265839e+001
5.890539e+002,1.335898e+001
5.900181e+002,1.331416e+001
5.909824e+002,1.257407e+001
5.919466e+002,1.083289e+001
5.929108e+002,9.303543e+000
5.938751e+002,9.519760e+000
5.948393e+002,1.063803e+001
5.958035e+002,1.124001e+001
5.967678e+002,1.032549e+001
5.977320e+002,8.317947e+000
5.986962e+002,8.647537e+000
5.996605e+002,1.126837e+001
6.006247e+002,1.319492e+001
6.015889e+002,1.255721e+001
6.025532e+002,9.613297e+000
6.035174e+002,8.035706e+000
6.044816e+002,9.573715e+000
6.054459e+002,1.073897e+001
6.064101e+002,1.074892e+001
6.073743e+002,1.008913e+001
6.083386e+002,9.708862e+000
6.093028e+002,1.009973e+001
6.102670e+002,1.099315e+001
6.112313e+002,1.261902e+001
6.121955e+002,1.429614e+001
6.131597e+002,1.509079e+001
6.141240e+002,1.437003e+001
6.150882e+002,1.249077e+001
6.160524e+002,1.074342e+001
6.170167e+002,9.167328e+000
6.179809e+002,8.214554e+000
6.189451e+002,8.304642e+000
6.199094e+002,9.160049e+000
6.208736e+002,9.030930e+000
6.218378e+002,6.309143e+000
6.228021e+002,4.675705e+000
6.237663e+002,5.445679e+000
6.247305e+002,7.277725e+000
6.256948e+002,7.742050e+000
6.266590e+002,5.059830e+000
6.276232e+002,2.639038e+000
6.285875e+002,2.623810e+000
6.295517e+002,3.975754e+000
6.305159e+002,5.950592e+000
6.314802e+002,8.007599e+000
6.324444e+002,9.689270e+000
6.334086e+002,9.559097e+000
6.343729e+002,8.183456e+000
6.353371e+002,6.237244e+000
6.363013e+002,3.680756e+000
6.372656e+002,9.999542e-001
6.382298e+002,4.663086e-002
6.391940e+002,2.358276e+000
6.401583e+002,4.561890e+000
6.411225e+002,7.508728e+000
6.420867e+002,1.011385e+001
6.430510e+002,1.073878e+001
6.440152e+002,8.263412e+000
6.449794e+002,5.696716e+000
6.459437e+002,4.549103e+000
6.469079e+002,4.011932e+000
6.478721e+002,3.606552e+000
6.488364e+002,3.136658e+000
6.498006e+002,2.677994e+000
6.507648e+002,2.150101e+000
6.517291e+002,1.704681e+000
6.526933e+002,2.096161e+000
6.536575e+002,3.534409e+000
6.546218e+002,5.088913e+000
6.555860e+002,4.872238e+000
6.565502e+002,1.246353e+000
6.575145e+002,-6.069336e-001
6.584787e+002,1.105347e-001
6.594429e+002,1.705231e+000
6.604072e+002,3.152161e+000
6.613714e+002,4.389465e+000
6.623356e+002,4.835632e+000
6.632999e+002,2.838257e+000
6.642641e+002,1.031998e+000
6.652283e+002,1.385574e+000
6.661926e+002,3.665146e+000
6.671568e+002,5.949432e+000
6.681210e+002,5.825821e+000
6.690853e+002,3.914093e+000
6.700495e+002,2.161148e+000
6.710137e+002,6.492920e-001
6.719780e+002,-4.763641e-001
6.729422e+002,-1.115860e+000
6.739064e+002,-1.346329e+000
6.748707e+002,-6.465149e-001
6.758349e+002,2.248840e+000
6.767991e+002,4.329697e+000
6.777634e+002,3.895355e+000
6.787276e+002,1.372406e+000
6.796918e+002,-4.722595e-001
6.806561e+002,-5.715790e-001
6.816203e+002,5.465698e-002
6.825845e+002,1.563156e+000
6.835488e+002,3.403336e+000
6.845130e+002,4.856506e+000
6.854772e+002,5.415436e+000
6.864415e+002,5.323227e+000
6.874057e+002,4.954651e+000
6.883699e+002,4.276230e+000
6.893342e+002,3.334366e+000
6.902984e+002,2.140060e+000
6.912626e+002,8.449707e-001
6.922269e+002,2.716980e-001
6.931911e+002,1.571671e+000
6.941553e+002,2.299973e+000
6.951196e+002,1.704193e+000
6.960838e+002,4.482880e-001
6.970480e+002,-4.378662e-001
6.980123e+002,-8.395844e-001
6.989765e+002,-3.701630e-001
6.999407e+002,1.897751e+000
7.009050e+002,4.292236e+000
7.018692e+002,5.254501e+000
7.028334e+002,4.375000e+000
7.037977e+002,2.883377e+000
7.047619e+002,2.979523e+000
7.057261e+002,3.930801e+000
7.066904e+002,3.935043e+000
7.076546e+002,2.702789e+000
7.086188e+002,1.048904e+000
7.095831e+002,2.773743e-001
7.105473e+002,7.082367e-001
7.115115e+002,9.181366e-001
7.124758e+002,7.454681e-001
7.134400e+002,4.991455e-001
7.144042e+002,1.191864e-001
7.153685e+002,-3.043518e-001
7.163327e+002,1.804810e-001
7.172969e+002,3.548630e+000
7.182612e+002,6.537735e+000
7.192254e+002,8.032776e+000
7.201896e+002,7.979111e+000
7.211539e+002,6.348953e+000
7.221181e+002,2.854416e+000
7.230823e+002,-1.200745e+000
7.240466e+002,-2.274521e+000
7.250108e+002,-8.927765e-001
7.259750e+002,1.025375e+000
7.269393e+002,2.373901e+000
7.279035e+002,3.073761e+000
7.288677e+002,3.339951e+000
7.298320e+002,3.330124e+000
7.307962e+002,3.037155e+000
7.317604e+002,1.793869e+000
7.327247e+002,5.497437e-001
7.336889e+002,8.605347e-001
7.346531e+002,3.599197e+000
7.356174e+002,5.581497e+000
7.365816e+002,4.915314e+000
7.375458e+002,3.394180e+000
7.385101e+002,2.166763e+000
7.394743e+002,1.624420e+000
7.404385e+002,1.457947e+000
7.414028e+002,1.129730e+000
7.423670e+002,6.163940e-001
7.433312e+002,7.621918e-001
7.442955e+002,1.849792e+000
7.452597e+002,3.096939e+000
7.462239e+002,3.453629e+000
7.471882e+002,2.525146e+000
7.481524e+002,2.212524e+000
7.491166e+002,2.895645e+000
7.500809e+002,3.363190e+000
7.510451e+002,2.912277e+000
7.520093e+002,1.829834e+000
7.529736e+002,1.174179e+000
7.539378e+002,1.559067e+000
7.549020e+002,2.655640e+000
7.558663e+002,5.071426e+000
7.568306e+002,7.640839e+000
7.577948e+002,8.500793e+000
7.587590e+002,6.603638e+000
7.597233e+002,3.075348e+000
7.606875e+002,1.634506e+000
7.616517e+002,2.078995e+000
7.626160e+002,2.172577e+000
7.635802e+002,1.171967e+000
7.645444e+002,-2.236938e-001
7.655087e+002,-5.031433e-001
7.664729e+002,9.877930e-001
7.674371e+002,2.153381e+000
7.684014e+002,3.182953e+000
7.693656e+002,3.629410e+000
7.703298e+002,2.717819e+000
7.712941e+002,6.189117e-001
7.722583e+002,-8.226624e-001
7.732225e+002,3.344727e-001
7.741868e+002,2.176514e+000
7.751510e+002,3.159500e+000
7.761152e+002,3.499344e+000
7.770795e+002,4.127258e+000
7.780437e+002,5.864990e+000
7.790079e+002,8.408569e+000
7.799722e+002,9.110809e+000
7.809364e+002,7.892090e+000
7.819006e+002,6.723969e+000
7.828649e+002,6.575653e+000
7.838291e+002,7.151611e+000
7.847933e+002,7.309250e+000
7.857576e+002,6.869583e+000
7.867218e+002,5.831146e+000
7.876860e+002,3.006607e+000
7.886503e+002,6.813507e-001
7.896145e+002,1.371582e+000
7.905787e+002,5.480362e+000
7.915430e+002,9.828018e+000
7.925072e+002,1.111264e+001
7.934714e+002,1.035191e+001
7.944357e+002,7.846024e+000
7.953999e+002,4.239914e+000
7.963641e+002,1.280396e+000
7.973284e+002,9.290466e-001
7.982926e+002,3.369553e+000
7.992568e+002,5.282700e+000
8.002211e+002,6.772598e+000
8.011853e+002,7.380127e+000
8.021495e+002,6.802307e+000
8.031138e+002,5.451019e+000
8.040780e+002,4.328171e+000
8.050422e+002,3.436691e+000
8.060065e+002,2.807693e+000
8.069707e+002,2.016083e+000
8.079349e+002,1.563431e+000
8.088992e+002,2.306671e+000
8.098634e+002,4.433762e+000
8.108276e+002,6.781296e+000
8.117919e+002,7.475601e+000
8.127561e+002,6.961807e+000
8.137203e+002,6.583511e+000
8.146846e+002,6.583954e+000
8.156488e+002,6.317535e+000
8.166130e+002,4.768539e+000
8.175773e+002,1.426498e+000
8.185415e+002,-2.611542e-001
8.195057e+002,-2.198792e-002
8.204700e+002,9.523163e-001
8.214342e+002,2.957001e+000
8.223984e+002,5.403229e+000
8.233627e+002,6.772583e+000
8.243269e+002,6.145035e+000
8.252911e+002,5.217575e+000
8.262554e+002,5.063477e+000
8.272196e+002,5.150543e+000
8.281838e+002,4.707886e+000
8.291481e+002,3.584656e+000
8.301123e+002,2.595657e+000
8.310765e+002,3.449585e+000
8.320408e+002,5.860718e+000
8.330050e+002,6.603485e+000
8.339692e+002,5.189758e+000
8.349335e+002,3.184158e+000
8.358977e+002,2.055573e+000
8.368619e+002,1.882584e+000
8.378262e+002,2.422318e+000
8.387904e+002,4.594025e+000
8.397546e+002,6.234467e+000
8.407189e+002,6.551956e+000
8.416831e+002,6.057404e+000
8.426473e+002,5.652267e+000
8.436116e+002,5.720917e+000
8.445758e+002,6.094116e+000
8.455400e+002,6.481827e+000
8.465043e+002,6.877853e+000
8.474685e+002,7.660904e+000
8.484327e+002,8.872681e+000
8.493970e+002,9.856461e+000
8.503612e+002,9.307404e+000
8.513254e+002,6.756088e+000
8.522897e+002,5.981781e+000
8.532539e+002,8.412857e+000
8.542181e+002,1.043013e+001
8.551824e+002,9.410248e+000
8.561466e+002,5.908493e+000
8.571108e+002,3.812576e+000
8.580751e+002,4.364151e+000
8.590393e+002,5.484772e+000
8.600035e+002,6.962418e+000
8.609678e+002,8.541992e+000
8.619320e+002,1.006241e+001
8.628962e+002,1.141737e+001
8.638605e+002,1.246999e+001
8.648247e+002,1.292311e+001
8.657889e+002,1.289706e+001
8.667532e+002,1.242006e+001
8.677174e+002,1.150360e+001
8.686816e+002,1.109128e+001
8.696459e+002,1.261870e+001
8.706101e+002,1.672298e+001
8.715743e+002,1.818938e+001
8.725386e+002,1.404817e+001
8.735028e+002,1.131036e+001
8.744670e+002,1.264987e+001
8.754313e+002,1.622083e+001
8.763955e+002,1.841408e+001
8.773597e+002,1.776006e+001
8.783240e+002,1.692946e+001
8.792882e+002,1.793657e+001
8.802524e+002,1.953471e+001
8.812167e+002,2.098697e+001
8.821809e+002,2.193008e+001
8.831451e+002,2.197571e+001
8.841094e+002,2.048624e+001
8.850736e+002,1.772565e+001
8.860378e+002,1.748787e+001
8.870021e+002,2.028014e+001
8.879663e+002,2.314067e+001
8.889305e+002,2.447958e+001
8.898948e+002,2.447832e+001
8.908590e+002,2.413136e+001
8.918232e+002,2.301192e+001
8.927875e+002,2.257750e+001
8.937517e+002,2.358878e+001
8.947159e+002,2.499071e+001
8.956802e+002,2.573473e+001
8.966444e+002,2.562119e+001
8.976086e+002,2.550592e+001
8.985729e+002,2.655679e+001
8.995371e+002,2.806383e+001
9.005013e+002,2.863556e+001
9.014656e+002,2.842323e+001
9.024298e+002,2.810983e+001
9.033940e+002,2.812230e+001
9.043583e+002,2.837350e+001
9.053225e+002,2.880482e+001
9.062867e+002,2.991028e+001
9.072510e+002,3.035469e+001
9.082152e+002,3.020110e+001
9.091794e+002,2.953908e+001
9.101437e+002,2.795190e+001
9.111079e+002,2.533893e+001
9.120721e+002,2.373816e+001
9.130364e+002,2.556331e+001
9.140006e+002,2.758163e+001
9.149648e+002,2.775706e+001
9.159291e+002,2.675832e+001
9.168933e+002,2.631641e+001
9.178575e+002,2.757675e+001
9.188218e+002,2.971890e+001
9.197860e+002,2.981729e+001
9.207502e+002,2.775659e+001
9.217145e+002,2.663545e+001
9.226787e+002,2.772704e+001
9.236429e+002,2.957704e+001
9.246072e+002,3.010411e+001
9.255714e+002,2.899303e+001
9.265356e+002,2.781360e+001
9.274999e+002,2.622768e+001
9.284641e+002,2.517282e+001
9.294283e+002,2.561530e+001
9.303926e+002,2.675987e+001
9.313568e+002,2.717358e+001
9.323210e+002,2.609250e+001
9.332853e+002,2.426006e+001
9.342495e+002,2.226941e+001
9.352137e+002,2.044864e+001
9.361780e+002,1.976787e+001
9.371422e+002,2.047516e+001
9.381064e+002,2.163705e+001
9.390707e+002,2.181845e+001
9.400349e+002,2.060614e+001
9.409991e+002,2.056482e+001
9.419634e+002,2.314413e+001
9.429276e+002,2.483492e+001
9.438918e+002,2.431627e+001
9.448561e+002,2.250627e+001
9.458203e+002,2.088972e+001
9.467845e+002,1.985225e+001
9.477488e+002,1.926076e+001
9.487130e+002,1.930415e+001
9.496772e+002,1.949329e+001
9.506415e+002,1.940517e+001
9.516057e+002,1.905406e+001
9.525699e+002,1.880779e+001
9.535342e+002,1.903113e+001
9.544984e+002,1.954509e+001
9.554626e+002,1.900327e+001
9.564269e+002,1.743440e+001
9.573911e+002,1.579533e+001
9.583553e+002,1.394931e+001
9.593196e+002,1.228510e+001
9.602838e+002,1.152638e+001
9.612480e+002,1.181558e+001
9.622123e+002,1.240306e+001
9.631765e+002,1.351608e+001
9.641407e+002,1.449910e+001
9.651050e+002,1.481940e+001
9.660692e+002,1.472350e+001
9.670334e+002,1.490665e+001
9.679977e+002,1.586417e+001
9.689619e+002,1.716721e+001
9.699261e+002,1.737991e+001
9.708904e+002,1.691385e+001
9.718546e+002,1.732059e+001
9.728188e+002,1.898933e+001
9.737831e+002,2.124603e+001
9.747473e+002,2.357954e+001
9.757115e+002,2.634975e+001
9.766758e+002,2.732474e+001
9.776400e+002,2.468201e+001
9.786042e+002,2.262839e+001
9.795685e+002,2.250983e+001
9.805327e+002,2.325879e+001
9.814969e+002,2.348210e+001
9.824612e+002,2.278230e+001
9.834254e+002,2.175751e+001
9.843896e+002,2.104788e+001
9.853539e+002,2.006119e+001
9.863181e+002,1.784576e+001
9.872823e+002,1.456094e+001
9.882466e+002,1.133167e+001
9.892108e+002,9.213181e+000
9.901750e+002,8.183762e+000
9.911393e+002,7.262985e+000
9.921035e+002,5.674286e+000
9.930677e+002,5.058533e+000
9.940320e+002,6.435791e+000
9.949962e+002,8.257278e+000
9.959604e+002,8.915222e+000
9.969247e+002,8.372467e+000
9.978889e+002,8.318451e+000
9.988531e+002,9.796844e+000
9.998174e+002,1.139452e+001
1.000782e+003,1.266168e+001
1.001746e+003,1.347812e+001
1.002710e+003,1.337727e+001
1.003674e+003,1.231680e+001
1.004639e+003,1.134169e+001
1.005603e+003,1.256444e+001
1.006567e+003,1.619783e+001
1.007531e+003,1.627908e+001
1.008495e+003,1.109430e+001
1.009460e+003,6.006119e+000
1.010424e+003,4.540436e+000
1.011388e+003,5.862534e+000
1.012352e+003,6.528046e+000
1.013317e+003,5.803284e+000
1.014281e+003,4.959534e+000
1.015245e+003,4.233566e+000
1.016209e+003,3.621689e+000
1.017174e+003,3.102844e+000
1.018138e+003,2.725311e+000
1.019102e+003,2.698929e+000
1.020066e+003,3.301208e+000
1.021031e+003,4.143143e+000
1.021995e+003,3.570374e+000
1.022959e+003,1.850586e+000
1.023923e+003,8.977356e-001
1.024887e+003,1.577896e+000
1.025852e+003,2.842743e+000
1.026816e+003,2.987289e+000
1.027780e+003,1.774445e+000
1.028744e+003,8.917084e-001
1.029709e+003,5.285339e-001
1.030673e+003,3.886414e-001
1.031637e+003,3.070679e-001
1.032601e+003,3.816833e-001
1.033566e+003,9.416199e-001
1.034530e+003,2.101868e+000
1.035494e+003,3.236191e+000
1.036458e+003,3.689194e+000
1.037422e+003,3.529129e+000
1.038387e+003,2.565506e+000
1.039351e+003,9.623871e-001
1.040315e+003,6.323242e-002
1.041279e+003,1.081207e+000
1.042244e+003,3.446182e+000
1.043208e+003,4.073059e+000
1.044172e+003,1.270630e+000
1.045136e+003,-6.087646e-001
1.046101e+003,-1.333847e+000
1.047065e+003,-1.252411e+000
1.048029e+003,-3.657532e-002
1.048993e+003,1.820358e+000
1.049958e+003,2.722534e+000
1.050922e+003,1.582901e+000
1.051886e+003,3.360748e-001
1.052850e+003,1.680908e+000
1.053814e+003,3.767578e+000
1.054779e+003,3.822495e+000
1.055743e+003,1.442566e+000
1.056707e+003,-1.219238e+000
1.057671e+003,-1.465637e+000
1.058636e+003,7.068176e-001
1.059600e+003,6.451721e-001
1.060564e+003,-4.472443e+000
1.061528e+003,-7.416504e+000
1.062493e+003,-6.346542e+000
1.063457e+003,-3.392960e+000
1.064421e+003,-1.344910e-001
1.065385e+003,3.180328e+000
1.066349e+003,4.808167e+000
1.067314e+003,2.463028e+000
1.068278e+003,-2.137146e-001
1.069242e+003,-6.113281e-001
1.070206e+003,4.601746e-001
1.071171e+003,1.842667e+000
1.072135e+003,2.865524e+000
1.073099e+003,3.157974e+000
1.074063e+003,2.076340e+000
1.075028e+003,-5.492859e-001
1.075992e+003,-1.902695e+000
1.076956e+003,-1.888000e+000
1.077920e+003,-1.229675e+000
1.078885e+003,3.753967e-001
1.079849e+003,2.369156e+000
1.080813e+003,3.720215e+000
1.081777e+003,4.285858e+000
1.082741e+003,4.324356e+000
1.083706e+003,3.140381e+000
1.084670e+003,1.977890e+000
1.085634e+003,1.702576e+000
1.086598e+003,1.967911e+000
1.087563e+003,1.934341e+000
1.088527e+003,1.211929e+000
1.089491e+003,4.350128e-001
1.090455e+003,8.672180e-001
1.091420e+003,2.613571e+000
1.092384e+003,2.788300e+000
1.093348e+003,3.887482e-001
1.094312e+003,-1.851379e+000
1.095276e+003,-2.304779e+000
1.096241e+003,-1.287048e+000
1.097205e+003,4.177551e-001
1.098169e+003,3.391174e+000
1.099133e+003,4.879654e+000
1.100098e+003,2.597336e+000
1.101062e+003,-1.149750e-001
1.102026e+003,-1.470490e+000
1.102990e+003,-1.432632e+000
1.103955e+003,-4.218292e-001
1.104919e+003,1.251007e+000
1.105883e+003,2.927353e+000
1.106847e+003,3.099777e+000
1.107812e+003,1.723145e+000
1.108776e+003,1.019318e+000
1.109740e+003,1.388412e+000
1.110704e+003,1.794266e+000
1.111668e+003,1.498505e+000
1.112633e+003,7.130890e-001
1.113597e+003,4.293823e-002
1.114561e+003,-8.027496e-001
1.115525e+003,-8.341675e-001
1.116490e+003,1.234695e+000
1.117454e+003,3.152557e+000
1.118418e+003,3.334122e+000
1.119382e+003,2.182877e+000
1.120347e+003,8.731995e-001
1.121311e+003,6.442261e-002
1.122275e+003,-2.259827e-001
1.123239e+003,5.533295e-001
1.124203e+003,2.345215e+000
1.125168e+003,3.101959e+000
1.126132e+003,2.442566e+000
1.127096e+003,1.415833e+000
1.128060e+003,7.741089e-001
1.129025e+003,3.694153e-001
1.129989e+003,-4.785156e-001
1.130953e+003,-2.391281e+000
1.131917e+003,-3.454346e+000
1.132882e+003,-2.781723e+000
1.133846e+003,-1.559265e+000
1.134810e+003,-1.298828e-001
1.135774e+003,1.203018e+000
1.136739e+003,1.892487e+000
1.137703e+003,1.649994e+000
1.138667e+003,1.270004e+000
1.139631e+003,2.320709e+000
1.140595e+003,4.605881e+000
1.141560e+003,6.277222e+000
1.142524e+003,7.162186e+000
1.143488e+003,8.000427e+000
1.144452e+003,9.276978e+000
1.145417e+003,1.087206e+001
1.146381e+003,1.238560e+001
1.147345e+003,1.378185e+001
1.148309e+003,1.504124e+001
1.149274e+003,1.514081e+001
1.150238e+003,1.620209e+001
1.151202e+003,2.008781e+001
1.152166e+003,2.565643e+001
1.153130e+003,3.109346e+001
1.154095e+003,3.534239e+001
1.155059e+003,3.773718e+001
1.156023e+003,3.705815e+001
1.156987e+003,3.374216e+001
1.157952e+003,3.163043e+001
1.158916e+003,3.116862e+001
1.159880e+003,3.025516e+001
1.160844e+003,2.732561e+001
1.161809e+003,2.306982e+001
1.162773e+003,1.913214e+001
1.163737e+003,1.544218e+001
1.164701e+003,1.248349e+001
1.165666e+003,1.049039e+001
1.166630e+003,9.293121e+000
1.167594e+003,9.273087e+000
1.168558e+003,9.822968e+000
1.169522e+003,1.034195e+001
1.170487e+003,1.055424e+001
1.171451e+003,1.034540e+001
1.172415e+003,9.533310e+000
1.173379e+003,8.195007e+000
1.174344e+003,6.844193e+000
1.175308e+003,5.500183e+000
1.176272e+003,4.249130e+000
1.177236e+003,3.064804e+000
1.178201e+003,2.075790e+000
1.179165e+003,1.435242e+000
1.180129e+003,1.090286e+000
1.181093e+003,7.264862e-001
1.182057e+003,7.478333e-002
1.183022e+003,-1.781464e-001
1.183986e+003,2.722626e-001
1.184950e+003,1.156067e+000
1.185914e+003,2.659042e+000
1.186879e+003,4.430145e+000
1.187843e+003,5.391403e+000
1.188807e+003,4.623718e+000
1.189771e+003,2.661896e+000
1.190736e+003,1.114120e+000
1.191700e+003,-3.067017e-003
1.192664e+003,-8.023987e-001
1.193628e+003,-9.356384e-001
1.194593e+003,-1.121796e+000
1.195557e+003,-1.947876e+000
1.196521e+003,-3.270660e+000
1.197485e+003,-4.757141e+000
1.198449e+003,-6.768478e+000
1.199414e+003,-7.567413e+000
1.200378e+003,-5.044647e+000
1.201342e+003,-2.256851e+000
1.202306e+003,-1.192780e+000
1.203271e+003,-1.450806e+000
1.204235e+003,-1.603485e+000
1.205199e+003,-9.893036e-001
1.206163e+003,-5.017242e-001
1.207128e+003,-1.766922e+000
1.208092e+003,-4.909637e+000
1.209056e+003,-6.762344e+000
1.210020e+003,-6.931335e+000
1.210984e+003,-6.870850e+000
1.211949e+003,-6.764771e+000
1.212913e+003,-6.823090e+000
1.213877e+003,-7.485199e+000
1.214841e+003,-8.715408e+000
1.215806e+003,-9.378555e+000
1.216770e+003,-8.363770e+000
1.217734e+003,-7.820908e+000
1.218698e+003,-9.941559e+000
1.219663e+003,-1.293738e+001
1.220627e+003,-1.464555e+001
1.221591e+003,-1.467859e+001
1.222555e+003,-1.390794e+001
1.223520e+003,-1.310497e+001
1.224484e+003,-1.223010e+001
1.225448e+003,-1.119772e+001
1.226412e+003,-9.394379e+000
1.227376e+003,-9.035828e+000
1.228341e+003,-1.157561e+001
1.229305e+003,-1.392499e+001
1.230269e+003,-1.413211e+001
1.231233e+003,-1.304324e+001
1.232198e+003,-1.250346e+001
1.233162e+003,-1.297818e+001
1.234126e+003,-1.341953e+001
1.235090e+003,-1.303354e+001
1.236055e+003,-1.238396e+001
1.237019e+003,-1.210443e+001
1.237983e+003,-1.208798e+001
1.238947e+003,-1.181979e+001
1.239911e+003,-1.106165e+001
1.240876e+003,-1.045599e+001
1.241840e+003,-1.114859e+001
1.242804e+003,-1.326648e+001
1.243768e+003,-1.426118e+001
1.244733e+003,-1.276892e+001
1.245697e+003,-1.192049e+001
1.246661e+003,-1.255272e+001
1.247625e+003,-1.348514e+001
1.248590e+003,-1.378194e+001
1.249554e+003,-1.349161e+001
1.250518e+003,-1.321655e+001
1.251482e+003,-1.327449e+001
1.252447e+003,-1.335965e+001
1.253411e+003,-1.290916e+001
1.254375e+003,-1.221660e+001
1.255339e+003,-1.201067e+001
1.256303e+003,-1.227554e+001
1.257268e+003,-1.258095e+001
1.258232e+003,-1.284366e+001
1.259196e+003,-1.294794e+001
1.260160e+003,-1.247987e+001
1.261125e+003,-1.128384e+001
1.262089e+003,-1.010120e+001
1.263053e+003,-8.521027e+000
1.264017e+003,-7.765854e+000
1.264982e+003,-8.703186e+000
1.265946e+003,-1.009830e+001
1.266910e+003,-1.066772e+001
1.267874e+003,-1.049348e+001
1.268839e+003,-1.073380e+001
1.269803e+003,-1.216223e+001
1.270767e+003,-1.392592e+001
1.271731e+003,-1.427052e+001
1.272695e+003,-1.319293e+001
1.273660e+003,-1.256416e+001
1.274624e+003,-1.280296e+001
1.275588e+003,-1.277629e+001
1.276552e+003,-1.144270e+001
1.277517e+003,-9.516785e+000
1.278481e+003,-8.372009e+000
1.279445e+003,-8.121643e+000
1.280409e+003,-8.364334e+000
1.281374e+003,-9.165695e+000
1.282338e+003,-1.020030e+001
1.283302e+003,-1.176416e+001
1.284266e+003,-1.318024e+001
1.285230e+003,-1.352463e+001
1.286195e+003,-1.283673e+001
1.287159e+003,-1.194270e+001
1.288123e+003,-1.149274e+001
1.289087e+003,-1.134198e+001
1.290052e+003,-1.117581e+001
1.291016e+003,-1.101079e+001
1.291980e+003,-1.097826e+001
1.292944e+003,-1.107732e+001
1.293909e+003,-1.140880e+001
1.294873e+003,-1.189220e+001
1.295837e+003,-1.258778e+001
1.296801e+003,-1.395740e+001
1.297766e+003,-1.591113e+001
1.298730e+003,-1.691226e+001
1.299694e+003,-1.586279e+001
1.300658e+003,-1.418131e+001
1.301622e+003,-1.314676e+001
1.302587e+003,-1.262619e+001
1.303551e+003,-1.264639e+001
1.304515e+003,-1.311958e+001
1.305479e+003,-1.347779e+001
1.306444e+003,-1.325285e+001
1.307408e+003,-1.269125e+001
1.308372e+003,-1.256639e+001
1.309336e+003,-1.307719e+001
1.310301e+003,-1.342905e+001
1.311265e+003,-1.342724e+001
1.312229e+003,-1.338390e+001
1.313193e+003,-1.364395e+001
1.314157e+003,-1.376241e+001
1.315122e+003,-1.314201e+001
1.316086e+003,-1.186685e+001
1.317050e+003,-1.049045e+001
1.318014e+003,-9.308243e+000
1.318979e+003,-8.517471e+000
1.319943e+003,-8.664871e+000
1.320907e+003,-9.616531e+000
1.321871e+003,-1.040764e+001
1.322836e+003,-1.126610e+001
1.323800e+003,-1.133537e+001
1.324764e+003,-9.277817e+000
1.325728e+003,-6.572006e+000
1.326693e+003,-6.039093e+000
1.327657e+003,-7.830185e+000
1.328621e+003,-9.269119e+000
1.329585e+003,-9.382919e+000
1.330549e+003,-9.125900e+000
1.331514e+003,-8.853317e+000
1.332478e+003,-8.881821e+000
1.333442e+003,-9.810898e+000
1.334406e+003,-1.126880e+001
1.335371e+003,-1.208474e+001
1.336335e+003,-1.157199e+001
1.337299e+003,-1.034320e+001
1.338263e+003,-9.552261e+000
1.339228e+003,-9.202225e+000
1.340192e+003,-9.253952e+000
1.341156e+003,-1.073276e+001
1.342120e+003,-1.109938e+001
1.343084e+003,-8.674622e+000
1.344049e+003,-6.304565e+000
1.345013e+003,-6.887009e+000
1.345977e+003,-9.462051e+000
1.346941e+003,-1.060454e+001
1.347906e+003,-9.022491e+000
1.348870e+003,-7.029526e+000
1.349834e+003,-6.824921e+000
1.350798e+003,-7.614456e+000
1.351763e+003,-7.624252e+000
1.352727e+003,-7.001541e+000
1.353691e+003,-6.815994e+000
1.354655e+003,-7.530823e+000
1.355620e+003,-8.503586e+000
1.356584e+003,-9.090698e+000
1.357548e+003,-9.266235e+000
1.358512e+003,-8.884018e+000
1.359476e+003,-7.675354e+000
1.360441e+003,-6.826859e+000
1.361405e+003,-6.783997e+000
1.362369e+003,-6.929886e+000
1.363333e+003,-6.862518e+000
1.364298e+003,-6.838547e+000
1.365262e+003,-7.445129e+000
1.366226e+003,-8.652451e+000
1.367190e+003,-9.631607e+000
1.368155e+003,-9.637650e+000
1.369119e+003,-8.971588e+000
1.370083e+003,-8.588013e+000
1.371047e+003,-8.643478e+000
1.372011e+003,-8.069092e+000
1.372976e+003,-5.998154e+000
1.373940e+003,-4.607758e+000
1.374904e+003,-5.101608e+000
1.375868e+003,-6.388412e+000
1.376833e+003,-7.221237e+000
1.377797e+003,-7.492874e+000
1.378761e+003,-7.441452e+000
1.379725e+003,-6.932770e+000
1.380690e+003,-6.828003e+000
1.381654e+003,-9.077843e+000
1.382618e+003,-1.171634e+001
1.383582e+003,-1.157495e+001
1.384547e+003,-8.848648e+000
1.385511e+003,-6.334702e+000
1.386475e+003,-5.491043e+000
1.387439e+003,-5.425583e+000
1.388403e+003,-4.526031e+000
1.389368e+003,-2.807190e+000
1.390332e+003,-2.699493e+000
1.391296e+003,-5.144272e+000
1.392260e+003,-7.368530e+000
1.393225e+003,-9.249229e+000
1.394189e+003,-1.028970e+001
1.395153e+003,-9.720993e+000
1.396117e+003,-8.318657e+000
1.397082e+003,-7.112808e+000
1.398046e+003,-6.450821e+000
1.399010e+003,-6.240448e+000
1.399974e+003,-6.475586e+000
1.400938e+003,-6.850052e+000
1.401903e+003,-6.093216e+000
1.402867e+003,-3.543533e+000
1.403831e+003,-2.021912e+000
1.404795e+003,-2.010193e+000
1.405760e+003,-2.475250e+000
1.406724e+003,-3.593216e+000
1.407688e+003,-4.864502e+000
1.408652e+003,-5.554810e+000
1.409617e+003,-5.617294e+000
1.410581e+003,-5.535843e+000
1.411545e+003,-5.497925e+000
1.412509e+003,-5.384125e+000
1.413474e+003,-5.062546e+000
1.414438e+003,-4.714203e+000
1.415402e+003,-4.421860e+000
1.416366e+003,-4.175674e+000
1.417330e+003,-4.264908e+000
1.418295e+003,-4.887939e+000
1.419259e+003,-5.550232e+000
1.420223e+003,-5.786591e+000
1.421187e+003,-5.639526e+000
1.422152e+003,-4.954025e+000
1.423116e+003,-3.265564e+000
1.424080e+003,-2.326340e+000
1.425044e+003,-3.582687e+000
1.426009e+003,-4.787079e+000
1.426973e+003,-5.062469e+000
1.427937e+003,-4.747421e+000
1.428901e+003,-3.996964e+000
1.429865e+003,-3.063492e+000
1.430830e+003,-2.556564e+000
1.431794e+003,-2.896957e+000
1.432758e+003,-3.686371e+000
1.433722e+003,-4.027496e+000
1.434687e+003,-3.756561e+000
1.435651e+003,-3.921295e+000
1.436615e+003,-5.874985e+000
1.437579e+003,-6.683105e+000
1.438544e+003,-5.092377e+000
1.439508e+003,-3.240585e+000
1.440472e+003,-2.509399e+000
1.441436e+003,-2.498825e+000
1.442401e+003,-2.251801e+000
1.443365e+003,-1.585022e+000
1.444329e+003,-1.197357e+000
1.445293e+003,-1.669800e+000
1.446257e+003,-2.442810e+000
1.447222e+003,-2.389481e+000
1.448186e+003,-1.704102e+000
1.449150e+003,-1.365204e+000
1.450114e+003,-1.469543e+000
1.451079e+003,-1.944595e+000
1.452043e+003,-3.194839e+000
1.453007e+003,-4.400101e+000
1.453971e+003,-4.223343e+000
1.454936e+003,-2.894730e+000
1.455900e+003,-1.985657e+000
1.456864e+003,-1.738571e+000
1.457828e+003,-2.118240e+000
1.458792e+003,-4.365417e+000
1.459757e+003,-6.156563e+000
1.460721e+003,-4.758087e+000
1.461685e+003,-1.659698e+000
1.462649e+003,7.409668e-002
1.463614e+003,-3.246155e-001
1.464578e+003,-1.668350e+000
1.465542e+003,-3.158264e+000
1.466506e+003,-4.442307e+000
1.467471e+003,-4.016144e+000
1.468435e+003,-1.085358e+000
1.469399e+003,-9.828186e-002
1.470363e+003,-3.592438e+000
1.471328e+003,-5.921913e+000
1.472292e+003,-5.155769e+000
1.473256e+003,-3.636612e+000
1.474220e+003,-2.807892e+000
1.475184e+003,-2.519043e+000
1.476149e+003,-2.010666e+000
1.477113e+003,-1.170486e+000
1.478077e+003,-8.526306e-001
1.479041e+003,-1.876923e+000
1.480006e+003,-3.580856e+000
1.480970e+003,-3.818451e+000
1.481934e+003,-2.081635e+000
1.482898e+003,-1.340714e+000
1.483863e+003,-2.522079e+000
1.484827e+003,-3.313797e+000
1.485791e+003,-2.797394e+000
1.486755e+003,-1.803833e+000
1.487719e+003,-9.832916e-001
1.488684e+003,-4.423370e-001
1.489648e+003,-2.094879e-001
1.490612e+003,-2.454834e-001
1.491576e+003,-1.828308e-001
1.492541e+003,2.833557e-001
1.493505e+003,9.413147e-001
1.494469e+003,1.195862e+000
1.495433e+003,1.107590e+000
1.496398e+003,1.705673e+000
1.497362e+003,3.536194e+000
1.498326e+003,5.048538e+000
1.499290e+003,5.115768e+000
1.500255e+003,4.617920e+000
1.501219e+003,4.573318e+000
1.502183e+003,4.992905e+000
1.503147e+003,5.765823e+000
1.504111e+003,6.812927e+000
1.505076e+003,8.539337e+000
1.506040e+003,1.175670e+001
1.507004e+003,1.518280e+001
1.507968e+003,1.769760e+001
1.508933e+003,1.943010e+001
1.509897e+003,2.031500e+001
1.510861e+003,2.055101e+001
1.511825e+003,2.168195e+001
1.512790e+003,2.485181e+001
1.513754e+003,2.919447e+001
1.514718e+003,3.339925e+001
1.515682e+003,3.740562e+001
1.516646e+003,4.047281e+001
1.517611e+003,4.221857e+001
1.518575e+003,4.400131e+001
1.519539e+003,4.651913e+001
1.520503e+003,4.901744e+001
1.521468e+003,5.163564e+001
1.522432e+003,5.363844e+001
1.523396e+003,5.389696e+001
1.524360e+003,5.246185e+001
1.525325e+003,5.043367e+001
1.526289e+003,4.856418e+001
1.527253e+003,4.665524e+001
1.528217e+003,4.430125e+001
1.529182e+003,4.154672e+001
1.530146e+003,3.868100e+001
1.531110e+003,3.565179e+001
1.532074e+003,3.249536e+001
1.533039e+003,2.923076e+001
1.534003e+003,2.555980e+001
1.534967e+003,2.073087e+001
1.535931e+003,1.609543e+001
1.536896e+003,1.347015e+001
1.537860e+003,1.254005e+001
1.538824e+003,1.135823e+001
1.539788e+003,8.932266e+000
1.540752e+003,6.366867e+000
1.541717e+003,5.148880e+000
1.542681e+003,5.144623e+000
1.543645e+003,5.267639e+000
1.544609e+003,5.611420e+000
1.545573e+003,6.035706e+000
1.546538e+003,6.376083e+000
1.547502e+003,6.813324e+000
1.548466e+003,7.852997e+000
1.549430e+003,8.843231e+000
1.550395e+003,8.989990e+000
1.551359e+003,8.409958e+000
1.552323e+003,7.681656e+000
1.553287e+003,7.034058e+000
1.554252e+003,6.378708e+000
1.555216e+003,5.608078e+000
1.556180e+003,4.837852e+000
1.557144e+003,4.401245e+000
1.558109e+003,4.338928e+000
1.559073e+003,4.039009e+000
1.560037e+003,3.143356e+000
1.561001e+003,2.526611e+000
1.561966e+003,2.936668e+000
1.562930e+003,3.496269e+000
1.563894e+003,3.163635e+000
1.564858e+003,2.301247e+000
1.565823e+003,1.974831e+000
1.566787e+003,2.356598e+000
1.567751e+003,2.661308e+000
1.568715e+003,2.375359e+000
1.569679e+003,2.161469e+000
1.570644e+003,3.061081e+000
1.571608e+003,4.552025e+000
1.572572e+003,5.162888e+000
1.573536e+003,4.873306e+000
1.574500e+003,4.782097e+000
1.575465e+003,5.273285e+000
1.576429e+003,5.964203e+000
1.577393e+003,6.725121e+000
1.578357e+003,7.347664e+000
1.579322e+003,7.312881e+000
1.580286e+003,6.681908e+000
1.581250e+003,6.355507e+000
1.582214e+003,6.611221e+000
1.583179e+003,7.220734e+000
1.584143e+003,8.370247e+000
1.585107e+003,9.386353e+000
1.586071e+003,9.368408e+000
1.587036e+003,8.651100e+000
1.588000e+003,8.010162e+000
1.588964e+003,7.555038e+000
1.589928e+003,7.189201e+000
1.590893e+003,6.755547e+000
1.591857e+003,6.494827e+000
1.592821e+003,6.992714e+000
1.593785e+003,8.069038e+000
1.594750e+003,8.485153e+000
1.595714e+003,7.921272e+000
1.596678e+003,7.589912e+000
1.597642e+003,7.965347e+000
1.598606e+003,8.764984e+000
1.599571e+003,9.996620e+000
1.600535e+003,1.138684e+001
1.601499e+003,1.286281e+001
1.602463e+003,1.417883e+001
1.603427e+003,1.417302e+001
1.604392e+003,1.218037e+001
1.605356e+003,1.038042e+001
1.606320e+003,1.147848e+001
1.607284e+003,1.431694e+001
1.608249e+003,1.548017e+001
1.609213e+003,1.490466e+001
1.610177e+003,1.446252e+001
1.611141e+003,1.451251e+001
1.612106e+003,1.458858e+001
1.613070e+003,1.462964e+001
1.614034e+003,1.443835e+001
1.614998e+003,1.354617e+001
1.615963e+003,1.245805e+001
1.616927e+003,1.206468e+001
1.617891e+003,1.243247e+001
1.618855e+003,1.290519e+001
1.619820e+003,1.305257e+001
1.620784e+003,1.312521e+001
1.621748e+003,1.373273e+001
1.622712e+003,1.481758e+001
1.623677e+003,1.536243e+001
1.624641e+003,1.527601e+001
1.625605e+003,1.515877e+001
1.626569e+003,1.466533e+001
1.627533e+003,1.460735e+001
1.628498e+003,1.600179e+001
1.629462e+003,1.758273e+001
1.630426e+003,1.832165e+001
1.631390e+003,1.833616e+001
1.632354e+003,1.788208e+001
1.633319e+003,1.713194e+001
1.634283e+003,1.675520e+001
1.635247e+003,1.730888e+001
1.636211e+003,1.827747e+001
1.637176e+003,1.891961e+001
1.638140e+003,1.924516e+001
1.639104e+003,1.878766e+001
1.640068e+003,1.718104e+001
1.641033e+003,1.601828e+001
1.641997e+003,1.591040e+001
1.642961e+003,1.609135e+001
1.643925e+003,1.636653e+001
1.644890e+003,1.655258e+001
1.645854e+003,1.619506e+001
1.646818e+003,1.561619e+001
1.647782e+003,1.574806e+001
1.648747e+003,1.682871e+001
1.649711e+003,1.804562e+001
1.650675e+003,1.880855e+001
1.651639e+003,1.925214e+001
1.652604e+003,1.967977e+001
1.653568e+003,2.002826e+001
1.654532e+003,1.933575e+001
1.655496e+003,1.710775e+001
1.656460e+003,1.545839e+001
1.657425e+003,1.536525e+001
1.658389e+003,1.554513e+001
1.659353e+003,1.528280e+001
1.660317e+003,1.491266e+001
1.661281e+003,1.484745e+001
1.662246e+003,1.497607e+001
1.663210e+003,1.485025e+001
1.664174e+003,1.436515e+001
1.665138e+003,1.415701e+001
1.666103e+003,1.512744e+001
1.667067e+003,1.603845e+001
1.668031e+003,1.356640e+001
1.668995e+003,8.133698e+000
1.669960e+003,5.974625e+000
1.670924e+003,8.390190e+000
1.671888e+003,1.051343e+001
1.672852e+003,1.061702e+001
1.673817e+003,1.035719e+001
1.674781e+003,1.111245e+001
1.675745e+003,1.183923e+001
1.676709e+003,1.108614e+001
1.677674e+003,9.276176e+000
1.678638e+003,7.886795e+000
1.679602e+003,7.389999e+000
1.680566e+003,7.520256e+000
1.681531e+003,8.436508e+000
1.682495e+003,9.457260e+000
1.683459e+003,9.235695e+000
1.684423e+003,7.922958e+000
1.685387e+003,6.506371e+000
1.686352e+003,4.945724e+000
1.687316e+003,4.638680e+000
1.688280e+003,6.845261e+000
1.689244e+003,8.859001e+000
1.690208e+003,7.886208e+000
1.691173e+003,6.166290e+000
1.692137e+003,6.292404e+000
1.693101e+003,7.873451e+000
1.694065e+003,9.365387e+000
1.695030e+003,1.037114e+001
1.695994e+003,1.045319e+001
1.696958e+003,8.664001e+000
1.697922e+003,6.713959e+000
1.698887e+003,7.283005e+000
1.699851e+003,9.366188e+000
1.700815e+003,9.709457e+000
1.701779e+003,8.032829e+000
1.702744e+003,6.155266e+000
1.703708e+003,4.599747e+000
1.704672e+003,3.386246e+000
1.705636e+003,2.224762e+000
1.706601e+003,1.594528e+000
1.707565e+003,2.995758e+000
1.708529e+003,5.601685e+000
1.709493e+003,6.365952e+000
1.710458e+003,4.704277e+000
1.711422e+003,3.388710e+000
1.712386e+003,4.042534e+000
1.713350e+003,4.944756e+000
1.714314e+003,4.577629e+000
1.715279e+003,3.530190e+000
1.716243e+003,2.478607e+000
1.717207e+003,1.721588e+000
1.718171e+003,2.662834e+000
1.719135e+003,5.697021e+000
1.720100e+003,7.269310e+000
1.721064e+003,4.548386e+000
1.722028e+003,4.404297e-001
1.722992e+003,-8.875809e-001
1.723957e+003,1.937714e-001
1.724921e+003,1.172447e+000
1.725885e+003,1.936409e+000
1.726849e+003,2.689278e+000
1.727814e+003,3.731895e+000
1.728778e+003,4.622650e+000
1.729742e+003,5.681290e+000
1.730706e+003,6.005936e+000
1.731671e+003,3.919907e+000
1.732635e+003,5.891190e-001
1.733599e+003,-1.435623e+000
1.734563e+003,-1.701515e+000
1.735528e+003,-1.342506e+000
1.736492e+003,-9.908295e-001
1.737456e+003,-4.236374e-001
1.738420e+003,6.788559e-001
1.739385e+003,2.053055e+000
1.740349e+003,2.901299e+000
1.741313e+003,3.220253e+000
1.742277e+003,3.236687e+000
1.743241e+003,2.794472e+000
1.744206e+003,2.415787e+000
1.745170e+003,2.315865e+000
1.746134e+003,2.055916e+000
1.747098e+003,9.298325e-001
1.748063e+003,-1.537781e-001
1.749027e+003,1.901016e-001
1.749991e+003,1.495316e+000
1.750955e+003,2.248589e+000
1.751919e+003,1.911812e+000
1.752884e+003,9.330215e-001
1.753848e+003,-3.376312e-001
1.754812e+003,-1.459602e+000
1.755776e+003,-1.351486e+000
1.756741e+003,-3.254700e-002
1.757705e+003,3.800964e-002
1.758669e+003,-1.930573e+000
1.759633e+003,-2.941689e+000
1.760598e+003,-1.853340e+000
1.761562e+003,-1.077995e+000
1.762526e+003,-1.531929e+000
1.763490e+003,-2.221252e+000
1.764455e+003,-2.697449e+000
1.765419e+003,-2.788849e+000
1.766383e+003,-2.039719e+000
1.767347e+003,-7.379456e-001
1.768312e+003,-2.003708e-001
1.769276e+003,-1.077538e+000
1.770240e+003,-2.259537e+000
1.771204e+003,-2.686592e+000
1.772168e+003,-2.351654e+000
1.773133e+003,-9.014740e-001
1.774097e+003,1.435905e+000
1.775061e+003,2.090210e+000
1.776025e+003,4.810410e-001
1.776990e+003,-7.405624e-001
1.777954e+003,-5.297318e-001
1.778918e+003,7.511902e-002
1.779882e+003,3.740311e-001
1.780846e+003,5.080795e-001
1.781811e+003,7.791901e-001
1.782775e+003,1.119987e+000
1.783739e+003,1.336700e+000
1.784703e+003,1.458595e+000
1.785668e+003,1.003441e+000
1.786632e+003,-1.130745e+000
1.787596e+003,-2.828659e+000
1.788560e+003,-1.746323e+000
1.789525e+003,2.849350e-001
1.790489e+003,5.750122e-001
1.791453e+003,-5.840378e-001
1.792417e+003,-1.864403e+000
1.793382e+003,-2.852089e+000
1.794346e+003,-3.014099e+000
1.795310e+003,-2.039375e+000
1.796274e+003,-4.841766e-001
1.797239e+003,1.265282e+000
1.798203e+003,2.812897e+000
1.799167e+003,2.513123e+000
1.800131e+003,-1.718445e-001
1.801095e+003,-1.903076e+000
1.802060e+003,-2.620514e+000
1.803024e+003,-2.362198e+000
1.803988e+003,2.230377e-001
1.804952e+003,2.037659e+000
1.805917e+003,7.846527e-001
1.806881e+003,-1.238441e+000
1.807845e+003,-1.646194e+000
1.808809e+003,-8.700333e-001
1.809773e+003,-2.031479e-001
1.810738e+003,-1.012268e-001
1.811702e+003,-7.164612e-001
1.812666e+003,-2.112335e+000
1.813630e+003,-3.324707e+000
1.814595e+003,-2.937286e+000
1.815559e+003,-1.450951e+000
1.816523e+003,-1.038239e+000
1.817487e+003,-1.874077e+000
1.818452e+003,-1.536652e+000
1.819416e+003,7.723923e-001
1.820380e+003,2.404778e+000
1.821344e+003,2.220566e+000
1.822309e+003,1.689270e+000
1.823273e+003,1.953491e+000
1.824237e+003,2.175117e+000
1.825201e+003,1.097504e+000
1.826166e+003,-7.235107e-001
1.827130e+003,-1.690636e+000
1.828094e+003,-1.556976e+000
1.829058e+003,-1.184814e+000
1.830022e+003,-9.373016e-001
1.830987e+003,-5.660934e-001
1.831951e+003,3.720398e-001
1.832915e+003,1.387405e+000
1.833879e+003,1.781670e+000
1.834844e+003,1.621002e+000
1.835808e+003,9.694214e-001
1.836772e+003,-1.274872e-002
1.837736e+003,-3.277283e-001
1.838700e+003,4.406967e-001
1.839665e+003,1.883537e+000
1.840629e+003,3.903358e+000
1.841593e+003,5.660973e+000
1.842557e+003,5.155289e+000
1.843522e+003,2.424667e+000
1.844486e+003,5.839920e-001
1.845450e+003,-1.822128e-001
1.846414e+003,-2.075653e-001
1.847379e+003,1.280411e+000
1.848343e+003,2.256371e+000
1.849307e+003,1.578079e+000
1.850271e+003,8.296280e-001
1.851236e+003,1.565514e+000
1.852200e+003,2.756081e+000
1.853164e+003,2.625359e+000
1.854128e+003,1.339973e+000
1.855093e+003,3.638535e-001
1.856057e+003,3.130341e-001
1.857021e+003,7.238235e-001
1.857985e+003,1.212486e+000
1.858949e+003,1.738144e+000
1.859914e+003,2.190598e+000
1.860878e+003,2.643616e+000
1.861842e+003,3.822815e+000
1.862806e+003,5.763260e+000
1.863771e+003,5.364830e+000
1.864735e+003,1.237152e+000
1.865699e+003,-1.153900e+000
1.866663e+003,1.570259e+000
1.867627e+003,4.896294e+000
1.868592e+003,4.467468e+000
1.869556e+003,2.144951e+000
1.870520e+003,1.706665e+000
1.871484e+003,2.803909e+000
1.872449e+003,3.050865e+000
1.873413e+003,2.074547e+000
1.874377e+003,1.432304e+000
1.875341e+003,1.422722e+000
1.876306e+003,1.763451e+000
1.877270e+003,2.619263e+000
1.878234e+003,3.437294e+000
1.879198e+003,3.658661e+000
1.880163e+003,3.468559e+000
1.881127e+003,3.127174e+000
1.882091e+003,2.817574e+000
1.883055e+003,2.872032e+000
1.884020e+003,3.393097e+000
1.884984e+003,4.039185e+000
1.885948e+003,4.506805e+000
1.886912e+003,4.868690e+000
1.887876e+003,5.310280e+000
1.888841e+003,5.804710e+000
1.889805e+003,5.897156e+000
1.890769e+003,5.521118e+000
1.891733e+003,5.103348e+000
1.892698e+003,4.668961e+000
1.893662e+003,4.099556e+000
1.894626e+003,3.022118e+000
1.895590e+003,2.287354e+000
1.896554e+003,3.090256e+000
1.897519e+003,4.176361e+000
1.898483e+003,3.562805e+000
1.899447e+003,1.835533e+000
1.900411e+003,1.499390e+000
1.901376e+003,3.070122e+000
1.902340e+003,4.317902e+000
1.903304e+003,3.977829e+000
1.904268e+003,3.772240e+000
1.905233e+003,5.166931e+000
1.906197e+003,6.849007e+000
1.907161e+003,7.807472e+000
1.908125e+003,7.901985e+000
1.909090e+003,6.593277e+000
1.910054e+003,4.263161e+000
1.911018e+003,2.084221e+000
1.911982e+003,6.411591e-001
1.912947e+003,6.500015e-001
1.913911e+003,2.620483e+000
1.914875e+003,5.385948e+000
1.915839e+003,7.215164e+000
1.916803e+003,8.012360e+000
1.917768e+003,7.139877e+000
1.918732e+003,4.097763e+000
1.919696e+003,3.020981e+000
1.920660e+003,4.703110e+000
1.921625e+003,6.396584e+000
1.922589e+003,7.906906e+000
1.923553e+003,8.620827e+000
1.924517e+003,7.575951e+000
1.925481e+003,6.159523e+000
1.926446e+003,5.657143e+000
1.927410e+003,5.643997e+000
1.928374e+003,5.006134e+000
1.929338e+003,3.755890e+000
1.930303e+003,3.394279e+000
1.931267e+003,4.574799e+000
1.932231e+003,6.015289e+000
1.933195e+003,7.777733e+000
1.934160e+003,8.750748e+000
1.935124e+003,7.194763e+000
1.936088e+003,5.111031e+000
1.937052e+003,5.477516e+000
1.938017e+003,7.227188e+000
1.938981e+003,7.225121e+000
1.939945e+003,5.377304e+000
1.940909e+003,4.475945e+000
1.941874e+003,5.653740e+000
1.942838e+003,6.636093e+000
1.943802e+003,5.268066e+000
1.944766e+003,3.179962e+000
1.945730e+003,3.802216e+000
1.946695e+003,6.628181e+000
1.947659e+003,7.508430e+000
1.948623e+003,6.173904e+000
1.949587e+003,5.992973e+000
1.950552e+003,7.748962e+000
1.951516e+003,9.017204e+000
1.952480e+003,8.997932e+000
1.953444e+003,8.276306e+000
1.954408e+003,6.830086e+000
1.955373e+003,5.256752e+000
1.956337e+003,4.414406e+000
1.957301e+003,4.255661e+000
1.958265e+003,4.485786e+000
1.959230e+003,5.158371e+000
1.960194e+003,5.774063e+000
1.961158e+003,6.151367e+000
1.962122e+003,6.462646e+000
1.963087e+003,6.979752e+000
1.964051e+003,7.190315e+000
1.965015e+003,6.429459e+000
1.965979e+003,5.646645e+000
1.966944e+003,5.904160e+000
1.967908e+003,6.732521e+000
1.968872e+003,7.208519e+000
1.969836e+003,7.210335e+000
1.970801e+003,7.033371e+000
1.971765e+003,6.850075e+000
1.972729e+003,7.029778e+000
1.973693e+003,8.004227e+000
1.974657e+003,9.132423e+000
1.975622e+003,9.212349e+000
1.976586e+003,8.739700e+000
1.977550e+003,9.413902e+000
1.978514e+003,1.095386e+001
1.979479e+003,1.127088e+001
1.980443e+003,1.014014e+001
1.981407e+003,9.655571e+000
1.982371e+003,1.067110e+001
1.983335e+003,1.124939e+001
1.984300e+003,9.753548e+000
1.985264e+003,7.761612e+000
1.986228e+003,7.832520e+000
1.987192e+003,9.472504e+000
1.988157e+003,1.008588e+001
1.989121e+003,9.400276e+000
1.990085e+003,9.231590e+000
1.991049e+003,1.020128e+001
1.992014e+003,1.048942e+001
1.992978e+003,9.178101e+000
1.993942e+003,8.057159e+000
1.994906e+003,7.830376e+000
1.995871e+003,7.912247e+000
1.996835e+003,7.646759e+000
1.997799e+003,7.588966e+000
1.998763e+003,9.055054e+000
1.999728e+003,1.150467e+001
