5.003444e+002,4.063835e+001
5.013087e+002,3.979761e+001
5.022729e+002,3.827722e+001
5.032371e+002,3.664299e+001
5.042014e+002,3.643736e+001
5.051656e+002,3.743880e+001
5.061298e+002,3.837408e+001
5.070941e+002,3.800192e+001
5.080583e+002,3.587029e+001
5.090225e+002,3.466492e+001
5.099868e+002,3.458954e+001
5.109510e+002,3.486670e+001
5.119152e+002,3.507349e+001
5.128795e+002,3.517421e+001
5.138437e+002,3.571291e+001
5.148079e+002,3.803845e+001
5.157722e+002,3.984991e+001
5.167364e+002,3.997630e+001
5.177006e+002,3.835597e+001
5.186649e+002,3.588828e+001
5.196291e+002,3.298544e+001
5.205933e+002,3.055672e+001
5.215576e+002,2.986607e+001
5.225218e+002,3.075671e+001
5.234860e+002,3.206477e+001
5.244503e+002,3.176408e+001
5.254145e+002,2.926694e+001
5.263787e+002,2.833463e+001
5.273430e+002,2.970074e+001
5.283072e+002,3.211923e+001
5.292714e+002,3.404442e+001
5.302357e+002,3.569679e+001
5.311999e+002,3.568472e+001
5.321641e+002,3.342429e+001
5.331284e+002,3.042160e+001
5.340926e+002,2.737788e+001
5.350568e+002,2.440688e+001
5.360211e+002,2.246458e+001
5.369853e+002,2.360959e+001
5.379495e+002,2.559653e+001
5.389138e+002,2.653816e+001
5.398780e+002,2.570219e+001
5.408422e+002,2.375775e+001
5.418065e+002,2.239273e+001
5.427707e+002,2.156108e+001
5.437349e+002,2.117805e+001
5.446992e+002,2.135550e+001
5.456634e+002,2.186955e+001
5.466276e+002,2.195378e+001
5.475919e+002,2.076239e+001
5.485561e+002,2.031277e+001
5.495203e+002,2.166180e+001
5.504846e+002,2.338553e+001
5.514488e+002,2.317703e+001
5.524130e+002,1.914195e+001
5.533773e+002,1.579857e+001
5.543415e+002,1.560587e+001
5.553057e+002,1.702399e+001
5.562700e+002,1.867508e+001
5.572342e+002,1.969035e+001
5.581984e+002,2.016458e+001
5.591627e+002,2.047786e+001
5.601269e+002,2.064223e+001
5.610911e+002,2.036035e+001
5.620554e+002,1.941376e+001
5.630196e+002,1.786745e+001
5.639838e+002,1.666336e+001
5.649481e+002,1.565868e+001
5.659123e+002,1.519302e+001
5.668765e+002,1.603307e+001
5.678408e+002,1.763373e+001
5.688050e+002,1.818990e+001
5.697692e+002,1.600520e+001
5.707335e+002,1.414063e+001
5.716977e+002,1.399896e+001
5.726619e+002,1.464467e+001
5.736262e+002,1.464398e+001
5.745904e+002,1.289714e+001
5.755546e+002,1.083263e+001
5.765189e+002,1.056676e+001
5.774831e+002,1.145808e+001
5.784473e+002,1.278502e+001
5.794116e+002,1.408740e+001
5.803758e+002,1.533836e+001
5.813400e+002,1.507526e+001
5.823043e+002,1.260100e+001
5.832685e+002,1.052766e+001
5.842327e+002,9.956940e+000
5.851970e+002,1.074922e+001
5.861612e+002,1.159846e+001
5.871254e+002,1.288197e+001
5.880897e+002,1.340996e+001
5.890539e+002,1.204866e+001
5.900181e+002,9.893372e+000
5.909824e+002,8.924103e+000
5.919466e+002,1.090965e+001
5.929108e+002,1.335660e+001
5.938751e+002,1.381219e+001
5.948393e+002,1.281900e+001
5.958035e+002,1.093906e+001
5.967678e+002,8.624985e+000
5.977320e+002,6.123444e+000
5.986962e+002,5.199051e+000
5.996605e+002,5.630173e+000
6.006247e+002,6.441574e+000
6.015889e+002,7.549316e+000
6.025532e+002,8.889389e+000
6.035174e+002,9.408020e+000
6.044816e+002,7.527679e+000
6.054459e+002,6.572052e+000
6.064101e+002,7.789886e+000
6.073743e+002,1.012637e+001
6.083386e+002,1.164078e+001
6.093028e+002,1.115227e+001
6.102670e+002,9.980347e+000
6.112313e+002,8.828156e+000
6.121955e+002,7.906860e+000
6.131597e+002,7.620361e+000
6.141240e+002,8.217178e+000
6.150882e+002,9.315781e+000
6.160524e+002,9.129211e+000
6.170167e+002,7.939987e+000
6.179809e+002,6.958740e+000
6.189451e+002,6.772629e+000
6.199094e+002,7.199036e+000
6.208736e+002,7.168854e+000
6.218378e+002,6.289032e+000
6.228021e+002,5.557770e+000
6.237663e+002,4.829330e+000
6.247305e+002,4.388245e+000
6.256948e+002,4.733566e+000
6.266590e+002,6.315704e+000
6.276232e+002,7.926193e+000
6.285875e+002,9.261978e+000
6.295517e+002,1.015248e+001
6.305159e+002,1.017390e+001
6.314802e+002,9.132614e+000
6.324444e+002,7.546127e+000
6.334086e+002,7.186890e+000
6.343729e+002,7.684326e+000
6.353371e+002,7.691681e+000
6.363013e+002,6.541748e+000
6.372656e+002,4.761948e+000
6.382298e+002,4.362473e+000
6.391940e+002,7.547913e+000
6.401583e+002,9.128891e+000
6.411225e+002,8.086761e+000
6.420867e+002,6.106567e+000
6.430510e+002,5.147202e+000
6.440152e+002,5.869858e+000
6.449794e+002,6.728973e+000
6.459437e+002,7.526077e+000
6.469079e+002,7.732773e+000
6.478721e+002,6.734055e+000
6.488364e+002,4.445343e+000
6.498006e+002,1.541962e+000
6.507648e+002,-1.416672e+000
6.517291e+002,-4.010956e+000
6.526933e+002,-4.656845e+000
6.536575e+002,-2.950302e+000
6.546218e+002,-2.886353e-001
6.555860e+002,5.730591e-001
6.565502e+002,-1.924454e+000
6.575145e+002,-2.892761e+000
6.584787e+002,-1.603867e+000
6.594429e+002,4.112396e-001
6.604072e+002,2.147980e+000
6.613714e+002,3.507462e+000
6.623356e+002,4.369263e+000
6.632999e+002,4.470184e+000
6.642641e+002,4.142639e+000
6.652283e+002,3.324432e+000
6.661926e+002,2.254425e+000
6.671568e+002,1.450302e+000
6.681210e+002,1.640533e+000
6.690853e+002,2.345825e+000
6.700495e+002,2.203888e+000
6.710137e+002,1.265198e+000
6.719780e+002,5.098877e-001
6.729422e+002,1.046127e+000
6.739064e+002,3.216141e+000
6.748707e+002,4.401382e+000
6.758349e+002,4.644257e+000
6.767991e+002,4.177872e+000
6.777634e+002,2.799850e+000
6.787276e+002,7.397919e-001
6.796918e+002,-9.217834e-001
6.806561e+002,-2.215729e+000
6.816203e+002,-2.590256e+000
6.825845e+002,-1.226822e+000
6.835488e+002,1.068237e+000
6.845130e+002,3.006149e+000
6.854772e+002,3.607178e+000
6.864415e+002,3.639130e+000
6.874057e+002,4.988190e+000
6.883699e+002,7.060516e+000
6.893342e+002,8.557404e+000
6.902984e+002,8.770859e+000
6.912626e+002,7.856110e+000
6.922269e+002,6.701019e+000
6.931911e+002,4.679520e+000
6.941553e+002,3.559784e+000
6.951196e+002,4.188965e+000
6.960838e+002,5.406693e+000
6.970480e+002,5.228653e+000
6.980123e+002,2.508347e+000
6.989765e+002,4.376221e-001
6.999407e+002,1.871643e-001
7.009050e+002,9.777222e-001
7.018692e+002,2.728287e+000
7.028334e+002,5.124512e+000
7.037977e+002,7.133057e+000
7.047619e+002,6.870071e+000
7.057261e+002,5.122879e+000
7.066904e+002,3.062057e+000
7.076546e+002,8.730927e-001
7.086188e+002,-9.879150e-001
7.095831e+002,-1.746384e+000
7.105473e+002,-1.040909e+000
7.115115e+002,-3.813477e-001
7.124758e+002,1.741028e-001
7.134400e+002,6.956940e-001
7.144042e+002,1.120026e+000
7.153685e+002,1.503662e+000
7.163327e+002,2.354156e+000
7.172969e+002,4.941208e+000
7.182612e+002,7.088715e+000
7.192254e+002,7.928406e+000
7.201896e+002,7.534561e+000
7.211539e+002,6.081116e+000
7.221181e+002,3.530930e+000
7.230823e+002,7.364197e-001
7.240466e+002,7.994080e-002
7.250108e+002,1.168091e+000
7.259750e+002,2.408234e+000
7.269393e+002,2.810150e+000
7.279035e+002,2.393341e+000
7.288677e+002,2.081039e+000
7.298320e+002,2.757446e+000
7.307962e+002,2.733047e+000
7.317604e+002,9.716492e-001
7.327247e+002,-1.169235e+000
7.336889e+002,-1.654739e+000
7.346531e+002,4.115906e-001
7.356174e+002,2.290985e+000
7.365816e+002,2.760666e+000
7.375458e+002,2.572021e+000
7.385101e+002,1.793091e+000
7.394743e+002,7.437134e-001
7.404385e+002,2.991486e-001
7.414028e+002,2.198257e+000
7.423670e+002,5.568924e+000
7.433312e+002,7.089539e+000
7.442955e+002,6.595352e+000
7.452597e+002,5.177261e+000
7.462239e+002,3.785385e+000
7.471882e+002,2.150146e+000
7.481524e+002,1.685989e+000
7.491166e+002,3.405350e+000
7.500809e+002,4.681122e+000
7.510451e+002,4.295486e+000
7.520093e+002,2.598190e+000
7.529736e+002,9.643707e-001
7.539378e+002,-2.118530e-001
7.549020e+002,-4.637451e-001
7.558663e+002,1.086655e+000
7.568306e+002,3.338516e+000
7.577948e+002,4.721222e+000
7.587590e+002,4.297043e+000
7.597233e+002,2.679398e+000
7.606875e+002,1.714462e+000
7.616517e+002,1.406387e+000
7.626160e+002,1.665558e+000
7.635802e+002,2.679520e+000
7.645444e+002,4.093750e+000
7.655087e+002,5.209579e+000
7.664729e+002,6.176666e+000
7.674371e+002,6.311691e+000
7.684014e+002,5.075287e+000
7.693656e+002,3.620361e+000
7.703298e+002,2.485474e+000
7.712941e+002,1.834763e+000
7.722583e+002,1.847931e+000
7.732225e+002,3.258148e+000
7.741868e+002,4.842148e+000
7.751510e+002,5.577530e+000
7.761152e+002,5.645813e+000
7.770795e+002,5.624756e+000
7.780437e+002,6.010345e+000
7.790079e+002,6.735397e+000
7.799722e+002,7.677979e+000
7.809364e+002,9.040817e+000
7.819006e+002,9.554886e+000
7.828649e+002,8.282867e+000
7.838291e+002,5.865341e+000
7.847933e+002,4.335342e+000
7.857576e+002,4.216370e+000
7.867218e+002,3.998184e+000
7.876860e+002,3.274902e+000
7.886503e+002,2.610382e+000
7.896145e+002,2.428375e+000
7.905787e+002,2.849564e+000
7.915430e+002,3.761307e+000
7.925072e+002,5.830246e+000
7.934714e+002,7.628296e+000
7.944357e+002,7.200424e+000
7.953999e+002,4.813095e+000
7.963641e+002,2.200027e+000
7.973284e+002,1.252441e+000
7.982926e+002,2.055420e+000
7.992568e+002,3.403061e+000
8.002211e+002,6.020493e+000
8.011853e+002,7.526566e+000
8.021495e+002,6.476578e+000
8.031138e+002,3.774567e+000
8.040780e+002,2.345795e+000
8.050422e+002,3.355408e+000
8.060065e+002,4.421768e+000
8.069707e+002,4.649170e+000
8.079349e+002,4.510178e+000
8.088992e+002,4.566528e+000
8.098634e+002,5.031555e+000
8.108276e+002,5.559952e+000
8.117919e+002,5.527496e+000
8.127561e+002,5.010971e+000
8.137203e+002,4.417206e+000
8.146846e+002,3.889938e+000
8.156488e+002,3.480026e+000
8.166130e+002,3.145111e+000
8.175773e+002,2.760315e+000
8.185415e+002,3.107498e+000
8.195057e+002,4.889954e+000
8.204700e+002,6.245041e+000
8.214342e+002,6.428452e+000
8.223984e+002,5.710312e+000
8.233627e+002,4.755539e+000
8.243269e+002,3.421173e+000
8.252911e+002,2.745529e+000
8.262554e+002,4.049896e+000
8.272196e+002,5.710236e+000
8.281838e+002,5.578568e+000
8.291481e+002,3.167862e+000
8.301123e+002,4.149475e-001
8.310765e+002,1.116165e+000
8.320408e+002,4.827118e+000
8.330050e+002,5.824203e+000
8.339692e+002,3.139999e+000
8.349335e+002,-1.033936e-001
8.358977e+002,-4.429474e-001
8.368619e+002,2.695801e+000
8.378262e+002,4.817688e+000
8.387904e+002,4.550369e+000
8.397546e+002,4.545074e+000
8.407189e+002,6.138748e+000
8.416831e+002,8.286621e+000
8.426473e+002,8.888687e+000
8.436116e+002,6.697937e+000
8.445758e+002,4.198029e+000
8.455400e+002,3.839554e+000
8.465043e+002,4.582092e+000
8.474685e+002,5.773544e+000
8.484327e+002,7.122803e+000
8.493970e+002,8.254501e+000
8.503612e+002,8.385223e+000
8.513254e+002,7.222702e+000
8.522897e+002,6.912338e+000
8.532539e+002,7.966385e+000
8.542181e+002,8.981110e+000
8.551824e+002,9.034958e+000
8.561466e+002,8.366364e+000
8.571108e+002,8.288574e+000
8.580751e+002,9.208176e+000
8.590393e+002,1.017986e+001
8.600035e+002,1.102773e+001
8.609678e+002,1.184329e+001
8.619320e+002,1.289122e+001
8.628962e+002,1.420915e+001
8.638605e+002,1.522650e+001
8.648247e+002,1.471223e+001
8.657889e+002,1.333835e+001
8.667532e+002,1.249583e+001
8.677174e+002,1.237021e+001
8.686816e+002,1.288521e+001
8.696459e+002,1.415559e+001
8.706101e+002,1.647256e+001
8.715743e+002,1.759625e+001
8.725386e+002,1.622078e+001
8.735028e+002,1.544417e+001
8.744670e+002,1.672900e+001
8.754313e+002,1.884839e+001
8.763955e+002,1.917633e+001
8.773597e+002,1.619885e+001
8.783240e+002,1.391342e+001
8.792882e+002,1.625778e+001
8.802524e+002,1.976140e+001
8.812167e+002,2.137674e+001
8.821809e+002,2.058667e+001
8.831451e+002,1.890263e+001
8.841094e+002,1.827684e+001
8.850736e+002,1.875198e+001
8.860378e+002,1.905670e+001
8.870021e+002,1.905238e+001
8.879663e+002,1.917180e+001
8.889305e+002,1.955376e+001
8.898948e+002,2.018684e+001
8.908590e+002,2.120778e+001
8.918232e+002,2.322057e+001
8.927875e+002,2.476738e+001
8.937517e+002,2.521820e+001
8.947159e+002,2.538400e+001
8.956802e+002,2.601903e+001
8.966444e+002,2.715392e+001
8.976086e+002,2.802328e+001
8.985729e+002,2.792386e+001
8.995371e+002,2.714841e+001
9.005013e+002,2.557198e+001
9.014656e+002,2.362704e+001
9.024298e+002,2.322214e+001
9.033940e+002,2.600128e+001
9.043583e+002,3.123720e+001
9.053225e+002,3.365919e+001
9.062867e+002,3.048285e+001
9.072510e+002,2.771799e+001
9.082152e+002,2.552591e+001
9.091794e+002,2.398705e+001
9.101437e+002,2.312219e+001
9.111079e+002,2.292770e+001
9.120721e+002,2.344754e+001
9.130364e+002,2.579718e+001
9.140006e+002,2.777548e+001
9.149648e+002,2.761864e+001
9.159291e+002,2.620766e+001
9.168933e+002,2.557999e+001
9.178575e+002,2.709340e+001
9.188218e+002,2.976198e+001
9.197860e+002,3.018166e+001
9.207502e+002,2.828804e+001
9.217145e+002,2.641957e+001
9.226787e+002,2.492871e+001
9.236429e+002,2.391260e+001
9.246072e+002,2.339391e+001
9.255714e+002,2.326100e+001
9.265356e+002,2.388821e+001
9.274999e+002,2.714371e+001
9.284641e+002,2.911977e+001
9.294283e+002,2.752748e+001
9.303926e+002,2.395001e+001
9.313568e+002,2.135146e+001
9.323210e+002,2.129353e+001
9.332853e+002,2.212589e+001
9.342495e+002,2.055077e+001
9.352137e+002,1.818591e+001
9.361780e+002,1.831465e+001
9.371422e+002,2.163560e+001
9.381064e+002,2.527663e+001
9.390707e+002,2.503854e+001
9.400349e+002,1.990785e+001
9.409991e+002,1.719933e+001
9.419634e+002,1.825575e+001
9.429276e+002,1.958868e+001
9.438918e+002,2.090564e+001
9.448561e+002,2.177463e+001
9.458203e+002,2.126967e+001
9.467845e+002,1.882433e+001
9.477488e+002,1.671686e+001
9.487130e+002,1.693704e+001
9.496772e+002,1.796210e+001
9.506415e+002,1.901779e+001
9.516057e+002,1.977213e+001
9.525699e+002,1.991702e+001
9.535342e+002,1.913437e+001
9.544984e+002,1.748732e+001
9.554626e+002,1.564436e+001
9.564269e+002,1.347006e+001
9.573911e+002,1.214316e+001
9.583553e+002,1.256500e+001
9.593196e+002,1.371854e+001
9.602838e+002,1.383586e+001
9.612480e+002,1.249574e+001
9.622123e+002,1.149954e+001
9.631765e+002,1.162691e+001
9.641407e+002,1.199538e+001
9.651050e+002,1.212149e+001
9.660692e+002,1.211861e+001
9.670334e+002,1.249356e+001
9.679977e+002,1.362289e+001
9.689619e+002,1.503316e+001
9.699261e+002,1.514194e+001
9.708904e+002,1.444917e+001
9.718546e+002,1.475769e+001
9.728188e+002,1.654295e+001
9.737831e+002,1.894958e+001
9.747473e+002,2.108217e+001
9.757115e+002,2.308832e+001
9.766758e+002,2.411649e+001
9.776400e+002,2.349763e+001
9.786042e+002,2.285974e+001
9.795685e+002,2.279085e+001
9.805327e+002,2.270436e+001
9.814969e+002,2.182294e+001
9.824612e+002,1.994449e+001
9.834254e+002,1.760759e+001
9.843896e+002,1.454062e+001
9.853539e+002,1.163402e+001
9.863181e+002,1.027341e+001
9.872823e+002,1.018474e+001
9.882466e+002,9.865540e+000
9.892108e+002,8.092316e+000
9.901750e+002,5.300217e+000
9.911393e+002,3.970932e+000
9.921035e+002,4.772202e+000
9.930677e+002,5.651993e+000
9.940320e+002,7.091385e+000
9.949962e+002,8.323227e+000
9.959604e+002,8.248291e+000
9.969247e+002,6.910934e+000
9.978889e+002,6.368103e+000
9.988531e+002,8.217773e+000
9.998174e+002,1.010249e+001
1.000782e+003,1.084784e+001
1.001746e+003,1.072621e+001
1.002710e+003,9.974365e+000
1.003674e+003,8.802155e+000
1.004639e+003,7.652710e+000
1.005603e+003,7.387100e+000
1.006567e+003,8.076447e+000
1.007531e+003,7.912582e+000
1.008495e+003,6.473358e+000
1.009460e+003,5.094193e+000
1.010424e+003,4.544144e+000
1.011388e+003,4.726929e+000
1.012352e+003,5.280548e+000
1.013317e+003,6.493484e+000
1.014281e+003,7.290207e+000
1.015245e+003,7.174789e+000
1.016209e+003,6.702438e+000
1.017174e+003,6.292206e+000
1.018138e+003,5.979355e+000
1.019102e+003,5.525009e+000
1.020066e+003,4.736984e+000
1.021031e+003,3.778870e+000
1.021995e+003,3.084946e+000
1.022959e+003,2.498871e+000
1.023923e+003,1.372040e+000
1.024887e+003,-8.869324e-001
1.025852e+003,-3.157639e+000
1.026816e+003,-3.269501e+000
1.027780e+003,-4.115448e-001
1.028744e+003,1.028168e+000
1.029709e+003,-7.850494e-001
1.030673e+003,-2.299805e+000
1.031637e+003,-2.299454e+000
1.032601e+003,-1.487518e+000
1.033566e+003,-9.450684e-001
1.034530e+003,-1.024750e+000
1.035494e+003,-1.095108e+000
1.036458e+003,-2.452698e-001
1.037422e+003,8.536072e-001
1.038387e+003,7.662048e-001
1.039351e+003,-3.712769e-001
1.040315e+003,-8.736115e-001
1.041279e+003,6.877594e-001
1.042244e+003,3.760605e+000
1.043208e+003,5.441498e+000
1.044172e+003,4.944183e+000
1.045136e+003,4.047852e+000
1.046101e+003,2.295212e+000
1.047065e+003,7.569275e-001
1.048029e+003,3.860016e-001
1.048993e+003,8.514099e-001
1.049958e+003,6.806793e-001
1.050922e+003,-1.229568e+000
1.051886e+003,-2.722488e+000
1.052850e+003,-7.115479e-001
1.053814e+003,2.547180e+000
1.054779e+003,4.108856e+000
1.055743e+003,3.359344e+000
1.056707e+003,1.579376e+000
1.057671e+003,2.844391e-001
1.058636e+003,-5.383759e-001
1.059600e+003,-1.367798e+000
1.060564e+003,-2.623703e+000
1.061528e+003,-3.107361e+000
1.062493e+003,-2.108398e+000
1.063457e+003,-7.528687e-001
1.064421e+003,-3.202820e-001
1.065385e+003,-9.074249e-001
1.066349e+003,-1.382553e+000
1.067314e+003,-1.069138e+000
1.068278e+003,-5.809631e-001
1.069242e+003,-2.076874e-001
1.070206e+003,2.029419e-002
1.071171e+003,-9.490967e-002
1.072135e+003,-5.893555e-001
1.073099e+003,-1.035324e+000
1.074063e+003,-6.131439e-001
1.075028e+003,8.291931e-001
1.075992e+003,1.570663e+000
1.076956e+003,1.253342e+000
1.077920e+003,8.623505e-001
1.078885e+003,8.961945e-001
1.079849e+003,1.145248e+000
1.080813e+003,1.151901e+000
1.081777e+003,8.269196e-001
1.082741e+003,4.972382e-001
1.083706e+003,-8.554077e-002
1.084670e+003,-4.077911e-001
1.085634e+003,3.950500e-002
1.086598e+003,9.521790e-001
1.087563e+003,1.897629e+000
1.088527e+003,2.612839e+000
1.089491e+003,2.896286e+000
1.090455e+003,2.139175e+000
1.091420e+003,1.375732e-001
1.092384e+003,-1.306747e+000
1.093348e+003,-2.248779e+000
1.094312e+003,-2.693405e+000
1.095276e+003,-2.189804e+000
1.096241e+003,-1.115601e+000
1.097205e+003,-8.465729e-001
1.098169e+003,-1.890121e+000
1.099133e+003,-2.897308e+000
1.100098e+003,-3.956299e+000
1.101062e+003,-4.236588e+000
1.102026e+003,-2.365570e+000
1.102990e+003,6.772156e-001
1.103955e+003,2.565247e+000
1.104919e+003,1.899750e+000
1.105883e+003,-6.114197e-002
1.106847e+003,-5.377350e-001
1.107812e+003,4.914703e-001
1.108776e+003,8.434143e-001
1.109740e+003,1.782684e-001
1.110704e+003,-6.465912e-001
1.111668e+003,-8.781586e-001
1.112633e+003,-6.520081e-001
1.113597e+003,-8.693848e-001
1.114561e+003,-2.107864e+000
1.115525e+003,-2.741470e+000
1.116490e+003,-2.043945e+000
1.117454e+003,-9.237213e-001
1.118418e+003,4.385834e-001
1.119382e+003,1.763992e+000
1.120347e+003,2.654633e+000
1.121311e+003,2.807388e+000
1.122275e+003,2.139328e+000
1.123239e+003,3.168793e-001
1.124203e+003,-2.374786e+000
1.125168e+003,-3.627121e+000
1.126132e+003,-2.808899e+000
1.127096e+003,-1.687103e+000
1.128060e+003,-1.700729e+000
1.129025e+003,-2.609222e+000
1.129989e+003,-3.244507e+000
1.130953e+003,-3.869194e+000
1.131917e+003,-3.431778e+000
1.132882e+003,-4.058533e-001
1.133846e+003,2.448868e+000
1.134810e+003,3.392502e+000
1.135774e+003,2.746719e+000
1.136739e+003,1.461472e+000
1.137703e+003,1.043701e-001
1.138667e+003,-8.276825e-001
1.139631e+003,-2.294617e-001
1.140595e+003,1.715897e+000
1.141560e+003,3.085602e+000
1.142524e+003,3.600616e+000
1.143488e+003,4.447937e+000
1.144452e+003,6.733154e+000
1.145417e+003,9.977646e+000
1.146381e+003,1.247278e+001
1.147345e+003,1.410814e+001
1.148309e+003,1.501118e+001
1.149274e+003,1.392844e+001
1.150238e+003,1.355646e+001
1.151202e+003,1.604982e+001
1.152166e+003,2.017659e+001
1.153130e+003,2.359055e+001
1.154095e+003,2.511530e+001
1.155059e+003,2.532954e+001
1.156023e+003,2.510715e+001
1.156987e+003,2.443590e+001
1.157952e+003,2.315802e+001
1.158916e+003,2.131859e+001
1.159880e+003,1.934477e+001
1.160844e+003,1.699567e+001
1.161809e+003,1.458426e+001
1.162773e+003,1.330997e+001
1.163737e+003,1.368083e+001
1.164701e+003,1.293158e+001
1.165666e+003,8.425995e+000
1.166630e+003,4.799377e+000
1.167594e+003,4.491043e+000
1.168558e+003,5.783859e+000
1.169522e+003,6.373444e+000
1.170487e+003,5.488556e+000
1.171451e+003,3.845703e+000
1.172415e+003,2.084320e+000
1.173379e+003,3.973541e-001
1.174344e+003,3.866577e-002
1.175308e+003,1.073486e+000
1.176272e+003,1.977829e+000
1.177236e+003,2.307053e+000
1.178201e+003,2.280746e+000
1.179165e+003,2.230469e+000
1.180129e+003,2.114578e+000
1.181093e+003,1.245789e+000
1.182057e+003,-1.369186e+000
1.183022e+003,-3.394997e+000
1.183986e+003,-3.942963e+000
1.184950e+003,-3.595749e+000
1.185914e+003,-2.435074e+000
1.186879e+003,-8.786926e-001
1.187843e+003,3.953552e-002
1.188807e+003,-5.644836e-001
1.189771e+003,-2.100021e+000
1.190736e+003,-2.692772e+000
1.191700e+003,-2.239540e+000
1.192664e+003,-1.876030e+000
1.193628e+003,-1.360603e+000
1.194593e+003,-1.305389e+000
1.195557e+003,-2.593491e+000
1.196521e+003,-4.743675e+000
1.197485e+003,-5.940552e+000
1.198449e+003,-5.654198e+000
1.199414e+003,-5.193443e+000
1.200378e+003,-5.235992e+000
1.201342e+003,-5.216965e+000
1.202306e+003,-4.510704e+000
1.203271e+003,-3.541656e+000
1.204235e+003,-3.319870e+000
1.205199e+003,-4.253654e+000
1.206163e+003,-5.499313e+000
1.207128e+003,-5.604576e+000
1.208092e+003,-4.473061e+000
1.209056e+003,-4.294724e+000
1.210020e+003,-5.448677e+000
1.210984e+003,-6.589668e+000
1.211949e+003,-7.404839e+000
1.212913e+003,-7.991783e+000
1.213877e+003,-8.203606e+000
1.214841e+003,-8.067192e+000
1.215806e+003,-8.720184e+000
1.216770e+003,-1.123730e+001
1.217734e+003,-1.368204e+001
1.218698e+003,-1.488513e+001
1.219663e+003,-1.524599e+001
1.220627e+003,-1.514350e+001
1.221591e+003,-1.471924e+001
1.222555e+003,-1.390152e+001
1.223520e+003,-1.257124e+001
1.224484e+003,-1.103810e+001
1.225448e+003,-1.091972e+001
1.226412e+003,-1.325981e+001
1.227376e+003,-1.474693e+001
1.228341e+003,-1.540329e+001
1.229305e+003,-1.527191e+001
1.230269e+003,-1.364393e+001
1.231233e+003,-1.145034e+001
1.232198e+003,-1.072769e+001
1.233162e+003,-1.205260e+001
1.234126e+003,-1.323411e+001
1.235090e+003,-1.232399e+001
1.236055e+003,-1.095936e+001
1.237019e+003,-1.117038e+001
1.237983e+003,-1.239998e+001
1.238947e+003,-1.276900e+001
1.239911e+003,-1.148562e+001
1.240876e+003,-1.012814e+001
1.241840e+003,-1.131730e+001
1.242804e+003,-1.528605e+001
1.243768e+003,-1.741857e+001
1.244733e+003,-1.605138e+001
1.245697e+003,-1.491305e+001
1.246661e+003,-1.486293e+001
1.247625e+003,-1.471273e+001
1.248590e+003,-1.292489e+001
1.249554e+003,-1.016551e+001
1.250518e+003,-8.907280e+000
1.251482e+003,-1.041667e+001
1.252447e+003,-1.237900e+001
1.253411e+003,-1.132661e+001
1.254375e+003,-9.015396e+000
1.255339e+003,-9.915825e+000
1.256303e+003,-1.398051e+001
1.257268e+003,-1.661517e+001
1.258232e+003,-1.476038e+001
1.259196e+003,-1.071785e+001
1.260160e+003,-9.344215e+000
1.261125e+003,-1.125202e+001
1.262089e+003,-1.170962e+001
1.263053e+003,-8.230415e+000
1.264017e+003,-5.914925e+000
1.264982e+003,-6.863998e+000
1.265946e+003,-8.775002e+000
1.266910e+003,-9.313454e+000
1.267874e+003,-8.535416e+000
1.268839e+003,-8.195503e+000
1.269803e+003,-9.458061e+000
1.270767e+003,-1.142761e+001
1.271731e+003,-1.242726e+001
1.272695e+003,-1.240263e+001
1.273660e+003,-1.204521e+001
1.274624e+003,-1.135248e+001
1.275588e+003,-1.063271e+001
1.276552e+003,-9.630669e+000
1.277517e+003,-8.784554e+000
1.278481e+003,-9.454185e+000
1.279445e+003,-1.193396e+001
1.280409e+003,-1.293555e+001
1.281374e+003,-9.902252e+000
1.282338e+003,-7.169289e+000
1.283302e+003,-7.265656e+000
1.284266e+003,-8.691559e+000
1.285230e+003,-1.000140e+001
1.286195e+003,-1.075550e+001
1.287159e+003,-1.089735e+001
1.288123e+003,-1.034486e+001
1.289087e+003,-9.520355e+000
1.290052e+003,-9.903725e+000
1.291016e+003,-1.226164e+001
1.291980e+003,-1.314461e+001
1.292944e+003,-1.106796e+001
1.293909e+003,-9.669487e+000
1.294873e+003,-1.096194e+001
1.295837e+003,-1.329352e+001
1.296801e+003,-1.433102e+001
1.297766e+003,-1.381194e+001
1.298730e+003,-1.318545e+001
1.299694e+003,-1.326128e+001
1.300658e+003,-1.348668e+001
1.301622e+003,-1.284832e+001
1.302587e+003,-1.202865e+001
1.303551e+003,-1.262386e+001
1.304515e+003,-1.468176e+001
1.305479e+003,-1.590765e+001
1.306444e+003,-1.425948e+001
1.307408e+003,-1.077671e+001
1.308372e+003,-8.881821e+000
1.309336e+003,-8.878036e+000
1.310301e+003,-9.604408e+000
1.311265e+003,-1.269720e+001
1.312229e+003,-1.432453e+001
1.313193e+003,-1.197411e+001
1.314157e+003,-8.540588e+000
1.315122e+003,-7.301125e+000
1.316086e+003,-8.379028e+000
1.317050e+003,-9.426834e+000
1.318014e+003,-8.866905e+000
1.318979e+003,-7.577927e+000
1.319943e+003,-6.937546e+000
1.320907e+003,-7.014496e+000
1.321871e+003,-8.462456e+000
1.322836e+003,-1.202305e+001
1.323800e+003,-1.468686e+001
1.324764e+003,-1.406752e+001
1.325728e+003,-1.194536e+001
1.326693e+003,-1.155621e+001
1.327657e+003,-1.305325e+001
1.328621e+003,-1.402984e+001
1.329585e+003,-1.360098e+001
1.330549e+003,-1.265349e+001
1.331514e+003,-1.108362e+001
1.332478e+003,-9.942413e+000
1.333442e+003,-1.070247e+001
1.334406e+003,-1.284129e+001
1.335371e+003,-1.444807e+001
1.336335e+003,-1.436764e+001
1.337299e+003,-1.322631e+001
1.338263e+003,-1.217913e+001
1.339228e+003,-1.118405e+001
1.340192e+003,-1.066503e+001
1.341156e+003,-1.108844e+001
1.342120e+003,-1.127137e+001
1.343084e+003,-1.094370e+001
1.344049e+003,-1.051274e+001
1.345013e+003,-1.036713e+001
1.345977e+003,-1.033211e+001
1.346941e+003,-9.693047e+000
1.347906e+003,-8.130066e+000
1.348870e+003,-7.011993e+000
1.349834e+003,-7.991684e+000
1.350798e+003,-1.001269e+001
1.351763e+003,-1.099645e+001
1.352727e+003,-1.103278e+001
1.353691e+003,-1.079577e+001
1.354655e+003,-1.047239e+001
1.355620e+003,-1.012949e+001
1.356584e+003,-9.786079e+000
1.357548e+003,-9.445259e+000
1.358512e+003,-9.346962e+000
1.359476e+003,-9.709106e+000
1.360441e+003,-9.964508e+000
1.361405e+003,-9.962914e+000
1.362369e+003,-9.774239e+000
1.363333e+003,-9.211105e+000
1.364298e+003,-8.579239e+000
1.365262e+003,-8.381233e+000
1.366226e+003,-8.647438e+000
1.367190e+003,-8.860710e+000
1.368155e+003,-8.558113e+000
1.369119e+003,-7.890251e+000
1.370083e+003,-7.308411e+000
1.371047e+003,-6.771400e+000
1.372011e+003,-6.402779e+000
1.372976e+003,-6.495522e+000
1.373940e+003,-6.490433e+000
1.374904e+003,-5.863121e+000
1.375868e+003,-5.180214e+000
1.376833e+003,-5.331757e+000
1.377797e+003,-6.275093e+000
1.378761e+003,-7.039391e+000
1.379725e+003,-7.168304e+000
1.380690e+003,-7.103340e+000
1.381654e+003,-7.250237e+000
1.382618e+003,-7.484215e+000
1.383582e+003,-7.698486e+000
1.384547e+003,-7.864166e+000
1.385511e+003,-7.959663e+000
1.386475e+003,-8.086464e+000
1.387439e+003,-7.844170e+000
1.388403e+003,-6.066238e+000
1.389368e+003,-2.771072e+000
1.390332e+003,-1.726509e+000
1.391296e+003,-4.323395e+000
1.392260e+003,-6.511696e+000
1.393225e+003,-7.318321e+000
1.394189e+003,-7.620735e+000
1.395153e+003,-7.774155e+000
1.396117e+003,-7.803345e+000
1.397082e+003,-7.532104e+000
1.398046e+003,-6.995499e+000
1.399010e+003,-6.607582e+000
1.399974e+003,-6.793800e+000
1.400938e+003,-7.395508e+000
1.401903e+003,-7.732002e+000
1.402867e+003,-7.603943e+000
1.403831e+003,-7.312531e+000
1.404795e+003,-6.948280e+000
1.405760e+003,-6.454338e+000
1.406724e+003,-5.975967e+000
1.407688e+003,-5.434631e+000
1.408652e+003,-4.451431e+000
1.409617e+003,-3.097633e+000
1.410581e+003,-2.009186e+000
1.411545e+003,-1.386215e+000
1.412509e+003,-1.381805e+000
1.413474e+003,-2.663422e+000
1.414438e+003,-4.449898e+000
1.415402e+003,-5.193306e+000
1.416366e+003,-4.988197e+000
1.417330e+003,-5.061844e+000
1.418295e+003,-6.097389e+000
1.419259e+003,-6.773033e+000
1.420223e+003,-4.807068e+000
1.421187e+003,-9.388046e-001
1.422152e+003,7.087708e-002
1.423116e+003,-2.827980e+000
1.424080e+003,-5.215050e+000
1.425044e+003,-5.889549e+000
1.426009e+003,-5.907463e+000
1.426973e+003,-5.309845e+000
1.427937e+003,-4.513084e+000
1.428901e+003,-3.857559e+000
1.429865e+003,-3.427155e+000
1.430830e+003,-3.281509e+000
1.431794e+003,-3.474167e+000
1.432758e+003,-3.782196e+000
1.433722e+003,-3.651703e+000
1.434687e+003,-2.919594e+000
1.435651e+003,-2.740952e+000
1.436615e+003,-3.713737e+000
1.437579e+003,-4.746483e+000
1.438544e+003,-6.407692e+000
1.439508e+003,-7.372330e+000
1.440472e+003,-6.115768e+000
1.441436e+003,-3.673561e+000
1.442401e+003,-2.129272e+000
1.443365e+003,-1.964661e+000
1.444329e+003,-1.970619e+000
1.445293e+003,-1.112610e+000
1.446257e+003,-2.628250e-001
1.447222e+003,-1.708176e+000
1.448186e+003,-4.839104e+000
1.449150e+003,-5.884041e+000
1.450114e+003,-3.919472e+000
1.451079e+003,-2.423851e+000
1.452043e+003,-3.933823e+000
1.453007e+003,-6.280373e+000
1.453971e+003,-6.278320e+000
1.454936e+003,-4.245819e+000
1.455900e+003,-2.710258e+000
1.456864e+003,-2.167816e+000
1.457828e+003,-2.133987e+000
1.458792e+003,-2.769966e+000
1.459757e+003,-3.498772e+000
1.460721e+003,-3.689812e+000
1.461685e+003,-3.647339e+000
1.462649e+003,-4.147079e+000
1.463614e+003,-5.297264e+000
1.464578e+003,-6.216225e+000
1.465542e+003,-6.069206e+000
1.466506e+003,-5.309639e+000
1.467471e+003,-5.289574e+000
1.468435e+003,-6.184662e+000
1.469399e+003,-6.608513e+000
1.470363e+003,-6.611076e+000
1.471328e+003,-6.048882e+000
1.472292e+003,-4.341476e+000
1.473256e+003,-2.716721e+000
1.474220e+003,-1.810654e+000
1.475184e+003,-1.614517e+000
1.476149e+003,-2.146965e+000
1.477113e+003,-3.309044e+000
1.478077e+003,-4.623161e+000
1.479041e+003,-5.588936e+000
1.480006e+003,-6.143845e+000
1.480970e+003,-6.155670e+000
1.481934e+003,-5.570107e+000
1.482898e+003,-4.880936e+000
1.483863e+003,-3.693336e+000
1.484827e+003,-2.995316e+000
1.485791e+003,-3.325516e+000
1.486755e+003,-3.917740e+000
1.487719e+003,-4.365967e+000
1.488684e+003,-4.493500e+000
1.489648e+003,-3.703934e+000
1.490612e+003,-1.842918e+000
1.491576e+003,-5.121536e-001
1.492541e+003,-1.333359e+000
1.493505e+003,-3.053009e+000
1.494469e+003,-2.626839e+000
1.495433e+003,-5.265732e-001
1.496398e+003,7.308502e-001
1.497362e+003,7.542191e-001
1.498326e+003,5.733185e-001
1.499290e+003,4.528046e-001
1.500255e+003,5.935669e-001
1.501219e+003,1.272354e+000
1.502183e+003,2.443878e+000
1.503147e+003,3.977219e+000
1.504111e+003,5.928482e+000
1.505076e+003,7.794266e+000
1.506040e+003,9.210220e+000
1.507004e+003,1.051193e+001
1.507968e+003,1.191994e+001
1.508933e+003,1.350755e+001
1.509897e+003,1.551332e+001
1.510861e+003,1.803053e+001
1.511825e+003,2.070396e+001
1.512790e+003,2.328024e+001
1.513754e+003,2.566935e+001
1.514718e+003,2.763976e+001
1.515682e+003,2.915246e+001
1.516646e+003,3.125340e+001
1.517611e+003,3.461766e+001
1.518575e+003,3.732048e+001
1.519539e+003,3.838127e+001
1.520503e+003,3.912692e+001
1.521468e+003,4.058763e+001
1.522432e+003,4.191756e+001
1.523396e+003,4.169759e+001
1.524360e+003,3.996465e+001
1.525325e+003,3.803702e+001
1.526289e+003,3.681020e+001
1.527253e+003,3.595857e+001
1.528217e+003,3.492665e+001
1.529182e+003,3.375967e+001
1.530146e+003,3.197112e+001
1.531110e+003,2.919860e+001
1.532074e+003,2.637404e+001
1.533039e+003,2.346136e+001
1.534003e+003,2.040327e+001
1.534967e+003,1.707244e+001
1.535931e+003,1.386578e+001
1.536896e+003,1.115636e+001
1.537860e+003,8.991287e+000
1.538824e+003,7.316208e+000
1.539788e+003,6.034744e+000
1.540752e+003,4.685303e+000
1.541717e+003,2.590912e+000
1.542681e+003,1.387863e-001
1.543645e+003,-3.650742e-001
1.544609e+003,2.329323e+000
1.545573e+003,3.960396e+000
1.546538e+003,3.558990e+000
1.547502e+003,3.236450e+000
1.548466e+003,4.248222e+000
1.549430e+003,5.456200e+000
1.550395e+003,5.478989e+000
1.551359e+003,4.565155e+000
1.552323e+003,3.842506e+000
1.553287e+003,3.719307e+000
1.554252e+003,3.837791e+000
1.555216e+003,3.960281e+000
1.556180e+003,3.874260e+000
1.557144e+003,2.841698e+000
1.558109e+003,8.569794e-001
1.559073e+003,1.521683e-001
1.560037e+003,1.332855e+000
1.561001e+003,2.411041e+000
1.561966e+003,3.066292e+000
1.562930e+003,3.209450e+000
1.563894e+003,2.051613e+000
1.564858e+003,4.099197e-001
1.565823e+003,5.113373e-001
1.566787e+003,2.674286e+000
1.567751e+003,4.834846e+000
1.568715e+003,5.959511e+000
1.569679e+003,6.324722e+000
1.570644e+003,6.071304e+000
1.571608e+003,5.290581e+000
1.572572e+003,4.149117e+000
1.573536e+003,2.664734e+000
1.574500e+003,2.209976e+000
1.575465e+003,3.922585e+000
1.576429e+003,5.658920e+000
1.577393e+003,5.215775e+000
1.578357e+003,3.750565e+000
1.579322e+003,3.919601e+000
1.580286e+003,5.728935e+000
1.581250e+003,6.309853e+000
1.582214e+003,4.325073e+000
1.583179e+003,2.728958e+000
1.584143e+003,4.095177e+000
1.585107e+003,6.625298e+000
1.586071e+003,8.364281e+000
1.587036e+003,9.296852e+000
1.588000e+003,8.855659e+000
1.588964e+003,6.765442e+000
1.589928e+003,5.025246e+000
1.590893e+003,5.259239e+000
1.591857e+003,6.316162e+000
1.592821e+003,6.262314e+000
1.593785e+003,5.413597e+000
1.594750e+003,5.726784e+000
1.595714e+003,7.626892e+000
1.596678e+003,9.276733e+000
1.597642e+003,9.943939e+000
1.598606e+003,1.014622e+001
1.599571e+003,9.998451e+000
1.600535e+003,9.883705e+000
1.601499e+003,1.060241e+001
1.602463e+003,1.189935e+001
1.603427e+003,1.232561e+001
1.604392e+003,1.122205e+001
1.605356e+003,9.736588e+000
1.606320e+003,8.879005e+000
1.607284e+003,8.590347e+000
1.608249e+003,8.763733e+000
1.609213e+003,9.413490e+000
1.610177e+003,1.018027e+001
1.611141e+003,1.129082e+001
1.612106e+003,1.180479e+001
1.613070e+003,1.053075e+001
1.614034e+003,9.147644e+000
1.614998e+003,8.699913e+000
1.615963e+003,9.061920e+000
1.616927e+003,1.025180e+001
1.617891e+003,1.203656e+001
1.618855e+003,1.330672e+001
1.619820e+003,1.336681e+001
1.620784e+003,1.261735e+001
1.621748e+003,1.127779e+001
1.622712e+003,9.700066e+000
1.623677e+003,9.965340e+000
1.624641e+003,1.259770e+001
1.625605e+003,1.399221e+001
1.626569e+003,1.217490e+001
1.627533e+003,1.073859e+001
1.628498e+003,1.237923e+001
1.629462e+003,1.442642e+001
1.630426e+003,1.463390e+001
1.631390e+003,1.338595e+001
1.632354e+003,1.154711e+001
1.633319e+003,9.524452e+000
1.634283e+003,8.299461e+000
1.635247e+003,8.635231e+000
1.636211e+003,1.001688e+001
1.637176e+003,1.207499e+001
1.638140e+003,1.467727e+001
1.639104e+003,1.507293e+001
1.640068e+003,1.231493e+001
1.641033e+003,1.061020e+001
1.641997e+003,1.160391e+001
1.642961e+003,1.305570e+001
1.643925e+003,1.428696e+001
1.644890e+003,1.504223e+001
1.645854e+003,1.465826e+001
1.646818e+003,1.363601e+001
1.647782e+003,1.329549e+001
1.648747e+003,1.401104e+001
1.649711e+003,1.502210e+001
1.650675e+003,1.589002e+001
1.651639e+003,1.636254e+001
1.652604e+003,1.547108e+001
1.653568e+003,1.326675e+001
1.654532e+003,1.238763e+001
1.655496e+003,1.345742e+001
1.656460e+003,1.410851e+001
1.657425e+003,1.357661e+001
1.658389e+003,1.264699e+001
1.659353e+003,1.139735e+001
1.660317e+003,1.024964e+001
1.661281e+003,9.473007e+000
1.662246e+003,9.196419e+000
1.663210e+003,9.988518e+000
1.664174e+003,1.197477e+001
1.665138e+003,1.344845e+001
1.666103e+003,1.278082e+001
1.667067e+003,1.091441e+001
1.668031e+003,9.659004e+000
1.668995e+003,9.017044e+000
1.669960e+003,8.849968e+000
1.670924e+003,9.373718e+000
1.671888e+003,9.442139e+000
1.672852e+003,8.017464e+000
1.673817e+003,6.995026e+000
1.674781e+003,8.545395e+000
1.675745e+003,1.038226e+001
1.676709e+003,9.590324e+000
1.677674e+003,6.828796e+000
1.678638e+003,4.560623e+000
1.679602e+003,3.573288e+000
1.680566e+003,3.627098e+000
1.681531e+003,5.009476e+000
1.682495e+003,6.768692e+000
1.683459e+003,7.163185e+000
1.684423e+003,6.346306e+000
1.685387e+003,5.299400e+000
1.686352e+003,3.985069e+000
1.687316e+003,3.703873e+000
1.688280e+003,5.506248e+000
1.689244e+003,7.227135e+000
1.690208e+003,6.704781e+000
1.691173e+003,5.604973e+000
1.692137e+003,6.078896e+000
1.693101e+003,7.618340e+000
1.694065e+003,8.080101e+000
1.695030e+003,6.855217e+000
1.695994e+003,5.717674e+000
1.696958e+003,6.124603e+000
1.697922e+003,6.789467e+000
1.698887e+003,5.747757e+000
1.699851e+003,3.713188e+000
1.700815e+003,2.947563e+000
1.701779e+003,3.595390e+000
1.702744e+003,4.139999e+000
1.703708e+003,4.150185e+000
1.704672e+003,4.066833e+000
1.705636e+003,4.235695e+000
1.706601e+003,4.294991e+000
1.707565e+003,3.555885e+000
1.708529e+003,2.385292e+000
1.709493e+003,1.864670e+000
1.710458e+003,2.151878e+000
1.711422e+003,2.668625e+000
1.712386e+003,3.502327e+000
1.713350e+003,4.180275e+000
1.714314e+003,4.167740e+000
1.715279e+003,3.748596e+000
1.716243e+003,3.422058e+000
1.717207e+003,3.212631e+000
1.718171e+003,2.963654e+000
1.719135e+003,2.644272e+000
1.720100e+003,2.287209e+000
1.721064e+003,1.852592e+000
1.722028e+003,1.519669e+000
1.722992e+003,1.806595e+000
1.723957e+003,2.504982e+000
1.724921e+003,1.837799e+000
1.725885e+003,-7.364426e-001
1.726849e+003,-1.809692e+000
1.727814e+003,6.316605e-001
1.728778e+003,2.836052e+000
1.729742e+003,3.069504e+000
1.730706e+003,2.429451e+000
1.731671e+003,1.567314e+000
1.732635e+003,7.493134e-001
1.733599e+003,5.300980e-001
1.734563e+003,9.302216e-001
1.735528e+003,1.282860e+000
1.736492e+003,1.210335e+000
1.737456e+003,7.845612e-001
1.738420e+003,2.643585e-002
1.739385e+003,-9.105530e-001
1.740349e+003,-1.304832e+000
1.741313e+003,-1.059158e+000
1.742277e+003,-5.572739e-001
1.743241e+003,6.159973e-001
1.744206e+003,1.464134e+000
1.745170e+003,1.595070e+000
1.746134e+003,1.625237e+000
1.747098e+003,1.788757e+000
1.748063e+003,2.104416e+000
1.749027e+003,2.886497e+000
1.749991e+003,3.764320e+000
1.750955e+003,3.548393e+000
1.751919e+003,2.076073e+000
1.752884e+003,1.154068e+000
1.753848e+003,2.315506e+000
1.754812e+003,4.023445e+000
1.755776e+003,2.985344e+000
1.756741e+003,-6.174316e-001
1.757705e+003,-2.147575e+000
1.758669e+003,-8.831787e-001
1.759633e+003,2.345276e-001
1.760598e+003,1.120499e+000
1.761562e+003,1.445900e+000
1.762526e+003,6.887054e-001
1.763490e+003,-1.125946e-001
1.764455e+003,4.834747e-002
1.765419e+003,5.256348e-001
1.766383e+003,-1.645508e-001
1.767347e+003,-1.812660e+000
1.768312e+003,-2.232407e+000
1.769276e+003,-3.739777e-001
1.770240e+003,1.459579e+000
1.771204e+003,6.561966e-001
1.772168e+003,-1.494621e+000
1.773133e+003,-1.991005e+000
1.774097e+003,-1.038406e+000
1.775061e+003,-8.001785e-001
1.776025e+003,-1.673714e+000
1.776990e+003,-2.196609e+000
1.777954e+003,-1.744209e+000
1.778918e+003,-9.791489e-001
1.779882e+003,-3.439865e-001
1.780846e+003,2.241440e-001
1.781811e+003,1.077003e+000
1.782775e+003,1.993736e+000
1.783739e+003,2.105675e+000
1.784703e+003,1.247292e+000
1.785668e+003,3.110123e-001
1.786632e+003,-7.545395e-001
1.787596e+003,-1.352165e+000
1.788560e+003,-5.875168e-001
1.789525e+003,7.156754e-001
1.790489e+003,1.373749e+000
1.791453e+003,1.439293e+000
1.792417e+003,1.508789e+000
1.793382e+003,1.674904e+000
1.794346e+003,1.324493e+000
1.795310e+003,6.841278e-002
1.796274e+003,-1.161911e+000
1.797239e+003,-1.252144e+000
1.798203e+003,-4.505157e-001
1.799167e+003,2.899475e-001
1.800131e+003,8.677673e-001
1.801095e+003,1.366608e+000
1.802060e+003,2.231415e+000
1.803024e+003,2.514595e+000
1.803988e+003,1.569824e+000
1.804952e+003,6.378784e-001
1.805917e+003,1.772232e-001
1.806881e+003,1.153793e-001
1.807845e+003,6.025620e-001
1.808809e+003,1.328659e+000
1.809773e+003,1.649490e+000
1.810738e+003,1.510544e+000
1.811702e+003,1.521255e+000
1.812666e+003,2.054604e+000
1.813630e+003,2.830978e+000
1.814595e+003,3.572769e+000
1.815559e+003,4.102585e+000
1.816523e+003,3.580215e+000
1.817487e+003,1.889488e+000
1.818452e+003,6.000290e-001
1.819416e+003,-2.429504e-001
1.820380e+003,-4.415894e-001
1.821344e+003,3.757019e-001
1.822309e+003,1.297028e+000
1.823273e+003,2.110451e+000
1.824237e+003,2.588104e+000
1.825201e+003,2.177773e+000
1.826166e+003,1.236649e+000
1.827130e+003,6.483078e-001
1.828094e+003,5.614471e-001
1.829058e+003,1.035599e+000
1.830022e+003,2.521744e+000
1.830987e+003,3.759216e+000
1.831951e+003,3.303612e+000
1.832915e+003,2.258484e+000
1.833879e+003,2.688660e+000
1.834844e+003,3.860756e+000
1.835808e+003,2.791946e+000
1.836772e+003,-5.963516e-001
1.837736e+003,-2.577675e+000
1.838700e+003,-1.527519e+000
1.839665e+003,7.064972e-001
1.840629e+003,2.694153e+000
1.841593e+003,4.140915e+000
1.842557e+003,4.288574e+000
1.843522e+003,3.153961e+000
1.844486e+003,2.255707e+000
1.845450e+003,1.270897e+000
1.846414e+003,1.330437e+000
1.847379e+003,3.736191e+000
1.848343e+003,5.213531e+000
1.849307e+003,4.127518e+000
1.850271e+003,2.564232e+000
1.851236e+003,1.794456e+000
1.852200e+003,1.712723e+000
1.853164e+003,2.170532e+000
1.854128e+003,2.841118e+000
1.855093e+003,3.071442e+000
1.856057e+003,2.721199e+000
1.857021e+003,2.554070e+000
1.857985e+003,3.255539e+000
1.858949e+003,4.099403e+000
1.859914e+003,3.619499e+000
1.860878e+003,2.152374e+000
1.861842e+003,1.633575e+000
1.862806e+003,2.083305e+000
1.863771e+003,2.203415e+000
1.864735e+003,1.604622e+000
1.865699e+003,1.457451e+000
1.866663e+003,2.653084e+000
1.867627e+003,3.808289e+000
1.868592e+003,3.552826e+000
1.869556e+003,2.445946e+000
1.870520e+003,1.416100e+000
1.871484e+003,5.334930e-001
1.872449e+003,3.809204e-001
1.873413e+003,1.306808e+000
1.874377e+003,2.375679e+000
1.875341e+003,3.498825e+000
1.876306e+003,4.238510e+000
1.877270e+003,4.302734e+000
1.878234e+003,3.891167e+000
1.879198e+003,2.950127e+000
1.880163e+003,1.851349e+000
1.881127e+003,1.153923e+000
1.882091e+003,9.446564e-001
1.883055e+003,1.065224e+000
1.884020e+003,1.426109e+000
1.884984e+003,2.010956e+000
1.885948e+003,2.820114e+000
1.886912e+003,3.695976e+000
1.887876e+003,4.346313e+000
1.888841e+003,4.776947e+000
1.889805e+003,4.928551e+000
1.890769e+003,4.741470e+000
1.891733e+003,4.537437e+000
1.892698e+003,4.034508e+000
1.893662e+003,4.239014e+000
1.894626e+003,6.514862e+000
1.895590e+003,8.283630e+000
1.896554e+003,7.185120e+000
1.897519e+003,5.090073e+000
1.898483e+003,3.895531e+000
1.899447e+003,3.592072e+000
1.900411e+003,4.164505e+000
1.901376e+003,5.716385e+000
1.902340e+003,6.613792e+000
1.903304e+003,6.114754e+000
1.904268e+003,5.003372e+000
1.905233e+003,2.764748e+000
1.906197e+003,1.113091e+000
1.907161e+003,2.912094e+000
1.908125e+003,6.062943e+000
1.909090e+003,6.270088e+000
1.910054e+003,3.807312e+000
1.911018e+003,2.019951e+000
1.911982e+003,2.079285e+000
1.912947e+003,2.853485e+000
1.913911e+003,3.496765e+000
1.914875e+003,4.033020e+000
1.915839e+003,4.497986e+000
1.916803e+003,4.809708e+000
1.917768e+003,4.675705e+000
1.918732e+003,4.020317e+000
1.919696e+003,3.616203e+000
1.920660e+003,3.455826e+000
1.921625e+003,3.737679e+000
1.922589e+003,5.019859e+000
1.923553e+003,5.845215e+000
1.924517e+003,4.577606e+000
1.925481e+003,3.309044e+000
1.926446e+003,4.360840e+000
1.927410e+003,6.564972e+000
1.928374e+003,7.518326e+000
1.929338e+003,7.094154e+000
1.930303e+003,6.728050e+000
1.931267e+003,6.847206e+000
1.932231e+003,7.058022e+000
1.933195e+003,7.248581e+000
1.934160e+003,7.286652e+000
1.935124e+003,6.824654e+000
1.936088e+003,6.329689e+000
1.937052e+003,6.712265e+000
1.938017e+003,7.484734e+000
1.938981e+003,7.219467e+000
1.939945e+003,5.965622e+000
1.940909e+003,5.341660e+000
1.941874e+003,5.983849e+000
1.942838e+003,6.451859e+000
1.943802e+003,5.392509e+000
1.944766e+003,3.829109e+000
1.945730e+003,3.806122e+000
1.946695e+003,5.071388e+000
1.947659e+003,5.713997e+000
1.948623e+003,5.616653e+000
1.949587e+003,6.294304e+000
1.950552e+003,8.331703e+000
1.951516e+003,9.438705e+000
1.952480e+003,8.472313e+000
1.953444e+003,7.216042e+000
1.954408e+003,6.796043e+000
1.955373e+003,6.818199e+000
1.956337e+003,6.939636e+000
1.957301e+003,7.129013e+000
1.958265e+003,6.973732e+000
1.959230e+003,6.365677e+000
1.960194e+003,6.347389e+000
1.961158e+003,7.576294e+000
1.962122e+003,8.453339e+000
1.963087e+003,8.578384e+000
1.964051e+003,8.262871e+000
1.965015e+003,7.356018e+000
1.965979e+003,6.476852e+000
1.966944e+003,6.167923e+000
1.967908e+003,6.285255e+000
1.968872e+003,6.666878e+000
1.969836e+003,7.123802e+000
1.970801e+003,7.153206e+000
1.971765e+003,6.587212e+000
1.972729e+003,6.069733e+000
1.973693e+003,6.082512e+000
1.974657e+003,6.600800e+000
1.975622e+003,7.941628e+000
1.976586e+003,9.602249e+000
1.977550e+003,1.007919e+001
1.978514e+003,9.615227e+000
1.979479e+003,9.736824e+000
1.980443e+003,1.061741e+001
1.981407e+003,1.132443e+001
1.982371e+003,1.154025e+001
1.983335e+003,1.139792e+001
1.984300e+003,1.095606e+001
1.985264e+003,1.018152e+001
1.986228e+003,8.934113e+000
1.987192e+003,7.487885e+000
1.988157e+003,7.377419e+000
1.989121e+003,9.064438e+000
1.990085e+003,9.786369e+000
1.991049e+003,9.108994e+000
1.992014e+003,8.397919e+000
1.992978e+003,7.375435e+000
1.993942e+003,6.889351e+000
1.994906e+003,7.448975e+000
1.995871e+003,8.411652e+000
1.996835e+003,9.683357e+000
1.997799e+003,1.086816e+001
1.998763e+003,1.126290e+001
1.999728e+003,1.100095e+001
