5.003444e+002,2.124652e+001
5.013087e+002,2.130188e+001
5.022729e+002,2.142535e+001
5.032371e+002,2.174225e+001
5.042014e+002,2.073022e+001
5.051656e+002,1.875543e+001
5.061298e+002,1.730310e+001
5.070941e+002,1.770258e+001
5.080583e+002,2.020770e+001
5.090225e+002,2.165143e+001
5.099868e+002,2.236664e+001
5.109510e+002,2.209485e+001
5.119152e+002,1.966132e+001
5.128795e+002,1.480872e+001
5.138437e+002,1.285999e+001
5.148079e+002,1.986035e+001
5.157722e+002,2.649438e+001
5.167364e+002,2.827789e+001
5.177006e+002,2.489056e+001
5.186649e+002,1.977789e+001
5.196291e+002,1.666052e+001
5.205933e+002,1.549231e+001
5.215576e+002,1.614722e+001
5.225218e+002,1.795343e+001
5.234860e+002,1.953870e+001
5.244503e+002,1.887628e+001
5.254145e+002,1.556519e+001
5.263787e+002,1.451178e+001
5.273430e+002,1.693201e+001
5.283072e+002,2.077625e+001
5.292714e+002,2.316217e+001
5.302357e+002,2.312329e+001
5.311999e+002,2.182770e+001
5.321641e+002,2.014600e+001
5.331284e+002,1.817188e+001
5.340926e+002,1.519489e+001
5.350568e+002,1.056030e+001
5.360211e+002,6.516113e+000
5.369853e+002,6.560547e+000
5.379495e+002,8.209961e+000
5.389138e+002,9.180847e+000
5.398780e+002,8.590637e+000
5.408422e+002,7.410400e+000
5.418065e+002,9.296692e+000
5.427707e+002,1.361096e+001
5.437349e+002,1.521423e+001
5.446992e+002,1.180444e+001
5.456634e+002,5.211853e+000
5.466276e+002,2.096375e+000
5.475919e+002,6.474365e+000
5.485561e+002,1.021808e+001
5.495203e+002,1.287384e+001
5.504846e+002,1.438464e+001
5.514488e+002,1.486115e+001
5.524130e+002,1.436505e+001
5.533773e+002,1.335718e+001
5.543415e+002,1.141486e+001
5.553057e+002,9.545593e+000
5.562700e+002,9.131226e+000
5.572342e+002,1.091864e+001
5.581984e+002,1.310760e+001
5.591627e+002,1.087909e+001
5.601269e+002,6.262451e+000
5.610911e+002,2.860596e+000
5.620554e+002,2.439514e+000
5.630196e+002,4.436462e+000
5.639838e+002,5.470276e+000
5.649481e+002,5.047119e+000
5.659123e+002,4.457397e+000
5.668765e+002,4.537903e+000
5.678408e+002,5.262329e+000
5.688050e+002,5.794434e+000
5.697692e+002,5.197693e+000
5.707335e+002,3.812073e+000
5.716977e+002,1.175659e+000
5.726619e+002,-1.572571e+000
5.736262e+002,-2.565979e+000
5.745904e+002,-5.572510e-002
5.755546e+002,3.014404e+000
5.765189e+002,5.385742e-001
5.774831e+002,-5.225586e+000
5.784473e+002,-9.629150e+000
5.794116e+002,-9.317200e+000
5.803758e+002,-4.501099e+000
5.813400e+002,-1.821716e+000
5.823043e+002,-1.954834e+000
5.832685e+002,-3.355774e+000
5.842327e+002,-6.070740e+000
5.851970e+002,-9.376221e+000
5.861612e+002,-1.051392e+001
5.871254e+002,-7.554504e+000
5.880897e+002,-4.588501e+000
5.890539e+002,-2.060425e+000
5.900181e+002,-3.732300e-001
5.909824e+002,-8.850098e-003
5.919466e+002,-1.593506e+000
5.929108e+002,-3.408630e+000
5.938751e+002,-3.421753e+000
5.948393e+002,-2.488708e+000
5.958035e+002,-1.983582e+000
5.967678e+002,-2.822327e+000
5.977320e+002,-4.475464e+000
5.986962e+002,-4.001892e+000
5.996605e+002,-2.013306e+000
6.006247e+002,-6.005859e-002
6.015889e+002,1.086548e+000
6.025532e+002,1.565002e+000
6.035174e+002,2.651306e+000
6.044816e+002,5.831604e+000
6.054459e+002,8.172363e+000
6.064101e+002,9.260925e+000
6.073743e+002,9.161011e+000
6.083386e+002,7.927795e+000
6.093028e+002,5.023071e+000
6.102670e+002,2.431763e+000
6.112313e+002,1.559631e+000
6.121955e+002,1.727478e+000
6.131597e+002,2.184692e+000
6.141240e+002,2.379944e+000
6.150882e+002,2.206787e+000
6.160524e+002,1.290405e+000
6.170167e+002,4.882813e-004
6.179809e+002,-9.318237e-001
6.189451e+002,-1.322876e+000
6.199094e+002,-1.498779e+000
6.208736e+002,-2.211914e+000
6.218378e+002,-4.234375e+000
6.228021e+002,-4.818420e+000
6.237663e+002,-2.780579e+000
6.247305e+002,7.675171e-001
6.256948e+002,4.131531e+000
6.266590e+002,6.923279e+000
6.276232e+002,7.411011e+000
6.285875e+002,3.061157e+000
6.295517e+002,-2.027222e+000
6.305159e+002,-2.896729e+000
6.314802e+002,2.750061e+000
6.324444e+002,1.113171e+001
6.334086e+002,1.160535e+001
6.343729e+002,6.976318e+000
6.353371e+002,2.886169e+000
6.363013e+002,1.194946e+000
6.372656e+002,1.143127e+000
6.382298e+002,4.142456e-001
6.391940e+002,-2.090576e+000
6.401583e+002,-4.204712e+000
6.411225e+002,-5.181396e+000
6.420867e+002,-5.145569e+000
6.430510e+002,-4.593811e+000
6.440152e+002,-4.040771e+000
6.449794e+002,-3.321472e+000
6.459437e+002,-1.362732e+000
6.469079e+002,1.752930e-001
6.478721e+002,-7.171631e-002
6.488364e+002,-2.372009e+000
6.498006e+002,-5.615845e+000
6.507648e+002,-8.949097e+000
6.517291e+002,-1.186884e+001
6.526933e+002,-1.225922e+001
6.536575e+002,-9.634155e+000
6.546218e+002,-5.407227e+000
6.555860e+002,-2.147522e+000
6.565502e+002,2.453613e-001
6.575145e+002,7.734985e-001
6.584787e+002,-2.435730e+000
6.594429e+002,-5.701843e+000
6.604072e+002,-5.744995e+000
6.613714e+002,-1.776855e+000
6.623356e+002,2.039368e+000
6.632999e+002,4.265503e+000
6.642641e+002,4.780518e+000
6.652283e+002,2.813354e+000
6.661926e+002,-7.752075e-001
6.671568e+002,-3.886841e+000
6.681210e+002,-4.072632e+000
6.690853e+002,-2.435059e+000
6.700495e+002,-1.885864e+000
6.710137e+002,-2.354797e+000
6.719780e+002,-2.250122e+000
6.729422e+002,3.088989e-001
6.739064e+002,6.040955e+000
6.748707e+002,8.528381e+000
6.758349e+002,6.751587e+000
6.767991e+002,3.806519e+000
6.777634e+002,5.457764e-001
6.787276e+002,-2.444824e+000
6.796918e+002,-3.645569e+000
6.806561e+002,-1.422302e+000
6.816203e+002,7.121582e-001
6.825845e+002,1.702698e+000
6.835488e+002,1.641663e+000
6.845130e+002,6.323853e-001
6.854772e+002,-1.342957e+000
6.864415e+002,-2.890808e+000
6.874057e+002,-1.047302e+000
6.883699e+002,2.531372e+000
6.893342e+002,4.745850e+000
6.902984e+002,3.903320e+000
6.912626e+002,6.890869e-001
6.922269e+002,-1.142822e+000
6.931911e+002,-2.437134e-001
6.941553e+002,1.682190e+000
6.951196e+002,5.521790e+000
6.960838e+002,9.175171e+000
6.970480e+002,9.187012e+000
6.980123e+002,3.318237e+000
6.989765e+002,-1.650269e+000
6.999407e+002,-3.301025e+000
7.009050e+002,-3.102295e+000
7.018692e+002,-1.580139e+000
7.028334e+002,7.047119e-001
7.037977e+002,2.665771e+000
7.047619e+002,2.491882e+000
7.057261e+002,1.326904e+000
7.066904e+002,8.555908e-001
7.076546e+002,1.305298e+000
7.086188e+002,1.870178e+000
7.095831e+002,1.126892e+000
7.105473e+002,-2.205139e+000
7.115115e+002,-3.405090e+000
7.124758e+002,-1.028137e+000
7.134400e+002,1.277100e+000
7.144042e+002,1.512451e+000
7.153685e+002,-2.178345e-001
7.163327e+002,-2.232117e+000
7.172969e+002,-5.251526e+000
7.182612e+002,-6.819397e+000
7.192254e+002,-5.068054e+000
7.201896e+002,-1.298950e+000
7.211539e+002,2.159180e+000
7.221181e+002,3.518372e+000
7.230823e+002,2.999817e+000
7.240466e+002,1.017273e+000
7.250108e+002,-1.644470e+000
7.259750e+002,-3.307190e+000
7.269393e+002,-3.359741e+000
7.279035e+002,-2.464478e+000
7.288677e+002,-2.033203e+000
7.298320e+002,-6.932373e-001
7.307962e+002,3.915405e-001
7.317604e+002,1.114502e+000
7.327247e+002,1.675964e+000
7.336889e+002,1.663086e+000
7.346531e+002,-2.380371e-001
7.356174e+002,-1.605530e+000
7.365816e+002,1.492493e+000
7.375458e+002,5.403870e+000
7.385101e+002,6.668335e+000
7.394743e+002,4.800598e+000
7.404385e+002,2.651245e+000
7.414028e+002,4.865051e+000
7.423670e+002,9.275269e+000
7.433312e+002,9.935669e+000
7.442955e+002,6.878479e+000
7.452597e+002,3.724060e+000
7.462239e+002,4.599915e+000
7.471882e+002,1.081879e+001
7.481524e+002,1.428595e+001
7.491166e+002,1.242883e+001
7.500809e+002,9.894287e+000
7.510451e+002,8.480042e+000
7.520093e+002,7.921631e+000
7.529736e+002,6.746765e+000
7.539378e+002,4.387390e+000
7.549020e+002,2.379272e+000
7.558663e+002,1.399902e+000
7.568306e+002,1.250916e+000
7.577948e+002,1.582825e+000
7.587590e+002,2.005737e+000
7.597233e+002,2.204590e+000
7.606875e+002,2.228638e+000
7.616517e+002,2.448669e+000
7.626160e+002,2.979492e+000
7.635802e+002,3.938354e+000
7.645444e+002,5.351563e+000
7.655087e+002,7.348022e+000
7.664729e+002,1.084302e+001
7.674371e+002,1.234491e+001
7.684014e+002,1.041864e+001
7.693656e+002,7.879517e+000
7.703298e+002,6.681091e+000
7.712941e+002,7.050293e+000
7.722583e+002,7.429565e+000
7.732225e+002,6.328308e+000
7.741868e+002,5.079773e+000
7.751510e+002,4.322083e+000
7.761152e+002,4.360229e+000
7.770795e+002,5.857117e+000
7.780437e+002,9.373047e+000
7.790079e+002,1.423468e+001
7.799722e+002,1.546069e+001
7.809364e+002,1.313342e+001
7.819006e+002,9.851746e+000
7.828649e+002,5.669006e+000
7.838291e+002,1.708252e+000
7.847933e+002,1.355774e+000
7.857576e+002,7.757690e+000
7.867218e+002,1.099365e+001
7.876860e+002,7.862610e+000
7.886503e+002,3.357849e+000
7.896145e+002,1.677979e+000
7.905787e+002,3.862732e+000
7.915430e+002,7.116394e+000
7.925072e+002,8.285095e+000
7.934714e+002,8.096375e+000
7.944357e+002,7.731323e+000
7.953999e+002,7.682312e+000
7.963641e+002,8.133789e+000
7.973284e+002,9.137512e+000
7.982926e+002,1.076520e+001
7.992568e+002,1.156439e+001
8.002211e+002,1.047662e+001
8.011853e+002,8.440674e+000
8.021495e+002,6.230225e+000
8.031138e+002,4.680908e+000
8.040780e+002,4.491943e+000
8.050422e+002,5.291321e+000
8.060065e+002,6.987061e+000
8.069707e+002,1.027771e+001
8.079349e+002,1.327972e+001
8.088992e+002,1.405438e+001
8.098634e+002,1.229449e+001
8.108276e+002,1.009808e+001
8.117919e+002,1.028632e+001
8.127561e+002,1.100696e+001
8.137203e+002,9.821777e+000
8.146846e+002,7.032288e+000
8.156488e+002,4.779053e+000
8.166130e+002,5.556396e+000
8.175773e+002,1.009656e+001
8.185415e+002,1.233575e+001
8.195057e+002,1.014124e+001
8.204700e+002,7.816467e+000
8.214342e+002,6.947998e+000
8.223984e+002,7.067200e+000
8.233627e+002,6.646057e+000
8.243269e+002,4.772461e+000
8.252911e+002,3.592712e+000
8.262554e+002,4.689880e+000
8.272196e+002,6.597107e+000
8.281838e+002,7.398865e+000
8.291481e+002,6.603760e+000
8.301123e+002,5.792480e+000
8.310765e+002,8.026428e+000
8.320408e+002,1.291187e+001
8.330050e+002,1.649445e+001
8.339692e+002,1.871210e+001
8.349335e+002,1.957898e+001
8.358977e+002,1.866119e+001
8.368619e+002,1.577673e+001
8.378262e+002,1.467401e+001
8.387904e+002,1.657367e+001
8.397546e+002,1.814838e+001
8.407189e+002,1.850562e+001
8.416831e+002,1.810626e+001
8.426473e+002,1.776440e+001
8.436116e+002,1.780646e+001
8.445758e+002,1.850909e+001
8.455400e+002,2.023114e+001
8.465043e+002,2.163055e+001
8.474685e+002,2.209180e+001
8.484327e+002,2.167926e+001
8.493970e+002,2.016827e+001
8.503612e+002,1.634253e+001
8.513254e+002,9.162170e+000
8.522897e+002,6.514099e+000
8.532539e+002,1.054254e+001
8.542181e+002,1.501196e+001
8.551824e+002,1.623755e+001
8.561466e+002,1.525122e+001
8.571108e+002,1.679883e+001
8.580751e+002,2.325317e+001
8.590393e+002,2.792859e+001
8.600035e+002,2.893701e+001
8.609678e+002,2.792572e+001
8.619320e+002,2.614429e+001
8.628962e+002,2.422711e+001
8.638605e+002,2.298578e+001
8.648247e+002,2.463428e+001
8.657889e+002,2.758936e+001
8.667532e+002,2.817151e+001
8.677174e+002,2.591486e+001
8.686816e+002,2.375128e+001
8.696459e+002,2.567450e+001
8.706101e+002,3.304358e+001
8.715743e+002,3.604968e+001
8.725386e+002,3.074030e+001
8.735028e+002,2.665643e+001
8.744670e+002,2.611896e+001
8.754313e+002,2.769446e+001
8.763955e+002,2.894940e+001
8.773597e+002,2.927100e+001
8.783240e+002,2.970251e+001
8.792882e+002,3.081250e+001
8.802524e+002,3.204791e+001
8.812167e+002,3.314343e+001
8.821809e+002,3.398218e+001
8.831451e+002,3.458539e+001
8.841094e+002,3.509210e+001
8.850736e+002,3.578894e+001
8.860378e+002,3.575958e+001
8.870021e+002,3.443774e+001
8.879663e+002,3.337250e+001
8.889305e+002,3.324622e+001
8.898948e+002,3.379285e+001
8.908590e+002,3.450134e+001
8.918232e+002,3.608630e+001
8.927875e+002,3.743384e+001
8.937517e+002,3.896985e+001
8.947159e+002,3.979913e+001
8.956802e+002,3.781281e+001
8.966444e+002,3.298505e+001
8.976086e+002,2.902472e+001
8.985729e+002,3.130908e+001
8.995371e+002,3.643042e+001
9.005013e+002,3.724683e+001
9.014656e+002,3.467169e+001
9.024298e+002,3.307050e+001
9.033940e+002,3.554950e+001
9.043583e+002,4.114716e+001
9.053225e+002,4.523065e+001
9.062867e+002,4.609863e+001
9.072510e+002,4.676080e+001
9.082152e+002,4.894061e+001
9.091794e+002,5.091888e+001
9.101437e+002,5.001654e+001
9.111079e+002,4.570953e+001
9.120721e+002,4.272595e+001
9.130364e+002,4.507739e+001
9.140006e+002,4.770685e+001
9.149648e+002,4.809204e+001
9.159291e+002,4.703375e+001
9.168933e+002,4.624420e+001
9.178575e+002,4.669171e+001
9.188218e+002,4.757227e+001
9.197860e+002,4.648810e+001
9.207502e+002,4.306726e+001
9.217145e+002,4.204388e+001
9.226787e+002,4.702631e+001
9.236429e+002,5.340100e+001
9.246072e+002,5.348810e+001
9.255714e+002,4.511182e+001
9.265356e+002,4.005383e+001
9.274999e+002,4.467035e+001
9.284641e+002,4.762732e+001
9.294283e+002,4.320319e+001
9.303926e+002,3.509583e+001
9.313568e+002,3.077924e+001
9.323210e+002,3.430396e+001
9.332853e+002,3.986865e+001
9.342495e+002,3.659784e+001
9.352137e+002,2.923047e+001
9.361780e+002,2.554517e+001
9.371422e+002,2.756982e+001
9.381064e+002,3.222363e+001
9.390707e+002,3.495044e+001
9.400349e+002,3.490625e+001
9.409991e+002,3.513226e+001
9.419634e+002,3.522858e+001
9.429276e+002,3.579047e+001
9.438918e+002,3.761066e+001
9.448561e+002,3.999457e+001
9.458203e+002,4.168024e+001
9.467845e+002,4.231171e+001
9.477488e+002,4.317584e+001
9.487130e+002,4.543671e+001
9.496772e+002,4.795972e+001
9.506415e+002,5.039349e+001
9.516057e+002,5.228571e+001
9.525699e+002,5.237683e+001
9.535342e+002,4.927905e+001
9.544984e+002,4.353485e+001
9.554626e+002,4.219659e+001
9.564269e+002,4.686774e+001
9.573911e+002,5.075317e+001
9.583553e+002,5.113458e+001
9.593196e+002,4.978729e+001
9.602838e+002,4.949097e+001
9.612480e+002,5.023395e+001
9.622123e+002,5.185376e+001
9.631765e+002,5.705017e+001
9.641407e+002,6.076349e+001
9.651050e+002,5.967810e+001
9.660692e+002,5.490686e+001
9.670334e+002,4.921271e+001
9.679977e+002,4.453552e+001
9.689619e+002,4.145911e+001
9.699261e+002,4.076501e+001
9.708904e+002,4.155951e+001
9.718546e+002,4.307562e+001
9.728188e+002,4.511639e+001
9.737831e+002,4.701874e+001
9.747473e+002,4.797394e+001
9.757115e+002,4.787030e+001
9.766758e+002,4.838324e+001
9.776400e+002,5.126141e+001
9.786042e+002,5.345410e+001
9.795685e+002,5.367798e+001
9.805327e+002,5.235028e+001
9.814969e+002,5.037762e+001
9.824612e+002,4.837561e+001
9.834254e+002,4.655292e+001
9.843896e+002,4.346509e+001
9.853539e+002,4.087744e+001
9.863181e+002,4.145355e+001
9.872823e+002,4.457971e+001
9.882466e+002,4.794019e+001
9.892108e+002,5.004694e+001
9.901750e+002,5.185590e+001
9.911393e+002,5.512085e+001
9.921035e+002,5.976721e+001
9.930677e+002,6.308368e+001
9.940320e+002,6.488269e+001
9.949962e+002,6.640552e+001
9.959604e+002,6.806531e+001
9.969247e+002,7.014502e+001
9.978889e+002,7.484686e+001
9.988531e+002,8.529980e+001
9.998174e+002,9.444214e+001
1.000782e+003,9.863733e+001
1.001746e+003,9.950989e+001
1.002710e+003,9.898273e+001
1.003674e+003,9.803943e+001
1.004639e+003,9.674872e+001
1.005603e+003,9.511029e+001
1.006567e+003,9.290375e+001
1.007531e+003,9.341473e+001
1.008495e+003,9.889233e+001
1.009460e+003,1.027651e+002
1.010424e+003,9.924219e+001
1.011388e+003,9.082239e+001
1.012352e+003,8.771338e+001
1.013317e+003,9.405634e+001
1.014281e+003,9.914569e+001
1.015245e+003,9.996893e+001
1.016209e+003,9.792584e+001
1.017174e+003,9.356543e+001
1.018138e+003,8.754083e+001
1.019102e+003,8.054553e+001
1.020066e+003,7.305676e+001
1.021031e+003,6.606525e+001
1.021995e+003,6.174823e+001
1.022959e+003,5.910602e+001
1.023923e+003,5.653595e+001
1.024887e+003,5.348712e+001
1.025852e+003,5.009241e+001
1.026816e+003,4.677893e+001
1.027780e+003,4.397272e+001
1.028744e+003,4.121454e+001
1.029709e+003,3.704486e+001
1.030673e+003,3.434631e+001
1.031637e+003,3.520599e+001
1.032601e+003,3.724237e+001
1.033566e+003,3.710693e+001
1.034530e+003,3.382928e+001
1.035494e+003,3.012610e+001
1.036458e+003,2.887616e+001
1.037422e+003,2.877771e+001
1.038387e+003,2.743481e+001
1.039351e+003,2.487463e+001
1.040315e+003,2.322620e+001
1.041279e+003,2.439514e+001
1.042244e+003,2.794037e+001
1.043208e+003,3.058777e+001
1.044172e+003,3.055750e+001
1.045136e+003,3.166833e+001
1.046101e+003,3.604437e+001
1.047065e+003,4.000049e+001
1.048029e+003,4.063696e+001
1.048993e+003,3.842169e+001
1.049958e+003,3.599469e+001
1.050922e+003,3.446191e+001
1.051886e+003,3.431348e+001
1.052850e+003,3.687231e+001
1.053814e+003,4.034680e+001
1.054779e+003,4.266223e+001
1.055743e+003,4.316211e+001
1.056707e+003,4.179987e+001
1.057671e+003,3.834802e+001
1.058636e+003,3.267816e+001
1.059600e+003,3.002167e+001
1.060564e+003,3.363782e+001
1.061528e+003,3.667273e+001
1.062493e+003,3.784613e+001
1.063457e+003,3.729407e+001
1.064421e+003,3.464069e+001
1.065385e+003,3.019214e+001
1.066349e+003,2.761737e+001
1.067314e+003,3.034918e+001
1.068278e+003,3.376685e+001
1.069242e+003,3.468097e+001
1.070206e+003,3.424115e+001
1.071171e+003,3.428027e+001
1.072135e+003,3.528949e+001
1.073099e+003,3.596729e+001
1.074063e+003,3.440961e+001
1.075028e+003,3.047046e+001
1.075992e+003,2.913397e+001
1.076956e+003,3.211328e+001
1.077920e+003,3.354382e+001
1.078885e+003,2.969135e+001
1.079849e+003,2.415582e+001
1.080813e+003,2.417700e+001
1.081777e+003,3.205469e+001
1.082741e+003,3.845593e+001
1.083706e+003,3.608307e+001
1.084670e+003,3.202979e+001
1.085634e+003,2.996399e+001
1.086598e+003,2.928662e+001
1.087563e+003,2.788818e+001
1.088527e+003,2.494043e+001
1.089491e+003,2.221210e+001
1.090455e+003,2.252222e+001
1.091420e+003,2.586676e+001
1.092384e+003,2.922443e+001
1.093348e+003,3.327966e+001
1.094312e+003,3.542865e+001
1.095276e+003,3.329468e+001
1.096241e+003,2.874457e+001
1.097205e+003,2.672913e+001
1.098169e+003,2.821844e+001
1.099133e+003,2.986664e+001
1.100098e+003,3.084473e+001
1.101062e+003,3.164923e+001
1.102026e+003,3.257770e+001
1.102990e+003,3.365393e+001
1.103955e+003,3.479950e+001
1.104919e+003,3.585358e+001
1.105883e+003,3.630701e+001
1.106847e+003,3.484607e+001
1.107812e+003,3.147040e+001
1.108776e+003,3.166559e+001
1.109740e+003,3.778308e+001
1.110704e+003,4.310016e+001
1.111668e+003,4.149719e+001
1.112633e+003,3.541272e+001
1.113597e+003,3.463324e+001
1.114561e+003,4.226886e+001
1.115525e+003,4.900635e+001
1.116490e+003,5.241058e+001
1.117454e+003,5.360168e+001
1.118418e+003,5.199115e+001
1.119382e+003,4.948712e+001
1.120347e+003,4.950153e+001
1.121311e+003,5.369965e+001
1.122275e+003,5.933508e+001
1.123239e+003,6.259052e+001
1.124203e+003,6.404962e+001
1.125168e+003,6.351257e+001
1.126132e+003,6.008740e+001
1.127096e+003,5.735040e+001
1.128060e+003,5.784900e+001
1.129025e+003,6.092761e+001
1.129989e+003,6.454010e+001
1.130953e+003,6.891211e+001
1.131917e+003,7.243683e+001
1.132882e+003,7.483862e+001
1.133846e+003,7.673199e+001
1.134810e+003,7.767249e+001
1.135774e+003,7.859961e+001
1.136739e+003,8.114557e+001
1.137703e+003,8.618280e+001
1.138667e+003,9.303156e+001
1.139631e+003,1.007928e+002
1.140595e+003,1.094388e+002
1.141560e+003,1.194329e+002
1.142524e+003,1.314084e+002
1.143488e+003,1.441034e+002
1.144452e+003,1.556488e+002
1.145417e+003,1.669906e+002
1.146381e+003,1.819382e+002
1.147345e+003,2.015762e+002
1.148309e+003,2.216943e+002
1.149274e+003,2.417737e+002
1.150238e+003,2.620332e+002
1.151202e+003,2.838820e+002
1.152166e+003,3.061978e+002
1.153130e+003,3.271902e+002
1.154095e+003,3.453900e+002
1.155059e+003,3.592891e+002
1.156023e+003,3.679582e+002
1.156987e+003,3.709344e+002
1.157952e+003,3.663445e+002
1.158916e+003,3.541688e+002
1.159880e+003,3.406290e+002
1.160844e+003,3.286173e+002
1.161809e+003,3.157548e+002
1.162773e+003,2.975526e+002
1.163737e+003,2.726637e+002
1.164701e+003,2.488315e+002
1.165666e+003,2.281764e+002
1.166630e+003,2.095390e+002
1.167594e+003,1.910110e+002
1.168558e+003,1.748083e+002
1.169522e+003,1.645291e+002
1.170487e+003,1.608624e+002
1.171451e+003,1.608654e+002
1.172415e+003,1.613726e+002
1.173379e+003,1.622390e+002
1.174344e+003,1.639738e+002
1.175308e+003,1.669501e+002
1.176272e+003,1.685613e+002
1.177236e+003,1.688414e+002
1.178201e+003,1.670634e+002
1.179165e+003,1.607018e+002
1.180129e+003,1.492653e+002
1.181093e+003,1.401826e+002
1.182057e+003,1.367276e+002
1.183022e+003,1.338654e+002
1.183986e+003,1.290445e+002
1.184950e+003,1.243553e+002
1.185914e+003,1.219189e+002
1.186879e+003,1.220135e+002
1.187843e+003,1.236926e+002
1.188807e+003,1.260556e+002
1.189771e+003,1.287234e+002
1.190736e+003,1.315991e+002
1.191700e+003,1.348865e+002
1.192664e+003,1.348878e+002
1.193628e+003,1.293127e+002
1.194593e+003,1.236417e+002
1.195557e+003,1.222766e+002
1.196521e+003,1.238110e+002
1.197485e+003,1.235280e+002
1.198449e+003,1.205179e+002
1.199414e+003,1.166710e+002
1.200378e+003,1.114702e+002
1.201342e+003,1.070383e+002
1.202306e+003,1.056970e+002
1.203271e+003,1.057401e+002
1.204235e+003,1.036097e+002
1.205199e+003,9.779156e+001
1.206163e+003,9.032825e+001
1.207128e+003,8.438824e+001
1.208092e+003,8.009259e+001
1.209056e+003,7.714386e+001
1.210020e+003,7.694824e+001
1.210984e+003,7.521625e+001
1.211949e+003,6.981183e+001
1.212913e+003,6.254938e+001
1.213877e+003,5.558679e+001
1.214841e+003,4.927863e+001
1.215806e+003,4.385614e+001
1.216770e+003,3.866882e+001
1.217734e+003,3.549255e+001
1.218698e+003,3.709363e+001
1.219663e+003,3.967493e+001
1.220627e+003,3.799359e+001
1.221591e+003,3.178021e+001
1.222555e+003,2.524304e+001
1.223520e+003,2.237360e+001
1.224484e+003,2.260718e+001
1.225448e+003,2.217993e+001
1.226412e+003,1.985602e+001
1.227376e+003,1.956116e+001
1.228341e+003,2.286194e+001
1.229305e+003,2.599451e+001
1.230269e+003,2.750391e+001
1.231233e+003,2.717621e+001
1.232198e+003,2.389697e+001
1.233162e+003,1.731482e+001
1.234126e+003,1.329834e+001
1.235090e+003,1.782092e+001
1.236055e+003,2.470428e+001
1.237019e+003,2.787286e+001
1.237983e+003,2.767322e+001
1.238947e+003,2.570953e+001
1.239911e+003,2.293713e+001
1.240876e+003,2.011517e+001
1.241840e+003,1.788391e+001
1.242804e+003,1.616736e+001
1.243768e+003,1.685522e+001
1.244733e+003,2.197681e+001
1.245697e+003,2.705560e+001
1.246661e+003,3.258966e+001
1.247625e+003,3.631616e+001
1.248590e+003,3.608026e+001
1.249554e+003,3.320178e+001
1.250518e+003,3.105469e+001
1.251482e+003,3.093115e+001
1.252447e+003,3.084344e+001
1.253411e+003,2.801428e+001
1.254375e+003,2.454694e+001
1.255339e+003,2.483514e+001
1.256303e+003,2.913208e+001
1.257268e+003,3.380682e+001
1.258232e+003,3.632452e+001
1.259196e+003,3.745929e+001
1.260160e+003,3.949445e+001
1.261125e+003,4.289850e+001
1.262089e+003,4.709705e+001
1.263053e+003,5.269025e+001
1.264017e+003,5.721991e+001
1.264982e+003,6.126520e+001
1.265946e+003,6.357385e+001
1.266910e+003,6.184979e+001
1.267874e+003,5.712311e+001
1.268839e+003,5.348218e+001
1.269803e+003,5.371100e+001
1.270767e+003,5.523895e+001
1.271731e+003,5.268115e+001
1.272695e+003,4.648419e+001
1.273660e+003,4.347437e+001
1.274624e+003,4.440637e+001
1.275588e+003,4.477710e+001
1.276552e+003,4.233130e+001
1.277517e+003,3.855341e+001
1.278481e+003,3.556049e+001
1.279445e+003,3.333630e+001
1.280409e+003,3.132111e+001
1.281374e+003,2.931915e+001
1.282338e+003,2.773834e+001
1.283302e+003,2.574915e+001
1.284266e+003,2.472070e+001
1.285230e+003,2.755170e+001
1.286195e+003,3.335205e+001
1.287159e+003,3.757532e+001
1.288123e+003,3.667297e+001
1.289087e+003,3.208380e+001
1.290052e+003,2.707562e+001
1.291016e+003,2.037195e+001
1.291980e+003,1.677716e+001
1.292944e+003,1.761353e+001
1.293909e+003,1.864362e+001
1.294873e+003,1.859528e+001
1.295837e+003,1.838525e+001
1.296801e+003,1.949353e+001
1.297766e+003,2.194641e+001
1.298730e+003,2.333105e+001
1.299694e+003,2.134668e+001
1.300658e+003,1.900623e+001
1.301622e+003,2.186188e+001
1.302587e+003,2.624786e+001
1.303551e+003,2.462903e+001
1.304515e+003,1.651990e+001
1.305479e+003,9.851501e+000
1.306444e+003,1.103888e+001
1.307408e+003,1.760089e+001
1.308372e+003,2.189844e+001
1.309336e+003,2.316016e+001
1.310301e+003,2.435425e+001
1.311265e+003,2.693256e+001
1.312229e+003,2.842206e+001
1.313193e+003,2.769238e+001
1.314157e+003,2.554236e+001
1.315122e+003,2.197815e+001
1.316086e+003,1.762830e+001
1.317050e+003,1.433704e+001
1.318014e+003,1.352441e+001
1.318979e+003,1.478845e+001
1.319943e+003,1.759064e+001
1.320907e+003,2.190118e+001
1.321871e+003,2.543109e+001
1.322836e+003,2.746417e+001
1.323800e+003,2.864893e+001
1.324764e+003,2.922107e+001
1.325728e+003,2.940924e+001
1.326693e+003,2.917786e+001
1.327657e+003,2.824615e+001
1.328621e+003,2.786865e+001
1.329585e+003,3.082190e+001
1.330549e+003,3.297034e+001
1.331514e+003,2.961053e+001
1.332478e+003,2.449908e+001
1.333442e+003,2.174310e+001
1.334406e+003,2.148114e+001
1.335371e+003,2.132190e+001
1.336335e+003,1.981244e+001
1.337299e+003,1.808643e+001
1.338263e+003,1.818988e+001
1.339228e+003,2.037653e+001
1.340192e+003,2.223926e+001
1.341156e+003,2.419287e+001
1.342120e+003,2.521826e+001
1.343084e+003,2.379797e+001
1.344049e+003,2.173889e+001
1.345013e+003,2.100305e+001
1.345977e+003,2.159705e+001
1.346941e+003,2.240540e+001
1.347906e+003,2.300488e+001
1.348870e+003,2.336047e+001
1.349834e+003,2.276361e+001
1.350798e+003,2.207813e+001
1.351763e+003,2.407526e+001
1.352727e+003,2.823315e+001
1.353691e+003,3.066064e+001
1.354655e+003,2.987689e+001
1.355620e+003,2.745734e+001
1.356584e+003,2.493884e+001
1.357548e+003,2.253668e+001
1.358512e+003,2.073517e+001
1.359476e+003,1.896381e+001
1.360441e+003,1.762213e+001
1.361405e+003,1.733844e+001
1.362369e+003,1.745215e+001
1.363333e+003,1.779645e+001
1.364298e+003,1.831311e+001
1.365262e+003,1.942767e+001
1.366226e+003,2.088116e+001
1.367190e+003,2.105139e+001
1.368155e+003,1.842462e+001
1.369119e+003,1.433411e+001
1.370083e+003,1.315875e+001
1.371047e+003,1.597046e+001
1.372011e+003,1.859583e+001
1.372976e+003,2.079919e+001
1.373940e+003,2.207263e+001
1.374904e+003,2.220544e+001
1.375868e+003,2.175708e+001
1.376833e+003,2.092676e+001
1.377797e+003,1.979944e+001
1.378761e+003,1.926923e+001
1.379725e+003,2.001807e+001
1.380690e+003,2.095471e+001
1.381654e+003,2.081201e+001
1.382618e+003,2.044171e+001
1.383582e+003,2.080182e+001
1.384547e+003,2.196393e+001
1.385511e+003,2.402649e+001
1.386475e+003,2.718134e+001
1.387439e+003,2.992157e+001
1.388403e+003,2.941406e+001
1.389368e+003,2.562286e+001
1.390332e+003,2.408600e+001
1.391296e+003,2.672247e+001
1.392260e+003,2.873151e+001
1.393225e+003,2.846649e+001
1.394189e+003,2.772498e+001
1.395153e+003,2.795160e+001
1.396117e+003,2.822394e+001
1.397082e+003,2.671490e+001
1.398046e+003,2.336108e+001
1.399010e+003,1.987817e+001
1.399974e+003,1.750165e+001
1.400938e+003,1.596246e+001
1.401903e+003,1.614319e+001
1.402867e+003,1.984174e+001
1.403831e+003,2.365167e+001
1.404795e+003,2.696930e+001
1.405760e+003,2.997113e+001
1.406724e+003,3.285706e+001
1.407688e+003,3.368365e+001
1.408652e+003,2.937677e+001
1.409617e+003,2.179352e+001
1.410581e+003,1.858673e+001
1.411545e+003,2.334186e+001
1.412509e+003,2.994489e+001
1.413474e+003,3.292651e+001
1.414438e+003,3.278558e+001
1.415402e+003,3.076202e+001
1.416366e+003,2.770746e+001
1.417330e+003,2.558917e+001
1.418295e+003,2.513519e+001
1.419259e+003,2.605322e+001
1.420223e+003,2.855981e+001
1.421187e+003,3.185059e+001
1.422152e+003,3.237964e+001
1.423116e+003,2.933893e+001
1.424080e+003,2.790582e+001
1.425044e+003,3.051599e+001
1.426009e+003,3.289716e+001
1.426973e+003,3.302661e+001
1.427937e+003,3.206073e+001
1.428901e+003,3.113635e+001
1.429865e+003,3.101221e+001
1.430830e+003,3.286829e+001
1.431794e+003,3.715717e+001
1.432758e+003,4.129657e+001
1.433722e+003,4.043225e+001
1.434687e+003,3.451965e+001
1.435651e+003,3.416595e+001
1.436615e+003,4.345062e+001
1.437579e+003,4.869928e+001
1.438544e+003,4.686499e+001
1.439508e+003,4.302899e+001
1.440472e+003,3.965961e+001
1.441436e+003,3.777002e+001
1.442401e+003,3.887085e+001
1.443365e+003,4.274182e+001
1.444329e+003,4.573486e+001
1.445293e+003,4.515460e+001
1.446257e+003,4.283527e+001
1.447222e+003,4.179547e+001
1.448186e+003,4.173578e+001
1.449150e+003,4.137238e+001
1.450114e+003,4.016840e+001
1.451079e+003,3.967877e+001
1.452043e+003,4.191290e+001
1.453007e+003,4.514014e+001
1.453971e+003,4.716339e+001
1.454936e+003,4.758002e+001
1.455900e+003,4.464520e+001
1.456864e+003,3.675854e+001
1.457828e+003,3.086084e+001
1.458792e+003,3.258997e+001
1.459757e+003,3.587817e+001
1.460721e+003,3.543042e+001
1.461685e+003,3.283539e+001
1.462649e+003,3.217578e+001
1.463614e+003,3.455426e+001
1.464578e+003,3.721252e+001
1.465542e+003,3.746533e+001
1.466506e+003,3.598596e+001
1.467471e+003,3.541791e+001
1.468435e+003,3.661395e+001
1.469399e+003,3.740320e+001
1.470363e+003,3.580487e+001
1.471328e+003,3.524310e+001
1.472292e+003,3.704865e+001
1.473256e+003,3.855597e+001
1.474220e+003,3.792395e+001
1.475184e+003,3.661920e+001
1.476149e+003,3.707782e+001
1.477113e+003,3.969751e+001
1.478077e+003,4.316937e+001
1.479041e+003,4.671753e+001
1.480006e+003,4.999481e+001
1.480970e+003,5.047150e+001
1.481934e+003,4.629675e+001
1.482898e+003,4.491956e+001
1.483863e+003,4.780780e+001
1.484827e+003,5.084528e+001
1.485791e+003,5.386108e+001
1.486755e+003,5.667200e+001
1.487719e+003,5.893188e+001
1.488684e+003,6.030469e+001
1.489648e+003,5.989948e+001
1.490612e+003,5.782825e+001
1.491576e+003,5.782916e+001
1.492541e+003,6.333362e+001
1.493505e+003,7.151953e+001
1.494469e+003,7.637012e+001
1.495433e+003,7.787732e+001
1.496398e+003,7.885132e+001
1.497362e+003,7.983459e+001
1.498326e+003,8.239728e+001
1.499290e+003,8.753369e+001
1.500255e+003,9.439093e+001
1.501219e+003,1.021093e+002
1.502183e+003,1.103115e+002
1.503147e+003,1.175342e+002
1.504111e+003,1.229067e+002
1.505076e+003,1.301424e+002
1.506040e+003,1.418383e+002
1.507004e+003,1.562535e+002
1.507968e+003,1.717546e+002
1.508933e+003,1.882983e+002
1.509897e+003,2.056829e+002
1.510861e+003,2.246682e+002
1.511825e+003,2.467695e+002
1.512790e+003,2.724827e+002
1.513754e+003,3.011512e+002
1.514718e+003,3.330027e+002
1.515682e+003,3.675399e+002
1.516646e+003,4.013849e+002
1.517611e+003,4.366686e+002
1.518575e+003,4.669977e+002
1.519539e+003,4.907559e+002
1.520503e+003,5.096642e+002
1.521468e+003,5.240508e+002
1.522432e+003,5.337994e+002
1.523396e+003,5.390767e+002
1.524360e+003,5.395587e+002
1.525325e+003,5.343723e+002
1.526289e+003,5.230875e+002
1.527253e+003,5.067303e+002
1.528217e+003,4.866453e+002
1.529182e+003,4.632199e+002
1.530146e+003,4.379520e+002
1.531110e+003,4.114167e+002
1.532074e+003,3.808010e+002
1.533039e+003,3.432389e+002
1.534003e+003,3.029598e+002
1.534967e+003,2.593364e+002
1.535931e+003,2.177416e+002
1.536896e+003,1.829635e+002
1.537860e+003,1.558127e+002
1.538824e+003,1.357717e+002
1.539788e+003,1.219307e+002
1.540752e+003,1.105951e+002
1.541717e+003,9.714758e+001
1.542681e+003,8.275708e+001
1.543645e+003,7.306067e+001
1.544609e+003,7.070868e+001
1.545573e+003,6.804102e+001
1.546538e+003,6.372321e+001
1.547502e+003,5.932690e+001
1.548466e+003,5.585419e+001
1.549430e+003,5.356555e+001
1.550395e+003,5.254517e+001
1.551359e+003,5.219995e+001
1.552323e+003,5.153552e+001
1.553287e+003,5.031573e+001
1.554252e+003,4.945496e+001
1.555216e+003,4.987433e+001
1.556180e+003,5.058142e+001
1.557144e+003,4.907520e+001
1.558109e+003,4.546729e+001
1.559073e+003,4.318311e+001
1.560037e+003,4.244080e+001
1.561001e+003,4.096802e+001
1.561966e+003,3.809784e+001
1.562930e+003,3.556036e+001
1.563894e+003,3.432135e+001
1.564858e+003,3.415601e+001
1.565823e+003,3.473541e+001
1.566787e+003,3.592450e+001
1.567751e+003,3.806006e+001
1.568715e+003,4.192108e+001
1.569679e+003,4.573218e+001
1.570644e+003,4.702362e+001
1.571608e+003,4.589001e+001
1.572572e+003,4.355115e+001
1.573536e+003,4.034644e+001
1.574500e+003,3.770593e+001
1.575465e+003,3.559839e+001
1.576429e+003,3.455164e+001
1.577393e+003,3.560040e+001
1.578357e+003,3.742932e+001
1.579322e+003,3.765985e+001
1.580286e+003,3.641785e+001
1.581250e+003,3.565588e+001
1.582214e+003,3.609326e+001
1.583179e+003,3.649060e+001
1.584143e+003,3.510059e+001
1.585107e+003,3.341309e+001
1.586071e+003,3.463312e+001
1.587036e+003,3.822266e+001
1.588000e+003,4.074054e+001
1.588964e+003,4.107190e+001
1.589928e+003,4.027246e+001
1.590893e+003,3.844409e+001
1.591857e+003,3.664185e+001
1.592821e+003,3.663751e+001
1.593785e+003,3.826233e+001
1.594750e+003,3.963788e+001
1.595714e+003,3.996655e+001
1.596678e+003,4.249609e+001
1.597642e+003,5.120325e+001
1.598606e+003,5.863892e+001
1.599571e+003,5.735144e+001
1.600535e+003,5.262732e+001
1.601499e+003,5.083014e+001
1.602463e+003,5.204578e+001
1.603427e+003,5.413873e+001
1.604392e+003,5.650940e+001
1.605356e+003,5.775012e+001
1.606320e+003,5.600391e+001
1.607284e+003,5.223181e+001
1.608249e+003,4.909601e+001
1.609213e+003,4.664563e+001
1.610177e+003,4.345953e+001
1.611141e+003,3.847205e+001
1.612106e+003,3.486926e+001
1.613070e+003,3.570398e+001
1.614034e+003,3.701489e+001
1.614998e+003,3.546765e+001
1.615963e+003,3.265967e+001
1.616927e+003,3.108173e+001
1.617891e+003,3.113977e+001
1.618855e+003,3.268829e+001
1.619820e+003,3.580762e+001
1.620784e+003,3.794617e+001
1.621748e+003,3.567737e+001
1.622712e+003,3.047144e+001
1.623677e+003,2.666797e+001
1.624641e+003,2.403491e+001
1.625605e+003,2.502911e+001
1.626569e+003,3.172351e+001
1.627533e+003,3.695551e+001
1.628498e+003,3.747388e+001
1.629462e+003,3.617151e+001
1.630426e+003,3.393005e+001
1.631390e+003,3.197302e+001
1.632354e+003,3.338593e+001
1.633319e+003,3.832703e+001
1.634283e+003,4.182635e+001
1.635247e+003,3.995386e+001
1.636211e+003,3.502698e+001
1.637176e+003,3.088086e+001
1.638140e+003,2.780396e+001
1.639104e+003,2.693860e+001
1.640068e+003,2.886670e+001
1.641033e+003,2.987555e+001
1.641997e+003,2.811377e+001
1.642961e+003,2.714484e+001
1.643925e+003,2.955591e+001
1.644890e+003,3.276904e+001
1.645854e+003,3.417615e+001
1.646818e+003,3.401428e+001
1.647782e+003,3.347070e+001
1.648747e+003,3.297424e+001
1.649711e+003,3.315350e+001
1.650675e+003,3.512476e+001
1.651639e+003,3.780377e+001
1.652604e+003,3.804028e+001
1.653568e+003,3.566663e+001
1.654532e+003,3.375696e+001
1.655496e+003,3.271802e+001
1.656460e+003,3.121930e+001
1.657425e+003,2.792676e+001
1.658389e+003,2.585394e+001
1.659353e+003,2.739246e+001
1.660317e+003,3.019324e+001
1.661281e+003,3.246033e+001
1.662246e+003,3.346497e+001
1.663210e+003,3.177075e+001
1.664174e+003,2.725916e+001
1.665138e+003,2.366681e+001
1.666103e+003,2.420544e+001
1.667067e+003,2.689667e+001
1.668031e+003,2.850854e+001
1.668995e+003,2.912878e+001
1.669960e+003,2.788538e+001
1.670924e+003,2.397729e+001
1.671888e+003,2.213910e+001
1.672852e+003,2.579187e+001
1.673817e+003,2.841486e+001
1.674781e+003,2.415930e+001
1.675745e+003,1.798779e+001
1.676709e+003,1.536432e+001
1.677674e+003,1.570416e+001
1.678638e+003,1.560577e+001
1.679602e+003,1.404456e+001
1.680566e+003,1.315350e+001
1.681531e+003,1.553851e+001
1.682495e+003,1.894135e+001
1.683459e+003,1.853857e+001
1.684423e+003,1.473560e+001
1.685387e+003,1.175208e+001
1.686352e+003,1.002521e+001
1.687316e+003,1.009229e+001
1.688280e+003,1.307080e+001
1.689244e+003,1.605548e+001
1.690208e+003,1.588208e+001
1.691173e+003,1.500519e+001
1.692137e+003,1.735876e+001
1.693101e+003,2.188257e+001
1.694065e+003,2.322559e+001
1.695030e+003,1.951929e+001
1.695994e+003,1.582050e+001
1.696958e+003,1.579480e+001
1.697922e+003,1.724054e+001
1.698887e+003,1.780017e+001
1.699851e+003,1.763599e+001
1.700815e+003,1.637109e+001
1.701779e+003,1.381116e+001
1.702744e+003,1.224121e+001
1.703708e+003,1.299109e+001
1.704672e+003,1.477179e+001
1.705636e+003,1.665295e+001
1.706601e+003,1.761920e+001
1.707565e+003,1.709509e+001
1.708529e+003,1.550623e+001
1.709493e+003,1.228503e+001
1.710458e+003,6.868835e+000
1.711422e+003,3.797791e+000
1.712386e+003,7.357178e+000
1.713350e+003,1.177704e+001
1.714314e+003,1.114429e+001
1.715279e+003,8.205627e+000
1.716243e+003,8.585022e+000
1.717207e+003,1.182666e+001
1.718171e+003,1.309229e+001
1.719135e+003,1.115466e+001
1.720100e+003,9.406250e+000
1.721064e+003,1.015063e+001
1.722028e+003,1.115582e+001
1.722992e+003,8.987610e+000
1.723957e+003,5.163696e+000
1.724921e+003,6.072632e+000
1.725885e+003,1.209998e+001
1.726849e+003,1.465332e+001
1.727814e+003,1.071179e+001
1.728778e+003,7.227844e+000
1.729742e+003,6.959412e+000
1.730706e+003,8.307068e+000
1.731671e+003,1.015613e+001
1.732635e+003,1.125903e+001
1.733599e+003,1.011914e+001
1.734563e+003,7.369934e+000
1.735528e+003,5.233643e+000
1.736492e+003,4.662476e+000
1.737456e+003,5.951111e+000
1.738420e+003,9.927368e+000
1.739385e+003,1.460486e+001
1.740349e+003,1.368958e+001
1.741313e+003,5.455872e+000
1.742277e+003,2.364258e+000
1.743241e+003,1.008606e+001
1.744206e+003,1.454694e+001
1.745170e+003,1.040308e+001
1.746134e+003,6.217590e+000
1.747098e+003,7.879517e+000
1.748063e+003,1.110681e+001
1.749027e+003,1.020947e+001
1.749991e+003,6.249634e+000
1.750955e+003,3.659729e+000
1.751919e+003,3.901917e+000
1.752884e+003,5.565613e+000
1.753848e+003,7.539795e+000
1.754812e+003,8.646667e+000
1.755776e+003,6.404785e+000
1.756741e+003,1.440063e+000
1.757705e+003,6.380005e-001
1.758669e+003,6.176514e+000
1.759633e+003,8.183289e+000
1.760598e+003,1.154724e+000
1.761562e+003,-3.698792e+000
1.762526e+003,1.876831e-001
1.763490e+003,4.941772e+000
1.764455e+003,4.483521e+000
1.765419e+003,1.543945e+000
1.766383e+003,5.505371e-002
1.767347e+003,6.627197e-001
1.768312e+003,3.516296e+000
1.769276e+003,8.634277e+000
1.770240e+003,1.255255e+001
1.771204e+003,1.206824e+001
1.772168e+003,8.973999e+000
1.773133e+003,5.744751e+000
1.774097e+003,2.489258e+000
1.775061e+003,6.239624e-001
1.776025e+003,-1.378174e-001
1.776990e+003,-2.147217e-001
1.777954e+003,6.479492e-001
1.778918e+003,3.075439e+000
1.779882e+003,9.256226e+000
1.780846e+003,1.491431e+001
1.781811e+003,1.339844e+001
1.782775e+003,7.245117e+000
1.783739e+003,4.861938e+000
1.784703e+003,7.931152e+000
1.785668e+003,1.067542e+001
1.786632e+003,1.022546e+001
1.787596e+003,8.171997e+000
1.788560e+003,5.713623e+000
1.789525e+003,3.645142e+000
1.790489e+003,2.276123e+000
1.791453e+003,1.432129e+000
1.792417e+003,1.213867e+000
1.793382e+003,1.644775e+000
1.794346e+003,2.472290e+000
1.795310e+003,3.527588e+000
1.796274e+003,4.660767e+000
1.797239e+003,6.366577e+000
1.798203e+003,8.152588e+000
1.799167e+003,5.989868e+000
1.800131e+003,-2.443237e+000
1.801095e+003,-6.276184e+000
1.802060e+003,-4.360352e-001
1.803024e+003,3.384766e+000
1.803988e+003,2.469238e+000
1.804952e+003,5.892334e-001
1.805917e+003,-1.774536e+000
1.806881e+003,-3.177368e+000
1.807845e+003,-1.441772e+000
1.808809e+003,2.303589e+000
1.809773e+003,5.767944e+000
1.810738e+003,8.145630e+000
1.811702e+003,9.704712e+000
1.812666e+003,1.054248e+001
1.813630e+003,9.744141e+000
1.814595e+003,5.619873e+000
1.815559e+003,-6.937256e-001
1.816523e+003,-3.667725e+000
1.817487e+003,-2.861572e+000
1.818452e+003,-2.185669e+000
1.819416e+003,-1.462646e+000
1.820380e+003,-5.037842e-001
1.821344e+003,9.040527e-001
1.822309e+003,1.311401e+000
1.823273e+003,-7.025146e-001
1.824237e+003,-2.915405e+000
1.825201e+003,-3.186401e+000
1.826166e+003,-2.217529e+000
1.827130e+003,-1.875610e+000
1.828094e+003,-2.639526e+000
1.829058e+003,-3.301514e+000
1.830022e+003,-3.180054e+000
1.830987e+003,-2.197754e+000
1.831951e+003,6.536865e-001
1.832915e+003,3.735229e+000
1.833879e+003,4.421753e+000
1.834844e+003,3.226074e+000
1.835808e+003,1.930542e+000
1.836772e+003,9.361572e-001
1.837736e+003,4.064941e-002
1.838700e+003,-1.066528e+000
1.839665e+003,-2.549927e+000
1.840629e+003,-4.503784e+000
1.841593e+003,-6.152344e+000
1.842557e+003,-6.097900e+000
1.843522e+003,-4.398071e+000
1.844486e+003,-3.311646e+000
1.845450e+003,-3.142334e+000
1.846414e+003,-1.721191e+000
1.847379e+003,2.564697e+000
1.848343e+003,4.197876e+000
1.849307e+003,-2.149658e-001
1.850271e+003,-5.380127e+000
1.851236e+003,-7.391357e+000
1.852200e+003,-7.327515e+000
1.853164e+003,-7.696899e+000
1.854128e+003,-8.904785e+000
1.855093e+003,-9.503418e+000
1.856057e+003,-8.549927e+000
1.857021e+003,-6.413086e+000
1.857985e+003,-3.366455e+000
1.858949e+003,-1.121948e+000
1.859914e+003,-3.830566e+000
1.860878e+003,-9.895020e+000
1.861842e+003,-1.038086e+001
1.862806e+003,-5.269043e+000
1.863771e+003,-9.016113e-001
1.864735e+003,1.857178e+000
1.865699e+003,1.834961e+000
1.866663e+003,-2.548462e+000
1.867627e+003,-6.908691e+000
1.868592e+003,-7.568115e+000
1.869556e+003,-6.469116e+000
1.870520e+003,-6.600830e+000
1.871484e+003,-7.722412e+000
1.872449e+003,-7.493042e+000
1.873413e+003,-3.531250e+000
1.874377e+003,-8.789063e-001
1.875341e+003,-5.213379e+000
1.876306e+003,-8.173828e+000
1.877270e+003,-3.373047e+000
1.878234e+003,2.851318e+000
1.879198e+003,3.889771e+000
1.880163e+003,1.922607e+000
1.881127e+003,2.160889e+000
1.882091e+003,4.733643e+000
1.883055e+003,5.600830e+000
1.884020e+003,3.226196e+000
1.884984e+003,7.470703e-001
1.885948e+003,1.096558e+000
1.886912e+003,2.527588e+000
1.887876e+003,1.386108e+000
1.888841e+003,-1.951416e+000
1.889805e+003,-3.382446e+000
1.890769e+003,-2.594849e+000
1.891733e+003,-1.593750e+000
1.892698e+003,-1.080933e+000
1.893662e+003,3.161621e-002
1.894626e+003,3.841431e+000
1.895590e+003,6.427856e+000
1.896554e+003,4.065186e+000
1.897519e+003,2.720947e-001
1.898483e+003,-1.221924e+000
1.899447e+003,-1.240845e+000
1.900411e+003,-2.055786e+000
1.901376e+003,-3.976074e+000
1.902340e+003,-4.226685e+000
1.903304e+003,2.331543e-002
1.904268e+003,3.171265e+000
1.905233e+003,1.443848e+000
1.906197e+003,-2.292847e+000
1.907161e+003,-6.565674e+000
1.908125e+003,-9.706665e+000
1.909090e+003,-8.477783e+000
1.910054e+003,-4.201416e+000
1.911018e+003,-1.832031e+000
1.911982e+003,-2.714844e+000
1.912947e+003,-4.533936e+000
1.913911e+003,-5.736206e+000
1.914875e+003,-5.674072e+000
1.915839e+003,-3.297729e+000
1.916803e+003,4.168701e-001
1.917768e+003,2.406982e+000
1.918732e+003,2.807861e+000
1.919696e+003,2.841187e+000
1.920660e+003,2.514282e+000
1.921625e+003,2.760986e+000
1.922589e+003,3.827148e+000
1.923553e+003,4.714478e+000
1.924517e+003,4.385742e+000
1.925481e+003,4.246582e+000
1.926446e+003,5.774902e+000
1.927410e+003,8.347168e+000
1.928374e+003,1.136975e+001
1.929338e+003,1.416553e+001
1.930303e+003,1.336487e+001
1.931267e+003,7.549927e+000
1.932231e+003,2.473999e+000
1.933195e+003,-5.644531e-001
1.934160e+003,-1.617676e+000
1.935124e+003,8.923340e-001
1.936088e+003,3.780396e+000
1.937052e+003,3.712036e+000
1.938017e+003,1.497803e+000
1.938981e+003,-1.669800e+000
1.939945e+003,-4.965698e+000
1.940909e+003,-6.454590e+000
1.941874e+003,-5.533081e+000
1.942838e+003,-4.218506e+000
1.943802e+003,-3.954468e+000
1.944766e+003,-4.047852e+000
1.945730e+003,-4.429321e+000
1.946695e+003,-5.136719e+000
1.947659e+003,-3.119019e+000
1.948623e+003,1.920776e+000
1.949587e+003,4.794678e+000
1.950552e+003,4.865601e+000
1.951516e+003,4.202148e+000
1.952480e+003,3.078857e+000
1.953444e+003,2.167847e+000
1.954408e+003,1.815796e+000
1.955373e+003,1.444580e+000
1.956337e+003,1.039551e+000
1.957301e+003,9.102783e-001
1.958265e+003,1.765137e-001
1.959230e+003,-1.239380e+000
1.960194e+003,-2.124390e+000
1.961158e+003,-3.987549e+000
1.962122e+003,-4.405396e+000
1.963087e+003,-1.332153e+000
1.964051e+003,1.877930e+000
1.965015e+003,4.277222e+000
1.965979e+003,5.952759e+000
1.966944e+003,6.262939e+000
1.967908e+003,5.461548e+000
1.968872e+003,4.080566e+000
1.969836e+003,2.660156e+000
1.970801e+003,2.271973e+000
1.971765e+003,3.302124e+000
1.972729e+003,4.024414e+000
1.973693e+003,2.795776e+000
1.974657e+003,8.511963e-001
1.975622e+003,-6.154785e-001
1.976586e+003,-1.451660e+000
1.977550e+003,3.955078e-002
1.978514e+003,3.386108e+000
1.979479e+003,4.665039e+000
1.980443e+003,3.310547e+000
1.981407e+003,2.037964e+000
1.982371e+003,2.028809e+000
1.983335e+003,2.826782e+000
1.984300e+003,3.926147e+000
1.985264e+003,4.638550e+000
1.986228e+003,4.103027e+000
1.987192e+003,2.723145e+000
1.988157e+003,2.879028e+000
1.989121e+003,5.708984e+000
1.990085e+003,4.959595e+000
1.991049e+003,-2.672241e+000
1.992014e+003,-6.607056e+000
1.992978e+003,-3.431030e+000
1.993942e+003,1.140137e-001
1.994906e+003,1.916748e+000
1.995871e+003,3.126343e+000
1.996835e+003,5.017212e+000
1.997799e+003,6.907593e+000
1.998763e+003,7.245117e+000
1.999728e+003,6.075928e+000
