5.003444e+002,4.592677e+001
5.013087e+002,4.533238e+001
5.022729e+002,4.526759e+001
5.032371e+002,4.565396e+001
5.042014e+002,4.573799e+001
5.051656e+002,4.557423e+001
5.061298e+002,4.522888e+001
5.070941e+002,4.476759e+001
5.080583e+002,4.423712e+001
5.090225e+002,4.274857e+001
5.099868e+002,3.914465e+001
5.109510e+002,3.605867e+001
5.119152e+002,3.503810e+001
5.128795e+002,3.626642e+001
5.138437e+002,3.766966e+001
5.148079e+002,3.867221e+001
5.157722e+002,3.963748e+001
5.167364e+002,4.106752e+001
5.177006e+002,4.271475e+001
5.186649e+002,4.352463e+001
5.196291e+002,4.161967e+001
5.205933e+002,3.871362e+001
5.215576e+002,3.642619e+001
5.225218e+002,3.489125e+001
5.234860e+002,3.378406e+001
5.244503e+002,3.262440e+001
5.254145e+002,3.151270e+001
5.263787e+002,3.088847e+001
5.273430e+002,3.070901e+001
5.283072e+002,3.103168e+001
5.292714e+002,3.205942e+001
5.302357e+002,3.433319e+001
5.311999e+002,3.568858e+001
5.321641e+002,3.606259e+001
5.331284e+002,3.580168e+001
5.340926e+002,3.495799e+001
5.350568e+002,3.344846e+001
5.360211e+002,3.170116e+001
5.369853e+002,2.998378e+001
5.379495e+002,2.854767e+001
5.389138e+002,2.765247e+001
5.398780e+002,2.734215e+001
5.408422e+002,2.742058e+001
5.418065e+002,2.751367e+001
5.427707e+002,2.759737e+001
5.437349e+002,2.738927e+001
5.446992e+002,2.668266e+001
5.456634e+002,2.567711e+001
5.466276e+002,2.512050e+001
5.475919e+002,2.551016e+001
5.485561e+002,2.590070e+001
5.495203e+002,2.618623e+001
5.504846e+002,2.637854e+001
5.514488e+002,2.654955e+001
5.524130e+002,2.678979e+001
5.533773e+002,2.704417e+001
5.543415e+002,2.771646e+001
5.553057e+002,2.820255e+001
5.562700e+002,2.770567e+001
5.572342e+002,2.573209e+001
5.581984e+002,2.299054e+001
5.591627e+002,2.105473e+001
5.601269e+002,1.982074e+001
5.610911e+002,1.912039e+001
5.620554e+002,1.884933e+001
5.630196e+002,1.895685e+001
5.639838e+002,1.942268e+001
5.649481e+002,2.115169e+001
5.659123e+002,2.195653e+001
5.668765e+002,2.106844e+001
5.678408e+002,1.912531e+001
5.688050e+002,1.779605e+001
5.697692e+002,1.792157e+001
5.707335e+002,1.771689e+001
5.716977e+002,1.641963e+001
5.726619e+002,1.465584e+001
5.736262e+002,1.328516e+001
5.745904e+002,1.293430e+001
5.755546e+002,1.312659e+001
5.765189e+002,1.296527e+001
5.774831e+002,1.253337e+001
5.784473e+002,1.202855e+001
5.794116e+002,1.163580e+001
5.803758e+002,1.147299e+001
5.813400e+002,1.228024e+001
5.823043e+002,1.445082e+001
5.832685e+002,1.588562e+001
5.842327e+002,1.554100e+001
5.851970e+002,1.381070e+001
5.861612e+002,1.281627e+001
5.871254e+002,1.375467e+001
5.880897e+002,1.426218e+001
5.890539e+002,1.351953e+001
5.900181e+002,1.205486e+001
5.909824e+002,1.081360e+001
5.919466e+002,1.041580e+001
5.929108e+002,1.050998e+001
5.938751e+002,1.075653e+001
5.948393e+002,1.104797e+001
5.958035e+002,1.127084e+001
5.967678e+002,1.135381e+001
5.977320e+002,1.131284e+001
5.986962e+002,1.074451e+001
5.996605e+002,9.500046e+000
6.006247e+002,8.427963e+000
6.015889e+002,7.874969e+000
6.025532e+002,7.845886e+000
6.035174e+002,8.162643e+000
6.044816e+002,9.408997e+000
6.054459e+002,1.042648e+001
6.064101e+002,1.097646e+001
6.073743e+002,1.118445e+001
6.083386e+002,1.138174e+001
6.093028e+002,1.193768e+001
6.102670e+002,1.209761e+001
6.112313e+002,1.095087e+001
6.121955e+002,9.249969e+000
6.131597e+002,8.070450e+000
6.141240e+002,8.125549e+000
6.150882e+002,8.946609e+000
6.160524e+002,8.146698e+000
6.170167e+002,6.080734e+000
6.179809e+002,4.996094e+000
6.189451e+002,6.213806e+000
6.199094e+002,9.274323e+000
6.208736e+002,1.100229e+001
6.218378e+002,1.014345e+001
6.228021e+002,9.494278e+000
6.237663e+002,9.330231e+000
6.247305e+002,9.541565e+000
6.256948e+002,9.921677e+000
6.266590e+002,1.045447e+001
6.276232e+002,1.072612e+001
6.285875e+002,1.045522e+001
6.295517e+002,1.003862e+001
6.305159e+002,9.957199e+000
6.314802e+002,1.040971e+001
6.324444e+002,1.095874e+001
6.334086e+002,1.005727e+001
6.343729e+002,8.349777e+000
6.353371e+002,7.611359e+000
6.363013e+002,8.608307e+000
6.372656e+002,1.072330e+001
6.382298e+002,1.184489e+001
6.391940e+002,1.140999e+001
6.401583e+002,1.040491e+001
6.411225e+002,8.692184e+000
6.420867e+002,6.730972e+000
6.430510e+002,4.761948e+000
6.440152e+002,2.467468e+000
6.449794e+002,1.161331e+000
6.459437e+002,2.382736e+000
6.469079e+002,4.053879e+000
6.478721e+002,4.404236e+000
6.488364e+002,2.954346e+000
6.498006e+002,9.899902e-001
6.507648e+002,8.879852e-001
6.517291e+002,1.961426e+000
6.526933e+002,2.585281e+000
6.536575e+002,2.425690e+000
6.546218e+002,1.996658e+000
6.555860e+002,2.359161e+000
6.565502e+002,4.398010e+000
6.575145e+002,5.176224e+000
6.584787e+002,4.020462e+000
6.594429e+002,2.347031e+000
6.604072e+002,1.132294e+000
6.613714e+002,5.025787e-001
6.623356e+002,3.484650e-001
6.632999e+002,7.431641e-001
6.642641e+002,1.341934e+000
6.652283e+002,2.375916e+000
6.661926e+002,3.649246e+000
6.671568e+002,4.523972e+000
6.681210e+002,3.971695e+000
6.690853e+002,2.522888e+000
6.700495e+002,1.717636e+000
6.710137e+002,1.592056e+000
6.719780e+002,1.975357e+000
6.729422e+002,2.733795e+000
6.739064e+002,3.968842e+000
6.748707e+002,4.681976e+000
6.758349e+002,4.924194e+000
6.767991e+002,4.736908e+000
6.777634e+002,3.933105e+000
6.787276e+002,2.713333e+000
6.796918e+002,1.973969e+000
6.806561e+002,2.153595e+000
6.816203e+002,2.629456e+000
6.825845e+002,3.451218e+000
6.835488e+002,4.344971e+000
6.845130e+002,4.973419e+000
6.854772e+002,5.111938e+000
6.864415e+002,4.869324e+000
6.874057e+002,4.291077e+000
6.883699e+002,3.378555e+000
6.893342e+002,2.248840e+000
6.902984e+002,9.394226e-001
6.912626e+002,-3.677979e-001
6.922269e+002,-6.335297e-001
6.931911e+002,1.628479e+000
6.941553e+002,3.189575e+000
6.951196e+002,3.217743e+000
6.960838e+002,2.436951e+000
6.970480e+002,2.116623e+000
6.980123e+002,2.805969e+000
6.989765e+002,3.347260e+000
6.999407e+002,3.125641e+000
7.009050e+002,2.657562e+000
7.018692e+002,2.332657e+000
7.028334e+002,2.274658e+000
7.037977e+002,2.286682e+000
7.047619e+002,2.086166e+000
7.057261e+002,1.851486e+000
7.066904e+002,1.724152e+000
7.076546e+002,1.723373e+000
7.086188e+002,2.010818e+000
7.095831e+002,2.891739e+000
7.105473e+002,4.672714e+000
7.115115e+002,5.873398e+000
7.124758e+002,6.501389e+000
7.134400e+002,6.634674e+000
7.144042e+002,6.272705e+000
7.153685e+002,5.471161e+000
7.163327e+002,4.512909e+000
7.172969e+002,2.894577e+000
7.182612e+002,1.786377e+000
7.192254e+002,2.336838e+000
7.201896e+002,3.711105e+000
7.211539e+002,4.071335e+000
7.221181e+002,1.706528e+000
7.230823e+002,-1.890610e+000
7.240466e+002,-2.494919e+000
7.250108e+002,-6.784210e-001
7.259750e+002,1.378113e+000
7.269393e+002,2.427246e+000
7.279035e+002,2.394867e+000
7.288677e+002,1.541046e+000
7.298320e+002,-1.540985e+000
7.307962e+002,-3.250534e+000
7.317604e+002,-2.930557e+000
7.327247e+002,-1.249374e+000
7.336889e+002,1.161011e+000
7.346531e+002,4.533417e+000
7.356174e+002,6.603012e+000
7.365816e+002,6.139359e+000
7.375458e+002,4.514130e+000
7.385101e+002,2.108337e+000
7.394743e+002,-5.949554e-001
7.404385e+002,-2.698822e+000
7.414028e+002,-2.617981e+000
7.423670e+002,-9.358673e-001
7.433312e+002,1.817017e-001
7.442955e+002,7.288361e-001
7.452597e+002,1.095917e+000
7.462239e+002,1.701202e+000
7.471882e+002,2.657364e+000
7.481524e+002,3.104767e+000
7.491166e+002,2.307571e+000
7.500809e+002,1.647491e+000
7.510451e+002,1.780792e+000
7.520093e+002,2.525375e+000
7.529736e+002,3.184555e+000
7.539378e+002,3.773499e+000
7.549020e+002,3.861389e+000
7.558663e+002,2.750839e+000
7.568306e+002,1.180252e+000
7.577948e+002,5.151367e-002
7.587590e+002,-1.109161e-001
7.597233e+002,4.670715e-001
7.606875e+002,1.614166e+000
7.616517e+002,3.300446e+000
7.626160e+002,4.631882e+000
7.635802e+002,5.459015e+000
7.645444e+002,5.768753e+000
7.655087e+002,5.363800e+000
7.664729e+002,3.546295e+000
7.674371e+002,2.513580e+000
7.684014e+002,2.712967e+000
7.693656e+002,3.261215e+000
7.703298e+002,3.664658e+000
7.712941e+002,3.857407e+000
7.722583e+002,4.063965e+000
7.732225e+002,4.481583e+000
7.741868e+002,4.931992e+000
7.751510e+002,5.380707e+000
7.761152e+002,5.749634e+000
7.770795e+002,5.827698e+000
7.780437e+002,5.407257e+000
7.790079e+002,4.570923e+000
7.799722e+002,4.325668e+000
7.809364e+002,4.664200e+000
7.819006e+002,5.085510e+000
7.828649e+002,5.504532e+000
7.838291e+002,5.967728e+000
7.847933e+002,6.467224e+000
7.857576e+002,6.878098e+000
7.867218e+002,7.236725e+000
7.876860e+002,8.016495e+000
7.886503e+002,8.628662e+000
7.896145e+002,8.480255e+000
7.905787e+002,7.454483e+000
7.915430e+002,6.129929e+000
7.925072e+002,4.572754e+000
7.934714e+002,3.274338e+000
7.944357e+002,3.152496e+000
7.953999e+002,4.163498e+000
7.963641e+002,5.513809e+000
7.973284e+002,6.285660e+000
7.982926e+002,6.441635e+000
7.992568e+002,6.613342e+000
8.002211e+002,6.534225e+000
8.011853e+002,6.451782e+000
8.021495e+002,6.633759e+000
8.031138e+002,7.165756e+000
8.040780e+002,7.983658e+000
8.050422e+002,9.468262e+000
8.060065e+002,1.019585e+001
8.069707e+002,9.275925e+000
8.079349e+002,7.649521e+000
8.088992e+002,6.038391e+000
8.098634e+002,4.840729e+000
8.108276e+002,4.360855e+000
8.117919e+002,5.572815e+000
8.127561e+002,7.371841e+000
8.137203e+002,7.598328e+000
8.146846e+002,6.145111e+000
8.156488e+002,4.477448e+000
8.166130e+002,4.412048e+000
8.175773e+002,6.369461e+000
8.185415e+002,7.190704e+000
8.195057e+002,5.349319e+000
8.204700e+002,4.257507e+000
8.214342e+002,6.156906e+000
8.223984e+002,9.672638e+000
8.233627e+002,1.085431e+001
8.243269e+002,7.094452e+000
8.252911e+002,3.444458e+000
8.262554e+002,2.451859e+000
8.272196e+002,3.190598e+000
8.281838e+002,5.278168e+000
8.291481e+002,8.226028e+000
8.301123e+002,1.106978e+001
8.310765e+002,1.203310e+001
8.320408e+002,1.109489e+001
8.330050e+002,9.746735e+000
8.339692e+002,7.876862e+000
8.349335e+002,6.250839e+000
8.358977e+002,5.950363e+000
8.368619e+002,7.322845e+000
8.378262e+002,7.840332e+000
8.387904e+002,6.389816e+000
8.397546e+002,5.116806e+000
8.407189e+002,4.559647e+000
8.416831e+002,4.550415e+000
8.426473e+002,4.739731e+000
8.436116e+002,5.023788e+000
8.445758e+002,5.338303e+000
8.455400e+002,5.177124e+000
8.465043e+002,4.995804e+000
8.474685e+002,5.788315e+000
8.484327e+002,7.721710e+000
8.493970e+002,9.802628e+000
8.503612e+002,1.019781e+001
8.513254e+002,8.480682e+000
8.522897e+002,7.631271e+000
8.532539e+002,7.918884e+000
8.542181e+002,8.458771e+000
8.551824e+002,8.571075e+000
8.561466e+002,8.511368e+000
8.571108e+002,9.785980e+000
8.580751e+002,1.475024e+001
8.590393e+002,1.772038e+001
8.600035e+002,1.557538e+001
8.609678e+002,1.145691e+001
8.619320e+002,8.751785e+000
8.628962e+002,8.849869e+000
8.638605e+002,1.047511e+001
8.648247e+002,1.224585e+001
8.657889e+002,1.397047e+001
8.667532e+002,1.533426e+001
8.677174e+002,1.628658e+001
8.686816e+002,1.673424e+001
8.696459e+002,1.655351e+001
8.706101e+002,1.573627e+001
8.715743e+002,1.473630e+001
8.725386e+002,1.244623e+001
8.735028e+002,1.137244e+001
8.744670e+002,1.265451e+001
8.754313e+002,1.532988e+001
8.763955e+002,1.787608e+001
8.773597e+002,2.008733e+001
8.783240e+002,2.130595e+001
8.792882e+002,2.023715e+001
8.802524e+002,1.855470e+001
8.812167e+002,1.784308e+001
8.821809e+002,1.831311e+001
8.831451e+002,1.892149e+001
8.841094e+002,1.824226e+001
8.850736e+002,1.651271e+001
8.860378e+002,1.703049e+001
8.870021e+002,2.032533e+001
8.879663e+002,2.342854e+001
8.889305e+002,2.453035e+001
8.898948e+002,2.396465e+001
8.908590e+002,2.358932e+001
8.918232e+002,2.373746e+001
8.927875e+002,2.389539e+001
8.937517e+002,2.385185e+001
8.947159e+002,2.384908e+001
8.956802e+002,2.379773e+001
8.966444e+002,2.376642e+001
8.976086e+002,2.445973e+001
8.985729e+002,2.752959e+001
8.995371e+002,3.104541e+001
9.005013e+002,3.129016e+001
9.014656e+002,2.879582e+001
9.024298e+002,2.624553e+001
9.033940e+002,2.557088e+001
9.043583e+002,2.651659e+001
9.053225e+002,2.764563e+001
9.062867e+002,2.962099e+001
9.072510e+002,3.068495e+001
9.082152e+002,2.996687e+001
9.091794e+002,2.909204e+001
9.101437e+002,3.001299e+001
9.111079e+002,3.305124e+001
9.120721e+002,3.550140e+001
9.130364e+002,3.561368e+001
9.140006e+002,3.449266e+001
9.149648e+002,3.201219e+001
9.159291e+002,2.900514e+001
9.168933e+002,2.664275e+001
9.178575e+002,2.570973e+001
9.188218e+002,2.607974e+001
9.197860e+002,2.806627e+001
9.207502e+002,3.174150e+001
9.217145e+002,3.353284e+001
9.226787e+002,3.217743e+001
9.236429e+002,2.946077e+001
9.246072e+002,2.754781e+001
9.255714e+002,2.643494e+001
9.265356e+002,2.570406e+001
9.274999e+002,2.545093e+001
9.284641e+002,2.529970e+001
9.294283e+002,2.509705e+001
9.303926e+002,2.499141e+001
9.313568e+002,2.538846e+001
9.323210e+002,2.654172e+001
9.332853e+002,2.765735e+001
9.342495e+002,2.737611e+001
9.352137e+002,2.617169e+001
9.361780e+002,2.441643e+001
9.371422e+002,2.230241e+001
9.381064e+002,2.055615e+001
9.390707e+002,2.014645e+001
9.400349e+002,2.123108e+001
9.409991e+002,2.185657e+001
9.419634e+002,2.217357e+001
9.429276e+002,2.187766e+001
9.438918e+002,2.019164e+001
9.448561e+002,1.810106e+001
9.458203e+002,1.739732e+001
9.467845e+002,1.883438e+001
9.477488e+002,2.049409e+001
9.487130e+002,2.129926e+001
9.496772e+002,2.142670e+001
9.506415e+002,2.044943e+001
9.516057e+002,1.874742e+001
9.525699e+002,1.754622e+001
9.535342e+002,1.805359e+001
9.544984e+002,1.994014e+001
9.554626e+002,2.062291e+001
9.564269e+002,2.013235e+001
9.573911e+002,1.948381e+001
9.583553e+002,1.867746e+001
9.593196e+002,1.791344e+001
9.602838e+002,1.769572e+001
9.612480e+002,1.826915e+001
9.622123e+002,1.825380e+001
9.631765e+002,1.657794e+001
9.641407e+002,1.497672e+001
9.651050e+002,1.403635e+001
9.660692e+002,1.379150e+001
9.670334e+002,1.434387e+001
9.679977e+002,1.584503e+001
9.689619e+002,1.758685e+001
9.699261e+002,1.727101e+001
9.708904e+002,1.564656e+001
9.718546e+002,1.516792e+001
9.728188e+002,1.640370e+001
9.737831e+002,1.861583e+001
9.747473e+002,2.109537e+001
9.757115e+002,2.405833e+001
9.766758e+002,2.626329e+001
9.776400e+002,2.817802e+001
9.786042e+002,2.892366e+001
9.795685e+002,2.772221e+001
9.805327e+002,2.530399e+001
9.814969e+002,2.249533e+001
9.824612e+002,1.963100e+001
9.834254e+002,1.711769e+001
9.843896e+002,1.548015e+001
9.853539e+002,1.415854e+001
9.863181e+002,1.235663e+001
9.872823e+002,1.017923e+001
9.882466e+002,8.576157e+000
9.892108e+002,8.473297e+000
9.901750e+002,9.748306e+000
9.911393e+002,1.058508e+001
9.921035e+002,1.025763e+001
9.930677e+002,1.013339e+001
9.940320e+002,1.086133e+001
9.949962e+002,1.153668e+001
9.959604e+002,1.099649e+001
9.969247e+002,9.269150e+000
9.978889e+002,8.270142e+000
9.988531e+002,9.534607e+000
9.998174e+002,1.069774e+001
1.000782e+003,1.003160e+001
1.001746e+003,8.581345e+000
1.002710e+003,7.931839e+000
1.003674e+003,8.723190e+000
1.004639e+003,1.021565e+001
1.005603e+003,1.113058e+001
1.006567e+003,1.136925e+001
1.007531e+003,1.163329e+001
1.008495e+003,1.207866e+001
1.009460e+003,1.228932e+001
1.010424e+003,1.188960e+001
1.011388e+003,1.106775e+001
1.012352e+003,1.054344e+001
1.013317e+003,1.058615e+001
1.014281e+003,1.042352e+001
1.015245e+003,9.842377e+000
1.016209e+003,8.927948e+000
1.017174e+003,7.451797e+000
1.018138e+003,5.691879e+000
1.019102e+003,4.512863e+000
1.020066e+003,4.759460e+000
1.021031e+003,5.728760e+000
1.021995e+003,4.999924e+000
1.022959e+003,2.857437e+000
1.023923e+003,9.079132e-001
1.024887e+003,-4.300995e-001
1.025852e+003,-1.201569e+000
1.026816e+003,-1.386063e+000
1.027780e+003,-8.289642e-001
1.028744e+003,-7.670593e-002
1.029709e+003,1.301193e+000
1.030673e+003,2.284683e+000
1.031637e+003,2.388733e+000
1.032601e+003,1.931122e+000
1.033566e+003,1.254333e+000
1.034530e+003,5.307465e-001
1.035494e+003,1.498260e-001
1.036458e+003,8.097992e-001
1.037422e+003,1.857559e+000
1.038387e+003,2.213821e+000
1.039351e+003,1.854523e+000
1.040315e+003,1.188065e+000
1.041279e+003,4.566803e-001
1.042244e+003,-1.618042e-001
1.043208e+003,1.319885e-001
1.044172e+003,2.451523e+000
1.045136e+003,3.534378e+000
1.046101e+003,2.536880e+000
1.047065e+003,1.237656e+000
1.048029e+003,4.059143e-001
1.048993e+003,2.158661e-001
1.049958e+003,1.097488e+000
1.050922e+003,3.837189e+000
1.051886e+003,6.346619e+000
1.052850e+003,6.423325e+000
1.053814e+003,5.058624e+000
1.054779e+003,2.933060e+000
1.055743e+003,4.525909e-001
1.056707e+003,-1.360916e+000
1.057671e+003,-1.191772e+000
1.058636e+003,9.591370e-001
1.059600e+003,2.023514e+000
1.060564e+003,1.692505e+000
1.061528e+003,1.025177e+000
1.062493e+003,-7.332458e-001
1.063457e+003,-2.364532e+000
1.064421e+003,-1.983597e+000
1.065385e+003,5.771027e-001
1.066349e+003,2.373032e+000
1.067314e+003,1.291855e+000
1.068278e+003,-2.870178e-001
1.069242e+003,-8.687744e-001
1.070206e+003,-6.538239e-001
1.071171e+003,2.592468e-002
1.072135e+003,9.273376e-001
1.073099e+003,1.838821e+000
1.074063e+003,2.484131e+000
1.075028e+003,2.893921e+000
1.075992e+003,2.870422e+000
1.076956e+003,2.234253e+000
1.077920e+003,1.422302e+000
1.078885e+003,4.158173e-001
1.079849e+003,-4.856873e-001
1.080813e+003,-8.178558e-001
1.081777e+003,-5.026245e-001
1.082741e+003,3.577728e-001
1.083706e+003,2.562119e+000
1.084670e+003,4.383499e+000
1.085634e+003,4.670349e+000
1.086598e+003,3.835464e+000
1.087563e+003,2.710556e+000
1.088527e+003,1.850922e+000
1.089491e+003,1.399780e+000
1.090455e+003,1.585602e+000
1.091420e+003,2.427994e+000
1.092384e+003,2.788940e+000
1.093348e+003,2.649170e+000
1.094312e+003,1.971649e+000
1.095276e+003,2.139740e-001
1.096241e+003,-1.982086e+000
1.097205e+003,-2.536453e+000
1.098169e+003,-5.182190e-001
1.099133e+003,9.205017e-001
1.100098e+003,-4.788208e-002
1.101062e+003,-1.246658e+000
1.102026e+003,-1.169876e+000
1.102990e+003,-1.648865e-001
1.103955e+003,4.642487e-001
1.104919e+003,-7.711792e-002
1.105883e+003,-1.017242e+000
1.106847e+003,-3.878632e-001
1.107812e+003,1.772598e+000
1.108776e+003,1.874710e+000
1.109740e+003,-1.345322e+000
1.110704e+003,-4.315216e+000
1.111668e+003,-4.052292e+000
1.112633e+003,-1.242706e+000
1.113597e+003,1.013931e+000
1.114561e+003,2.621124e+000
1.115525e+003,2.983490e+000
1.116490e+003,5.183868e-001
1.117454e+003,-1.767532e+000
1.118418e+003,-1.328293e+000
1.119382e+003,1.058151e+000
1.120347e+003,2.868530e+000
1.121311e+003,2.488190e+000
1.122275e+003,6.786652e-001
1.123239e+003,-1.144348e+000
1.124203e+003,-2.741013e+000
1.125168e+003,-2.833435e+000
1.126132e+003,-7.336121e-001
1.127096e+003,1.412201e+000
1.128060e+003,1.821655e+000
1.129025e+003,8.139496e-001
1.129989e+003,-4.960632e-002
1.130953e+003,-9.665222e-001
1.131917e+003,-1.085373e+000
1.132882e+003,5.939484e-001
1.133846e+003,2.327087e+000
1.134810e+003,2.924713e+000
1.135774e+003,2.697769e+000
1.136739e+003,2.706223e+000
1.137703e+003,3.530472e+000
1.138667e+003,4.502701e+000
1.139631e+003,4.330154e+000
1.140595e+003,3.166763e+000
1.141560e+003,2.626266e+000
1.142524e+003,2.893570e+000
1.143488e+003,3.619278e+000
1.144452e+003,4.500412e+000
1.145417e+003,5.616669e+000
1.146381e+003,7.222290e+000
1.147345e+003,9.149155e+000
1.148309e+003,1.202083e+001
1.149274e+003,1.726051e+001
1.150238e+003,2.218558e+001
1.151202e+003,2.554445e+001
1.152166e+003,2.758458e+001
1.153130e+003,2.877576e+001
1.154095e+003,2.935448e+001
1.155059e+003,2.970311e+001
1.156023e+003,3.067793e+001
1.156987e+003,3.206250e+001
1.157952e+003,3.204036e+001
1.158916e+003,3.063774e+001
1.159880e+003,2.860324e+001
1.160844e+003,2.568602e+001
1.161809e+003,2.233006e+001
1.162773e+003,1.997119e+001
1.163737e+003,1.899739e+001
1.164701e+003,1.732625e+001
1.165666e+003,1.371150e+001
1.166630e+003,1.014375e+001
1.167594e+003,6.915070e+000
1.168558e+003,4.354828e+000
1.169522e+003,2.886093e+000
1.170487e+003,2.573318e+000
1.171451e+003,3.048965e+000
1.172415e+003,3.959198e+000
1.173379e+003,5.192001e+000
1.174344e+003,6.542816e+000
1.175308e+003,8.190552e+000
1.176272e+003,8.615524e+000
1.177236e+003,6.498550e+000
1.178201e+003,3.609650e+000
1.179165e+003,2.211548e+000
1.180129e+003,2.259109e+000
1.181093e+003,2.230286e+000
1.182057e+003,1.786987e+000
1.183022e+003,1.371033e+000
1.183986e+003,1.496826e+000
1.184950e+003,1.500504e+000
1.185914e+003,3.873291e-001
1.186879e+003,-1.577881e+000
1.187843e+003,-2.989227e+000
1.188807e+003,-2.712173e+000
1.189771e+003,-1.329514e+000
1.190736e+003,-4.300385e-001
1.191700e+003,-5.752563e-002
1.192664e+003,7.888794e-002
1.193628e+003,-1.257324e-001
1.194593e+003,-2.992401e-001
1.195557e+003,1.362152e-001
1.196521e+003,8.103638e-001
1.197485e+003,1.541290e-001
1.198449e+003,-2.742798e+000
1.199414e+003,-4.757355e+000
1.200378e+003,-3.673111e+000
1.201342e+003,-1.974670e+000
1.202306e+003,-7.636566e-001
1.203271e+003,-3.102112e-001
1.204235e+003,-8.231506e-001
1.205199e+003,-2.304825e+000
1.206163e+003,-4.237732e+000
1.207128e+003,-5.825104e+000
1.208092e+003,-7.053558e+000
1.209056e+003,-7.512024e+000
1.210020e+003,-6.574081e+000
1.210984e+003,-6.218536e+000
1.211949e+003,-7.347610e+000
1.212913e+003,-9.183182e+000
1.213877e+003,-1.087521e+001
1.214841e+003,-1.231393e+001
1.215806e+003,-1.317343e+001
1.216770e+003,-1.283084e+001
1.217734e+003,-1.271759e+001
1.218698e+003,-1.450212e+001
1.219663e+003,-1.671764e+001
1.220627e+003,-1.751558e+001
1.221591e+003,-1.662520e+001
1.222555e+003,-1.481764e+001
1.223520e+003,-1.272832e+001
1.224484e+003,-1.069388e+001
1.225448e+003,-1.048459e+001
1.226412e+003,-1.351674e+001
1.227376e+003,-1.526439e+001
1.228341e+003,-1.516850e+001
1.229305e+003,-1.452603e+001
1.230269e+003,-1.359251e+001
1.231233e+003,-1.273933e+001
1.232198e+003,-1.286412e+001
1.233162e+003,-1.424522e+001
1.234126e+003,-1.505399e+001
1.235090e+003,-1.313411e+001
1.236055e+003,-1.092651e+001
1.237019e+003,-1.184520e+001
1.237983e+003,-1.461264e+001
1.238947e+003,-1.518130e+001
1.239911e+003,-1.187450e+001
1.240876e+003,-8.002594e+000
1.241840e+003,-8.894836e+000
1.242804e+003,-1.495818e+001
1.243768e+003,-1.815924e+001
1.244733e+003,-1.582556e+001
1.245697e+003,-1.396663e+001
1.246661e+003,-1.338039e+001
1.247625e+003,-1.321342e+001
1.248590e+003,-1.280875e+001
1.249554e+003,-1.213751e+001
1.250518e+003,-1.139920e+001
1.251482e+003,-1.068050e+001
1.252447e+003,-1.039853e+001
1.253411e+003,-1.130937e+001
1.254375e+003,-1.279611e+001
1.255339e+003,-1.361147e+001
1.256303e+003,-1.368111e+001
1.257268e+003,-1.346181e+001
1.258232e+003,-1.314421e+001
1.259196e+003,-1.294943e+001
1.260160e+003,-1.340968e+001
1.261125e+003,-1.469873e+001
1.262089e+003,-1.514050e+001
1.263053e+003,-1.408595e+001
1.264017e+003,-1.284271e+001
1.264982e+003,-1.132011e+001
1.265946e+003,-9.982986e+000
1.266910e+003,-9.507385e+000
1.267874e+003,-9.664566e+000
1.268839e+003,-9.329269e+000
1.269803e+003,-7.735794e+000
1.270767e+003,-5.872009e+000
1.271731e+003,-5.734711e+000
1.272695e+003,-7.283646e+000
1.273660e+003,-8.683197e+000
1.274624e+003,-1.003134e+001
1.275588e+003,-1.114798e+001
1.276552e+003,-1.179883e+001
1.277517e+003,-1.208554e+001
1.278481e+003,-1.227087e+001
1.279445e+003,-1.239128e+001
1.280409e+003,-1.242642e+001
1.281374e+003,-1.248045e+001
1.282338e+003,-1.224951e+001
1.283302e+003,-1.131313e+001
1.284266e+003,-1.021858e+001
1.285230e+003,-9.541534e+000
1.286195e+003,-9.400177e+000
1.287159e+003,-9.623367e+000
1.288123e+003,-1.004539e+001
1.289087e+003,-1.055241e+001
1.290052e+003,-1.094206e+001
1.291016e+003,-1.132118e+001
1.291980e+003,-1.133255e+001
1.292944e+003,-1.081412e+001
1.293909e+003,-1.029985e+001
1.294873e+003,-9.733353e+000
1.295837e+003,-9.323029e+000
1.296801e+003,-9.517319e+000
1.297766e+003,-1.031308e+001
1.298730e+003,-1.102554e+001
1.299694e+003,-1.138020e+001
1.300658e+003,-1.146201e+001
1.301622e+003,-1.119762e+001
1.302587e+003,-1.075568e+001
1.303551e+003,-1.042845e+001
1.304515e+003,-1.024226e+001
1.305479e+003,-1.005956e+001
1.306444e+003,-9.784195e+000
1.307408e+003,-9.517181e+000
1.308372e+003,-9.522125e+000
1.309336e+003,-9.899521e+000
1.310301e+003,-1.026004e+001
1.311265e+003,-1.111093e+001
1.312229e+003,-1.121185e+001
1.313193e+003,-9.248672e+000
1.314157e+003,-7.011490e+000
1.315122e+003,-6.539810e+000
1.316086e+003,-7.883255e+000
1.317050e+003,-9.589111e+000
1.318014e+003,-1.070598e+001
1.318979e+003,-1.141246e+001
1.319943e+003,-1.207568e+001
1.320907e+003,-1.263875e+001
1.321871e+003,-1.290585e+001
1.322836e+003,-1.286908e+001
1.323800e+003,-1.286555e+001
1.324764e+003,-1.319966e+001
1.325728e+003,-1.358751e+001
1.326693e+003,-1.357274e+001
1.327657e+003,-1.317563e+001
1.328621e+003,-1.258212e+001
1.329585e+003,-1.144427e+001
1.330549e+003,-1.040582e+001
1.331514e+003,-9.767776e+000
1.332478e+003,-9.647461e+000
1.333442e+003,-1.054253e+001
1.334406e+003,-1.199847e+001
1.335371e+003,-1.268626e+001
1.336335e+003,-1.183240e+001
1.337299e+003,-1.023129e+001
1.338263e+003,-9.409988e+000
1.339228e+003,-9.450867e+000
1.340192e+003,-9.474289e+000
1.341156e+003,-9.598206e+000
1.342120e+003,-9.542511e+000
1.343084e+003,-9.200668e+000
1.344049e+003,-8.846527e+000
1.345013e+003,-8.567825e+000
1.345977e+003,-8.385284e+000
1.346941e+003,-8.528839e+000
1.347906e+003,-9.128250e+000
1.348870e+003,-9.381241e+000
1.349834e+003,-8.170258e+000
1.350798e+003,-6.482544e+000
1.351763e+003,-6.182892e+000
1.352727e+003,-7.066330e+000
1.353691e+003,-8.052719e+000
1.354655e+003,-8.852173e+000
1.355620e+003,-9.254211e+000
1.356584e+003,-8.677368e+000
1.357548e+003,-7.289856e+000
1.358512e+003,-6.932449e+000
1.359476e+003,-8.212723e+000
1.360441e+003,-9.331528e+000
1.361405e+003,-9.401611e+000
1.362369e+003,-9.595886e+000
1.363333e+003,-1.097842e+001
1.364298e+003,-1.261143e+001
1.365262e+003,-1.305936e+001
1.366226e+003,-1.208122e+001
1.367190e+003,-1.052617e+001
1.368155e+003,-9.123734e+000
1.369119e+003,-8.090622e+000
1.370083e+003,-8.190033e+000
1.371047e+003,-9.846283e+000
1.372011e+003,-1.066862e+001
1.372976e+003,-1.042677e+001
1.373940e+003,-9.855301e+000
1.374904e+003,-8.920303e+000
1.375868e+003,-7.937241e+000
1.376833e+003,-7.379745e+000
1.377797e+003,-7.252289e+000
1.378761e+003,-7.114777e+000
1.379725e+003,-6.737869e+000
1.380690e+003,-6.374573e+000
1.381654e+003,-6.069916e+000
1.382618e+003,-6.034958e+000
1.383582e+003,-7.023697e+000
1.384547e+003,-8.809265e+000
1.385511e+003,-9.627686e+000
1.386475e+003,-8.412933e+000
1.387439e+003,-6.554092e+000
1.388403e+003,-6.394577e+000
1.389368e+003,-7.933380e+000
1.390332e+003,-8.270508e+000
1.391296e+003,-6.353546e+000
1.392260e+003,-5.122925e+000
1.393225e+003,-5.968246e+000
1.394189e+003,-6.854828e+000
1.395153e+003,-6.266464e+000
1.396117e+003,-5.105026e+000
1.397082e+003,-4.987564e+000
1.398046e+003,-6.211853e+000
1.399010e+003,-7.688736e+000
1.399974e+003,-8.468704e+000
1.400938e+003,-8.761902e+000
1.401903e+003,-9.015854e+000
1.402867e+003,-9.139313e+000
1.403831e+003,-8.675232e+000
1.404795e+003,-7.168610e+000
1.405760e+003,-5.882050e+000
1.406724e+003,-5.158020e+000
1.407688e+003,-5.170868e+000
1.408652e+003,-6.427673e+000
1.409617e+003,-8.520493e+000
1.410581e+003,-9.842911e+000
1.411545e+003,-9.747940e+000
1.412509e+003,-8.841156e+000
1.413474e+003,-7.393463e+000
1.414438e+003,-5.791702e+000
1.415402e+003,-4.358002e+000
1.416366e+003,-3.135284e+000
1.417330e+003,-2.703430e+000
1.418295e+003,-3.438293e+000
1.419259e+003,-4.466339e+000
1.420223e+003,-4.771027e+000
1.421187e+003,-4.524139e+000
1.422152e+003,-4.642212e+000
1.423116e+003,-5.369217e+000
1.424080e+003,-5.447128e+000
1.425044e+003,-3.394470e+000
1.426009e+003,-2.017105e+000
1.426973e+003,-3.177414e+000
1.427937e+003,-5.253479e+000
1.428901e+003,-6.299316e+000
1.429865e+003,-6.091080e+000
1.430830e+003,-5.596848e+000
1.431794e+003,-5.491913e+000
1.432758e+003,-5.408600e+000
1.433722e+003,-4.436844e+000
1.434687e+003,-2.290054e+000
1.435651e+003,-1.613998e+000
1.436615e+003,-4.493790e+000
1.437579e+003,-6.191925e+000
1.438544e+003,-5.095703e+000
1.439508e+003,-3.863892e+000
1.440472e+003,-4.463348e+000
1.441436e+003,-6.082199e+000
1.442401e+003,-7.030396e+000
1.443365e+003,-6.929321e+000
1.444329e+003,-6.557770e+000
1.445293e+003,-6.465546e+000
1.446257e+003,-6.402542e+000
1.447222e+003,-5.807541e+000
1.448186e+003,-4.830856e+000
1.449150e+003,-4.321350e+000
1.450114e+003,-4.478745e+000
1.451079e+003,-4.676651e+000
1.452043e+003,-4.815414e+000
1.453007e+003,-4.576294e+000
1.453971e+003,-2.895645e+000
1.454936e+003,-2.135925e-001
1.455900e+003,7.356262e-002
1.456864e+003,-3.473938e+000
1.457828e+003,-6.733261e+000
1.458792e+003,-7.153641e+000
1.459757e+003,-6.527695e+000
1.460721e+003,-5.881363e+000
1.461685e+003,-5.428879e+000
1.462649e+003,-5.658615e+000
1.463614e+003,-6.548660e+000
1.464578e+003,-6.948029e+000
1.465542e+003,-5.763107e+000
1.466506e+003,-3.594391e+000
1.467471e+003,-2.072617e+000
1.468435e+003,-1.153976e+000
1.469399e+003,-6.674652e-001
1.470363e+003,-1.007187e+000
1.471328e+003,-1.408981e+000
1.472292e+003,-2.024704e+000
1.473256e+003,-2.478333e+000
1.474220e+003,-2.224899e+000
1.475184e+003,-1.539780e+000
1.476149e+003,-1.005646e+000
1.477113e+003,-8.929749e-001
1.478077e+003,-1.206024e+000
1.479041e+003,-1.924728e+000
1.480006e+003,-2.705475e+000
1.480970e+003,-2.478592e+000
1.481934e+003,-8.923645e-001
1.482898e+003,-1.271515e-001
1.483863e+003,-1.130875e+000
1.484827e+003,-1.566956e+000
1.485791e+003,7.495117e-002
1.486755e+003,1.877716e+000
1.487719e+003,1.837479e+000
1.488684e+003,3.922424e-001
1.489648e+003,-9.093018e-001
1.490612e+003,-1.516205e+000
1.491576e+003,-1.529282e+000
1.492541e+003,-9.391937e-001
1.493505e+003,-7.218933e-002
1.494469e+003,3.216858e-001
1.495433e+003,2.662811e-001
1.496398e+003,3.713989e-001
1.497362e+003,8.600464e-001
1.498326e+003,1.395035e+000
1.499290e+003,1.500137e+000
1.500255e+003,1.742599e+000
1.501219e+003,3.130432e+000
1.502183e+003,5.409653e+000
1.503147e+003,7.061768e+000
1.504111e+003,7.621201e+000
1.505076e+003,8.269760e+000
1.506040e+003,1.009682e+001
1.507004e+003,1.188820e+001
1.507968e+003,1.170578e+001
1.508933e+003,1.080278e+001
1.509897e+003,1.208813e+001
1.510861e+003,1.607799e+001
1.511825e+003,2.035062e+001
1.512790e+003,2.314388e+001
1.513754e+003,2.509940e+001
1.514718e+003,2.739839e+001
1.515682e+003,2.998953e+001
1.516646e+003,3.318120e+001
1.517611e+003,3.758423e+001
1.518575e+003,4.138516e+001
1.519539e+003,4.433952e+001
1.520503e+003,4.633147e+001
1.521468e+003,4.678442e+001
1.522432e+003,4.641138e+001
1.523396e+003,4.618347e+001
1.524360e+003,4.620549e+001
1.525325e+003,4.596167e+001
1.526289e+003,4.513097e+001
1.527253e+003,4.390344e+001
1.528217e+003,4.269815e+001
1.529182e+003,4.158226e+001
1.530146e+003,3.884537e+001
1.531110e+003,3.304695e+001
1.532074e+003,2.820073e+001
1.533039e+003,2.491496e+001
1.534003e+003,2.188210e+001
1.534967e+003,1.878181e+001
1.535931e+003,1.570277e+001
1.536896e+003,1.250473e+001
1.537860e+003,9.452225e+000
1.538824e+003,7.225525e+000
1.539788e+003,6.120407e+000
1.540752e+003,5.699997e+000
1.541717e+003,5.514160e+000
1.542681e+003,5.488174e+000
1.543645e+003,4.938187e+000
1.544609e+003,3.596390e+000
1.545573e+003,2.604492e+000
1.546538e+003,1.504532e+000
1.547502e+003,1.134735e+000
1.548466e+003,2.071564e+000
1.549430e+003,3.831406e+000
1.550395e+003,6.814072e+000
1.551359e+003,9.978912e+000
1.552323e+003,1.036580e+001
1.553287e+003,7.160126e+000
1.554252e+003,3.854996e+000
1.555216e+003,3.620728e+000
1.556180e+003,5.000366e+000
1.557144e+003,4.418747e+000
1.558109e+003,1.828110e+000
1.559073e+003,8.031921e-001
1.560037e+003,2.467896e+000
1.561001e+003,3.232849e+000
1.561966e+003,9.384460e-001
1.562930e+003,-1.634659e+000
1.563894e+003,-1.968796e+000
1.564858e+003,-6.126556e-001
1.565823e+003,1.190674e+000
1.566787e+003,3.088715e+000
1.567751e+003,4.175095e+000
1.568715e+003,3.708725e+000
1.569679e+003,3.026443e+000
1.570644e+003,4.230255e+000
1.571608e+003,6.319351e+000
1.572572e+003,6.316284e+000
1.573536e+003,4.134628e+000
1.574500e+003,2.340988e+000
1.575465e+003,1.564362e+000
1.576429e+003,1.680862e+000
1.577393e+003,3.219604e+000
1.578357e+003,5.281479e+000
1.579322e+003,5.956329e+000
1.580286e+003,5.256546e+000
1.581250e+003,4.978897e+000
1.582214e+003,5.826675e+000
1.583179e+003,6.563034e+000
1.584143e+003,5.912888e+000
1.585107e+003,4.919952e+000
1.586071e+003,5.189545e+000
1.587036e+003,6.424606e+000
1.588000e+003,7.596115e+000
1.588964e+003,8.479187e+000
1.589928e+003,8.583420e+000
1.590893e+003,7.011124e+000
1.591857e+003,5.057251e+000
1.592821e+003,4.735657e+000
1.593785e+003,5.842331e+000
1.594750e+003,7.191528e+000
1.595714e+003,8.678345e+000
1.596678e+003,1.000499e+001
1.597642e+003,1.139877e+001
1.598606e+003,1.207848e+001
1.599571e+003,1.054324e+001
1.600535e+003,8.543610e+000
1.601499e+003,8.699661e+000
1.602463e+003,1.072078e+001
1.603427e+003,1.218457e+001
1.604392e+003,1.209377e+001
1.605356e+003,1.140172e+001
1.606320e+003,1.069388e+001
1.607284e+003,1.026070e+001
1.608249e+003,1.144180e+001
1.609213e+003,1.433989e+001
1.610177e+003,1.511206e+001
1.611141e+003,1.188745e+001
1.612106e+003,9.617279e+000
1.613070e+003,1.229837e+001
1.614034e+003,1.531834e+001
1.614998e+003,1.504984e+001
1.615963e+003,1.293271e+001
1.616927e+003,1.113499e+001
1.617891e+003,1.024445e+001
1.618855e+003,1.099651e+001
1.619820e+003,1.413960e+001
1.620784e+003,1.730605e+001
1.621748e+003,1.657336e+001
1.622712e+003,1.286899e+001
1.623677e+003,1.159300e+001
1.624641e+003,1.323528e+001
1.625605e+003,1.470161e+001
1.626569e+003,1.515100e+001
1.627533e+003,1.528372e+001
1.628498e+003,1.570338e+001
1.629462e+003,1.592136e+001
1.630426e+003,1.505743e+001
1.631390e+003,1.373752e+001
1.632354e+003,1.355861e+001
1.633319e+003,1.476744e+001
1.634283e+003,1.580974e+001
1.635247e+003,1.549983e+001
1.636211e+003,1.443674e+001
1.637176e+003,1.347478e+001
1.638140e+003,1.270026e+001
1.639104e+003,1.316939e+001
1.640068e+003,1.542366e+001
1.641033e+003,1.679665e+001
1.641997e+003,1.612643e+001
1.642961e+003,1.523276e+001
1.643925e+003,1.546460e+001
1.644890e+003,1.557747e+001
1.645854e+003,1.364919e+001
1.646818e+003,1.061867e+001
1.647782e+003,9.227982e+000
1.648747e+003,1.024039e+001
1.649711e+003,1.181535e+001
1.650675e+003,1.253067e+001
1.651639e+003,1.275877e+001
1.652604e+003,1.304330e+001
1.653568e+003,1.336028e+001
1.654532e+003,1.429480e+001
1.655496e+003,1.627834e+001
1.656460e+003,1.742644e+001
1.657425e+003,1.687009e+001
1.658389e+003,1.584024e+001
1.659353e+003,1.458829e+001
1.660317e+003,1.354065e+001
1.661281e+003,1.352007e+001
1.662246e+003,1.405203e+001
1.663210e+003,1.362212e+001
1.664174e+003,1.179408e+001
1.665138e+003,9.840057e+000
1.666103e+003,8.571609e+000
1.667067e+003,8.184006e+000
1.668031e+003,9.734787e+000
1.668995e+003,1.299425e+001
1.669960e+003,1.413777e+001
1.670924e+003,1.231953e+001
1.671888e+003,1.091168e+001
1.672852e+003,1.108186e+001
1.673817e+003,1.163605e+001
1.674781e+003,1.198854e+001
1.675745e+003,1.216365e+001
1.676709e+003,1.246536e+001
1.677674e+003,1.259407e+001
1.678638e+003,1.130574e+001
1.679602e+003,8.251373e+000
1.680566e+003,5.769913e+000
1.681531e+003,6.012680e+000
1.682495e+003,7.523148e+000
1.683459e+003,7.692749e+000
1.684423e+003,6.729599e+000
1.685387e+003,6.283646e+000
1.686352e+003,6.606705e+000
1.687316e+003,6.709091e+000
1.688280e+003,6.126297e+000
1.689244e+003,5.527008e+000
1.690208e+003,5.469574e+000
1.691173e+003,5.579712e+000
1.692137e+003,5.493408e+000
1.693101e+003,5.292465e+000
1.694065e+003,5.205002e+000
1.695030e+003,5.243149e+000
1.695994e+003,4.945114e+000
1.696958e+003,3.735550e+000
1.697922e+003,2.476273e+000
1.698887e+003,2.369003e+000
1.699851e+003,3.083237e+000
1.700815e+003,3.669189e+000
1.701779e+003,3.998871e+000
1.702744e+003,3.770905e+000
1.703708e+003,2.772141e+000
1.704672e+003,1.976944e+000
1.705636e+003,2.067184e+000
1.706601e+003,2.603516e+000
1.707565e+003,3.211075e+000
1.708529e+003,3.834320e+000
1.709493e+003,4.168488e+000
1.710458e+003,4.185715e+000
1.711422e+003,3.747681e+000
1.712386e+003,2.253159e+000
1.713350e+003,1.037643e+000
1.714314e+003,1.424942e+000
1.715279e+003,2.519028e+000
1.716243e+003,2.733780e+000
1.717207e+003,2.217880e+000
1.718171e+003,2.436356e+000
1.719135e+003,3.805283e+000
1.720100e+003,4.904785e+000
1.721064e+003,4.760086e+000
1.722028e+003,3.858582e+000
1.722992e+003,2.846848e+000
1.723957e+003,1.803589e+000
1.724921e+003,7.407379e-001
1.725885e+003,-5.589981e-001
1.726849e+003,-1.273064e+000
1.727814e+003,-1.028564e+000
1.728778e+003,-2.851791e-001
1.729742e+003,1.434677e+000
1.730706e+003,2.917511e+000
1.731671e+003,2.202393e+000
1.732635e+003,4.888153e-001
1.733599e+003,1.143326e+000
1.734563e+003,4.210434e+000
1.735528e+003,5.720886e+000
1.736492e+003,3.561546e+000
1.737456e+003,1.759644e-001
1.738420e+003,-1.712074e+000
1.739385e+003,-2.154922e+000
1.740349e+003,-9.819107e-001
1.741313e+003,2.504013e+000
1.742277e+003,4.268349e+000
1.743241e+003,3.589989e+000
1.744206e+003,2.570892e+000
1.745170e+003,8.235397e-001
1.746134e+003,-5.330353e-001
1.747098e+003,-7.257462e-001
1.748063e+003,-3.325424e-001
1.749027e+003,9.470367e-002
1.749991e+003,4.477310e-001
1.750955e+003,8.602753e-001
1.751919e+003,1.295067e+000
1.752884e+003,1.247070e+000
1.753848e+003,2.764969e-001
1.754812e+003,-9.062119e-001
1.755776e+003,-7.560730e-001
1.756741e+003,7.302933e-001
1.757705e+003,1.926163e+000
1.758669e+003,2.828896e+000
1.759633e+003,3.288574e+000
1.760598e+003,3.087593e+000
1.761562e+003,2.609467e+000
1.762526e+003,2.220177e+000
1.763490e+003,1.482346e+000
1.764455e+003,-7.444382e-001
1.765419e+003,-3.097374e+000
1.766383e+003,-3.286964e+000
1.767347e+003,-1.395737e+000
1.768312e+003,7.620544e-001
1.769276e+003,2.341362e+000
1.770240e+003,2.981018e+000
1.771204e+003,1.952385e+000
1.772168e+003,2.532959e-001
1.773133e+003,3.719635e-001
1.774097e+003,2.041130e+000
1.775061e+003,2.319031e+000
1.776025e+003,5.784988e-001
1.776990e+003,-3.242416e-001
1.777954e+003,1.111877e+000
1.778918e+003,2.555222e+000
1.779882e+003,2.015503e+000
1.780846e+003,6.681747e-001
1.781811e+003,1.298981e-001
1.782775e+003,2.282486e-001
1.783739e+003,3.737259e-001
1.784703e+003,5.202332e-001
1.785668e+003,5.462799e-001
1.786632e+003,3.651428e-001
1.787596e+003,-5.272675e-002
1.788560e+003,-9.067154e-001
1.789525e+003,-1.724709e+000
1.790489e+003,-1.863297e+000
1.791453e+003,-1.485481e+000
1.792417e+003,-1.069977e+000
1.793382e+003,-7.412033e-001
1.794346e+003,-5.698242e-001
1.795310e+003,-6.173096e-001
1.796274e+003,-6.098022e-001
1.797239e+003,-1.335754e-001
1.798203e+003,6.262970e-001
1.799167e+003,8.094254e-001
1.800131e+003,1.675797e-001
1.801095e+003,-2.483215e-001
1.802060e+003,1.357269e-002
1.803024e+003,-2.166748e-003
1.803988e+003,-1.256126e+000
1.804952e+003,-1.821487e+000
1.805917e+003,1.934814e-002
1.806881e+003,2.298462e+000
1.807845e+003,3.214874e+000
1.808809e+003,2.915466e+000
1.809773e+003,1.725693e+000
1.810738e+003,1.561966e-001
1.811702e+003,-2.400894e-001
1.812666e+003,1.454285e+000
1.813630e+003,3.511269e+000
1.814595e+003,3.532043e+000
1.815559e+003,2.054039e+000
1.816523e+003,1.308823e+000
1.817487e+003,1.356590e+000
1.818452e+003,1.736649e+000
1.819416e+003,2.756393e+000
1.820380e+003,3.304337e+000
1.821344e+003,2.829025e+000
1.822309e+003,2.042564e+000
1.823273e+003,7.897186e-001
1.824237e+003,-2.696991e-002
1.825201e+003,1.080299e+000
1.826166e+003,3.246391e+000
1.827130e+003,4.155632e+000
1.828094e+003,3.400192e+000
1.829058e+003,2.173042e+000
1.830022e+003,7.238541e-001
1.830987e+003,-2.593842e-001
1.831951e+003,1.563492e-001
1.832915e+003,1.122086e+000
1.833879e+003,1.338715e+000
1.834844e+003,1.025139e+000
1.835808e+003,1.153641e+000
1.836772e+003,1.798302e+000
1.837736e+003,1.821777e+000
1.838700e+003,6.553116e-001
1.839665e+003,-3.849030e-002
1.840629e+003,1.462517e+000
1.841593e+003,3.983788e+000
1.842557e+003,4.986565e+000
1.843522e+003,4.487381e+000
1.844486e+003,4.032349e+000
1.845450e+003,3.672676e+000
1.846414e+003,3.418266e+000
1.847379e+003,3.126068e+000
1.848343e+003,2.935928e+000
1.849307e+003,3.251442e+000
1.850271e+003,3.375275e+000
1.851236e+003,2.529160e+000
1.852200e+003,1.410202e+000
1.853164e+003,9.716644e-001
1.854128e+003,1.131119e+000
1.855093e+003,1.236862e+000
1.856057e+003,1.102936e+000
1.857021e+003,1.134789e+000
1.857985e+003,1.685219e+000
1.858949e+003,2.322571e+000
1.859914e+003,2.165421e+000
1.860878e+003,1.439728e+000
1.861842e+003,1.410751e+000
1.862806e+003,2.082741e+000
1.863771e+003,2.633987e+000
1.864735e+003,2.923912e+000
1.865699e+003,2.980911e+000
1.866663e+003,2.738571e+000
1.867627e+003,2.529602e+000
1.868592e+003,2.657120e+000
1.869556e+003,2.891701e+000
1.870520e+003,2.810204e+000
1.871484e+003,2.491417e+000
1.872449e+003,2.588661e+000
1.873413e+003,3.518059e+000
1.874377e+003,4.184250e+000
1.875341e+003,3.683372e+000
1.876306e+003,3.314301e+000
1.877270e+003,4.218163e+000
1.878234e+003,5.135750e+000
1.879198e+003,4.498001e+000
1.880163e+003,3.095802e+000
1.881127e+003,2.639267e+000
1.882091e+003,3.139473e+000
1.883055e+003,3.279922e+000
1.884020e+003,2.540230e+000
1.884984e+003,1.688286e+000
1.885948e+003,1.409492e+000
1.886912e+003,1.710922e+000
1.887876e+003,2.805969e+000
1.888841e+003,4.546341e+000
1.889805e+003,4.728104e+000
1.890769e+003,2.867752e+000
1.891733e+003,2.118645e+000
1.892698e+003,3.132248e+000
1.893662e+003,4.318794e+000
1.894626e+003,5.799347e+000
1.895590e+003,6.476402e+000
1.896554e+003,4.828934e+000
1.897519e+003,2.587296e+000
1.898483e+003,1.584511e+000
1.899447e+003,1.720131e+000
1.900411e+003,2.858337e+000
1.901376e+003,5.124878e+000
1.902340e+003,6.132500e+000
1.903304e+003,4.079872e+000
1.904268e+003,1.965042e+000
1.905233e+003,1.237038e+000
1.906197e+003,1.718155e+000
1.907161e+003,4.264297e+000
1.908125e+003,7.377350e+000
1.909090e+003,8.253471e+000
1.910054e+003,6.978210e+000
1.911018e+003,5.286736e+000
1.911982e+003,3.960678e+000
1.912947e+003,3.333939e+000
1.913911e+003,3.629585e+000
1.914875e+003,4.506454e+000
1.915839e+003,5.514885e+000
1.916803e+003,6.418648e+000
1.917768e+003,6.029076e+000
1.918732e+003,4.023499e+000
1.919696e+003,3.203217e+000
1.920660e+003,4.170708e+000
1.921625e+003,4.792183e+000
1.922589e+003,4.204491e+000
1.923553e+003,3.773308e+000
1.924517e+003,4.385826e+000
1.925481e+003,5.331985e+000
1.926446e+003,6.286797e+000
1.927410e+003,7.018364e+000
1.928374e+003,6.915695e+000
1.929338e+003,5.994217e+000
1.930303e+003,5.307564e+000
1.931267e+003,5.166435e+000
1.932231e+003,5.402901e+000
1.933195e+003,6.328857e+000
1.934160e+003,7.024536e+000
1.935124e+003,6.377357e+000
1.936088e+003,5.444221e+000
1.937052e+003,5.615669e+000
1.938017e+003,6.641335e+000
1.938981e+003,7.949684e+000
1.939945e+003,9.146294e+000
1.940909e+003,9.431915e+000
1.941874e+003,8.501068e+000
1.942838e+003,7.086853e+000
1.943802e+003,5.851112e+000
1.944766e+003,5.267174e+000
1.945730e+003,6.509476e+000
1.946695e+003,9.141457e+000
1.947659e+003,9.581253e+000
1.948623e+003,7.541641e+000
1.949587e+003,6.431023e+000
1.950552e+003,6.729820e+000
1.951516e+003,7.695686e+000
1.952480e+003,9.676895e+000
1.953444e+003,1.097858e+001
1.954408e+003,9.989059e+000
1.955373e+003,8.018494e+000
1.956337e+003,6.621727e+000
1.957301e+003,5.921463e+000
1.958265e+003,6.437569e+000
1.959230e+003,8.454155e+000
1.960194e+003,9.382233e+000
1.961158e+003,8.029991e+000
1.962122e+003,6.645584e+000
1.963087e+003,5.456261e+000
1.964051e+003,4.833817e+000
1.965015e+003,5.384270e+000
1.965979e+003,6.363564e+000
1.966944e+003,6.913116e+000
1.967908e+003,7.250893e+000
1.968872e+003,8.319817e+000
1.969836e+003,9.885269e+000
1.970801e+003,1.033131e+001
1.971765e+003,9.054169e+000
1.972729e+003,7.540001e+000
1.973693e+003,6.938622e+000
1.974657e+003,7.068489e+000
1.975622e+003,8.059471e+000
1.976586e+003,9.385712e+000
1.977550e+003,9.538490e+000
1.978514e+003,8.725769e+000
1.979479e+003,8.123871e+000
1.980443e+003,7.907059e+000
1.981407e+003,8.023254e+000
1.982371e+003,8.497810e+000
1.983335e+003,8.952576e+000
1.984300e+003,9.102036e+000
1.985264e+003,8.805023e+000
1.986228e+003,7.691895e+000
1.987192e+003,6.193489e+000
1.988157e+003,6.702408e+000
1.989121e+003,9.884415e+000
1.990085e+003,1.171962e+001
1.991049e+003,1.153649e+001
1.992014e+003,1.143855e+001
1.992978e+003,1.182278e+001
1.993942e+003,1.204228e+001
1.994906e+003,1.175666e+001
1.995871e+003,1.136068e+001
1.996835e+003,1.104932e+001
1.997799e+003,1.090658e+001
1.998763e+003,1.111670e+001
1.999728e+003,1.153895e+001
