5.003444e+002,4.158479e+001
5.013087e+002,4.228033e+001
5.022729e+002,4.288403e+001
5.032371e+002,4.341940e+001
5.042014e+002,4.358354e+001
5.051656e+002,4.346153e+001
5.061298e+002,4.333638e+001
5.070941e+002,4.343016e+001
5.080583e+002,4.370770e+001
5.090225e+002,4.407434e+001
5.099868e+002,4.489742e+001
5.109510e+002,4.541631e+001
5.119152e+002,4.519666e+001
5.128795e+002,4.419684e+001
5.138437e+002,4.300676e+001
5.148079e+002,4.149927e+001
5.157722e+002,4.019646e+001
5.167364e+002,3.953801e+001
5.177006e+002,3.937411e+001
5.186649e+002,3.893234e+001
5.196291e+002,3.679430e+001
5.205933e+002,3.442888e+001
5.215576e+002,3.350861e+001
5.225218e+002,3.402657e+001
5.234860e+002,3.512686e+001
5.244503e+002,3.539699e+001
5.254145e+002,3.467993e+001
5.263787e+002,3.398758e+001
5.273430e+002,3.304228e+001
5.283072e+002,3.229825e+001
5.292714e+002,3.255136e+001
5.302357e+002,3.465295e+001
5.311999e+002,3.544647e+001
5.321641e+002,3.398105e+001
5.331284e+002,3.202533e+001
5.340926e+002,3.084930e+001
5.350568e+002,3.088033e+001
5.360211e+002,3.127585e+001
5.369853e+002,3.197173e+001
5.379495e+002,3.244925e+001
5.389138e+002,3.188028e+001
5.398780e+002,3.008371e+001
5.408422e+002,2.780943e+001
5.418065e+002,2.743555e+001
5.427707e+002,2.864714e+001
5.437349e+002,2.923291e+001
5.446992e+002,2.849393e+001
5.456634e+002,2.679344e+001
5.466276e+002,2.543315e+001
5.475919e+002,2.423470e+001
5.485561e+002,2.386993e+001
5.495203e+002,2.504269e+001
5.504846e+002,2.674214e+001
5.514488e+002,2.751666e+001
5.524130e+002,2.658405e+001
5.533773e+002,2.544856e+001
5.543415e+002,2.511732e+001
5.553057e+002,2.496420e+001
5.562700e+002,2.407780e+001
5.572342e+002,2.190408e+001
5.581984e+002,1.943983e+001
5.591627e+002,1.976184e+001
5.601269e+002,2.177528e+001
5.610911e+002,2.297884e+001
5.620554e+002,2.199011e+001
5.630196e+002,1.910628e+001
5.639838e+002,1.739209e+001
5.649481e+002,1.722658e+001
5.659123e+002,1.765041e+001
5.668765e+002,1.921924e+001
5.678408e+002,2.145822e+001
5.688050e+002,2.279648e+001
5.697692e+002,2.196835e+001
5.707335e+002,2.102437e+001
5.716977e+002,2.107799e+001
5.726619e+002,2.134332e+001
5.736262e+002,2.051183e+001
5.745904e+002,1.749219e+001
5.755546e+002,1.404570e+001
5.765189e+002,1.283737e+001
5.774831e+002,1.305624e+001
5.784473e+002,1.359360e+001
5.794116e+002,1.373767e+001
5.803758e+002,1.355879e+001
5.813400e+002,1.297244e+001
5.823043e+002,1.127274e+001
5.832685e+002,1.058682e+001
5.842327e+002,1.272464e+001
5.851970e+002,1.710028e+001
5.861612e+002,1.941631e+001
5.871254e+002,1.625198e+001
5.880897e+002,1.389905e+001
5.890539e+002,1.404503e+001
5.900181e+002,1.564821e+001
5.909824e+002,1.681955e+001
5.919466e+002,1.632529e+001
5.929108e+002,1.525591e+001
5.938751e+002,1.492935e+001
5.948393e+002,1.495680e+001
5.958035e+002,1.470822e+001
5.967678e+002,1.374091e+001
5.977320e+002,1.225121e+001
5.986962e+002,1.147957e+001
5.996605e+002,1.128345e+001
6.006247e+002,1.114722e+001
6.015889e+002,1.073819e+001
6.025532e+002,1.011752e+001
6.035174e+002,9.996170e+000
6.044816e+002,1.116115e+001
6.054459e+002,1.203629e+001
6.064101e+002,1.217671e+001
6.073743e+002,1.189949e+001
6.083386e+002,1.189853e+001
6.093028e+002,1.281711e+001
6.102670e+002,1.351114e+001
6.112313e+002,1.281978e+001
6.121955e+002,1.149181e+001
6.131597e+002,1.049078e+001
6.141240e+002,1.047305e+001
6.150882e+002,1.119154e+001
6.160524e+002,1.197479e+001
6.170167e+002,1.285133e+001
6.179809e+002,1.290404e+001
6.189451e+002,1.126666e+001
6.199094e+002,8.262024e+000
6.208736e+002,6.753052e+000
6.218378e+002,8.896118e+000
6.228021e+002,1.034184e+001
6.237663e+002,1.039680e+001
6.247305e+002,9.645523e+000
6.256948e+002,9.082245e+000
6.266590e+002,9.187607e+000
6.276232e+002,8.989441e+000
6.285875e+002,7.367279e+000
6.295517e+002,5.597107e+000
6.305159e+002,5.217957e+000
6.314802e+002,6.966141e+000
6.324444e+002,9.741196e+000
6.334086e+002,1.055222e+001
6.343729e+002,1.005583e+001
6.353371e+002,9.569092e+000
6.363013e+002,9.545563e+000
6.372656e+002,9.773849e+000
6.382298e+002,9.572891e+000
6.391940e+002,8.554245e+000
6.401583e+002,7.475723e+000
6.411225e+002,5.993561e+000
6.420867e+002,4.814453e+000
6.430510e+002,5.047073e+000
6.440152e+002,7.556076e+000
6.449794e+002,9.139557e+000
6.459437e+002,7.265228e+000
6.469079e+002,4.612762e+000
6.478721e+002,3.444534e+000
6.488364e+002,4.457932e+000
6.498006e+002,6.220261e+000
6.507648e+002,5.986572e+000
6.517291e+002,4.459167e+000
6.526933e+002,3.329086e+000
6.536575e+002,2.897156e+000
6.546218e+002,3.037735e+000
6.555860e+002,3.570435e+000
6.565502e+002,5.020020e+000
6.575145e+002,5.597961e+000
6.584787e+002,4.731873e+000
6.594429e+002,3.591263e+000
6.604072e+002,3.110291e+000
6.613714e+002,3.470978e+000
6.623356e+002,3.906723e+000
6.632999e+002,4.022705e+000
6.642641e+002,4.026047e+000
6.652283e+002,4.015915e+000
6.661926e+002,4.084351e+000
6.671568e+002,4.339844e+000
6.681210e+002,4.959320e+000
6.690853e+002,5.686691e+000
6.700495e+002,5.912704e+000
6.710137e+002,5.665146e+000
6.719780e+002,5.395386e+000
6.729422e+002,5.583771e+000
6.739064e+002,6.302261e+000
6.748707e+002,6.861588e+000
6.758349e+002,7.860977e+000
6.767991e+002,8.078857e+000
6.777634e+002,6.607727e+000
6.787276e+002,3.779190e+000
6.796918e+002,1.513046e+000
6.806561e+002,9.423828e-002
6.816203e+002,-1.656952e-001
6.825845e+002,1.830612e+000
6.835488e+002,4.855804e+000
6.845130e+002,6.952957e+000
6.854772e+002,6.606094e+000
6.864415e+002,5.042252e+000
6.874057e+002,5.167221e+000
6.883699e+002,6.283005e+000
6.893342e+002,6.803116e+000
6.902984e+002,5.849228e+000
6.912626e+002,3.648682e+000
6.922269e+002,1.573883e+000
6.931911e+002,-1.139206e+000
6.941553e+002,-2.356583e+000
6.951196e+002,-8.423615e-001
6.960838e+002,1.762787e+000
6.970480e+002,2.716446e+000
6.980123e+002,6.385193e-001
6.989765e+002,-8.633118e-001
6.999407e+002,2.489471e-001
7.009050e+002,2.001190e+000
7.018692e+002,2.590988e+000
7.028334e+002,1.539093e+000
7.037977e+002,2.801514e-001
7.047619e+002,1.745132e+000
7.057261e+002,4.554504e+000
7.066904e+002,5.435745e+000
7.076546e+002,3.862442e+000
7.086188e+002,1.476730e+000
7.095831e+002,9.222412e-001
7.105473e+002,3.013229e+000
7.115115e+002,4.307327e+000
7.124758e+002,4.447296e+000
7.134400e+002,4.278336e+000
7.144042e+002,4.255478e+000
7.153685e+002,4.445190e+000
7.163327e+002,4.773346e+000
7.172969e+002,5.728851e+000
7.182612e+002,6.324341e+000
7.192254e+002,5.880539e+000
7.201896e+002,4.701813e+000
7.211539e+002,3.400879e+000
7.221181e+002,2.445190e+000
7.230823e+002,1.922546e+000
7.240466e+002,2.094498e+000
7.250108e+002,2.871002e+000
7.259750e+002,3.684097e+000
7.269393e+002,4.142334e+000
7.279035e+002,4.184219e+000
7.288677e+002,4.065033e+000
7.298320e+002,4.006729e+000
7.307962e+002,3.846649e+000
7.317604e+002,3.257645e+000
7.327247e+002,2.705994e+000
7.336889e+002,2.980835e+000
7.346531e+002,4.547226e+000
7.356174e+002,5.426285e+000
7.365816e+002,4.443741e+000
7.375458e+002,2.857803e+000
7.385101e+002,1.086975e+000
7.394743e+002,-4.381714e-001
7.404385e+002,-9.417877e-001
7.414028e+002,1.229675e+000
7.423670e+002,5.198181e+000
7.433312e+002,7.616653e+000
7.442955e+002,8.393417e+000
7.452597e+002,7.983658e+000
7.462239e+002,6.550034e+000
7.471882e+002,3.544586e+000
7.481524e+002,1.801208e+000
7.491166e+002,1.730820e+000
7.500809e+002,1.940720e+000
7.510451e+002,1.960175e+000
7.520093e+002,1.839706e+000
7.529736e+002,1.947510e+000
7.539378e+002,2.722687e+000
7.549020e+002,3.588287e+000
7.558663e+002,4.467377e+000
7.568306e+002,5.080139e+000
7.577948e+002,4.645493e+000
7.587590e+002,2.794006e+000
7.597233e+002,5.337524e-001
7.606875e+002,2.034729e+000
7.616517e+002,6.763702e+000
7.626160e+002,8.864365e+000
7.635802e+002,5.843781e+000
7.645444e+002,4.755249e-001
7.655087e+002,-1.202682e+000
7.664729e+002,3.348068e+000
7.674371e+002,6.067184e+000
7.684014e+002,5.655945e+000
7.693656e+002,4.339615e+000
7.703298e+002,3.154205e+000
7.712941e+002,2.408173e+000
7.722583e+002,2.420624e+000
7.732225e+002,4.173218e+000
7.741868e+002,6.092148e+000
7.751510e+002,6.817261e+000
7.761152e+002,6.626450e+000
7.770795e+002,6.407639e+000
7.780437e+002,6.934128e+000
7.790079e+002,8.050369e+000
7.799722e+002,8.738190e+000
7.809364e+002,9.158997e+000
7.819006e+002,8.830078e+000
7.828649e+002,6.860565e+000
7.838291e+002,4.052551e+000
7.847933e+002,3.168045e+000
7.857576e+002,6.140182e+000
7.867218e+002,7.575165e+000
7.876860e+002,5.085785e+000
7.886503e+002,2.096939e+000
7.896145e+002,1.759140e+000
7.905787e+002,4.766098e+000
7.915430e+002,8.430878e+000
7.925072e+002,1.030141e+001
7.934714e+002,1.072031e+001
7.944357e+002,9.618958e+000
7.953999e+002,7.373917e+000
7.963641e+002,4.999878e+000
7.973284e+002,3.559555e+000
7.982926e+002,3.067459e+000
7.992568e+002,3.787689e+000
8.002211e+002,6.459549e+000
8.011853e+002,8.391205e+000
8.021495e+002,8.157135e+000
8.031138e+002,6.574097e+000
8.040780e+002,6.339478e+000
8.050422e+002,9.057190e+000
8.060065e+002,1.099861e+001
8.069707e+002,1.057851e+001
8.079349e+002,9.054321e+000
8.088992e+002,7.501984e+000
8.098634e+002,6.428009e+000
8.108276e+002,5.833527e+000
8.117919e+002,5.782211e+000
8.127561e+002,6.004028e+000
8.137203e+002,6.455399e+000
8.146846e+002,7.193390e+000
8.156488e+002,7.593460e+000
8.166130e+002,6.671265e+000
8.175773e+002,3.926987e+000
8.185415e+002,2.764053e+000
8.195057e+002,4.098068e+000
8.204700e+002,5.386490e+000
8.214342e+002,5.818665e+000
8.223984e+002,5.565292e+000
8.233627e+002,5.104126e+000
8.243269e+002,4.323288e+000
8.252911e+002,4.017487e+000
8.262554e+002,4.942490e+000
8.272196e+002,6.244843e+000
8.281838e+002,7.104370e+000
8.291481e+002,7.186554e+000
8.301123e+002,6.656036e+000
8.310765e+002,5.601059e+000
8.320408e+002,4.148193e+000
8.330050e+002,3.768600e+000
8.339692e+002,4.820084e+000
8.349335e+002,6.158417e+000
8.358977e+002,6.547012e+000
8.368619e+002,5.842804e+000
8.378262e+002,5.646133e+000
8.387904e+002,5.723648e+000
8.397546e+002,6.505219e+000
8.407189e+002,9.107040e+000
8.416831e+002,1.227315e+001
8.426473e+002,1.378159e+001
8.436116e+002,1.241875e+001
8.445758e+002,1.022110e+001
8.455400e+002,8.724869e+000
8.465043e+002,7.806274e+000
8.474685e+002,7.740265e+000
8.484327e+002,8.544785e+000
8.493970e+002,9.752960e+000
8.503612e+002,1.048257e+001
8.513254e+002,1.062263e+001
8.522897e+002,1.053598e+001
8.532539e+002,1.014595e+001
8.542181e+002,9.557037e+000
8.551824e+002,8.861176e+000
8.561466e+002,8.158478e+000
8.571108e+002,7.498459e+000
8.580751e+002,5.839157e+000
8.590393e+002,5.340683e+000
8.600035e+002,7.844116e+000
8.609678e+002,1.135269e+001
8.619320e+002,1.356140e+001
8.628962e+002,1.355809e+001
8.638605e+002,1.256905e+001
8.648247e+002,1.197298e+001
8.657889e+002,1.194171e+001
8.667532e+002,1.332303e+001
8.677174e+002,1.621432e+001
8.686816e+002,1.901183e+001
8.696459e+002,1.983197e+001
8.706101e+002,1.843190e+001
8.715743e+002,1.715152e+001
8.725386e+002,1.548956e+001
8.735028e+002,1.455942e+001
8.744670e+002,1.500003e+001
8.754313e+002,1.615590e+001
8.763955e+002,1.675485e+001
8.773597e+002,1.617459e+001
8.783240e+002,1.595952e+001
8.792882e+002,1.772073e+001
8.802524e+002,1.991206e+001
8.812167e+002,2.116669e+001
8.821809e+002,2.126085e+001
8.831451e+002,2.087758e+001
8.841094e+002,2.089069e+001
8.850736e+002,2.137509e+001
8.860378e+002,2.216550e+001
8.870021e+002,2.341699e+001
8.879663e+002,2.425966e+001
8.889305e+002,2.388176e+001
8.898948e+002,2.254820e+001
8.908590e+002,2.177893e+001
8.918232e+002,2.192873e+001
8.927875e+002,2.245555e+001
8.937517e+002,2.359695e+001
8.947159e+002,2.476616e+001
8.956802e+002,2.534491e+001
8.966444e+002,2.521378e+001
8.976086e+002,2.487111e+001
8.985729e+002,2.479193e+001
8.995371e+002,2.506038e+001
9.005013e+002,2.566978e+001
9.014656e+002,2.662509e+001
9.024298e+002,2.790804e+001
9.033940e+002,2.954207e+001
9.043583e+002,3.127428e+001
9.053225e+002,3.166452e+001
9.062867e+002,2.929796e+001
9.072510e+002,2.718953e+001
9.082152e+002,2.515253e+001
9.091794e+002,2.378041e+001
9.101437e+002,2.389496e+001
9.111079e+002,2.563490e+001
9.120721e+002,2.741220e+001
9.130364e+002,2.823030e+001
9.140006e+002,2.870020e+001
9.149648e+002,2.923772e+001
9.159291e+002,2.982726e+001
9.168933e+002,3.035400e+001
9.178575e+002,3.068376e+001
9.188218e+002,3.057497e+001
9.197860e+002,2.893034e+001
9.207502e+002,2.560399e+001
9.217145e+002,2.391406e+001
9.226787e+002,2.541840e+001
9.236429e+002,2.815126e+001
9.246072e+002,2.945601e+001
9.255714e+002,2.907782e+001
9.265356e+002,2.825739e+001
9.274999e+002,2.618883e+001
9.284641e+002,2.473193e+001
9.294283e+002,2.522058e+001
9.303926e+002,2.670093e+001
9.313568e+002,2.751048e+001
9.323210e+002,2.679793e+001
9.332853e+002,2.503992e+001
9.342495e+002,2.192729e+001
9.352137e+002,1.849385e+001
9.361780e+002,1.677081e+001
9.371422e+002,1.722963e+001
9.381064e+002,1.871236e+001
9.390707e+002,1.963760e+001
9.400349e+002,1.986172e+001
9.409991e+002,1.987708e+001
9.419634e+002,1.970210e+001
9.429276e+002,1.929008e+001
9.438918e+002,1.803508e+001
9.448561e+002,1.675719e+001
9.458203e+002,1.715668e+001
9.467845e+002,2.013071e+001
9.477488e+002,2.276216e+001
9.487130e+002,2.257637e+001
9.496772e+002,2.130946e+001
9.506415e+002,1.990118e+001
9.516057e+002,1.866585e+001
9.525699e+002,1.779849e+001
9.535342e+002,1.748753e+001
9.544984e+002,1.757787e+001
9.554626e+002,1.687688e+001
9.564269e+002,1.525603e+001
9.573911e+002,1.416537e+001
9.583553e+002,1.418092e+001
9.593196e+002,1.481491e+001
9.602838e+002,1.538338e+001
9.612480e+002,1.590355e+001
9.622123e+002,1.602660e+001
9.631765e+002,1.542039e+001
9.641407e+002,1.470033e+001
9.651050e+002,1.388853e+001
9.660692e+002,1.316725e+001
9.670334e+002,1.280838e+001
9.679977e+002,1.302130e+001
9.689619e+002,1.383148e+001
9.699261e+002,1.548007e+001
9.708904e+002,1.760684e+001
9.718546e+002,1.935512e+001
9.728188e+002,2.046368e+001
9.737831e+002,2.132397e+001
9.747473e+002,2.260176e+001
9.757115e+002,2.452150e+001
9.766758e+002,2.577664e+001
9.776400e+002,2.610956e+001
9.786042e+002,2.623436e+001
9.795685e+002,2.642441e+001
9.805327e+002,2.632106e+001
9.814969e+002,2.549683e+001
9.824612e+002,2.386693e+001
9.834254e+002,2.171349e+001
9.843896e+002,1.857817e+001
9.853539e+002,1.533058e+001
9.863181e+002,1.277686e+001
9.872823e+002,1.101474e+001
9.882466e+002,1.027693e+001
9.892108e+002,1.091090e+001
9.901750e+002,1.269098e+001
9.911393e+002,1.309529e+001
9.921035e+002,1.058061e+001
9.930677e+002,8.679916e+000
9.940320e+002,8.049103e+000
9.949962e+002,7.835876e+000
9.959604e+002,7.038635e+000
9.969247e+002,5.665863e+000
9.978889e+002,5.208328e+000
9.988531e+002,7.053787e+000
9.998174e+002,8.947235e+000
1.000782e+003,9.416748e+000
1.001746e+003,9.191101e+000
1.002710e+003,9.563171e+000
1.003674e+003,1.097488e+001
1.004639e+003,1.239618e+001
1.005603e+003,1.187990e+001
1.006567e+003,9.169159e+000
1.007531e+003,8.089111e+000
1.008495e+003,9.544617e+000
1.009460e+003,1.077173e+001
1.010424e+003,9.800537e+000
1.011388e+003,7.237976e+000
1.012352e+003,5.517227e+000
1.013317e+003,5.248962e+000
1.014281e+003,5.100128e+000
1.015245e+003,4.538681e+000
1.016209e+003,3.926102e+000
1.017174e+003,3.557999e+000
1.018138e+003,3.447357e+000
1.019102e+003,3.496063e+000
1.020066e+003,3.712219e+000
1.021031e+003,3.847244e+000
1.021995e+003,2.435013e+000
1.022959e+003,-1.661530e-001
1.023923e+003,-1.197220e+000
1.024887e+003,7.840881e-001
1.025852e+003,3.759216e+000
1.026816e+003,4.373871e+000
1.027780e+003,2.048035e+000
1.028744e+003,3.903351e-001
1.029709e+003,-1.921997e-001
1.030673e+003,-2.879791e-001
1.031637e+003,4.330750e-001
1.032601e+003,1.293854e+000
1.033566e+003,1.218704e+000
1.034530e+003,-1.036987e-001
1.035494e+003,-1.310501e+000
1.036458e+003,-5.632782e-001
1.037422e+003,1.008209e+000
1.038387e+003,1.329269e+000
1.039351e+003,4.542389e-001
1.040315e+003,-1.571350e-001
1.041279e+003,7.177124e-001
1.042244e+003,2.647903e+000
1.043208e+003,3.256592e+000
1.044172e+003,9.488678e-001
1.045136e+003,-7.714844e-002
1.046101e+003,1.231949e+000
1.047065e+003,2.865616e+000
1.048029e+003,3.650650e+000
1.048993e+003,3.578568e+000
1.049958e+003,3.066269e+000
1.050922e+003,2.081909e+000
1.051886e+003,1.433792e+000
1.052850e+003,2.338928e+000
1.053814e+003,3.818130e+000
1.054779e+003,4.627747e+000
1.055743e+003,4.484238e+000
1.056707e+003,3.846252e+000
1.057671e+003,3.257309e+000
1.058636e+003,2.701767e+000
1.059600e+003,2.077179e+000
1.060564e+003,1.093155e+000
1.061528e+003,6.441193e-001
1.062493e+003,1.134399e+000
1.063457e+003,1.892090e+000
1.064421e+003,2.321243e+000
1.065385e+003,2.372147e+000
1.066349e+003,2.066574e+000
1.067314e+003,1.172394e+000
1.068278e+003,1.969452e-001
1.069242e+003,-3.700867e-001
1.070206e+003,-7.706299e-001
1.071171e+003,-1.825760e+000
1.072135e+003,-3.698120e+000
1.073099e+003,-5.066101e+000
1.074063e+003,-3.528198e+000
1.075028e+003,1.324432e+000
1.075992e+003,4.472534e+000
1.076956e+003,5.687424e+000
1.077920e+003,5.906296e+000
1.078885e+003,5.278687e+000
1.079849e+003,4.061630e+000
1.080813e+003,2.527481e+000
1.081777e+003,6.168518e-001
1.082741e+003,-9.872437e-001
1.083706e+003,-2.419449e+000
1.084670e+003,-3.125259e+000
1.085634e+003,-2.101776e+000
1.086598e+003,-1.865692e-001
1.087563e+003,9.769592e-001
1.088527e+003,5.593109e-001
1.089491e+003,-4.733124e-001
1.090455e+003,-2.658691e-001
1.091420e+003,1.295593e+000
1.092384e+003,2.042923e+000
1.093348e+003,1.614761e+000
1.094312e+003,9.551697e-001
1.095276e+003,5.249481e-001
1.096241e+003,3.731537e-001
1.097205e+003,6.763000e-001
1.098169e+003,1.789383e+000
1.099133e+003,2.194046e+000
1.100098e+003,3.405914e-001
1.101062e+003,-1.376495e+000
1.102026e+003,-1.122955e+000
1.102990e+003,5.329285e-001
1.103955e+003,1.957596e+000
1.104919e+003,2.137085e+000
1.105883e+003,1.465378e+000
1.106847e+003,7.622986e-001
1.107812e+003,1.548767e-002
1.108776e+003,-8.710785e-001
1.109740e+003,-2.199371e+000
1.110704e+003,-3.052856e+000
1.111668e+003,-2.416290e+000
1.112633e+003,-6.191101e-001
1.113597e+003,7.472076e-001
1.114561e+003,1.567261e+000
1.115525e+003,1.687424e+000
1.116490e+003,2.252502e-001
1.117454e+003,-1.080231e+000
1.118418e+003,-5.421295e-001
1.119382e+003,1.185715e+000
1.120347e+003,2.037491e+000
1.121311e+003,6.942749e-001
1.122275e+003,-1.748642e+000
1.123239e+003,-2.977730e+000
1.124203e+003,-2.925362e+000
1.125168e+003,-2.348022e+000
1.126132e+003,-1.005722e+000
1.127096e+003,1.719513e-001
1.128060e+003,2.517242e-001
1.129025e+003,-5.257721e-001
1.129989e+003,-8.339081e-001
1.130953e+003,-2.749176e-001
1.131917e+003,-4.753113e-002
1.132882e+003,-9.608459e-001
1.133846e+003,-1.727554e+000
1.134810e+003,-1.371368e+000
1.135774e+003,-2.120056e-001
1.136739e+003,7.868958e-001
1.137703e+003,1.081055e+000
1.138667e+003,1.149719e+000
1.139631e+003,1.882172e+000
1.140595e+003,3.200287e+000
1.141560e+003,4.363586e+000
1.142524e+003,5.316711e+000
1.143488e+003,6.404449e+000
1.144452e+003,8.195740e+000
1.145417e+003,1.029243e+001
1.146381e+003,1.098456e+001
1.147345e+003,9.232712e+000
1.148309e+003,8.714432e+000
1.149274e+003,1.085962e+001
1.150238e+003,1.385931e+001
1.151202e+003,1.748920e+001
1.152166e+003,2.117052e+001
1.153130e+003,2.406389e+001
1.154095e+003,2.575026e+001
1.155059e+003,2.671919e+001
1.156023e+003,2.800781e+001
1.156987e+003,2.925540e+001
1.157952e+003,2.792490e+001
1.158916e+003,2.366052e+001
1.159880e+003,1.956244e+001
1.160844e+003,1.725287e+001
1.161809e+003,1.599960e+001
1.162773e+003,1.442334e+001
1.163737e+003,1.251619e+001
1.164701e+003,1.031528e+001
1.165666e+003,6.719742e+000
1.166630e+003,4.111160e+000
1.167594e+003,4.218658e+000
1.168558e+003,5.480362e+000
1.169522e+003,5.670135e+000
1.170487e+003,4.197311e+000
1.171451e+003,2.392593e+000
1.172415e+003,1.670349e+000
1.173379e+003,1.937134e+000
1.174344e+003,3.106506e+000
1.175308e+003,5.366486e+000
1.176272e+003,6.416290e+000
1.177236e+003,4.749619e+000
1.178201e+003,2.146378e+000
1.179165e+003,7.875214e-001
1.180129e+003,6.313782e-001
1.181093e+003,7.468948e-001
1.182057e+003,1.472862e+000
1.183022e+003,1.713928e+000
1.183986e+003,5.703888e-001
1.184950e+003,-8.269577e-001
1.185914e+003,-1.275391e+000
1.186879e+003,-7.641602e-001
1.187843e+003,-1.469498e-001
1.188807e+003,-1.305771e-001
1.189771e+003,-6.641159e-001
1.190736e+003,-1.716896e+000
1.191700e+003,-3.430519e+000
1.192664e+003,-4.019867e+000
1.193628e+003,-2.237167e+000
1.194593e+003,-6.491089e-001
1.195557e+003,-1.426468e+000
1.196521e+003,-3.917000e+000
1.197485e+003,-5.848450e+000
1.198449e+003,-6.897499e+000
1.199414e+003,-7.291985e+000
1.200378e+003,-6.760460e+000
1.201342e+003,-5.950508e+000
1.202306e+003,-5.005363e+000
1.203271e+003,-4.186401e+000
1.204235e+003,-3.867302e+000
1.205199e+003,-4.203308e+000
1.206163e+003,-5.007538e+000
1.207128e+003,-6.061394e+000
1.208092e+003,-7.395706e+000
1.209056e+003,-7.657051e+000
1.210020e+003,-5.876236e+000
1.210984e+003,-5.089943e+000
1.211949e+003,-7.066605e+000
1.212913e+003,-9.967476e+000
1.213877e+003,-1.134531e+001
1.214841e+003,-1.104492e+001
1.215806e+003,-1.060805e+001
1.216770e+003,-1.036803e+001
1.217734e+003,-1.060189e+001
1.218698e+003,-1.202045e+001
1.219663e+003,-1.367754e+001
1.220627e+003,-1.417801e+001
1.221591e+003,-1.346850e+001
1.222555e+003,-1.284123e+001
1.223520e+003,-1.351493e+001
1.224484e+003,-1.498509e+001
1.225448e+003,-1.491104e+001
1.226412e+003,-1.178800e+001
1.227376e+003,-1.062567e+001
1.228341e+003,-1.329444e+001
1.229305e+003,-1.579326e+001
1.230269e+003,-1.562782e+001
1.231233e+003,-1.385014e+001
1.232198e+003,-1.271603e+001
1.233162e+003,-1.279110e+001
1.234126e+003,-1.305264e+001
1.235090e+003,-1.256579e+001
1.236055e+003,-1.223272e+001
1.237019e+003,-1.344064e+001
1.237983e+003,-1.556326e+001
1.238947e+003,-1.679559e+001
1.239911e+003,-1.636555e+001
1.240876e+003,-1.520325e+001
1.241840e+003,-1.468755e+001
1.242804e+003,-1.484504e+001
1.243768e+003,-1.507436e+001
1.244733e+003,-1.580241e+001
1.245697e+003,-1.598682e+001
1.246661e+003,-1.524269e+001
1.247625e+003,-1.431501e+001
1.248590e+003,-1.351510e+001
1.249554e+003,-1.296487e+001
1.250518e+003,-1.297206e+001
1.251482e+003,-1.375527e+001
1.252447e+003,-1.467168e+001
1.253411e+003,-1.490009e+001
1.254375e+003,-1.463365e+001
1.255339e+003,-1.435184e+001
1.256303e+003,-1.404818e+001
1.257268e+003,-1.357285e+001
1.258232e+003,-1.284269e+001
1.259196e+003,-1.202806e+001
1.260160e+003,-1.137527e+001
1.261125e+003,-1.085474e+001
1.262089e+003,-1.037347e+001
1.263053e+003,-9.975548e+000
1.264017e+003,-9.676804e+000
1.264982e+003,-9.556496e+000
1.265946e+003,-9.435181e+000
1.266910e+003,-8.754936e+000
1.267874e+003,-7.864281e+000
1.268839e+003,-8.129982e+000
1.269803e+003,-1.047856e+001
1.270767e+003,-1.364191e+001
1.271731e+003,-1.525184e+001
1.272695e+003,-1.522086e+001
1.273660e+003,-1.440337e+001
1.274624e+003,-1.256564e+001
1.275588e+003,-1.087173e+001
1.276552e+003,-9.613487e+000
1.277517e+003,-8.950584e+000
1.278481e+003,-9.594521e+000
1.279445e+003,-1.174453e+001
1.280409e+003,-1.312231e+001
1.281374e+003,-1.236824e+001
1.282338e+003,-1.149017e+001
1.283302e+003,-1.158783e+001
1.284266e+003,-1.212068e+001
1.285230e+003,-1.278307e+001
1.286195e+003,-1.325401e+001
1.287159e+003,-1.268129e+001
1.288123e+003,-1.032691e+001
1.289087e+003,-7.175667e+000
1.290052e+003,-6.446411e+000
1.291016e+003,-9.272797e+000
1.291980e+003,-1.063445e+001
1.292944e+003,-9.324867e+000
1.293909e+003,-8.353264e+000
1.294873e+003,-9.031242e+000
1.295837e+003,-1.052303e+001
1.296801e+003,-1.186471e+001
1.297766e+003,-1.285788e+001
1.298730e+003,-1.333577e+001
1.299694e+003,-1.314243e+001
1.300658e+003,-1.258867e+001
1.301622e+003,-1.145184e+001
1.302587e+003,-1.036932e+001
1.303551e+003,-1.089653e+001
1.304515e+003,-1.307033e+001
1.305479e+003,-1.461596e+001
1.306444e+003,-1.356731e+001
1.307408e+003,-1.081253e+001
1.308372e+003,-9.267448e+000
1.309336e+003,-9.215050e+000
1.310301e+003,-9.555634e+000
1.311265e+003,-1.057288e+001
1.312229e+003,-1.147807e+001
1.313193e+003,-1.222677e+001
1.314157e+003,-1.264706e+001
1.315122e+003,-1.241557e+001
1.316086e+003,-1.166640e+001
1.317050e+003,-1.096346e+001
1.318014e+003,-1.064846e+001
1.318979e+003,-1.056401e+001
1.319943e+003,-1.049262e+001
1.320907e+003,-1.041328e+001
1.321871e+003,-1.035436e+001
1.322836e+003,-1.039746e+001
1.323800e+003,-1.044285e+001
1.324764e+003,-1.024512e+001
1.325728e+003,-1.009215e+001
1.326693e+003,-1.077234e+001
1.327657e+003,-1.235900e+001
1.328621e+003,-1.306764e+001
1.329585e+003,-1.177686e+001
1.330549e+003,-1.031264e+001
1.331514e+003,-9.761543e+000
1.332478e+003,-9.631111e+000
1.333442e+003,-9.323166e+000
1.334406e+003,-8.893211e+000
1.335371e+003,-8.925453e+000
1.336335e+003,-9.752289e+000
1.337299e+003,-1.086417e+001
1.338263e+003,-1.127631e+001
1.339228e+003,-1.085035e+001
1.340192e+003,-1.102595e+001
1.341156e+003,-1.290745e+001
1.342120e+003,-1.374325e+001
1.343084e+003,-1.248441e+001
1.344049e+003,-1.073039e+001
1.345013e+003,-9.599518e+000
1.345977e+003,-9.061775e+000
1.346941e+003,-8.629921e+000
1.347906e+003,-8.110161e+000
1.348870e+003,-8.049606e+000
1.349834e+003,-9.400131e+000
1.350798e+003,-1.124091e+001
1.351763e+003,-1.170436e+001
1.352727e+003,-1.096493e+001
1.353691e+003,-1.018822e+001
1.354655e+003,-9.781197e+000
1.355620e+003,-9.490501e+000
1.356584e+003,-9.025398e+000
1.357548e+003,-8.381958e+000
1.358512e+003,-7.617203e+000
1.359476e+003,-6.532478e+000
1.360441e+003,-6.059151e+000
1.361405e+003,-6.993385e+000
1.362369e+003,-7.908173e+000
1.363333e+003,-8.096092e+000
1.364298e+003,-7.825043e+000
1.365262e+003,-7.523293e+000
1.366226e+003,-7.311638e+000
1.367190e+003,-7.033257e+000
1.368155e+003,-6.545364e+000
1.369119e+003,-5.923668e+000
1.370083e+003,-5.374512e+000
1.371047e+003,-4.788544e+000
1.372011e+003,-4.722115e+000
1.372976e+003,-5.596794e+000
1.373940e+003,-6.530449e+000
1.374904e+003,-7.432434e+000
1.375868e+003,-8.020088e+000
1.376833e+003,-7.680931e+000
1.377797e+003,-6.577011e+000
1.378761e+003,-5.957878e+000
1.379725e+003,-6.408028e+000
1.380690e+003,-7.251846e+000
1.381654e+003,-8.266045e+000
1.382618e+003,-8.969551e+000
1.383582e+003,-8.302223e+000
1.384547e+003,-6.460594e+000
1.385511e+003,-5.156128e+000
1.386475e+003,-5.377609e+000
1.387439e+003,-6.181656e+000
1.388403e+003,-5.985962e+000
1.389368e+003,-4.801582e+000
1.390332e+003,-4.362389e+000
1.391296e+003,-5.094734e+000
1.392260e+003,-5.736763e+000
1.393225e+003,-6.001854e+000
1.394189e+003,-6.141449e+000
1.395153e+003,-6.189415e+000
1.396117e+003,-6.247459e+000
1.397082e+003,-6.453842e+000
1.398046e+003,-6.812675e+000
1.399010e+003,-7.268990e+000
1.399974e+003,-7.826401e+000
1.400938e+003,-8.293816e+000
1.401903e+003,-7.826637e+000
1.402867e+003,-5.954514e+000
1.403831e+003,-4.493111e+000
1.404795e+003,-3.340630e+000
1.405760e+003,-2.835304e+000
1.406724e+003,-3.613174e+000
1.407688e+003,-4.932411e+000
1.408652e+003,-5.937653e+000
1.409617e+003,-6.476768e+000
1.410581e+003,-6.616287e+000
1.411545e+003,-6.327393e+000
1.412509e+003,-5.948425e+000
1.413474e+003,-5.847900e+000
1.414438e+003,-5.935204e+000
1.415402e+003,-5.959892e+000
1.416366e+003,-5.874184e+000
1.417330e+003,-5.804916e+000
1.418295e+003,-5.912529e+000
1.419259e+003,-5.630524e+000
1.420223e+003,-3.787216e+000
1.421187e+003,-8.655548e-001
1.422152e+003,1.755295e-001
1.423116e+003,-1.142220e+000
1.424080e+003,-2.750404e+000
1.425044e+003,-5.084267e+000
1.426009e+003,-6.620102e+000
1.426973e+003,-6.126686e+000
1.427937e+003,-4.826012e+000
1.428901e+003,-4.114479e+000
1.429865e+003,-4.122803e+000
1.430830e+003,-4.092422e+000
1.431794e+003,-3.555992e+000
1.432758e+003,-3.045921e+000
1.433722e+003,-3.627563e+000
1.434687e+003,-5.393456e+000
1.435651e+003,-5.955521e+000
1.436615e+003,-4.384583e+000
1.437579e+003,-3.387749e+000
1.438544e+003,-3.281891e+000
1.439508e+003,-3.676094e+000
1.440472e+003,-4.708923e+000
1.441436e+003,-5.833305e+000
1.442401e+003,-6.246544e+000
1.443365e+003,-5.750443e+000
1.444329e+003,-4.336937e+000
1.445293e+003,-1.698219e+000
1.446257e+003,1.086494e+000
1.447222e+003,1.639076e+000
1.448186e+003,3.735886e-001
1.449150e+003,-4.001923e-001
1.450114e+003,-2.892914e-001
1.451079e+003,-5.838470e-001
1.452043e+003,-2.632423e+000
1.453007e+003,-4.889511e+000
1.453971e+003,-4.943237e+000
1.454936e+003,-3.111671e+000
1.455900e+003,-1.755302e+000
1.456864e+003,-1.264458e+000
1.457828e+003,-1.529312e+000
1.458792e+003,-3.607491e+000
1.459757e+003,-5.476730e+000
1.460721e+003,-5.049309e+000
1.461685e+003,-3.251457e+000
1.462649e+003,-1.930336e+000
1.463614e+003,-1.595703e+000
1.464578e+003,-1.893257e+000
1.465542e+003,-2.640854e+000
1.466506e+003,-3.622604e+000
1.467471e+003,-4.086395e+000
1.468435e+003,-3.838821e+000
1.469399e+003,-3.739960e+000
1.470363e+003,-4.361122e+000
1.471328e+003,-4.490509e+000
1.472292e+003,-3.395576e+000
1.473256e+003,-2.290169e+000
1.474220e+003,-2.134247e+000
1.475184e+003,-2.497673e+000
1.476149e+003,-2.269249e+000
1.477113e+003,-1.279846e+000
1.478077e+003,-8.129883e-001
1.479041e+003,-2.119675e+000
1.480006e+003,-4.373215e+000
1.480970e+003,-4.890808e+000
1.481934e+003,-3.258430e+000
1.482898e+003,-1.799538e+000
1.483863e+003,-2.661972e-001
1.484827e+003,7.355957e-001
1.485791e+003,1.047234e+000
1.486755e+003,8.522644e-001
1.487719e+003,-1.772079e-001
1.488684e+003,-1.563705e+000
1.489648e+003,-1.894310e+000
1.490612e+003,-7.418137e-001
1.491576e+003,2.621994e-001
1.492541e+003,-4.480057e-001
1.493505e+003,-1.838837e+000
1.494469e+003,-1.374779e+000
1.495433e+003,5.316849e-001
1.496398e+003,1.674034e+000
1.497362e+003,1.596581e+000
1.498326e+003,1.701035e+000
1.499290e+003,3.182518e+000
1.500255e+003,4.898155e+000
1.501219e+003,4.812294e+000
1.502183e+003,3.350220e+000
1.503147e+003,3.451248e+000
1.504111e+003,6.068588e+000
1.505076e+003,8.618225e+000
1.506040e+003,9.177269e+000
1.507004e+003,9.499023e+000
1.507968e+003,1.165289e+001
1.508933e+003,1.479510e+001
1.509897e+003,1.703265e+001
1.510861e+003,1.814139e+001
1.511825e+003,1.964140e+001
1.512790e+003,2.269957e+001
1.513754e+003,2.639499e+001
1.514718e+003,2.887714e+001
1.515682e+003,3.011121e+001
1.516646e+003,3.215711e+001
1.517611e+003,3.586681e+001
1.518575e+003,3.888195e+001
1.519539e+003,4.012238e+001
1.520503e+003,4.094048e+001
1.521468e+003,4.238104e+001
1.522432e+003,4.358981e+001
1.523396e+003,4.316359e+001
1.524360e+003,4.111766e+001
1.525325e+003,3.856474e+001
1.526289e+003,3.626766e+001
1.527253e+003,3.446128e+001
1.528217e+003,3.368102e+001
1.529182e+003,3.399177e+001
1.530146e+003,3.313120e+001
1.531110e+003,3.033041e+001
1.532074e+003,2.769031e+001
1.533039e+003,2.599937e+001
1.534003e+003,2.350330e+001
1.534967e+003,1.862627e+001
1.535931e+003,1.330386e+001
1.536896e+003,9.662247e+000
1.537860e+003,7.797920e+000
1.538824e+003,6.786835e+000
1.539788e+003,6.045479e+000
1.540752e+003,5.049301e+000
1.541717e+003,3.033768e+000
1.542681e+003,4.093628e-001
1.543645e+003,-3.663635e-001
1.544609e+003,1.845039e+000
1.545573e+003,3.188278e+000
1.546538e+003,2.729469e+000
1.547502e+003,2.496315e+000
1.548466e+003,3.506218e+000
1.549430e+003,5.002525e+000
1.550395e+003,6.373894e+000
1.551359e+003,7.412743e+000
1.552323e+003,7.955971e+000
1.553287e+003,7.955750e+000
1.554252e+003,7.330353e+000
1.555216e+003,5.808594e+000
1.556180e+003,4.142914e+000
1.557144e+003,4.503304e+000
1.558109e+003,6.985008e+000
1.559073e+003,7.320023e+000
1.560037e+003,4.013504e+000
1.561001e+003,1.363777e+000
1.561966e+003,1.410385e+000
1.562930e+003,2.255386e+000
1.563894e+003,2.136879e+000
1.564858e+003,1.338089e+000
1.565823e+003,6.935577e-001
1.566787e+003,3.899155e-001
1.567751e+003,5.965118e-001
1.568715e+003,1.598724e+000
1.569679e+003,2.659760e+000
1.570644e+003,2.760475e+000
1.571608e+003,2.138512e+000
1.572572e+003,1.417091e+000
1.573536e+003,6.280060e-001
1.574500e+003,7.868881e-001
1.575465e+003,2.685951e+000
1.576429e+003,4.855148e+000
1.577393e+003,6.285446e+000
1.578357e+003,7.033997e+000
1.579322e+003,7.119263e+000
1.580286e+003,6.615036e+000
1.581250e+003,5.987419e+000
1.582214e+003,5.203972e+000
1.583179e+003,4.999870e+000
1.584143e+003,6.468071e+000
1.585107e+003,8.254990e+000
1.586071e+003,8.432129e+000
1.587036e+003,7.550911e+000
1.588000e+003,7.210587e+000
1.588964e+003,7.748146e+000
1.589928e+003,8.158333e+000
1.590893e+003,7.753265e+000
1.591857e+003,6.898003e+000
1.592821e+003,5.826294e+000
1.593785e+003,4.730423e+000
1.594750e+003,4.888626e+000
1.595714e+003,6.685814e+000
1.596678e+003,8.016953e+000
1.597642e+003,7.636330e+000
1.598606e+003,7.156555e+000
1.599571e+003,8.160446e+000
1.600535e+003,9.699074e+000
1.601499e+003,1.051403e+001
1.602463e+003,1.059942e+001
1.603427e+003,1.064406e+001
1.604392e+003,1.094836e+001
1.605356e+003,1.115666e+001
1.606320e+003,1.052476e+001
1.607284e+003,9.644783e+000
1.608249e+003,1.062769e+001
1.609213e+003,1.356990e+001
1.610177e+003,1.513570e+001
1.611141e+003,1.433547e+001
1.612106e+003,1.324285e+001
1.613070e+003,1.266976e+001
1.614034e+003,1.232336e+001
1.614998e+003,1.195763e+001
1.615963e+003,1.169894e+001
1.616927e+003,1.190977e+001
1.617891e+003,1.252791e+001
1.618855e+003,1.282478e+001
1.619820e+003,1.228468e+001
1.620784e+003,1.147573e+001
1.621748e+003,1.132186e+001
1.622712e+003,1.179961e+001
1.623677e+003,1.228167e+001
1.624641e+003,1.277337e+001
1.625605e+003,1.323933e+001
1.626569e+003,1.342271e+001
1.627533e+003,1.369567e+001
1.628498e+003,1.485037e+001
1.629462e+003,1.577985e+001
1.630426e+003,1.515472e+001
1.631390e+003,1.361414e+001
1.632354e+003,1.256191e+001
1.633319e+003,1.237424e+001
1.634283e+003,1.279708e+001
1.635247e+003,1.373924e+001
1.636211e+003,1.484309e+001
1.637176e+003,1.556557e+001
1.638140e+003,1.593125e+001
1.639104e+003,1.590055e+001
1.640068e+003,1.537856e+001
1.641033e+003,1.467743e+001
1.641997e+003,1.350932e+001
1.642961e+003,1.276606e+001
1.643925e+003,1.320591e+001
1.644890e+003,1.396490e+001
1.645854e+003,1.416327e+001
1.646818e+003,1.392268e+001
1.647782e+003,1.375036e+001
1.648747e+003,1.381434e+001
1.649711e+003,1.408086e+001
1.650675e+003,1.461050e+001
1.651639e+003,1.524599e+001
1.652604e+003,1.570875e+001
1.653568e+003,1.595100e+001
1.654532e+003,1.528926e+001
1.655496e+003,1.327009e+001
1.656460e+003,1.185476e+001
1.657425e+003,1.177592e+001
1.658389e+003,1.226127e+001
1.659353e+003,1.360333e+001
1.660317e+003,1.471092e+001
1.661281e+003,1.397703e+001
1.662246e+003,1.197758e+001
1.663210e+003,1.060573e+001
1.664174e+003,1.051359e+001
1.665138e+003,1.124729e+001
1.666103e+003,1.280199e+001
1.667067e+003,1.423777e+001
1.668031e+003,1.318501e+001
1.668995e+003,9.911980e+000
1.669960e+003,8.257164e+000
1.670924e+003,8.881859e+000
1.671888e+003,9.532082e+000
1.672852e+003,9.325539e+000
1.673817e+003,9.212372e+000
1.674781e+003,1.022878e+001
1.675745e+003,1.132240e+001
1.676709e+003,1.128645e+001
1.677674e+003,1.028006e+001
1.678638e+003,8.931290e+000
1.679602e+003,7.455078e+000
1.680566e+003,6.358673e+000
1.681531e+003,6.029846e+000
1.682495e+003,6.392220e+000
1.683459e+003,7.667564e+000
1.684423e+003,9.551575e+000
1.685387e+003,1.017027e+001
1.686352e+003,9.244492e+000
1.687316e+003,8.101578e+000
1.688280e+003,6.946045e+000
1.689244e+003,6.065987e+000
1.690208e+003,5.670525e+000
1.691173e+003,5.657402e+000
1.692137e+003,6.104904e+000
1.693101e+003,6.908394e+000
1.694065e+003,7.785469e+000
1.695030e+003,8.645592e+000
1.695994e+003,8.818420e+000
1.696958e+003,7.517754e+000
1.697922e+003,5.835640e+000
1.698887e+003,5.103096e+000
1.699851e+003,5.116959e+000
1.700815e+003,5.224678e+000
1.701779e+003,5.346092e+000
1.702744e+003,5.771187e+000
1.703708e+003,6.799683e+000
1.704672e+003,7.545013e+000
1.705636e+003,7.126678e+000
1.706601e+003,6.151909e+000
1.707565e+003,5.862511e+000
1.708529e+003,5.901253e+000
1.709493e+003,4.619270e+000
1.710458e+003,1.562744e+000
1.711422e+003,-3.472900e-001
1.712386e+003,1.082436e+000
1.713350e+003,2.953514e+000
1.714314e+003,2.795250e+000
1.715279e+003,1.563797e+000
1.716243e+003,5.423279e-001
1.717207e+003,2.184296e-002
1.718171e+003,1.010521e+000
1.719135e+003,3.791206e+000
1.720100e+003,5.427696e+000
1.721064e+003,3.541267e+000
1.722028e+003,7.303696e-001
1.722992e+003,1.162582e+000
1.723957e+003,4.037323e+000
1.724921e+003,4.126328e+000
1.725885e+003,7.208252e-001
1.726849e+003,-1.299309e+000
1.727814e+003,-5.954361e-001
1.728778e+003,9.973907e-001
1.729742e+003,4.210686e+000
1.730706e+003,6.568336e+000
1.731671e+003,4.329597e+000
1.732635e+003,-2.638092e-001
1.733599e+003,-1.999619e+000
1.734563e+003,-2.529526e-001
1.735528e+003,1.604874e+000
1.736492e+003,1.768219e+000
1.737456e+003,1.400032e+000
1.738420e+003,1.905106e+000
1.739385e+003,2.874634e+000
1.740349e+003,2.891418e+000
1.741313e+003,1.670921e+000
1.742277e+003,1.140991e+000
1.743241e+003,2.129425e+000
1.744206e+003,2.552353e+000
1.745170e+003,1.704178e+000
1.746134e+003,6.926727e-001
1.747098e+003,-2.348251e-001
1.748063e+003,-7.357483e-001
1.749027e+003,4.013062e-003
1.749991e+003,1.397713e+000
1.750955e+003,1.805374e+000
1.751919e+003,7.732849e-001
1.752884e+003,-6.203308e-001
1.753848e+003,-1.499268e+000
1.754812e+003,-1.734032e+000
1.755776e+003,-8.683243e-001
1.756741e+003,1.078690e+000
1.757705e+003,1.972885e+000
1.758669e+003,1.332550e+000
1.759633e+003,9.449234e-001
1.760598e+003,1.484108e+000
1.761562e+003,1.477974e+000
1.762526e+003,-2.469635e-002
1.763490e+003,-1.581291e+000
1.764455e+003,-2.203453e+000
1.765419e+003,-2.176643e+000
1.766383e+003,-2.105476e+000
1.767347e+003,-2.053848e+000
1.768312e+003,-1.527451e+000
1.769276e+003,-2.871094e-001
1.770240e+003,6.812973e-001
1.771204e+003,1.982956e-001
1.772168e+003,-9.829788e-001
1.773133e+003,-1.218269e+000
1.774097e+003,-5.926361e-001
1.775061e+003,1.167755e-001
1.776025e+003,8.250046e-001
1.776990e+003,1.386024e+000
1.777954e+003,1.976059e+000
1.778918e+003,2.047279e+000
1.779882e+003,4.161835e-001
1.780846e+003,-1.411629e+000
1.781811e+003,-9.738388e-001
1.782775e+003,1.006088e+000
1.783739e+003,2.101883e+000
1.784703e+003,1.962761e+000
1.785668e+003,1.310890e+000
1.786632e+003,-1.055679e-001
1.787596e+003,-1.330673e+000
1.788560e+003,-1.454353e+000
1.789525e+003,-9.910049e-001
1.790489e+003,-7.591705e-001
1.791453e+003,-6.667862e-001
1.792417e+003,-1.586151e-002
1.793382e+003,1.248985e+000
1.794346e+003,2.145386e+000
1.795310e+003,2.133850e+000
1.796274e+003,1.747986e+000
1.797239e+003,1.622597e+000
1.798203e+003,1.678238e+000
1.799167e+003,1.409431e+000
1.800131e+003,5.535126e-001
1.801095e+003,4.723969e-001
1.802060e+003,1.648499e+000
1.803024e+003,2.931175e+000
1.803988e+003,4.779694e+000
1.804952e+003,5.946152e+000
1.805917e+003,5.661850e+000
1.806881e+003,4.562286e+000
1.807845e+003,2.706963e+000
1.808809e+003,8.399277e-001
1.809773e+003,3.788986e-001
1.810738e+003,1.362541e+000
1.811702e+003,2.180923e+000
1.812666e+003,1.832794e+000
1.813630e+003,1.197540e+000
1.814595e+003,1.489853e+000
1.815559e+003,2.430115e+000
1.816523e+003,2.980484e+000
1.817487e+003,3.152351e+000
1.818452e+003,2.839325e+000
1.819416e+003,1.768242e+000
1.820380e+003,1.147415e+000
1.821344e+003,1.544853e+000
1.822309e+003,2.024796e+000
1.823273e+003,2.177032e+000
1.824237e+003,2.101830e+000
1.825201e+003,1.852043e+000
1.826166e+003,1.418304e+000
1.827130e+003,5.887680e-001
1.828094e+003,-6.502304e-001
1.829058e+003,-1.194809e+000
1.830022e+003,-2.786789e-001
1.830987e+003,1.040588e+000
1.831951e+003,1.950500e+000
1.832915e+003,2.687012e+000
1.833879e+003,3.915367e+000
1.834844e+003,5.219612e+000
1.835808e+003,4.975296e+000
1.836772e+003,3.173668e+000
1.837736e+003,2.047127e+000
1.838700e+003,2.553452e+000
1.839665e+003,3.759140e+000
1.840629e+003,5.015686e+000
1.841593e+003,5.926102e+000
1.842557e+003,5.502045e+000
1.843522e+003,3.764908e+000
1.844486e+003,2.489754e+000
1.845450e+003,1.701614e+000
1.846414e+003,1.491112e+000
1.847379e+003,2.283905e+000
1.848343e+003,2.908379e+000
1.849307e+003,2.962234e+000
1.850271e+003,2.852501e+000
1.851236e+003,2.718369e+000
1.852200e+003,2.761627e+000
1.853164e+003,3.475616e+000
1.854128e+003,4.475410e+000
1.855093e+003,4.470741e+000
1.856057e+003,3.157249e+000
1.857021e+003,2.017075e+000
1.857985e+003,2.271667e+000
1.858949e+003,3.299362e+000
1.859914e+003,4.388298e+000
1.860878e+003,5.368332e+000
1.861842e+003,4.819916e+000
1.862806e+003,2.663177e+000
1.863771e+003,1.981430e+000
1.864735e+003,3.738098e+000
1.865699e+003,4.677193e+000
1.866663e+003,2.902306e+000
1.867627e+003,8.872223e-001
1.868592e+003,7.171249e-001
1.869556e+003,1.729332e+000
1.870520e+003,3.150917e+000
1.871484e+003,4.773552e+000
1.872449e+003,5.032387e+000
1.873413e+003,3.416672e+000
1.874377e+003,2.379959e+000
1.875341e+003,2.718605e+000
1.876306e+003,3.434715e+000
1.877270e+003,4.480904e+000
1.878234e+003,5.187637e+000
1.879198e+003,4.639046e+000
1.880163e+003,3.410408e+000
1.881127e+003,2.416107e+000
1.882091e+003,1.922897e+000
1.883055e+003,2.126526e+000
1.884020e+003,3.006638e+000
1.884984e+003,3.794617e+000
1.885948e+003,3.777847e+000
1.886912e+003,3.490227e+000
1.887876e+003,4.173470e+000
1.888841e+003,5.651382e+000
1.889805e+003,5.442139e+000
1.890769e+003,3.098526e+000
1.891733e+003,1.456970e+000
1.892698e+003,7.508011e-001
1.893662e+003,7.628479e-001
1.894626e+003,1.844666e+000
1.895590e+003,3.115898e+000
1.896554e+003,4.363091e+000
1.897519e+003,5.237877e+000
1.898483e+003,4.894676e+000
1.899447e+003,3.735016e+000
1.900411e+003,3.425255e+000
1.901376e+003,4.320297e+000
1.902340e+003,4.771500e+000
1.903304e+003,3.597656e+000
1.904268e+003,2.701096e+000
1.905233e+003,3.315315e+000
1.906197e+003,4.723389e+000
1.907161e+003,7.030144e+000
1.908125e+003,9.174141e+000
1.909090e+003,8.898384e+000
1.910054e+003,6.600769e+000
1.911018e+003,4.723244e+000
1.911982e+003,4.139236e+000
1.912947e+003,4.009323e+000
1.913911e+003,3.697144e+000
1.914875e+003,3.786613e+000
1.915839e+003,5.347046e+000
1.916803e+003,7.784370e+000
1.917768e+003,7.982735e+000
1.918732e+003,5.445450e+000
1.919696e+003,4.187477e+000
1.920660e+003,4.667023e+000
1.921625e+003,5.392120e+000
1.922589e+003,6.200714e+000
1.923553e+003,6.886078e+000
1.924517e+003,7.697922e+000
1.925481e+003,8.017517e+000
1.926446e+003,6.610146e+000
1.927410e+003,4.581924e+000
1.928374e+003,4.226311e+000
1.929338e+003,5.566986e+000
1.930303e+003,6.834991e+000
1.931267e+003,7.712189e+000
1.932231e+003,8.343910e+000
1.933195e+003,8.826752e+000
1.934160e+003,8.952385e+000
1.935124e+003,8.169083e+000
1.936088e+003,7.238388e+000
1.937052e+003,7.462921e+000
1.938017e+003,8.240410e+000
1.938981e+003,7.843170e+000
1.939945e+003,6.269524e+000
1.940909e+003,5.047981e+000
1.941874e+003,4.883873e+000
1.942838e+003,5.368988e+000
1.943802e+003,6.199638e+000
1.944766e+003,7.138161e+000
1.945730e+003,7.618759e+000
1.946695e+003,7.650429e+000
1.947659e+003,7.437195e+000
1.948623e+003,6.888771e+000
1.949587e+003,7.160004e+000
1.950552e+003,8.779663e+000
1.951516e+003,9.600494e+000
1.952480e+003,8.603233e+000
1.953444e+003,7.273315e+000
1.954408e+003,6.271042e+000
1.955373e+003,5.815804e+000
1.956337e+003,6.777512e+000
1.957301e+003,8.617500e+000
1.958265e+003,9.056267e+000
1.959230e+003,7.807213e+000
1.960194e+003,7.266449e+000
1.961158e+003,8.372078e+000
1.962122e+003,9.119652e+000
1.963087e+003,8.916496e+000
1.964051e+003,8.350266e+000
1.965015e+003,7.108711e+000
1.965979e+003,6.322426e+000
1.966944e+003,7.846939e+000
1.967908e+003,1.023219e+001
1.968872e+003,1.039669e+001
1.969836e+003,8.494743e+000
1.970801e+003,7.616760e+000
1.971765e+003,9.005501e+000
1.972729e+003,1.039757e+001
1.973693e+003,9.667114e+000
1.974657e+003,8.518311e+000
1.975622e+003,1.002696e+001
1.976586e+003,1.291218e+001
1.977550e+003,1.358820e+001
1.978514e+003,1.236491e+001
1.979479e+003,1.126127e+001
1.980443e+003,1.060077e+001
1.981407e+003,1.042559e+001
1.982371e+003,1.079222e+001
1.983335e+003,1.124635e+001
1.984300e+003,1.143649e+001
1.985264e+003,1.142242e+001
1.986228e+003,1.133473e+001
1.987192e+003,1.113748e+001
1.988157e+003,1.060445e+001
1.989121e+003,9.567169e+000
1.990085e+003,9.211250e+000
1.991049e+003,1.016714e+001
1.992014e+003,1.058089e+001
1.992978e+003,9.779251e+000
1.993942e+003,8.974297e+000
1.994906e+003,8.234573e+000
1.995871e+003,7.987617e+000
1.996835e+003,9.002472e+000
1.997799e+003,1.046964e+001
1.998763e+003,1.115354e+001
1.999728e+003,1.111180e+001
