5.003444e+002,3.807448e+001
5.013087e+002,3.672691e+001
5.022729e+002,3.476076e+001
5.032371e+002,3.288434e+001
5.042014e+002,3.312378e+001
5.051656e+002,3.512990e+001
5.061298e+002,3.695407e+001
5.070941e+002,3.670538e+001
5.080583e+002,3.370959e+001
5.090225e+002,3.214841e+001
5.099868e+002,3.289354e+001
5.109510e+002,3.366167e+001
5.119152e+002,3.304504e+001
5.128795e+002,3.087570e+001
5.138437e+002,2.941257e+001
5.148079e+002,2.982568e+001
5.157722e+002,3.076556e+001
5.167364e+002,3.226254e+001
5.177006e+002,3.389682e+001
5.186649e+002,3.462285e+001
5.196291e+002,3.233221e+001
5.205933e+002,2.912485e+001
5.215576e+002,2.721968e+001
5.225218e+002,2.675827e+001
5.234860e+002,2.701677e+001
5.244503e+002,2.679207e+001
5.254145e+002,2.599924e+001
5.263787e+002,2.572116e+001
5.273430e+002,2.647133e+001
5.283072e+002,2.739336e+001
5.292714e+002,2.707170e+001
5.302357e+002,2.422672e+001
5.311999e+002,2.266324e+001
5.321641e+002,2.390430e+001
5.331284e+002,2.577499e+001
5.340926e+002,2.652429e+001
5.350568e+002,2.541588e+001
5.360211e+002,2.372838e+001
5.369853e+002,2.247525e+001
5.379495e+002,2.156885e+001
5.389138e+002,2.097899e+001
5.398780e+002,2.065059e+001
5.408422e+002,2.051807e+001
5.418065e+002,2.053822e+001
5.427707e+002,2.066994e+001
5.437349e+002,2.052631e+001
5.446992e+002,1.987126e+001
5.456634e+002,1.892503e+001
5.466276e+002,1.851254e+001
5.475919e+002,1.960803e+001
5.485561e+002,2.010201e+001
5.495203e+002,1.939760e+001
5.504846e+002,1.814456e+001
5.514488e+002,1.733411e+001
5.524130e+002,1.751306e+001
5.533773e+002,1.787286e+001
5.543415e+002,1.829173e+001
5.553057e+002,1.848979e+001
5.562700e+002,1.799187e+001
5.572342e+002,1.650598e+001
5.581984e+002,1.464854e+001
5.591627e+002,1.409035e+001
5.601269e+002,1.442151e+001
5.610911e+002,1.473119e+001
5.620554e+002,1.450775e+001
5.630196e+002,1.382541e+001
5.639838e+002,1.370821e+001
5.649481e+002,1.529344e+001
5.659123e+002,1.582188e+001
5.668765e+002,1.403099e+001
5.678408e+002,1.093332e+001
5.688050e+002,9.396271e+000
5.697692e+002,1.166757e+001
5.707335e+002,1.310667e+001
5.716977e+002,1.184348e+001
5.726619e+002,9.196442e+000
5.736262e+002,6.891266e+000
5.745904e+002,6.064804e+000
5.755546e+002,6.253326e+000
5.765189e+002,6.730423e+000
5.774831e+002,7.294952e+000
5.784473e+002,7.722473e+000
5.794116e+002,7.896347e+000
5.803758e+002,7.887466e+000
5.813400e+002,7.779373e+000
5.823043e+002,7.384720e+000
5.832685e+002,7.039215e+000
5.842327e+002,6.875076e+000
5.851970e+002,6.961182e+000
5.861612e+002,7.377106e+000
5.871254e+002,8.605225e+000
5.880897e+002,9.518997e+000
5.890539e+002,9.902588e+000
5.900181e+002,9.776581e+000
5.909824e+002,9.261063e+000
5.919466e+002,8.464935e+000
5.929108e+002,7.227051e+000
5.938751e+002,4.804047e+000
5.948393e+002,2.076080e+000
5.958035e+002,6.425629e-001
5.967678e+002,1.644516e+000
5.977320e+002,4.613525e+000
5.986962e+002,5.379227e+000
5.996605e+002,3.847641e+000
6.006247e+002,2.512726e+000
6.015889e+002,2.789688e+000
6.025532e+002,4.533279e+000
6.035174e+002,5.403717e+000
6.044816e+002,4.175735e+000
6.054459e+002,3.377731e+000
6.064101e+002,3.676498e+000
6.073743e+002,4.590134e+000
6.083386e+002,5.156647e+000
6.093028e+002,4.693405e+000
6.102670e+002,4.237045e+000
6.112313e+002,4.369888e+000
6.121955e+002,5.026749e+000
6.131597e+002,6.407394e+000
6.141240e+002,8.598602e+000
6.150882e+002,1.103745e+001
6.160524e+002,1.102068e+001
6.170167e+002,9.042389e+000
6.179809e+002,6.827164e+000
6.189451e+002,4.873505e+000
6.199094e+002,3.218338e+000
6.208736e+002,2.473618e+000
6.218378e+002,4.026825e+000
6.228021e+002,5.126114e+000
6.237663e+002,5.270081e+000
6.247305e+002,4.915970e+000
6.256948e+002,4.841949e+000
6.266590e+002,5.461197e+000
6.276232e+002,5.875488e+000
6.285875e+002,5.795197e+000
6.295517e+002,5.303299e+000
6.305159e+002,4.155884e+000
6.314802e+002,2.284042e+000
6.324444e+002,3.062592e-001
6.334086e+002,6.989288e-001
6.343729e+002,2.680923e+000
6.353371e+002,3.883865e+000
6.363013e+002,3.328339e+000
6.372656e+002,1.547485e+000
6.382298e+002,5.265503e-001
6.391940e+002,1.121872e+000
6.401583e+002,1.361374e+000
6.411225e+002,1.033707e+000
6.420867e+002,6.052094e-001
6.430510e+002,7.402039e-001
6.440152e+002,1.876083e+000
6.449794e+002,2.306458e+000
6.459437e+002,4.052124e-001
6.469079e+002,-1.885925e+000
6.478721e+002,-2.867432e+000
6.488364e+002,-2.036789e+000
6.498006e+002,-5.512848e-001
6.507648e+002,-6.485596e-001
6.517291e+002,-1.733902e+000
6.526933e+002,-2.288940e+000
6.536575e+002,-2.021774e+000
6.546218e+002,-1.275101e+000
6.555860e+002,-6.877747e-001
6.565502e+002,-2.995758e-001
6.575145e+002,-6.686401e-002
6.584787e+002,3.115845e-002
6.594429e+002,-2.380371e-003
6.604072e+002,-1.072388e-001
6.613714e+002,-2.486420e-001
6.623356e+002,-7.353821e-001
6.632999e+002,-2.977905e+000
6.642641e+002,-4.639786e+000
6.652283e+002,-4.011185e+000
6.661926e+002,-1.261932e+000
6.671568e+002,2.154129e+000
6.681210e+002,4.814758e+000
6.690853e+002,6.349014e+000
6.700495e+002,6.109848e+000
6.710137e+002,4.205139e+000
6.719780e+002,1.968201e+000
6.729422e+002,8.375702e-001
6.739064e+002,1.139587e+000
6.748707e+002,4.232025e-001
6.758349e+002,-2.893478e+000
6.767991e+002,-5.186035e+000
6.777634e+002,-4.143951e+000
6.787276e+002,-2.182922e-001
6.796918e+002,2.839233e+000
6.806561e+002,3.222122e+000
6.816203e+002,2.657913e+000
6.825845e+002,9.707642e-001
6.835488e+002,-1.002701e+000
6.845130e+002,-2.008148e+000
6.854772e+002,-1.019791e+000
6.864415e+002,1.097565e+000
6.874057e+002,2.484924e+000
6.883699e+002,3.150284e+000
6.893342e+002,3.041855e+000
6.902984e+002,2.075867e+000
6.912626e+002,4.710083e-001
6.922269e+002,-4.359741e-001
6.931911e+002,-9.445190e-003
6.941553e+002,5.040894e-001
6.951196e+002,1.119095e+000
6.960838e+002,1.602615e+000
6.970480e+002,1.577576e+000
6.980123e+002,7.692871e-001
6.989765e+002,5.755615e-002
6.999407e+002,-2.231140e-001
7.009050e+002,-2.957916e-001
7.018692e+002,-3.663025e-001
7.028334e+002,-4.959564e-001
7.037977e+002,-5.220184e-001
7.047619e+002,-7.858276e-003
7.057261e+002,8.504639e-001
7.066904e+002,1.626648e+000
7.076546e+002,2.241806e+000
7.086188e+002,2.496262e+000
7.095831e+002,1.959351e+000
7.105473e+002,-8.367920e-002
7.115115e+002,-6.180573e-001
7.124758e+002,1.564072e+000
7.134400e+002,3.686005e+000
7.144042e+002,4.027054e+000
7.153685e+002,2.572906e+000
7.163327e+002,9.814758e-001
7.172969e+002,-9.862976e-001
7.182612e+002,-1.925842e+000
7.192254e+002,-1.610870e-001
7.201896e+002,3.031891e+000
7.211539e+002,5.113251e+000
7.221181e+002,3.865738e+000
7.230823e+002,5.501404e-001
7.240466e+002,-1.578644e+000
7.250108e+002,-2.605042e+000
7.259750e+002,-2.619751e+000
7.269393e+002,-1.585220e+000
7.279035e+002,2.189026e-001
7.288677e+002,1.117096e+000
7.298320e+002,1.633911e-001
7.307962e+002,-2.178192e-001
7.317604e+002,3.416290e-001
7.327247e+002,1.496140e+000
7.336889e+002,2.906189e+000
7.346531e+002,4.666473e+000
7.356174e+002,5.495438e+000
7.365816e+002,4.383926e+000
7.375458e+002,2.754486e+000
7.385101e+002,1.468781e+000
7.394743e+002,8.614197e-001
7.404385e+002,8.574066e-001
7.414028e+002,1.485992e+000
7.423670e+002,2.446289e+000
7.433312e+002,3.051697e+000
7.442955e+002,3.371552e+000
7.452597e+002,3.540298e+000
7.462239e+002,3.618271e+000
7.471882e+002,3.523117e+000
7.481524e+002,3.533203e+000
7.491166e+002,3.350189e+000
7.500809e+002,3.352249e+000
7.510451e+002,4.067169e+000
7.520093e+002,5.160065e+000
7.529736e+002,5.436462e+000
7.539378e+002,3.864731e+000
7.549020e+002,2.266357e+000
7.558663e+002,1.667130e+000
7.568306e+002,1.786316e+000
7.577948e+002,2.349670e+000
7.587590e+002,3.117706e+000
7.597233e+002,3.816910e+000
7.606875e+002,3.673737e+000
7.616517e+002,2.848465e+000
7.626160e+002,1.910767e+000
7.635802e+002,9.134521e-001
7.645444e+002,1.770020e-003
7.655087e+002,-5.300140e-001
7.664729e+002,-6.198425e-001
7.674371e+002,-4.470367e-001
7.684014e+002,-6.445313e-002
7.693656e+002,5.204315e-001
7.703298e+002,1.388062e+000
7.712941e+002,2.521576e+000
7.722583e+002,3.709305e+000
7.732225e+002,4.980423e+000
7.741868e+002,6.033386e+000
7.751510e+002,6.442062e+000
7.761152e+002,6.429611e+000
7.770795e+002,6.587448e+000
7.780437e+002,7.434372e+000
7.790079e+002,8.784592e+000
7.799722e+002,9.179001e+000
7.809364e+002,8.711273e+000
7.819006e+002,7.718246e+000
7.828649e+002,5.761871e+000
7.838291e+002,3.423630e+000
7.847933e+002,2.673355e+000
7.857576e+002,4.855316e+000
7.867218e+002,6.235992e+000
7.876860e+002,5.659760e+000
7.886503e+002,4.645187e+000
7.896145e+002,4.504791e+000
7.905787e+002,5.557526e+000
7.915430e+002,6.874573e+000
7.925072e+002,7.340622e+000
7.934714e+002,7.464371e+000
7.944357e+002,7.948685e+000
7.953999e+002,8.839172e+000
7.963641e+002,9.812241e+000
7.973284e+002,1.049265e+001
7.982926e+002,1.088678e+001
7.992568e+002,1.067886e+001
8.002211e+002,9.489929e+000
8.011853e+002,8.187042e+000
8.021495e+002,7.180069e+000
8.031138e+002,6.524124e+000
8.040780e+002,6.007690e+000
8.050422e+002,5.319214e+000
8.060065e+002,5.047836e+000
8.069707e+002,5.456100e+000
8.079349e+002,6.157913e+000
8.088992e+002,6.846725e+000
8.098634e+002,7.431641e+000
8.108276e+002,8.055649e+000
8.117919e+002,9.138824e+000
8.127561e+002,1.008292e+001
8.137203e+002,9.633698e+000
8.146846e+002,7.774658e+000
8.156488e+002,5.890152e+000
8.166130e+002,5.726257e+000
8.175773e+002,7.724014e+000
8.185415e+002,8.622116e+000
8.195057e+002,7.225739e+000
8.204700e+002,6.259476e+000
8.214342e+002,7.352844e+000
8.223984e+002,9.568100e+000
8.233627e+002,1.019456e+001
8.243269e+002,7.464165e+000
8.252911e+002,4.782196e+000
8.262554e+002,3.824150e+000
8.272196e+002,4.034866e+000
8.281838e+002,5.175972e+000
8.291481e+002,6.954880e+000
8.301123e+002,8.812325e+000
8.310765e+002,9.725830e+000
8.320408e+002,9.691887e+000
8.330050e+002,9.649796e+000
8.339692e+002,9.722511e+000
8.349335e+002,9.610565e+000
8.358977e+002,8.950645e+000
8.368619e+002,7.684250e+000
8.378262e+002,6.618645e+000
8.387904e+002,5.516251e+000
8.397546e+002,4.798470e+000
8.407189e+002,4.672699e+000
8.416831e+002,4.997444e+000
8.426473e+002,5.642136e+000
8.436116e+002,6.680779e+000
8.445758e+002,7.511063e+000
8.455400e+002,7.096031e+000
8.465043e+002,6.170166e+000
8.474685e+002,5.487724e+000
8.484327e+002,5.402039e+000
8.493970e+002,6.096642e+000
8.503612e+002,7.861450e+000
8.513254e+002,1.098649e+001
8.522897e+002,1.252789e+001
8.532539e+002,1.158921e+001
8.542181e+002,1.035645e+001
8.551824e+002,1.020170e+001
8.561466e+002,1.107732e+001
8.571108e+002,1.193967e+001
8.580751e+002,1.236195e+001
8.590393e+002,1.263474e+001
8.600035e+002,1.296962e+001
8.609678e+002,1.329317e+001
8.619320e+002,1.341219e+001
8.628962e+002,1.326736e+001
8.638605e+002,1.314948e+001
8.648247e+002,1.356736e+001
8.657889e+002,1.433258e+001
8.667532e+002,1.521703e+001
8.677174e+002,1.618465e+001
8.686816e+002,1.682214e+001
8.696459e+002,1.647659e+001
8.706101e+002,1.485416e+001
8.715743e+002,1.487946e+001
8.725386e+002,1.849377e+001
8.735028e+002,2.115747e+001
8.744670e+002,2.097556e+001
8.754313e+002,1.914008e+001
8.763955e+002,1.803918e+001
8.773597e+002,1.858678e+001
8.783240e+002,1.959345e+001
8.792882e+002,2.001343e+001
8.802524e+002,2.046766e+001
8.812167e+002,2.201781e+001
8.821809e+002,2.449575e+001
8.831451e+002,2.633659e+001
8.841094e+002,2.537185e+001
8.850736e+002,2.186246e+001
8.860378e+002,2.080727e+001
8.870021e+002,2.252008e+001
8.879663e+002,2.485680e+001
8.889305e+002,2.711024e+001
8.898948e+002,2.909553e+001
8.908590e+002,2.986160e+001
8.918232e+002,2.850509e+001
8.927875e+002,2.739091e+001
8.937517e+002,2.694304e+001
8.947159e+002,2.696236e+001
8.956802e+002,2.737599e+001
8.966444e+002,2.803536e+001
8.976086e+002,2.856870e+001
8.985729e+002,2.855341e+001
8.995371e+002,2.840759e+001
9.005013e+002,2.881118e+001
9.014656e+002,2.971352e+001
9.024298e+002,3.062132e+001
9.033940e+002,3.109920e+001
9.043583e+002,3.115876e+001
9.053225e+002,3.142181e+001
9.062867e+002,3.205338e+001
9.072510e+002,3.256627e+001
9.082152e+002,3.320420e+001
9.091794e+002,3.373048e+001
9.101437e+002,3.360062e+001
9.111079e+002,3.270401e+001
9.120721e+002,3.247630e+001
9.130364e+002,3.492523e+001
9.140006e+002,3.713740e+001
9.149648e+002,3.725514e+001
9.159291e+002,3.587988e+001
9.168933e+002,3.429182e+001
9.178575e+002,3.337238e+001
9.188218e+002,3.310371e+001
9.197860e+002,3.399100e+001
9.207502e+002,3.609552e+001
9.217145e+002,3.654050e+001
9.226787e+002,3.389381e+001
9.236429e+002,3.039167e+001
9.246072e+002,2.915926e+001
9.255714e+002,3.064822e+001
9.265356e+002,3.165950e+001
9.274999e+002,3.141201e+001
9.284641e+002,3.082217e+001
9.294283e+002,3.000639e+001
9.303926e+002,2.917348e+001
9.313568e+002,2.843763e+001
9.323210e+002,2.781812e+001
9.332853e+002,2.764233e+001
9.342495e+002,2.977985e+001
9.352137e+002,3.241676e+001
9.361780e+002,3.204933e+001
9.371422e+002,2.804807e+001
9.381064e+002,2.313480e+001
9.390707e+002,2.088074e+001
9.400349e+002,2.154079e+001
9.409991e+002,2.260403e+001
9.419634e+002,2.512637e+001
9.429276e+002,2.662998e+001
9.438918e+002,2.592519e+001
9.448561e+002,2.400033e+001
9.458203e+002,2.251547e+001
9.467845e+002,2.198838e+001
9.477488e+002,2.169203e+001
9.487130e+002,2.070918e+001
9.496772e+002,1.994452e+001
9.506415e+002,2.052209e+001
9.516057e+002,2.218954e+001
9.525699e+002,2.357151e+001
9.535342e+002,2.329015e+001
9.544984e+002,2.162083e+001
9.554626e+002,2.139453e+001
9.564269e+002,2.307829e+001
9.573911e+002,2.423340e+001
9.583553e+002,2.401937e+001
9.593196e+002,2.294383e+001
9.602838e+002,2.169071e+001
9.612480e+002,2.011316e+001
9.622123e+002,1.899293e+001
9.631765e+002,1.877585e+001
9.641407e+002,1.887087e+001
9.651050e+002,1.928186e+001
9.660692e+002,1.970461e+001
9.670334e+002,1.966689e+001
9.679977e+002,1.890830e+001
9.689619e+002,1.782765e+001
9.699261e+002,1.686457e+001
9.708904e+002,1.608177e+001
9.718546e+002,1.607661e+001
9.728188e+002,1.701498e+001
9.737831e+002,1.849570e+001
9.747473e+002,2.017824e+001
9.757115e+002,2.223264e+001
9.766758e+002,2.367352e+001
9.776400e+002,2.483120e+001
9.786042e+002,2.509102e+001
9.795685e+002,2.367187e+001
9.805327e+002,2.141878e+001
9.814969e+002,1.943571e+001
9.824612e+002,1.813885e+001
9.834254e+002,1.719784e+001
9.843896e+002,1.632455e+001
9.853539e+002,1.548368e+001
9.863181e+002,1.465683e+001
9.872823e+002,1.381123e+001
9.882466e+002,1.297232e+001
9.892108e+002,1.223344e+001
9.901750e+002,1.167907e+001
9.911393e+002,1.126727e+001
9.921035e+002,1.056365e+001
9.930677e+002,1.038926e+001
9.940320e+002,1.128387e+001
9.949962e+002,1.246758e+001
9.959604e+002,1.331307e+001
9.969247e+002,1.377065e+001
9.978889e+002,1.391106e+001
9.988531e+002,1.342247e+001
9.998174e+002,1.281234e+001
1.000782e+003,1.232518e+001
1.001746e+003,1.206547e+001
1.002710e+003,1.226716e+001
1.003674e+003,1.293844e+001
1.004639e+003,1.363811e+001
1.005603e+003,1.360720e+001
1.006567e+003,1.272545e+001
1.007531e+003,1.128449e+001
1.008495e+003,8.640358e+000
1.009460e+003,6.713257e+000
1.010424e+003,7.221138e+000
1.011388e+003,9.496895e+000
1.012352e+003,1.066689e+001
1.013317e+003,9.655548e+000
1.014281e+003,8.955750e+000
1.015245e+003,9.463951e+000
1.016209e+003,1.031926e+001
1.017174e+003,1.111227e+001
1.018138e+003,1.166681e+001
1.019102e+003,1.191569e+001
1.020066e+003,1.182686e+001
1.021031e+003,1.141561e+001
1.021995e+003,1.031016e+001
1.022959e+003,8.632339e+000
1.023923e+003,7.538239e+000
1.024887e+003,7.573883e+000
1.025852e+003,8.037201e+000
1.026816e+003,7.765312e+000
1.027780e+003,6.574272e+000
1.028744e+003,5.771996e+000
1.029709e+003,5.252457e+000
1.030673e+003,5.333633e+000
1.031637e+003,6.937111e+000
1.032601e+003,8.827667e+000
1.033566e+003,9.137054e+000
1.034530e+003,7.276459e+000
1.035494e+003,4.967201e+000
1.036458e+003,3.845680e+000
1.037422e+003,3.651909e+000
1.038387e+003,4.033394e+000
1.039351e+003,4.907555e+000
1.040315e+003,6.107689e+000
1.041279e+003,7.640030e+000
1.042244e+003,9.311546e+000
1.043208e+003,9.958237e+000
1.044172e+003,8.556328e+000
1.045136e+003,7.714798e+000
1.046101e+003,8.113930e+000
1.047065e+003,8.505547e+000
1.048029e+003,7.659691e+000
1.048993e+003,6.001175e+000
1.049958e+003,5.444977e+000
1.050922e+003,7.311630e+000
1.051886e+003,9.537354e+000
1.052850e+003,9.902237e+000
1.053814e+003,9.354012e+000
1.054779e+003,8.988914e+000
1.055743e+003,9.075836e+000
1.056707e+003,9.366798e+000
1.057671e+003,9.585686e+000
1.058636e+003,9.718895e+000
1.059600e+003,9.558250e+000
1.060564e+003,8.438095e+000
1.061528e+003,8.159019e+000
1.062493e+003,9.519051e+000
1.063457e+003,1.134617e+001
1.064421e+003,1.265902e+001
1.065385e+003,1.333530e+001
1.066349e+003,1.293816e+001
1.067314e+003,1.043790e+001
1.068278e+003,7.704750e+000
1.069242e+003,5.604927e+000
1.070206e+003,4.355331e+000
1.071171e+003,4.466537e+000
1.072135e+003,5.972000e+000
1.073099e+003,7.930244e+000
1.074063e+003,8.782990e+000
1.075028e+003,8.422310e+000
1.075992e+003,8.547928e+000
1.076956e+003,9.632935e+000
1.077920e+003,1.024446e+001
1.078885e+003,9.584961e+000
1.079849e+003,8.299782e+000
1.080813e+003,7.435455e+000
1.081777e+003,7.109512e+000
1.082741e+003,7.370850e+000
1.083706e+003,9.208939e+000
1.084670e+003,1.068079e+001
1.085634e+003,1.036034e+001
1.086598e+003,8.871834e+000
1.087563e+003,7.541435e+000
1.088527e+003,7.147797e+000
1.089491e+003,7.357872e+000
1.090455e+003,7.430359e+000
1.091420e+003,7.294121e+000
1.092384e+003,7.411835e+000
1.093348e+003,7.853790e+000
1.094312e+003,8.318527e+000
1.095276e+003,8.739975e+000
1.096241e+003,9.123459e+000
1.097205e+003,9.394295e+000
1.098169e+003,9.568924e+000
1.099133e+003,9.395309e+000
1.100098e+003,8.294601e+000
1.101062e+003,7.345795e+000
1.102026e+003,7.418068e+000
1.102990e+003,8.213783e+000
1.103955e+003,8.943581e+000
1.104919e+003,9.105789e+000
1.105883e+003,8.781998e+000
1.106847e+003,8.102272e+000
1.107812e+003,7.053421e+000
1.108776e+003,6.121170e+000
1.109740e+003,5.170067e+000
1.110704e+003,4.654984e+000
1.111668e+003,5.184059e+000
1.112633e+003,6.534271e+000
1.113597e+003,7.592819e+000
1.114561e+003,8.262383e+000
1.115525e+003,8.471359e+000
1.116490e+003,7.835197e+000
1.117454e+003,7.136543e+000
1.118418e+003,7.130859e+000
1.119382e+003,7.557251e+000
1.120347e+003,7.490471e+000
1.121311e+003,6.316078e+000
1.122275e+003,4.581451e+000
1.123239e+003,3.443481e+000
1.124203e+003,3.011139e+000
1.125168e+003,3.284508e+000
1.126132e+003,4.457787e+000
1.127096e+003,5.900032e+000
1.128060e+003,7.291481e+000
1.129025e+003,8.541824e+000
1.129989e+003,9.272255e+000
1.130953e+003,9.287659e+000
1.131917e+003,9.071350e+000
1.132882e+003,8.609467e+000
1.133846e+003,8.192169e+000
1.134810e+003,7.810638e+000
1.135774e+003,7.654503e+000
1.136739e+003,8.285866e+000
1.137703e+003,9.980888e+000
1.138667e+003,1.169140e+001
1.139631e+003,1.126216e+001
1.140595e+003,9.027832e+000
1.141560e+003,8.290428e+000
1.142524e+003,9.561317e+000
1.143488e+003,1.119281e+001
1.144452e+003,1.196231e+001
1.145417e+003,1.217635e+001
1.146381e+003,1.299749e+001
1.147345e+003,1.460395e+001
1.148309e+003,1.637377e+001
1.149274e+003,1.853232e+001
1.150238e+003,2.047325e+001
1.151202e+003,2.159850e+001
1.152166e+003,2.238881e+001
1.153130e+003,2.386874e+001
1.154095e+003,2.639642e+001
1.155059e+003,2.895423e+001
1.156023e+003,3.027737e+001
1.156987e+003,3.030094e+001
1.157952e+003,2.915572e+001
1.158916e+003,2.676960e+001
1.159880e+003,2.424656e+001
1.160844e+003,2.197591e+001
1.161809e+003,1.983466e+001
1.162773e+003,1.762351e+001
1.163737e+003,1.520509e+001
1.164701e+003,1.337132e+001
1.165666e+003,1.279094e+001
1.166630e+003,1.243495e+001
1.167594e+003,1.205676e+001
1.168558e+003,1.160786e+001
1.169522e+003,1.093316e+001
1.170487e+003,1.009086e+001
1.171451e+003,9.646965e+000
1.172415e+003,1.036127e+001
1.173379e+003,1.182561e+001
1.174344e+003,1.180911e+001
1.175308e+003,1.028345e+001
1.176272e+003,8.924232e+000
1.177236e+003,8.545647e+000
1.178201e+003,8.418266e+000
1.179165e+003,7.227135e+000
1.180129e+003,4.904503e+000
1.181093e+003,3.908585e+000
1.182057e+003,6.034927e+000
1.183022e+003,7.680420e+000
1.183986e+003,7.078201e+000
1.184950e+003,5.736801e+000
1.185914e+003,4.937744e+000
1.186879e+003,4.963692e+000
1.187843e+003,5.568573e+000
1.188807e+003,6.553024e+000
1.189771e+003,7.699013e+000
1.190736e+003,8.399200e+000
1.191700e+003,8.602829e+000
1.192664e+003,8.772423e+000
1.193628e+003,9.183067e+000
1.194593e+003,9.327240e+000
1.195557e+003,8.674332e+000
1.196521e+003,7.434288e+000
1.197485e+003,6.397446e+000
1.198449e+003,5.773239e+000
1.199414e+003,5.096970e+000
1.200378e+003,3.722786e+000
1.201342e+003,2.627739e+000
1.202306e+003,2.810081e+000
1.203271e+003,3.686325e+000
1.204235e+003,3.940102e+000
1.205199e+003,2.976913e+000
1.206163e+003,1.474304e+000
1.207128e+003,4.773865e-001
1.208092e+003,-7.736206e-003
1.209056e+003,8.745728e-001
1.210020e+003,4.537201e+000
1.210984e+003,6.593613e+000
1.211949e+003,4.604774e+000
1.212913e+003,1.060112e+000
1.213877e+003,-7.993240e-001
1.214841e+003,-7.641220e-001
1.215806e+003,-7.115402e-001
1.216770e+003,-1.407562e+000
1.217734e+003,-2.212975e+000
1.218698e+003,-2.884773e+000
1.219663e+003,-3.326714e+000
1.220627e+003,-3.420090e+000
1.221591e+003,-3.139534e+000
1.222555e+003,-2.415039e+000
1.223520e+003,-1.137062e+000
1.224484e+003,4.382782e-001
1.225448e+003,9.853821e-001
1.226412e+003,-9.677124e-002
1.227376e+003,-9.755402e-001
1.228341e+003,-1.685028e+000
1.229305e+003,-2.198502e+000
1.230269e+003,-2.344490e+000
1.231233e+003,-2.329521e+000
1.232198e+003,-2.766762e+000
1.233162e+003,-3.855446e+000
1.234126e+003,-4.158783e+000
1.235090e+003,-1.649796e+000
1.236055e+003,1.117966e+000
1.237019e+003,8.027725e-001
1.237983e+003,-1.491814e+000
1.238947e+003,-2.430428e+000
1.239911e+003,-6.194687e-001
1.240876e+003,1.869240e+000
1.241840e+003,1.787949e+000
1.242804e+003,-1.061676e+000
1.243768e+003,-2.728874e+000
1.244733e+003,-1.902557e+000
1.245697e+003,-1.573914e+000
1.246661e+003,-2.734154e+000
1.247625e+003,-3.861282e+000
1.248590e+003,-3.554565e+000
1.249554e+003,-2.131622e+000
1.250518e+003,-9.002686e-001
1.251482e+003,-4.610214e-001
1.252447e+003,-5.035477e-001
1.253411e+003,-7.543488e-001
1.254375e+003,-1.116867e+000
1.255339e+003,-1.605019e+000
1.256303e+003,-2.154564e+000
1.257268e+003,-2.008591e+000
1.258232e+003,-4.763565e-001
1.259196e+003,1.529160e+000
1.260160e+003,2.026711e+000
1.261125e+003,6.940765e-001
1.262089e+003,1.215210e-001
1.263053e+003,1.236511e+000
1.264017e+003,2.232147e+000
1.264982e+003,2.748337e+000
1.265946e+003,2.950401e+000
1.266910e+003,3.069839e+000
1.267874e+003,3.068283e+000
1.268839e+003,2.498154e+000
1.269803e+003,1.043427e+000
1.270767e+003,-3.785248e-001
1.271731e+003,3.999863e-001
1.272695e+003,3.250099e+000
1.273660e+003,4.032654e+000
1.274624e+003,1.847839e+000
1.275588e+003,-4.634476e-001
1.276552e+003,-1.495590e+000
1.277517e+003,-1.532013e+000
1.278481e+003,-9.737320e-001
1.279445e+003,2.030716e-001
1.280409e+003,1.123817e+000
1.281374e+003,1.529884e+000
1.282338e+003,1.564819e+000
1.283302e+003,7.570267e-001
1.284266e+003,-2.616882e-002
1.285230e+003,5.539856e-001
1.286195e+003,2.336235e+000
1.287159e+003,3.764069e+000
1.288123e+003,3.572708e+000
1.289087e+003,2.269386e+000
1.290052e+003,1.283829e+000
1.291016e+003,5.285721e-001
1.291980e+003,3.840485e-001
1.292944e+003,1.401703e+000
1.293909e+003,2.178658e+000
1.294873e+003,2.111908e+000
1.295837e+003,1.607452e+000
1.296801e+003,1.228096e+000
1.297766e+003,1.039009e+000
1.298730e+003,5.909042e-001
1.299694e+003,-7.016754e-001
1.300658e+003,-1.738930e+000
1.301622e+003,-9.301758e-001
1.302587e+003,8.043442e-001
1.303551e+003,2.056152e+000
1.304515e+003,2.588646e+000
1.305479e+003,2.843781e+000
1.306444e+003,3.110680e+000
1.307408e+003,3.387909e+000
1.308372e+003,3.843666e+000
1.309336e+003,4.825142e+000
1.310301e+003,4.867157e+000
1.311265e+003,2.861839e+000
1.312229e+003,1.270409e+000
1.313193e+003,9.448395e-001
1.314157e+003,1.280663e+000
1.315122e+003,1.782059e+000
1.316086e+003,2.227806e+000
1.317050e+003,2.423050e+000
1.318014e+003,2.243256e+000
1.318979e+003,1.903374e+000
1.319943e+003,1.665558e+000
1.320907e+003,1.598854e+000
1.321871e+003,2.082733e+000
1.322836e+003,3.303680e+000
1.323800e+003,4.246674e+000
1.324764e+003,3.922531e+000
1.325728e+003,3.234871e+000
1.326693e+003,4.112663e+000
1.327657e+003,6.621895e+000
1.328621e+003,7.722176e+000
1.329585e+003,5.767967e+000
1.330549e+003,3.977989e+000
1.331514e+003,4.330017e+000
1.332478e+003,5.171806e+000
1.333442e+003,4.755142e+000
1.334406e+003,3.318405e+000
1.335371e+003,2.355118e+000
1.336335e+003,2.758705e+000
1.337299e+003,3.915344e+000
1.338263e+003,4.673195e+000
1.339228e+003,5.024811e+000
1.340192e+003,5.051315e+000
1.341156e+003,3.814224e+000
1.342120e+003,3.635429e+000
1.343084e+003,6.169029e+000
1.344049e+003,8.612862e+000
1.345013e+003,8.238052e+000
1.345977e+003,5.833649e+000
1.346941e+003,4.142136e+000
1.347906e+003,4.138985e+000
1.348870e+003,4.929726e+000
1.349834e+003,5.795410e+000
1.350798e+003,6.843887e+000
1.351763e+003,8.795135e+000
1.352727e+003,1.131047e+001
1.353691e+003,1.216047e+001
1.354655e+003,1.019009e+001
1.355620e+003,7.567482e+000
1.356584e+003,7.165916e+000
1.357548e+003,8.644043e+000
1.358512e+003,8.625298e+000
1.359476e+003,6.236053e+000
1.360441e+003,4.195816e+000
1.361405e+003,2.733864e+000
1.362369e+003,2.298874e+000
1.363333e+003,3.738693e+000
1.364298e+003,6.063957e+000
1.365262e+003,8.173714e+000
1.366226e+003,9.624680e+000
1.367190e+003,1.034280e+001
1.368155e+003,1.026101e+001
1.369119e+003,9.443939e+000
1.370083e+003,8.030449e+000
1.371047e+003,5.700722e+000
1.372011e+003,4.320534e+000
1.372976e+003,4.002792e+000
1.373940e+003,4.323174e+000
1.374904e+003,5.618095e+000
1.375868e+003,7.189392e+000
1.376833e+003,7.985275e+000
1.377797e+003,8.046196e+000
1.378761e+003,8.565407e+000
1.379725e+003,1.025500e+001
1.380690e+003,1.190846e+001
1.381654e+003,1.226373e+001
1.382618e+003,1.181434e+001
1.383582e+003,1.097463e+001
1.384547e+003,9.873711e+000
1.385511e+003,8.913254e+000
1.386475e+003,8.206703e+000
1.387439e+003,7.974243e+000
1.388403e+003,8.960762e+000
1.389368e+003,1.115311e+001
1.390332e+003,1.194006e+001
1.391296e+003,1.063127e+001
1.392260e+003,9.195343e+000
1.393225e+003,7.280525e+000
1.394189e+003,6.176353e+000
1.395153e+003,7.264084e+000
1.396117e+003,9.381584e+000
1.397082e+003,1.081012e+001
1.398046e+003,1.106462e+001
1.399010e+003,1.071468e+001
1.399974e+003,1.021700e+001
1.400938e+003,9.777405e+000
1.401903e+003,1.030488e+001
1.402867e+003,1.242966e+001
1.403831e+003,1.316775e+001
1.404795e+003,1.073055e+001
1.405760e+003,9.250809e+000
1.406724e+003,1.136302e+001
1.407688e+003,1.416666e+001
1.408652e+003,1.399622e+001
1.409617e+003,1.115986e+001
1.410581e+003,8.698608e+000
1.411545e+003,7.737396e+000
1.412509e+003,7.780426e+000
1.413474e+003,8.804382e+000
1.414438e+003,1.021660e+001
1.415402e+003,1.127201e+001
1.416366e+003,1.194669e+001
1.417330e+003,1.191322e+001
1.418295e+003,1.083612e+001
1.419259e+003,9.795570e+000
1.420223e+003,1.036574e+001
1.421187e+003,1.214923e+001
1.422152e+003,1.260695e+001
1.423116e+003,1.110815e+001
1.424080e+003,1.037795e+001
1.425044e+003,1.203915e+001
1.426009e+003,1.357433e+001
1.426973e+003,1.363552e+001
1.427937e+003,1.317664e+001
1.428901e+003,1.362781e+001
1.429865e+003,1.490743e+001
1.430830e+003,1.557580e+001
1.431794e+003,1.467999e+001
1.432758e+003,1.308612e+001
1.433722e+003,1.259510e+001
1.434687e+003,1.338262e+001
1.435651e+003,1.382887e+001
1.436615e+003,1.362518e+001
1.437579e+003,1.322604e+001
1.438544e+003,1.238513e+001
1.439508e+003,1.169275e+001
1.440472e+003,1.169463e+001
1.441436e+003,1.213464e+001
1.442401e+003,1.247999e+001
1.443365e+003,1.257527e+001
1.444329e+003,1.254105e+001
1.445293e+003,1.244389e+001
1.446257e+003,1.238924e+001
1.447222e+003,1.264379e+001
1.448186e+003,1.311279e+001
1.449150e+003,1.324870e+001
1.450114e+003,1.288619e+001
1.451079e+003,1.261240e+001
1.452043e+003,1.260529e+001
1.453007e+003,1.299606e+001
1.453971e+003,1.432629e+001
1.454936e+003,1.634104e+001
1.455900e+003,1.717101e+001
1.456864e+003,1.613199e+001
1.457828e+003,1.501894e+001
1.458792e+003,1.477410e+001
1.459757e+003,1.490703e+001
1.460721e+003,1.526431e+001
1.461685e+003,1.562818e+001
1.462649e+003,1.544247e+001
1.463614e+003,1.467267e+001
1.464578e+003,1.429652e+001
1.465542e+003,1.529835e+001
1.466506e+003,1.702319e+001
1.467471e+003,1.745451e+001
1.468435e+003,1.626604e+001
1.469399e+003,1.571550e+001
1.470363e+003,1.626424e+001
1.471328e+003,1.687604e+001
1.472292e+003,1.735777e+001
1.473256e+003,1.769798e+001
1.474220e+003,1.813497e+001
1.475184e+003,1.846333e+001
1.476149e+003,1.811245e+001
1.477113e+003,1.698277e+001
1.478077e+003,1.573854e+001
1.479041e+003,1.506430e+001
1.480006e+003,1.484435e+001
1.480970e+003,1.460385e+001
1.481934e+003,1.416028e+001
1.482898e+003,1.433092e+001
1.483863e+003,1.543002e+001
1.484827e+003,1.660079e+001
1.485791e+003,1.830233e+001
1.486755e+003,1.947033e+001
1.487719e+003,1.853696e+001
1.488684e+003,1.626858e+001
1.489648e+003,1.482269e+001
1.490612e+003,1.491721e+001
1.491576e+003,1.587474e+001
1.492541e+003,1.731598e+001
1.493505e+003,1.890601e+001
1.494469e+003,1.994794e+001
1.495433e+003,2.044873e+001
1.496398e+003,2.057191e+001
1.497362e+003,2.026165e+001
1.498326e+003,2.005670e+001
1.499290e+003,1.992800e+001
1.500255e+003,2.026308e+001
1.501219e+003,2.216989e+001
1.502183e+003,2.517796e+001
1.503147e+003,2.640317e+001
1.504111e+003,2.483793e+001
1.505076e+003,2.343543e+001
1.506040e+003,2.403482e+001
1.507004e+003,2.545876e+001
1.507968e+003,2.645719e+001
1.508933e+003,2.731827e+001
1.509897e+003,2.882231e+001
1.510861e+003,3.112022e+001
1.511825e+003,3.323750e+001
1.512790e+003,3.423619e+001
1.513754e+003,3.495020e+001
1.514718e+003,3.726652e+001
1.515682e+003,4.113503e+001
1.516646e+003,4.434055e+001
1.517611e+003,4.670619e+001
1.518575e+003,4.856750e+001
1.519539e+003,5.056956e+001
1.520503e+003,5.161188e+001
1.521468e+003,5.015546e+001
1.522432e+003,4.780263e+001
1.523396e+003,4.693180e+001
1.524360e+003,4.766091e+001
1.525325e+003,4.821027e+001
1.526289e+003,4.741639e+001
1.527253e+003,4.615623e+001
1.528217e+003,4.620155e+001
1.529182e+003,4.762708e+001
1.530146e+003,4.657274e+001
1.531110e+003,4.080361e+001
1.532074e+003,3.665735e+001
1.533039e+003,3.559047e+001
1.534003e+003,3.470233e+001
1.534967e+003,3.277654e+001
1.535931e+003,3.047683e+001
1.536896e+003,2.848276e+001
1.537860e+003,2.696714e+001
1.538824e+003,2.591115e+001
1.539788e+003,2.526395e+001
1.540752e+003,2.484909e+001
1.541717e+003,2.449167e+001
1.542681e+003,2.418365e+001
1.543645e+003,2.372342e+001
1.544609e+003,2.292088e+001
1.545573e+003,2.261803e+001
1.546538e+003,2.290549e+001
1.547502e+003,2.341912e+001
1.548466e+003,2.437961e+001
1.549430e+003,2.534058e+001
1.550395e+003,2.579102e+001
1.551359e+003,2.578442e+001
1.552323e+003,2.560324e+001
1.553287e+003,2.537888e+001
1.554252e+003,2.531949e+001
1.555216e+003,2.568430e+001
1.556180e+003,2.610538e+001
1.557144e+003,2.561786e+001
1.558109e+003,2.420361e+001
1.559073e+003,2.317821e+001
1.560037e+003,2.251535e+001
1.561001e+003,2.221018e+001
1.561966e+003,2.237279e+001
1.562930e+003,2.290998e+001
1.563894e+003,2.401527e+001
1.564858e+003,2.530111e+001
1.565823e+003,2.584959e+001
1.566787e+003,2.550448e+001
1.567751e+003,2.485714e+001
1.568715e+003,2.409015e+001
1.569679e+003,2.367711e+001
1.570644e+003,2.457901e+001
1.571608e+003,2.614725e+001
1.572572e+003,2.632607e+001
1.573536e+003,2.504176e+001
1.574500e+003,2.469934e+001
1.575465e+003,2.685912e+001
1.576429e+003,2.891758e+001
1.577393e+003,2.846416e+001
1.578357e+003,2.654197e+001
1.579322e+003,2.490499e+001
1.580286e+003,2.378022e+001
1.581250e+003,2.385689e+001
1.582214e+003,2.563876e+001
1.583179e+003,2.755154e+001
1.584143e+003,2.843317e+001
1.585107e+003,2.876705e+001
1.586071e+003,2.936554e+001
1.587036e+003,3.011143e+001
1.588000e+003,3.041115e+001
1.588964e+003,3.008461e+001
1.589928e+003,2.958111e+001
1.590893e+003,2.878744e+001
1.591857e+003,2.839548e+001
1.592821e+003,3.005323e+001
1.593785e+003,3.323865e+001
1.594750e+003,3.467090e+001
1.595714e+003,3.367094e+001
1.596678e+003,3.260648e+001
1.597642e+003,3.241291e+001
1.598606e+003,3.246296e+001
1.599571e+003,3.245734e+001
1.600535e+003,3.229166e+001
1.601499e+003,3.136501e+001
1.602463e+003,2.999931e+001
1.603427e+003,3.004061e+001
1.604392e+003,3.241255e+001
1.605356e+003,3.497588e+001
1.606320e+003,3.536983e+001
1.607284e+003,3.435281e+001
1.608249e+003,3.418891e+001
1.609213e+003,3.492168e+001
1.610177e+003,3.507623e+001
1.611141e+003,3.401443e+001
1.612106e+003,3.335307e+001
1.613070e+003,3.399180e+001
1.614034e+003,3.523061e+001
1.614998e+003,3.731715e+001
1.615963e+003,3.936024e+001
1.616927e+003,3.952770e+001
1.617891e+003,3.781764e+001
1.618855e+003,3.639131e+001
1.619820e+003,3.655673e+001
1.620784e+003,3.729070e+001
1.621748e+003,3.699194e+001
1.622712e+003,3.603506e+001
1.623677e+003,3.670728e+001
1.624641e+003,3.951540e+001
1.625605e+003,4.100977e+001
1.626569e+003,3.951541e+001
1.627533e+003,3.792037e+001
1.628498e+003,3.775957e+001
1.629462e+003,3.809206e+001
1.630426e+003,3.824503e+001
1.631390e+003,3.819177e+001
1.632354e+003,3.798493e+001
1.633319e+003,3.766944e+001
1.634283e+003,3.743401e+001
1.635247e+003,3.737238e+001
1.636211e+003,3.757894e+001
1.637176e+003,3.839298e+001
1.638140e+003,3.977551e+001
1.639104e+003,4.096608e+001
1.640068e+003,4.219651e+001
1.641033e+003,4.209193e+001
1.641997e+003,3.899609e+001
1.642961e+003,3.642452e+001
1.643925e+003,3.669760e+001
1.644890e+003,3.779170e+001
1.645854e+003,3.743232e+001
1.646818e+003,3.617598e+001
1.647782e+003,3.620377e+001
1.648747e+003,3.806793e+001
1.649711e+003,3.964375e+001
1.650675e+003,3.905533e+001
1.651639e+003,3.743766e+001
1.652604e+003,3.710979e+001
1.653568e+003,3.799429e+001
1.654532e+003,3.865387e+001
1.655496e+003,3.885061e+001
1.656460e+003,3.945985e+001
1.657425e+003,4.148827e+001
1.658389e+003,4.297548e+001
1.659353e+003,4.281683e+001
1.660317e+003,4.167896e+001
1.661281e+003,3.988290e+001
1.662246e+003,3.778181e+001
1.663210e+003,3.609797e+001
1.664174e+003,3.507601e+001
1.665138e+003,3.440037e+001
1.666103e+003,3.373142e+001
1.667067e+003,3.327136e+001
1.668031e+003,3.372315e+001
1.668995e+003,3.498515e+001
1.669960e+003,3.517034e+001
1.670924e+003,3.368594e+001
1.671888e+003,3.321506e+001
1.672852e+003,3.549525e+001
1.673817e+003,3.760816e+001
1.674781e+003,3.710010e+001
1.675745e+003,3.590693e+001
1.676709e+003,3.651354e+001
1.677674e+003,3.833311e+001
1.678638e+003,3.894630e+001
1.679602e+003,3.761139e+001
1.680566e+003,3.589390e+001
1.681531e+003,3.499492e+001
1.682495e+003,3.449548e+001
1.683459e+003,3.340500e+001
1.684423e+003,3.191624e+001
1.685387e+003,3.162949e+001
1.686352e+003,3.288477e+001
1.687316e+003,3.381526e+001
1.688280e+003,3.369032e+001
1.689244e+003,3.336365e+001
1.690208e+003,3.332530e+001
1.691173e+003,3.349080e+001
1.692137e+003,3.412667e+001
1.693101e+003,3.493603e+001
1.694065e+003,3.481255e+001
1.695030e+003,3.342382e+001
1.695994e+003,3.174413e+001
1.696958e+003,2.991433e+001
1.697922e+003,2.871707e+001
1.698887e+003,2.963200e+001
1.699851e+003,3.190137e+001
1.700815e+003,3.321259e+001
1.701779e+003,3.334451e+001
1.702744e+003,3.294928e+001
1.703708e+003,3.217367e+001
1.704672e+003,3.130067e+001
1.705636e+003,3.014641e+001
1.706601e+003,2.930465e+001
1.707565e+003,3.014338e+001
1.708529e+003,3.208292e+001
1.709493e+003,3.325135e+001
1.710458e+003,3.342365e+001
1.711422e+003,3.287885e+001
1.712386e+003,3.098753e+001
1.713350e+003,2.937727e+001
1.714314e+003,2.975745e+001
1.715279e+003,3.094983e+001
1.716243e+003,3.078715e+001
1.717207e+003,2.949430e+001
1.718171e+003,2.909182e+001
1.719135e+003,3.014536e+001
1.720100e+003,3.106484e+001
1.721064e+003,3.074458e+001
1.722028e+003,2.985552e+001
1.722992e+003,2.934235e+001
1.723957e+003,2.918157e+001
1.724921e+003,2.894904e+001
1.725885e+003,2.850570e+001
1.726849e+003,2.839391e+001
1.727814e+003,2.919692e+001
1.728778e+003,2.981860e+001
1.729742e+003,2.951998e+001
1.730706e+003,2.904396e+001
1.731671e+003,2.883120e+001
1.732635e+003,2.904459e+001
1.733599e+003,3.024730e+001
1.734563e+003,3.231807e+001
1.735528e+003,3.416275e+001
1.736492e+003,3.518655e+001
1.737456e+003,3.505251e+001
1.738420e+003,3.317901e+001
1.739385e+003,3.019884e+001
1.740349e+003,2.857256e+001
1.741313e+003,2.852438e+001
1.742277e+003,2.887616e+001
1.743241e+003,3.034917e+001
1.744206e+003,3.114017e+001
1.745170e+003,3.050072e+001
1.746134e+003,2.968726e+001
1.747098e+003,2.920992e+001
1.748063e+003,2.906031e+001
1.749027e+003,2.928382e+001
1.749991e+003,2.975628e+001
1.750955e+003,3.037769e+001
1.751919e+003,3.098459e+001
1.752884e+003,3.094509e+001
1.753848e+003,2.971381e+001
1.754812e+003,2.809535e+001
1.755776e+003,2.787669e+001
1.756741e+003,2.901579e+001
1.757705e+003,2.871746e+001
1.758669e+003,2.579157e+001
1.759633e+003,2.487426e+001
1.760598e+003,2.817076e+001
1.761562e+003,3.096030e+001
1.762526e+003,3.210931e+001
1.763490e+003,3.210490e+001
1.764455e+003,3.056902e+001
1.765419e+003,2.851254e+001
1.766383e+003,2.719757e+001
1.767347e+003,2.685300e+001
1.768312e+003,2.747731e+001
1.769276e+003,2.908913e+001
1.770240e+003,3.042752e+001
1.771204e+003,3.001852e+001
1.772168e+003,2.868981e+001
1.773133e+003,2.830818e+001
1.774097e+003,2.876540e+001
1.775061e+003,2.897548e+001
1.776025e+003,2.876300e+001
1.776990e+003,2.852611e+001
1.777954e+003,2.835008e+001
1.778918e+003,2.840524e+001
1.779882e+003,2.877269e+001
1.780846e+003,2.941614e+001
1.781811e+003,3.059048e+001
1.782775e+003,3.201781e+001
1.783739e+003,3.270136e+001
1.784703e+003,3.247599e+001
1.785668e+003,3.198095e+001
1.786632e+003,3.103593e+001
1.787596e+003,3.039629e+001
1.788560e+003,3.120074e+001
1.789525e+003,3.233038e+001
1.790489e+003,3.191395e+001
1.791453e+003,3.037567e+001
1.792417e+003,2.932981e+001
1.793382e+003,2.914214e+001
1.794346e+003,2.938302e+001
1.795310e+003,2.982724e+001
1.796274e+003,3.061584e+001
1.797239e+003,3.211853e+001
1.798203e+003,3.382279e+001
1.799167e+003,3.377164e+001
1.800131e+003,3.142637e+001
1.801095e+003,3.040723e+001
1.802060e+003,3.193041e+001
1.803024e+003,3.285676e+001
1.803988e+003,3.217961e+001
1.804952e+003,3.166575e+001
1.805917e+003,3.246634e+001
1.806881e+003,3.356113e+001
1.807845e+003,3.398529e+001
1.808809e+003,3.383030e+001
1.809773e+003,3.339819e+001
1.810738e+003,3.289006e+001
1.811702e+003,3.264265e+001
1.812666e+003,3.285659e+001
1.813630e+003,3.328461e+001
1.814595e+003,3.363937e+001
1.815559e+003,3.386187e+001
1.816523e+003,3.366840e+001
1.817487e+003,3.300639e+001
1.818452e+003,3.264814e+001
1.819416e+003,3.271262e+001
1.820380e+003,3.296488e+001
1.821344e+003,3.355919e+001
1.822309e+003,3.393658e+001
1.823273e+003,3.345847e+001
1.824237e+003,3.291313e+001
1.825201e+003,3.319214e+001
1.826166e+003,3.402487e+001
1.827130e+003,3.473537e+001
1.828094e+003,3.517427e+001
1.829058e+003,3.512104e+001
1.830022e+003,3.432014e+001
1.830987e+003,3.338797e+001
1.831951e+003,3.284989e+001
1.832915e+003,3.248158e+001
1.833879e+003,3.180044e+001
1.834844e+003,3.101968e+001
1.835808e+003,3.078585e+001
1.836772e+003,3.120447e+001
1.837736e+003,3.222470e+001
1.838700e+003,3.384027e+001
1.839665e+003,3.516486e+001
1.840629e+003,3.533900e+001
1.841593e+003,3.490282e+001
1.842557e+003,3.502335e+001
1.843522e+003,3.568387e+001
1.844486e+003,3.568045e+001
1.845450e+003,3.448957e+001
1.846414e+003,3.373623e+001
1.847379e+003,3.350600e+001
1.848343e+003,3.347366e+001
1.849307e+003,3.366669e+001
1.850271e+003,3.394109e+001
1.851236e+003,3.440791e+001
1.852200e+003,3.479712e+001
1.853164e+003,3.458270e+001
1.854128e+003,3.389051e+001
1.855093e+003,3.329590e+001
1.856057e+003,3.308881e+001
1.857021e+003,3.339842e+001
1.857985e+003,3.441106e+001
1.858949e+003,3.549261e+001
1.859914e+003,3.533131e+001
1.860878e+003,3.424535e+001
1.861842e+003,3.410039e+001
1.862806e+003,3.492076e+001
1.863771e+003,3.538327e+001
1.864735e+003,3.515102e+001
1.865699e+003,3.508933e+001
1.866663e+003,3.584045e+001
1.867627e+003,3.641656e+001
1.868592e+003,3.555817e+001
1.869556e+003,3.412284e+001
1.870520e+003,3.388773e+001
1.871484e+003,3.466534e+001
1.872449e+003,3.524111e+001
1.873413e+003,3.556335e+001
1.874377e+003,3.586536e+001
1.875341e+003,3.611582e+001
1.876306e+003,3.630369e+001
1.877270e+003,3.637540e+001
1.878234e+003,3.640109e+001
1.879198e+003,3.629877e+001
1.880163e+003,3.630494e+001
1.881127e+003,3.724222e+001
1.882091e+003,3.873774e+001
1.883055e+003,3.882503e+001
1.884020e+003,3.687701e+001
1.884984e+003,3.510432e+001
1.885948e+003,3.554065e+001
1.886912e+003,3.714944e+001
1.887876e+003,3.794244e+001
1.888841e+003,3.794799e+001
1.889805e+003,3.726176e+001
1.890769e+003,3.560486e+001
1.891733e+003,3.479772e+001
1.892698e+003,3.523009e+001
1.893662e+003,3.591616e+001
1.894626e+003,3.660698e+001
1.895590e+003,3.737861e+001
1.896554e+003,3.860221e+001
1.897519e+003,3.974766e+001
1.898483e+003,4.001172e+001
1.899447e+003,3.957558e+001
1.900411e+003,3.923936e+001
1.901376e+003,3.915038e+001
1.902340e+003,3.905159e+001
1.903304e+003,3.870565e+001
1.904268e+003,3.853204e+001
1.905233e+003,3.904111e+001
1.906197e+003,3.963322e+001
1.907161e+003,3.968903e+001
1.908125e+003,3.938685e+001
1.909090e+003,3.878400e+001
1.910054e+003,3.816609e+001
1.911018e+003,3.869333e+001
1.911982e+003,4.052623e+001
1.912947e+003,4.161093e+001
1.913911e+003,4.042776e+001
1.914875e+003,3.860642e+001
1.915839e+003,3.875658e+001
1.916803e+003,4.033047e+001
1.917768e+003,4.053217e+001
1.918732e+003,3.904195e+001
1.919696e+003,3.852447e+001
1.920660e+003,3.947972e+001
1.921625e+003,4.011932e+001
1.922589e+003,3.959393e+001
1.923553e+003,3.939527e+001
1.924517e+003,4.084999e+001
1.925481e+003,4.249550e+001
1.926446e+003,4.302936e+001
1.927410e+003,4.283624e+001
1.928374e+003,4.267160e+001
1.929338e+003,4.256944e+001
1.930303e+003,4.229592e+001
1.931267e+003,4.174527e+001
1.932231e+003,4.136027e+001
1.933195e+003,4.150281e+001
1.934160e+003,4.160175e+001
1.935124e+003,4.110206e+001
1.936088e+003,4.041561e+001
1.937052e+003,4.013237e+001
1.938017e+003,4.011816e+001
1.938981e+003,3.976912e+001
1.939945e+003,3.916483e+001
1.940909e+003,3.920196e+001
1.941874e+003,4.023117e+001
1.942838e+003,4.153621e+001
1.943802e+003,4.250877e+001
1.944766e+003,4.320649e+001
1.945730e+003,4.373132e+001
1.946695e+003,4.400527e+001
1.947659e+003,4.324813e+001
1.948623e+003,4.121071e+001
1.949587e+003,4.112363e+001
1.950552e+003,4.396082e+001
1.951516e+003,4.624469e+001
1.952480e+003,4.685504e+001
1.953444e+003,4.656194e+001
1.954408e+003,4.538705e+001
1.955373e+003,4.405662e+001
1.956337e+003,4.371875e+001
1.957301e+003,4.415354e+001
1.958265e+003,4.452229e+001
1.959230e+003,4.484885e+001
1.960194e+003,4.477991e+001
1.961158e+003,4.373647e+001
1.962122e+003,4.298084e+001
1.963087e+003,4.316759e+001
1.964051e+003,4.334384e+001
1.965015e+003,4.271526e+001
1.965979e+003,4.209814e+001
1.966944e+003,4.231758e+001
1.967908e+003,4.314294e+001
1.968872e+003,4.446304e+001
1.969836e+003,4.582092e+001
1.970801e+003,4.568846e+001
1.971765e+003,4.356866e+001
1.972729e+003,4.179348e+001
1.973693e+003,4.243193e+001
1.974657e+003,4.416081e+001
1.975622e+003,4.513200e+001
1.976586e+003,4.556225e+001
1.977550e+003,4.606010e+001
1.978514e+003,4.663546e+001
1.979479e+003,4.729443e+001
1.980443e+003,4.798666e+001
1.981407e+003,4.789703e+001
1.982371e+003,4.667186e+001
1.983335e+003,4.602912e+001
1.984300e+003,4.743401e+001
1.985264e+003,4.905858e+001
1.986228e+003,4.788923e+001
1.987192e+003,4.474820e+001
1.988157e+003,4.404376e+001
1.989121e+003,4.649895e+001
1.990085e+003,4.772724e+001
1.991049e+003,4.715449e+001
1.992014e+003,4.655598e+001
1.992978e+003,4.577264e+001
1.993942e+003,4.545383e+001
1.994906e+003,4.638263e+001
1.995871e+003,4.727648e+001
1.996835e+003,4.674500e+001
1.997799e+003,4.587441e+001
1.998763e+003,4.669389e+001
1.999728e+003,4.872198e+001
