5.003444e+002,3.214316e+001
5.013087e+002,3.173245e+001
5.022729e+002,2.895297e+001
5.032371e+002,2.502350e+001
5.042014e+002,2.310971e+001
5.051656e+002,2.300833e+001
5.061298e+002,2.378098e+001
5.070941e+002,2.459259e+001
5.080583e+002,2.533481e+001
5.090225e+002,2.595895e+001
5.099868e+002,2.672681e+001
5.109510e+002,2.715735e+001
5.119152e+002,2.677271e+001
5.128795e+002,2.550504e+001
5.138437e+002,2.476825e+001
5.148079e+002,2.578180e+001
5.157722e+002,2.686581e+001
5.167364e+002,2.720544e+001
5.177006e+002,2.667673e+001
5.186649e+002,2.579956e+001
5.196291e+002,2.530835e+001
5.205933e+002,2.524585e+001
5.215576e+002,2.550616e+001
5.225218e+002,2.580264e+001
5.234860e+002,2.567401e+001
5.244503e+002,2.451065e+001
5.254145e+002,2.220886e+001
5.263787e+002,2.043341e+001
5.273430e+002,1.901535e+001
5.283072e+002,1.821576e+001
5.292714e+002,1.855472e+001
5.302357e+002,2.077151e+001
5.311999e+002,2.169507e+001
5.321641e+002,2.104214e+001
5.331284e+002,1.973566e+001
5.340926e+002,1.828598e+001
5.350568e+002,1.674960e+001
5.360211e+002,1.488358e+001
5.369853e+002,1.204904e+001
5.379495e+002,9.496094e+000
5.389138e+002,8.419891e+000
5.398780e+002,9.138184e+000
5.408422e+002,1.088144e+001
5.418065e+002,1.163443e+001
5.427707e+002,1.156107e+001
5.437349e+002,1.194571e+001
5.446992e+002,1.323151e+001
5.456634e+002,1.504974e+001
5.466276e+002,1.620471e+001
5.475919e+002,1.666666e+001
5.485561e+002,1.646555e+001
5.495203e+002,1.500385e+001
5.504846e+002,1.290057e+001
5.514488e+002,1.101337e+001
5.524130e+002,9.556000e+000
5.533773e+002,9.011475e+000
5.543415e+002,1.012482e+001
5.553057e+002,1.175467e+001
5.562700e+002,1.268750e+001
5.572342e+002,1.215164e+001
5.581984e+002,1.067444e+001
5.591627e+002,9.643768e+000
5.601269e+002,9.015686e+000
5.610911e+002,8.445435e+000
5.620554e+002,7.701813e+000
5.630196e+002,6.690887e+000
5.639838e+002,5.349213e+000
5.649481e+002,2.366547e+000
5.659123e+002,9.451599e-001
5.668765e+002,3.109650e+000
5.678408e+002,7.610168e+000
5.688050e+002,1.043552e+001
5.697692e+002,8.898926e+000
5.707335e+002,7.132751e+000
5.716977e+002,6.751862e+000
5.726619e+002,6.997467e+000
5.736262e+002,6.605530e+000
5.745904e+002,4.607391e+000
5.755546e+002,2.391907e+000
5.765189e+002,1.600433e+000
5.774831e+002,1.832581e+000
5.784473e+002,3.146973e+000
5.794116e+002,5.659790e+000
5.803758e+002,9.248627e+000
5.813400e+002,9.953430e+000
5.823043e+002,6.643005e+000
5.832685e+002,3.510101e+000
5.842327e+002,2.425232e+000
5.851970e+002,3.183624e+000
5.861612e+002,3.459106e+000
5.871254e+002,1.841003e+000
5.880897e+002,6.230774e-001
5.890539e+002,2.313232e-002
5.900181e+002,2.627563e-002
5.909824e+002,7.219849e-001
5.919466e+002,2.567596e+000
5.929108e+002,4.471161e+000
5.938751e+002,5.691437e+000
5.948393e+002,6.122406e+000
5.958035e+002,5.298492e+000
5.967678e+002,2.953461e+000
5.977320e+002,-4.020996e-001
5.986962e+002,-1.165863e+000
5.996605e+002,3.518066e-001
6.006247e+002,1.774170e+000
6.015889e+002,1.777649e+000
6.025532e+002,5.415039e-001
6.035174e+002,3.486023e-001
6.044816e+002,3.015350e+000
6.054459e+002,4.878418e+000
6.064101e+002,4.990112e+000
6.073743e+002,3.982605e+000
6.083386e+002,3.121796e+000
6.093028e+002,3.224091e+000
6.102670e+002,3.378601e+000
6.112313e+002,2.427063e+000
6.121955e+002,1.142151e+000
6.131597e+002,6.565857e-001
6.141240e+002,1.716461e+000
6.150882e+002,3.776520e+000
6.160524e+002,4.767975e+000
6.170167e+002,4.989380e+000
6.179809e+002,4.692963e+000
6.189451e+002,3.716248e+000
6.199094e+002,2.063324e+000
6.208736e+002,6.210938e-001
6.218378e+002,-3.254700e-001
6.228021e+002,-8.554382e-001
6.237663e+002,-9.746704e-001
6.247305e+002,-6.018066e-001
6.256948e+002,5.233765e-001
6.266590e+002,2.934875e+000
6.276232e+002,4.474701e+000
6.285875e+002,4.071320e+000
6.295517e+002,2.621704e+000
6.305159e+002,4.047852e-001
6.314802e+002,-2.323669e+000
6.324444e+002,-4.709869e+000
6.334086e+002,-2.631348e+000
6.343729e+002,2.454163e+000
6.353371e+002,6.033600e+000
6.363013e+002,6.338257e+000
6.372656e+002,4.085602e+000
6.382298e+002,2.000427e+000
6.391940e+002,-4.996948e-001
6.401583e+002,-2.052612e+000
6.411225e+002,-1.611298e+000
6.420867e+002,-2.850037e-001
6.430510e+002,4.432983e-001
6.440152e+002,-1.209412e-001
6.449794e+002,-1.053802e+000
6.459437e+002,-1.759979e+000
6.469079e+002,-2.581085e+000
6.478721e+002,-4.077271e+000
6.488364e+002,-6.205475e+000
6.498006e+002,-7.952484e+000
6.507648e+002,-7.348602e+000
6.517291e+002,-5.098053e+000
6.526933e+002,-2.281128e+000
6.536575e+002,9.899292e-001
6.546218e+002,3.797333e+000
6.555860e+002,4.295349e+000
6.565502e+002,6.853027e-001
6.575145e+002,-1.555878e+000
6.584787e+002,-1.518616e+000
6.594429e+002,-1.000854e+000
6.604072e+002,-1.722595e+000
6.613714e+002,-4.125916e+000
6.623356e+002,-5.449585e+000
6.632999e+002,-2.806366e+000
6.642641e+002,-3.993835e-001
6.652283e+002,-7.861328e-001
6.661926e+002,-3.633453e+000
6.671568e+002,-6.520874e+000
6.681210e+002,-6.633331e+000
6.690853e+002,-4.823700e+000
6.700495e+002,-3.202026e+000
6.710137e+002,-1.857330e+000
6.719780e+002,-1.124512e+000
6.729422e+002,-1.488586e+000
6.739064e+002,-3.383575e+000
6.748707e+002,-4.224335e+000
6.758349e+002,-2.736816e+000
6.767991e+002,-2.033020e+000
6.777634e+002,-4.105255e+000
6.787276e+002,-8.278046e+000
6.796918e+002,-1.060242e+001
6.806561e+002,-8.404572e+000
6.816203e+002,-5.692352e+000
6.825845e+002,-3.512238e+000
6.835488e+002,-1.992157e+000
6.845130e+002,-1.141418e+000
6.854772e+002,-9.888306e-001
6.864415e+002,-1.014801e+000
6.874057e+002,-1.487732e-001
6.883699e+002,1.016235e+000
6.893342e+002,1.353516e+000
6.902984e+002,2.102661e-001
6.912626e+002,-2.010956e+000
6.922269e+002,-2.996246e+000
6.931911e+002,-1.300201e+000
6.941553e+002,3.477478e-001
6.951196e+002,2.194427e+000
6.960838e+002,3.356049e+000
6.970480e+002,2.002777e+000
6.980123e+002,-3.920044e+000
6.989765e+002,-7.589417e+000
6.999407e+002,-4.580963e+000
7.009050e+002,1.550293e-002
7.018692e+002,1.873810e+000
7.028334e+002,-3.060303e-001
7.037977e+002,-3.781281e+000
7.047619e+002,-4.093903e+000
7.057261e+002,-2.196594e+000
7.066904e+002,6.753540e-002
7.076546e+002,2.383453e+000
7.086188e+002,3.950012e+000
7.095831e+002,3.284882e+000
7.105473e+002,-1.105652e+000
7.115115e+002,-3.278534e+000
7.124758e+002,-2.115173e+000
7.134400e+002,-4.999390e-001
7.144042e+002,-5.447388e-002
7.153685e+002,-7.599487e-001
7.163327e+002,-1.325623e+000
7.172969e+002,-8.230286e-001
7.182612e+002,-3.385010e-001
7.192254e+002,-3.069458e-001
7.201896e+002,-7.763062e-001
7.211539e+002,-1.773041e+000
7.221181e+002,-3.398376e+000
7.230823e+002,-5.121857e+000
7.240466e+002,-5.515350e+000
7.250108e+002,-4.667175e+000
7.259750e+002,-3.459686e+000
7.269393e+002,-2.623260e+000
7.279035e+002,-2.272949e+000
7.288677e+002,-1.436768e+000
7.298320e+002,2.092621e+000
7.307962e+002,4.205658e+000
7.317604e+002,3.834808e+000
7.327247e+002,2.272461e+000
7.336889e+002,1.137512e+000
7.346531e+002,6.394348e-001
7.356174e+002,-2.540894e-001
7.365816e+002,-2.557190e+000
7.375458e+002,-4.348297e+000
7.385101e+002,-3.658752e+000
7.394743e+002,-3.499756e-001
7.404385e+002,3.640198e+000
7.414028e+002,5.233765e+000
7.423670e+002,4.418518e+000
7.433312e+002,3.802582e+000
7.442955e+002,3.885406e+000
7.452597e+002,4.534058e+000
7.462239e+002,5.547119e+000
7.471882e+002,7.041992e+000
7.481524e+002,7.834015e+000
7.491166e+002,6.957123e+000
7.500809e+002,5.954193e+000
7.510451e+002,5.719025e+000
7.520093e+002,5.923279e+000
7.529736e+002,5.217377e+000
7.539378e+002,2.494202e+000
7.549020e+002,7.131958e-002
7.558663e+002,-7.300110e-001
7.568306e+002,-4.018555e-001
7.577948e+002,5.133972e-001
7.587590e+002,1.549683e+000
7.597233e+002,2.308441e+000
7.606875e+002,1.700958e+000
7.616517e+002,9.820557e-002
7.626160e+002,-6.847839e-001
7.635802e+002,-1.322937e-001
7.645444e+002,1.526886e+000
7.655087e+002,4.067719e+000
7.664729e+002,8.851593e+000
7.674371e+002,1.110312e+001
7.684014e+002,9.670288e+000
7.693656e+002,6.948303e+000
7.703298e+002,3.747711e+000
7.712941e+002,5.359497e-001
7.722583e+002,-1.334778e+000
7.732225e+002,-7.141113e-003
7.741868e+002,2.358246e+000
7.751510e+002,4.573547e+000
7.761152e+002,6.344513e+000
7.770795e+002,7.308563e+000
7.780437e+002,7.097656e+000
7.790079e+002,5.851410e+000
7.799722e+002,5.489594e+000
7.809364e+002,6.150757e+000
7.819006e+002,6.307648e+000
7.828649e+002,5.073059e+000
7.838291e+002,3.112549e+000
7.847933e+002,2.399292e+000
7.857576e+002,3.889221e+000
7.867218e+002,4.382477e+000
7.876860e+002,2.805908e+000
7.886503e+002,9.587708e-001
7.896145e+002,3.639832e-001
7.905787e+002,1.389862e+000
7.915430e+002,2.969940e+000
7.925072e+002,3.819885e+000
7.934714e+002,4.310242e+000
7.944357e+002,5.405975e+000
7.953999e+002,7.112000e+000
7.963641e+002,8.523682e+000
7.973284e+002,8.501587e+000
7.982926e+002,6.937866e+000
7.992568e+002,6.015015e+000
8.002211e+002,5.966553e+000
8.011853e+002,5.029114e+000
8.021495e+002,1.857635e+000
8.031138e+002,-2.223480e+000
8.040780e+002,-3.313171e+000
8.050422e+002,8.952026e-001
8.060065e+002,4.966492e+000
8.069707e+002,6.982697e+000
8.079349e+002,7.844482e+000
8.088992e+002,8.633179e+000
8.098634e+002,9.801727e+000
8.108276e+002,1.072580e+001
8.117919e+002,9.780762e+000
8.127561e+002,7.609497e+000
8.137203e+002,6.533325e+000
8.146846e+002,7.031158e+000
8.156488e+002,7.858307e+000
8.166130e+002,7.216614e+000
8.175773e+002,4.575500e+000
8.185415e+002,3.280701e+000
8.195057e+002,3.432281e+000
8.204700e+002,4.050079e+000
8.214342e+002,5.298035e+000
8.223984e+002,6.779694e+000
8.233627e+002,7.510742e+000
8.243269e+002,7.017670e+000
8.252911e+002,6.139771e+000
8.262554e+002,5.032379e+000
8.272196e+002,4.039337e+000
8.281838e+002,3.512024e+000
8.291481e+002,3.553284e+000
8.301123e+002,3.988831e+000
8.310765e+002,4.625122e+000
8.320408e+002,5.336456e+000
8.330050e+002,5.536560e+000
8.339692e+002,5.119415e+000
8.349335e+002,4.609650e+000
8.358977e+002,4.543121e+000
8.368619e+002,5.051208e+000
8.378262e+002,6.048431e+000
8.387904e+002,8.005890e+000
8.397546e+002,9.516541e+000
8.407189e+002,9.977295e+000
8.416831e+002,9.864288e+000
8.426473e+002,1.006818e+001
8.436116e+002,1.107153e+001
8.445758e+002,1.225748e+001
8.455400e+002,1.304608e+001
8.465043e+002,1.312698e+001
8.474685e+002,1.206094e+001
8.484327e+002,1.008923e+001
8.493970e+002,8.220276e+000
8.503612e+002,7.883148e+000
8.513254e+002,9.288422e+000
8.522897e+002,1.016208e+001
8.532539e+002,1.035214e+001
8.542181e+002,1.000562e+001
8.551824e+002,8.790955e+000
8.561466e+002,7.212036e+000
8.571108e+002,7.714661e+000
8.580751e+002,1.209747e+001
8.590393e+002,1.582657e+001
8.600035e+002,1.788144e+001
8.609678e+002,1.874857e+001
8.619320e+002,1.852527e+001
8.628962e+002,1.739114e+001
8.638605e+002,1.655481e+001
8.648247e+002,1.869916e+001
8.657889e+002,2.223444e+001
8.667532e+002,2.364914e+001
8.677174e+002,2.248633e+001
8.686816e+002,2.047031e+001
8.696459e+002,1.960529e+001
8.706101e+002,2.019489e+001
8.715743e+002,2.066885e+001
8.725386e+002,2.081473e+001
8.735028e+002,2.117230e+001
8.744670e+002,2.194852e+001
8.754313e+002,2.267706e+001
8.763955e+002,2.259656e+001
8.773597e+002,2.134201e+001
8.783240e+002,2.015030e+001
8.792882e+002,1.968784e+001
8.802524e+002,1.961884e+001
8.812167e+002,1.955682e+001
8.821809e+002,1.956744e+001
8.831451e+002,2.041266e+001
8.841094e+002,2.330450e+001
8.850736e+002,2.814566e+001
8.860378e+002,2.972482e+001
8.870021e+002,2.712094e+001
8.879663e+002,2.453445e+001
8.889305e+002,2.456680e+001
8.898948e+002,2.652145e+001
8.908590e+002,2.706586e+001
8.918232e+002,2.474405e+001
8.927875e+002,2.350397e+001
8.937517e+002,2.497067e+001
8.947159e+002,2.715381e+001
8.956802e+002,2.825150e+001
8.966444e+002,2.778149e+001
8.976086e+002,2.658670e+001
8.985729e+002,2.521625e+001
8.995371e+002,2.451233e+001
9.005013e+002,2.595996e+001
9.014656e+002,2.922083e+001
9.024298e+002,3.212042e+001
9.033940e+002,3.278604e+001
9.043583e+002,3.142068e+001
9.053225e+002,3.114746e+001
9.062867e+002,3.300525e+001
9.072510e+002,3.434305e+001
9.082152e+002,3.584207e+001
9.091794e+002,3.681659e+001
9.101437e+002,3.600757e+001
9.111079e+002,3.316190e+001
9.120721e+002,3.096255e+001
9.130364e+002,3.134772e+001
9.140006e+002,3.218878e+001
9.149648e+002,3.237976e+001
9.159291e+002,3.235205e+001
9.168933e+002,3.331952e+001
9.178575e+002,3.597495e+001
9.188218e+002,3.909671e+001
9.197860e+002,3.821027e+001
9.207502e+002,3.308075e+001
9.217145e+002,2.962027e+001
9.226787e+002,3.001395e+001
9.236429e+002,3.204593e+001
9.246072e+002,3.242511e+001
9.255714e+002,3.053384e+001
9.265356e+002,2.936075e+001
9.274999e+002,3.028775e+001
9.284641e+002,3.082962e+001
9.294283e+002,3.015939e+001
9.303926e+002,2.865390e+001
9.313568e+002,2.684927e+001
9.323210e+002,2.494031e+001
9.332853e+002,2.342941e+001
9.342495e+002,2.388110e+001
9.352137e+002,2.508398e+001
9.361780e+002,2.540433e+001
9.371422e+002,2.464911e+001
9.381064e+002,2.326532e+001
9.390707e+002,2.144177e+001
9.400349e+002,1.859653e+001
9.409991e+002,1.768564e+001
9.419634e+002,1.984579e+001
9.429276e+002,2.206607e+001
9.438918e+002,2.390897e+001
9.448561e+002,2.530914e+001
9.458203e+002,2.618954e+001
9.467845e+002,2.653790e+001
9.477488e+002,2.672061e+001
9.487130e+002,2.681409e+001
9.496772e+002,2.689648e+001
9.506415e+002,2.717010e+001
9.516057e+002,2.752521e+001
9.525699e+002,2.743311e+001
9.535342e+002,2.631149e+001
9.544984e+002,2.433878e+001
9.554626e+002,2.407907e+001
9.564269e+002,2.612775e+001
9.573911e+002,2.814392e+001
9.583553e+002,3.003503e+001
9.593196e+002,3.116818e+001
9.602838e+002,2.996228e+001
9.612480e+002,2.537759e+001
9.622123e+002,2.231451e+001
9.631765e+002,2.424939e+001
9.641407e+002,2.607919e+001
9.651050e+002,2.475937e+001
9.660692e+002,2.133096e+001
9.670334e+002,1.875348e+001
9.679977e+002,1.901346e+001
9.689619e+002,2.076315e+001
9.699261e+002,2.007242e+001
9.708904e+002,1.788715e+001
9.718546e+002,1.804453e+001
9.728188e+002,2.168973e+001
9.737831e+002,2.618716e+001
9.747473e+002,2.790720e+001
9.757115e+002,2.619452e+001
9.766758e+002,2.568729e+001
9.776400e+002,2.763565e+001
9.786042e+002,2.965363e+001
9.795685e+002,3.151306e+001
9.805327e+002,3.267038e+001
9.814969e+002,3.229697e+001
9.824612e+002,3.024445e+001
9.834254e+002,2.852908e+001
9.843896e+002,2.993433e+001
9.853539e+002,3.182462e+001
9.863181e+002,3.066406e+001
9.872823e+002,2.678790e+001
9.882466e+002,2.363458e+001
9.892108e+002,2.443436e+001
9.901750e+002,2.867401e+001
9.911393e+002,3.018671e+001
9.921035e+002,2.519977e+001
9.930677e+002,2.226749e+001
9.940320e+002,2.255579e+001
9.949962e+002,2.480569e+001
9.959604e+002,2.839258e+001
9.969247e+002,3.317801e+001
9.978889e+002,3.784860e+001
9.988531e+002,4.186380e+001
9.998174e+002,4.466833e+001
1.000782e+003,4.586975e+001
1.001746e+003,4.619720e+001
1.002710e+003,4.659558e+001
1.003674e+003,4.742337e+001
1.004639e+003,4.820941e+001
1.005603e+003,4.811816e+001
1.006567e+003,4.695419e+001
1.007531e+003,4.585492e+001
1.008495e+003,4.484656e+001
1.009460e+003,4.392047e+001
1.010424e+003,4.295831e+001
1.011388e+003,4.214716e+001
1.012352e+003,4.221201e+001
1.013317e+003,4.396826e+001
1.014281e+003,4.476004e+001
1.015245e+003,4.375803e+001
1.016209e+003,4.156903e+001
1.017174e+003,3.824789e+001
1.018138e+003,3.422791e+001
1.019102e+003,3.017825e+001
1.020066e+003,2.656927e+001
1.021031e+003,2.391202e+001
1.021995e+003,2.396176e+001
1.022959e+003,2.588843e+001
1.023923e+003,2.676172e+001
1.024887e+003,2.553644e+001
1.025852e+003,2.288812e+001
1.026816e+003,1.974832e+001
1.027780e+003,1.605157e+001
1.028744e+003,1.307681e+001
1.029709e+003,1.023407e+001
1.030673e+003,8.800476e+000
1.031637e+003,1.042337e+001
1.032601e+003,1.304529e+001
1.033566e+003,1.361047e+001
1.034530e+003,1.118536e+001
1.035494e+003,8.566833e+000
1.036458e+003,8.976929e+000
1.037422e+003,1.095062e+001
1.038387e+003,1.235104e+001
1.039351e+003,1.295734e+001
1.040315e+003,1.262860e+001
1.041279e+003,1.117435e+001
1.042244e+003,9.071716e+000
1.043208e+003,8.307800e+000
1.044172e+003,1.003400e+001
1.045136e+003,1.067096e+001
1.046101e+003,1.004788e+001
1.047065e+003,8.744385e+000
1.048029e+003,6.028381e+000
1.048993e+003,2.728516e+000
1.049958e+003,1.896271e+000
1.050922e+003,5.858765e+000
1.051886e+003,1.077719e+001
1.052850e+003,1.275702e+001
1.053814e+003,1.314606e+001
1.054779e+003,1.364719e+001
1.055743e+003,1.455685e+001
1.056707e+003,1.478375e+001
1.057671e+003,1.286566e+001
1.058636e+003,8.734222e+000
1.059600e+003,7.569275e+000
1.060564e+003,1.306662e+001
1.061528e+003,1.659698e+001
1.062493e+003,1.564545e+001
1.063457e+003,1.266214e+001
1.064421e+003,9.986816e+000
1.065385e+003,8.049896e+000
1.066349e+003,7.410553e+000
1.067314e+003,9.228516e+000
1.068278e+003,1.149304e+001
1.069242e+003,1.339966e+001
1.070206e+003,1.467300e+001
1.071171e+003,1.444165e+001
1.072135e+003,1.247702e+001
1.073099e+003,1.007947e+001
1.074063e+003,9.661957e+000
1.075028e+003,1.154111e+001
1.075992e+003,1.292184e+001
1.076956e+003,1.422495e+001
1.077920e+003,1.416641e+001
1.078885e+003,1.118115e+001
1.079849e+003,7.224487e+000
1.080813e+003,6.100800e+000
1.081777e+003,8.891602e+000
1.082741e+003,1.149414e+001
1.083706e+003,1.117911e+001
1.084670e+003,1.020090e+001
1.085634e+003,9.137573e+000
1.086598e+003,8.493408e+000
1.087563e+003,9.427979e+000
1.088527e+003,1.248425e+001
1.089491e+003,1.604922e+001
1.090455e+003,1.646286e+001
1.091420e+003,1.310507e+001
1.092384e+003,1.079312e+001
1.093348e+003,9.752777e+000
1.094312e+003,8.946198e+000
1.095276e+003,8.053101e+000
1.096241e+003,7.197083e+000
1.097205e+003,6.210785e+000
1.098169e+003,4.551666e+000
1.099133e+003,3.778717e+000
1.100098e+003,4.642242e+000
1.101062e+003,6.510712e+000
1.102026e+003,9.708435e+000
1.102990e+003,1.355945e+001
1.103955e+003,1.693176e+001
1.104919e+003,1.909180e+001
1.105883e+003,1.992670e+001
1.106847e+003,1.900870e+001
1.107812e+003,1.628473e+001
1.108776e+003,1.466821e+001
1.109740e+003,1.470294e+001
1.110704e+003,1.497171e+001
1.111668e+003,1.431314e+001
1.112633e+003,1.326175e+001
1.113597e+003,1.383002e+001
1.114561e+003,1.724387e+001
1.115525e+003,1.932166e+001
1.116490e+003,1.767203e+001
1.117454e+003,1.546082e+001
1.118418e+003,1.444153e+001
1.119382e+003,1.494376e+001
1.120347e+003,1.682440e+001
1.121311e+003,1.980807e+001
1.122275e+003,2.286322e+001
1.123239e+003,2.445599e+001
1.124203e+003,2.493854e+001
1.125168e+003,2.537869e+001
1.126132e+003,2.574518e+001
1.127096e+003,2.653555e+001
1.128060e+003,2.817276e+001
1.129025e+003,3.040213e+001
1.129989e+003,3.253723e+001
1.130953e+003,3.499564e+001
1.131917e+003,3.594522e+001
1.132882e+003,3.397723e+001
1.133846e+003,3.171970e+001
1.134810e+003,3.037137e+001
1.135774e+003,3.017407e+001
1.136739e+003,3.085275e+001
1.137703e+003,3.224838e+001
1.138667e+003,3.497665e+001
1.139631e+003,4.093088e+001
1.140595e+003,4.947501e+001
1.141560e+003,5.535510e+001
1.142524e+003,5.775171e+001
1.143488e+003,6.025610e+001
1.144452e+003,6.461737e+001
1.145417e+003,7.090848e+001
1.146381e+003,7.968292e+001
1.147345e+003,9.175137e+001
1.148309e+003,1.039880e+002
1.149274e+003,1.166828e+002
1.150238e+003,1.285256e+002
1.151202e+003,1.387991e+002
1.152166e+003,1.479556e+002
1.153130e+003,1.571855e+002
1.154095e+003,1.666667e+002
1.155059e+003,1.742031e+002
1.156023e+003,1.770837e+002
1.156987e+003,1.753202e+002
1.157952e+003,1.704496e+002
1.158916e+003,1.623946e+002
1.159880e+003,1.543329e+002
1.160844e+003,1.478638e+002
1.161809e+003,1.417358e+002
1.162773e+003,1.338359e+002
1.163737e+003,1.239737e+002
1.164701e+003,1.132765e+002
1.165666e+003,9.997119e+001
1.166630e+003,8.839105e+001
1.167594e+003,8.032266e+001
1.168558e+003,7.484387e+001
1.169522e+003,7.080630e+001
1.170487e+003,6.772394e+001
1.171451e+003,6.571390e+001
1.172415e+003,6.489114e+001
1.173379e+003,6.512436e+001
1.174344e+003,6.659592e+001
1.175308e+003,6.965829e+001
1.176272e+003,7.070966e+001
1.177236e+003,6.734778e+001
1.178201e+003,6.252383e+001
1.179165e+003,6.010565e+001
1.180129e+003,5.995187e+001
1.181093e+003,5.863745e+001
1.182057e+003,5.451889e+001
1.183022e+003,5.082657e+001
1.183986e+003,4.852594e+001
1.184950e+003,4.734097e+001
1.185914e+003,4.755710e+001
1.186879e+003,4.876520e+001
1.187843e+003,4.963751e+001
1.188807e+003,4.900073e+001
1.189771e+003,4.743826e+001
1.190736e+003,4.693805e+001
1.191700e+003,4.753943e+001
1.192664e+003,4.889069e+001
1.193628e+003,5.271426e+001
1.194593e+003,5.530164e+001
1.195557e+003,5.280612e+001
1.196521e+003,4.678912e+001
1.197485e+003,4.304175e+001
1.198449e+003,4.304694e+001
1.199414e+003,4.349146e+001
1.200378e+003,4.406995e+001
1.201342e+003,4.355820e+001
1.202306e+003,3.967355e+001
1.203271e+003,3.414093e+001
1.204235e+003,3.088672e+001
1.205199e+003,3.168619e+001
1.206163e+003,3.401675e+001
1.207128e+003,3.359924e+001
1.208092e+003,3.029395e+001
1.209056e+003,2.695309e+001
1.210020e+003,2.338312e+001
1.210984e+003,2.019125e+001
1.211949e+003,1.723801e+001
1.212913e+003,1.483972e+001
1.213877e+003,1.406998e+001
1.214841e+003,1.493237e+001
1.215806e+003,1.447278e+001
1.216770e+003,1.084442e+001
1.217734e+003,6.564819e+000
1.218698e+003,2.697205e+000
1.219663e+003,-5.007019e-001
1.220627e+003,-2.419617e+000
1.221591e+003,-3.150146e+000
1.222555e+003,-3.704407e+000
1.223520e+003,-5.021393e+000
1.224484e+003,-6.514404e+000
1.225448e+003,-5.740173e+000
1.226412e+003,-7.769775e-001
1.227376e+003,1.961670e+000
1.228341e+003,8.468933e-001
1.229305e+003,-7.232361e-001
1.230269e+003,-4.880676e-001
1.231233e+003,4.567566e-001
1.232198e+003,-6.928406e-001
1.233162e+003,-4.718323e+000
1.234126e+003,-7.718140e+000
1.235090e+003,-5.821503e+000
1.236055e+003,-2.829468e+000
1.237019e+003,-3.277863e+000
1.237983e+003,-6.071411e+000
1.238947e+003,-7.780060e+000
1.239911e+003,-6.878113e+000
1.240876e+003,-4.857330e+000
1.241840e+003,-4.053070e+000
1.242804e+003,-4.542175e+000
1.243768e+003,-4.596832e+000
1.244733e+003,-3.890900e+000
1.245697e+003,-3.122955e+000
1.246661e+003,-2.813995e+000
1.247625e+003,-2.433807e+000
1.248590e+003,-1.161072e+000
1.249554e+003,7.995605e-001
1.250518e+003,2.582428e+000
1.251482e+003,3.746826e+000
1.252447e+003,3.801056e+000
1.253411e+003,1.223114e+000
1.254375e+003,-2.098022e+000
1.255339e+003,-2.073883e+000
1.256303e+003,1.444427e+000
1.257268e+003,5.617706e+000
1.258232e+003,9.101898e+000
1.259196e+003,1.142389e+001
1.260160e+003,1.141776e+001
1.261125e+003,8.612305e+000
1.262089e+003,7.653229e+000
1.263053e+003,1.058835e+001
1.264017e+003,1.307434e+001
1.264982e+003,1.434647e+001
1.265946e+003,1.470569e+001
1.266910e+003,1.416571e+001
1.267874e+003,1.303537e+001
1.268839e+003,1.205350e+001
1.269803e+003,1.173428e+001
1.270767e+003,1.158121e+001
1.271731e+003,1.066159e+001
1.272695e+003,9.049530e+000
1.273660e+003,7.101929e+000
1.274624e+003,4.113861e+000
1.275588e+003,1.805817e+000
1.276552e+003,1.960907e+000
1.277517e+003,3.408630e+000
1.278481e+003,3.603638e+000
1.279445e+003,2.248535e+000
1.280409e+003,1.055847e+000
1.281374e+003,9.979858e-001
1.282338e+003,6.799622e-001
1.283302e+003,-1.618774e+000
1.284266e+003,-4.001404e+000
1.285230e+003,-3.621155e+000
1.286195e+003,-7.527466e-001
1.287159e+003,1.547729e+000
1.288123e+003,8.482056e-001
1.289087e+003,-1.930389e+000
1.290052e+003,-4.455353e+000
1.291016e+003,-7.231140e+000
1.291980e+003,-8.268860e+000
1.292944e+003,-6.535004e+000
1.293909e+003,-4.940094e+000
1.294873e+003,-4.147461e+000
1.295837e+003,-4.058563e+000
1.296801e+003,-4.958801e+000
1.297766e+003,-6.730743e+000
1.298730e+003,-8.042114e+000
1.299694e+003,-8.412048e+000
1.300658e+003,-7.935608e+000
1.301622e+003,-5.899628e+000
1.302587e+003,-3.296906e+000
1.303551e+003,-1.849396e+000
1.304515e+003,-1.757874e+000
1.305479e+003,-2.256073e+000
1.306444e+003,-3.034088e+000
1.307408e+003,-3.821686e+000
1.308372e+003,-3.166748e+000
1.309336e+003,-2.202759e-001
1.310301e+003,1.470276e+000
1.311265e+003,1.867493e+000
1.312229e+003,1.087982e+000
1.313193e+003,-2.346802e+000
1.314157e+003,-6.056519e+000
1.315122e+003,-7.370514e+000
1.316086e+003,-6.316498e+000
1.317050e+003,-4.893372e+000
1.318014e+003,-4.285156e+000
1.318979e+003,-4.174469e+000
1.319943e+003,-4.427032e+000
1.320907e+003,-4.765289e+000
1.321871e+003,-3.520660e+000
1.322836e+003,-2.036133e-001
1.323800e+003,2.205353e+000
1.324764e+003,1.637756e+000
1.325728e+003,-4.835815e-001
1.326693e+003,-1.948395e+000
1.327657e+003,-2.796753e+000
1.328621e+003,-3.402161e+000
1.329585e+003,-3.101959e+000
1.330549e+003,-2.694763e+000
1.331514e+003,-3.633026e+000
1.332478e+003,-4.754211e+000
1.333442e+003,-4.556122e+000
1.334406e+003,-3.146729e+000
1.335371e+003,-1.622955e+000
1.336335e+003,-6.843872e-001
1.337299e+003,-3.081055e-001
1.338263e+003,-5.702515e-001
1.339228e+003,-1.579803e+000
1.340192e+003,-2.118317e+000
1.341156e+003,-2.494965e+000
1.342120e+003,-2.019775e+000
1.343084e+003,1.416016e-001
1.344049e+003,2.169586e+000
1.345013e+003,2.516479e+000
1.345977e+003,1.705627e+000
1.346941e+003,1.397766e+000
1.347906e+003,2.203918e+000
1.348870e+003,2.993744e+000
1.349834e+003,2.309784e+000
1.350798e+003,1.101379e+000
1.351763e+003,1.761169e+000
1.352727e+003,3.934967e+000
1.353691e+003,5.118805e+000
1.354655e+003,4.306366e+000
1.355620e+003,2.688721e+000
1.356584e+003,1.783142e+000
1.357548e+003,1.503784e+000
1.358512e+003,1.664734e-001
1.359476e+003,-3.642242e+000
1.360441e+003,-5.641693e+000
1.361405e+003,-2.763153e+000
1.362369e+003,1.937256e-001
1.363333e+003,1.134949e+000
1.364298e+003,5.783997e-001
1.365262e+003,-7.820435e-001
1.366226e+003,-2.510040e+000
1.367190e+003,-4.159698e+000
1.368155e+003,-5.349426e+000
1.369119e+003,-5.983185e+000
1.370083e+003,-5.655090e+000
1.371047e+003,-3.963745e+000
1.372011e+003,-2.455200e+000
1.372976e+003,-1.404022e+000
1.373940e+003,-6.077576e-001
1.374904e+003,-1.427917e-001
1.375868e+003,3.835449e-001
1.376833e+003,1.764038e+000
1.377797e+003,3.741669e+000
1.378761e+003,4.573547e+000
1.379725e+003,3.401947e+000
1.380690e+003,1.471466e+000
1.381654e+003,-4.255066e-001
1.382618e+003,-1.950165e+000
1.383582e+003,-2.741699e+000
1.384547e+003,-2.744049e+000
1.385511e+003,-1.661621e+000
1.386475e+003,8.737183e-001
1.387439e+003,3.463470e+000
1.388403e+003,3.673523e+000
1.389368e+003,1.492157e+000
1.390332e+003,4.279480e-001
1.391296e+003,1.530487e+000
1.392260e+003,2.090912e+000
1.393225e+003,2.624207e-001
1.394189e+003,-1.017609e+000
1.395153e+003,5.429382e-001
1.396117e+003,3.509430e+000
1.397082e+003,5.753632e+000
1.398046e+003,6.616394e+000
1.399010e+003,6.542633e+000
1.399974e+003,5.769592e+000
1.400938e+003,4.410065e+000
1.401903e+003,3.505096e+000
1.402867e+003,3.714478e+000
1.403831e+003,4.144379e+000
1.404795e+003,4.900330e+000
1.405760e+003,5.203918e+000
1.406724e+003,4.047394e+000
1.407688e+003,2.115479e+000
1.408652e+003,3.429871e-001
1.409617e+003,-8.505554e-001
1.410581e+003,-1.026398e+000
1.411545e+003,1.083984e-001
1.412509e+003,1.599243e+000
1.413474e+003,2.390320e+000
1.414438e+003,2.678955e+000
1.415402e+003,3.593292e+000
1.416366e+003,5.037689e+000
1.417330e+003,5.087280e+000
1.418295e+003,2.644135e+000
1.419259e+003,-8.593750e-002
1.420223e+003,-4.796143e-001
1.421187e+003,9.634399e-001
1.422152e+003,1.940063e+000
1.423116e+003,2.573151e+000
1.424080e+003,2.947754e+000
1.425044e+003,2.453552e+000
1.426009e+003,1.953735e+000
1.426973e+003,1.582916e+000
1.427937e+003,1.519287e+000
1.428901e+003,2.054962e+000
1.429865e+003,3.252686e+000
1.430830e+003,5.056763e+000
1.431794e+003,7.309113e+000
1.432758e+003,9.361053e+000
1.433722e+003,1.008203e+001
1.434687e+003,9.574738e+000
1.435651e+003,1.060483e+001
1.436615e+003,1.513446e+001
1.437579e+003,1.680270e+001
1.438544e+003,1.268469e+001
1.439508e+003,8.160858e+000
1.440472e+003,7.106049e+000
1.441436e+003,8.450287e+000
1.442401e+003,9.682648e+000
1.443365e+003,1.002774e+001
1.444329e+003,9.773956e+000
1.445293e+003,9.023468e+000
1.446257e+003,8.373016e+000
1.447222e+003,9.157959e+000
1.448186e+003,1.099957e+001
1.449150e+003,1.187485e+001
1.450114e+003,1.135287e+001
1.451079e+003,1.063385e+001
1.452043e+003,1.068939e+001
1.453007e+003,1.091946e+001
1.453971e+003,1.003687e+001
1.454936e+003,8.180420e+000
1.455900e+003,7.091034e+000
1.456864e+003,7.199463e+000
1.457828e+003,8.298035e+000
1.458792e+003,1.198264e+001
1.459757e+003,1.474338e+001
1.460721e+003,1.215305e+001
1.461685e+003,6.852295e+000
1.462649e+003,4.922546e+000
1.463614e+003,7.730774e+000
1.464578e+003,1.044891e+001
1.465542e+003,8.380920e+000
1.466506e+003,3.667084e+000
1.467471e+003,3.366394e+000
1.468435e+003,9.046204e+000
1.469399e+003,1.244467e+001
1.470363e+003,1.086676e+001
1.471328e+003,9.637939e+000
1.472292e+003,9.751709e+000
1.473256e+003,1.033917e+001
1.474220e+003,1.112326e+001
1.475184e+003,1.222107e+001
1.476149e+003,1.417651e+001
1.477113e+003,1.670383e+001
1.478077e+003,1.799615e+001
1.479041e+003,1.639520e+001
1.480006e+003,1.312250e+001
1.480970e+003,1.184247e+001
1.481934e+003,1.292392e+001
1.482898e+003,1.354239e+001
1.483863e+003,1.333337e+001
1.484827e+003,1.312793e+001
1.485791e+003,1.313327e+001
1.486755e+003,1.359656e+001
1.487719e+003,1.475012e+001
1.488684e+003,1.630634e+001
1.489648e+003,1.762354e+001
1.490612e+003,1.863052e+001
1.491576e+003,2.031491e+001
1.492541e+003,2.367419e+001
1.493505e+003,2.763895e+001
1.494469e+003,2.967877e+001
1.495433e+003,2.992871e+001
1.496398e+003,3.057526e+001
1.497362e+003,3.222403e+001
1.498326e+003,3.431104e+001
1.499290e+003,3.659000e+001
1.500255e+003,3.903174e+001
1.501219e+003,4.095834e+001
1.502183e+003,4.272415e+001
1.503147e+003,4.690332e+001
1.504111e+003,5.442380e+001
1.505076e+003,6.247397e+001
1.506040e+003,6.958142e+001
1.507004e+003,7.645255e+001
1.507968e+003,8.338980e+001
1.508933e+003,9.076782e+001
1.509897e+003,9.942865e+001
1.510861e+003,1.098220e+002
1.511825e+003,1.215180e+002
1.512790e+003,1.339550e+002
1.513754e+003,1.472341e+002
1.514718e+003,1.622337e+002
1.515682e+003,1.787284e+002
1.516646e+003,1.945950e+002
1.517611e+003,2.105510e+002
1.518575e+003,2.243940e+002
1.519539e+003,2.359918e+002
1.520503e+003,2.451648e+002
1.521468e+003,2.515243e+002
1.522432e+003,2.552628e+002
1.523396e+003,2.566210e+002
1.524360e+003,2.556713e+002
1.525325e+003,2.525258e+002
1.526289e+003,2.473273e+002
1.527253e+003,2.401621e+002
1.528217e+003,2.311548e+002
1.529182e+003,2.205027e+002
1.530146e+003,2.065072e+002
1.531110e+003,1.867949e+002
1.532074e+003,1.676476e+002
1.533039e+003,1.496783e+002
1.534003e+003,1.312119e+002
1.534967e+003,1.098658e+002
1.535931e+003,8.962692e+001
1.536896e+003,7.548361e+001
1.537860e+003,6.691364e+001
1.538824e+003,5.962045e+001
1.539788e+003,5.126413e+001
1.540752e+003,4.320947e+001
1.541717e+003,3.736581e+001
1.542681e+003,3.366473e+001
1.543645e+003,3.085236e+001
1.544609e+003,2.972083e+001
1.545573e+003,2.806696e+001
1.546538e+003,2.452649e+001
1.547502e+003,2.163333e+001
1.548466e+003,2.095059e+001
1.549430e+003,2.137750e+001
1.550395e+003,2.179364e+001
1.551359e+003,2.196786e+001
1.552323e+003,2.231525e+001
1.553287e+003,2.291187e+001
1.554252e+003,2.230289e+001
1.555216e+003,1.891245e+001
1.556180e+003,1.415573e+001
1.557144e+003,1.125235e+001
1.558109e+003,1.038879e+001
1.559073e+003,1.049261e+001
1.560037e+003,1.167725e+001
1.561001e+003,1.282376e+001
1.561966e+003,1.443143e+001
1.562930e+003,1.565579e+001
1.563894e+003,1.490903e+001
1.564858e+003,1.307520e+001
1.565823e+003,1.291190e+001
1.566787e+003,1.476889e+001
1.567751e+003,1.532257e+001
1.568715e+003,1.222437e+001
1.569679e+003,8.865204e+000
1.570644e+003,1.016595e+001
1.571608e+003,1.412927e+001
1.572572e+003,1.516962e+001
1.573536e+003,1.321750e+001
1.574500e+003,1.128571e+001
1.575465e+003,9.666229e+000
1.576429e+003,9.248779e+000
1.577393e+003,1.192960e+001
1.578357e+003,1.568515e+001
1.579322e+003,1.631073e+001
1.580286e+003,1.383554e+001
1.581250e+003,1.182721e+001
1.582214e+003,1.138220e+001
1.583179e+003,1.150558e+001
1.584143e+003,1.166629e+001
1.585107e+003,1.160370e+001
1.586071e+003,1.071350e+001
1.587036e+003,9.776825e+000
1.588000e+003,1.085248e+001
1.588964e+003,1.436371e+001
1.589928e+003,1.761264e+001
1.590893e+003,1.906964e+001
1.591857e+003,1.909793e+001
1.592821e+003,1.746075e+001
1.593785e+003,1.471439e+001
1.594750e+003,1.417941e+001
1.595714e+003,1.654938e+001
1.596678e+003,1.855939e+001
1.597642e+003,1.888101e+001
1.598606e+003,1.853302e+001
1.599571e+003,1.793802e+001
1.600535e+003,1.757245e+001
1.601499e+003,1.838754e+001
1.602463e+003,2.003235e+001
1.603427e+003,2.072372e+001
1.604392e+003,1.965735e+001
1.605356e+003,1.828229e+001
1.606320e+003,1.828754e+001
1.607284e+003,1.906885e+001
1.608249e+003,1.868500e+001
1.609213e+003,1.708508e+001
1.610177e+003,1.591479e+001
1.611141e+003,1.528677e+001
1.612106e+003,1.551083e+001
1.613070e+003,1.757062e+001
1.614034e+003,1.974969e+001
1.614998e+003,2.116257e+001
1.615963e+003,2.170370e+001
1.616927e+003,2.074188e+001
1.617891e+003,1.848093e+001
1.618855e+003,1.692990e+001
1.619820e+003,1.734879e+001
1.620784e+003,1.801581e+001
1.621748e+003,1.618005e+001
1.622712e+003,1.283218e+001
1.623677e+003,1.298563e+001
1.624641e+003,1.758023e+001
1.625605e+003,2.042270e+001
1.626569e+003,1.893210e+001
1.627533e+003,1.652307e+001
1.628498e+003,1.428333e+001
1.629462e+003,1.285803e+001
1.630426e+003,1.337991e+001
1.631390e+003,1.489767e+001
1.632354e+003,1.525409e+001
1.633319e+003,1.401910e+001
1.634283e+003,1.282996e+001
1.635247e+003,1.287378e+001
1.636211e+003,1.359036e+001
1.637176e+003,1.442477e+001
1.638140e+003,1.537875e+001
1.639104e+003,1.472934e+001
1.640068e+003,1.162082e+001
1.641033e+003,9.620941e+000
1.641997e+003,9.986237e+000
1.642961e+003,1.134250e+001
1.643925e+003,1.353247e+001
1.644890e+003,1.581177e+001
1.645854e+003,1.778583e+001
1.646818e+003,1.909659e+001
1.647782e+003,1.865833e+001
1.648747e+003,1.633078e+001
1.649711e+003,1.480707e+001
1.650675e+003,1.685443e+001
1.651639e+003,2.032822e+001
1.652604e+003,1.988638e+001
1.653568e+003,1.563208e+001
1.654532e+003,1.412360e+001
1.655496e+003,1.678094e+001
1.656460e+003,1.826166e+001
1.657425e+003,1.620602e+001
1.658389e+003,1.395837e+001
1.659353e+003,1.309369e+001
1.660317e+003,1.310370e+001
1.661281e+003,1.385925e+001
1.662246e+003,1.487036e+001
1.663210e+003,1.519327e+001
1.664174e+003,1.458823e+001
1.665138e+003,1.333011e+001
1.666103e+003,1.125165e+001
1.667067e+003,9.034515e+000
1.668031e+003,8.362183e+000
1.668995e+003,9.171722e+000
1.669960e+003,9.795776e+000
1.670924e+003,1.016794e+001
1.671888e+003,1.036096e+001
1.672852e+003,9.924835e+000
1.673817e+003,9.778015e+000
1.674781e+003,1.111502e+001
1.675745e+003,1.254218e+001
1.676709e+003,1.225916e+001
1.677674e+003,1.067752e+001
1.678638e+003,9.472687e+000
1.679602e+003,9.171326e+000
1.680566e+003,8.882111e+000
1.681531e+003,7.890350e+000
1.682495e+003,6.813629e+000
1.683459e+003,6.598663e+000
1.684423e+003,6.983521e+000
1.685387e+003,6.988312e+000
1.686352e+003,6.525726e+000
1.687316e+003,6.338654e+000
1.688280e+003,6.944153e+000
1.689244e+003,7.329834e+000
1.690208e+003,6.157410e+000
1.691173e+003,4.662567e+000
1.692137e+003,4.536713e+000
1.693101e+003,5.491760e+000
1.694065e+003,5.826233e+000
1.695030e+003,4.918365e+000
1.695994e+003,4.180908e+000
1.696958e+003,4.742126e+000
1.697922e+003,5.823975e+000
1.698887e+003,6.961334e+000
1.699851e+003,7.800629e+000
1.700815e+003,6.502014e+000
1.701779e+003,2.910522e+000
1.702744e+003,5.556335e-001
1.703708e+003,8.025818e-001
1.704672e+003,2.432495e+000
1.705636e+003,4.993500e+000
1.706601e+003,7.449890e+000
1.707565e+003,8.823334e+000
1.708529e+003,9.259094e+000
1.709493e+003,8.368866e+000
1.710458e+003,5.897614e+000
1.711422e+003,3.797058e+000
1.712386e+003,3.233185e+000
1.713350e+003,3.196259e+000
1.714314e+003,2.416382e+000
1.715279e+003,1.518311e+000
1.716243e+003,2.158630e+000
1.717207e+003,3.995026e+000
1.718171e+003,4.725403e+000
1.719135e+003,3.759888e+000
1.720100e+003,2.568115e+000
1.721064e+003,1.988007e+000
1.722028e+003,1.727661e+000
1.722992e+003,1.558960e+000
1.723957e+003,1.704285e+000
1.724921e+003,2.299988e+000
1.725885e+003,3.155609e+000
1.726849e+003,3.442566e+000
1.727814e+003,3.429535e+000
1.728778e+003,3.045654e+000
1.729742e+003,1.726929e+000
1.730706e+003,3.536682e-001
1.731671e+003,-2.750854e-001
1.732635e+003,-6.415710e-001
1.733599e+003,-1.529816e+000
1.734563e+003,-2.780914e+000
1.735528e+003,-3.625732e+000
1.736492e+003,-3.750549e+000
1.737456e+003,-3.225342e+000
1.738420e+003,-2.028534e+000
1.739385e+003,-5.976257e-001
1.740349e+003,3.451538e-002
1.741313e+003,-1.074219e-001
1.742277e+003,-4.237976e-001
1.743241e+003,-6.255188e-001
1.744206e+003,-1.098999e+000
1.745170e+003,-2.634735e+000
1.746134e+003,-3.812225e+000
1.747098e+003,-3.942200e+000
1.748063e+003,-3.263580e+000
1.749027e+003,-1.564575e+000
1.749991e+003,5.853271e-001
1.750955e+003,2.015472e+000
1.751919e+003,2.260437e+000
1.752884e+003,1.493286e+000
1.753848e+003,-1.690369e-001
1.754812e+003,-2.082886e+000
1.755776e+003,-2.663818e+000
1.756741e+003,-1.812500e+000
1.757705e+003,-2.332916e+000
1.758669e+003,-5.559357e+000
1.759633e+003,-6.672516e+000
1.760598e+003,-3.454102e+000
1.761562e+003,-8.755493e-001
1.762526e+003,-7.814941e-001
1.763490e+003,-1.071594e+000
1.764455e+003,3.948669e-001
1.765419e+003,2.213379e+000
1.766383e+003,1.028046e+000
1.767347e+003,-2.668396e+000
1.768312e+003,-3.895233e+000
1.769276e+003,-2.998657e-001
1.770240e+003,3.581909e+000
1.771204e+003,3.021484e+000
1.772168e+003,4.312134e-002
1.773133e+003,-1.122742e+000
1.774097e+003,-6.832886e-001
1.775061e+003,-6.362915e-001
1.776025e+003,-1.418457e+000
1.776990e+003,-2.429993e+000
1.777954e+003,-3.769745e+000
1.778918e+003,-3.903687e+000
1.779882e+003,-3.832397e-001
1.780846e+003,3.506226e+000
1.781811e+003,3.024475e+000
1.782775e+003,-5.298157e-001
1.783739e+003,-3.119324e+000
1.784703e+003,-4.114990e+000
1.785668e+003,-4.179474e+000
1.786632e+003,-3.086395e+000
1.787596e+003,-2.299347e+000
1.788560e+003,-3.190186e+000
1.789525e+003,-4.292664e+000
1.790489e+003,-3.252411e+000
1.791453e+003,-9.999084e-001
1.792417e+003,-8.471985e-001
1.793382e+003,-3.208557e+000
1.794346e+003,-4.859314e+000
1.795310e+003,-4.100830e+000
1.796274e+003,-2.152771e+000
1.797239e+003,2.157593e-002
1.798203e+003,2.056244e+000
1.799167e+003,1.722107e+000
1.800131e+003,-2.090485e+000
1.801095e+003,-3.640839e+000
1.802060e+003,-2.051697e-001
1.803024e+003,1.702667e+000
1.803988e+003,-5.731201e-002
1.804952e+003,-1.877747e+000
1.805917e+003,-1.781097e+000
1.806881e+003,-1.169464e+000
1.807845e+003,-1.666504e+000
1.808809e+003,-2.692719e+000
1.809773e+003,-2.827850e+000
1.810738e+003,-1.798767e+000
1.811702e+003,-1.477051e-001
1.812666e+003,1.725281e+000
1.813630e+003,2.951538e+000
1.814595e+003,2.168365e+000
1.815559e+003,-3.527832e-002
1.816523e+003,-6.454773e-001
1.817487e+003,7.100220e-001
1.818452e+003,-4.132690e-001
1.819416e+003,-5.926514e+000
1.820380e+003,-8.240936e+000
1.821344e+003,-2.923431e+000
1.822309e+003,2.262054e+000
1.823273e+003,2.330475e+000
1.824237e+003,6.987000e-001
1.825201e+003,6.718445e-001
1.826166e+003,1.670105e+000
1.827130e+003,1.634491e+000
1.828094e+003,1.766357e-001
1.829058e+003,-8.674927e-001
1.830022e+003,-2.958069e-001
1.830987e+003,5.679932e-001
1.831951e+003,7.671509e-001
1.832915e+003,5.010376e-001
1.833879e+003,-1.707458e-001
1.834844e+003,-1.044464e+000
1.835808e+003,-1.562714e+000
1.836772e+003,-1.625916e+000
1.837736e+003,-1.450745e+000
1.838700e+003,-1.208130e+000
1.839665e+003,-1.216492e+000
1.840629e+003,-1.680237e+000
1.841593e+003,-2.505798e+000
1.842557e+003,-3.828918e+000
1.843522e+003,-5.634949e+000
1.844486e+003,-5.930695e+000
1.845450e+003,-3.631561e+000
1.846414e+003,-1.362671e+000
1.847379e+003,1.374664e+000
1.848343e+003,2.711761e+000
1.849307e+003,1.752869e+000
1.850271e+003,-1.861877e-001
1.851236e+003,-3.161743e+000
1.852200e+003,-5.685608e+000
1.853164e+003,-5.863892e+000
1.854128e+003,-4.174194e+000
1.855093e+003,-2.124146e+000
1.856057e+003,-2.966919e-001
1.857021e+003,7.549133e-001
1.857985e+003,4.017334e-001
1.858949e+003,-8.169861e-001
1.859914e+003,-2.078125e+000
1.860878e+003,-3.276245e+000
1.861842e+003,-4.283997e+000
1.862806e+003,-5.182495e+000
1.863771e+003,-4.946136e+000
1.864735e+003,-3.210602e+000
1.865699e+003,-1.533722e+000
1.866663e+003,-1.005554e-001
1.867627e+003,4.581604e-001
1.868592e+003,-1.482422e+000
1.869556e+003,-4.363770e+000
1.870520e+003,-4.706940e+000
1.871484e+003,-2.905884e+000
1.872449e+003,-1.242371e+000
1.873413e+003,9.280396e-001
1.874377e+003,1.943970e+000
1.875341e+003,-8.347778e-001
1.876306e+003,-3.076324e+000
1.877270e+003,-1.744690e+000
1.878234e+003,4.337158e-001
1.879198e+003,6.307983e-001
1.880163e+003,-2.525024e-001
1.881127e+003,6.066895e-002
1.882091e+003,1.530396e+000
1.883055e+003,2.243347e+000
1.884020e+003,1.410645e+000
1.884984e+003,-2.590942e-002
1.885948e+003,-1.213562e+000
1.886912e+003,-2.242004e+000
1.887876e+003,-3.404327e+000
1.888841e+003,-4.562775e+000
1.889805e+003,-3.844757e+000
1.890769e+003,-5.331726e-001
1.891733e+003,5.064697e-001
1.892698e+003,-2.841187e+000
1.893662e+003,-4.723419e+000
1.894626e+003,-1.579285e+000
1.895590e+003,1.656525e+000
1.896554e+003,1.504242e+000
1.897519e+003,-1.460266e-001
1.898483e+003,-2.237122e+000
1.899447e+003,-4.148651e+000
1.900411e+003,-3.020203e+000
1.901376e+003,1.934204e+000
1.902340e+003,5.375946e+000
1.903304e+003,4.701630e+000
1.904268e+003,2.920654e+000
1.905233e+003,1.111053e+000
1.906197e+003,-5.926514e-002
1.907161e+003,5.853271e-001
1.908125e+003,2.208099e+000
1.909090e+003,3.139252e+000
1.910054e+003,3.205597e+000
1.911018e+003,3.390594e+000
1.911982e+003,4.005157e+000
1.912947e+003,3.791534e+000
1.913911e+003,1.762695e+000
1.914875e+003,-5.194397e-001
1.915839e+003,-6.761169e-001
1.916803e+003,8.423157e-001
1.917768e+003,2.801056e+000
1.918732e+003,5.663361e+000
1.919696e+003,6.734467e+000
1.920660e+003,5.359558e+000
1.921625e+003,4.299927e+000
1.922589e+003,4.003479e+000
1.923553e+003,4.066925e+000
1.924517e+003,4.925842e+000
1.925481e+003,5.536346e+000
1.926446e+003,4.274841e+000
1.927410e+003,2.387085e+000
1.928374e+003,2.552612e+000
1.929338e+003,4.663605e+000
1.930303e+003,6.145782e+000
1.931267e+003,6.571716e+000
1.932231e+003,6.665985e+000
1.933195e+003,6.216827e+000
1.934160e+003,5.737610e+000
1.935124e+003,5.356049e+000
1.936088e+003,5.237823e+000
1.937052e+003,6.510193e+000
1.938017e+003,8.183075e+000
1.938981e+003,7.357300e+000
1.939945e+003,4.225616e+000
1.940909e+003,2.289978e+000
1.941874e+003,2.969452e+000
1.942838e+003,3.685638e+000
1.943802e+003,2.124084e+000
1.944766e+003,2.651978e-002
1.945730e+003,7.718811e-001
1.946695e+003,3.744049e+000
1.947659e+003,4.878448e+000
1.948623e+003,3.976746e+000
1.949587e+003,2.891663e+000
1.950552e+003,1.847473e+000
1.951516e+003,9.172058e-001
1.952480e+003,5.313110e-002
1.953444e+003,-5.888672e-001
1.954408e+003,-1.172791e+000
1.955373e+003,-1.440918e+000
1.956337e+003,-1.737366e-001
1.957301e+003,2.081543e+000
1.958265e+003,2.286804e+000
1.959230e+003,1.495361e-003
1.960194e+003,-8.337097e-001
1.961158e+003,9.773865e-001
1.962122e+003,2.609802e+000
1.963087e+003,3.624542e+000
1.964051e+003,4.040070e+000
1.965015e+003,3.620819e+000
1.965979e+003,3.194183e+000
1.966944e+003,3.125671e+000
1.967908e+003,3.518616e+000
1.968872e+003,5.127655e+000
1.969836e+003,7.481384e+000
1.970801e+003,8.444977e+000
1.971765e+003,7.196869e+000
1.972729e+003,5.242157e+000
1.973693e+003,3.581238e+000
1.974657e+003,2.637817e+000
1.975622e+003,3.591339e+000
1.976586e+003,5.433044e+000
1.977550e+003,5.216858e+000
1.978514e+003,3.479187e+000
1.979479e+003,3.455261e+000
1.980443e+003,5.454559e+000
1.981407e+003,6.800507e+000
1.982371e+003,6.554810e+000
1.983335e+003,6.083405e+000
1.984300e+003,6.319641e+000
1.985264e+003,6.625488e+000
1.986228e+003,6.173309e+000
1.987192e+003,5.026001e+000
1.988157e+003,3.442474e+000
1.989121e+003,1.151764e+000
1.990085e+003,3.087158e-001
1.991049e+003,1.806244e+000
1.992014e+003,3.171906e+000
1.992978e+003,3.670013e+000
1.993942e+003,4.390625e+000
1.994906e+003,7.146820e+000
1.995871e+003,8.811279e+000
1.996835e+003,5.554169e+000
1.997799e+003,7.883606e-001
1.998763e+003,-4.210510e-001
1.999728e+003,1.493317e+000
