5.003444e+002,4.509932e+001
5.013087e+002,4.355708e+001
5.022729e+002,4.214418e+001
5.032371e+002,4.083446e+001
5.042014e+002,3.872041e+001
5.051656e+002,3.602193e+001
5.061298e+002,3.382405e+001
5.070941e+002,3.311145e+001
5.080583e+002,3.408560e+001
5.090225e+002,3.514737e+001
5.099868e+002,3.657707e+001
5.109510e+002,3.778185e+001
5.119152e+002,3.857448e+001
5.128795e+002,3.896902e+001
5.138437e+002,3.869447e+001
5.148079e+002,3.686722e+001
5.157722e+002,3.515376e+001
5.167364e+002,3.414384e+001
5.177006e+002,3.390396e+001
5.186649e+002,3.413860e+001
5.196291e+002,3.524886e+001
5.205933e+002,3.639296e+001
5.215576e+002,3.604030e+001
5.225218e+002,3.412788e+001
5.234860e+002,3.169426e+001
5.244503e+002,3.075549e+001
5.254145e+002,3.207336e+001
5.263787e+002,3.306142e+001
5.273430e+002,3.389018e+001
5.283072e+002,3.429333e+001
5.292714e+002,3.360077e+001
5.302357e+002,3.050618e+001
5.311999e+002,2.882294e+001
5.321641e+002,3.062218e+001
5.331284e+002,3.286552e+001
5.340926e+002,3.281592e+001
5.350568e+002,2.925635e+001
5.360211e+002,2.530035e+001
5.369853e+002,2.396664e+001
5.379495e+002,2.381487e+001
5.389138e+002,2.377211e+001
5.398780e+002,2.336327e+001
5.408422e+002,2.284370e+001
5.418065e+002,2.304173e+001
5.427707e+002,2.386295e+001
5.437349e+002,2.488275e+001
5.446992e+002,2.614471e+001
5.456634e+002,2.739624e+001
5.466276e+002,2.778485e+001
5.475919e+002,2.612970e+001
5.485561e+002,2.513635e+001
5.495203e+002,2.545430e+001
5.504846e+002,2.619785e+001
5.514488e+002,2.605779e+001
5.524130e+002,2.426009e+001
5.533773e+002,2.247491e+001
5.543415e+002,2.155927e+001
5.553057e+002,2.110748e+001
5.562700e+002,2.069339e+001
5.572342e+002,2.003711e+001
5.581984e+002,1.927994e+001
5.591627e+002,1.901057e+001
5.601269e+002,1.906866e+001
5.610911e+002,1.885352e+001
5.620554e+002,1.798347e+001
5.630196e+002,1.653830e+001
5.639838e+002,1.571318e+001
5.649481e+002,1.636179e+001
5.659123e+002,1.641043e+001
5.668765e+002,1.524188e+001
5.678408e+002,1.338571e+001
5.688050e+002,1.213049e+001
5.697692e+002,1.174013e+001
5.707335e+002,1.175241e+001
5.716977e+002,1.272510e+001
5.726619e+002,1.385703e+001
5.736262e+002,1.393626e+001
5.745904e+002,1.194855e+001
5.755546e+002,9.552246e+000
5.765189e+002,9.222641e+000
5.774831e+002,1.018979e+001
5.784473e+002,1.152243e+001
5.794116e+002,1.263208e+001
5.803758e+002,1.354889e+001
5.813400e+002,1.333231e+001
5.823043e+002,1.136047e+001
5.832685e+002,9.724472e+000
5.842327e+002,9.375946e+000
5.851970e+002,1.021658e+001
5.861612e+002,1.108318e+001
5.871254e+002,1.226970e+001
5.880897e+002,1.273451e+001
5.890539e+002,1.121077e+001
5.900181e+002,8.959213e+000
5.909824e+002,8.378418e+000
5.919466e+002,1.186411e+001
5.929108e+002,1.551480e+001
5.938751e+002,1.484349e+001
5.948393e+002,1.166631e+001
5.958035e+002,8.719864e+000
5.967678e+002,8.016846e+000
5.977320e+002,9.227493e+000
5.986962e+002,9.255920e+000
5.996605e+002,7.913071e+000
6.006247e+002,6.912048e+000
6.015889e+002,7.453751e+000
6.025532e+002,9.380142e+000
6.035174e+002,1.012289e+001
6.044816e+002,7.922348e+000
6.054459e+002,6.424393e+000
6.064101e+002,6.292542e+000
6.073743e+002,7.181915e+000
6.083386e+002,8.529663e+000
6.093028e+002,1.048425e+001
6.102670e+002,1.199210e+001
6.112313e+002,1.201836e+001
6.121955e+002,1.127728e+001
6.131597e+002,1.073344e+001
6.141240e+002,1.103453e+001
6.150882e+002,1.185738e+001
6.160524e+002,1.200908e+001
6.170167e+002,1.167108e+001
6.179809e+002,1.069168e+001
6.189451e+002,8.661560e+000
6.199094e+002,5.749634e+000
6.208736e+002,3.729919e+000
6.218378e+002,3.341293e+000
6.228021e+002,3.386230e+000
6.237663e+002,4.200272e+000
6.247305e+002,5.323090e+000
6.256948e+002,5.900040e+000
6.266590e+002,5.159393e+000
6.276232e+002,4.579834e+000
6.285875e+002,5.539337e+000
6.295517e+002,7.024734e+000
6.305159e+002,7.919708e+000
6.314802e+002,7.590927e+000
6.324444e+002,6.448654e+000
6.334086e+002,5.516617e+000
6.343729e+002,4.878647e+000
6.353371e+002,4.779602e+000
6.363013e+002,5.400772e+000
6.372656e+002,6.392822e+000
6.382298e+002,6.603622e+000
6.391940e+002,5.407974e+000
6.401583e+002,4.016891e+000
6.411225e+002,2.045212e+000
6.420867e+002,3.274384e-001
6.430510e+002,-1.358185e-001
6.440152e+002,1.095825e+000
6.449794e+002,2.607361e+000
6.459437e+002,4.458633e+000
6.469079e+002,5.730011e+000
6.478721e+002,5.271759e+000
6.488364e+002,2.952057e+000
6.498006e+002,2.103577e-001
6.507648e+002,-3.101044e-001
6.517291e+002,6.477661e-001
6.526933e+002,1.450790e+000
6.536575e+002,1.787170e+000
6.546218e+002,1.905701e+000
6.555860e+002,2.304184e+000
6.565502e+002,3.179810e+000
6.575145e+002,3.893265e+000
6.584787e+002,4.987320e+000
6.594429e+002,5.557114e+000
6.604072e+002,4.565231e+000
6.613714e+002,1.683319e+000
6.623356e+002,-8.326111e-001
6.632999e+002,-2.039551e+000
6.642641e+002,-2.668701e+000
6.652283e+002,-2.940018e+000
6.661926e+002,-2.846359e+000
6.671568e+002,-2.128662e+000
6.681210e+002,-1.684113e-001
6.690853e+002,2.166061e+000
6.700495e+002,2.699860e+000
6.710137e+002,1.495087e+000
6.719780e+002,-1.149597e-001
6.729422e+002,-7.251282e-001
6.739064e+002,-1.332397e-001
6.748707e+002,5.401611e-002
6.758349e+002,-6.979828e-001
6.767991e+002,-1.182388e+000
6.777634e+002,-3.747253e-001
6.787276e+002,1.532623e+000
6.796918e+002,2.605881e+000
6.806561e+002,9.991913e-001
6.816203e+002,-5.917206e-001
6.825845e+002,-1.376526e+000
6.835488e+002,-1.362625e+000
6.845130e+002,-4.946442e-001
6.854772e+002,1.429245e+000
6.864415e+002,3.592819e+000
6.874057e+002,3.842041e+000
6.883699e+002,2.630783e+000
6.893342e+002,1.159500e+000
6.902984e+002,5.435181e-002
6.912626e+002,-5.579224e-001
6.922269e+002,-5.441284e-002
6.931911e+002,3.833344e+000
6.941553e+002,6.026810e+000
6.951196e+002,4.768570e+000
6.960838e+002,1.850296e+000
6.970480e+002,2.804108e-001
6.980123e+002,1.259109e+000
6.989765e+002,2.304626e+000
6.999407e+002,2.404770e+000
7.009050e+002,2.066406e+000
7.018692e+002,1.484207e+000
7.028334e+002,8.120270e-001
7.037977e+002,3.570709e-001
7.047619e+002,1.145691e+000
7.057261e+002,2.463120e+000
7.066904e+002,2.321777e+000
7.076546e+002,4.014130e-001
7.086188e+002,-1.913620e+000
7.095831e+002,-2.395111e+000
7.105473e+002,-3.894501e-001
7.115115e+002,1.389282e+000
7.124758e+002,3.464981e+000
7.134400e+002,4.817795e+000
7.144042e+002,4.650070e+000
7.153685e+002,3.024460e+000
7.163327e+002,1.316193e+000
7.172969e+002,-5.496979e-001
7.182612e+002,-1.642654e+000
7.192254e+002,-1.068558e+000
7.201896e+002,5.308380e-001
7.211539e+002,1.870026e+000
7.221181e+002,1.840775e+000
7.230823e+002,1.100189e+000
7.240466e+002,1.718521e+000
7.250108e+002,3.426315e+000
7.259750e+002,4.698807e+000
7.269393e+002,4.428040e+000
7.279035e+002,2.776596e+000
7.288677e+002,2.119522e+000
7.298320e+002,4.664902e+000
7.307962e+002,5.890579e+000
7.317604e+002,4.387115e+000
7.327247e+002,1.870636e+000
7.336889e+002,8.450470e-001
7.346531e+002,2.297119e+000
7.356174e+002,3.244080e+000
7.365816e+002,1.658020e+000
7.375458e+002,-3.325348e-001
7.385101e+002,-1.017456e+000
7.394743e+002,-5.589294e-002
7.404385e+002,1.446960e+000
7.414028e+002,1.701218e+000
7.423670e+002,8.339233e-001
7.433312e+002,7.526703e-001
7.442955e+002,1.829178e+000
7.452597e+002,3.203384e+000
7.462239e+002,3.753189e+000
7.471882e+002,3.119904e+000
7.481524e+002,2.962402e+000
7.491166e+002,3.457596e+000
7.500809e+002,3.803482e+000
7.510451e+002,3.931870e+000
7.520093e+002,3.704315e+000
7.529736e+002,2.618942e+000
7.539378e+002,-3.875580e-001
7.549020e+002,-2.645905e+000
7.558663e+002,-1.911423e+000
7.568306e+002,2.635498e-001
7.577948e+002,1.571106e+000
7.587590e+002,6.488953e-001
7.597233e+002,-1.503677e+000
7.606875e+002,-1.307907e+000
7.616517e+002,9.736481e-001
7.626160e+002,2.319458e+000
7.635802e+002,1.817734e+000
7.645444e+002,1.888428e-001
7.655087e+002,-1.328201e+000
7.664729e+002,-3.558456e+000
7.674371e+002,-3.644867e+000
7.684014e+002,1.705627e-001
7.693656e+002,4.263336e+000
7.703298e+002,6.441559e+000
7.712941e+002,6.446793e+000
7.722583e+002,5.566757e+000
7.732225e+002,4.159042e+000
7.741868e+002,2.703186e+000
7.751510e+002,1.355560e+000
7.761152e+002,2.996216e-001
7.770795e+002,-1.291656e-001
7.780437e+002,3.614807e-001
7.790079e+002,1.602173e+000
7.799722e+002,2.485886e+000
7.809364e+002,3.071030e+000
7.819006e+002,3.316467e+000
7.828649e+002,3.014267e+000
7.838291e+002,2.462341e+000
7.847933e+002,2.499146e+000
7.857576e+002,3.346054e+000
7.867218e+002,4.155426e+000
7.876860e+002,5.195801e+000
7.886503e+002,6.073029e+000
7.896145e+002,6.348053e+000
7.905787e+002,5.946762e+000
7.915430e+002,5.415909e+000
7.925072e+002,5.300980e+000
7.934714e+002,5.189056e+000
7.944357e+002,4.777252e+000
7.953999e+002,4.122910e+000
7.963641e+002,3.284027e+000
7.973284e+002,2.222763e+000
7.982926e+002,8.616791e-001
7.992568e+002,1.219421e+000
8.002211e+002,4.178726e+000
8.011853e+002,6.376511e+000
8.021495e+002,6.341324e+000
8.031138e+002,4.840210e+000
8.040780e+002,4.152802e+000
8.050422e+002,4.980026e+000
8.060065e+002,5.854080e+000
8.069707e+002,6.281265e+000
8.079349e+002,6.386169e+000
8.088992e+002,6.285034e+000
8.098634e+002,6.099075e+000
8.108276e+002,6.014343e+000
8.117919e+002,6.377472e+000
8.127561e+002,6.692261e+000
8.137203e+002,6.230194e+000
8.146846e+002,5.046387e+000
8.156488e+002,3.739594e+000
8.166130e+002,2.890060e+000
8.175773e+002,2.382690e+000
8.185415e+002,2.906662e+000
8.195057e+002,5.740448e+000
8.204700e+002,7.649796e+000
8.214342e+002,6.974045e+000
8.223984e+002,4.552032e+000
8.233627e+002,2.638519e+000
8.243269e+002,2.009079e+000
8.252911e+002,2.122147e+000
8.262554e+002,2.435532e+000
8.272196e+002,3.160370e+000
8.281838e+002,4.985306e+000
8.291481e+002,7.861359e+000
8.301123e+002,1.051106e+001
8.310765e+002,1.048302e+001
8.320408e+002,7.875687e+000
8.330050e+002,5.599167e+000
8.339692e+002,3.687210e+000
8.349335e+002,2.559235e+000
8.358977e+002,3.384079e+000
8.368619e+002,6.847672e+000
8.378262e+002,7.606186e+000
8.387904e+002,1.420273e+000
8.397546e+002,-2.926071e+000
8.407189e+002,-2.209946e+000
8.416831e+002,1.587402e+000
8.426473e+002,4.889069e+000
8.436116e+002,6.156845e+000
8.445758e+002,6.510590e+000
8.455400e+002,6.766693e+000
8.465043e+002,6.837921e+000
8.474685e+002,6.567734e+000
8.484327e+002,6.111343e+000
8.493970e+002,6.089981e+000
8.503612e+002,7.471725e+000
8.513254e+002,1.058768e+001
8.522897e+002,1.212421e+001
8.532539e+002,1.128616e+001
8.542181e+002,9.986938e+000
8.551824e+002,9.272659e+000
8.561466e+002,9.239029e+000
8.571108e+002,9.778397e+000
8.580751e+002,1.128114e+001
8.590393e+002,1.220683e+001
8.600035e+002,1.141814e+001
8.609678e+002,1.035051e+001
8.619320e+002,1.089032e+001
8.628962e+002,1.366135e+001
8.638605e+002,1.693286e+001
8.648247e+002,1.812512e+001
8.657889e+002,1.777390e+001
8.667532e+002,1.675500e+001
8.677174e+002,1.518744e+001
8.686816e+002,1.381798e+001
8.696459e+002,1.361499e+001
8.706101e+002,1.485825e+001
8.715743e+002,1.565492e+001
8.725386e+002,1.559715e+001
8.735028e+002,1.568303e+001
8.744670e+002,1.597894e+001
8.754313e+002,1.646336e+001
8.763955e+002,1.725705e+001
8.773597e+002,1.858662e+001
8.783240e+002,1.981609e+001
8.792882e+002,2.055043e+001
8.802524e+002,2.086169e+001
8.812167e+002,2.069942e+001
8.821809e+002,2.013544e+001
8.831451e+002,1.934227e+001
8.841094e+002,1.852119e+001
8.850736e+002,1.781860e+001
8.860378e+002,1.799095e+001
8.870021e+002,1.907816e+001
8.879663e+002,2.043320e+001
8.889305e+002,2.206976e+001
8.898948e+002,2.372299e+001
8.908590e+002,2.401065e+001
8.918232e+002,2.128665e+001
8.927875e+002,2.005415e+001
8.937517e+002,2.227328e+001
8.947159e+002,2.543689e+001
8.956802e+002,2.744188e+001
8.966444e+002,2.776219e+001
8.976086e+002,2.736320e+001
8.985729e+002,2.701637e+001
8.995371e+002,2.699530e+001
9.005013e+002,2.784918e+001
9.014656e+002,2.940001e+001
9.024298e+002,3.051109e+001
9.033940e+002,3.016805e+001
9.043583e+002,2.854865e+001
9.053225e+002,2.783830e+001
9.062867e+002,2.915833e+001
9.072510e+002,2.979280e+001
9.082152e+002,2.930893e+001
9.091794e+002,2.862633e+001
9.101437e+002,2.872090e+001
9.111079e+002,2.974243e+001
9.120721e+002,3.063310e+001
9.130364e+002,3.054984e+001
9.140006e+002,3.010927e+001
9.149648e+002,2.975089e+001
9.159291e+002,2.947710e+001
9.168933e+002,2.893910e+001
9.178575e+002,2.785905e+001
9.188218e+002,2.658347e+001
9.197860e+002,2.681262e+001
9.207502e+002,2.856573e+001
9.217145e+002,2.922850e+001
9.226787e+002,2.809940e+001
9.236429e+002,2.616016e+001
9.246072e+002,2.444740e+001
9.255714e+002,2.278847e+001
9.265356e+002,2.178621e+001
9.274999e+002,2.179314e+001
9.284641e+002,2.208818e+001
9.294283e+002,2.281505e+001
9.303926e+002,2.365932e+001
9.313568e+002,2.403926e+001
9.323210e+002,2.361209e+001
9.332853e+002,2.299101e+001
9.342495e+002,2.345045e+001
9.352137e+002,2.430414e+001
9.361780e+002,2.457112e+001
9.371422e+002,2.412433e+001
9.381064e+002,2.334760e+001
9.390707e+002,2.262157e+001
9.400349e+002,2.182191e+001
9.409991e+002,2.106726e+001
9.419634e+002,1.992203e+001
9.429276e+002,1.929684e+001
9.438918e+002,1.969313e+001
9.448561e+002,2.072086e+001
9.458203e+002,2.194577e+001
9.467845e+002,2.347787e+001
9.477488e+002,2.425368e+001
9.487130e+002,2.296904e+001
9.496772e+002,2.092479e+001
9.506415e+002,1.838849e+001
9.516057e+002,1.592923e+001
9.525699e+002,1.497673e+001
9.535342e+002,1.697829e+001
9.544984e+002,2.129579e+001
9.554626e+002,2.239851e+001
9.564269e+002,1.981503e+001
9.573911e+002,1.793793e+001
9.583553e+002,1.837103e+001
9.593196e+002,1.990477e+001
9.602838e+002,2.062270e+001
9.612480e+002,2.029198e+001
9.622123e+002,1.962158e+001
9.631765e+002,1.888895e+001
9.641407e+002,1.788536e+001
9.651050e+002,1.570860e+001
9.660692e+002,1.319987e+001
9.670334e+002,1.232959e+001
9.679977e+002,1.443347e+001
9.689619e+002,1.783171e+001
9.699261e+002,1.829272e+001
9.708904e+002,1.676706e+001
9.718546e+002,1.612337e+001
9.728188e+002,1.696979e+001
9.737831e+002,1.872261e+001
9.747473e+002,2.079726e+001
9.757115e+002,2.333281e+001
9.766758e+002,2.564342e+001
9.776400e+002,2.808284e+001
9.786042e+002,3.005510e+001
9.795685e+002,3.198962e+001
9.805327e+002,3.293918e+001
9.814969e+002,3.132616e+001
9.824612e+002,2.668172e+001
9.834254e+002,2.158778e+001
9.843896e+002,1.803206e+001
9.853539e+002,1.554419e+001
9.863181e+002,1.400107e+001
9.872823e+002,1.314595e+001
9.882466e+002,1.235287e+001
9.892108e+002,1.118283e+001
9.901750e+002,9.935486e+000
9.911393e+002,9.780045e+000
9.921035e+002,1.136693e+001
9.930677e+002,1.242644e+001
9.940320e+002,1.288821e+001
9.949962e+002,1.300371e+001
9.959604e+002,1.279066e+001
9.969247e+002,1.232080e+001
9.978889e+002,1.229665e+001
9.988531e+002,1.350005e+001
9.998174e+002,1.432597e+001
1.000782e+003,1.344255e+001
1.001746e+003,1.188631e+001
1.002710e+003,1.119299e+001
1.003674e+003,1.197157e+001
1.004639e+003,1.346950e+001
1.005603e+003,1.438972e+001
1.006567e+003,1.462697e+001
1.007531e+003,1.485938e+001
1.008495e+003,1.521320e+001
1.009460e+003,1.536632e+001
1.010424e+003,1.516080e+001
1.011388e+003,1.464607e+001
1.012352e+003,1.384720e+001
1.013317e+003,1.238356e+001
1.014281e+003,1.130275e+001
1.015245e+003,1.126227e+001
1.016209e+003,1.124928e+001
1.017174e+003,1.042589e+001
1.018138e+003,8.889694e+000
1.019102e+003,7.449921e+000
1.020066e+003,6.821228e+000
1.021031e+003,6.711182e+000
1.021995e+003,5.782593e+000
1.022959e+003,4.179871e+000
1.023923e+003,3.610947e+000
1.024887e+003,5.137299e+000
1.025852e+003,7.023636e+000
1.026816e+003,6.196106e+000
1.027780e+003,1.875320e+000
1.028744e+003,-1.057053e+000
1.029709e+003,-1.778412e+000
1.030673e+003,-1.684082e+000
1.031637e+003,-5.848999e-001
1.032601e+003,7.937775e-001
1.033566e+003,1.627319e+000
1.034530e+003,1.655640e+000
1.035494e+003,1.203568e+000
1.036458e+003,3.453064e-001
1.037422e+003,-6.938782e-001
1.038387e+003,-1.644440e+000
1.039351e+003,-2.456650e+000
1.040315e+003,-2.769409e+000
1.041279e+003,-2.240723e+000
1.042244e+003,-9.724731e-001
1.043208e+003,3.840637e-001
1.044172e+003,2.284958e+000
1.045136e+003,3.156647e+000
1.046101e+003,2.131683e+000
1.047065e+003,1.072083e+000
1.048029e+003,1.239914e+000
1.048993e+003,2.413818e+000
1.049958e+003,3.580643e+000
1.050922e+003,4.493469e+000
1.051886e+003,4.861038e+000
1.052850e+003,3.562012e+000
1.053814e+003,1.937759e+000
1.054779e+003,2.168915e+000
1.055743e+003,4.473892e+000
1.056707e+003,6.898422e+000
1.057671e+003,7.074341e+000
1.058636e+003,4.962738e+000
1.059600e+003,3.114410e+000
1.060564e+003,1.441635e+000
1.061528e+003,3.835297e-001
1.062493e+003,-1.362152e-001
1.063457e+003,-1.057129e-001
1.064421e+003,1.044250e+000
1.065385e+003,3.343002e+000
1.066349e+003,4.585571e+000
1.067314e+003,2.499374e+000
1.068278e+003,4.141998e-001
1.069242e+003,1.028458e+000
1.070206e+003,3.168396e+000
1.071171e+003,4.952469e+000
1.072135e+003,5.493713e+000
1.073099e+003,5.176025e+000
1.074063e+003,4.706924e+000
1.075028e+003,4.118881e+000
1.075992e+003,3.366928e+000
1.076956e+003,1.870270e+000
1.077920e+003,9.848022e-001
1.078885e+003,1.896210e+000
1.079849e+003,3.638184e+000
1.080813e+003,4.228394e+000
1.081777e+003,3.191772e+000
1.082741e+003,2.295013e+000
1.083706e+003,2.237213e+000
1.084670e+003,2.532379e+000
1.085634e+003,3.469131e+000
1.086598e+003,4.472092e+000
1.087563e+003,4.319504e+000
1.088527e+003,2.501053e+000
1.089491e+003,3.186493e-001
1.090455e+003,2.732086e-001
1.091420e+003,2.576752e+000
1.092384e+003,4.302612e+000
1.093348e+003,5.791534e+000
1.094312e+003,6.013092e+000
1.095276e+003,3.385513e+000
1.096241e+003,-8.183136e-001
1.097205e+003,-2.613297e+000
1.098169e+003,-7.389832e-001
1.099133e+003,9.696198e-001
1.100098e+003,1.331787e+000
1.101062e+003,9.583435e-001
1.102026e+003,-2.694244e-001
1.102990e+003,-1.866486e+000
1.103955e+003,-3.145264e+000
1.104919e+003,-3.694946e+000
1.105883e+003,-3.376343e+000
1.106847e+003,-1.458771e+000
1.107812e+003,2.013794e+000
1.108776e+003,3.523697e+000
1.109740e+003,2.169632e+000
1.110704e+003,4.255829e-001
1.111668e+003,7.151794e-002
1.112633e+003,9.158478e-001
1.113597e+003,1.962036e+000
1.114561e+003,3.368668e+000
1.115525e+003,4.159775e+000
1.116490e+003,3.733871e+000
1.117454e+003,2.964447e+000
1.118418e+003,2.451920e+000
1.119382e+003,2.200378e+000
1.120347e+003,1.778076e+000
1.121311e+003,8.413849e-001
1.122275e+003,-2.834930e-001
1.123239e+003,-5.697021e-001
1.124203e+003,2.641296e-002
1.125168e+003,2.398834e-001
1.126132e+003,-1.973724e-001
1.127096e+003,-4.694214e-001
1.128060e+003,-3.831482e-002
1.129025e+003,9.952698e-001
1.129989e+003,2.467468e+000
1.130953e+003,4.919724e+000
1.131917e+003,6.391113e+000
1.132882e+003,5.845901e+000
1.133846e+003,4.919891e+000
1.134810e+003,4.388260e+000
1.135774e+003,4.363037e+000
1.136739e+003,4.819138e+000
1.137703e+003,5.715668e+000
1.138667e+003,6.642380e+000
1.139631e+003,6.677887e+000
1.140595e+003,6.037033e+000
1.141560e+003,6.784058e+000
1.142524e+003,9.509232e+000
1.143488e+003,1.213226e+001
1.144452e+003,1.232686e+001
1.145417e+003,1.122159e+001
1.146381e+003,1.342082e+001
1.147345e+003,2.074252e+001
1.148309e+003,2.665915e+001
1.149274e+003,2.833281e+001
1.150238e+003,2.967743e+001
1.151202e+003,3.306976e+001
1.152166e+003,3.764511e+001
1.153130e+003,4.133354e+001
1.154095e+003,4.311700e+001
1.155059e+003,4.389774e+001
1.156023e+003,4.527773e+001
1.156987e+003,4.698430e+001
1.157952e+003,4.686511e+001
1.158916e+003,4.494669e+001
1.159880e+003,4.219582e+001
1.160844e+003,3.878516e+001
1.161809e+003,3.466000e+001
1.162773e+003,2.960019e+001
1.163737e+003,2.305135e+001
1.164701e+003,1.815599e+001
1.165666e+003,1.713446e+001
1.166630e+003,1.660469e+001
1.167594e+003,1.572087e+001
1.168558e+003,1.438226e+001
1.169522e+003,1.224098e+001
1.170487e+003,9.467896e+000
1.171451e+003,7.373367e+000
1.172415e+003,7.533585e+000
1.173379e+003,9.436127e+000
1.174344e+003,1.072334e+001
1.175308e+003,1.158440e+001
1.176272e+003,1.107127e+001
1.177236e+003,7.595779e+000
1.178201e+003,3.637238e+000
1.179165e+003,2.667831e+000
1.180129e+003,4.658051e+000
1.181093e+003,5.863861e+000
1.182057e+003,4.913605e+000
1.183022e+003,4.108032e+000
1.183986e+003,4.877853e+000
1.184950e+003,5.805435e+000
1.185914e+003,5.178757e+000
1.186879e+003,3.196701e+000
1.187843e+003,1.587662e+000
1.188807e+003,1.733109e+000
1.189771e+003,3.151276e+000
1.190736e+003,4.794876e+000
1.191700e+003,6.797272e+000
1.192664e+003,7.144333e+000
1.193628e+003,4.475632e+000
1.194593e+003,1.784851e+000
1.195557e+003,1.344971e+000
1.196521e+003,2.580063e+000
1.197485e+003,3.604691e+000
1.198449e+003,4.262787e+000
1.199414e+003,4.368744e+000
1.200378e+003,3.643387e+000
1.201342e+003,2.541046e+000
1.202306e+003,1.021637e+000
1.203271e+003,-6.629486e-001
1.204235e+003,-2.131485e+000
1.205199e+003,-3.155869e+000
1.206163e+003,-3.726685e+000
1.207128e+003,-3.824280e+000
1.208092e+003,-3.413452e+000
1.209056e+003,-2.936829e+000
1.210020e+003,-2.210602e+000
1.210984e+003,-1.770279e+000
1.211949e+003,-1.260391e+000
1.212913e+003,-1.470123e+000
1.213877e+003,-4.266006e+000
1.214841e+003,-9.551559e+000
1.215806e+003,-1.255246e+001
1.216770e+003,-9.952652e+000
1.217734e+003,-6.972153e+000
1.218698e+003,-7.441467e+000
1.219663e+003,-9.605789e+000
1.220627e+003,-1.171838e+001
1.221591e+003,-1.315439e+001
1.222555e+003,-1.358408e+001
1.223520e+003,-1.263268e+001
1.224484e+003,-1.069540e+001
1.225448e+003,-9.836838e+000
1.226412e+003,-1.058803e+001
1.227376e+003,-1.141017e+001
1.228341e+003,-1.242194e+001
1.229305e+003,-1.342870e+001
1.230269e+003,-1.432903e+001
1.231233e+003,-1.515398e+001
1.232198e+003,-1.609535e+001
1.233162e+003,-1.720471e+001
1.234126e+003,-1.764516e+001
1.235090e+003,-1.638081e+001
1.236055e+003,-1.465359e+001
1.237019e+003,-1.398888e+001
1.237983e+003,-1.399599e+001
1.238947e+003,-1.322145e+001
1.239911e+003,-1.104022e+001
1.240876e+003,-8.937637e+000
1.241840e+003,-9.405762e+000
1.242804e+003,-1.266963e+001
1.243768e+003,-1.424174e+001
1.244733e+003,-1.183070e+001
1.245697e+003,-1.073814e+001
1.246661e+003,-1.289928e+001
1.247625e+003,-1.527831e+001
1.248590e+003,-1.536789e+001
1.249554e+003,-1.352393e+001
1.250518e+003,-1.157550e+001
1.251482e+003,-1.034421e+001
1.252447e+003,-9.699570e+000
1.253411e+003,-9.479492e+000
1.254375e+003,-9.644211e+000
1.255339e+003,-1.045020e+001
1.256303e+003,-1.179695e+001
1.257268e+003,-1.239999e+001
1.258232e+003,-1.135028e+001
1.259196e+003,-9.583130e+000
1.260160e+003,-9.009842e+000
1.261125e+003,-9.859177e+000
1.262089e+003,-1.000031e+001
1.263053e+003,-8.176346e+000
1.264017e+003,-7.123749e+000
1.264982e+003,-8.466843e+000
1.265946e+003,-1.007108e+001
1.266910e+003,-9.493454e+000
1.267874e+003,-7.073807e+000
1.268839e+003,-5.259003e+000
1.269803e+003,-5.678970e+000
1.270767e+003,-7.110123e+000
1.271731e+003,-7.017899e+000
1.272695e+003,-5.471161e+000
1.273660e+003,-5.416519e+000
1.274624e+003,-7.628403e+000
1.275588e+003,-9.811722e+000
1.276552e+003,-1.055341e+001
1.277517e+003,-1.039178e+001
1.278481e+003,-1.044167e+001
1.279445e+003,-1.081429e+001
1.280409e+003,-1.101103e+001
1.281374e+003,-1.059056e+001
1.282338e+003,-1.032483e+001
1.283302e+003,-1.119751e+001
1.284266e+003,-1.210167e+001
1.285230e+003,-1.128539e+001
1.286195e+003,-8.974045e+000
1.287159e+003,-7.265991e+000
1.288123e+003,-7.859543e+000
1.289087e+003,-9.951889e+000
1.290052e+003,-1.125119e+001
1.291016e+003,-1.156589e+001
1.291980e+003,-1.196713e+001
1.292944e+003,-1.263446e+001
1.293909e+003,-1.329489e+001
1.294873e+003,-1.404901e+001
1.295837e+003,-1.449611e+001
1.296801e+003,-1.363640e+001
1.297766e+003,-1.154726e+001
1.298730e+003,-1.062598e+001
1.299694e+003,-1.276585e+001
1.300658e+003,-1.548822e+001
1.301622e+003,-1.625278e+001
1.302587e+003,-1.560188e+001
1.303551e+003,-1.388991e+001
1.304515e+003,-1.133818e+001
1.305479e+003,-9.285645e+000
1.306444e+003,-9.005081e+000
1.307408e+003,-9.870926e+000
1.308372e+003,-9.369537e+000
1.309336e+003,-6.345840e+000
1.310301e+003,-5.606766e+000
1.311265e+003,-9.869736e+000
1.312229e+003,-1.321747e+001
1.313193e+003,-1.344376e+001
1.314157e+003,-1.226089e+001
1.315122e+003,-1.128214e+001
1.316086e+003,-1.093320e+001
1.317050e+003,-1.118680e+001
1.318014e+003,-1.206937e+001
1.318979e+003,-1.276738e+001
1.319943e+003,-1.137325e+001
1.320907e+003,-8.294708e+000
1.321871e+003,-7.654846e+000
1.322836e+003,-1.050684e+001
1.323800e+003,-1.298294e+001
1.324764e+003,-1.245407e+001
1.325728e+003,-1.054413e+001
1.326693e+003,-1.009831e+001
1.327657e+003,-1.126135e+001
1.328621e+003,-1.261765e+001
1.329585e+003,-1.453085e+001
1.330549e+003,-1.481827e+001
1.331514e+003,-1.073486e+001
1.332478e+003,-6.334366e+000
1.333442e+003,-6.296494e+000
1.334406e+003,-9.724701e+000
1.335371e+003,-1.192729e+001
1.336335e+003,-1.011423e+001
1.337299e+003,-6.578598e+000
1.338263e+003,-5.771011e+000
1.339228e+003,-8.092484e+000
1.340192e+003,-9.336411e+000
1.341156e+003,-8.314911e+000
1.342120e+003,-8.050400e+000
1.343084e+003,-1.005696e+001
1.344049e+003,-1.213889e+001
1.345013e+003,-1.210738e+001
1.345977e+003,-1.046498e+001
1.346941e+003,-9.333939e+000
1.347906e+003,-9.509781e+000
1.348870e+003,-9.783279e+000
1.349834e+003,-8.804092e+000
1.350798e+003,-7.459946e+000
1.351763e+003,-7.556992e+000
1.352727e+003,-8.805023e+000
1.353691e+003,-9.548157e+000
1.354655e+003,-9.100739e+000
1.355620e+003,-8.234192e+000
1.356584e+003,-7.647202e+000
1.357548e+003,-7.350037e+000
1.358512e+003,-7.784332e+000
1.359476e+003,-9.397308e+000
1.360441e+003,-1.090320e+001
1.361405e+003,-1.270203e+001
1.362369e+003,-1.346700e+001
1.363333e+003,-1.163892e+001
1.364298e+003,-8.778732e+000
1.365262e+003,-7.016937e+000
1.366226e+003,-6.863220e+000
1.367190e+003,-7.400009e+000
1.368155e+003,-7.820419e+000
1.369119e+003,-8.149338e+000
1.370083e+003,-8.430618e+000
1.371047e+003,-8.581833e+000
1.372011e+003,-8.887665e+000
1.372976e+003,-9.893875e+000
1.373940e+003,-1.051140e+001
1.374904e+003,-9.932327e+000
1.375868e+003,-8.940155e+000
1.376833e+003,-8.683090e+000
1.377797e+003,-9.151093e+000
1.378761e+003,-9.262985e+000
1.379725e+003,-8.445618e+000
1.380690e+003,-7.446411e+000
1.381654e+003,-6.744217e+000
1.382618e+003,-6.466064e+000
1.383582e+003,-7.448380e+000
1.384547e+003,-9.357040e+000
1.385511e+003,-9.702011e+000
1.386475e+003,-6.922745e+000
1.387439e+003,-3.214035e+000
1.388403e+003,-2.003235e+000
1.389368e+003,-3.292358e+000
1.390332e+003,-4.460373e+000
1.391296e+003,-5.578873e+000
1.392260e+003,-6.154404e+000
1.393225e+003,-5.736298e+000
1.394189e+003,-5.223312e+000
1.395153e+003,-5.211700e+000
1.396117e+003,-5.399353e+000
1.397082e+003,-5.120499e+000
1.398046e+003,-4.293213e+000
1.399010e+003,-3.598557e+000
1.399974e+003,-3.718140e+000
1.400938e+003,-4.506897e+000
1.401903e+003,-5.289322e+000
1.402867e+003,-5.974594e+000
1.403831e+003,-5.875549e+000
1.404795e+003,-4.634705e+000
1.405760e+003,-3.342010e+000
1.406724e+003,-2.185516e+000
1.407688e+003,-1.576599e+000
1.408652e+003,-2.030884e+000
1.409617e+003,-3.303299e+000
1.410581e+003,-4.443909e+000
1.411545e+003,-5.052002e+000
1.412509e+003,-5.633759e+000
1.413474e+003,-7.134796e+000
1.414438e+003,-8.719330e+000
1.415402e+003,-8.497299e+000
1.416366e+003,-6.713226e+000
1.417330e+003,-5.405563e+000
1.418295e+003,-5.361938e+000
1.419259e+003,-6.047318e+000
1.420223e+003,-7.419846e+000
1.421187e+003,-9.214661e+000
1.422152e+003,-9.174011e+000
1.423116e+003,-6.425354e+000
1.424080e+003,-4.274185e+000
1.425044e+003,-4.366440e+000
1.426009e+003,-4.600754e+000
1.426973e+003,-4.051376e+000
1.427937e+003,-3.218033e+000
1.428901e+003,-2.435883e+000
1.429865e+003,-1.963333e+000
1.430830e+003,-2.547913e+000
1.431794e+003,-4.668716e+000
1.432758e+003,-7.061127e+000
1.433722e+003,-7.001343e+000
1.434687e+003,-4.093307e+000
1.435651e+003,-2.352509e+000
1.436615e+003,-2.615875e+000
1.437579e+003,-3.354553e+000
1.438544e+003,-5.172577e+000
1.439508e+003,-6.611099e+000
1.440472e+003,-6.269806e+000
1.441436e+003,-4.889679e+000
1.442401e+003,-4.089127e+000
1.443365e+003,-4.243439e+000
1.444329e+003,-4.325439e+000
1.445293e+003,-3.459549e+000
1.446257e+003,-2.330322e+000
1.447222e+003,-2.625244e+000
1.448186e+003,-3.961884e+000
1.449150e+003,-3.988205e+000
1.450114e+003,-2.175461e+000
1.451079e+003,-5.276947e-001
1.452043e+003,-3.731384e-001
1.453007e+003,-6.238556e-001
1.453971e+003,6.519928e-001
1.454936e+003,3.053848e+000
1.455900e+003,3.399734e+000
1.456864e+003,3.882446e-001
1.457828e+003,-2.283554e+000
1.458792e+003,-1.971146e+000
1.459757e+003,-1.009659e+000
1.460721e+003,-1.213791e+000
1.461685e+003,-2.256531e+000
1.462649e+003,-3.570663e+000
1.463614e+003,-4.836761e+000
1.464578e+003,-5.143326e+000
1.465542e+003,-3.476822e+000
1.466506e+003,-7.813416e-001
1.467471e+003,2.336121e-001
1.468435e+003,-5.862427e-001
1.469399e+003,-1.840408e+000
1.470363e+003,-5.012070e+000
1.471328e+003,-6.525467e+000
1.472292e+003,-4.216095e+000
1.473256e+003,-1.514923e+000
1.474220e+003,-7.350769e-001
1.475184e+003,-1.374115e+000
1.476149e+003,-2.220764e+000
1.477113e+003,-2.784622e+000
1.478077e+003,-2.979828e+000
1.479041e+003,-2.619186e+000
1.480006e+003,-2.006271e+000
1.480970e+003,-2.391022e+000
1.481934e+003,-4.337753e+000
1.482898e+003,-5.213165e+000
1.483863e+003,-4.356155e+000
1.484827e+003,-3.521133e+000
1.485791e+003,-3.444794e+000
1.486755e+003,-3.202332e+000
1.487719e+003,-1.564178e+000
1.488684e+003,8.335114e-001
1.489648e+003,2.131958e+000
1.490612e+003,1.810837e+000
1.491576e+003,1.353210e+000
1.492541e+003,1.976959e+000
1.493505e+003,3.121948e+000
1.494469e+003,3.507843e+000
1.495433e+003,3.200912e+000
1.496398e+003,3.209061e+000
1.497362e+003,3.950089e+000
1.498326e+003,4.498230e+000
1.499290e+003,3.613174e+000
1.500255e+003,2.775421e+000
1.501219e+003,4.514542e+000
1.502183e+003,8.285965e+000
1.503147e+003,1.062257e+001
1.504111e+003,1.043404e+001
1.505076e+003,1.051416e+001
1.506040e+003,1.253384e+001
1.507004e+003,1.556305e+001
1.507968e+003,1.898035e+001
1.508933e+003,2.250438e+001
1.509897e+003,2.537746e+001
1.510861e+003,2.764864e+001
1.511825e+003,3.062158e+001
1.512790e+003,3.529039e+001
1.513754e+003,4.076715e+001
1.514718e+003,4.554692e+001
1.515682e+003,4.956119e+001
1.516646e+003,5.320500e+001
1.517611e+003,5.643744e+001
1.518575e+003,5.971530e+001
1.519539e+003,6.391331e+001
1.520503e+003,6.758075e+001
1.521468e+003,7.051999e+001
1.522432e+003,7.205875e+001
1.523396e+003,7.058348e+001
1.524360e+003,6.664273e+001
1.525325e+003,6.333360e+001
1.526289e+003,6.274219e+001
1.527253e+003,6.314171e+001
1.528217e+003,6.135004e+001
1.529182e+003,5.739876e+001
1.530146e+003,5.359358e+001
1.531110e+003,5.023088e+001
1.532074e+003,4.630368e+001
1.533039e+003,4.133066e+001
1.534003e+003,3.597556e+001
1.534967e+003,3.015623e+001
1.535931e+003,2.467905e+001
1.536896e+003,2.045322e+001
1.537860e+003,1.740654e+001
1.538824e+003,1.469034e+001
1.539788e+003,1.185907e+001
1.540752e+003,9.616302e+000
1.541717e+003,9.079453e+000
1.542681e+003,9.812683e+000
1.543645e+003,8.691635e+000
1.544609e+003,4.364319e+000
1.545573e+003,1.933167e+000
1.546538e+003,1.910492e+000
1.547502e+003,2.791611e+000
1.548466e+003,4.878510e+000
1.549430e+003,7.142212e+000
1.550395e+003,8.737839e+000
1.551359e+003,9.467316e+000
1.552323e+003,9.030289e+000
1.553287e+003,7.429871e+000
1.554252e+003,5.791122e+000
1.555216e+003,5.109070e+000
1.556180e+003,4.993317e+000
1.557144e+003,4.572525e+000
1.558109e+003,3.866486e+000
1.559073e+003,3.182999e+000
1.560037e+003,2.341949e+000
1.561001e+003,1.649231e+000
1.561966e+003,1.322067e+000
1.562930e+003,1.299545e+000
1.563894e+003,1.418564e+000
1.564858e+003,1.713074e+000
1.565823e+003,2.558517e+000
1.566787e+003,3.940933e+000
1.567751e+003,4.644257e+000
1.568715e+003,3.753265e+000
1.569679e+003,2.744583e+000
1.570644e+003,3.984085e+000
1.571608e+003,6.307434e+000
1.572572e+003,6.173294e+000
1.573536e+003,3.472061e+000
1.574500e+003,1.601913e+000
1.575465e+003,1.674011e+000
1.576429e+003,2.815369e+000
1.577393e+003,5.129562e+000
1.578357e+003,7.632172e+000
1.579322e+003,8.038803e+000
1.580286e+003,6.435257e+000
1.581250e+003,5.752228e+000
1.582214e+003,7.162064e+000
1.583179e+003,8.556061e+000
1.584143e+003,8.135574e+000
1.585107e+003,6.989960e+000
1.586071e+003,6.866043e+000
1.587036e+003,7.452866e+000
1.588000e+003,7.270142e+000
1.588964e+003,5.856903e+000
1.589928e+003,4.968414e+000
1.590893e+003,6.239731e+000
1.591857e+003,8.257492e+000
1.592821e+003,8.718811e+000
1.593785e+003,7.958130e+000
1.594750e+003,7.847488e+000
1.595714e+003,8.618973e+000
1.596678e+003,9.807312e+000
1.597642e+003,1.183286e+001
1.598606e+003,1.333263e+001
1.599571e+003,1.282907e+001
1.600535e+003,1.149339e+001
1.601499e+003,1.059296e+001
1.602463e+003,1.026770e+001
1.603427e+003,1.059932e+001
1.604392e+003,1.170461e+001
1.605356e+003,1.284189e+001
1.606320e+003,1.319646e+001
1.607284e+003,1.303406e+001
1.608249e+003,1.318481e+001
1.609213e+003,1.367120e+001
1.610177e+003,1.364442e+001
1.611141e+003,1.258333e+001
1.612106e+003,1.196487e+001
1.613070e+003,1.308511e+001
1.614034e+003,1.436284e+001
1.614998e+003,1.457808e+001
1.615963e+003,1.419679e+001
1.616927e+003,1.392499e+001
1.617891e+003,1.393170e+001
1.618855e+003,1.441890e+001
1.619820e+003,1.561157e+001
1.620784e+003,1.653954e+001
1.621748e+003,1.545145e+001
1.622712e+003,1.297110e+001
1.623677e+003,1.250969e+001
1.624641e+003,1.447887e+001
1.625605e+003,1.626064e+001
1.626569e+003,1.721193e+001
1.627533e+003,1.760420e+001
1.628498e+003,1.761909e+001
1.629462e+003,1.733646e+001
1.630426e+003,1.652692e+001
1.631390e+003,1.550127e+001
1.632354e+003,1.494080e+001
1.633319e+003,1.497383e+001
1.634283e+003,1.517543e+001
1.635247e+003,1.526868e+001
1.636211e+003,1.517868e+001
1.637176e+003,1.469424e+001
1.638140e+003,1.390044e+001
1.639104e+003,1.348013e+001
1.640068e+003,1.337726e+001
1.641033e+003,1.384895e+001
1.641997e+003,1.607874e+001
1.642961e+003,1.736542e+001
1.643925e+003,1.538902e+001
1.644890e+003,1.270290e+001
1.645854e+003,1.157851e+001
1.646818e+003,1.195239e+001
1.647782e+003,1.335468e+001
1.648747e+003,1.548239e+001
1.649711e+003,1.702588e+001
1.650675e+003,1.688220e+001
1.651639e+003,1.571492e+001
1.652604e+003,1.463725e+001
1.653568e+003,1.360843e+001
1.654532e+003,1.286562e+001
1.655496e+003,1.243762e+001
1.656460e+003,1.225404e+001
1.657425e+003,1.236623e+001
1.658389e+003,1.270805e+001
1.659353e+003,1.337358e+001
1.660317e+003,1.411850e+001
1.661281e+003,1.494276e+001
1.662246e+003,1.555952e+001
1.663210e+003,1.510793e+001
1.664174e+003,1.339471e+001
1.665138e+003,1.185399e+001
1.666103e+003,1.169508e+001
1.667067e+003,1.236632e+001
1.668031e+003,1.295546e+001
1.668995e+003,1.346182e+001
1.669960e+003,1.356424e+001
1.670924e+003,1.315622e+001
1.671888e+003,1.283913e+001
1.672852e+003,1.324098e+001
1.673817e+003,1.301463e+001
1.674781e+003,1.041696e+001
1.675745e+003,7.436218e+000
1.676709e+003,6.276428e+000
1.677674e+003,6.701538e+000
1.678638e+003,7.548874e+000
1.679602e+003,8.448257e+000
1.680566e+003,9.169876e+000
1.681531e+003,9.740311e+000
1.682495e+003,9.858170e+000
1.683459e+003,8.420700e+000
1.684423e+003,5.790268e+000
1.685387e+003,4.762009e+000
1.686352e+003,5.798599e+000
1.687316e+003,6.911728e+000
1.688280e+003,7.641388e+000
1.689244e+003,7.977600e+000
1.690208e+003,7.754257e+000
1.691173e+003,7.180832e+000
1.692137e+003,6.134171e+000
1.693101e+003,5.019577e+000
1.694065e+003,5.240936e+000
1.695030e+003,7.154053e+000
1.695994e+003,8.102478e+000
1.696958e+003,5.586243e+000
1.697922e+003,2.418655e+000
1.698887e+003,2.526596e+000
1.699851e+003,4.807175e+000
1.700815e+003,5.746124e+000
1.701779e+003,5.026627e+000
1.702744e+003,4.448822e+000
1.703708e+003,4.726242e+000
1.704672e+003,4.995743e+000
1.705636e+003,4.443817e+000
1.706601e+003,3.516632e+000
1.707565e+003,2.948441e+000
1.708529e+003,2.727646e+000
1.709493e+003,2.802094e+000
1.710458e+003,3.240372e+000
1.711422e+003,3.139694e+000
1.712386e+003,1.423462e+000
1.713350e+003,7.003784e-003
1.714314e+003,7.118530e-001
1.715279e+003,2.407059e+000
1.716243e+003,3.482239e+000
1.717207e+003,3.796783e+000
1.718171e+003,3.336227e+000
1.719135e+003,2.117813e+000
1.720100e+003,9.818726e-001
1.721064e+003,3.803558e-001
1.722028e+003,3.642120e-001
1.722992e+003,1.313812e+000
1.723957e+003,3.046555e+000
1.724921e+003,4.147964e+000
1.725885e+003,4.575943e+000
1.726849e+003,4.013336e+000
1.727814e+003,1.020691e+000
1.728778e+003,-8.139801e-001
1.729742e+003,1.564575e+000
1.730706e+003,4.365936e+000
1.731671e+003,2.925247e+000
1.732635e+003,-8.088379e-001
1.733599e+003,-1.745850e+000
1.734563e+003,6.377716e-001
1.735528e+003,2.516403e+000
1.736492e+003,1.838531e+000
1.737456e+003,3.148651e-001
1.738420e+003,-6.535339e-002
1.739385e+003,3.562164e-001
1.740349e+003,5.363159e-001
1.741313e+003,4.308472e-001
1.742277e+003,5.926361e-001
1.743241e+003,1.420044e+000
1.744206e+003,1.996429e+000
1.745170e+003,2.591415e+000
1.746134e+003,2.383072e+000
1.747098e+003,-7.431030e-003
1.748063e+003,-2.765900e+000
1.749027e+003,-3.771423e+000
1.749991e+003,-3.208069e+000
1.750955e+003,-2.243423e+000
1.751919e+003,-1.426331e+000
1.752884e+003,-8.716736e-001
1.753848e+003,-6.749420e-001
1.754812e+003,-8.268585e-001
1.755776e+003,-1.317108e+000
1.756741e+003,-2.062881e+000
1.757705e+003,-2.439102e+000
1.758669e+003,-2.506256e+000
1.759633e+003,-2.186554e+000
1.760598e+003,-1.108368e+000
1.761562e+003,-2.782440e-001
1.762526e+003,2.314911e-001
1.763490e+003,3.129883e-001
1.764455e+003,-4.952087e-001
1.765419e+003,-1.561295e+000
1.766383e+003,-1.937073e+000
1.767347e+003,-1.619217e+000
1.768312e+003,-1.220734e+000
1.769276e+003,-1.045212e+000
1.770240e+003,-1.086792e+000
1.771204e+003,-1.311279e+000
1.772168e+003,-1.558899e+000
1.773133e+003,-1.557907e+000
1.774097e+003,-1.354340e+000
1.775061e+003,-1.386353e+000
1.776025e+003,-1.779480e+000
1.776990e+003,-2.473373e+000
1.777954e+003,-3.865677e+000
1.778918e+003,-4.342773e+000
1.779882e+003,-1.605286e+000
1.780846e+003,1.653000e+000
1.781811e+003,1.137863e+000
1.782775e+003,-1.800613e+000
1.783739e+003,-2.345078e+000
1.784703e+003,4.755096e-001
1.785668e+003,2.389908e+000
1.786632e+003,1.033676e+000
1.787596e+003,-1.117264e+000
1.788560e+003,-2.590790e+000
1.789525e+003,-3.340271e+000
1.790489e+003,-3.229202e+000
1.791453e+003,-2.480698e+000
1.792417e+003,-1.494919e+000
1.793382e+003,-4.211731e-001
1.794346e+003,3.551636e-001
1.795310e+003,6.131439e-001
1.796274e+003,6.345825e-001
1.797239e+003,8.178558e-001
1.798203e+003,1.080734e+000
1.799167e+003,8.452759e-001
1.800131e+003,-1.441040e-001
1.801095e+003,-9.605103e-001
1.802060e+003,-1.585037e+000
1.803024e+003,-1.801697e+000
1.803988e+003,-1.426605e+000
1.804952e+003,-9.436798e-001
1.805917e+003,-4.843445e-001
1.806881e+003,-1.134796e-001
1.807845e+003,1.763916e-002
1.808809e+003,1.113129e-001
1.809773e+003,7.087860e-001
1.810738e+003,1.752151e+000
1.811702e+003,2.404663e+000
1.812666e+003,2.138641e+000
1.813630e+003,1.262634e+000
1.814595e+003,5.491638e-002
1.815559e+003,-1.254868e+000
1.816523e+003,-1.480728e+000
1.817487e+003,-4.778595e-001
1.818452e+003,1.836395e-001
1.819416e+003,4.511566e-001
1.820380e+003,5.130463e-001
1.821344e+003,3.483429e-001
1.822309e+003,-5.822754e-002
1.823273e+003,-1.345535e+000
1.824237e+003,-2.279266e+000
1.825201e+003,-1.032242e+000
1.826166e+003,1.462982e+000
1.827130e+003,2.623093e+000
1.828094e+003,2.000504e+000
1.829058e+003,1.210617e+000
1.830022e+003,1.030518e+000
1.830987e+003,9.907379e-001
1.831951e+003,7.538147e-001
1.832915e+003,3.880920e-001
1.833879e+003,-1.725769e-001
1.834844e+003,-7.599487e-001
1.835808e+003,-8.915405e-001
1.836772e+003,-4.986115e-001
1.837736e+003,2.748260e-001
1.838700e+003,1.358292e+000
1.839665e+003,2.088348e+000
1.840629e+003,1.794754e+000
1.841593e+003,1.056427e+000
1.842557e+003,1.069290e+000
1.843522e+003,1.818741e+000
1.844486e+003,2.401611e+000
1.845450e+003,3.367752e+000
1.846414e+003,3.225906e+000
1.847379e+003,5.879517e-001
1.848343e+003,-1.469971e+000
1.849307e+003,-1.752487e+000
1.850271e+003,-1.389664e+000
1.851236e+003,-8.370972e-001
1.852200e+003,-3.532257e-001
1.853164e+003,-3.627625e-001
1.854128e+003,-7.805176e-001
1.855093e+003,-1.204330e+000
1.856057e+003,-1.334549e+000
1.857021e+003,-5.308990e-001
1.857985e+003,1.945740e+000
1.858949e+003,4.433716e+000
1.859914e+003,3.424133e+000
1.860878e+003,-2.045135e-001
1.861842e+003,-1.448959e+000
1.862806e+003,-2.552795e-001
1.863771e+003,1.285385e+000
1.864735e+003,3.065689e+000
1.865699e+003,3.969986e+000
1.866663e+003,3.343964e+000
1.867627e+003,2.136734e+000
1.868592e+003,7.427063e-001
1.869556e+003,-5.384216e-001
1.870520e+003,-9.142609e-001
1.871484e+003,-5.222321e-001
1.872449e+003,-2.225952e-001
1.873413e+003,5.827332e-002
1.874377e+003,4.435120e-001
1.875341e+003,6.231995e-001
1.876306e+003,1.015915e+000
1.877270e+003,2.595963e+000
1.878234e+003,3.768585e+000
1.879198e+003,1.765472e+000
1.880163e+003,-1.243668e+000
1.881127e+003,-5.234528e-001
1.882091e+003,3.551590e+000
1.883055e+003,6.520584e+000
1.884020e+003,6.483795e+000
1.884984e+003,4.875748e+000
1.885948e+003,2.936859e+000
1.886912e+003,1.289185e+000
1.887876e+003,1.370590e+000
1.888841e+003,2.985062e+000
1.889805e+003,3.496918e+000
1.890769e+003,2.614731e+000
1.891733e+003,2.229782e+000
1.892698e+003,2.659668e+000
1.893662e+003,3.118393e+000
1.894626e+003,3.504578e+000
1.895590e+003,3.681839e+000
1.896554e+003,3.652985e+000
1.897519e+003,3.377274e+000
1.898483e+003,2.249847e+000
1.899447e+003,7.284241e-001
1.900411e+003,7.298584e-001
1.901376e+003,2.686295e+000
1.902340e+003,4.425797e+000
1.903304e+003,5.413284e+000
1.904268e+003,5.527573e+000
1.905233e+003,4.279190e+000
1.906197e+003,2.573441e+000
1.907161e+003,7.211456e-001
1.908125e+003,-5.546570e-001
1.909090e+003,4.606018e-001
1.910054e+003,3.128204e+000
1.911018e+003,4.722610e+000
1.911982e+003,4.410049e+000
1.912947e+003,3.494934e+000
1.913911e+003,2.914093e+000
1.914875e+003,2.671600e+000
1.915839e+003,2.838013e+000
1.916803e+003,3.150223e+000
1.917768e+003,2.219406e+000
1.918732e+003,-4.207306e-001
1.919696e+003,-7.194366e-001
1.920660e+003,2.555222e+000
1.921625e+003,4.932632e+000
1.922589e+003,5.264771e+000
1.923553e+003,4.756821e+000
1.924517e+003,3.004944e+000
1.925481e+003,1.617920e+000
1.926446e+003,2.878754e+000
1.927410e+003,5.205185e+000
1.928374e+003,4.994705e+000
1.929338e+003,2.234314e+000
1.930303e+003,7.535400e-001
1.931267e+003,1.926102e+000
1.932231e+003,3.392151e+000
1.933195e+003,4.243515e+000
1.934160e+003,4.709335e+000
1.935124e+003,4.792969e+000
1.936088e+003,4.678024e+000
1.937052e+003,4.585785e+000
1.938017e+003,4.587128e+000
1.938981e+003,4.793243e+000
1.939945e+003,5.106216e+000
1.940909e+003,5.061234e+000
1.941874e+003,4.481384e+000
1.942838e+003,3.948975e+000
1.943802e+003,4.069565e+000
1.944766e+003,4.601273e+000
1.945730e+003,4.901199e+000
1.946695e+003,4.980759e+000
1.947659e+003,5.444092e+000
1.948623e+003,6.362198e+000
1.949587e+003,6.576050e+000
1.950552e+003,5.801376e+000
1.951516e+003,5.132111e+000
1.952480e+003,4.867874e+000
1.953444e+003,4.905960e+000
1.954408e+003,5.156311e+000
1.955373e+003,5.608582e+000
1.956337e+003,6.719421e+000
1.957301e+003,8.145264e+000
1.958265e+003,8.251801e+000
1.959230e+003,6.825272e+000
1.960194e+003,5.696182e+000
1.961158e+003,5.020386e+000
1.962122e+003,4.570541e+000
1.963087e+003,4.573639e+000
1.964051e+003,4.486877e+000
1.965015e+003,3.660248e+000
1.965979e+003,3.018036e+000
1.966944e+003,3.788300e+000
1.967908e+003,5.199493e+000
1.968872e+003,5.819489e+000
1.969836e+003,5.506454e+000
1.970801e+003,4.875931e+000
1.971765e+003,4.250198e+000
1.972729e+003,3.954803e+000
1.973693e+003,4.249069e+000
1.974657e+003,5.033401e+000
1.975622e+003,6.595963e+000
1.976586e+003,8.332184e+000
1.977550e+003,8.444534e+000
1.978514e+003,7.228271e+000
1.979479e+003,6.283722e+000
1.980443e+003,5.863556e+000
1.981407e+003,6.174576e+000
1.982371e+003,7.377945e+000
1.983335e+003,8.189194e+000
1.984300e+003,7.492905e+000
1.985264e+003,6.397659e+000
1.986228e+003,6.740417e+000
1.987192e+003,8.129318e+000
1.988157e+003,8.497116e+000
1.989121e+003,7.607574e+000
1.990085e+003,7.054443e+000
1.991049e+003,7.027847e+000
1.992014e+003,7.033203e+000
1.992978e+003,6.922424e+000
1.993942e+003,6.884598e+000
1.994906e+003,7.046066e+000
1.995871e+003,7.244446e+000
1.996835e+003,7.636414e+000
1.997799e+003,7.871460e+000
1.998763e+003,6.929138e+000
1.999728e+003,5.247955e+000
