5.003444e+002,4.648837e+001
5.013087e+002,4.518419e+001
5.022729e+002,4.340215e+001
5.032371e+002,4.131508e+001
5.042014e+002,3.867931e+001
5.051656e+002,3.570612e+001
5.061298e+002,3.367754e+001
5.070941e+002,3.390891e+001
5.080583e+002,3.705493e+001
5.090225e+002,3.825725e+001
5.099868e+002,3.624707e+001
5.109510e+002,3.426982e+001
5.119152e+002,3.410867e+001
5.128795e+002,3.596082e+001
5.138437e+002,3.780070e+001
5.148079e+002,3.949451e+001
5.157722e+002,4.060725e+001
5.167364e+002,4.084035e+001
5.177006e+002,4.014717e+001
5.186649e+002,3.867700e+001
5.196291e+002,3.607370e+001
5.205933e+002,3.339091e+001
5.215576e+002,3.159222e+001
5.225218e+002,3.070438e+001
5.234860e+002,3.049031e+001
5.244503e+002,3.068394e+001
5.254145e+002,3.164107e+001
5.263787e+002,3.211646e+001
5.273430e+002,3.175685e+001
5.283072e+002,3.115820e+001
5.292714e+002,3.109476e+001
5.302357e+002,3.163039e+001
5.311999e+002,3.225252e+001
5.321641e+002,3.389519e+001
5.331284e+002,3.518802e+001
5.340926e+002,3.468355e+001
5.350568e+002,3.166870e+001
5.360211e+002,2.832500e+001
5.369853e+002,2.665375e+001
5.379495e+002,2.588153e+001
5.389138e+002,2.561824e+001
5.398780e+002,2.557959e+001
5.408422e+002,2.556091e+001
5.418065e+002,2.493665e+001
5.427707e+002,2.380666e+001
5.437349e+002,2.285556e+001
5.446992e+002,2.226204e+001
5.456634e+002,2.193141e+001
5.466276e+002,2.155333e+001
5.475919e+002,2.046179e+001
5.485561e+002,2.039507e+001
5.495203e+002,2.231738e+001
5.504846e+002,2.489566e+001
5.514488e+002,2.614624e+001
5.524130e+002,2.484668e+001
5.533773e+002,2.354649e+001
5.543415e+002,2.381052e+001
5.553057e+002,2.465302e+001
5.562700e+002,2.509583e+001
5.572342e+002,2.451984e+001
5.581984e+002,2.320250e+001
5.591627e+002,2.179698e+001
5.601269e+002,2.038411e+001
5.610911e+002,1.881389e+001
5.620554e+002,1.692354e+001
5.630196e+002,1.481462e+001
5.639838e+002,1.388307e+001
5.649481e+002,1.489082e+001
5.659123e+002,1.595534e+001
5.668765e+002,1.716191e+001
5.678408e+002,1.839497e+001
5.688050e+002,1.911635e+001
5.697692e+002,1.874081e+001
5.707335e+002,1.800212e+001
5.716977e+002,1.709830e+001
5.726619e+002,1.610730e+001
5.736262e+002,1.499634e+001
5.745904e+002,1.368219e+001
5.755546e+002,1.264674e+001
5.765189e+002,1.258539e+001
5.774831e+002,1.306921e+001
5.784473e+002,1.357944e+001
5.794116e+002,1.380922e+001
5.803758e+002,1.383469e+001
5.813400e+002,1.356451e+001
5.823043e+002,1.272154e+001
5.832685e+002,1.193739e+001
5.842327e+002,1.149666e+001
5.851970e+002,1.145087e+001
5.861612e+002,1.166260e+001
5.871254e+002,1.237492e+001
5.880897e+002,1.290396e+001
5.890539e+002,1.318141e+001
5.900181e+002,1.311197e+001
5.909824e+002,1.246796e+001
5.919466e+002,1.081337e+001
5.929108e+002,9.359543e+000
5.938751e+002,9.584229e+000
5.948393e+002,1.071129e+001
5.958035e+002,1.147188e+001
5.967678e+002,1.097057e+001
5.977320e+002,9.556641e+000
5.986962e+002,1.010667e+001
5.996605e+002,1.265906e+001
6.006247e+002,1.411696e+001
6.015889e+002,1.234615e+001
6.025532e+002,7.672256e+000
6.035174e+002,4.737640e+000
6.044816e+002,4.802795e+000
6.054459e+002,5.552200e+000
6.064101e+002,7.395538e+000
6.073743e+002,9.594818e+000
6.083386e+002,1.103886e+001
6.093028e+002,1.119795e+001
6.102670e+002,1.028510e+001
6.112313e+002,7.784439e+000
6.121955e+002,4.836700e+000
6.131597e+002,2.949615e+000
6.141240e+002,3.142227e+000
6.150882e+002,4.904129e+000
6.160524e+002,6.385376e+000
6.170167e+002,7.680573e+000
6.179809e+002,8.706375e+000
6.189451e+002,9.309586e+000
6.199094e+002,9.488159e+000
6.208736e+002,9.637115e+000
6.218378e+002,1.037273e+001
6.228021e+002,1.053450e+001
6.237663e+002,9.466019e+000
6.247305e+002,7.936462e+000
6.256948e+002,7.180496e+000
6.266590e+002,7.826767e+000
6.276232e+002,8.711273e+000
6.285875e+002,9.503693e+000
6.295517e+002,1.004759e+001
6.305159e+002,1.007387e+001
6.314802e+002,9.424606e+000
6.324444e+002,8.279633e+000
6.334086e+002,7.111603e+000
6.343729e+002,6.028442e+000
6.353371e+002,5.087067e+000
6.363013e+002,4.248169e+000
6.372656e+002,3.559219e+000
6.382298e+002,3.285233e+000
6.391940e+002,3.601532e+000
6.401583e+002,4.125061e+000
6.411225e+002,5.502441e+000
6.420867e+002,6.984680e+000
6.430510e+002,7.435349e+000
6.440152e+002,6.097214e+000
6.449794e+002,4.893387e+000
6.459437e+002,5.152679e+000
6.469079e+002,5.716171e+000
6.478721e+002,5.665924e+000
6.488364e+002,4.739838e+000
6.498006e+002,3.546356e+000
6.507648e+002,3.244644e+000
6.517291e+002,3.394989e+000
6.526933e+002,2.703156e+000
6.536575e+002,8.317108e-001
6.546218e+002,-1.060760e+000
6.555860e+002,-6.013489e-001
6.565502e+002,4.328064e+000
6.575145e+002,6.966827e+000
6.584787e+002,6.340103e+000
6.594429e+002,4.572678e+000
6.604072e+002,3.182724e+000
6.613714e+002,2.390854e+000
6.623356e+002,1.708481e+000
6.632999e+002,4.348297e-001
6.642641e+002,-5.407715e-001
6.652283e+002,-5.374451e-001
6.661926e+002,4.342194e-001
6.671568e+002,1.908142e+000
6.681210e+002,3.498810e+000
6.690853e+002,4.850830e+000
6.700495e+002,5.222748e+000
6.710137e+002,4.662949e+000
6.719780e+002,3.869781e+000
6.729422e+002,3.572128e+000
6.739064e+002,3.854691e+000
6.748707e+002,3.918610e+000
6.758349e+002,3.494003e+000
6.767991e+002,3.176193e+000
6.777634e+002,3.488541e+000
6.787276e+002,4.374359e+000
6.796918e+002,4.917664e+000
6.806561e+002,3.982086e+000
6.816203e+002,3.343796e+000
6.825845e+002,4.280869e+000
6.835488e+002,5.880814e+000
6.845130e+002,6.565079e+000
6.854772e+002,5.106659e+000
6.864415e+002,2.548965e+000
6.874057e+002,9.165802e-001
6.883699e+002,-6.359863e-002
6.893342e+002,-6.874237e-001
6.902984e+002,-1.074951e+000
6.912626e+002,-1.180771e+000
6.922269e+002,-9.105682e-001
6.931911e+002,4.604187e-001
6.941553e+002,1.513489e+000
6.951196e+002,1.617142e+000
6.960838e+002,1.337646e+000
6.970480e+002,1.909927e+000
6.980123e+002,4.412582e+000
6.989765e+002,5.683456e+000
6.999407e+002,3.536697e+000
7.009050e+002,5.487366e-001
7.018692e+002,-1.377396e+000
7.028334e+002,-1.555908e+000
7.037977e+002,-6.738586e-001
7.047619e+002,7.242432e-001
7.057261e+002,2.350769e+000
7.066904e+002,3.416946e+000
7.076546e+002,3.781586e+000
7.086188e+002,3.720032e+000
7.095831e+002,3.616119e+000
7.105473e+002,3.272873e+000
7.115115e+002,3.413803e+000
7.124758e+002,4.955002e+000
7.134400e+002,5.940063e+000
7.144042e+002,4.796951e+000
7.153685e+002,1.597519e+000
7.163327e+002,-1.012100e+000
7.172969e+002,-1.218475e+000
7.182612e+002,-1.078842e+000
7.192254e+002,-1.687851e+000
7.201896e+002,-2.644012e+000
7.211539e+002,-2.838531e+000
7.221181e+002,-1.233627e+000
7.230823e+002,1.378311e+000
7.240466e+002,2.914856e+000
7.250108e+002,3.641479e+000
7.259750e+002,4.086258e+000
7.269393e+002,4.498108e+000
7.279035e+002,4.696823e+000
7.288677e+002,4.090897e+000
7.298320e+002,1.612915e+000
7.307962e+002,9.582520e-002
7.317604e+002,5.456543e-002
7.327247e+002,9.694519e-001
7.336889e+002,2.184708e+000
7.346531e+002,3.569199e+000
7.356174e+002,4.473328e+000
7.365816e+002,4.691025e+000
7.375458e+002,4.642288e+000
7.385101e+002,4.519531e+000
7.394743e+002,4.430191e+000
7.404385e+002,4.463806e+000
7.414028e+002,4.834869e+000
7.423670e+002,5.155197e+000
7.433312e+002,4.659683e+000
7.442955e+002,3.379791e+000
7.452597e+002,2.084183e+000
7.462239e+002,1.623840e+000
7.471882e+002,2.250809e+000
7.481524e+002,2.414047e+000
7.491166e+002,1.238663e+000
7.500809e+002,3.729401e-001
7.510451e+002,8.475647e-001
7.520093e+002,2.237381e+000
7.529736e+002,2.855637e+000
7.539378e+002,1.256210e+000
7.549020e+002,5.023193e-002
7.558663e+002,1.531570e+000
7.568306e+002,4.141449e+000
7.577948e+002,5.490799e+000
7.587590e+002,4.192520e+000
7.597233e+002,1.405746e+000
7.606875e+002,1.183823e+000
7.616517e+002,3.226013e+000
7.626160e+002,4.134338e+000
7.635802e+002,2.715912e+000
7.645444e+002,1.103516e-001
7.655087e+002,-1.329742e+000
7.664729e+002,-1.121750e+000
7.674371e+002,-7.410278e-001
7.684014e+002,-6.488342e-001
7.693656e+002,-1.886444e-001
7.703298e+002,1.550125e+000
7.712941e+002,4.451996e+000
7.722583e+002,6.688965e+000
7.732225e+002,6.396606e+000
7.741868e+002,5.310394e+000
7.751510e+002,4.494263e+000
7.761152e+002,4.095963e+000
7.770795e+002,4.261047e+000
7.780437e+002,5.122620e+000
7.790079e+002,6.413010e+000
7.799722e+002,5.488892e+000
7.809364e+002,2.060730e+000
7.819006e+002,-4.576263e-001
7.828649e+002,-2.484436e-001
7.838291e+002,1.972321e+000
7.847933e+002,3.698685e+000
7.857576e+002,4.822403e+000
7.867218e+002,5.030182e+000
7.876860e+002,3.941895e+000
7.886503e+002,2.514084e+000
7.896145e+002,1.336227e+000
7.905787e+002,6.250305e-001
7.915430e+002,4.826202e-001
7.925072e+002,1.119720e+000
7.934714e+002,2.227890e+000
7.944357e+002,4.038773e+000
7.953999e+002,6.347672e+000
7.963641e+002,8.150620e+000
7.973284e+002,8.224197e+000
7.982926e+002,6.411240e+000
7.992568e+002,5.944153e+000
8.002211e+002,7.653946e+000
8.011853e+002,8.508270e+000
8.021495e+002,6.934418e+000
8.031138e+002,3.834549e+000
8.040780e+002,1.998718e+000
8.050422e+002,2.314270e+000
8.060065e+002,3.099152e+000
8.069707e+002,3.796066e+000
8.079349e+002,4.482697e+000
8.088992e+002,5.383194e+000
8.098634e+002,6.582108e+000
8.108276e+002,7.830704e+000
8.117919e+002,8.791748e+000
8.127561e+002,9.224030e+000
8.137203e+002,8.861206e+000
8.146846e+002,7.803162e+000
8.156488e+002,6.619003e+000
8.166130e+002,5.929367e+000
8.175773e+002,5.781631e+000
8.185415e+002,5.659149e+000
8.195057e+002,5.267914e+000
8.204700e+002,5.048370e+000
8.214342e+002,5.355316e+000
8.223984e+002,5.952652e+000
8.233627e+002,6.246567e+000
8.243269e+002,6.109650e+000
8.252911e+002,5.517670e+000
8.262554e+002,3.458832e+000
8.272196e+002,1.573639e+000
8.281838e+002,2.126099e+000
8.291481e+002,5.565277e+000
8.301123e+002,9.742935e+000
8.310765e+002,1.072812e+001
8.320408e+002,8.682541e+000
8.330050e+002,7.473160e+000
8.339692e+002,7.472610e+000
8.349335e+002,7.838669e+000
8.358977e+002,7.988495e+000
8.368619e+002,8.095016e+000
8.378262e+002,7.113266e+000
8.387904e+002,2.755463e+000
8.397546e+002,-2.322998e-001
8.407189e+002,1.060181e-001
8.416831e+002,2.447403e+000
8.426473e+002,4.549149e+000
8.436116e+002,5.539703e+000
8.445758e+002,5.631729e+000
8.455400e+002,3.812973e+000
8.465043e+002,1.684555e+000
8.474685e+002,1.680359e+000
8.484327e+002,4.298981e+000
8.493970e+002,7.796249e+000
8.503612e+002,9.090469e+000
8.513254e+002,7.667938e+000
8.522897e+002,7.024826e+000
8.532539e+002,7.357147e+000
8.542181e+002,7.952057e+000
8.551824e+002,8.618912e+000
8.561466e+002,9.434326e+000
8.571108e+002,1.018907e+001
8.580751e+002,1.054997e+001
8.590393e+002,1.067372e+001
8.600035e+002,1.057721e+001
8.609678e+002,1.048723e+001
8.619320e+002,1.061169e+001
8.628962e+002,1.101941e+001
8.638605e+002,1.159644e+001
8.648247e+002,1.217622e+001
8.657889e+002,1.280441e+001
8.667532e+002,1.387709e+001
8.677174e+002,1.543402e+001
8.686816e+002,1.651498e+001
8.696459e+002,1.581071e+001
8.706101e+002,1.293213e+001
8.715743e+002,1.171251e+001
8.725386e+002,1.321164e+001
8.735028e+002,1.484949e+001
8.744670e+002,1.606898e+001
8.754313e+002,1.683504e+001
8.763955e+002,1.714369e+001
8.773597e+002,1.683244e+001
8.783240e+002,1.684520e+001
8.792882e+002,1.829764e+001
8.802524e+002,1.997346e+001
8.812167e+002,2.076541e+001
8.821809e+002,2.051576e+001
8.831451e+002,1.980717e+001
8.841094e+002,1.936806e+001
8.850736e+002,1.932123e+001
8.860378e+002,2.000420e+001
8.870021e+002,2.153510e+001
8.879663e+002,2.302144e+001
8.889305e+002,2.394693e+001
8.898948e+002,2.435268e+001
8.908590e+002,2.459839e+001
8.918232e+002,2.472997e+001
8.927875e+002,2.482515e+001
8.937517e+002,2.494572e+001
8.947159e+002,2.502083e+001
8.956802e+002,2.475873e+001
8.966444e+002,2.414764e+001
8.976086e+002,2.369560e+001
8.985729e+002,2.401712e+001
8.995371e+002,2.502754e+001
9.005013e+002,2.693887e+001
9.014656e+002,2.940961e+001
9.024298e+002,3.060254e+001
9.033940e+002,2.886304e+001
9.043583e+002,2.465913e+001
9.053225e+002,2.243103e+001
9.062867e+002,2.398987e+001
9.072510e+002,2.521260e+001
9.082152e+002,2.620229e+001
9.091794e+002,2.693013e+001
9.101437e+002,2.714789e+001
9.111079e+002,2.679404e+001
9.120721e+002,2.674265e+001
9.130364e+002,2.825732e+001
9.140006e+002,2.935330e+001
9.149648e+002,2.816969e+001
9.159291e+002,2.583467e+001
9.168933e+002,2.482761e+001
9.178575e+002,2.680061e+001
9.188218e+002,3.057481e+001
9.197860e+002,3.227399e+001
9.207502e+002,3.186829e+001
9.217145e+002,3.075215e+001
9.226787e+002,2.875320e+001
9.236429e+002,2.678340e+001
9.246072e+002,2.621826e+001
9.255714e+002,2.736786e+001
9.265356e+002,2.781999e+001
9.274999e+002,2.665994e+001
9.284641e+002,2.522458e+001
9.294283e+002,2.383157e+001
9.303926e+002,2.259772e+001
9.313568e+002,2.147043e+001
9.323210e+002,2.038914e+001
9.332853e+002,1.963895e+001
9.342495e+002,2.017351e+001
9.352137e+002,2.123277e+001
9.361780e+002,2.170512e+001
9.371422e+002,2.143066e+001
9.381064e+002,2.092133e+001
9.390707e+002,2.073232e+001
9.400349e+002,2.075932e+001
9.409991e+002,2.108107e+001
9.419634e+002,2.244397e+001
9.429276e+002,2.306973e+001
9.438918e+002,2.162895e+001
9.448561e+002,1.947734e+001
9.458203e+002,1.923964e+001
9.467845e+002,2.210773e+001
9.477488e+002,2.468309e+001
9.487130e+002,2.417766e+001
9.496772e+002,2.244829e+001
9.506415e+002,2.035202e+001
9.516057e+002,1.833046e+001
9.525699e+002,1.689378e+001
9.535342e+002,1.652530e+001
9.544984e+002,1.707083e+001
9.554626e+002,1.771056e+001
9.564269e+002,1.884041e+001
9.573911e+002,1.918607e+001
9.583553e+002,1.751845e+001
9.593196e+002,1.518582e+001
9.602838e+002,1.455139e+001
9.612480e+002,1.608080e+001
9.622123e+002,1.758250e+001
9.631765e+002,1.919308e+001
9.641407e+002,1.996748e+001
9.651050e+002,1.886008e+001
9.660692e+002,1.653351e+001
9.670334e+002,1.439156e+001
9.679977e+002,1.336044e+001
9.689619e+002,1.305942e+001
9.699261e+002,1.208180e+001
9.708904e+002,1.089189e+001
9.718546e+002,1.174490e+001
9.728188e+002,1.545348e+001
9.737831e+002,1.983968e+001
9.747473e+002,2.171660e+001
9.757115e+002,2.030820e+001
9.766758e+002,2.084163e+001
9.776400e+002,2.637425e+001
9.786042e+002,3.029909e+001
9.795685e+002,3.062154e+001
9.805327e+002,2.846265e+001
9.814969e+002,2.500775e+001
9.824612e+002,2.069785e+001
9.834254e+002,1.703255e+001
9.843896e+002,1.597678e+001
9.853539e+002,1.591193e+001
9.863181e+002,1.516721e+001
9.872823e+002,1.365459e+001
9.882466e+002,1.211391e+001
9.892108e+002,1.128802e+001
9.901750e+002,1.115305e+001
9.911393e+002,1.056065e+001
9.921035e+002,8.451767e+000
9.930677e+002,7.089539e+000
9.940320e+002,7.055023e+000
9.949962e+002,7.612015e+000
9.959604e+002,8.261978e+000
9.969247e+002,8.945877e+000
9.978889e+002,9.349655e+000
9.988531e+002,8.644501e+000
9.998174e+002,8.201096e+000
1.000782e+003,9.549545e+000
1.001746e+003,1.159026e+001
1.002710e+003,1.254675e+001
1.003674e+003,1.170224e+001
1.004639e+003,9.966461e+000
1.005603e+003,8.896729e+000
1.006567e+003,8.538818e+000
1.007531e+003,8.768890e+000
1.008495e+003,1.011832e+001
1.009460e+003,1.103175e+001
1.010424e+003,1.033826e+001
1.011388e+003,8.451935e+000
1.012352e+003,6.910278e+000
1.013317e+003,5.712936e+000
1.014281e+003,5.183121e+000
1.015245e+003,5.952362e+000
1.016209e+003,6.710464e+000
1.017174e+003,6.325577e+000
1.018138e+003,4.948029e+000
1.019102e+003,3.707184e+000
1.020066e+003,3.575394e+000
1.021031e+003,4.178940e+000
1.021995e+003,4.305969e+000
1.022959e+003,3.961594e+000
1.023923e+003,3.451401e+000
1.024887e+003,2.830154e+000
1.025852e+003,2.122787e+000
1.026816e+003,1.362015e+000
1.027780e+003,5.574951e-001
1.028744e+003,1.878357e-002
1.029709e+003,-2.530060e-001
1.030673e+003,-2.772217e-001
1.031637e+003,1.883850e-001
1.032601e+003,7.433472e-001
1.033566e+003,7.867889e-001
1.034530e+003,1.559296e-001
1.035494e+003,-4.412231e-001
1.036458e+003,5.435181e-002
1.037422e+003,8.120728e-001
1.038387e+003,2.839661e-002
1.039351e+003,-2.113098e+000
1.040315e+003,-3.454391e+000
1.041279e+003,-2.226852e+000
1.042244e+003,9.925842e-001
1.043208e+003,3.166870e+000
1.044172e+003,3.639923e+000
1.045136e+003,3.849045e+000
1.046101e+003,3.728897e+000
1.047065e+003,3.569809e+000
1.048029e+003,3.638077e+000
1.048993e+003,3.803055e+000
1.049958e+003,3.561295e+000
1.050922e+003,2.531601e+000
1.051886e+003,1.577423e+000
1.052850e+003,1.447983e+000
1.053814e+003,1.917038e+000
1.054779e+003,3.256699e+000
1.055743e+003,5.224121e+000
1.056707e+003,6.234039e+000
1.057671e+003,4.211960e+000
1.058636e+003,-8.896942e-001
1.059600e+003,-3.149536e+000
1.060564e+003,1.864777e-001
1.061528e+003,2.433990e+000
1.062493e+003,1.825241e+000
1.063457e+003,1.397705e-001
1.064421e+003,-7.118073e-001
1.065385e+003,-4.631042e-001
1.066349e+003,1.630859e-001
1.067314e+003,1.178513e+000
1.068278e+003,2.026428e+000
1.069242e+003,2.410263e+000
1.070206e+003,2.405426e+000
1.071171e+003,1.795410e+000
1.072135e+003,6.141815e-001
1.073099e+003,-2.436066e-001
1.074063e+003,9.342499e-001
1.075028e+003,4.512543e+000
1.075992e+003,5.638550e+000
1.076956e+003,3.053558e+000
1.077920e+003,4.758453e-001
1.078885e+003,-8.672180e-001
1.079849e+003,-1.159393e+000
1.080813e+003,-6.146545e-001
1.081777e+003,9.218597e-001
1.082741e+003,2.361374e+000
1.083706e+003,3.473419e+000
1.084670e+003,3.827606e+000
1.085634e+003,2.358063e+000
1.086598e+003,5.648804e-002
1.087563e+003,-1.010925e+000
1.088527e+003,2.443085e-001
1.089491e+003,2.493271e+000
1.090455e+003,2.926849e+000
1.091420e+003,1.218445e+000
1.092384e+003,2.661591e-001
1.093348e+003,3.899231e-001
1.094312e+003,5.197754e-001
1.095276e+003,7.385254e-002
1.096241e+003,-7.317963e-001
1.097205e+003,-1.453171e+000
1.098169e+003,-2.206421e+000
1.099133e+003,-2.598358e+000
1.100098e+003,-1.942535e+000
1.101062e+003,-1.322189e+000
1.102026e+003,-1.504105e+000
1.102990e+003,-2.287537e+000
1.103955e+003,-3.211792e+000
1.104919e+003,-3.994278e+000
1.105883e+003,-4.347702e+000
1.106847e+003,-3.455002e+000
1.107812e+003,-1.301682e+000
1.108776e+003,4.774017e-001
1.109740e+003,1.947327e+000
1.110704e+003,2.779083e+000
1.111668e+003,2.219421e+000
1.112633e+003,8.337097e-001
1.113597e+003,1.090454e+000
1.114561e+003,4.161331e+000
1.115525e+003,6.454651e+000
1.116490e+003,6.634308e+000
1.117454e+003,6.006531e+000
1.118418e+003,5.334198e+000
1.119382e+003,4.702805e+000
1.120347e+003,3.765015e+000
1.121311e+003,2.231003e+000
1.122275e+003,3.286285e-001
1.123239e+003,-1.380539e+000
1.124203e+003,-2.705536e+000
1.125168e+003,-3.048492e+000
1.126132e+003,-1.990829e+000
1.127096e+003,-8.352966e-001
1.128060e+003,-7.630310e-001
1.129025e+003,-1.528107e+000
1.129989e+003,-1.833740e+000
1.130953e+003,-1.641525e+000
1.131917e+003,-9.246826e-001
1.132882e+003,1.296768e+000
1.133846e+003,3.108780e+000
1.134810e+003,2.926727e+000
1.135774e+003,1.399384e+000
1.136739e+003,1.230927e-001
1.137703e+003,2.014160e-003
1.138667e+003,7.353516e-001
1.139631e+003,2.088928e+000
1.140595e+003,3.887527e+000
1.141560e+003,4.848663e+000
1.142524e+003,4.779526e+000
1.143488e+003,4.613449e+000
1.144452e+003,4.508438e+000
1.145417e+003,4.754181e+000
1.146381e+003,6.705643e+000
1.147345e+003,1.127426e+001
1.148309e+003,1.505502e+001
1.149274e+003,1.705612e+001
1.150238e+003,1.838869e+001
1.151202e+003,1.929443e+001
1.152166e+003,2.010251e+001
1.153130e+003,2.113956e+001
1.154095e+003,2.249384e+001
1.155059e+003,2.400583e+001
1.156023e+003,2.576219e+001
1.156987e+003,2.760100e+001
1.157952e+003,2.837296e+001
1.158916e+003,2.829027e+001
1.159880e+003,2.696307e+001
1.160844e+003,2.320857e+001
1.161809e+003,1.807716e+001
1.162773e+003,1.416548e+001
1.163737e+003,1.164749e+001
1.164701e+003,9.675018e+000
1.165666e+003,8.314926e+000
1.166630e+003,7.311005e+000
1.167594e+003,7.020126e+000
1.168558e+003,6.817169e+000
1.169522e+003,5.547043e+000
1.170487e+003,3.117004e+000
1.171451e+003,1.163940e+000
1.172415e+003,1.663025e+000
1.173379e+003,3.979126e+000
1.174344e+003,4.759583e+000
1.175308e+003,4.012711e+000
1.176272e+003,3.186661e+000
1.177236e+003,2.766068e+000
1.178201e+003,2.531219e+000
1.179165e+003,2.013474e+000
1.180129e+003,1.143433e+000
1.181093e+003,8.983459e-001
1.182057e+003,2.645645e+000
1.183022e+003,3.322311e+000
1.183986e+003,7.163696e-001
1.184950e+003,-2.585358e+000
1.185914e+003,-4.068665e+000
1.186879e+003,-3.537384e+000
1.187843e+003,-2.410446e+000
1.188807e+003,-1.862061e+000
1.189771e+003,-1.665192e+000
1.190736e+003,-9.206390e-001
1.191700e+003,4.874268e-001
1.192664e+003,9.973450e-001
1.193628e+003,1.228790e-001
1.194593e+003,-1.106888e+000
1.195557e+003,-2.260208e+000
1.196521e+003,-3.224762e+000
1.197485e+003,-3.334000e+000
1.198449e+003,-1.983673e+000
1.199414e+003,-1.338898e+000
1.200378e+003,-3.480194e+000
1.201342e+003,-5.633575e+000
1.202306e+003,-5.800735e+000
1.203271e+003,-4.656067e+000
1.204235e+003,-3.849442e+000
1.205199e+003,-4.196655e+000
1.206163e+003,-5.223785e+000
1.207128e+003,-6.224945e+000
1.208092e+003,-7.205505e+000
1.209056e+003,-7.442871e+000
1.210020e+003,-6.196823e+000
1.210984e+003,-5.762299e+000
1.211949e+003,-7.627579e+000
1.212913e+003,-1.017239e+001
1.213877e+003,-1.111629e+001
1.214841e+003,-1.033098e+001
1.215806e+003,-9.738739e+000
1.216770e+003,-1.014304e+001
1.217734e+003,-1.087175e+001
1.218698e+003,-1.170892e+001
1.219663e+003,-1.246109e+001
1.220627e+003,-1.275560e+001
1.221591e+003,-1.262254e+001
1.222555e+003,-1.256618e+001
1.223520e+003,-1.305525e+001
1.224484e+003,-1.385175e+001
1.225448e+003,-1.395712e+001
1.226412e+003,-1.279398e+001
1.227376e+003,-1.229172e+001
1.228341e+003,-1.318988e+001
1.229305e+003,-1.395206e+001
1.230269e+003,-1.352821e+001
1.231233e+003,-1.244711e+001
1.232198e+003,-1.192848e+001
1.233162e+003,-1.229111e+001
1.234126e+003,-1.231210e+001
1.235090e+003,-1.044452e+001
1.236055e+003,-8.595963e+000
1.237019e+003,-9.289871e+000
1.237983e+003,-1.165659e+001
1.238947e+003,-1.307471e+001
1.239911e+003,-1.242668e+001
1.240876e+003,-1.123904e+001
1.241840e+003,-1.195828e+001
1.242804e+003,-1.474760e+001
1.243768e+003,-1.632632e+001
1.244733e+003,-1.559700e+001
1.245697e+003,-1.501627e+001
1.246661e+003,-1.524895e+001
1.247625e+003,-1.539667e+001
1.248590e+003,-1.423618e+001
1.249554e+003,-1.229446e+001
1.250518e+003,-1.152328e+001
1.251482e+003,-1.292670e+001
1.252447e+003,-1.489267e+001
1.253411e+003,-1.556810e+001
1.254375e+003,-1.524789e+001
1.255339e+003,-1.445686e+001
1.256303e+003,-1.323615e+001
1.257268e+003,-1.233321e+001
1.258232e+003,-1.240945e+001
1.259196e+003,-1.291048e+001
1.260160e+003,-1.250969e+001
1.261125e+003,-1.096872e+001
1.262089e+003,-9.573380e+000
1.263053e+003,-8.096802e+000
1.264017e+003,-7.443924e+000
1.264982e+003,-8.340149e+000
1.265946e+003,-9.702057e+000
1.266910e+003,-1.066129e+001
1.267874e+003,-1.106216e+001
1.268839e+003,-1.114648e+001
1.269803e+003,-1.106898e+001
1.270767e+003,-1.067981e+001
1.271731e+003,-9.414658e+000
1.272695e+003,-7.346817e+000
1.273660e+003,-6.734482e+000
1.274624e+003,-8.256821e+000
1.275588e+003,-9.893692e+000
1.276552e+003,-1.068599e+001
1.277517e+003,-1.070404e+001
1.278481e+003,-9.951019e+000
1.279445e+003,-8.371628e+000
1.280409e+003,-7.151291e+000
1.281374e+003,-6.404678e+000
1.282338e+003,-6.517899e+000
1.283302e+003,-8.659973e+000
1.284266e+003,-1.110805e+001
1.285230e+003,-1.150089e+001
1.286195e+003,-9.922333e+000
1.287159e+003,-8.675461e+000
1.288123e+003,-9.627594e+000
1.289087e+003,-1.181084e+001
1.290052e+003,-1.235487e+001
1.291016e+003,-1.055818e+001
1.291980e+003,-9.866425e+000
1.292944e+003,-1.157419e+001
1.293909e+003,-1.275325e+001
1.294873e+003,-1.156003e+001
1.295837e+003,-9.478897e+000
1.296801e+003,-8.541824e+000
1.297766e+003,-9.022202e+000
1.298730e+003,-1.021754e+001
1.299694e+003,-1.225029e+001
1.300658e+003,-1.407452e+001
1.301622e+003,-1.456335e+001
1.302587e+003,-1.404726e+001
1.303551e+003,-1.277005e+001
1.304515e+003,-1.084990e+001
1.305479e+003,-8.900970e+000
1.306444e+003,-7.384674e+000
1.307408e+003,-6.373413e+000
1.308372e+003,-6.068985e+000
1.309336e+003,-6.647064e+000
1.310301e+003,-7.430969e+000
1.311265e+003,-8.733490e+000
1.312229e+003,-9.714142e+000
1.313193e+003,-1.031816e+001
1.314157e+003,-1.037543e+001
1.315122e+003,-9.215607e+000
1.316086e+003,-7.255432e+000
1.317050e+003,-6.172241e+000
1.318014e+003,-7.082764e+000
1.318979e+003,-8.978088e+000
1.319943e+003,-1.031903e+001
1.320907e+003,-1.103374e+001
1.321871e+003,-1.099098e+001
1.322836e+003,-1.003796e+001
1.323800e+003,-9.215820e+000
1.324764e+003,-9.212234e+000
1.325728e+003,-9.581665e+000
1.326693e+003,-9.383881e+000
1.327657e+003,-8.613815e+000
1.328621e+003,-8.963974e+000
1.329585e+003,-1.216907e+001
1.330549e+003,-1.389174e+001
1.331514e+003,-1.038603e+001
1.332478e+003,-6.057648e+000
1.333442e+003,-5.444305e+000
1.334406e+003,-8.106430e+000
1.335371e+003,-1.077296e+001
1.336335e+003,-1.142615e+001
1.337299e+003,-1.073836e+001
1.338263e+003,-9.973709e+000
1.339228e+003,-9.122055e+000
1.340192e+003,-8.241547e+000
1.341156e+003,-6.927444e+000
1.342120e+003,-6.174667e+000
1.343084e+003,-6.629059e+000
1.344049e+003,-7.383072e+000
1.345013e+003,-7.612778e+000
1.345977e+003,-7.385147e+000
1.346941e+003,-7.283203e+000
1.347906e+003,-7.539627e+000
1.348870e+003,-7.685577e+000
1.349834e+003,-7.191452e+000
1.350798e+003,-6.436600e+000
1.351763e+003,-6.054932e+000
1.352727e+003,-5.993500e+000
1.353691e+003,-6.033112e+000
1.354655e+003,-6.086472e+000
1.355620e+003,-6.205963e+000
1.356584e+003,-6.244019e+000
1.357548e+003,-6.275757e+000
1.358512e+003,-7.503403e+000
1.359476e+003,-1.111845e+001
1.360441e+003,-1.315860e+001
1.361405e+003,-1.142368e+001
1.362369e+003,-9.153519e+000
1.363333e+003,-7.583145e+000
1.364298e+003,-6.623276e+000
1.365262e+003,-6.012527e+000
1.366226e+003,-5.613800e+000
1.367190e+003,-5.307159e+000
1.368155e+003,-4.980774e+000
1.369119e+003,-4.729263e+000
1.370083e+003,-4.864899e+000
1.371047e+003,-5.510300e+000
1.372011e+003,-5.842529e+000
1.372976e+003,-5.794846e+000
1.373940e+003,-5.707718e+000
1.374904e+003,-5.477219e+000
1.375868e+003,-5.354034e+000
1.376833e+003,-5.858078e+000
1.377797e+003,-6.917831e+000
1.378761e+003,-7.699432e+000
1.379725e+003,-7.813843e+000
1.380690e+003,-7.601852e+000
1.381654e+003,-7.249664e+000
1.382618e+003,-6.832596e+000
1.383582e+003,-6.447952e+000
1.384547e+003,-6.111816e+000
1.385511e+003,-5.859009e+000
1.386475e+003,-5.740677e+000
1.387439e+003,-5.729584e+000
1.388403e+003,-5.762909e+000
1.389368e+003,-5.848709e+000
1.390332e+003,-6.019119e+000
1.391296e+003,-6.249802e+000
1.392260e+003,-6.517975e+000
1.393225e+003,-7.005615e+000
1.394189e+003,-7.366348e+000
1.395153e+003,-7.730316e+000
1.396117e+003,-7.686966e+000
1.397082e+003,-5.974319e+000
1.398046e+003,-2.808151e+000
1.399010e+003,-8.822174e-001
1.399974e+003,-2.805222e+000
1.400938e+003,-7.049744e+000
1.401903e+003,-8.448746e+000
1.402867e+003,-5.839066e+000
1.403831e+003,-4.381271e+000
1.404795e+003,-5.307541e+000
1.405760e+003,-5.859100e+000
1.406724e+003,-4.563858e+000
1.407688e+003,-3.025146e+000
1.408652e+003,-3.182495e+000
1.409617e+003,-4.805573e+000
1.410581e+003,-6.264709e+000
1.411545e+003,-7.003265e+000
1.412509e+003,-7.006424e+000
1.413474e+003,-5.904999e+000
1.414438e+003,-4.375458e+000
1.415402e+003,-3.201675e+000
1.416366e+003,-2.404129e+000
1.417330e+003,-2.453201e+000
1.418295e+003,-3.783417e+000
1.419259e+003,-5.066422e+000
1.420223e+003,-4.462860e+000
1.421187e+003,-2.412506e+000
1.422152e+003,-1.399368e+000
1.423116e+003,-1.551743e+000
1.424080e+003,-2.211243e+000
1.425044e+003,-4.306351e+000
1.426009e+003,-5.828842e+000
1.426973e+003,-5.584976e+000
1.427937e+003,-4.516418e+000
1.428901e+003,-3.469818e+000
1.429865e+003,-2.742462e+000
1.430830e+003,-2.451752e+000
1.431794e+003,-2.711487e+000
1.432758e+003,-3.703461e+000
1.433722e+003,-5.882370e+000
1.434687e+003,-9.462936e+000
1.435651e+003,-1.005573e+001
1.436615e+003,-4.870544e+000
1.437579e+003,-1.389923e+000
1.438544e+003,-9.273529e-001
1.439508e+003,-1.604706e+000
1.440472e+003,-2.484039e+000
1.441436e+003,-3.358307e+000
1.442401e+003,-4.354172e+000
1.443365e+003,-5.438919e+000
1.444329e+003,-5.856506e+000
1.445293e+003,-4.911652e+000
1.446257e+003,-3.259689e+000
1.447222e+003,-1.960907e+000
1.448186e+003,-1.068207e+000
1.449150e+003,-1.046722e+000
1.450114e+003,-2.167542e+000
1.451079e+003,-3.326309e+000
1.452043e+003,-4.147736e+000
1.453007e+003,-4.463470e+000
1.453971e+003,-3.661697e+000
1.454936e+003,-2.033356e+000
1.455900e+003,-1.706085e+000
1.456864e+003,-3.570007e+000
1.457828e+003,-5.018036e+000
1.458792e+003,-3.928284e+000
1.459757e+003,-2.459946e+000
1.460721e+003,-2.438843e+000
1.461685e+003,-3.378510e+000
1.462649e+003,-4.293686e+000
1.463614e+003,-4.817490e+000
1.464578e+003,-4.692535e+000
1.465542e+003,-3.585632e+000
1.466506e+003,-1.975220e+000
1.467471e+003,-1.303909e+000
1.468435e+003,-1.790100e+000
1.469399e+003,-1.621597e+000
1.470363e+003,1.913452e-001
1.471328e+003,1.162125e+000
1.472292e+003,4.592896e-003
1.473256e+003,-1.593353e+000
1.474220e+003,-2.371292e+000
1.475184e+003,-2.465210e+000
1.476149e+003,-2.606613e+000
1.477113e+003,-3.033600e+000
1.478077e+003,-3.198517e+000
1.479041e+003,-2.483765e+000
1.480006e+003,-1.204651e+000
1.480970e+003,-5.621948e-001
1.481934e+003,-6.781616e-001
1.482898e+003,-1.373367e+000
1.483863e+003,-3.638901e+000
1.484827e+003,-5.058182e+000
1.485791e+003,-4.133087e+000
1.486755e+003,-2.715866e+000
1.487719e+003,-2.744171e+000
1.488684e+003,-3.802414e+000
1.489648e+003,-4.268051e+000
1.490612e+003,-3.589340e+000
1.491576e+003,-2.497070e+000
1.492541e+003,-1.589569e+000
1.493505e+003,-7.431946e-001
1.494469e+003,4.916840e-001
1.495433e+003,1.920166e+000
1.496398e+003,2.735214e+000
1.497362e+003,2.858246e+000
1.498326e+003,2.734268e+000
1.499290e+003,2.161575e+000
1.500255e+003,1.747574e+000
1.501219e+003,2.339584e+000
1.502183e+003,3.833740e+000
1.503147e+003,5.797974e+000
1.504111e+003,8.323502e+000
1.505076e+003,1.035892e+001
1.506040e+003,1.125800e+001
1.507004e+003,1.141379e+001
1.507968e+003,1.039333e+001
1.508933e+003,9.238312e+000
1.509897e+003,1.048367e+001
1.510861e+003,1.454939e+001
1.511825e+003,1.889134e+001
1.512790e+003,2.172331e+001
1.513754e+003,2.352364e+001
1.514718e+003,2.509897e+001
1.515682e+003,2.640331e+001
1.516646e+003,2.824020e+001
1.517611e+003,3.090892e+001
1.518575e+003,3.378192e+001
1.519539e+003,3.784152e+001
1.520503e+003,4.094696e+001
1.521468e+003,4.137181e+001
1.522432e+003,4.036104e+001
1.523396e+003,3.955286e+001
1.524360e+003,3.927336e+001
1.525325e+003,3.923839e+001
1.526289e+003,3.927840e+001
1.527253e+003,3.864183e+001
1.528217e+003,3.568900e+001
1.529182e+003,3.042148e+001
1.530146e+003,2.708261e+001
1.531110e+003,2.708841e+001
1.532074e+003,2.630032e+001
1.533039e+003,2.398491e+001
1.534003e+003,2.108195e+001
1.534967e+003,1.784576e+001
1.535931e+003,1.462100e+001
1.536896e+003,1.132346e+001
1.537860e+003,8.337799e+000
1.538824e+003,6.883530e+000
1.539788e+003,7.413010e+000
1.540752e+003,7.995178e+000
1.541717e+003,6.004684e+000
1.542681e+003,2.196320e+000
1.543645e+003,1.234924e+000
1.544609e+003,5.028214e+000
1.545573e+003,7.018311e+000
1.546538e+003,5.246750e+000
1.547502e+003,4.080872e+000
1.548466e+003,5.970062e+000
1.549430e+003,8.706223e+000
1.550395e+003,1.029659e+001
1.551359e+003,1.051251e+001
1.552323e+003,9.294830e+000
1.553287e+003,6.786346e+000
1.554252e+003,4.705475e+000
1.555216e+003,4.710739e+000
1.556180e+003,5.712051e+000
1.557144e+003,5.025253e+000
1.558109e+003,2.613541e+000
1.559073e+003,1.147568e+000
1.560037e+003,9.771423e-001
1.561001e+003,8.778992e-001
1.561966e+003,1.913452e-001
1.562930e+003,-1.432037e-001
1.563894e+003,1.216843e+000
1.564858e+003,3.409454e+000
1.565823e+003,4.208893e+000
1.566787e+003,3.241425e+000
1.567751e+003,2.131592e+000
1.568715e+003,1.726944e+000
1.569679e+003,1.833572e+000
1.570644e+003,2.328217e+000
1.571608e+003,3.030518e+000
1.572572e+003,3.633896e+000
1.573536e+003,4.183655e+000
1.574500e+003,4.431213e+000
1.575465e+003,3.966064e+000
1.576429e+003,3.628036e+000
1.577393e+003,4.250305e+000
1.578357e+003,5.353409e+000
1.579322e+003,6.071198e+000
1.580286e+003,6.381363e+000
1.581250e+003,6.594406e+000
1.582214e+003,6.748047e+000
1.583179e+003,7.044327e+000
1.584143e+003,7.834747e+000
1.585107e+003,8.574905e+000
1.586071e+003,8.679306e+000
1.587036e+003,8.315094e+000
1.588000e+003,7.634796e+000
1.588964e+003,6.580154e+000
1.589928e+003,5.632858e+000
1.590893e+003,4.893997e+000
1.591857e+003,4.683517e+000
1.592821e+003,5.946320e+000
1.593785e+003,8.321045e+000
1.594750e+003,9.408585e+000
1.595714e+003,8.624664e+000
1.596678e+003,8.305573e+000
1.597642e+003,1.001169e+001
1.598606e+003,1.154231e+001
1.599571e+003,1.084537e+001
1.600535e+003,9.179947e+000
1.601499e+003,7.741119e+000
1.602463e+003,6.810257e+000
1.603427e+003,7.069839e+000
1.604392e+003,8.897598e+000
1.605356e+003,1.120247e+001
1.606320e+003,1.329897e+001
1.607284e+003,1.489844e+001
1.608249e+003,1.478766e+001
1.609213e+003,1.288162e+001
1.610177e+003,1.209381e+001
1.611141e+003,1.344858e+001
1.612106e+003,1.458505e+001
1.613070e+003,1.401064e+001
1.614034e+003,1.310173e+001
1.614998e+003,1.278860e+001
1.615963e+003,1.286031e+001
1.616927e+003,1.281985e+001
1.617891e+003,1.261530e+001
1.618855e+003,1.271779e+001
1.619820e+003,1.346002e+001
1.620784e+003,1.411464e+001
1.621748e+003,1.329646e+001
1.622712e+003,1.156360e+001
1.623677e+003,1.224916e+001
1.624641e+003,1.608272e+001
1.625605e+003,1.809552e+001
1.626569e+003,1.578609e+001
1.627533e+003,1.351620e+001
1.628498e+003,1.392090e+001
1.629462e+003,1.498875e+001
1.630426e+003,1.507324e+001
1.631390e+003,1.439116e+001
1.632354e+003,1.354213e+001
1.633319e+003,1.277170e+001
1.634283e+003,1.254240e+001
1.635247e+003,1.322835e+001
1.636211e+003,1.449525e+001
1.637176e+003,1.604366e+001
1.638140e+003,1.783447e+001
1.639104e+003,1.879907e+001
1.640068e+003,1.889317e+001
1.641033e+003,1.797321e+001
1.641997e+003,1.462259e+001
1.642961e+003,1.231551e+001
1.643925e+003,1.393642e+001
1.644890e+003,1.636176e+001
1.645854e+003,1.600981e+001
1.646818e+003,1.382964e+001
1.647782e+003,1.322716e+001
1.648747e+003,1.513281e+001
1.649711e+003,1.696727e+001
1.650675e+003,1.656773e+001
1.651639e+003,1.498021e+001
1.652604e+003,1.408411e+001
1.653568e+003,1.383171e+001
1.654532e+003,1.442892e+001
1.655496e+003,1.638614e+001
1.656460e+003,1.740056e+001
1.657425e+003,1.642545e+001
1.658389e+003,1.493027e+001
1.659353e+003,1.316644e+001
1.660317e+003,1.172008e+001
1.661281e+003,1.148463e+001
1.662246e+003,1.207343e+001
1.663210e+003,1.241528e+001
1.664174e+003,1.215918e+001
1.665138e+003,1.123195e+001
1.666103e+003,9.132553e+000
1.667067e+003,6.927521e+000
1.668031e+003,7.413742e+000
1.668995e+003,1.031723e+001
1.669960e+003,1.103792e+001
1.670924e+003,8.636612e+000
1.671888e+003,6.758408e+000
1.672852e+003,6.545425e+000
1.673817e+003,7.009079e+000
1.674781e+003,7.880295e+000
1.675745e+003,8.769211e+000
1.676709e+003,9.367477e+000
1.677674e+003,9.584076e+000
1.678638e+003,9.104645e+000
1.679602e+003,7.848755e+000
1.680566e+003,6.834702e+000
1.681531e+003,6.966614e+000
1.682495e+003,7.747284e+000
1.683459e+003,8.472351e+000
1.684423e+003,9.018906e+000
1.685387e+003,8.695038e+000
1.686352e+003,7.310318e+000
1.687316e+003,6.372726e+000
1.688280e+003,6.637421e+000
1.689244e+003,6.922928e+000
1.690208e+003,5.823822e+000
1.691173e+003,4.620453e+000
1.692137e+003,5.112762e+000
1.693101e+003,6.810913e+000
1.694065e+003,7.799591e+000
1.695030e+003,7.537933e+000
1.695994e+003,6.886139e+000
1.696958e+003,6.163773e+000
1.697922e+003,5.660309e+000
1.698887e+003,6.199127e+000
1.699851e+003,7.197342e+000
1.700815e+003,6.346771e+000
1.701779e+003,3.495575e+000
1.702744e+003,1.988617e+000
1.703708e+003,3.305222e+000
1.704672e+003,4.734573e+000
1.705636e+003,3.998306e+000
1.706601e+003,2.418289e+000
1.707565e+003,2.194443e+000
1.708529e+003,2.934738e+000
1.709493e+003,3.322296e+000
1.710458e+003,3.213730e+000
1.711422e+003,2.579163e+000
1.712386e+003,6.385193e-001
1.713350e+003,-8.002777e-001
1.714314e+003,1.300049e-002
1.715279e+003,1.960571e+000
1.716243e+003,3.430573e+000
1.717207e+003,4.297211e+000
1.718171e+003,4.913849e+000
1.719135e+003,5.396652e+000
1.720100e+003,4.853180e+000
1.721064e+003,2.327545e+000
1.722028e+003,-5.820618e-001
1.722992e+003,-1.447296e+000
1.723957e+003,-5.394745e-001
1.724921e+003,1.048889e-001
1.725885e+003,3.008423e-001
1.726849e+003,6.554871e-001
1.727814e+003,1.750610e+000
1.728778e+003,2.621109e+000
1.729742e+003,2.928680e+000
1.730706e+003,2.710129e+000
1.731671e+003,1.265030e+000
1.732635e+003,-5.377655e-001
1.733599e+003,-3.817444e-001
1.734563e+003,1.763565e+000
1.735528e+003,3.031036e+000
1.736492e+003,1.885864e+000
1.737456e+003,4.359741e-001
1.738420e+003,1.280472e+000
1.739385e+003,3.536240e+000
1.740349e+003,4.117661e+000
1.741313e+003,2.693466e+000
1.742277e+003,1.537766e+000
1.743241e+003,7.459412e-001
1.744206e+003,1.672668e-001
1.745170e+003,-1.202240e-001
1.746134e+003,-3.831482e-001
1.747098e+003,-7.699738e-001
1.748063e+003,-1.220184e+000
1.749027e+003,-1.826019e+000
1.749991e+003,-2.365433e+000
1.750955e+003,-2.295486e+000
1.751919e+003,-1.522797e+000
1.752884e+003,-6.350708e-001
1.753848e+003,-1.216888e-001
1.754812e+003,2.450409e-001
1.755776e+003,1.067780e+000
1.756741e+003,2.363297e+000
1.757705e+003,2.514465e+000
1.758669e+003,9.810638e-001
1.759633e+003,-2.873383e-001
1.760598e+003,-1.224197e+000
1.761562e+003,-1.779922e+000
1.762526e+003,-1.489899e+000
1.763490e+003,-1.153763e+000
1.764455e+003,-1.717056e+000
1.765419e+003,-2.399307e+000
1.766383e+003,-1.711227e+000
1.767347e+003,1.732483e-001
1.768312e+003,1.620392e+000
1.769276e+003,1.844742e+000
1.770240e+003,1.372253e+000
1.771204e+003,6.310272e-001
1.772168e+003,-9.512329e-002
1.773133e+003,-2.549591e-001
1.774097e+003,9.577942e-002
1.775061e+003,5.272064e-001
1.776025e+003,1.009811e+000
1.776990e+003,8.339844e-001
1.777954e+003,-6.363220e-001
1.778918e+003,-1.672165e+000
1.779882e+003,-5.072479e-001
1.780846e+003,1.245148e+000
1.781811e+003,1.344681e+000
1.782775e+003,2.721558e-001
1.783739e+003,-4.110260e-001
1.784703e+003,-4.359741e-001
1.785668e+003,-4.183655e-001
1.786632e+003,-5.272522e-001
1.787596e+003,-9.498444e-001
1.788560e+003,-2.160324e+000
1.789525e+003,-3.348450e+000
1.790489e+003,-3.472672e+000
1.791453e+003,-2.673477e+000
1.792417e+003,-1.217636e+000
1.793382e+003,6.776886e-001
1.794346e+003,1.795288e+000
1.795310e+003,1.438889e+000
1.796274e+003,6.566315e-001
1.797239e+003,7.378082e-001
1.798203e+003,1.344772e+000
1.799167e+003,1.038330e+000
1.800131e+003,-6.040344e-001
1.801095e+003,-1.290894e+000
1.802060e+003,1.681824e-001
1.803024e+003,8.574066e-001
1.803988e+003,-5.667114e-001
1.804952e+003,-1.599182e+000
1.805917e+003,-4.782104e-001
1.806881e+003,1.109161e+000
1.807845e+003,1.426788e+000
1.808809e+003,8.371124e-001
1.809773e+003,3.735352e-001
1.810738e+003,3.415833e-001
1.811702e+003,5.723267e-001
1.812666e+003,9.438934e-001
1.813630e+003,1.317734e+000
1.814595e+003,1.543472e+000
1.815559e+003,1.552231e+000
1.816523e+003,8.642731e-001
1.817487e+003,-6.953125e-001
1.818452e+003,-4.894562e-001
1.819416e+003,2.765656e+000
1.820380e+003,4.535873e+000
1.821344e+003,2.520554e+000
1.822309e+003,1.293793e-001
1.823273e+003,-7.510681e-001
1.824237e+003,-8.345642e-001
1.825201e+003,-9.108124e-001
1.826166e+003,-8.381653e-001
1.827130e+003,2.006989e-001
1.828094e+003,2.263641e+000
1.829058e+003,3.548782e+000
1.830022e+003,3.128189e+000
1.830987e+003,1.961975e+000
1.831951e+003,2.512512e-001
1.832915e+003,-1.290543e+000
1.833879e+003,-1.458435e+000
1.834844e+003,-5.835114e-001
1.835808e+003,2.943420e-001
1.836772e+003,9.827881e-001
1.837736e+003,1.685333e+000
1.838700e+003,2.478867e+000
1.839665e+003,2.610367e+000
1.840629e+003,1.245850e+000
1.841593e+003,-7.056274e-001
1.842557e+003,-1.334869e+000
1.843522e+003,-6.647797e-001
1.844486e+003,-2.089386e-001
1.845450e+003,-8.934021e-002
1.846414e+003,2.212677e-001
1.847379e+003,6.426086e-001
1.848343e+003,1.138123e+000
1.849307e+003,2.202042e+000
1.850271e+003,2.891022e+000
1.851236e+003,2.270584e+000
1.852200e+003,1.089417e+000
1.853164e+003,1.696320e-001
1.854128e+003,-3.456268e-001
1.855093e+003,-4.882965e-001
1.856057e+003,-2.256622e-001
1.857021e+003,5.041199e-001
1.857985e+003,1.819778e+000
1.858949e+003,3.083221e+000
1.859914e+003,2.959045e+000
1.860878e+003,1.798218e+000
1.861842e+003,1.625534e+000
1.862806e+003,2.459015e+000
1.863771e+003,2.873459e+000
1.864735e+003,2.602188e+000
1.865699e+003,1.841797e+000
1.866663e+003,3.467255e-001
1.867627e+003,-8.662415e-001
1.868592e+003,-9.556122e-001
1.869556e+003,-2.539520e-001
1.870520e+003,1.016022e+000
1.871484e+003,2.670181e+000
1.872449e+003,3.451965e+000
1.873413e+003,3.213684e+000
1.874377e+003,3.010864e+000
1.875341e+003,2.894608e+000
1.876306e+003,2.863220e+000
1.877270e+003,2.819199e+000
1.878234e+003,2.905991e+000
1.879198e+003,3.641281e+000
1.880163e+003,4.487656e+000
1.881127e+003,4.348969e+000
1.882091e+003,3.298798e+000
1.883055e+003,2.251297e+000
1.884020e+003,1.617828e+000
1.884984e+003,1.285706e+000
1.885948e+003,1.158569e+000
1.886912e+003,1.202240e+000
1.887876e+003,1.365906e+000
1.888841e+003,1.652084e+000
1.889805e+003,1.989716e+000
1.890769e+003,2.371964e+000
1.891733e+003,2.887512e+000
1.892698e+003,3.697479e+000
1.893662e+003,4.139618e+000
1.894626e+003,4.023453e+000
1.895590e+003,3.474091e+000
1.896554e+003,2.209213e+000
1.897519e+003,8.979797e-001
1.898483e+003,2.025909e-001
1.899447e+003,6.764221e-002
1.900411e+003,5.170746e-001
1.901376e+003,1.632385e+000
1.902340e+003,2.373184e+000
1.903304e+003,1.748825e+000
1.904268e+003,1.580231e+000
1.905233e+003,4.061234e+000
1.906197e+003,6.561996e+000
1.907161e+003,5.760651e+000
1.908125e+003,3.315720e+000
1.909090e+003,2.281906e+000
1.910054e+003,2.802139e+000
1.911018e+003,3.767365e+000
1.911982e+003,4.673080e+000
1.912947e+003,4.910736e+000
1.913911e+003,4.013046e+000
1.914875e+003,2.980194e+000
1.915839e+003,3.461487e+000
1.916803e+003,4.932388e+000
1.917768e+003,4.731308e+000
1.918732e+003,2.421402e+000
1.919696e+003,1.803085e+000
1.920660e+003,3.944397e+000
1.921625e+003,4.882034e+000
1.922589e+003,2.372681e+000
1.923553e+003,6.909790e-001
1.924517e+003,3.437057e+000
1.925481e+003,6.797897e+000
1.926446e+003,7.194885e+000
1.927410e+003,5.877243e+000
1.928374e+003,5.472626e+000
1.929338e+003,6.040390e+000
1.930303e+003,5.831131e+000
1.931267e+003,4.070969e+000
1.932231e+003,2.938431e+000
1.933195e+003,3.838058e+000
1.934160e+003,5.042984e+000
1.935124e+003,5.220779e+000
1.936088e+003,5.015884e+000
1.937052e+003,5.662125e+000
1.938017e+003,6.571411e+000
1.938981e+003,5.689072e+000
1.939945e+003,3.307297e+000
1.940909e+003,2.433243e+000
1.941874e+003,4.287415e+000
1.942838e+003,6.651596e+000
1.943802e+003,7.549194e+000
1.944766e+003,7.508301e+000
1.945730e+003,7.419678e+000
1.946695e+003,7.218628e+000
1.947659e+003,6.615677e+000
1.948623e+003,5.493652e+000
1.949587e+003,5.282669e+000
1.950552e+003,6.593216e+000
1.951516e+003,6.979080e+000
1.952480e+003,5.089081e+000
1.953444e+003,3.228500e+000
1.954408e+003,2.878082e+000
1.955373e+003,3.481232e+000
1.956337e+003,4.931351e+000
1.957301e+003,6.788483e+000
1.958265e+003,6.985992e+000
1.959230e+003,5.201370e+000
1.960194e+003,4.241104e+000
1.961158e+003,5.001648e+000
1.962122e+003,5.605118e+000
1.963087e+003,5.387970e+000
1.964051e+003,5.154922e+000
1.965015e+003,5.224030e+000
1.965979e+003,5.748337e+000
1.966944e+003,7.334457e+000
1.967908e+003,9.115021e+000
1.968872e+003,9.734589e+000
1.969836e+003,9.021408e+000
1.970801e+003,7.191528e+000
1.971765e+003,4.496124e+000
1.972729e+003,2.643295e+000
1.973693e+003,3.185394e+000
1.974657e+003,4.971085e+000
1.975622e+003,6.707352e+000
1.976586e+003,8.134415e+000
1.977550e+003,8.371445e+000
1.978514e+003,7.687134e+000
1.979479e+003,7.624069e+000
1.980443e+003,8.345917e+000
1.981407e+003,8.727921e+000
1.982371e+003,8.369370e+000
1.983335e+003,7.774216e+000
1.984300e+003,7.235153e+000
1.985264e+003,6.856720e+000
1.986228e+003,6.905029e+000
1.987192e+003,7.239243e+000
1.988157e+003,7.107941e+000
1.989121e+003,6.387451e+000
1.990085e+003,5.987427e+000
1.991049e+003,6.117111e+000
1.992014e+003,6.219696e+000
1.992978e+003,6.015869e+000
1.993942e+003,5.998245e+000
1.994906e+003,6.464035e+000
1.995871e+003,7.043961e+000
1.996835e+003,7.625076e+000
1.997799e+003,8.097275e+000
1.998763e+003,8.339661e+000
1.999728e+003,8.278839e+000
