5.003444e+002,7.114499e+001
5.013087e+002,6.847865e+001
5.022729e+002,6.896451e+001
5.032371e+002,7.133525e+001
5.042014e+002,7.032845e+001
5.051656e+002,6.654060e+001
5.061298e+002,6.282910e+001
5.070941e+002,6.187463e+001
5.080583e+002,6.444434e+001
5.090225e+002,6.502901e+001
5.099868e+002,6.226437e+001
5.109510e+002,5.960011e+001
5.119152e+002,5.899371e+001
5.128795e+002,6.066731e+001
5.138437e+002,6.216809e+001
5.148079e+002,6.233224e+001
5.157722e+002,6.250244e+001
5.167364e+002,6.349307e+001
5.177006e+002,6.516081e+001
5.186649e+002,6.644865e+001
5.196291e+002,6.601425e+001
5.205933e+002,6.464622e+001
5.215576e+002,6.263924e+001
5.225218e+002,6.015627e+001
5.234860e+002,5.784212e+001
5.244503e+002,5.700249e+001
5.254145e+002,5.842557e+001
5.263787e+002,5.877771e+001
5.273430e+002,5.744691e+001
5.283072e+002,5.546797e+001
5.292714e+002,5.419885e+001
5.302357e+002,5.375591e+001
5.311999e+002,5.354683e+001
5.321641e+002,5.397722e+001
5.331284e+002,5.445598e+001
5.340926e+002,5.424384e+001
5.350568e+002,5.293855e+001
5.360211e+002,5.189696e+001
5.369853e+002,5.327852e+001
5.379495e+002,5.519354e+001
5.389138e+002,5.595918e+001
5.398780e+002,5.495157e+001
5.408422e+002,5.284433e+001
5.418065e+002,5.126993e+001
5.427707e+002,5.021909e+001
5.437349e+002,5.004927e+001
5.446992e+002,5.114441e+001
5.456634e+002,5.299149e+001
5.466276e+002,5.381665e+001
5.475919e+002,5.258176e+001
5.485561e+002,5.155232e+001
5.495203e+002,5.073436e+001
5.504846e+002,5.010892e+001
5.514488e+002,4.965524e+001
5.524130e+002,4.938173e+001
5.533773e+002,4.949190e+001
5.543415e+002,5.067880e+001
5.553057e+002,5.192284e+001
5.562700e+002,5.202196e+001
5.572342e+002,5.023572e+001
5.581984e+002,4.742245e+001
5.591627e+002,4.542545e+001
5.601269e+002,4.415991e+001
5.610911e+002,4.359261e+001
5.620554e+002,4.371475e+001
5.630196e+002,4.441176e+001
5.639838e+002,4.503584e+001
5.649481e+002,4.583994e+001
5.659123e+002,4.622856e+001
5.668765e+002,4.603886e+001
5.678408e+002,4.549716e+001
5.688050e+002,4.509010e+001
5.697692e+002,4.497148e+001
5.707335e+002,4.458377e+001
5.716977e+002,4.350415e+001
5.726619e+002,4.223950e+001
5.736262e+002,4.159436e+001
5.745904e+002,4.227046e+001
5.755546e+002,4.318582e+001
5.765189e+002,4.236670e+001
5.774831e+002,4.044696e+001
5.784473e+002,3.850456e+001
5.794116e+002,3.732506e+001
5.803758e+002,3.696339e+001
5.813400e+002,3.749393e+001
5.823043e+002,3.909605e+001
5.832685e+002,4.042940e+001
5.842327e+002,4.108127e+001
5.851970e+002,4.119873e+001
5.861612e+002,4.130913e+001
5.871254e+002,4.138995e+001
5.880897e+002,4.138960e+001
5.890539e+002,4.127005e+001
5.900181e+002,4.100949e+001
5.909824e+002,4.065669e+001
5.919466e+002,4.037202e+001
5.929108e+002,3.975385e+001
5.938751e+002,3.807324e+001
5.948393e+002,3.594971e+001
5.958035e+002,3.432030e+001
5.967678e+002,3.387877e+001
5.977320e+002,3.454945e+001
5.986962e+002,3.578468e+001
5.996605e+002,3.754994e+001
6.006247e+002,3.881161e+001
6.015889e+002,3.916359e+001
6.025532e+002,3.862979e+001
6.035174e+002,3.746944e+001
6.044816e+002,3.417120e+001
6.054459e+002,3.195282e+001
6.064101e+002,3.172984e+001
6.073743e+002,3.282788e+001
6.083386e+002,3.410440e+001
6.093028e+002,3.527338e+001
6.102670e+002,3.591029e+001
6.112313e+002,3.522272e+001
6.121955e+002,3.408208e+001
6.131597e+002,3.385991e+001
6.141240e+002,3.544910e+001
6.150882e+002,3.805637e+001
6.160524e+002,3.773074e+001
6.170167e+002,3.506212e+001
6.179809e+002,3.332390e+001
6.189451e+002,3.430214e+001
6.199094e+002,3.747586e+001
6.208736e+002,3.917155e+001
6.218378e+002,3.817332e+001
6.228021e+002,3.713560e+001
6.237663e+002,3.597398e+001
6.247305e+002,3.501311e+001
6.256948e+002,3.483130e+001
6.266590e+002,3.604260e+001
6.276232e+002,3.689615e+001
6.285875e+002,3.622861e+001
6.295517e+002,3.494627e+001
6.305159e+002,3.382629e+001
6.314802e+002,3.330032e+001
6.324444e+002,3.326375e+001
6.334086e+002,3.394873e+001
6.343729e+002,3.514565e+001
6.353371e+002,3.608990e+001
6.363013e+002,3.653835e+001
6.372656e+002,3.642596e+001
6.382298e+002,3.556828e+001
6.391940e+002,3.264128e+001
6.401583e+002,3.066936e+001
6.411225e+002,3.033784e+001
6.420867e+002,3.083234e+001
6.430510e+002,3.103934e+001
6.440152e+002,3.038670e+001
6.449794e+002,3.014610e+001
6.459437e+002,3.178392e+001
6.469079e+002,3.348941e+001
6.478721e+002,3.379985e+001
6.488364e+002,3.227631e+001
6.498006e+002,2.978848e+001
6.507648e+002,2.727177e+001
6.517291e+002,2.500974e+001
6.526933e+002,2.387840e+001
6.536575e+002,2.405440e+001
6.546218e+002,2.531966e+001
6.555860e+002,2.737317e+001
6.565502e+002,3.121127e+001
6.575145e+002,3.349504e+001
6.584787e+002,3.391469e+001
6.594429e+002,3.329904e+001
6.604072e+002,3.207808e+001
6.613714e+002,3.023961e+001
6.623356e+002,2.842798e+001
6.632999e+002,2.603223e+001
6.642641e+002,2.437994e+001
6.652283e+002,2.469060e+001
6.661926e+002,2.676138e+001
6.671568e+002,2.939404e+001
6.681210e+002,3.138615e+001
6.690853e+002,3.246428e+001
6.700495e+002,3.221497e+001
6.710137e+002,3.072107e+001
6.719780e+002,2.892332e+001
6.729422e+002,2.776358e+001
6.739064e+002,2.727524e+001
6.748707e+002,2.717697e+001
6.758349e+002,2.774071e+001
6.767991e+002,2.822096e+001
6.777634e+002,2.829834e+001
6.787276e+002,2.809412e+001
6.796918e+002,2.815486e+001
6.806561e+002,2.934917e+001
6.816203e+002,2.984044e+001
6.825845e+002,2.819868e+001
6.835488e+002,2.552574e+001
6.845130e+002,2.358817e+001
6.854772e+002,2.372021e+001
6.864415e+002,2.536049e+001
6.874057e+002,2.758324e+001
6.883699e+002,2.990514e+001
6.893342e+002,3.096031e+001
6.902984e+002,2.986885e+001
6.912626e+002,2.714925e+001
6.922269e+002,2.620496e+001
6.931911e+002,2.933704e+001
6.941553e+002,3.138142e+001
6.951196e+002,3.131081e+001
6.960838e+002,2.999300e+001
6.970480e+002,2.893857e+001
6.980123e+002,2.880942e+001
6.989765e+002,2.809990e+001
6.999407e+002,2.528239e+001
7.009050e+002,2.235027e+001
7.018692e+002,2.106549e+001
7.028334e+002,2.190636e+001
7.037977e+002,2.364137e+001
7.047619e+002,2.467979e+001
7.057261e+002,2.515152e+001
7.066904e+002,2.482974e+001
7.076546e+002,2.367267e+001
7.086188e+002,2.269582e+001
7.095831e+002,2.364998e+001
7.105473e+002,2.766147e+001
7.115115e+002,2.978645e+001
7.124758e+002,2.953429e+001
7.134400e+002,2.829633e+001
7.144042e+002,2.636026e+001
7.153685e+002,2.388904e+001
7.163327e+002,2.247151e+001
7.172969e+002,2.406923e+001
7.182612e+002,2.583275e+001
7.192254e+002,2.665746e+001
7.201896e+002,2.666356e+001
7.211539e+002,2.635245e+001
7.221181e+002,2.609297e+001
7.230823e+002,2.601361e+001
7.240466e+002,2.674332e+001
7.250108e+002,2.808664e+001
7.259750e+002,2.875626e+001
7.269393e+002,2.778065e+001
7.279035e+002,2.535352e+001
7.288677e+002,2.390570e+001
7.298320e+002,2.451062e+001
7.307962e+002,2.521257e+001
7.317604e+002,2.593074e+001
7.327247e+002,2.669164e+001
7.336889e+002,2.751717e+001
7.346531e+002,2.835475e+001
7.356174e+002,2.882906e+001
7.365816e+002,2.893013e+001
7.375458e+002,2.885207e+001
7.385101e+002,2.872635e+001
7.394743e+002,2.857420e+001
7.404385e+002,2.827870e+001
7.414028e+002,2.754662e+001
7.423670e+002,2.630962e+001
7.433312e+002,2.510515e+001
7.442955e+002,2.405612e+001
7.452597e+002,2.356984e+001
7.462239e+002,2.417331e+001
7.471882e+002,2.619600e+001
7.481524e+002,2.769092e+001
7.491166e+002,2.860799e+001
7.500809e+002,2.891505e+001
7.510451e+002,2.837395e+001
7.520093e+002,2.717885e+001
7.529736e+002,2.589186e+001
7.539378e+002,2.455351e+001
7.549020e+002,2.384200e+001
7.558663e+002,2.456804e+001
7.568306e+002,2.590688e+001
7.577948e+002,2.659187e+001
7.587590e+002,2.588132e+001
7.597233e+002,2.440941e+001
7.606875e+002,2.455077e+001
7.616517e+002,2.612827e+001
7.626160e+002,2.685376e+001
7.635802e+002,2.583020e+001
7.645444e+002,2.401909e+001
7.655087e+002,2.349776e+001
7.664729e+002,2.513400e+001
7.674371e+002,2.612894e+001
7.684014e+002,2.588432e+001
7.693656e+002,2.543234e+001
7.703298e+002,2.537189e+001
7.712941e+002,2.581206e+001
7.722583e+002,2.656041e+001
7.732225e+002,2.793752e+001
7.741868e+002,2.909642e+001
7.751510e+002,2.928694e+001
7.761152e+002,2.869138e+001
7.770795e+002,2.775046e+001
7.780437e+002,2.683072e+001
7.790079e+002,2.596413e+001
7.799722e+002,2.573289e+001
7.809364e+002,2.611101e+001
7.819006e+002,2.665245e+001
7.828649e+002,2.758444e+001
7.838291e+002,2.866870e+001
7.847933e+002,2.886575e+001
7.857576e+002,2.728677e+001
7.867218e+002,2.595201e+001
7.876860e+002,2.518018e+001
7.886503e+002,2.494565e+001
7.896145e+002,2.540724e+001
7.905787e+002,2.652681e+001
7.915430e+002,2.767822e+001
7.925072e+002,2.801743e+001
7.934714e+002,2.794125e+001
7.944357e+002,2.799821e+001
7.953999e+002,2.826706e+001
7.963641e+002,2.849460e+001
7.973284e+002,2.832869e+001
7.982926e+002,2.770386e+001
7.992568e+002,2.816043e+001
8.002211e+002,3.033344e+001
8.011853e+002,3.181616e+001
8.021495e+002,3.143570e+001
8.031138e+002,2.987672e+001
8.040780e+002,2.931360e+001
8.050422e+002,3.109885e+001
8.060065e+002,3.193320e+001
8.069707e+002,2.940878e+001
8.079349e+002,2.623592e+001
8.088992e+002,2.548274e+001
8.098634e+002,2.807823e+001
8.108276e+002,3.160321e+001
8.117919e+002,3.252429e+001
8.127561e+002,3.158582e+001
8.137203e+002,3.046078e+001
8.146846e+002,2.946407e+001
8.156488e+002,2.872961e+001
8.166130e+002,2.840623e+001
8.175773e+002,2.860135e+001
8.185415e+002,2.836372e+001
8.195057e+002,2.681947e+001
8.204700e+002,2.579924e+001
8.214342e+002,2.659221e+001
8.223984e+002,2.837947e+001
8.233627e+002,2.878535e+001
8.243269e+002,2.613858e+001
8.252911e+002,2.385411e+001
8.262554e+002,2.392784e+001
8.272196e+002,2.521698e+001
8.281838e+002,2.671333e+001
8.291481e+002,2.794708e+001
8.301123e+002,2.906084e+001
8.310765e+002,3.044212e+001
8.320408e+002,3.186855e+001
8.330050e+002,3.176089e+001
8.339692e+002,2.966763e+001
8.349335e+002,2.725096e+001
8.358977e+002,2.642508e+001
8.368619e+002,2.756172e+001
8.378262e+002,2.789357e+001
8.387904e+002,2.610735e+001
8.397546e+002,2.478293e+001
8.407189e+002,2.489207e+001
8.416831e+002,2.583069e+001
8.426473e+002,2.651146e+001
8.436116e+002,2.647073e+001
8.445758e+002,2.606049e+001
8.455400e+002,2.514935e+001
8.465043e+002,2.416365e+001
8.474685e+002,2.371362e+001
8.484327e+002,2.404521e+001
8.493970e+002,2.509259e+001
8.503612e+002,2.668109e+001
8.513254e+002,2.894905e+001
8.522897e+002,3.022960e+001
8.532539e+002,3.001143e+001
8.542181e+002,2.949452e+001
8.551824e+002,2.931586e+001
8.561466e+002,2.957425e+001
8.571108e+002,3.040984e+001
8.580751e+002,3.274864e+001
8.590393e+002,3.390378e+001
8.600035e+002,3.215398e+001
8.609678e+002,2.945424e+001
8.619320e+002,2.800998e+001
8.628962e+002,2.867445e+001
8.638605e+002,3.025725e+001
8.648247e+002,3.109744e+001
8.657889e+002,3.148857e+001
8.667532e+002,3.225305e+001
8.677174e+002,3.348784e+001
8.686816e+002,3.441315e+001
8.696459e+002,3.396637e+001
8.706101e+002,3.183104e+001
8.715743e+002,3.116298e+001
8.725386e+002,3.328206e+001
8.735028e+002,3.505779e+001
8.744670e+002,3.548204e+001
8.754313e+002,3.495749e+001
8.763955e+002,3.419051e+001
8.773597e+002,3.314980e+001
8.783240e+002,3.301550e+001
8.792882e+002,3.536140e+001
8.802524e+002,3.832004e+001
8.812167e+002,4.042461e+001
8.821809e+002,4.130309e+001
8.831451e+002,4.133623e+001
8.841094e+002,4.098152e+001
8.850736e+002,4.033032e+001
8.860378e+002,4.003828e+001
8.870021e+002,4.020978e+001
8.879663e+002,4.015659e+001
8.889305e+002,3.905251e+001
8.898948e+002,3.722780e+001
8.908590e+002,3.661446e+001
8.918232e+002,3.813631e+001
8.927875e+002,3.982332e+001
8.937517e+002,4.147195e+001
8.947159e+002,4.294331e+001
8.956802e+002,4.419499e+001
8.966444e+002,4.510226e+001
8.976086e+002,4.530638e+001
8.985729e+002,4.405031e+001
8.995371e+002,4.244458e+001
9.005013e+002,4.254938e+001
9.014656e+002,4.409416e+001
9.024298e+002,4.528792e+001
9.033940e+002,4.462962e+001
9.043583e+002,4.239365e+001
9.053225e+002,4.140134e+001
9.062867e+002,4.311389e+001
9.072510e+002,4.409656e+001
9.082152e+002,4.377457e+001
9.091794e+002,4.323543e+001
9.101437e+002,4.361961e+001
9.111079e+002,4.510481e+001
9.120721e+002,4.659814e+001
9.130364e+002,4.814659e+001
9.140006e+002,4.865005e+001
9.149648e+002,4.648935e+001
9.159291e+002,4.296074e+001
9.168933e+002,4.072600e+001
9.178575e+002,4.157292e+001
9.188218e+002,4.428944e+001
9.197860e+002,4.477786e+001
9.207502e+002,4.296182e+001
9.217145e+002,4.138777e+001
9.226787e+002,4.084003e+001
9.236429e+002,4.064954e+001
9.246072e+002,3.959871e+001
9.255714e+002,3.723053e+001
9.265356e+002,3.605855e+001
9.274999e+002,3.746968e+001
9.284641e+002,3.898335e+001
9.294283e+002,3.989970e+001
9.303926e+002,4.035121e+001
9.313568e+002,4.093184e+001
9.323210e+002,4.199829e+001
9.332853e+002,4.263173e+001
9.342495e+002,4.041702e+001
9.352137e+002,3.692809e+001
9.361780e+002,3.466652e+001
9.371422e+002,3.423923e+001
9.381064e+002,3.481563e+001
9.390707e+002,3.525740e+001
9.400349e+002,3.547229e+001
9.409991e+002,3.550775e+001
9.419634e+002,3.501822e+001
9.429276e+002,3.476352e+001
9.438918e+002,3.545441e+001
9.448561e+002,3.637785e+001
9.458203e+002,3.616447e+001
9.467845e+002,3.423665e+001
9.477488e+002,3.233807e+001
9.487130e+002,3.202213e+001
9.496772e+002,3.207025e+001
9.506415e+002,3.124123e+001
9.516057e+002,2.971687e+001
9.525699e+002,2.876079e+001
9.535342e+002,2.961169e+001
9.544984e+002,3.198997e+001
9.554626e+002,3.393274e+001
9.564269e+002,3.579848e+001
9.573911e+002,3.668332e+001
9.583553e+002,3.564920e+001
9.593196e+002,3.372354e+001
9.602838e+002,3.269014e+001
9.612480e+002,3.287154e+001
9.622123e+002,3.271147e+001
9.631765e+002,3.143794e+001
9.641407e+002,3.011511e+001
9.651050e+002,2.917517e+001
9.660692e+002,2.852914e+001
9.670334e+002,2.786540e+001
9.679977e+002,2.703220e+001
9.689619e+002,2.634747e+001
9.699261e+002,2.625761e+001
9.708904e+002,2.666353e+001
9.718546e+002,2.783632e+001
9.728188e+002,2.992137e+001
9.737831e+002,3.229655e+001
9.747473e+002,3.428529e+001
9.757115e+002,3.594768e+001
9.766758e+002,3.702452e+001
9.776400e+002,3.733762e+001
9.786042e+002,3.743536e+001
9.795685e+002,3.759544e+001
9.805327e+002,3.740865e+001
9.814969e+002,3.618272e+001
9.824612e+002,3.373944e+001
9.834254e+002,3.127582e+001
9.843896e+002,2.998181e+001
9.853539e+002,2.912782e+001
9.863181e+002,2.783505e+001
9.872823e+002,2.613905e+001
9.882466e+002,2.483760e+001
9.892108e+002,2.473647e+001
9.901750e+002,2.566812e+001
9.911393e+002,2.551385e+001
9.921035e+002,2.236758e+001
9.930677e+002,2.080431e+001
9.940320e+002,2.247163e+001
9.949962e+002,2.482455e+001
9.959604e+002,2.544077e+001
9.969247e+002,2.420938e+001
9.978889e+002,2.296971e+001
9.988531e+002,2.218878e+001
9.998174e+002,2.187270e+001
1.000782e+003,2.268068e+001
1.001746e+003,2.381163e+001
1.002710e+003,2.391277e+001
1.003674e+003,2.248767e+001
1.004639e+003,2.048181e+001
1.005603e+003,1.959341e+001
1.006567e+003,1.992128e+001
1.007531e+003,1.983606e+001
1.008495e+003,1.902640e+001
1.009460e+003,1.845906e+001
1.010424e+003,1.902284e+001
1.011388e+003,2.038103e+001
1.012352e+003,2.100804e+001
1.013317e+003,2.021715e+001
1.014281e+003,1.961757e+001
1.015245e+003,1.961609e+001
1.016209e+003,1.992871e+001
1.017174e+003,2.084863e+001
1.018138e+003,2.198909e+001
1.019102e+003,2.218127e+001
1.020066e+003,2.035345e+001
1.021031e+003,1.744958e+001
1.021995e+003,1.612747e+001
1.022959e+003,1.598148e+001
1.023923e+003,1.569556e+001
1.024887e+003,1.469557e+001
1.025852e+003,1.357878e+001
1.026816e+003,1.340335e+001
1.027780e+003,1.445369e+001
1.028744e+003,1.541882e+001
1.029709e+003,1.656499e+001
1.030673e+003,1.716106e+001
1.031637e+003,1.654199e+001
1.032601e+003,1.536501e+001
1.033566e+003,1.458330e+001
1.034530e+003,1.454932e+001
1.035494e+003,1.476480e+001
1.036458e+003,1.475150e+001
1.037422e+003,1.450755e+001
1.038387e+003,1.392168e+001
1.039351e+003,1.304939e+001
1.040315e+003,1.239963e+001
1.041279e+003,1.237752e+001
1.042244e+003,1.294263e+001
1.043208e+003,1.379196e+001
1.044172e+003,1.547447e+001
1.045136e+003,1.624226e+001
1.046101e+003,1.523595e+001
1.047065e+003,1.426337e+001
1.048029e+003,1.478313e+001
1.048993e+003,1.638455e+001
1.049958e+003,1.727966e+001
1.050922e+003,1.649483e+001
1.051886e+003,1.528131e+001
1.052850e+003,1.461809e+001
1.053814e+003,1.443997e+001
1.054779e+003,1.505965e+001
1.055743e+003,1.633513e+001
1.056707e+003,1.716298e+001
1.057671e+003,1.612672e+001
1.058636e+003,1.319226e+001
1.059600e+003,1.181995e+001
1.060564e+003,1.331207e+001
1.061528e+003,1.458601e+001
1.062493e+003,1.492813e+001
1.063457e+003,1.492061e+001
1.064421e+003,1.535851e+001
1.065385e+003,1.634920e+001
1.066349e+003,1.703629e+001
1.067314e+003,1.691017e+001
1.068278e+003,1.640926e+001
1.069242e+003,1.541455e+001
1.070206e+003,1.447487e+001
1.071171e+003,1.463553e+001
1.072135e+003,1.615419e+001
1.073099e+003,1.795079e+001
1.074063e+003,1.827356e+001
1.075028e+003,1.702338e+001
1.075992e+003,1.544370e+001
1.076956e+003,1.277896e+001
1.077920e+003,1.090178e+001
1.078885e+003,1.086345e+001
1.079849e+003,1.202736e+001
1.080813e+003,1.338382e+001
1.081777e+003,1.495688e+001
1.082741e+003,1.592638e+001
1.083706e+003,1.507396e+001
1.084670e+003,1.399463e+001
1.085634e+003,1.351482e+001
1.086598e+003,1.350644e+001
1.087563e+003,1.361563e+001
1.088527e+003,1.366153e+001
1.089491e+003,1.367975e+001
1.090455e+003,1.363065e+001
1.091420e+003,1.344067e+001
1.092384e+003,1.298019e+001
1.093348e+003,1.194315e+001
1.094312e+003,1.106532e+001
1.095276e+003,1.081161e+001
1.096241e+003,1.113887e+001
1.097205e+003,1.193018e+001
1.098169e+003,1.349208e+001
1.099133e+003,1.438985e+001
1.100098e+003,1.359064e+001
1.101062e+003,1.255618e+001
1.102026e+003,1.212767e+001
1.102990e+003,1.225902e+001
1.103955e+003,1.256689e+001
1.104919e+003,1.279335e+001
1.105883e+003,1.289191e+001
1.106847e+003,1.275237e+001
1.107812e+003,1.236734e+001
1.108776e+003,1.233514e+001
1.109740e+003,1.296686e+001
1.110704e+003,1.336177e+001
1.111668e+003,1.250328e+001
1.112633e+003,1.089151e+001
1.113597e+003,1.067030e+001
1.114561e+003,1.271353e+001
1.115525e+003,1.440312e+001
1.116490e+003,1.509738e+001
1.117454e+003,1.507326e+001
1.118418e+003,1.412570e+001
1.119382e+003,1.273064e+001
1.120347e+003,1.177954e+001
1.121311e+003,1.174873e+001
1.122275e+003,1.203993e+001
1.123239e+003,1.158539e+001
1.124203e+003,1.056816e+001
1.125168e+003,1.000267e+001
1.126132e+003,9.995651e+000
1.127096e+003,1.042438e+001
1.128060e+003,1.138947e+001
1.129025e+003,1.270000e+001
1.129989e+003,1.354881e+001
1.130953e+003,1.371771e+001
1.131917e+003,1.369226e+001
1.132882e+003,1.370697e+001
1.133846e+003,1.358426e+001
1.134810e+003,1.297949e+001
1.135774e+003,1.218086e+001
1.136739e+003,1.192062e+001
1.137703e+003,1.258578e+001
1.138667e+003,1.345447e+001
1.139631e+003,1.304723e+001
1.140595e+003,1.161465e+001
1.141560e+003,1.149881e+001
1.142524e+003,1.313011e+001
1.143488e+003,1.514058e+001
1.144452e+003,1.660065e+001
1.145417e+003,1.767197e+001
1.146381e+003,1.897232e+001
1.147345e+003,2.056157e+001
1.148309e+003,2.217239e+001
1.149274e+003,2.425772e+001
1.150238e+003,2.590463e+001
1.151202e+003,2.629294e+001
1.152166e+003,2.602499e+001
1.153130e+003,2.627100e+001
1.154095e+003,2.747487e+001
1.155059e+003,2.874138e+001
1.156023e+003,2.884291e+001
1.156987e+003,2.797209e+001
1.157952e+003,2.772227e+001
1.158916e+003,2.854105e+001
1.159880e+003,2.829938e+001
1.160844e+003,2.463329e+001
1.161809e+003,1.927510e+001
1.162773e+003,1.663202e+001
1.163737e+003,1.745164e+001
1.164701e+003,1.773120e+001
1.165666e+003,1.543008e+001
1.166630e+003,1.359377e+001
1.167594e+003,1.399844e+001
1.168558e+003,1.525702e+001
1.169522e+003,1.512671e+001
1.170487e+003,1.314600e+001
1.171451e+003,1.131650e+001
1.172415e+003,1.203104e+001
1.173379e+003,1.457690e+001
1.174344e+003,1.507082e+001
1.175308e+003,1.347020e+001
1.176272e+003,1.210138e+001
1.177236e+003,1.196413e+001
1.178201e+003,1.227518e+001
1.179165e+003,1.193083e+001
1.180129e+003,1.086855e+001
1.181093e+003,9.962555e+000
1.182057e+003,9.637817e+000
1.183022e+003,9.190765e+000
1.183986e+003,8.094666e+000
1.184950e+003,6.960678e+000
1.185914e+003,6.317978e+000
1.186879e+003,6.282852e+000
1.187843e+003,6.776199e+000
1.188807e+003,7.725403e+000
1.189771e+003,8.931732e+000
1.190736e+003,9.987930e+000
1.191700e+003,1.093372e+001
1.192664e+003,1.100887e+001
1.193628e+003,9.773727e+000
1.194593e+003,8.236801e+000
1.195557e+003,6.750198e+000
1.196521e+003,5.492737e+000
1.197485e+003,5.363464e+000
1.198449e+003,7.010757e+000
1.199414e+003,8.194885e+000
1.200378e+003,7.582855e+000
1.201342e+003,6.484589e+000
1.202306e+003,5.274902e+000
1.203271e+003,4.258896e+000
1.204235e+003,3.947250e+000
1.205199e+003,4.537384e+000
1.206163e+003,5.484879e+000
1.207128e+003,5.860962e+000
1.208092e+003,5.637711e+000
1.209056e+003,5.447174e+000
1.210020e+003,5.596405e+000
1.210984e+003,5.215393e+000
1.211949e+003,3.538940e+000
1.212913e+003,1.485092e+000
1.213877e+003,2.727356e-001
1.214841e+003,-6.072998e-003
1.215806e+003,-2.868652e-002
1.216770e+003,1.424255e-001
1.217734e+003,1.570892e-001
1.218698e+003,-5.977783e-001
1.219663e+003,-1.469193e+000
1.220627e+003,-1.476440e+000
1.221591e+003,-5.885162e-001
1.222555e+003,3.337250e-001
1.223520e+003,5.028076e-001
1.224484e+003,1.144257e-001
1.225448e+003,-1.913452e-002
1.226412e+003,4.305115e-001
1.227376e+003,3.108215e-001
1.228341e+003,-1.039307e+000
1.229305e+003,-2.246933e+000
1.230269e+003,-2.481781e+000
1.231233e+003,-2.076813e+000
1.232198e+003,-1.777618e+000
1.233162e+003,-1.759949e+000
1.234126e+003,-1.435104e+000
1.235090e+003,9.066772e-002
1.236055e+003,1.556580e+000
1.237019e+003,1.439590e+000
1.237983e+003,1.660461e-001
1.238947e+003,-1.052673e+000
1.239911e+003,-1.671021e+000
1.240876e+003,-1.925079e+000
1.241840e+003,-2.220764e+000
1.242804e+003,-2.579483e+000
1.243768e+003,-2.527237e+000
1.244733e+003,-1.423935e+000
1.245697e+003,-7.588348e-001
1.246661e+003,-1.213730e+000
1.247625e+003,-1.760132e+000
1.248590e+003,-1.311386e+000
1.249554e+003,-1.788940e-001
1.250518e+003,2.196350e-001
1.251482e+003,-8.735199e-001
1.252447e+003,-2.007004e+000
1.253411e+003,-8.113861e-001
1.254375e+003,1.378967e+000
1.255339e+003,1.371048e+000
1.256303e+003,-8.379517e-001
1.257268e+003,-2.820511e+000
1.258232e+003,-3.313034e+000
1.259196e+003,-2.786377e+000
1.260160e+003,-1.990463e+000
1.261125e+003,-8.329315e-001
1.262089e+003,3.887787e-001
1.263053e+003,2.142258e+000
1.264017e+003,3.143433e+000
1.264982e+003,2.709534e+000
1.265946e+003,1.740326e+000
1.266910e+003,7.784729e-001
1.267874e+003,1.216431e-001
1.268839e+003,1.659393e-001
1.269803e+003,1.189987e+000
1.270767e+003,2.741486e+000
1.271731e+003,4.201767e+000
1.272695e+003,5.481552e+000
1.273660e+003,5.123718e+000
1.274624e+003,2.282043e+000
1.275588e+003,-3.216095e-001
1.276552e+003,-8.928680e-001
1.277517e+003,-2.891541e-001
1.278481e+003,-2.490692e-001
1.279445e+003,-9.428864e-001
1.280409e+003,-1.370270e+000
1.281374e+003,-1.003693e+000
1.282338e+003,-5.533295e-001
1.283302e+003,-2.685394e-001
1.284266e+003,-1.979370e-001
1.285230e+003,-4.557037e-001
1.286195e+003,-1.001556e+000
1.287159e+003,-1.689667e+000
1.288123e+003,-2.374237e+000
1.289087e+003,-2.829178e+000
1.290052e+003,-2.440704e+000
1.291016e+003,-7.954865e-001
1.291980e+003,-2.314758e-002
1.292944e+003,-7.829285e-001
1.293909e+003,-1.595535e+000
1.294873e+003,-1.846588e+000
1.295837e+003,-1.747131e+000
1.296801e+003,-1.514816e+000
1.297766e+003,-1.224594e+000
1.298730e+003,-1.212219e+000
1.299694e+003,-1.779587e+000
1.300658e+003,-2.571671e+000
1.301622e+003,-3.763824e+000
1.302587e+003,-4.645767e+000
1.303551e+003,-3.408020e+000
1.304515e+003,-2.716064e-003
1.305479e+003,2.580399e+000
1.306444e+003,1.581268e+000
1.307408e+003,-1.623505e+000
1.308372e+003,-1.956909e+000
1.309336e+003,2.119171e+000
1.310301e+003,4.279556e+000
1.311265e+003,3.253448e+000
1.312229e+003,1.589279e+000
1.313193e+003,-1.197159e+000
1.314157e+003,-3.497269e+000
1.315122e+003,-3.075470e+000
1.316086e+003,-3.281860e-001
1.317050e+003,1.948151e+000
1.318014e+003,1.933334e+000
1.318979e+003,7.135315e-001
1.319943e+003,1.440582e-001
1.320907e+003,1.394501e-001
1.321871e+003,-4.434662e-001
1.322836e+003,-1.994003e+000
1.323800e+003,-3.220139e+000
1.324764e+003,-3.385330e+000
1.325728e+003,-2.803299e+000
1.326693e+003,-1.786865e+000
1.327657e+003,-3.687897e-001
1.328621e+003,2.385406e-001
1.329585e+003,-1.059723e+000
1.330549e+003,-1.483932e+000
1.331514e+003,1.509979e+000
1.332478e+003,4.792709e+000
1.333442e+003,5.063858e+000
1.334406e+003,2.726517e+000
1.335371e+003,3.178406e-001
1.336335e+003,-5.959320e-001
1.337299e+003,-5.093994e-001
1.338263e+003,-3.492279e-001
1.339228e+003,-8.729553e-002
1.340192e+003,6.927490e-003
1.341156e+003,-2.344666e-001
1.342120e+003,-3.909149e-001
1.343084e+003,-2.584381e-001
1.344049e+003,-2.692719e-001
1.345013e+003,-9.198761e-001
1.345977e+003,-1.923737e+000
1.346941e+003,-2.524414e+000
1.347906e+003,-2.462021e+000
1.348870e+003,-1.902771e+000
1.349834e+003,-7.339172e-001
1.350798e+003,5.786438e-001
1.351763e+003,1.162506e+000
1.352727e+003,1.151443e+000
1.353691e+003,1.286179e+000
1.354655e+003,1.898483e+000
1.355620e+003,2.554535e+000
1.356584e+003,2.831284e+000
1.357548e+003,2.748611e+000
1.358512e+003,2.206985e+000
1.359476e+003,9.003448e-001
1.360441e+003,-3.203278e-001
1.361405e+003,-1.517670e+000
1.362369e+003,-2.213104e+000
1.363333e+003,-1.945526e+000
1.364298e+003,-1.124069e+000
1.365262e+003,-3.068390e-001
1.366226e+003,3.661652e-001
1.367190e+003,1.227554e+000
1.368155e+003,2.595901e+000
1.369119e+003,4.095673e+000
1.370083e+003,4.544571e+000
1.371047e+003,3.801941e+000
1.372011e+003,2.500732e+000
1.372976e+003,-9.472046e-001
1.373940e+003,-3.004776e+000
1.374904e+003,-1.311005e+000
1.375868e+003,1.849564e+000
1.376833e+003,3.813126e+000
1.377797e+003,4.289810e+000
1.378761e+003,3.831146e+000
1.379725e+003,2.417542e+000
1.380690e+003,1.002670e+000
1.381654e+003,8.131256e-001
1.382618e+003,1.148590e+000
1.383582e+003,8.494873e-001
1.384547e+003,3.631592e-003
1.385511e+003,-1.943512e-001
1.386475e+003,9.703522e-001
1.387439e+003,2.544113e+000
1.388403e+003,3.053467e+000
1.389368e+003,2.493912e+000
1.390332e+003,1.995148e+000
1.391296e+003,1.715439e+000
1.392260e+003,1.322159e+000
1.393225e+003,7.636414e-001
1.394189e+003,3.565979e-002
1.395153e+003,-1.492310e+000
1.396117e+003,-2.913132e+000
1.397082e+003,-2.497375e+000
1.398046e+003,-1.252899e-001
1.399010e+003,2.290619e+000
1.399974e+003,2.956223e+000
1.400938e+003,2.186462e+000
1.401903e+003,1.076767e+000
1.402867e+003,-5.247040e-001
1.403831e+003,-7.061462e-001
1.404795e+003,1.785263e+000
1.405760e+003,3.771835e+000
1.406724e+003,3.777054e+000
1.407688e+003,2.749741e+000
1.408652e+003,1.722763e+000
1.409617e+003,9.441528e-001
1.410581e+003,5.036316e-001
1.411545e+003,4.361725e-001
1.412509e+003,7.274475e-001
1.413474e+003,1.807724e+000
1.414438e+003,2.817490e+000
1.415402e+003,2.089386e+000
1.416366e+003,1.248169e-002
1.417330e+003,-1.227783e+000
1.418295e+003,-6.568298e-001
1.419259e+003,5.516663e-001
1.420223e+003,1.068863e+000
1.421187e+003,9.558411e-001
1.422152e+003,7.752228e-001
1.423116e+003,4.194489e-001
1.424080e+003,6.681976e-001
1.425044e+003,2.396347e+000
1.426009e+003,3.924576e+000
1.426973e+003,4.746140e+000
1.427937e+003,4.856766e+000
1.428901e+003,3.991577e+000
1.429865e+003,2.470016e+000
1.430830e+003,1.137390e+000
1.431794e+003,5.317383e-001
1.432758e+003,6.726837e-001
1.433722e+003,1.801285e+000
1.434687e+003,4.200989e+000
1.435651e+003,5.287262e+000
1.436615e+003,3.664429e+000
1.437579e+003,2.342102e+000
1.438544e+003,1.582779e+000
1.439508e+003,1.255493e+000
1.440472e+003,1.355347e+000
1.441436e+003,1.872803e+000
1.442401e+003,3.080414e+000
1.443365e+003,4.857712e+000
1.444329e+003,5.827377e+000
1.445293e+003,4.826935e+000
1.446257e+003,2.931030e+000
1.447222e+003,1.979401e+000
1.448186e+003,1.876602e+000
1.449150e+003,2.453018e+000
1.450114e+003,3.982971e+000
1.451079e+003,4.931366e+000
1.452043e+003,3.950439e+000
1.453007e+003,2.441116e+000
1.453971e+003,2.509827e+000
1.454936e+003,3.895920e+000
1.455900e+003,4.548996e+000
1.456864e+003,3.843536e+000
1.457828e+003,3.232819e+000
1.458792e+003,3.802597e+000
1.459757e+003,4.489731e+000
1.460721e+003,4.338196e+000
1.461685e+003,3.661591e+000
1.462649e+003,3.165604e+000
1.463614e+003,3.067978e+000
1.464578e+003,3.152069e+000
1.465542e+003,3.230133e+000
1.466506e+003,3.247437e+000
1.467471e+003,3.048157e+000
1.468435e+003,2.574738e+000
1.469399e+003,2.601013e+000
1.470363e+003,3.781067e+000
1.471328e+003,4.398315e+000
1.472292e+003,3.425964e+000
1.473256e+003,2.264206e+000
1.474220e+003,2.263351e+000
1.475184e+003,2.917511e+000
1.476149e+003,2.751694e+000
1.477113e+003,1.420975e+000
1.478077e+003,3.012390e-001
1.479041e+003,8.035278e-001
1.480006e+003,2.448807e+000
1.480970e+003,3.491699e+000
1.481934e+003,3.650528e+000
1.482898e+003,4.070892e+000
1.483863e+003,5.526138e+000
1.484827e+003,6.100128e+000
1.485791e+003,4.630463e+000
1.486755e+003,2.757675e+000
1.487719e+003,1.818069e+000
1.488684e+003,1.717575e+000
1.489648e+003,1.882141e+000
1.490612e+003,2.155701e+000
1.491576e+003,2.797958e+000
1.492541e+003,4.171936e+000
1.493505e+003,5.706741e+000
1.494469e+003,5.945175e+000
1.495433e+003,5.064774e+000
1.496398e+003,4.625443e+000
1.497362e+003,5.060791e+000
1.498326e+003,5.506149e+000
1.499290e+003,4.999435e+000
1.500255e+003,4.592270e+000
1.501219e+003,6.131454e+000
1.502183e+003,9.189423e+000
1.503147e+003,1.121870e+001
1.504111e+003,1.155980e+001
1.505076e+003,1.138197e+001
1.506040e+003,1.118193e+001
1.507004e+003,1.095515e+001
1.507968e+003,1.034076e+001
1.508933e+003,9.783997e+000
1.509897e+003,1.028026e+001
1.510861e+003,1.206471e+001
1.511825e+003,1.460823e+001
1.512790e+003,1.771571e+001
1.513754e+003,2.080779e+001
1.514718e+003,2.263611e+001
1.515682e+003,2.316576e+001
1.516646e+003,2.443962e+001
1.517611e+003,2.713480e+001
1.518575e+003,2.952373e+001
1.519539e+003,3.091426e+001
1.520503e+003,3.212939e+001
1.521468e+003,3.403554e+001
1.522432e+003,3.573459e+001
1.523396e+003,3.561983e+001
1.524360e+003,3.383656e+001
1.525325e+003,3.224332e+001
1.526289e+003,3.209413e+001
1.527253e+003,3.262895e+001
1.528217e+003,3.256137e+001
1.529182e+003,3.194026e+001
1.530146e+003,3.016588e+001
1.531110e+003,2.648273e+001
1.532074e+003,2.293289e+001
1.533039e+003,1.879851e+001
1.534003e+003,1.557220e+001
1.534967e+003,1.486563e+001
1.535931e+003,1.498534e+001
1.536896e+003,1.376578e+001
1.537860e+003,1.137111e+001
1.538824e+003,9.579697e+000
1.539788e+003,9.232559e+000
1.540752e+003,9.196274e+000
1.541717e+003,7.979889e+000
1.542681e+003,5.959198e+000
1.543645e+003,5.375259e+000
1.544609e+003,7.347610e+000
1.545573e+003,8.057938e+000
1.546538e+003,5.888382e+000
1.547502e+003,4.418518e+000
1.548466e+003,5.629211e+000
1.549430e+003,7.771225e+000
1.550395e+003,9.328033e+000
1.551359e+003,1.003639e+001
1.552323e+003,9.745422e+000
1.553287e+003,8.500336e+000
1.554252e+003,7.271179e+000
1.555216e+003,6.905975e+000
1.556180e+003,7.110641e+000
1.557144e+003,7.380905e+000
1.558109e+003,7.738052e+000
1.559073e+003,7.220764e+000
1.560037e+003,5.164505e+000
1.561001e+003,3.373642e+000
1.561966e+003,2.325043e+000
1.562930e+003,2.076736e+000
1.563894e+003,2.908920e+000
1.564858e+003,4.433212e+000
1.565823e+003,6.091431e+000
1.566787e+003,7.673416e+000
1.567751e+003,8.005447e+000
1.568715e+003,5.996841e+000
1.569679e+003,3.890228e+000
1.570644e+003,5.205582e+000
1.571608e+003,8.349792e+000
1.572572e+003,8.364426e+000
1.573536e+003,5.070740e+000
1.574500e+003,3.116394e+000
1.575465e+003,4.736099e+000
1.576429e+003,6.927856e+000
1.577393e+003,7.149002e+000
1.578357e+003,6.265305e+000
1.579322e+003,5.997879e+000
1.580286e+003,6.461288e+000
1.581250e+003,7.096359e+000
1.582214e+003,7.879242e+000
1.583179e+003,8.199265e+000
1.584143e+003,6.913788e+000
1.585107e+003,5.482208e+000
1.586071e+003,6.572296e+000
1.587036e+003,9.241562e+000
1.588000e+003,9.959412e+000
1.588964e+003,7.783142e+000
1.589928e+003,5.879364e+000
1.590893e+003,6.637283e+000
1.591857e+003,8.575577e+000
1.592821e+003,9.498001e+000
1.593785e+003,9.596207e+000
1.594750e+003,1.009055e+001
1.595714e+003,1.127934e+001
1.596678e+003,1.156674e+001
1.597642e+003,9.652100e+000
1.598606e+003,7.640244e+000
1.599571e+003,7.356186e+000
1.600535e+003,7.927368e+000
1.601499e+003,8.120590e+000
1.602463e+003,7.987793e+000
1.603427e+003,8.683350e+000
1.604392e+003,1.085275e+001
1.605356e+003,1.259834e+001
1.606320e+003,1.124982e+001
1.607284e+003,8.243820e+000
1.608249e+003,8.144287e+000
1.609213e+003,1.108932e+001
1.610177e+003,1.249588e+001
1.611141e+003,1.093135e+001
1.612106e+003,9.497955e+000
1.613070e+003,9.833755e+000
1.614034e+003,1.071725e+001
1.614998e+003,1.140901e+001
1.615963e+003,1.199466e+001
1.616927e+003,1.267128e+001
1.617891e+003,1.345129e+001
1.618855e+003,1.426947e+001
1.619820e+003,1.511667e+001
1.620784e+003,1.559744e+001
1.621748e+003,1.507265e+001
1.622712e+003,1.383716e+001
1.623677e+003,1.316417e+001
1.624641e+003,1.319878e+001
1.625605e+003,1.299496e+001
1.626569e+003,1.173064e+001
1.627533e+003,1.089130e+001
1.628498e+003,1.183925e+001
1.629462e+003,1.309203e+001
1.630426e+003,1.304648e+001
1.631390e+003,1.234872e+001
1.632354e+003,1.296910e+001
1.633319e+003,1.515656e+001
1.634283e+003,1.644791e+001
1.635247e+003,1.476128e+001
1.636211e+003,1.190883e+001
1.637176e+003,1.118663e+001
1.638140e+003,1.250771e+001
1.639104e+003,1.428654e+001
1.640068e+003,1.695688e+001
1.641033e+003,1.806224e+001
1.641997e+003,1.584378e+001
1.642961e+003,1.364336e+001
1.643925e+003,1.324565e+001
1.644890e+003,1.353612e+001
1.645854e+003,1.339063e+001
1.646818e+003,1.294585e+001
1.647782e+003,1.301302e+001
1.648747e+003,1.377673e+001
1.649711e+003,1.429802e+001
1.650675e+003,1.379433e+001
1.651639e+003,1.272157e+001
1.652604e+003,1.170363e+001
1.653568e+003,1.072908e+001
1.654532e+003,1.094597e+001
1.655496e+003,1.302557e+001
1.656460e+003,1.407718e+001
1.657425e+003,1.252048e+001
1.658389e+003,1.082956e+001
1.659353e+003,1.007381e+001
1.660317e+003,1.005258e+001
1.661281e+003,1.131525e+001
1.662246e+003,1.301265e+001
1.663210e+003,1.249442e+001
1.664174e+003,9.046524e+000
1.665138e+003,6.125504e+000
1.666103e+003,6.835617e+000
1.667067e+003,9.534775e+000
1.668031e+003,1.131700e+001
1.668995e+003,1.217197e+001
1.669960e+003,1.146213e+001
1.670924e+003,8.572540e+000
1.671888e+003,6.670349e+000
1.672852e+003,7.444046e+000
1.673817e+003,8.314606e+000
1.674781e+003,6.940033e+000
1.675745e+003,5.298752e+000
1.676709e+003,6.162338e+000
1.677674e+003,8.690796e+000
1.678638e+003,9.622864e+000
1.679602e+003,7.962158e+000
1.680566e+003,6.155945e+000
1.681531e+003,6.203979e+000
1.682495e+003,7.164139e+000
1.683459e+003,7.381607e+000
1.684423e+003,6.936890e+000
1.685387e+003,6.663712e+000
1.686352e+003,6.722733e+000
1.687316e+003,6.369858e+000
1.688280e+003,5.108017e+000
1.689244e+003,3.858017e+000
1.690208e+003,2.940903e+000
1.691173e+003,2.628204e+000
1.692137e+003,3.910263e+000
1.693101e+003,6.148071e+000
1.694065e+003,6.948608e+000
1.695030e+003,5.613602e+000
1.695994e+003,4.361084e+000
1.696958e+003,4.767456e+000
1.697922e+003,5.768616e+000
1.698887e+003,6.164902e+000
1.699851e+003,6.064316e+000
1.700815e+003,5.560806e+000
1.701779e+003,4.658737e+000
1.702744e+003,4.325653e+000
1.703708e+003,5.195724e+000
1.704672e+003,5.623886e+000
1.705636e+003,3.759933e+000
1.706601e+003,1.284515e+000
1.707565e+003,9.346161e-001
1.708529e+003,2.189987e+000
1.709493e+003,3.495239e+000
1.710458e+003,4.741943e+000
1.711422e+003,5.287094e+000
1.712386e+003,4.563217e+000
1.713350e+003,3.521118e+000
1.714314e+003,2.660568e+000
1.715279e+003,1.996399e+000
1.716243e+003,1.493454e+000
1.717207e+003,1.254990e+000
1.718171e+003,2.053757e+000
1.719135e+003,4.113556e+000
1.720100e+003,5.089188e+000
1.721064e+003,3.032776e+000
1.722028e+003,1.302795e-001
1.722992e+003,-3.995667e-001
1.723957e+003,1.120087e+000
1.724921e+003,2.583054e+000
1.725885e+003,4.096100e+000
1.726849e+003,4.315170e+000
1.727814e+003,1.670715e+000
1.728778e+003,-2.134399e-001
1.729742e+003,8.869629e-001
1.730706e+003,2.785721e+000
1.731671e+003,3.306549e+000
1.732635e+003,2.820297e+000
1.733599e+003,2.603836e+000
1.734563e+003,2.931534e+000
1.735528e+003,3.382446e+000
1.736492e+003,3.698410e+000
1.737456e+003,3.370117e+000
1.738420e+003,1.658508e+000
1.739385e+003,-9.301147e-001
1.740349e+003,-2.349701e+000
1.741313e+003,-2.461166e+000
1.742277e+003,-1.828125e+000
1.743241e+003,5.755005e-001
1.744206e+003,2.177216e+000
1.745170e+003,2.407822e+000
1.746134e+003,1.977264e+000
1.747098e+003,5.111847e-001
1.748063e+003,-8.450775e-001
1.749027e+003,-3.355408e-001
1.749991e+003,1.362411e+000
1.750955e+003,1.929199e+000
1.751919e+003,7.272644e-001
1.752884e+003,-5.042725e-001
1.753848e+003,-3.159332e-001
1.754812e+003,5.026245e-001
1.755776e+003,3.482819e-001
1.756741e+003,-6.745148e-001
1.757705e+003,-9.027252e-001
1.758669e+003,4.467773e-002
1.759633e+003,4.975433e-001
1.760598e+003,-3.546143e-001
1.761562e+003,-8.798981e-001
1.762526e+003,-1.760712e-001
1.763490e+003,7.012329e-001
1.764455e+003,1.044205e+000
1.765419e+003,1.058609e+000
1.766383e+003,1.062637e+000
1.767347e+003,1.102615e+000
1.768312e+003,1.184494e+000
1.769276e+003,1.297043e+000
1.770240e+003,1.255829e+000
1.771204e+003,8.977356e-001
1.772168e+003,4.190216e-001
1.773133e+003,1.918945e-001
1.774097e+003,1.647339e-001
1.775061e+003,-2.306671e-001
1.776025e+003,-1.191940e+000
1.776990e+003,-2.018753e+000
1.777954e+003,-2.641800e+000
1.778918e+003,-2.466110e+000
1.779882e+003,-1.286011e-001
1.780846e+003,2.376633e+000
1.781811e+003,1.948425e+000
1.782775e+003,-4.602966e-001
1.783739e+003,-1.574310e+000
1.784703e+003,-7.819366e-001
1.785668e+003,-3.269806e-001
1.786632e+003,-1.798782e+000
1.787596e+003,-3.146896e+000
1.788560e+003,-2.407776e+000
1.789525e+003,-8.030090e-001
1.790489e+003,-5.981445e-002
1.791453e+003,-1.110992e-001
1.792417e+003,-3.278198e-001
1.793382e+003,-5.158539e-001
1.794346e+003,-3.643494e-001
1.795310e+003,3.327332e-001
1.796274e+003,7.169952e-001
1.797239e+003,-3.286133e-001
1.798203e+003,-2.022919e+000
1.799167e+003,-1.959534e+000
1.800131e+003,2.035980e-001
1.801095e+003,8.780060e-001
1.802060e+003,-1.049850e+000
1.803024e+003,-2.284409e+000
1.803988e+003,-2.338608e+000
1.804952e+003,-1.947021e+000
1.805917e+003,-9.118195e-001
1.806881e+003,-6.315613e-002
1.807845e+003,-4.253998e-001
1.808809e+003,-1.483185e+000
1.809773e+003,-2.176697e+000
1.810738e+003,-2.216415e+000
1.811702e+003,-1.770035e+000
1.812666e+003,-9.735260e-001
1.813630e+003,-3.894501e-001
1.814595e+003,-8.961792e-001
1.815559e+003,-2.105576e+000
1.816523e+003,-2.305435e+000
1.817487e+003,-1.402557e+000
1.818452e+003,-2.419434e-001
1.819416e+003,1.625366e+000
1.820380e+003,2.452408e+000
1.821344e+003,8.720245e-001
1.822309e+003,-7.122345e-001
1.823273e+003,-7.223816e-001
1.824237e+003,-9.339905e-002
1.825201e+003,4.069366e-001
1.826166e+003,6.628571e-001
1.827130e+003,5.360565e-001
1.828094e+003,-9.674072e-003
1.829058e+003,-7.383270e-001
1.830022e+003,-1.756546e+000
1.830987e+003,-2.345367e+000
1.831951e+003,-1.583633e+000
1.832915e+003,-2.667389e-001
1.833879e+003,7.301178e-001
1.834844e+003,1.219009e+000
1.835808e+003,4.472961e-001
1.836772e+003,-1.448212e+000
1.837736e+003,-2.336777e+000
1.838700e+003,-1.280930e+000
1.839665e+003,-4.042053e-002
1.840629e+003,-1.989288e-001
1.841593e+003,-1.199829e+000
1.842557e+003,-2.051895e+000
1.843522e+003,-2.746048e+000
1.844486e+003,-2.318802e+000
1.845450e+003,7.617035e-001
1.846414e+003,2.127457e+000
1.847379e+003,4.811096e-002
1.848343e+003,-1.568878e+000
1.849307e+003,-1.086792e+000
1.850271e+003,-2.092590e-001
1.851236e+003,-5.725098e-002
1.852200e+003,-3.296509e-001
1.853164e+003,-4.679413e-001
1.854128e+003,-5.775909e-001
1.855093e+003,-1.424240e+000
1.856057e+003,-3.055557e+000
1.857021e+003,-3.765137e+000
1.857985e+003,-2.005859e+000
1.858949e+003,6.524963e-001
1.859914e+003,1.565201e+000
1.860878e+003,9.921875e-001
1.861842e+003,3.684998e-002
1.862806e+003,-1.343033e+000
1.863771e+003,-1.446060e+000
1.864735e+003,4.473419e-001
1.865699e+003,1.428970e+000
1.866663e+003,-1.986694e-002
1.867627e+003,-2.195923e+000
1.868592e+003,-4.440475e+000
1.869556e+003,-5.997597e+000
1.870520e+003,-4.614136e+000
1.871484e+003,-9.250946e-001
1.872449e+003,6.932373e-001
1.873413e+003,-5.515289e-001
1.874377e+003,-1.653702e+000
1.875341e+003,-2.248947e+000
1.876306e+003,-2.194061e+000
1.877270e+003,-7.102966e-001
1.878234e+003,7.877502e-001
1.879198e+003,5.494690e-001
1.880163e+003,-5.424957e-001
1.881127e+003,-6.090546e-001
1.882091e+003,3.863220e-001
1.883055e+003,1.141769e+000
1.884020e+003,1.100906e+000
1.884984e+003,7.174835e-001
1.885948e+003,3.937073e-001
1.886912e+003,2.180481e-001
1.887876e+003,4.367065e-001
1.888841e+003,9.993744e-001
1.889805e+003,1.156860e+000
1.890769e+003,8.327637e-001
1.891733e+003,5.011902e-001
1.892698e+003,1.084595e-001
1.893662e+003,-1.886597e-001
1.894626e+003,-4.801788e-001
1.895590e+003,-4.186554e-001
1.896554e+003,6.629181e-001
1.897519e+003,1.982346e+000
1.898483e+003,2.456116e+000
1.899447e+003,2.243027e+000
1.900411e+003,2.272476e+000
1.901376e+003,2.746597e+000
1.902340e+003,2.903183e+000
1.903304e+003,2.325256e+000
1.904268e+003,1.542786e+000
1.905233e+003,9.259033e-001
1.906197e+003,2.654114e-001
1.907161e+003,-9.083557e-001
1.908125e+003,-2.131500e+000
1.909090e+003,-2.709290e+000
1.910054e+003,-2.570480e+000
1.911018e+003,-1.529251e+000
1.911982e+003,2.929688e-001
1.912947e+003,1.463135e+000
1.913911e+003,9.128265e-001
1.914875e+003,-5.235291e-002
1.915839e+003,7.444153e-001
1.916803e+003,2.585892e+000
1.917768e+003,1.558319e+000
1.918732e+003,-3.194214e+000
1.919696e+003,-4.617661e+000
1.920660e+003,-9.521179e-001
1.921625e+003,1.338226e+000
1.922589e+003,-1.556702e-001
1.923553e+003,-1.672745e+000
1.924517e+003,-1.085358e+000
1.925481e+003,2.101593e-001
1.926446e+003,1.562622e+000
1.927410e+003,2.525558e+000
1.928374e+003,1.659286e+000
1.929338e+003,-8.655396e-001
1.930303e+003,-1.532074e+000
1.931267e+003,1.265198e+000
1.932231e+003,3.914032e+000
1.933195e+003,5.115982e+000
1.934160e+003,5.118240e+000
1.935124e+003,3.228195e+000
1.936088e+003,9.078369e-001
1.937052e+003,-1.391602e-002
1.938017e+003,1.620483e-001
1.938981e+003,6.030579e-001
1.939945e+003,9.305115e-001
1.940909e+003,4.503174e-001
1.941874e+003,-9.937592e-001
1.942838e+003,-1.630737e+000
1.943802e+003,3.373871e-001
1.944766e+003,3.367691e+000
1.945730e+003,4.180801e+000
1.946695e+003,3.009918e+000
1.947659e+003,2.050461e+000
1.948623e+003,1.273239e+000
1.949587e+003,8.551483e-001
1.950552e+003,9.171448e-001
1.951516e+003,1.030228e+000
1.952480e+003,8.925629e-001
1.953444e+003,1.153107e+000
1.954408e+003,2.807159e+000
1.955373e+003,4.493073e+000
1.956337e+003,4.110672e+000
1.957301e+003,2.290527e+000
1.958265e+003,8.062439e-001
1.959230e+003,-3.902283e-001
1.960194e+003,-3.646851e-001
1.961158e+003,2.212692e+000
1.962122e+003,3.969513e+000
1.963087e+003,4.021393e+000
1.964051e+003,3.092941e+000
1.965015e+003,7.176666e-001
1.965979e+003,-1.540741e+000
1.966944e+003,-2.097580e+000
1.967908e+003,-1.512619e+000
1.968872e+003,-8.732147e-001
1.969836e+003,-4.403381e-001
1.970801e+003,-7.368469e-002
1.971765e+003,2.998810e-001
1.972729e+003,6.411896e-001
1.973693e+003,8.795319e-001
1.974657e+003,1.161011e+000
1.975622e+003,1.899506e+000
1.976586e+003,2.742569e+000
1.977550e+003,2.598923e+000
1.978514e+003,1.702820e+000
1.979479e+003,1.388748e+000
1.980443e+003,1.815201e+000
1.981407e+003,2.312698e+000
1.982371e+003,2.666901e+000
1.983335e+003,2.954987e+000
1.984300e+003,3.222717e+000
1.985264e+003,3.250107e+000
1.986228e+003,2.646683e+000
1.987192e+003,1.654770e+000
1.988157e+003,1.631439e+000
1.989121e+003,2.997025e+000
1.990085e+003,3.243332e+000
1.991049e+003,1.617035e+000
1.992014e+003,4.674225e-001
1.992978e+003,1.603699e-002
1.993942e+003,9.150696e-002
1.994906e+003,1.438629e+000
1.995871e+003,2.472443e+000
1.996835e+003,1.281326e+000
1.997799e+003,-4.733734e-001
1.998763e+003,4.461670e-002
1.999728e+003,2.320236e+000
