5.003444e+002,8.638345e+001
5.013087e+002,8.485040e+001
5.022729e+002,8.514552e+001
5.032371e+002,8.640607e+001
5.042014e+002,8.476508e+001
5.051656e+002,8.077972e+001
5.061298e+002,7.724409e+001
5.070941e+002,7.681949e+001
5.080583e+002,8.036383e+001
5.090225e+002,8.169957e+001
5.099868e+002,7.968344e+001
5.109510e+002,7.742253e+001
5.119152e+002,7.639455e+001
5.128795e+002,7.672629e+001
5.138437e+002,7.758937e+001
5.148079e+002,7.974272e+001
5.157722e+002,8.148734e+001
5.167364e+002,8.184641e+001
5.177006e+002,8.081070e+001
5.186649e+002,7.929344e+001
5.196291e+002,7.846176e+001
5.205933e+002,7.797243e+001
5.215576e+002,7.716714e+001
5.225218e+002,7.592365e+001
5.234860e+002,7.452211e+001
5.244503e+002,7.360020e+001
5.254145e+002,7.352702e+001
5.263787e+002,7.327203e+001
5.273430e+002,7.279750e+001
5.283072e+002,7.217067e+001
5.292714e+002,7.127695e+001
5.302357e+002,6.930870e+001
5.311999e+002,6.861086e+001
5.321641e+002,7.087357e+001
5.331284e+002,7.351054e+001
5.340926e+002,7.437715e+001
5.350568e+002,7.255208e+001
5.360211e+002,6.980530e+001
5.369853e+002,6.728494e+001
5.379495e+002,6.525417e+001
5.389138e+002,6.391579e+001
5.398780e+002,6.333722e+001
5.408422e+002,6.349846e+001
5.418065e+002,6.481099e+001
5.427707e+002,6.705681e+001
5.437349e+002,6.869212e+001
5.446992e+002,6.924139e+001
5.456634e+002,6.890576e+001
5.466276e+002,6.844223e+001
5.475919e+002,6.782379e+001
5.485561e+002,6.718312e+001
5.495203e+002,6.664984e+001
5.504846e+002,6.595805e+001
5.514488e+002,6.452063e+001
5.524130e+002,6.141293e+001
5.533773e+002,5.952011e+001
5.543415e+002,6.135916e+001
5.553057e+002,6.433173e+001
5.562700e+002,6.558278e+001
5.572342e+002,6.336404e+001
5.581984e+002,5.938240e+001
5.591627e+002,5.782753e+001
5.601269e+002,5.794191e+001
5.610911e+002,5.819977e+001
5.620554e+002,5.778099e+001
5.630196e+002,5.676457e+001
5.639838e+002,5.630788e+001
5.649481e+002,5.720709e+001
5.659123e+002,5.752858e+001
5.668765e+002,5.666840e+001
5.678408e+002,5.514742e+001
5.688050e+002,5.426338e+001
5.697692e+002,5.447307e+001
5.707335e+002,5.485001e+001
5.716977e+002,5.534238e+001
5.726619e+002,5.583028e+001
5.736262e+002,5.635797e+001
5.745904e+002,5.710211e+001
5.755546e+002,5.731422e+001
5.765189e+002,5.530392e+001
5.774831e+002,5.200182e+001
5.784473e+002,4.917363e+001
5.794116e+002,4.807719e+001
5.803758e+002,4.859959e+001
5.813400e+002,4.836858e+001
5.823043e+002,4.669775e+001
5.832685e+002,4.575372e+001
5.842327e+002,4.708022e+001
5.851970e+002,5.025749e+001
5.861612e+002,5.202216e+001
5.871254e+002,5.009608e+001
5.880897e+002,4.851167e+001
5.890539e+002,4.795380e+001
5.900181e+002,4.819534e+001
5.909824e+002,4.903560e+001
5.919466e+002,5.102977e+001
5.929108e+002,5.201085e+001
5.938751e+002,4.852510e+001
5.948393e+002,4.311237e+001
5.958035e+002,4.005293e+001
5.967678e+002,4.242714e+001
5.977320e+002,4.919543e+001
5.986962e+002,5.177469e+001
5.996605e+002,5.026689e+001
6.006247e+002,4.801347e+001
6.015889e+002,4.617712e+001
6.025532e+002,4.478148e+001
6.035174e+002,4.386386e+001
6.044816e+002,4.381831e+001
6.054459e+002,4.393547e+001
6.064101e+002,4.415509e+001
6.073743e+002,4.445737e+001
6.083386e+002,4.490134e+001
6.093028e+002,4.568878e+001
6.102670e+002,4.632332e+001
6.112313e+002,4.641103e+001
6.121955e+002,4.613455e+001
6.131597e+002,4.569701e+001
6.141240e+002,4.523819e+001
6.150882e+002,4.475874e+001
6.160524e+002,4.424951e+001
6.170167e+002,4.377354e+001
6.179809e+002,4.359866e+001
6.189451e+002,4.388712e+001
6.199094e+002,4.449841e+001
6.208736e+002,4.476309e+001
6.218378e+002,4.434972e+001
6.228021e+002,4.419659e+001
6.237663e+002,4.477704e+001
6.247305e+002,4.560464e+001
6.256948e+002,4.571091e+001
6.266590e+002,4.418338e+001
6.276232e+002,4.288159e+001
6.285875e+002,4.348914e+001
6.295517e+002,4.474812e+001
6.305159e+002,4.523155e+001
6.314802e+002,4.415752e+001
6.324444e+002,4.217639e+001
6.334086e+002,4.116531e+001
6.343729e+002,4.092337e+001
6.353371e+002,4.082077e+001
6.363013e+002,4.060799e+001
6.372656e+002,4.033162e+001
6.382298e+002,4.026669e+001
6.391940e+002,4.093167e+001
6.401583e+002,4.099298e+001
6.411225e+002,4.026793e+001
6.420867e+002,3.925777e+001
6.430510e+002,3.830646e+001
6.440152e+002,3.719475e+001
6.449794e+002,3.684473e+001
6.459437e+002,3.898454e+001
6.469079e+002,4.109392e+001
6.478721e+002,4.081458e+001
6.488364e+002,3.758662e+001
6.498006e+002,3.338136e+001
6.507648e+002,3.141463e+001
6.517291e+002,3.119220e+001
6.526933e+002,3.194281e+001
6.536575e+002,3.358032e+001
6.546218e+002,3.562857e+001
6.555860e+002,3.724870e+001
6.565502e+002,3.867279e+001
6.575145e+002,3.880379e+001
6.584787e+002,3.619005e+001
6.594429e+002,3.361859e+001
6.604072e+002,3.382428e+001
6.613714e+002,3.754332e+001
6.623356e+002,4.025439e+001
6.632999e+002,3.868877e+001
6.642641e+002,3.641090e+001
6.652283e+002,3.496826e+001
6.661926e+002,3.475314e+001
6.671568e+002,3.545930e+001
6.681210e+002,3.696901e+001
6.690853e+002,3.881987e+001
6.700495e+002,4.003616e+001
6.710137e+002,4.059981e+001
6.719780e+002,4.059071e+001
6.729422e+002,4.004063e+001
6.739064e+002,3.881050e+001
6.748707e+002,3.759808e+001
6.758349e+002,3.579111e+001
6.767991e+002,3.461530e+001
6.777634e+002,3.512788e+001
6.787276e+002,3.711464e+001
6.796918e+002,3.856912e+001
6.806561e+002,3.846664e+001
6.816203e+002,3.769618e+001
6.825845e+002,3.604350e+001
6.835488e+002,3.409818e+001
6.845130e+002,3.272087e+001
6.854772e+002,3.259325e+001
6.864415e+002,3.334604e+001
6.874057e+002,3.412273e+001
6.883699e+002,3.474866e+001
6.893342e+002,3.489499e+001
6.902984e+002,3.434627e+001
6.912626e+002,3.332416e+001
6.922269e+002,3.314278e+001
6.931911e+002,3.537175e+001
6.941553e+002,3.657634e+001
6.951196e+002,3.542868e+001
6.960838e+002,3.327809e+001
6.970480e+002,3.250587e+001
6.980123e+002,3.432079e+001
6.989765e+002,3.583141e+001
6.999407e+002,3.527890e+001
7.009050e+002,3.433734e+001
7.018692e+002,3.452832e+001
7.028334e+002,3.623410e+001
7.037977e+002,3.826712e+001
7.047619e+002,3.892242e+001
7.057261e+002,3.853212e+001
7.066904e+002,3.717708e+001
7.076546e+002,3.486623e+001
7.086188e+002,3.270320e+001
7.095831e+002,3.254962e+001
7.105473e+002,3.535962e+001
7.115115e+002,3.703795e+001
7.124758e+002,3.701698e+001
7.134400e+002,3.662480e+001
7.144042e+002,3.684467e+001
7.153685e+002,3.772266e+001
7.163327e+002,3.803329e+001
7.172969e+002,3.607230e+001
7.182612e+002,3.452089e+001
7.192254e+002,3.474452e+001
7.201896e+002,3.620657e+001
7.211539e+002,3.776050e+001
7.221181e+002,3.853360e+001
7.230823e+002,3.853294e+001
7.240466e+002,3.766785e+001
7.250108e+002,3.625238e+001
7.259750e+002,3.522112e+001
7.269393e+002,3.505038e+001
7.279035e+002,3.553258e+001
7.288677e+002,3.583267e+001
7.298320e+002,3.678009e+001
7.307962e+002,3.685596e+001
7.317604e+002,3.502864e+001
7.327247e+002,3.266167e+001
7.336889e+002,3.167982e+001
7.346531e+002,3.275890e+001
7.356174e+002,3.393439e+001
7.365816e+002,3.432492e+001
7.375458e+002,3.455745e+001
7.385101e+002,3.528439e+001
7.394743e+002,3.653316e+001
7.404385e+002,3.757106e+001
7.414028e+002,3.705891e+001
7.423670e+002,3.512918e+001
7.433312e+002,3.363394e+001
7.442955e+002,3.284366e+001
7.452597e+002,3.262949e+001
7.462239e+002,3.284297e+001
7.471882e+002,3.359189e+001
7.481524e+002,3.407552e+001
7.491166e+002,3.433351e+001
7.500809e+002,3.405562e+001
7.510451e+002,3.262486e+001
7.520093e+002,3.048553e+001
7.529736e+002,2.911853e+001
7.539378e+002,2.959912e+001
7.549020e+002,3.079575e+001
7.558663e+002,3.225816e+001
7.568306e+002,3.371613e+001
7.577948e+002,3.487273e+001
7.587590e+002,3.549855e+001
7.597233e+002,3.551901e+001
7.606875e+002,3.465620e+001
7.616517e+002,3.311494e+001
7.626160e+002,3.187650e+001
7.635802e+002,3.125993e+001
7.645444e+002,3.105638e+001
7.655087e+002,3.078154e+001
7.664729e+002,3.017661e+001
7.674371e+002,3.005339e+001
7.684014e+002,3.051044e+001
7.693656e+002,3.127596e+001
7.703298e+002,3.252461e+001
7.712941e+002,3.413176e+001
7.722583e+002,3.510872e+001
7.732225e+002,3.388078e+001
7.741868e+002,3.252577e+001
7.751510e+002,3.295964e+001
7.761152e+002,3.470671e+001
7.770795e+002,3.628596e+001
7.780437e+002,3.636810e+001
7.790079e+002,3.519820e+001
7.799722e+002,3.537405e+001
7.809364e+002,3.699274e+001
7.819006e+002,3.834477e+001
7.828649e+002,3.899611e+001
7.838291e+002,3.901530e+001
7.847933e+002,3.832774e+001
7.857576e+002,3.593529e+001
7.867218e+002,3.424103e+001
7.876860e+002,3.410054e+001
7.886503e+002,3.459523e+001
7.896145e+002,3.506836e+001
7.905787e+002,3.530130e+001
7.915430e+002,3.535353e+001
7.925072e+002,3.489268e+001
7.934714e+002,3.435565e+001
7.944357e+002,3.463377e+001
7.953999e+002,3.565779e+001
7.963641e+002,3.649107e+001
7.973284e+002,3.599745e+001
7.982926e+002,3.405600e+001
7.992568e+002,3.319051e+001
8.002211e+002,3.354041e+001
8.011853e+002,3.389876e+001
8.021495e+002,3.412592e+001
8.031138e+002,3.432466e+001
8.040780e+002,3.436583e+001
8.050422e+002,3.391656e+001
8.060065e+002,3.348335e+001
8.069707e+002,3.285770e+001
8.079349e+002,3.240910e+001
8.088992e+002,3.271930e+001
8.098634e+002,3.394833e+001
8.108276e+002,3.543916e+001
8.117919e+002,3.631506e+001
8.127561e+002,3.642427e+001
8.137203e+002,3.550876e+001
8.146846e+002,3.369467e+001
8.156488e+002,3.209068e+001
8.166130e+002,3.204510e+001
8.175773e+002,3.385246e+001
8.185415e+002,3.529704e+001
8.195057e+002,3.624362e+001
8.204700e+002,3.688776e+001
8.214342e+002,3.720055e+001
8.223984e+002,3.726003e+001
8.233627e+002,3.724663e+001
8.243269e+002,3.722578e+001
8.252911e+002,3.721356e+001
8.262554e+002,3.713777e+001
8.272196e+002,3.709050e+001
8.281838e+002,3.728127e+001
8.291481e+002,3.770564e+001
8.301123e+002,3.800894e+001
8.310765e+002,3.751111e+001
8.320408e+002,3.622093e+001
8.330050e+002,3.501825e+001
8.339692e+002,3.393541e+001
8.349335e+002,3.307950e+001
8.358977e+002,3.279253e+001
8.368619e+002,3.330287e+001
8.378262e+002,3.310722e+001
8.387904e+002,3.051810e+001
8.397546e+002,2.896161e+001
8.407189e+002,2.982109e+001
8.416831e+002,3.218791e+001
8.426473e+002,3.465259e+001
8.436116e+002,3.681664e+001
8.445758e+002,3.803555e+001
8.455400e+002,3.670592e+001
8.465043e+002,3.438339e+001
8.474685e+002,3.290625e+001
8.484327e+002,3.287354e+001
8.493970e+002,3.376982e+001
8.503612e+002,3.464125e+001
8.513254e+002,3.548268e+001
8.522897e+002,3.570674e+001
8.532539e+002,3.478651e+001
8.542181e+002,3.387405e+001
8.551824e+002,3.362611e+001
8.561466e+002,3.413432e+001
8.571108e+002,3.535764e+001
8.580751e+002,3.775183e+001
8.590393e+002,3.974506e+001
8.600035e+002,4.103871e+001
8.609678e+002,4.177469e+001
8.619320e+002,4.205875e+001
8.628962e+002,4.194275e+001
8.638605e+002,4.149709e+001
8.648247e+002,4.059712e+001
8.657889e+002,3.952390e+001
8.667532e+002,3.900436e+001
8.677174e+002,3.913402e+001
8.686816e+002,3.947928e+001
8.696459e+002,3.953615e+001
8.706101e+002,3.926279e+001
8.715743e+002,3.946312e+001
8.725386e+002,4.021622e+001
8.735028e+002,4.129802e+001
8.744670e+002,4.306560e+001
8.754313e+002,4.488734e+001
8.763955e+002,4.559917e+001
8.773597e+002,4.459950e+001
8.783240e+002,4.344260e+001
8.792882e+002,4.253111e+001
8.802524e+002,4.233905e+001
8.812167e+002,4.395515e+001
8.821809e+002,4.715001e+001
8.831451e+002,5.035402e+001
8.841094e+002,5.152850e+001
8.850736e+002,5.076486e+001
8.860378e+002,4.995709e+001
8.870021e+002,4.880057e+001
8.879663e+002,4.830707e+001
8.889305e+002,4.944460e+001
8.898948e+002,5.178029e+001
8.908590e+002,5.320113e+001
8.918232e+002,5.307658e+001
8.927875e+002,5.298631e+001
8.937517e+002,5.292831e+001
8.947159e+002,5.327689e+001
8.956802e+002,5.467842e+001
8.966444e+002,5.696181e+001
8.976086e+002,5.871425e+001
8.985729e+002,5.831671e+001
8.995371e+002,5.685541e+001
9.005013e+002,5.621814e+001
9.014656e+002,5.633556e+001
9.024298e+002,5.627225e+001
9.033940e+002,5.519211e+001
9.043583e+002,5.323714e+001
9.053225e+002,5.222635e+001
9.062867e+002,5.283981e+001
9.072510e+002,5.347346e+001
9.082152e+002,5.431647e+001
9.091794e+002,5.525771e+001
9.101437e+002,5.623079e+001
9.111079e+002,5.721657e+001
9.120721e+002,5.796408e+001
9.130364e+002,5.866434e+001
9.140006e+002,5.849300e+001
9.149648e+002,5.614742e+001
9.159291e+002,5.274783e+001
9.168933e+002,5.053232e+001
9.178575e+002,5.099295e+001
9.188218e+002,5.312001e+001
9.197860e+002,5.359450e+001
9.207502e+002,5.234500e+001
9.217145e+002,5.123672e+001
9.226787e+002,5.085764e+001
9.236429e+002,5.077824e+001
9.246072e+002,5.017908e+001
9.255714e+002,4.873709e+001
9.265356e+002,4.807115e+001
9.274999e+002,4.925502e+001
9.284641e+002,5.027477e+001
9.294283e+002,5.060945e+001
9.303926e+002,5.032309e+001
9.313568e+002,4.944739e+001
9.323210e+002,4.792433e+001
9.332853e+002,4.651143e+001
9.342495e+002,4.710065e+001
9.352137e+002,4.847139e+001
9.361780e+002,4.866579e+001
9.371422e+002,4.735577e+001
9.381064e+002,4.571194e+001
9.390707e+002,4.524397e+001
9.400349e+002,4.607614e+001
9.409991e+002,4.646767e+001
9.419634e+002,4.637506e+001
9.429276e+002,4.592278e+001
9.438918e+002,4.479218e+001
9.448561e+002,4.347292e+001
9.458203e+002,4.294331e+001
9.467845e+002,4.370975e+001
9.477488e+002,4.422844e+001
9.487130e+002,4.249057e+001
9.496772e+002,4.057384e+001
9.506415e+002,4.031351e+001
9.516057e+002,4.164163e+001
9.525699e+002,4.331375e+001
9.535342e+002,4.411336e+001
9.544984e+002,4.406401e+001
9.554626e+002,4.362195e+001
9.564269e+002,4.291393e+001
9.573911e+002,4.214262e+001
9.583553e+002,4.105348e+001
9.593196e+002,3.999980e+001
9.602838e+002,3.972772e+001
9.612480e+002,4.049921e+001
9.622123e+002,4.089268e+001
9.631765e+002,4.056380e+001
9.641407e+002,3.979404e+001
9.651050e+002,3.795274e+001
9.660692e+002,3.578973e+001
9.670334e+002,3.492152e+001
9.679977e+002,3.644113e+001
9.689619e+002,3.912718e+001
9.699261e+002,3.990829e+001
9.708904e+002,3.942786e+001
9.718546e+002,3.982944e+001
9.728188e+002,4.163768e+001
9.737831e+002,4.403545e+001
9.747473e+002,4.599904e+001
9.757115e+002,4.744971e+001
9.766758e+002,4.908932e+001
9.776400e+002,5.263760e+001
9.786042e+002,5.444829e+001
9.795685e+002,5.247891e+001
9.805327e+002,4.860663e+001
9.814969e+002,4.537039e+001
9.824612e+002,4.368391e+001
9.834254e+002,4.256091e+001
9.843896e+002,4.097887e+001
9.853539e+002,3.928976e+001
9.863181e+002,3.800435e+001
9.872823e+002,3.701152e+001
9.882466e+002,3.581282e+001
9.892108e+002,3.406293e+001
9.901750e+002,3.206987e+001
9.911393e+002,3.117555e+001
9.921035e+002,3.227174e+001
9.930677e+002,3.247957e+001
9.940320e+002,3.135114e+001
9.949962e+002,2.976120e+001
9.959604e+002,2.820032e+001
9.969247e+002,2.679347e+001
9.978889e+002,2.633287e+001
9.988531e+002,2.802199e+001
9.998174e+002,2.946806e+001
1.000782e+003,2.893301e+001
1.001746e+003,2.748280e+001
1.002710e+003,2.672081e+001
1.003674e+003,2.730048e+001
1.004639e+003,2.851981e+001
1.005603e+003,2.920479e+001
1.006567e+003,2.925310e+001
1.007531e+003,2.860236e+001
1.008495e+003,2.676320e+001
1.009460e+003,2.524606e+001
1.010424e+003,2.528003e+001
1.011388e+003,2.645876e+001
1.012352e+003,2.696169e+001
1.013317e+003,2.598697e+001
1.014281e+003,2.544098e+001
1.015245e+003,2.653278e+001
1.016209e+003,2.756866e+001
1.017174e+003,2.694469e+001
1.018138e+003,2.496016e+001
1.019102e+003,2.353215e+001
1.020066e+003,2.439885e+001
1.021031e+003,2.643793e+001
1.021995e+003,2.577872e+001
1.022959e+003,2.295131e+001
1.023923e+003,2.095726e+001
1.024887e+003,2.092662e+001
1.025852e+003,2.185728e+001
1.026816e+003,2.222128e+001
1.027780e+003,2.195415e+001
1.028744e+003,2.177339e+001
1.029709e+003,2.103650e+001
1.030673e+003,2.116508e+001
1.031637e+003,2.386169e+001
1.032601e+003,2.710330e+001
1.033566e+003,2.787141e+001
1.034530e+003,2.519754e+001
1.035494e+003,2.158179e+001
1.036458e+003,1.931737e+001
1.037422e+003,1.813271e+001
1.038387e+003,1.768849e+001
1.039351e+003,1.787820e+001
1.040315e+003,1.840668e+001
1.041279e+003,1.915073e+001
1.042244e+003,2.004367e+001
1.043208e+003,2.055112e+001
1.044172e+003,2.035017e+001
1.045136e+003,2.008075e+001
1.046101e+003,1.952742e+001
1.047065e+003,1.922412e+001
1.048029e+003,1.978029e+001
1.048993e+003,2.089029e+001
1.049958e+003,2.137679e+001
1.050922e+003,2.044202e+001
1.051886e+003,1.955559e+001
1.052850e+003,2.032545e+001
1.053814e+003,2.193907e+001
1.054779e+003,2.375012e+001
1.055743e+003,2.540929e+001
1.056707e+003,2.618410e+001
1.057671e+003,2.510498e+001
1.058636e+003,2.213606e+001
1.059600e+003,2.040594e+001
1.060564e+003,2.097346e+001
1.061528e+003,2.139517e+001
1.062493e+003,2.101665e+001
1.063457e+003,2.039835e+001
1.064421e+003,2.037120e+001
1.065385e+003,2.104092e+001
1.066349e+003,2.134248e+001
1.067314e+003,2.046275e+001
1.068278e+003,1.936497e+001
1.069242e+003,1.860686e+001
1.070206e+003,1.819910e+001
1.071171e+003,1.809926e+001
1.072135e+003,1.823650e+001
1.073099e+003,1.851945e+001
1.074063e+003,1.887555e+001
1.075028e+003,1.935373e+001
1.075992e+003,1.973521e+001
1.076956e+003,1.993297e+001
1.077920e+003,2.005310e+001
1.078885e+003,2.050606e+001
1.079849e+003,2.090973e+001
1.080813e+003,2.017053e+001
1.081777e+003,1.780252e+001
1.082741e+003,1.628221e+001
1.083706e+003,1.780963e+001
1.084670e+003,1.955206e+001
1.085634e+003,1.993889e+001
1.086598e+003,1.932643e+001
1.087563e+003,1.870868e+001
1.088527e+003,1.868672e+001
1.089491e+003,1.902586e+001
1.090455e+003,1.911731e+001
1.091420e+003,1.885165e+001
1.092384e+003,1.891048e+001
1.093348e+003,1.953493e+001
1.094312e+003,1.990985e+001
1.095276e+003,1.955257e+001
1.096241e+003,1.869437e+001
1.097205e+003,1.786819e+001
1.098169e+003,1.708102e+001
1.099133e+003,1.625627e+001
1.100098e+003,1.495741e+001
1.101062e+003,1.405531e+001
1.102026e+003,1.432298e+001
1.102990e+003,1.545467e+001
1.103955e+003,1.670758e+001
1.104919e+003,1.760512e+001
1.105883e+003,1.815697e+001
1.106847e+003,1.850691e+001
1.107812e+003,1.858870e+001
1.108776e+003,1.758226e+001
1.109740e+003,1.459402e+001
1.110704e+003,1.229509e+001
1.111668e+003,1.341415e+001
1.112633e+003,1.705595e+001
1.113597e+003,1.887445e+001
1.114561e+003,1.749188e+001
1.115525e+003,1.638873e+001
1.116490e+003,1.716296e+001
1.117454e+003,1.802771e+001
1.118418e+003,1.792282e+001
1.119382e+003,1.698027e+001
1.120347e+003,1.557509e+001
1.121311e+003,1.387540e+001
1.122275e+003,1.248572e+001
1.123239e+003,1.325426e+001
1.124203e+003,1.604362e+001
1.125168e+003,1.744096e+001
1.126132e+003,1.674522e+001
1.127096e+003,1.591388e+001
1.128060e+003,1.672107e+001
1.129025e+003,1.864526e+001
1.129989e+003,1.914055e+001
1.130953e+003,1.702579e+001
1.131917e+003,1.573761e+001
1.132882e+003,1.682216e+001
1.133846e+003,1.834297e+001
1.134810e+003,1.960094e+001
1.135774e+003,2.024318e+001
1.136739e+003,1.963315e+001
1.137703e+003,1.745230e+001
1.138667e+003,1.502307e+001
1.139631e+003,1.491724e+001
1.140595e+003,1.684103e+001
1.141560e+003,1.780841e+001
1.142524e+003,1.753320e+001
1.143488e+003,1.712190e+001
1.144452e+003,1.676805e+001
1.145417e+003,1.681729e+001
1.146381e+003,1.893468e+001
1.147345e+003,2.438448e+001
1.148309e+003,2.844870e+001
1.149274e+003,2.921585e+001
1.150238e+003,2.929692e+001
1.151202e+003,2.962912e+001
1.152166e+003,3.044341e+001
1.153130e+003,3.194156e+001
1.154095e+003,3.407202e+001
1.155059e+003,3.600731e+001
1.156023e+003,3.661816e+001
1.156987e+003,3.608165e+001
1.157952e+003,3.589737e+001
1.158916e+003,3.640848e+001
1.159880e+003,3.622675e+001
1.160844e+003,3.383186e+001
1.161809e+003,3.022060e+001
1.162773e+003,2.802888e+001
1.163737e+003,2.769174e+001
1.164701e+003,2.691754e+001
1.165666e+003,2.492480e+001
1.166630e+003,2.268237e+001
1.167594e+003,2.014781e+001
1.168558e+003,1.772893e+001
1.169522e+003,1.596965e+001
1.170487e+003,1.499471e+001
1.171451e+003,1.432706e+001
1.172415e+003,1.329262e+001
1.173379e+003,1.223282e+001
1.174344e+003,1.357567e+001
1.175308e+003,1.757224e+001
1.176272e+003,2.011218e+001
1.177236e+003,1.907219e+001
1.178201e+003,1.660837e+001
1.179165e+003,1.538586e+001
1.180129e+003,1.535568e+001
1.181093e+003,1.524915e+001
1.182057e+003,1.499211e+001
1.183022e+003,1.442320e+001
1.183986e+003,1.327025e+001
1.184950e+003,1.198434e+001
1.185914e+003,1.086099e+001
1.186879e+003,1.006650e+001
1.187843e+003,9.850540e+000
1.188807e+003,1.041269e+001
1.189771e+003,1.134995e+001
1.190736e+003,1.151524e+001
1.191700e+003,1.082108e+001
1.192664e+003,1.007243e+001
1.193628e+003,9.138565e+000
1.194593e+003,8.517044e+000
1.195557e+003,8.606857e+000
1.196521e+003,9.269775e+000
1.197485e+003,1.024979e+001
1.198449e+003,1.189638e+001
1.199414e+003,1.265610e+001
1.200378e+003,1.072142e+001
1.201342e+003,8.690735e+000
1.202306e+003,8.380524e+000
1.203271e+003,9.216934e+000
1.204235e+003,9.741241e+000
1.205199e+003,9.243408e+000
1.206163e+003,8.208755e+000
1.207128e+003,7.388351e+000
1.208092e+003,6.794617e+000
1.209056e+003,6.648453e+000
1.210020e+003,7.634796e+000
1.210984e+003,7.697571e+000
1.211949e+003,5.410294e+000
1.212913e+003,2.370117e+000
1.213877e+003,5.925293e-001
1.214841e+003,2.369232e-001
1.215806e+003,5.587158e-001
1.216770e+003,1.888275e+000
1.217734e+003,2.800278e+000
1.218698e+003,1.932617e+000
1.219663e+003,3.369598e-001
1.220627e+003,-8.901367e-001
1.221591e+003,-1.404205e+000
1.222555e+003,-1.124680e+000
1.223520e+003,7.635498e-002
1.224484e+003,1.954498e+000
1.225448e+003,3.212860e+000
1.226412e+003,3.978745e+000
1.227376e+003,3.557297e+000
1.228341e+003,4.176788e-001
1.229305e+003,-2.207352e+000
1.230269e+003,-2.192810e+000
1.231233e+003,-5.288391e-001
1.232198e+003,7.805176e-001
1.233162e+003,1.262558e+000
1.234126e+003,1.473129e+000
1.235090e+003,1.816330e+000
1.236055e+003,1.924271e+000
1.237019e+003,1.178650e+000
1.237983e+003,-9.826660e-002
1.238947e+003,-9.153900e-001
1.239911e+003,-8.298798e-001
1.240876e+003,-4.693146e-001
1.241840e+003,-8.471680e-001
1.242804e+003,-2.018402e+000
1.243768e+003,-2.814636e+000
1.244733e+003,-3.224396e+000
1.245697e+003,-3.195175e+000
1.246661e+003,-2.714127e+000
1.247625e+003,-1.941360e+000
1.248590e+003,-4.350281e-001
1.249554e+003,1.339447e+000
1.250518e+003,1.871750e+000
1.251482e+003,3.455963e-001
1.252447e+003,-1.621765e+000
1.253411e+003,-1.925186e+000
1.254375e+003,-1.242249e+000
1.255339e+003,-1.246857e+000
1.256303e+003,-1.930328e+000
1.257268e+003,-2.062225e+000
1.258232e+003,-7.241669e-001
1.259196e+003,1.092392e+000
1.260160e+003,1.209320e+000
1.261125e+003,-7.654114e-001
1.262089e+003,-1.566849e+000
1.263053e+003,2.704315e-001
1.264017e+003,1.775436e+000
1.264982e+003,2.249191e+000
1.265946e+003,2.147842e+000
1.266910e+003,1.704437e+000
1.267874e+003,1.143600e+000
1.268839e+003,8.521423e-001
1.269803e+003,1.097672e+000
1.270767e+003,1.585464e+000
1.271731e+003,1.833801e+000
1.272695e+003,1.833817e+000
1.273660e+003,1.177963e+000
1.274624e+003,-7.839966e-001
1.275588e+003,-1.997787e+000
1.276552e+003,-5.154114e-001
1.277517e+003,2.211472e+000
1.278481e+003,3.247040e+000
1.279445e+003,2.294464e+000
1.280409e+003,1.365509e+000
1.281374e+003,1.016144e+000
1.282338e+003,9.706268e-001
1.283302e+003,1.231445e+000
1.284266e+003,1.574738e+000
1.285230e+003,1.759613e+000
1.286195e+003,1.743286e+000
1.287159e+003,1.662430e+000
1.288123e+003,1.660110e+000
1.289087e+003,1.687225e+000
1.290052e+003,1.416245e+000
1.291016e+003,5.080872e-001
1.291980e+003,4.002991e-001
1.292944e+003,2.010574e+000
1.293909e+003,3.037521e+000
1.294873e+003,2.250961e+000
1.295837e+003,6.878052e-001
1.296801e+003,-3.041534e-001
1.297766e+003,-5.336304e-001
1.298730e+003,-4.262085e-001
1.299694e+003,4.794312e-002
1.300658e+003,1.844177e-001
1.301622e+003,-1.576263e+000
1.302587e+003,-3.812286e+000
1.303551e+003,-3.894363e+000
1.304515e+003,-1.518021e+000
1.305479e+003,1.028595e+000
1.306444e+003,1.829330e+000
1.307408e+003,1.426636e+000
1.308372e+003,1.958221e+000
1.309336e+003,4.312531e+000
1.310301e+003,4.781982e+000
1.311265e+003,1.222549e+000
1.312229e+003,-1.679077e+000
1.313193e+003,-2.204941e+000
1.314157e+003,-1.665894e+000
1.315122e+003,-1.472458e+000
1.316086e+003,-1.817856e+000
1.317050e+003,-1.991913e+000
1.318014e+003,-1.472794e+000
1.318979e+003,-7.266083e-001
1.319943e+003,-6.781006e-001
1.320907e+003,-1.221603e+000
1.321871e+003,-1.635529e+000
1.322836e+003,-2.054092e+000
1.323800e+003,-2.111237e+000
1.324764e+003,-1.690704e+000
1.325728e+003,-7.214355e-001
1.326693e+003,1.547302e+000
1.327657e+003,5.140167e+000
1.328621e+003,6.210205e+000
1.329585e+003,2.061340e+000
1.330549e+003,-1.504745e+000
1.331514e+003,-1.004608e+000
1.332478e+003,6.965485e-001
1.333442e+003,9.013214e-001
1.334406e+003,-3.038177e-001
1.335371e+003,-1.238052e+000
1.336335e+003,-8.960571e-001
1.337299e+003,-3.643799e-002
1.338263e+003,-1.859436e-001
1.339228e+003,-1.557648e+000
1.340192e+003,-1.879120e+000
1.341156e+003,-5.803986e-001
1.342120e+003,8.374329e-001
1.343084e+003,2.999527e+000
1.344049e+003,4.335052e+000
1.345013e+003,2.757233e+000
1.345977e+003,-6.418457e-001
1.346941e+003,-2.456665e+000
1.347906e+003,-1.413574e+000
1.348870e+003,2.770233e-001
1.349834e+003,4.632721e-001
1.350798e+003,2.255249e-002
1.351763e+003,1.000977e+000
1.352727e+003,3.109329e+000
1.353691e+003,4.435776e+000
1.354655e+003,4.178177e+000
1.355620e+003,3.364288e+000
1.356584e+003,3.396881e+000
1.357548e+003,4.114670e+000
1.358512e+003,3.633881e+000
1.359476e+003,1.016068e+000
1.360441e+003,-7.523956e-001
1.361405e+003,2.519073e-001
1.362369e+003,1.079651e+000
1.363333e+003,-3.991241e-001
1.364298e+003,-2.633514e+000
1.365262e+003,-3.026810e+000
1.366226e+003,-1.250671e+000
1.367190e+003,5.121155e-001
1.368155e+003,2.961578e-001
1.369119e+003,-1.118378e+000
1.370083e+003,-1.206299e+000
1.371047e+003,6.085815e-001
1.372011e+003,1.442230e+000
1.372976e+003,3.179321e-001
1.373940e+003,-6.074982e-001
1.374904e+003,-1.691895e-001
1.375868e+003,7.195129e-001
1.376833e+003,6.719055e-001
1.377797e+003,-2.649689e-001
1.378761e+003,-5.847778e-001
1.379725e+003,5.800629e-001
1.380690e+003,1.852280e+000
1.381654e+003,1.649139e+000
1.382618e+003,7.713776e-001
1.383582e+003,1.125641e-001
1.384547e+003,-2.136536e-001
1.385511e+003,-5.041504e-002
1.386475e+003,7.111664e-001
1.387439e+003,1.779404e+000
1.388403e+003,2.973129e+000
1.389368e+003,4.279984e+000
1.390332e+003,4.422012e+000
1.391296e+003,2.747101e+000
1.392260e+003,1.235535e+000
1.393225e+003,-2.920685e-001
1.394189e+003,-9.543915e-001
1.395153e+003,4.221802e-001
1.396117e+003,2.720459e+000
1.397082e+003,4.438293e+000
1.398046e+003,5.067139e+000
1.399010e+003,4.768188e+000
1.399974e+003,3.597397e+000
1.400938e+003,1.914734e+000
1.401903e+003,1.134109e+000
1.402867e+003,1.740158e+000
1.403831e+003,2.100296e+000
1.404795e+003,1.635818e+000
1.405760e+003,1.525513e+000
1.406724e+003,2.342560e+000
1.407688e+003,3.362320e+000
1.408652e+003,4.050369e+000
1.409617e+003,4.353394e+000
1.410581e+003,3.886429e+000
1.411545e+003,2.284042e+000
1.412509e+003,1.006592e+000
1.413474e+003,1.763092e+000
1.414438e+003,3.464310e+000
1.415402e+003,4.887390e+000
1.416366e+003,5.869156e+000
1.417330e+003,5.141663e+000
1.418295e+003,1.764191e+000
1.419259e+003,-1.780853e+000
1.420223e+003,-2.530197e+000
1.421187e+003,-9.048615e-001
1.422152e+003,8.420105e-001
1.423116e+003,2.913818e+000
1.424080e+003,4.544708e+000
1.425044e+003,5.284637e+000
1.426009e+003,5.612534e+000
1.426973e+003,5.442200e+000
1.427937e+003,5.116409e+000
1.428901e+003,5.232437e+000
1.429865e+003,5.688828e+000
1.430830e+003,5.564377e+000
1.431794e+003,4.243820e+000
1.432758e+003,2.604218e+000
1.433722e+003,2.571075e+000
1.434687e+003,4.466537e+000
1.435651e+003,5.168320e+000
1.436615e+003,3.416351e+000
1.437579e+003,1.852951e+000
1.438544e+003,3.764038e-001
1.439508e+003,-4.439087e-001
1.440472e+003,3.799744e-001
1.441436e+003,2.007111e+000
1.442401e+003,2.550705e+000
1.443365e+003,1.680618e+000
1.444329e+003,1.348068e+000
1.445293e+003,3.245483e+000
1.446257e+003,5.873337e+000
1.447222e+003,6.056549e+000
1.448186e+003,4.289795e+000
1.449150e+003,3.350189e+000
1.450114e+003,3.655914e+000
1.451079e+003,3.919220e+000
1.452043e+003,3.105774e+000
1.453007e+003,2.251007e+000
1.453971e+003,3.205643e+000
1.454936e+003,5.589844e+000
1.455900e+003,6.499817e+000
1.456864e+003,4.961258e+000
1.457828e+003,3.369705e+000
1.458792e+003,3.018997e+000
1.459757e+003,3.170837e+000
1.460721e+003,3.376541e+000
1.461685e+003,3.583084e+000
1.462649e+003,3.792648e+000
1.463614e+003,4.026337e+000
1.464578e+003,4.261139e+000
1.465542e+003,4.486588e+000
1.466506e+003,4.573898e+000
1.467471e+003,4.094238e+000
1.468435e+003,2.879150e+000
1.469399e+003,2.390427e+000
1.470363e+003,3.379089e+000
1.471328e+003,3.955124e+000
1.472292e+003,3.369034e+000
1.473256e+003,2.424072e+000
1.474220e+003,1.577957e+000
1.475184e+003,1.042023e+000
1.476149e+003,9.527588e-001
1.477113e+003,1.285248e+000
1.478077e+003,1.922806e+000
1.479041e+003,2.832520e+000
1.480006e+003,3.842636e+000
1.480970e+003,4.153824e+000
1.481934e+003,3.325027e+000
1.482898e+003,3.380051e+000
1.483863e+003,5.380203e+000
1.484827e+003,6.637314e+000
1.485791e+003,5.971344e+000
1.486755e+003,4.805939e+000
1.487719e+003,4.325928e+000
1.488684e+003,4.412643e+000
1.489648e+003,4.476089e+000
1.490612e+003,4.360046e+000
1.491576e+003,4.363861e+000
1.492541e+003,4.760269e+000
1.493505e+003,5.279083e+000
1.494469e+003,5.035797e+000
1.495433e+003,4.192612e+000
1.496398e+003,4.633591e+000
1.497362e+003,7.302490e+000
1.498326e+003,9.340454e+000
1.499290e+003,8.550964e+000
1.500255e+003,6.778351e+000
1.501219e+003,6.322372e+000
1.502183e+003,7.120911e+000
1.503147e+003,8.595123e+000
1.504111e+003,1.074805e+001
1.505076e+003,1.296005e+001
1.506040e+003,1.548898e+001
1.507004e+003,1.722768e+001
1.507968e+003,1.648035e+001
1.508933e+003,1.441817e+001
1.509897e+003,1.327245e+001
1.510861e+003,1.359735e+001
1.511825e+003,1.537099e+001
1.512790e+003,1.885298e+001
1.513754e+003,2.300912e+001
1.514718e+003,2.589944e+001
1.515682e+003,2.747971e+001
1.516646e+003,2.907153e+001
1.517611e+003,3.066895e+001
1.518575e+003,3.274416e+001
1.519539e+003,3.667723e+001
1.520503e+003,3.995369e+001
1.521468e+003,4.087263e+001
1.522432e+003,4.042928e+001
1.523396e+003,4.010451e+001
1.524360e+003,4.006815e+001
1.525325e+003,3.934352e+001
1.526289e+003,3.730908e+001
1.527253e+003,3.510434e+001
1.528217e+003,3.504498e+001
1.529182e+003,3.723830e+001
1.530146e+003,3.637691e+001
1.531110e+003,2.983357e+001
1.532074e+003,2.503621e+001
1.533039e+003,2.338892e+001
1.534003e+003,2.209547e+001
1.534967e+003,2.034499e+001
1.535931e+003,1.826189e+001
1.536896e+003,1.595908e+001
1.537860e+003,1.355171e+001
1.538824e+003,1.094084e+001
1.539788e+003,8.131027e+000
1.540752e+003,6.044601e+000
1.541717e+003,6.028397e+000
1.542681e+003,7.756439e+000
1.543645e+003,8.960922e+000
1.544609e+003,9.867645e+000
1.545573e+003,9.719727e+000
1.546538e+003,6.925812e+000
1.547502e+003,4.982712e+000
1.548466e+003,5.688538e+000
1.549430e+003,7.591537e+000
1.550395e+003,9.688980e+000
1.551359e+003,1.144945e+001
1.552323e+003,1.196352e+001
1.553287e+003,1.100211e+001
1.554252e+003,9.664490e+000
1.555216e+003,8.798111e+000
1.556180e+003,8.491623e+000
1.557144e+003,9.341446e+000
1.558109e+003,1.140974e+001
1.559073e+003,1.160963e+001
1.560037e+003,8.705566e+000
1.561001e+003,6.173889e+000
1.561966e+003,5.284088e+000
1.562930e+003,5.313309e+000
1.563894e+003,5.826508e+000
1.564858e+003,6.564926e+000
1.565823e+003,7.028366e+000
1.566787e+003,7.130219e+000
1.567751e+003,7.352036e+000
1.568715e+003,8.048813e+000
1.569679e+003,8.811142e+000
1.570644e+003,9.031052e+000
1.571608e+003,8.844910e+000
1.572572e+003,8.794205e+000
1.573536e+003,8.942078e+000
1.574500e+003,9.279556e+000
1.575465e+003,1.014940e+001
1.576429e+003,1.060060e+001
1.577393e+003,9.069199e+000
1.578357e+003,6.870560e+000
1.579322e+003,6.862366e+000
1.580286e+003,9.112900e+000
1.581250e+003,1.160896e+001
1.582214e+003,1.405685e+001
1.583179e+003,1.542432e+001
1.584143e+003,1.424139e+001
1.585107e+003,1.208342e+001
1.586071e+003,1.129817e+001
1.587036e+003,1.151318e+001
1.588000e+003,1.117416e+001
1.588964e+003,9.837570e+000
1.589928e+003,8.764801e+000
1.590893e+003,8.774445e+000
1.591857e+003,9.558167e+000
1.592821e+003,1.107904e+001
1.593785e+003,1.308504e+001
1.594750e+003,1.386438e+001
1.595714e+003,1.296788e+001
1.596678e+003,1.217165e+001
1.597642e+003,1.216313e+001
1.598606e+003,1.252721e+001
1.599571e+003,1.314435e+001
1.600535e+003,1.382838e+001
1.601499e+003,1.412097e+001
1.602463e+003,1.414908e+001
1.603427e+003,1.489825e+001
1.604392e+003,1.691631e+001
1.605356e+003,1.862888e+001
1.606320e+003,1.777670e+001
1.607284e+003,1.561105e+001
1.608249e+003,1.623140e+001
1.609213e+003,1.977724e+001
1.610177e+003,2.151392e+001
1.611141e+003,1.998886e+001
1.612106e+003,1.830896e+001
1.613070e+003,1.758698e+001
1.614034e+003,1.761746e+001
1.614998e+003,1.893417e+001
1.615963e+003,2.064807e+001
1.616927e+003,2.119014e+001
1.617891e+003,2.039278e+001
1.618855e+003,1.922353e+001
1.619820e+003,1.814879e+001
1.620784e+003,1.726518e+001
1.621748e+003,1.680515e+001
1.622712e+003,1.687637e+001
1.623677e+003,1.776181e+001
1.624641e+003,1.979312e+001
1.625605e+003,2.062212e+001
1.626569e+003,1.841953e+001
1.627533e+003,1.678122e+001
1.628498e+003,1.850020e+001
1.629462e+003,2.074965e+001
1.630426e+003,2.110565e+001
1.631390e+003,2.002820e+001
1.632354e+003,1.853011e+001
1.633319e+003,1.707224e+001
1.634283e+003,1.683626e+001
1.635247e+003,1.898412e+001
1.636211e+003,2.189906e+001
1.637176e+003,2.257515e+001
1.638140e+003,2.120241e+001
1.639104e+003,2.013518e+001
1.640068e+003,1.935727e+001
1.641033e+003,1.905118e+001
1.641997e+003,1.958109e+001
1.642961e+003,2.023268e+001
1.643925e+003,2.095779e+001
1.644890e+003,2.137143e+001
1.645854e+003,2.100397e+001
1.646818e+003,1.998795e+001
1.647782e+003,1.859523e+001
1.648747e+003,1.696625e+001
1.649711e+003,1.565558e+001
1.650675e+003,1.516290e+001
1.651639e+003,1.531013e+001
1.652604e+003,1.573869e+001
1.653568e+003,1.639485e+001
1.654532e+003,1.692149e+001
1.655496e+003,1.731802e+001
1.656460e+003,1.752095e+001
1.657425e+003,1.747581e+001
1.658389e+003,1.733406e+001
1.659353e+003,1.700017e+001
1.660317e+003,1.673877e+001
1.661281e+003,1.705028e+001
1.662246e+003,1.764352e+001
1.663210e+003,1.758821e+001
1.664174e+003,1.663492e+001
1.665138e+003,1.569495e+001
1.666103e+003,1.551599e+001
1.667067e+003,1.577309e+001
1.668031e+003,1.604305e+001
1.668995e+003,1.629842e+001
1.669960e+003,1.568115e+001
1.670924e+003,1.381523e+001
1.671888e+003,1.252943e+001
1.672852e+003,1.259712e+001
1.673817e+003,1.299321e+001
1.674781e+003,1.301997e+001
1.675745e+003,1.302731e+001
1.676709e+003,1.367558e+001
1.677674e+003,1.463333e+001
1.678638e+003,1.465437e+001
1.679602e+003,1.336783e+001
1.680566e+003,1.222173e+001
1.681531e+003,1.251431e+001
1.682495e+003,1.346458e+001
1.683459e+003,1.394269e+001
1.684423e+003,1.382451e+001
1.685387e+003,1.207025e+001
1.686352e+003,8.191696e+000
1.687316e+003,6.328247e+000
1.688280e+003,8.878891e+000
1.689244e+003,1.168707e+001
1.690208e+003,1.151828e+001
1.691173e+003,1.003983e+001
1.692137e+003,8.631119e+000
1.693101e+003,7.559052e+000
1.694065e+003,7.342468e+000
1.695030e+003,8.083847e+000
1.695994e+003,8.721237e+000
1.696958e+003,8.578384e+000
1.697922e+003,8.104095e+000
1.698887e+003,7.993759e+000
1.699851e+003,8.009705e+000
1.700815e+003,7.131134e+000
1.701779e+003,5.278519e+000
1.702744e+003,4.050461e+000
1.703708e+003,4.165375e+000
1.704672e+003,4.414337e+000
1.705636e+003,3.548889e+000
1.706601e+003,2.538086e+000
1.707565e+003,3.481659e+000
1.708529e+003,5.610840e+000
1.709493e+003,6.099609e+000
1.710458e+003,4.425217e+000
1.711422e+003,2.933426e+000
1.712386e+003,2.822632e+000
1.713350e+003,3.050201e+000
1.714314e+003,2.463043e+000
1.715279e+003,1.718811e+000
1.716243e+003,2.256882e+000
1.717207e+003,3.840027e+000
1.718171e+003,4.864059e+000
1.719135e+003,4.901093e+000
1.720100e+003,4.503540e+000
1.721064e+003,3.950043e+000
1.722028e+003,3.224930e+000
1.722992e+003,2.026001e+000
1.723957e+003,7.790070e-001
1.724921e+003,1.927856e+000
1.725885e+003,6.087830e+000
1.726849e+003,7.917557e+000
1.727814e+003,4.783585e+000
1.728778e+003,1.897461e+000
1.729742e+003,1.799820e+000
1.730706e+003,2.612595e+000
1.731671e+003,2.336441e+000
1.732635e+003,1.430771e+000
1.733599e+003,1.427032e+000
1.734563e+003,2.525314e+000
1.735528e+003,3.730759e+000
1.736492e+003,4.484314e+000
1.737456e+003,4.473999e+000
1.738420e+003,3.164566e+000
1.739385e+003,1.128967e+000
1.740349e+003,7.595673e-001
1.741313e+003,2.561646e+000
1.742277e+003,3.726563e+000
1.743241e+003,4.387939e+000
1.744206e+003,4.382492e+000
1.745170e+003,2.584122e+000
1.746134e+003,1.311356e+000
1.747098e+003,2.410965e+000
1.748063e+003,4.283646e+000
1.749027e+003,5.385178e+000
1.749991e+003,5.441010e+000
1.750955e+003,4.164948e+000
1.751919e+003,1.799561e+000
1.752884e+003,8.714294e-002
1.753848e+003,4.873199e-001
1.754812e+003,2.063995e+000
1.755776e+003,3.086792e+000
1.756741e+003,3.609497e+000
1.757705e+003,3.185867e+000
1.758669e+003,9.671783e-001
1.759633e+003,1.708221e-001
1.760598e+003,2.578415e+000
1.761562e+003,4.224350e+000
1.762526e+003,3.461349e+000
1.763490e+003,2.173721e+000
1.764455e+003,1.718216e+000
1.765419e+003,1.643234e+000
1.766383e+003,6.513977e-001
1.767347e+003,-1.035233e+000
1.768312e+003,-1.282379e+000
1.769276e+003,9.356232e-001
1.770240e+003,3.168793e+000
1.771204e+003,2.854950e+000
1.772168e+003,9.846497e-001
1.773133e+003,-5.740967e-001
1.774097e+003,-1.791153e+000
1.775061e+003,-2.173615e+000
1.776025e+003,-1.615417e+000
1.776990e+003,-1.236145e+000
1.777954e+003,-1.635666e+000
1.778918e+003,-1.532059e+000
1.779882e+003,6.156464e-001
1.780846e+003,3.172791e+000
1.781811e+003,3.970184e+000
1.782775e+003,3.405762e+000
1.783739e+003,2.733063e+000
1.784703e+003,2.157928e+000
1.785668e+003,1.344498e+000
1.786632e+003,-4.207916e-001
1.787596e+003,-1.858902e+000
1.788560e+003,-1.684601e+000
1.789525e+003,-6.933899e-001
1.790489e+003,-2.764893e-002
1.791453e+003,3.285675e-001
1.792417e+003,1.000351e+000
1.793382e+003,2.025101e+000
1.794346e+003,2.306213e+000
1.795310e+003,1.190018e+000
1.796274e+003,-7.078552e-002
1.797239e+003,8.633423e-002
1.798203e+003,1.149872e+000
1.799167e+003,1.141113e+000
1.800131e+003,-3.787994e-001
1.801095e+003,-9.588013e-001
1.802060e+003,6.245728e-001
1.803024e+003,1.364014e+000
1.803988e+003,1.724243e-003
1.804952e+003,-1.158371e+000
1.805917e+003,-7.382202e-001
1.806881e+003,1.579132e-001
1.807845e+003,4.143677e-001
1.808809e+003,2.256012e-001
1.809773e+003,2.591095e-001
1.810738e+003,6.484985e-001
1.811702e+003,1.144867e+000
1.812666e+003,1.568375e+000
1.813630e+003,1.488464e+000
1.814595e+003,7.739258e-002
1.815559e+003,-2.014664e+000
1.816523e+003,-1.610611e+000
1.817487e+003,1.668137e+000
1.818452e+003,3.229584e+000
1.819416e+003,2.381165e+000
1.820380e+003,1.394211e+000
1.821344e+003,9.127808e-001
1.822309e+003,2.443237e-001
1.823273e+003,-1.586990e+000
1.824237e+003,-3.263458e+000
1.825201e+003,-3.242828e+000
1.826166e+003,-2.033157e+000
1.827130e+003,-1.066940e+000
1.828094e+003,-6.153107e-001
1.829058e+003,-4.206848e-002
1.830022e+003,1.181580e+000
1.830987e+003,2.223526e+000
1.831951e+003,2.323196e+000
1.832915e+003,1.878342e+000
1.833879e+003,1.402100e+000
1.834844e+003,8.896027e-001
1.835808e+003,7.054138e-002
1.836772e+003,-9.946899e-001
1.837736e+003,-1.575577e+000
1.838700e+003,-1.382172e+000
1.839665e+003,-6.002655e-001
1.840629e+003,8.356934e-001
1.841593e+003,2.191391e+000
1.842557e+003,1.688370e+000
1.843522e+003,-6.389160e-001
1.844486e+003,-1.896103e+000
1.845450e+003,-1.439423e+000
1.846414e+003,-9.482574e-001
1.847379e+003,-5.706482e-001
1.848343e+003,-1.754913e-001
1.849307e+003,4.974823e-001
1.850271e+003,1.046204e+000
1.851236e+003,1.092194e+000
1.852200e+003,9.583282e-001
1.853164e+003,1.220459e+000
1.854128e+003,1.630447e+000
1.855093e+003,1.332367e+000
1.856057e+003,1.134796e-001
1.857021e+003,-1.458832e+000
1.857985e+003,-3.125885e+000
1.858949e+003,-4.081558e+000
1.859914e+003,-2.147552e+000
1.860878e+003,1.902740e+000
1.861842e+003,3.260971e+000
1.862806e+003,1.804153e+000
1.863771e+003,1.088760e+000
1.864735e+003,1.918274e+000
1.865699e+003,2.290253e+000
1.866663e+003,1.186630e+000
1.867627e+003,-2.513885e-001
1.868592e+003,-1.405685e+000
1.869556e+003,-2.106598e+000
1.870520e+003,-1.745041e+000
1.871484e+003,-5.003967e-001
1.872449e+003,5.695343e-001
1.873413e+003,1.689758e+000
1.874377e+003,2.158066e+000
1.875341e+003,6.467896e-001
1.876306e+003,-4.394836e-001
1.877270e+003,8.448639e-001
1.878234e+003,2.517868e+000
1.879198e+003,2.544083e+000
1.880163e+003,1.497192e+000
1.881127e+003,4.273987e-001
1.882091e+003,-2.737274e-001
1.883055e+003,-2.154541e-001
1.884020e+003,6.769562e-001
1.884984e+003,1.785477e+000
1.885948e+003,2.581772e+000
1.886912e+003,2.856049e+000
1.887876e+003,2.106079e+000
1.888841e+003,4.284668e-001
1.889805e+003,-1.195770e+000
1.890769e+003,-2.982651e+000
1.891733e+003,-3.436722e+000
1.892698e+003,-1.868835e+000
1.893662e+003,-4.127808e-001
1.894626e+003,3.732910e-001
1.895590e+003,6.711578e-001
1.896554e+003,2.796021e-001
1.897519e+003,-2.239075e-001
1.898483e+003,-3.339081e-001
1.899447e+003,-4.656982e-002
1.900411e+003,9.782104e-001
1.901376e+003,2.906906e+000
1.902340e+003,3.977402e+000
1.903304e+003,3.280212e+000
1.904268e+003,1.939301e+000
1.905233e+003,4.454041e-002
1.906197e+003,-1.554306e+000
1.907161e+003,-1.816116e+000
1.908125e+003,-1.195053e+000
1.909090e+003,-4.105225e-001
1.910054e+003,2.539368e-001
1.911018e+003,4.273682e-001
1.911982e+003,1.006317e-001
1.912947e+003,-2.169800e-002
1.913911e+003,5.608368e-001
1.914875e+003,1.302551e+000
1.915839e+003,1.338791e+000
1.916803e+003,7.108307e-001
1.917768e+003,-3.052673e-001
1.918732e+003,-1.918457e+000
1.919696e+003,-2.159409e+000
1.920660e+003,-4.126892e-001
1.921625e+003,1.133789e+000
1.922589e+003,1.868057e+000
1.923553e+003,2.466583e+000
1.924517e+003,3.632690e+000
1.925481e+003,4.505554e+000
1.926446e+003,3.957092e+000
1.927410e+003,2.715805e+000
1.928374e+003,2.246765e+000
1.929338e+003,2.567749e+000
1.930303e+003,2.709045e+000
1.931267e+003,2.357635e+000
1.932231e+003,2.372528e+000
1.933195e+003,3.676529e+000
1.934160e+003,4.705429e+000
1.935124e+003,4.092316e+000
1.936088e+003,2.709457e+000
1.937052e+003,1.254425e+000
1.938017e+003,1.945038e-001
1.938981e+003,5.615540e-001
1.939945e+003,2.060638e+000
1.940909e+003,2.666199e+000
1.941874e+003,1.569931e+000
1.942838e+003,6.855469e-001
1.943802e+003,1.909943e+000
1.944766e+003,4.028473e+000
1.945730e+003,4.413696e+000
1.946695e+003,3.252121e+000
1.947659e+003,2.356216e+000
1.948623e+003,1.682495e+000
1.949587e+003,1.696106e+000
1.950552e+003,2.782211e+000
1.951516e+003,3.248627e+000
1.952480e+003,2.115982e+000
1.953444e+003,1.132874e+000
1.954408e+003,1.619598e+000
1.955373e+003,2.743195e+000
1.956337e+003,3.667221e+000
1.957301e+003,4.365921e+000
1.958265e+003,4.422180e+000
1.959230e+003,3.747650e+000
1.960194e+003,3.187241e+000
1.961158e+003,2.823074e+000
1.962122e+003,2.411377e+000
1.963087e+003,2.014328e+000
1.964051e+003,1.443237e+000
1.965015e+003,3.427124e-002
1.965979e+003,-9.936523e-001
1.966944e+003,1.427460e-001
1.967908e+003,2.209457e+000
1.968872e+003,2.886703e+000
1.969836e+003,1.986160e+000
1.970801e+003,6.685181e-001
1.971765e+003,-4.925232e-001
1.972729e+003,-1.175507e+000
1.973693e+003,-1.149948e+000
1.974657e+003,-4.206543e-001
1.975622e+003,1.481308e+000
1.976586e+003,3.871964e+000
1.977550e+003,4.885757e+000
1.978514e+003,4.705444e+000
1.979479e+003,4.508392e+000
1.980443e+003,4.444153e+000
1.981407e+003,3.861938e+000
1.982371e+003,2.482819e+000
1.983335e+003,1.919647e+000
1.984300e+003,3.571793e+000
1.985264e+003,5.480682e+000
1.986228e+003,4.459595e+000
1.987192e+003,1.324661e+000
1.988157e+003,4.089355e-001
1.989121e+003,2.266708e+000
1.990085e+003,3.650421e+000
1.991049e+003,4.553146e+000
1.992014e+003,5.072098e+000
1.992978e+003,4.925919e+000
1.993942e+003,4.713638e+000
1.994906e+003,4.836685e+000
1.995871e+003,4.773895e+000
1.996835e+003,3.689316e+000
1.997799e+003,2.488785e+000
1.998763e+003,2.794525e+000
1.999728e+003,4.209061e+000
