5.003444e+002,4.426187e+001
5.013087e+002,4.371352e+001
5.022729e+002,4.198328e+001
5.032371e+002,3.960191e+001
5.042014e+002,3.792200e+001
5.051656e+002,3.688562e+001
5.061298e+002,3.611044e+001
5.070941e+002,3.516003e+001
5.080583e+002,3.372603e+001
5.090225e+002,3.372520e+001
5.099868e+002,3.640466e+001
5.109510e+002,3.874767e+001
5.119152e+002,3.881544e+001
5.128795e+002,3.636850e+001
5.138437e+002,3.472543e+001
5.148079e+002,3.598772e+001
5.157722e+002,3.745233e+001
5.167364e+002,3.810500e+001
5.177006e+002,3.771494e+001
5.186649e+002,3.665979e+001
5.196291e+002,3.486185e+001
5.205933e+002,3.327608e+001
5.215576e+002,3.319931e+001
5.225218e+002,3.446918e+001
5.234860e+002,3.591690e+001
5.244503e+002,3.553070e+001
5.254145e+002,3.271111e+001
5.263787e+002,3.091115e+001
5.273430e+002,3.037915e+001
5.283072e+002,3.067628e+001
5.292714e+002,3.142647e+001
5.302357e+002,3.335483e+001
5.311999e+002,3.353717e+001
5.321641e+002,3.062781e+001
5.331284e+002,2.722243e+001
5.340926e+002,2.536154e+001
5.350568e+002,2.580553e+001
5.360211e+002,2.662669e+001
5.369853e+002,2.625162e+001
5.379495e+002,2.547787e+001
5.389138e+002,2.496623e+001
5.398780e+002,2.490802e+001
5.408422e+002,2.488367e+001
5.418065e+002,2.332379e+001
5.427707e+002,2.056187e+001
5.437349e+002,1.937280e+001
5.446992e+002,2.090517e+001
5.456634e+002,2.421220e+001
5.466276e+002,2.600002e+001
5.475919e+002,2.506697e+001
5.485561e+002,2.389265e+001
5.495203e+002,2.205338e+001
5.504846e+002,2.011217e+001
5.514488e+002,1.896539e+001
5.524130e+002,1.931114e+001
5.533773e+002,1.983586e+001
5.543415e+002,1.982314e+001
5.553057e+002,1.959286e+001
5.562700e+002,1.953322e+001
5.572342e+002,1.986018e+001
5.581984e+002,2.018669e+001
5.591627e+002,1.932364e+001
5.601269e+002,1.786426e+001
5.610911e+002,1.707660e+001
5.620554e+002,1.765399e+001
5.630196e+002,1.928783e+001
5.639838e+002,1.952338e+001
5.649481e+002,1.667194e+001
5.659123e+002,1.488719e+001
5.668765e+002,1.558856e+001
5.678408e+002,1.802490e+001
5.688050e+002,1.992606e+001
5.697692e+002,2.061890e+001
5.707335e+002,2.041646e+001
5.716977e+002,1.909242e+001
5.726619e+002,1.721489e+001
5.736262e+002,1.538522e+001
5.745904e+002,1.396820e+001
5.755546e+002,1.306734e+001
5.765189e+002,1.249942e+001
5.774831e+002,1.226425e+001
5.784473e+002,1.279816e+001
5.794116e+002,1.442987e+001
5.803758e+002,1.700894e+001
5.813400e+002,1.741331e+001
5.823043e+002,1.494102e+001
5.832685e+002,1.249252e+001
5.842327e+002,1.109888e+001
5.851970e+002,1.070659e+001
5.861612e+002,1.051167e+001
5.871254e+002,1.018172e+001
5.880897e+002,1.022586e+001
5.890539e+002,1.087854e+001
5.900181e+002,1.188538e+001
5.909824e+002,1.297797e+001
5.919466e+002,1.425450e+001
5.929108e+002,1.499536e+001
5.938751e+002,1.440146e+001
5.948393e+002,1.298729e+001
5.958035e+002,1.139333e+001
5.967678e+002,1.011606e+001
5.977320e+002,9.270416e+000
5.986962e+002,9.897049e+000
5.996605e+002,1.198807e+001
6.006247e+002,1.331529e+001
6.015889e+002,1.229439e+001
6.025532e+002,9.177979e+000
6.035174e+002,7.535294e+000
6.044816e+002,9.234116e+000
6.054459e+002,1.054970e+001
6.064101e+002,1.053181e+001
6.073743e+002,9.834488e+000
6.083386e+002,9.970139e+000
6.093028e+002,1.250464e+001
6.102670e+002,1.436226e+001
6.112313e+002,1.226021e+001
6.121955e+002,8.486588e+000
6.131597e+002,6.236008e+000
6.141240e+002,7.650085e+000
6.150882e+002,1.149843e+001
6.160524e+002,1.243813e+001
6.170167e+002,1.104781e+001
6.179809e+002,9.489197e+000
6.189451e+002,8.707336e+000
6.199094e+002,8.503616e+000
6.208736e+002,7.727356e+000
6.218378e+002,4.865112e+000
6.228021e+002,3.472137e+000
6.237663e+002,4.960800e+000
6.247305e+002,7.863861e+000
6.256948e+002,9.792114e+000
6.266590e+002,9.601273e+000
6.276232e+002,8.510040e+000
6.285875e+002,6.818649e+000
6.295517e+002,5.285965e+000
6.305159e+002,4.840668e+000
6.314802e+002,5.905807e+000
6.324444e+002,7.742920e+000
6.334086e+002,8.662552e+000
6.343729e+002,8.923172e+000
6.353371e+002,8.517303e+000
6.363013e+002,7.246674e+000
6.372656e+002,5.477921e+000
6.382298e+002,4.639542e+000
6.391940e+002,6.345886e+000
6.401583e+002,6.741714e+000
6.411225e+002,4.723038e+000
6.420867e+002,2.121475e+000
6.430510e+002,1.228439e+000
6.440152e+002,3.084824e+000
6.449794e+002,4.751511e+000
6.459437e+002,4.718307e+000
6.469079e+002,3.933777e+000
6.478721e+002,3.019623e+000
6.488364e+002,2.270172e+000
6.498006e+002,1.612457e+000
6.507648e+002,7.115173e-001
6.517291e+002,-2.431946e-001
6.526933e+002,-6.707764e-001
6.536575e+002,-4.597626e-001
6.546218e+002,2.566528e-001
6.555860e+002,1.271118e+000
6.565502e+002,2.928726e+000
6.575145e+002,4.061844e+000
6.584787e+002,4.439682e+000
6.594429e+002,4.572540e+000
6.604072e+002,4.938934e+000
6.613714e+002,5.663925e+000
6.623356e+002,6.024750e+000
6.632999e+002,5.167786e+000
6.642641e+002,4.174789e+000
6.652283e+002,3.862701e+000
6.661926e+002,4.172699e+000
6.671568e+002,4.291382e+000
6.681210e+002,2.980957e+000
6.690853e+002,9.003601e-001
6.700495e+002,-8.273315e-002
6.710137e+002,4.072571e-002
6.719780e+002,7.256165e-001
6.729422e+002,1.438095e+000
6.739064e+002,2.215897e+000
6.748707e+002,2.485001e+000
6.758349e+002,1.962021e+000
6.767991e+002,1.380753e+000
6.777634e+002,9.215393e-001
6.787276e+002,7.174225e-001
6.796918e+002,1.194138e+000
6.806561e+002,3.380295e+000
6.816203e+002,5.127853e+000
6.825845e+002,5.687469e+000
6.835488e+002,5.235306e+000
6.845130e+002,3.919998e+000
6.854772e+002,1.714844e+000
6.864415e+002,-4.173737e-001
6.874057e+002,-4.702759e-001
6.883699e+002,9.342804e-001
6.893342e+002,2.951538e+000
6.902984e+002,5.300217e+000
6.912626e+002,7.650421e+000
6.922269e+002,7.519806e+000
6.931911e+002,1.495178e+000
6.941553e+002,-2.042374e+000
6.951196e+002,-7.423859e-001
6.960838e+002,2.653854e+000
6.970480e+002,3.577347e+000
6.980123e+002,-1.502075e-001
6.989765e+002,-3.010101e+000
6.999407e+002,-2.706863e+000
7.009050e+002,-9.155884e-001
7.018692e+002,1.628555e+000
7.028334e+002,4.366592e+000
7.037977e+002,6.475449e+000
7.047619e+002,6.201447e+000
7.057261e+002,4.539307e+000
7.066904e+002,3.359177e+000
7.076546e+002,2.950272e+000
7.086188e+002,2.843872e+000
7.095831e+002,2.318359e+000
7.105473e+002,1.234161e+000
7.115115e+002,-9.100342e-002
7.124758e+002,-3.008209e+000
7.134400e+002,-4.911835e+000
7.144042e+002,-3.447784e+000
7.153685e+002,1.347458e+000
7.163327e+002,5.263855e+000
7.172969e+002,5.709671e+000
7.182612e+002,5.429337e+000
7.192254e+002,5.488342e+000
7.201896e+002,5.631821e+000
7.211539e+002,4.825775e+000
7.221181e+002,2.000961e+000
7.230823e+002,-1.445419e+000
7.240466e+002,-1.451096e+000
7.250108e+002,1.271912e+000
7.259750e+002,3.879105e+000
7.269393e+002,4.641144e+000
7.279035e+002,3.667938e+000
7.288677e+002,2.739349e+000
7.298320e+002,1.978241e+000
7.307962e+002,1.519791e+000
7.317604e+002,1.434570e+000
7.327247e+002,1.657593e+000
7.336889e+002,2.126053e+000
7.346531e+002,2.837921e+000
7.356174e+002,3.121719e+000
7.365816e+002,2.967621e+000
7.375458e+002,2.425720e+000
7.385101e+002,8.182983e-001
7.394743e+002,-1.579514e+000
7.404385e+002,-3.067780e+000
7.414028e+002,-3.506012e-001
7.423670e+002,5.149521e+000
7.433312e+002,7.245758e+000
7.442955e+002,5.427826e+000
7.452597e+002,2.685349e+000
7.462239e+002,2.575195e+000
7.471882e+002,6.139908e+000
7.481524e+002,7.550598e+000
7.491166e+002,5.403702e+000
7.500809e+002,2.870941e+000
7.510451e+002,5.437317e-001
7.520093e+002,-1.248901e+000
7.529736e+002,-1.717102e+000
7.539378e+002,5.696869e-001
7.549020e+002,2.924545e+000
7.558663e+002,3.837097e+000
7.568306e+002,3.653000e+000
7.577948e+002,2.581909e+000
7.587590e+002,8.111725e-001
7.597233e+002,-1.229279e+000
7.606875e+002,-2.031708e+000
7.616517e+002,-1.649399e+000
7.626160e+002,-2.535858e-001
7.635802e+002,2.689224e+000
7.645444e+002,6.105545e+000
7.655087e+002,7.555984e+000
7.664729e+002,5.761520e+000
7.674371e+002,4.637711e+000
7.684014e+002,5.170502e+000
7.693656e+002,5.661316e+000
7.703298e+002,4.591370e+000
7.712941e+002,2.024094e+000
7.722583e+002,1.755371e-001
7.732225e+002,1.247574e+000
7.741868e+002,3.206299e+000
7.751510e+002,4.768265e+000
7.761152e+002,5.811523e+000
7.770795e+002,6.413101e+000
7.780437e+002,6.621048e+000
7.790079e+002,6.452927e+000
7.799722e+002,6.378067e+000
7.809364e+002,6.550629e+000
7.819006e+002,6.090256e+000
7.828649e+002,4.033112e+000
7.838291e+002,1.153366e+000
7.847933e+002,3.527832e-002
7.857576e+002,2.072556e+000
7.867218e+002,3.411224e+000
7.876860e+002,3.015442e+000
7.886503e+002,2.187546e+000
7.896145e+002,1.990570e+000
7.905787e+002,2.705048e+000
7.915430e+002,3.751282e+000
7.925072e+002,4.665634e+000
7.934714e+002,5.295700e+000
7.944357e+002,5.546280e+000
7.953999e+002,5.492935e+000
7.963641e+002,5.271118e+000
7.973284e+002,4.985123e+000
7.982926e+002,4.632370e+000
7.992568e+002,4.306824e+000
8.002211e+002,3.647171e+000
8.011853e+002,3.158081e+000
8.021495e+002,3.268494e+000
8.031138e+002,3.970428e+000
8.040780e+002,4.870300e+000
8.050422e+002,6.176056e+000
8.060065e+002,6.855453e+000
8.069707e+002,5.955322e+000
8.079349e+002,4.626633e+000
8.088992e+002,4.099182e+000
8.098634e+002,4.805389e+000
8.108276e+002,6.011047e+000
8.117919e+002,6.747940e+000
8.127561e+002,6.926270e+000
8.137203e+002,6.561798e+000
8.146846e+002,5.774231e+000
8.156488e+002,5.054153e+000
8.166130e+002,5.051331e+000
8.175773e+002,6.084854e+000
8.185415e+002,5.645950e+000
8.195057e+002,1.586533e+000
8.204700e+002,-1.241699e+000
8.214342e+002,-2.626801e-001
8.223984e+002,3.193588e+000
8.233627e+002,5.461151e+000
8.243269e+002,4.946411e+000
8.252911e+002,3.814987e+000
8.262554e+002,3.142075e+000
8.272196e+002,2.779343e+000
8.281838e+002,2.538727e+000
8.291481e+002,2.364349e+000
8.301123e+002,2.430313e+000
8.310765e+002,3.217102e+000
8.320408e+002,4.544281e+000
8.330050e+002,4.730148e+000
8.339692e+002,3.387268e+000
8.349335e+002,1.903778e+000
8.358977e+002,1.806000e+000
8.368619e+002,3.354919e+000
8.378262e+002,4.758286e+000
8.387904e+002,5.921631e+000
8.397546e+002,6.821945e+000
8.407189e+002,7.537689e+000
8.416831e+002,7.981140e+000
8.426473e+002,7.894547e+000
8.436116e+002,7.044388e+000
8.445758e+002,6.219421e+000
8.455400e+002,6.232819e+000
8.465043e+002,6.550583e+000
8.474685e+002,6.663345e+000
8.484327e+002,6.533188e+000
8.493970e+002,6.577118e+000
8.503612e+002,7.417755e+000
8.513254e+002,9.238525e+000
8.522897e+002,1.005353e+001
8.532539e+002,9.617004e+000
8.542181e+002,8.547592e+000
8.551824e+002,6.656311e+000
8.561466e+002,4.293076e+000
8.571108e+002,3.737991e+000
8.580751e+002,7.086395e+000
8.590393e+002,9.717880e+000
8.600035e+002,9.529190e+000
8.609678e+002,8.358353e+000
8.619320e+002,8.337967e+000
8.628962e+002,1.029242e+001
8.638605e+002,1.311844e+001
8.648247e+002,1.563628e+001
8.657889e+002,1.757115e+001
8.667532e+002,1.809209e+001
8.677174e+002,1.708986e+001
8.686816e+002,1.566780e+001
8.696459e+002,1.513248e+001
8.706101e+002,1.570419e+001
8.715743e+002,1.593085e+001
8.725386e+002,1.544521e+001
8.735028e+002,1.513528e+001
8.744670e+002,1.502809e+001
8.754313e+002,1.515405e+001
8.763955e+002,1.572206e+001
8.773597e+002,1.700246e+001
8.783240e+002,1.822813e+001
8.792882e+002,1.847459e+001
8.802524e+002,1.857132e+001
8.812167e+002,1.955185e+001
8.821809e+002,2.139572e+001
8.831451e+002,2.302780e+001
8.841094e+002,2.300031e+001
8.850736e+002,2.147682e+001
8.860378e+002,2.115448e+001
8.870021e+002,2.227818e+001
8.879663e+002,2.333942e+001
8.889305e+002,2.321692e+001
8.898948e+002,2.220178e+001
8.908590e+002,2.202774e+001
8.918232e+002,2.369086e+001
8.927875e+002,2.489949e+001
8.937517e+002,2.502440e+001
8.947159e+002,2.467944e+001
8.956802e+002,2.420534e+001
8.966444e+002,2.369817e+001
8.976086e+002,2.315088e+001
8.985729e+002,2.237300e+001
8.995371e+002,2.203050e+001
9.005013e+002,2.338503e+001
9.014656e+002,2.614435e+001
9.024298e+002,2.869681e+001
9.033940e+002,2.974713e+001
9.043583e+002,2.939655e+001
9.053225e+002,2.910941e+001
9.062867e+002,2.882269e+001
9.072510e+002,2.855768e+001
9.082152e+002,2.901813e+001
9.091794e+002,2.925691e+001
9.101437e+002,2.768503e+001
9.111079e+002,2.400656e+001
9.120721e+002,2.156633e+001
9.130364e+002,2.317210e+001
9.140006e+002,2.585233e+001
9.149648e+002,2.898492e+001
9.159291e+002,3.184804e+001
9.168933e+002,3.318086e+001
9.178575e+002,3.209471e+001
9.188218e+002,2.940439e+001
9.197860e+002,2.801967e+001
9.207502e+002,2.787874e+001
9.217145e+002,2.827776e+001
9.226787e+002,2.994482e+001
9.236429e+002,3.154779e+001
9.246072e+002,3.076945e+001
9.255714e+002,2.684851e+001
9.265356e+002,2.418489e+001
9.274999e+002,2.443430e+001
9.284641e+002,2.493976e+001
9.294283e+002,2.502473e+001
9.303926e+002,2.473586e+001
9.313568e+002,2.436702e+001
9.323210e+002,2.406793e+001
9.332853e+002,2.364354e+001
9.342495e+002,2.244460e+001
9.352137e+002,2.095673e+001
9.361780e+002,2.018025e+001
9.371422e+002,2.038196e+001
9.381064e+002,2.086610e+001
9.390707e+002,2.054944e+001
9.400349e+002,1.910843e+001
9.409991e+002,1.840372e+001
9.419634e+002,1.893060e+001
9.429276e+002,1.939980e+001
9.438918e+002,1.936328e+001
9.448561e+002,1.913353e+001
9.458203e+002,1.934038e+001
9.467845e+002,2.028659e+001
9.477488e+002,2.117499e+001
9.487130e+002,2.157822e+001
9.496772e+002,2.151775e+001
9.506415e+002,2.059497e+001
9.516057e+002,1.908459e+001
9.525699e+002,1.800281e+001
9.535342e+002,1.836324e+001
9.544984e+002,1.980258e+001
9.554626e+002,1.911198e+001
9.564269e+002,1.575584e+001
9.573911e+002,1.374567e+001
9.583553e+002,1.521419e+001
9.593196e+002,1.812210e+001
9.602838e+002,1.893388e+001
9.612480e+002,1.686682e+001
9.622123e+002,1.531775e+001
9.631765e+002,1.593530e+001
9.641407e+002,1.666899e+001
9.651050e+002,1.609978e+001
9.660692e+002,1.487704e+001
9.670334e+002,1.481172e+001
9.679977e+002,1.711734e+001
9.689619e+002,2.039973e+001
9.699261e+002,2.114111e+001
9.708904e+002,2.013115e+001
9.718546e+002,1.968790e+001
9.728188e+002,2.028293e+001
9.737831e+002,2.153934e+001
9.747473e+002,2.320184e+001
9.757115e+002,2.551472e+001
9.766758e+002,2.705096e+001
9.776400e+002,2.769820e+001
9.786042e+002,2.785957e+001
9.795685e+002,2.769893e+001
9.805327e+002,2.692303e+001
9.814969e+002,2.505141e+001
9.824612e+002,2.198230e+001
9.834254e+002,1.857990e+001
9.843896e+002,1.514421e+001
9.853539e+002,1.198541e+001
9.863181e+002,9.269928e+000
9.872823e+002,7.119507e+000
9.882466e+002,6.141769e+000
9.892108e+002,6.998367e+000
9.901750e+002,9.456131e+000
9.911393e+002,1.088914e+001
9.921035e+002,1.047299e+001
9.930677e+002,9.759552e+000
9.940320e+002,8.584549e+000
9.949962e+002,7.469635e+000
9.959604e+002,6.840942e+000
9.969247e+002,6.752258e+000
9.978889e+002,7.154495e+000
9.988531e+002,8.418106e+000
9.998174e+002,9.436310e+000
1.000782e+003,9.449860e+000
1.001746e+003,8.976013e+000
1.002710e+003,8.642944e+000
1.003674e+003,8.762878e+000
1.004639e+003,9.407486e+000
1.005603e+003,1.087968e+001
1.006567e+003,1.323909e+001
1.007531e+003,1.342220e+001
1.008495e+003,1.039983e+001
1.009460e+003,7.408783e+000
1.010424e+003,6.582596e+000
1.011388e+003,7.424973e+000
1.012352e+003,7.878448e+000
1.013317e+003,7.586075e+000
1.014281e+003,6.996521e+000
1.015245e+003,5.878296e+000
1.016209e+003,4.826202e+000
1.017174e+003,4.376816e+000
1.018138e+003,4.492538e+000
1.019102e+003,4.792969e+000
1.020066e+003,5.052597e+000
1.021031e+003,5.123566e+000
1.021995e+003,3.956451e+000
1.022959e+003,1.805206e+000
1.023923e+003,7.351227e-001
1.024887e+003,1.797150e+000
1.025852e+003,3.546906e+000
1.026816e+003,3.624130e+000
1.027780e+003,1.680923e+000
1.028744e+003,1.876831e-002
1.029709e+003,-1.571243e+000
1.030673e+003,-2.465561e+000
1.031637e+003,-2.168015e+000
1.032601e+003,-1.227325e+000
1.033566e+003,-2.343292e-001
1.034530e+003,6.077118e-001
1.035494e+003,1.183868e+000
1.036458e+003,1.225830e+000
1.037422e+003,9.119110e-001
1.038387e+003,2.456970e-001
1.039351e+003,-6.256714e-001
1.040315e+003,-5.121613e-001
1.041279e+003,1.754440e+000
1.042244e+003,5.463959e+000
1.043208e+003,6.801788e+000
1.044172e+003,3.547104e+000
1.045136e+003,1.457092e+000
1.046101e+003,1.132462e+000
1.047065e+003,1.516968e+000
1.048029e+003,2.258713e+000
1.048993e+003,3.105988e+000
1.049958e+003,3.550308e+000
1.050922e+003,3.295929e+000
1.051886e+003,2.867325e+000
1.052850e+003,2.742401e+000
1.053814e+003,2.780289e+000
1.054779e+003,2.858673e+000
1.055743e+003,2.909348e+000
1.056707e+003,2.833038e+000
1.057671e+003,2.500839e+000
1.058636e+003,1.893265e+000
1.059600e+003,1.482361e+000
1.060564e+003,1.257431e+000
1.061528e+003,1.432907e+000
1.062493e+003,2.223007e+000
1.063457e+003,3.154572e+000
1.064421e+003,4.013870e+000
1.065385e+003,4.772018e+000
1.066349e+003,4.500229e+000
1.067314e+003,1.200958e+000
1.068278e+003,-1.375381e+000
1.069242e+003,8.301697e-001
1.070206e+003,5.052490e+000
1.071171e+003,6.334015e+000
1.072135e+003,2.857788e+000
1.073099e+003,-2.200470e+000
1.074063e+003,-3.359268e+000
1.075028e+003,-1.224213e-001
1.075992e+003,1.626526e+000
1.076956e+003,1.207794e+000
1.077920e+003,6.315308e-001
1.078885e+003,4.290771e-001
1.079849e+003,7.227478e-001
1.080813e+003,2.142685e+000
1.081777e+003,5.236710e+000
1.082741e+003,6.953278e+000
1.083706e+003,3.583176e+000
1.084670e+003,7.807922e-002
1.085634e+003,-3.790131e-001
1.086598e+003,1.105209e+000
1.087563e+003,1.830399e+000
1.088527e+003,3.922729e-001
1.089491e+003,-1.836441e+000
1.090455e+003,-2.200745e+000
1.091420e+003,-5.058136e-001
1.092384e+003,3.276825e-001
1.093348e+003,-1.102753e-001
1.094312e+003,-7.471313e-001
1.095276e+003,-1.021805e+000
1.096241e+003,-9.220276e-001
1.097205e+003,-3.772430e-001
1.098169e+003,9.920959e-001
1.099133e+003,1.519318e+000
1.100098e+003,-6.099701e-001
1.101062e+003,-2.546112e+000
1.102026e+003,-2.262238e+000
1.102990e+003,-2.612152e-001
1.103955e+003,2.027054e+000
1.104919e+003,3.690781e+000
1.105883e+003,4.530838e+000
1.106847e+003,3.982117e+000
1.107812e+003,1.997284e+000
1.108776e+003,4.088287e-001
1.109740e+003,-6.907349e-001
1.110704e+003,-1.432541e+000
1.111668e+003,-1.673950e+000
1.112633e+003,-1.509598e+000
1.113597e+003,-1.550827e+000
1.114561e+003,-1.868774e+000
1.115525e+003,-2.538315e+000
1.116490e+003,-4.814651e+000
1.117454e+003,-6.297882e+000
1.118418e+003,-4.253922e+000
1.119382e+003,-3.771973e-002
1.120347e+003,2.560760e+000
1.121311e+003,1.167450e+000
1.122275e+003,-2.303329e+000
1.123239e+003,-3.912643e+000
1.124203e+003,-3.629807e+000
1.125168e+003,-2.930298e+000
1.126132e+003,-1.607178e+000
1.127096e+003,-5.972748e-001
1.128060e+003,-9.782257e-001
1.129025e+003,-2.403854e+000
1.129989e+003,-3.067627e+000
1.130953e+003,-2.672668e+000
1.131917e+003,-1.959427e+000
1.132882e+003,-1.067505e+000
1.133846e+003,1.467896e-002
1.134810e+003,1.766876e+000
1.135774e+003,3.673050e+000
1.136739e+003,4.465118e+000
1.137703e+003,3.453766e+000
1.138667e+003,1.825287e+000
1.139631e+003,1.794815e+000
1.140595e+003,3.142258e+000
1.141560e+003,3.544830e+000
1.142524e+003,2.493790e+000
1.143488e+003,2.187485e+000
1.144452e+003,4.752487e+000
1.145417e+003,9.246185e+000
1.146381e+003,1.209856e+001
1.147345e+003,1.250900e+001
1.148309e+003,1.305927e+001
1.149274e+003,1.406021e+001
1.150238e+003,1.574529e+001
1.151202e+003,1.887630e+001
1.152166e+003,2.269760e+001
1.153130e+003,2.592255e+001
1.154095e+003,2.787697e+001
1.155059e+003,2.884811e+001
1.156023e+003,2.941171e+001
1.156987e+003,2.944910e+001
1.157952e+003,2.821039e+001
1.158916e+003,2.565480e+001
1.159880e+003,2.287082e+001
1.160844e+003,1.985774e+001
1.161809e+003,1.693327e+001
1.162773e+003,1.529068e+001
1.163737e+003,1.538658e+001
1.164701e+003,1.474907e+001
1.165666e+003,1.202922e+001
1.166630e+003,9.294006e+000
1.167594e+003,6.748978e+000
1.168558e+003,4.883026e+000
1.169522e+003,4.741730e+000
1.170487e+003,6.301483e+000
1.171451e+003,7.645065e+000
1.172415e+003,6.418289e+000
1.173379e+003,3.341873e+000
1.174344e+003,2.741302e+000
1.175308e+003,4.796158e+000
1.176272e+003,5.995850e+000
1.177236e+003,4.330353e+000
1.178201e+003,1.985352e+000
1.179165e+003,2.139557e+000
1.180129e+003,4.783279e+000
1.181093e+003,6.034912e+000
1.182057e+003,4.239792e+000
1.183022e+003,2.275925e+000
1.183986e+003,9.231720e-001
1.184950e+003,1.449280e-001
1.185914e+003,1.169281e-001
1.186879e+003,6.631012e-001
1.187843e+003,1.302612e+000
1.188807e+003,1.635651e+000
1.189771e+003,1.543671e+000
1.190736e+003,5.005646e-001
1.191700e+003,-1.703003e+000
1.192664e+003,-2.500351e+000
1.193628e+003,-4.094391e-001
1.194593e+003,1.569565e+000
1.195557e+003,9.397888e-001
1.196521e+003,-1.573273e+000
1.197485e+003,-3.395508e+000
1.198449e+003,-4.062439e+000
1.199414e+003,-4.250793e+000
1.200378e+003,-3.984955e+000
1.201342e+003,-3.594070e+000
1.202306e+003,-2.898056e+000
1.203271e+003,-2.356903e+000
1.204235e+003,-3.010178e+000
1.205199e+003,-5.219299e+000
1.206163e+003,-7.831177e+000
1.207128e+003,-8.908066e+000
1.208092e+003,-8.345734e+000
1.209056e+003,-8.002228e+000
1.210020e+003,-8.065598e+000
1.210984e+003,-7.939514e+000
1.211949e+003,-7.125427e+000
1.212913e+003,-6.261627e+000
1.213877e+003,-6.119263e+000
1.214841e+003,-6.730057e+000
1.215806e+003,-7.794540e+000
1.216770e+003,-9.510117e+000
1.217734e+003,-1.121022e+001
1.218698e+003,-1.277692e+001
1.219663e+003,-1.395067e+001
1.220627e+003,-1.433595e+001
1.221591e+003,-1.392033e+001
1.222555e+003,-1.294312e+001
1.223520e+003,-1.157835e+001
1.224484e+003,-1.001521e+001
1.225448e+003,-9.284546e+000
1.226412e+003,-9.795410e+000
1.227376e+003,-1.036352e+001
1.228341e+003,-1.132486e+001
1.229305e+003,-1.201610e+001
1.230269e+003,-1.163107e+001
1.231233e+003,-1.084777e+001
1.232198e+003,-1.131174e+001
1.233162e+003,-1.350804e+001
1.234126e+003,-1.517584e+001
1.235090e+003,-1.424667e+001
1.236055e+003,-1.247997e+001
1.237019e+003,-1.174289e+001
1.237983e+003,-1.180164e+001
1.238947e+003,-1.172578e+001
1.239911e+003,-1.110159e+001
1.240876e+003,-1.059813e+001
1.241840e+003,-1.138686e+001
1.242804e+003,-1.358854e+001
1.243768e+003,-1.477385e+001
1.244733e+003,-1.419051e+001
1.245697e+003,-1.348440e+001
1.246661e+003,-1.268572e+001
1.247625e+003,-1.200206e+001
1.248590e+003,-1.174406e+001
1.249554e+003,-1.164585e+001
1.250518e+003,-1.083022e+001
1.251482e+003,-8.837349e+000
1.252447e+003,-7.100250e+000
1.253411e+003,-7.553619e+000
1.254375e+003,-9.320381e+000
1.255339e+003,-1.076105e+001
1.256303e+003,-1.173930e+001
1.257268e+003,-1.207250e+001
1.258232e+003,-1.159097e+001
1.259196e+003,-1.065074e+001
1.260160e+003,-9.693886e+000
1.261125e+003,-8.527641e+000
1.262089e+003,-8.235291e+000
1.263053e+003,-1.054483e+001
1.264017e+003,-1.181417e+001
1.264982e+003,-1.008458e+001
1.265946e+003,-7.716599e+000
1.266910e+003,-6.883698e+000
1.267874e+003,-7.701149e+000
1.268839e+003,-9.145744e+000
1.269803e+003,-1.055390e+001
1.270767e+003,-1.173327e+001
1.271731e+003,-1.230637e+001
1.272695e+003,-1.220324e+001
1.273660e+003,-1.154933e+001
1.274624e+003,-1.018369e+001
1.275588e+003,-8.985565e+000
1.276552e+003,-8.261566e+000
1.277517e+003,-7.974640e+000
1.278481e+003,-8.304314e+000
1.279445e+003,-9.348724e+000
1.280409e+003,-1.001006e+001
1.281374e+003,-9.380226e+000
1.282338e+003,-9.038277e+000
1.283302e+003,-1.018960e+001
1.284266e+003,-1.182087e+001
1.285230e+003,-1.276149e+001
1.286195e+003,-1.287846e+001
1.287159e+003,-1.283907e+001
1.288123e+003,-1.316489e+001
1.289087e+003,-1.356660e+001
1.290052e+003,-1.325768e+001
1.291016e+003,-1.202383e+001
1.291980e+003,-1.096890e+001
1.292944e+003,-1.000596e+001
1.293909e+003,-9.418800e+000
1.294873e+003,-9.373543e+000
1.295837e+003,-9.635788e+000
1.296801e+003,-9.949265e+000
1.297766e+003,-1.026740e+001
1.298730e+003,-1.067345e+001
1.299694e+003,-1.141341e+001
1.300658e+003,-1.196552e+001
1.301622e+003,-1.142773e+001
1.302587e+003,-1.040805e+001
1.303551e+003,-9.985214e+000
1.304515e+003,-1.027773e+001
1.305479e+003,-1.049294e+001
1.306444e+003,-9.969650e+000
1.307408e+003,-9.027283e+000
1.308372e+003,-8.669807e+000
1.309336e+003,-9.051956e+000
1.310301e+003,-9.574440e+000
1.311265e+003,-1.068378e+001
1.312229e+003,-1.126313e+001
1.313193e+003,-1.062530e+001
1.314157e+003,-9.554970e+000
1.315122e+003,-8.780685e+000
1.316086e+003,-8.477364e+000
1.317050e+003,-8.571800e+000
1.318014e+003,-9.026405e+000
1.318979e+003,-9.489120e+000
1.319943e+003,-9.263115e+000
1.320907e+003,-8.432335e+000
1.321871e+003,-8.050087e+000
1.322836e+003,-8.323135e+000
1.323800e+003,-8.750450e+000
1.324764e+003,-9.263138e+000
1.325728e+003,-9.641609e+000
1.326693e+003,-9.257309e+000
1.327657e+003,-8.104889e+000
1.328621e+003,-7.981155e+000
1.329585e+003,-1.011812e+001
1.330549e+003,-1.170176e+001
1.331514e+003,-1.089723e+001
1.332478e+003,-9.508522e+000
1.333442e+003,-9.366074e+000
1.334406e+003,-1.027061e+001
1.335371e+003,-1.079920e+001
1.336335e+003,-1.009617e+001
1.337299e+003,-8.684319e+000
1.338263e+003,-7.527054e+000
1.339228e+003,-6.580101e+000
1.340192e+003,-6.299400e+000
1.341156e+003,-7.092049e+000
1.342120e+003,-7.904617e+000
1.343084e+003,-8.783615e+000
1.344049e+003,-9.568016e+000
1.345013e+003,-1.000542e+001
1.345977e+003,-1.014877e+001
1.346941e+003,-1.040079e+001
1.347906e+003,-1.095049e+001
1.348870e+003,-1.100077e+001
1.349834e+003,-9.394142e+000
1.350798e+003,-7.175766e+000
1.351763e+003,-6.296730e+000
1.352727e+003,-6.578011e+000
1.353691e+003,-7.014519e+000
1.354655e+003,-7.267151e+000
1.355620e+003,-7.444298e+000
1.356584e+003,-7.681183e+000
1.357548e+003,-7.941696e+000
1.358512e+003,-8.027832e+000
1.359476e+003,-7.803345e+000
1.360441e+003,-7.967506e+000
1.361405e+003,-9.520180e+000
1.362369e+003,-1.054335e+001
1.363333e+003,-9.427834e+000
1.364298e+003,-7.498573e+000
1.365262e+003,-6.716690e+000
1.366226e+003,-7.473991e+000
1.367190e+003,-8.761284e+000
1.368155e+003,-9.708481e+000
1.369119e+003,-1.011242e+001
1.370083e+003,-9.201118e+000
1.371047e+003,-6.346115e+000
1.372011e+003,-4.773476e+000
1.372976e+003,-5.663177e+000
1.373940e+003,-6.349396e+000
1.374904e+003,-5.373009e+000
1.375868e+003,-3.917496e+000
1.376833e+003,-3.585030e+000
1.377797e+003,-4.413742e+000
1.378761e+003,-5.286392e+000
1.379725e+003,-5.706192e+000
1.380690e+003,-6.077019e+000
1.381654e+003,-7.404579e+000
1.382618e+003,-8.596725e+000
1.383582e+003,-7.359428e+000
1.384547e+003,-4.089531e+000
1.385511e+003,-2.390160e+000
1.386475e+003,-4.405922e+000
1.387439e+003,-7.769821e+000
1.388403e+003,-8.848297e+000
1.389368e+003,-7.653374e+000
1.390332e+003,-6.367920e+000
1.391296e+003,-4.395325e+000
1.392260e+003,-3.624611e+000
1.393225e+003,-5.307503e+000
1.394189e+003,-7.286644e+000
1.395153e+003,-8.922310e+000
1.396117e+003,-9.783089e+000
1.397082e+003,-8.877167e+000
1.398046e+003,-6.403160e+000
1.399010e+003,-4.501808e+000
1.399974e+003,-5.222786e+000
1.400938e+003,-7.618271e+000
1.401903e+003,-8.481750e+000
1.402867e+003,-7.223137e+000
1.403831e+003,-6.066132e+000
1.404795e+003,-5.185951e+000
1.405760e+003,-4.315788e+000
1.406724e+003,-3.078163e+000
1.407688e+003,-2.212578e+000
1.408652e+003,-2.841003e+000
1.409617e+003,-4.610558e+000
1.410581e+003,-5.664436e+000
1.411545e+003,-5.180901e+000
1.412509e+003,-4.330284e+000
1.413474e+003,-4.242111e+000
1.414438e+003,-4.606285e+000
1.415402e+003,-4.658989e+000
1.416366e+003,-4.442657e+000
1.417330e+003,-4.805862e+000
1.418295e+003,-6.335396e+000
1.419259e+003,-7.570755e+000
1.420223e+003,-6.310684e+000
1.421187e+003,-3.143463e+000
1.422152e+003,-1.653542e+000
1.423116e+003,-2.306847e+000
1.424080e+003,-3.112190e+000
1.425044e+003,-4.306297e+000
1.426009e+003,-4.817406e+000
1.426973e+003,-3.384552e+000
1.427937e+003,-1.501953e+000
1.428901e+003,-1.064575e+000
1.429865e+003,-2.055626e+000
1.430830e+003,-3.087189e+000
1.431794e+003,-3.263199e+000
1.432758e+003,-2.975220e+000
1.433722e+003,-2.926102e+000
1.434687e+003,-3.070786e+000
1.435651e+003,-2.809265e+000
1.436615e+003,-1.705940e+000
1.437579e+003,-1.281364e+000
1.438544e+003,-2.193909e+000
1.439508e+003,-3.228050e+000
1.440472e+003,-3.395294e+000
1.441436e+003,-3.071136e+000
1.442401e+003,-3.337944e+000
1.443365e+003,-4.366150e+000
1.444329e+003,-4.780373e+000
1.445293e+003,-3.332191e+000
1.446257e+003,-1.276810e+000
1.447222e+003,-1.411072e+000
1.448186e+003,-3.212234e+000
1.449150e+003,-3.581970e+000
1.450114e+003,-1.857086e+000
1.451079e+003,-4.404221e-001
1.452043e+003,-9.925308e-001
1.453007e+003,-2.140678e+000
1.453971e+003,-1.646851e+000
1.454936e+003,1.359177e-001
1.455900e+003,3.027954e-001
1.456864e+003,-2.288918e+000
1.457828e+003,-4.507660e+000
1.458792e+003,-4.467163e+000
1.459757e+003,-3.426407e+000
1.460721e+003,-1.578934e+000
1.461685e+003,2.561111e-001
1.462649e+003,1.479340e-001
1.463614e+003,-2.144920e+000
1.464578e+003,-3.994972e+000
1.465542e+003,-2.888153e+000
1.466506e+003,-1.120529e-001
1.467471e+003,3.874054e-001
1.468435e+003,-1.983521e+000
1.469399e+003,-3.239433e+000
1.470363e+003,-2.302254e+000
1.471328e+003,-1.619072e+000
1.472292e+003,-2.249596e+000
1.473256e+003,-2.936554e+000
1.474220e+003,-2.463089e+000
1.475184e+003,-1.283112e+000
1.476149e+003,-5.103531e-001
1.477113e+003,-5.391541e-001
1.478077e+003,-8.859177e-001
1.479041e+003,-1.039635e+000
1.480006e+003,-1.027092e+000
1.480970e+003,-1.083420e+000
1.481934e+003,-1.402031e+000
1.482898e+003,-1.202530e+000
1.483863e+003,2.050629e-001
1.484827e+003,1.073196e+000
1.485791e+003,3.977127e-001
1.486755e+003,-4.307709e-001
1.487719e+003,4.972076e-002
1.488684e+003,1.382553e+000
1.489648e+003,1.958786e+000
1.490612e+003,1.334747e+000
1.491576e+003,1.124054e+000
1.492541e+003,2.905525e+000
1.493505e+003,5.418648e+000
1.494469e+003,5.623344e+000
1.495433e+003,3.878189e+000
1.496398e+003,2.740028e+000
1.497362e+003,2.752953e+000
1.498326e+003,2.924393e+000
1.499290e+003,2.450089e+000
1.500255e+003,2.032333e+000
1.501219e+003,2.726875e+000
1.502183e+003,4.369080e+000
1.503147e+003,5.913048e+000
1.504111e+003,7.040947e+000
1.505076e+003,8.551003e+000
1.506040e+003,1.125924e+001
1.507004e+003,1.421597e+001
1.507968e+003,1.649976e+001
1.508933e+003,1.830833e+001
1.509897e+003,2.011052e+001
1.510861e+003,2.206667e+001
1.511825e+003,2.381856e+001
1.512790e+003,2.481013e+001
1.513754e+003,2.576099e+001
1.514718e+003,2.834943e+001
1.515682e+003,3.251414e+001
1.516646e+003,3.630930e+001
1.517611e+003,3.992709e+001
1.518575e+003,4.255344e+001
1.519539e+003,4.287785e+001
1.520503e+003,4.336681e+001
1.521468e+003,4.611246e+001
1.522432e+003,4.934618e+001
1.523396e+003,5.075142e+001
1.524360e+003,4.990268e+001
1.525325e+003,4.731245e+001
1.526289e+003,4.334384e+001
1.527253e+003,3.920757e+001
1.528217e+003,3.719100e+001
1.529182e+003,3.737957e+001
1.530146e+003,3.632044e+001
1.531110e+003,3.326350e+001
1.532074e+003,3.023765e+001
1.533039e+003,2.759241e+001
1.534003e+003,2.451849e+001
1.534967e+003,2.037074e+001
1.535931e+003,1.603761e+001
1.536896e+003,1.206287e+001
1.537860e+003,8.902039e+000
1.538824e+003,7.577278e+000
1.539788e+003,8.432549e+000
1.540752e+003,9.576653e+000
1.541717e+003,8.536797e+000
1.542681e+003,5.767754e+000
1.543645e+003,4.009926e+000
1.544609e+003,3.841713e+000
1.545573e+003,3.432625e+000
1.546538e+003,1.621269e+000
1.547502e+003,9.132004e-001
1.548466e+003,3.451576e+000
1.549430e+003,6.679008e+000
1.550395e+003,7.828339e+000
1.551359e+003,7.227547e+000
1.552323e+003,6.650787e+000
1.553287e+003,6.762039e+000
1.554252e+003,7.320671e+000
1.555216e+003,8.311440e+000
1.556180e+003,9.033852e+000
1.557144e+003,7.400253e+000
1.558109e+003,3.351646e+000
1.559073e+003,1.344223e+000
1.560037e+003,2.153046e+000
1.561001e+003,3.354851e+000
1.561966e+003,4.676666e+000
1.562930e+003,5.752853e+000
1.563894e+003,6.095985e+000
1.564858e+003,5.884239e+000
1.565823e+003,5.399399e+000
1.566787e+003,4.758736e+000
1.567751e+003,4.981285e+000
1.568715e+003,7.102486e+000
1.569679e+003,8.963135e+000
1.570644e+003,6.831528e+000
1.571608e+003,2.524284e+000
1.572572e+003,1.711647e+000
1.573536e+003,4.667770e+000
1.574500e+003,7.467186e+000
1.575465e+003,8.958649e+000
1.576429e+003,9.681267e+000
1.577393e+003,9.865288e+000
1.578357e+003,9.601753e+000
1.579322e+003,8.908119e+000
1.580286e+003,7.889282e+000
1.581250e+003,7.425583e+000
1.582214e+003,7.851677e+000
1.583179e+003,8.638077e+000
1.584143e+003,9.717758e+000
1.585107e+003,1.058295e+001
1.586071e+003,1.052203e+001
1.587036e+003,9.864227e+000
1.588000e+003,9.462334e+000
1.588964e+003,9.474358e+000
1.589928e+003,9.293983e+000
1.590893e+003,8.286201e+000
1.591857e+003,7.116898e+000
1.592821e+003,6.893425e+000
1.593785e+003,7.464317e+000
1.594750e+003,7.815399e+000
1.595714e+003,7.723946e+000
1.596678e+003,7.892853e+000
1.597642e+003,8.768112e+000
1.598606e+003,9.765427e+000
1.599571e+003,1.037015e+001
1.600535e+003,1.087910e+001
1.601499e+003,1.165153e+001
1.602463e+003,1.267930e+001
1.603427e+003,1.380941e+001
1.604392e+003,1.500716e+001
1.605356e+003,1.616006e+001
1.606320e+003,1.740337e+001
1.607284e+003,1.844781e+001
1.608249e+003,1.816846e+001
1.609213e+003,1.650031e+001
1.610177e+003,1.568256e+001
1.611141e+003,1.644844e+001
1.612106e+003,1.717662e+001
1.613070e+003,1.723421e+001
1.614034e+003,1.679659e+001
1.614998e+003,1.542168e+001
1.615963e+003,1.386813e+001
1.616927e+003,1.357745e+001
1.617891e+003,1.459000e+001
1.618855e+003,1.544756e+001
1.619820e+003,1.520042e+001
1.620784e+003,1.463933e+001
1.621748e+003,1.503630e+001
1.622712e+003,1.632700e+001
1.623677e+003,1.765533e+001
1.624641e+003,1.912144e+001
1.625605e+003,2.002743e+001
1.626569e+003,1.985635e+001
1.627533e+003,1.935592e+001
1.628498e+003,1.865722e+001
1.629462e+003,1.815797e+001
1.630426e+003,1.868424e+001
1.631390e+003,1.951811e+001
1.632354e+003,1.869997e+001
1.633319e+003,1.600797e+001
1.634283e+003,1.404689e+001
1.635247e+003,1.485564e+001
1.636211e+003,1.709155e+001
1.637176e+003,1.852105e+001
1.638140e+003,1.920269e+001
1.639104e+003,1.976566e+001
1.640068e+003,2.046618e+001
1.641033e+003,1.990047e+001
1.641997e+003,1.617513e+001
1.642961e+003,1.340342e+001
1.643925e+003,1.428288e+001
1.644890e+003,1.642809e+001
1.645854e+003,1.780122e+001
1.646818e+003,1.830913e+001
1.647782e+003,1.834724e+001
1.648747e+003,1.807066e+001
1.649711e+003,1.767422e+001
1.650675e+003,1.735651e+001
1.651639e+003,1.706583e+001
1.652604e+003,1.640231e+001
1.653568e+003,1.537519e+001
1.654532e+003,1.553236e+001
1.655496e+003,1.747305e+001
1.656460e+003,1.871689e+001
1.657425e+003,1.806627e+001
1.658389e+003,1.727670e+001
1.659353e+003,1.743678e+001
1.660317e+003,1.784299e+001
1.661281e+003,1.772630e+001
1.662246e+003,1.714527e+001
1.663210e+003,1.643981e+001
1.664174e+003,1.577079e+001
1.665138e+003,1.560271e+001
1.666103e+003,1.671684e+001
1.667067e+003,1.786039e+001
1.668031e+003,1.565804e+001
1.668995e+003,1.053835e+001
1.669960e+003,9.016335e+000
1.670924e+003,1.267631e+001
1.671888e+003,1.517558e+001
1.672852e+003,1.362971e+001
1.673817e+003,1.175994e+001
1.674781e+003,1.232050e+001
1.675745e+003,1.351530e+001
1.676709e+003,1.320639e+001
1.677674e+003,1.175499e+001
1.678638e+003,1.077396e+001
1.679602e+003,1.076949e+001
1.680566e+003,1.108548e+001
1.681531e+003,1.127878e+001
1.682495e+003,1.149165e+001
1.683459e+003,1.196534e+001
1.684423e+003,1.260830e+001
1.685387e+003,1.319012e+001
1.686352e+003,1.380544e+001
1.687316e+003,1.348454e+001
1.688280e+003,1.134373e+001
1.689244e+003,9.269676e+000
1.690208e+003,8.663452e+000
1.691173e+003,8.846375e+000
1.692137e+003,9.434769e+000
1.693101e+003,1.025045e+001
1.694065e+003,1.071700e+001
1.695030e+003,1.063579e+001
1.695994e+003,1.028838e+001
1.696958e+003,9.803093e+000
1.697922e+003,9.261436e+000
1.698887e+003,8.676758e+000
1.699851e+003,8.142693e+000
1.700815e+003,8.033684e+000
1.701779e+003,8.332100e+000
1.702744e+003,8.136421e+000
1.703708e+003,7.099197e+000
1.704672e+003,6.035873e+000
1.705636e+003,5.300537e+000
1.706601e+003,4.956406e+000
1.707565e+003,5.545082e+000
1.708529e+003,6.696373e+000
1.709493e+003,7.023491e+000
1.710458e+003,6.289200e+000
1.711422e+003,5.400230e+000
1.712386e+003,4.337601e+000
1.713350e+003,3.805122e+000
1.714314e+003,4.892754e+000
1.715279e+003,6.471970e+000
1.716243e+003,6.393211e+000
1.717207e+003,4.955299e+000
1.718171e+003,4.483299e+000
1.719135e+003,5.630615e+000
1.720100e+003,6.508759e+000
1.721064e+003,5.696648e+000
1.722028e+003,4.423569e+000
1.722992e+003,4.688766e+000
1.723957e+003,6.144493e+000
1.724921e+003,6.271278e+000
1.725885e+003,4.649902e+000
1.726849e+003,3.825294e+000
1.727814e+003,4.932686e+000
1.728778e+003,6.103050e+000
1.729742e+003,6.797348e+000
1.730706e+003,6.923653e+000
1.731671e+003,5.888512e+000
1.732635e+003,4.302391e+000
1.733599e+003,3.645821e+000
1.734563e+003,4.072662e+000
1.735528e+003,4.333679e+000
1.736492e+003,3.743233e+000
1.737456e+003,2.988945e+000
1.738420e+003,2.879524e+000
1.739385e+003,3.232513e+000
1.740349e+003,3.539436e+000
1.741313e+003,3.796898e+000
1.742277e+003,4.238678e+000
1.743241e+003,5.290459e+000
1.744206e+003,5.945030e+000
1.745170e+003,6.057320e+000
1.746134e+003,5.702736e+000
1.747098e+003,4.197266e+000
1.748063e+003,2.776543e+000
1.749027e+003,3.253647e+000
1.749991e+003,5.031212e+000
1.750955e+003,6.148094e+000
1.751919e+003,5.917336e+000
1.752884e+003,4.991890e+000
1.753848e+003,3.891411e+000
1.754812e+003,2.989998e+000
1.755776e+003,3.237282e+000
1.756741e+003,4.613739e+000
1.757705e+003,4.713043e+000
1.758669e+003,2.846550e+000
1.759633e+003,1.600861e+000
1.760598e+003,1.659409e+000
1.761562e+003,1.675270e+000
1.762526e+003,1.062912e+000
1.763490e+003,5.603485e-001
1.764455e+003,7.060547e-001
1.765419e+003,1.317696e+000
1.766383e+003,2.141624e+000
1.767347e+003,3.024361e+000
1.768312e+003,3.841049e+000
1.769276e+003,4.529259e+000
1.770240e+003,4.660591e+000
1.771204e+003,3.493546e+000
1.772168e+003,1.907799e+000
1.773133e+003,2.144402e+000
1.774097e+003,3.942825e+000
1.775061e+003,4.613823e+000
1.776025e+003,3.730957e+000
1.776990e+003,2.468124e+000
1.777954e+003,9.134140e-001
1.778918e+003,-9.468842e-002
1.779882e+003,1.825104e-001
1.780846e+003,1.153816e+000
1.781811e+003,2.363808e+000
1.782775e+003,3.610703e+000
1.783739e+003,4.092636e+000
1.784703e+003,3.651535e+000
1.785668e+003,3.215523e+000
1.786632e+003,2.869614e+000
1.787596e+003,2.905914e+000
1.788560e+003,4.133232e+000
1.789525e+003,5.593239e+000
1.790489e+003,5.687202e+000
1.791453e+003,4.732193e+000
1.792417e+003,4.165962e+000
1.793382e+003,4.235535e+000
1.794346e+003,3.740913e+000
1.795310e+003,1.941689e+000
1.796274e+003,5.916901e-001
1.797239e+003,1.966316e+000
1.798203e+003,5.004990e+000
1.799167e+003,6.026657e+000
1.800131e+003,4.512802e+000
1.801095e+003,3.708694e+000
1.802060e+003,3.989784e+000
1.803024e+003,4.520233e+000
1.803988e+003,5.530098e+000
1.804952e+003,6.315811e+000
1.805917e+003,6.595345e+000
1.806881e+003,6.446098e+000
1.807845e+003,5.781761e+000
1.808809e+003,4.880020e+000
1.809773e+003,3.983093e+000
1.810738e+003,3.324043e+000
1.811702e+003,3.599518e+000
1.812666e+003,5.200508e+000
1.813630e+003,6.943550e+000
1.814595e+003,7.227829e+000
1.815559e+003,6.321945e+000
1.816523e+003,5.221062e+000
1.817487e+003,3.867966e+000
1.818452e+003,3.202362e+000
1.819416e+003,3.471336e+000
1.820380e+003,4.007599e+000
1.821344e+003,4.950356e+000
1.822309e+003,5.553123e+000
1.823273e+003,5.011841e+000
1.824237e+003,4.300957e+000
1.825201e+003,4.536560e+000
1.826166e+003,5.359566e+000
1.827130e+003,5.748001e+000
1.828094e+003,5.508102e+000
1.829058e+003,5.089684e+000
1.830022e+003,4.663742e+000
1.830987e+003,4.302612e+000
1.831951e+003,4.005875e+000
1.832915e+003,3.855682e+000
1.833879e+003,4.227516e+000
1.834844e+003,4.804962e+000
1.835808e+003,4.362015e+000
1.836772e+003,2.898354e+000
1.837736e+003,2.158951e+000
1.838700e+003,2.893097e+000
1.839665e+003,4.185905e+000
1.840629e+003,5.372482e+000
1.841593e+003,6.183594e+000
1.842557e+003,5.910774e+000
1.843522e+003,4.571808e+000
1.844486e+003,3.665878e+000
1.845450e+003,3.603577e+000
1.846414e+003,3.319069e+000
1.847379e+003,2.235977e+000
1.848343e+003,1.558029e+000
1.849307e+003,1.775230e+000
1.850271e+003,2.427094e+000
1.851236e+003,3.335762e+000
1.852200e+003,4.408501e+000
1.853164e+003,5.768814e+000
1.854128e+003,7.107948e+000
1.855093e+003,7.652046e+000
1.856057e+003,7.223801e+000
1.857021e+003,6.565384e+000
1.857985e+003,6.241997e+000
1.858949e+003,6.118637e+000
1.859914e+003,5.996826e+000
1.860878e+003,5.900055e+000
1.861842e+003,5.813614e+000
1.862806e+003,5.711929e+000
1.863771e+003,6.081543e+000
1.864735e+003,7.142288e+000
1.865699e+003,7.944748e+000
1.866663e+003,8.130348e+000
1.867627e+003,7.918221e+000
1.868592e+003,7.154121e+000
1.869556e+003,6.237068e+000
1.870520e+003,6.181770e+000
1.871484e+003,6.808723e+000
1.872449e+003,6.891174e+000
1.873413e+003,6.269470e+000
1.874377e+003,5.872360e+000
1.875341e+003,5.736839e+000
1.876306e+003,5.915955e+000
1.877270e+003,6.650856e+000
1.878234e+003,7.490166e+000
1.879198e+003,8.233345e+000
1.880163e+003,8.653999e+000
1.881127e+003,8.174965e+000
1.882091e+003,7.032440e+000
1.883055e+003,6.281113e+000
1.884020e+003,6.344719e+000
1.884984e+003,6.730469e+000
1.885948e+003,6.996780e+000
1.886912e+003,7.250565e+000
1.887876e+003,7.806770e+000
1.888841e+003,8.585732e+000
1.889805e+003,8.265923e+000
1.890769e+003,6.400810e+000
1.891733e+003,5.976807e+000
1.892698e+003,7.956566e+000
1.893662e+003,9.626793e+000
1.894626e+003,1.020152e+001
1.895590e+003,1.006625e+001
1.896554e+003,8.819466e+000
1.897519e+003,7.546791e+000
1.898483e+003,7.801399e+000
1.899447e+003,9.089661e+000
1.900411e+003,9.687157e+000
1.901376e+003,9.298958e+000
1.902340e+003,8.910606e+000
1.903304e+003,8.938606e+000
1.904268e+003,8.959679e+000
1.905233e+003,8.413330e+000
1.906197e+003,8.059395e+000
1.907161e+003,9.025360e+000
1.908125e+003,1.060890e+001
1.909090e+003,1.174165e+001
1.910054e+003,1.207346e+001
1.911018e+003,1.089529e+001
1.911982e+003,8.310898e+000
1.912947e+003,6.517075e+000
1.913911e+003,7.105591e+000
1.914875e+003,8.932541e+000
1.915839e+003,1.030014e+001
1.916803e+003,1.113151e+001
1.917768e+003,1.113062e+001
1.918732e+003,1.016224e+001
1.919696e+003,9.433395e+000
1.920660e+003,8.810974e+000
1.921625e+003,9.035957e+000
1.922589e+003,1.111605e+001
1.923553e+003,1.261823e+001
1.924517e+003,1.153641e+001
1.925481e+003,9.976173e+000
1.926446e+003,9.762634e+000
1.927410e+003,1.042371e+001
1.928374e+003,1.108801e+001
1.929338e+003,1.161760e+001
1.930303e+003,1.183891e+001
1.931267e+003,1.173603e+001
1.932231e+003,1.150430e+001
1.933195e+003,1.103258e+001
1.934160e+003,1.057542e+001
1.935124e+003,1.007307e+001
1.936088e+003,9.855682e+000
1.937052e+003,1.067515e+001
1.938017e+003,1.205486e+001
1.938981e+003,1.288235e+001
1.939945e+003,1.299844e+001
1.940909e+003,1.291167e+001
1.941874e+003,1.285179e+001
1.942838e+003,1.271449e+001
1.943802e+003,1.246639e+001
1.944766e+003,1.188947e+001
1.945730e+003,1.002802e+001
1.946695e+003,7.276588e+000
1.947659e+003,7.715401e+000
1.948623e+003,1.174753e+001
1.949587e+003,1.419016e+001
1.950552e+003,1.432236e+001
1.951516e+003,1.365607e+001
1.952480e+003,1.231588e+001
1.953444e+003,1.104515e+001
1.954408e+003,1.007594e+001
1.955373e+003,9.681892e+000
1.956337e+003,1.087217e+001
1.957301e+003,1.304366e+001
1.958265e+003,1.364129e+001
1.959230e+003,1.234164e+001
1.960194e+003,1.185088e+001
1.961158e+003,1.350783e+001
1.962122e+003,1.433917e+001
1.963087e+003,1.299374e+001
1.964051e+003,1.137955e+001
1.965015e+003,1.010610e+001
1.965979e+003,9.612358e+000
1.966944e+003,1.089491e+001
1.967908e+003,1.284050e+001
1.968872e+003,1.345858e+001
1.969836e+003,1.265791e+001
1.970801e+003,1.163407e+001
1.971765e+003,1.096114e+001
1.972729e+003,1.084776e+001
1.973693e+003,1.157702e+001
1.974657e+003,1.261160e+001
1.975622e+003,1.309871e+001
1.976586e+003,1.323988e+001
1.977550e+003,1.371201e+001
1.978514e+003,1.445271e+001
1.979479e+003,1.497559e+001
1.980443e+003,1.518415e+001
1.981407e+003,1.488363e+001
1.982371e+003,1.397784e+001
1.983335e+003,1.348698e+001
1.984300e+003,1.427000e+001
1.985264e+003,1.520094e+001
1.986228e+003,1.445103e+001
1.987192e+003,1.250818e+001
1.988157e+003,1.197652e+001
1.989121e+003,1.323461e+001
1.990085e+003,1.407011e+001
1.991049e+003,1.436417e+001
1.992014e+003,1.453785e+001
1.992978e+003,1.453913e+001
1.993942e+003,1.450083e+001
1.994906e+003,1.413200e+001
1.995871e+003,1.408365e+001
1.996835e+003,1.542744e+001
1.997799e+003,1.707549e+001
1.998763e+003,1.715363e+001
1.999728e+003,1.594196e+001
