5.003444e+002,3.693066e+001
5.013087e+002,3.879141e+001
5.022729e+002,4.053911e+001
5.032371e+002,4.174448e+001
5.042014e+002,4.079883e+001
5.051656e+002,3.807805e+001
5.061298e+002,3.522552e+001
5.070941e+002,3.366115e+001
5.080583e+002,3.349049e+001
5.090225e+002,3.397086e+001
5.099868e+002,3.585735e+001
5.109510e+002,3.740836e+001
5.119152e+002,3.759526e+001
5.128795e+002,3.630562e+001
5.138437e+002,3.501102e+001
5.148079e+002,3.382385e+001
5.157722e+002,3.312648e+001
5.167364e+002,3.364944e+001
5.177006e+002,3.506261e+001
5.186649e+002,3.589310e+001
5.196291e+002,3.367419e+001
5.205933e+002,3.046303e+001
5.215576e+002,2.825182e+001
5.225218e+002,2.726750e+001
5.234860e+002,2.723465e+001
5.244503e+002,2.779457e+001
5.254145e+002,2.933038e+001
5.263787e+002,3.037624e+001
5.273430e+002,3.103871e+001
5.283072e+002,3.116014e+001
5.292714e+002,3.029056e+001
5.302357e+002,2.743355e+001
5.311999e+002,2.547908e+001
5.321641e+002,2.516975e+001
5.331284e+002,2.558910e+001
5.340926e+002,2.621646e+001
5.350568e+002,2.686537e+001
5.360211e+002,2.697208e+001
5.369853e+002,2.596141e+001
5.379495e+002,2.447108e+001
5.389138e+002,2.255859e+001
5.398780e+002,2.042604e+001
5.408422e+002,1.865182e+001
5.418065e+002,1.936375e+001
5.427707e+002,2.216531e+001
5.437349e+002,2.449005e+001
5.446992e+002,2.573831e+001
5.456634e+002,2.599345e+001
5.466276e+002,2.557471e+001
5.475919e+002,2.367612e+001
5.485561e+002,2.210849e+001
5.495203e+002,2.090012e+001
5.504846e+002,1.999847e+001
5.514488e+002,1.920512e+001
5.524130e+002,1.809143e+001
5.533773e+002,1.824973e+001
5.543415e+002,2.208293e+001
5.553057e+002,2.650169e+001
5.562700e+002,2.777533e+001
5.572342e+002,2.365218e+001
5.581984e+002,1.714873e+001
5.591627e+002,1.596312e+001
5.601269e+002,1.823814e+001
5.610911e+002,2.044693e+001
5.620554e+002,2.078517e+001
5.630196e+002,1.940134e+001
5.639838e+002,1.788103e+001
5.649481e+002,1.569211e+001
5.659123e+002,1.413634e+001
5.668765e+002,1.402066e+001
5.678408e+002,1.484198e+001
5.688050e+002,1.496143e+001
5.697692e+002,1.300336e+001
5.707335e+002,1.141388e+001
5.716977e+002,1.122482e+001
5.726619e+002,1.179489e+001
5.736262e+002,1.223007e+001
5.745904e+002,1.192314e+001
5.755546e+002,1.136751e+001
5.765189e+002,1.122958e+001
5.774831e+002,1.133003e+001
5.784473e+002,1.149779e+001
5.794116e+002,1.165141e+001
5.803758e+002,1.184787e+001
5.813400e+002,1.209131e+001
5.823043e+002,1.231834e+001
5.832685e+002,1.241995e+001
5.842327e+002,1.247078e+001
5.851970e+002,1.250317e+001
5.861612e+002,1.236392e+001
5.871254e+002,1.159982e+001
5.880897e+002,1.100830e+001
5.890539e+002,1.083144e+001
5.900181e+002,1.086476e+001
5.909824e+002,1.077164e+001
5.919466e+002,1.033687e+001
5.929108e+002,9.808472e+000
5.938751e+002,9.508957e+000
5.948393e+002,9.302216e+000
5.958035e+002,8.907990e+000
5.967678e+002,8.141449e+000
5.977320e+002,7.171585e+000
5.986962e+002,7.223312e+000
5.996605e+002,8.177719e+000
6.006247e+002,9.121902e+000
6.015889e+002,9.822891e+000
6.025532e+002,1.026485e+001
6.035174e+002,1.012825e+001
6.044816e+002,8.492065e+000
6.054459e+002,7.277832e+000
6.064101e+002,6.915726e+000
6.073743e+002,7.129913e+000
6.083386e+002,7.492111e+000
6.093028e+002,8.079117e+000
6.102670e+002,8.152359e+000
6.112313e+002,6.637787e+000
6.121955e+002,4.554810e+000
6.131597e+002,3.200851e+000
6.141240e+002,3.463654e+000
6.150882e+002,5.013763e+000
6.160524e+002,7.138763e+000
6.170167e+002,9.756653e+000
6.179809e+002,1.104593e+001
6.189451e+002,9.575333e+000
6.199094e+002,5.852936e+000
6.208736e+002,4.120377e+000
6.218378e+002,6.589249e+000
6.228021e+002,8.878006e+000
6.237663e+002,1.116942e+001
6.247305e+002,1.295174e+001
6.256948e+002,1.325078e+001
6.266590e+002,1.096527e+001
6.276232e+002,8.536545e+000
6.285875e+002,7.442230e+000
6.295517e+002,7.164581e+000
6.305159e+002,7.273544e+000
6.314802e+002,7.473373e+000
6.324444e+002,7.639877e+000
6.334086e+002,7.429581e+000
6.343729e+002,7.033035e+000
6.353371e+002,6.831070e+000
6.363013e+002,6.984955e+000
6.372656e+002,7.320633e+000
6.382298e+002,7.278931e+000
6.391940e+002,6.525681e+000
6.401583e+002,5.711197e+000
6.411225e+002,4.788803e+000
6.420867e+002,3.998123e+000
6.430510e+002,3.602844e+000
6.440152e+002,3.707932e+000
6.449794e+002,3.818756e+000
6.459437e+002,3.647476e+000
6.469079e+002,3.401230e+000
6.478721e+002,3.372742e+000
6.488364e+002,3.617447e+000
6.498006e+002,3.785126e+000
6.507648e+002,2.903580e+000
6.517291e+002,1.445511e+000
6.526933e+002,7.214661e-001
6.536575e+002,1.000595e+000
6.546218e+002,1.795609e+000
6.555860e+002,2.167282e+000
6.565502e+002,1.788513e+000
6.575145e+002,1.642029e+000
6.584787e+002,1.901260e+000
6.594429e+002,2.232986e+000
6.604072e+002,2.310715e+000
6.613714e+002,2.049805e+000
6.623356e+002,2.004944e+000
6.632999e+002,2.535721e+000
6.642641e+002,3.161285e+000
6.652283e+002,3.722641e+000
6.661926e+002,4.217133e+000
6.671568e+002,4.797211e+000
6.681210e+002,5.786621e+000
6.690853e+002,6.676697e+000
6.700495e+002,6.325317e+000
6.710137e+002,4.773087e+000
6.719780e+002,2.760666e+000
6.729422e+002,9.259949e-001
6.739064e+002,-9.665756e-001
6.748707e+002,-1.100319e+000
6.758349e+002,1.665649e+000
6.767991e+002,4.287048e+000
6.777634e+002,5.668854e+000
6.787276e+002,5.900162e+000
6.796918e+002,5.640839e+000
6.806561e+002,4.703842e+000
6.816203e+002,3.544144e+000
6.825845e+002,1.924713e+000
6.835488e+002,2.979431e-001
6.845130e+002,-5.992889e-001
6.854772e+002,-1.547699e-001
6.864415e+002,1.117249e+000
6.874057e+002,1.968719e+000
6.883699e+002,2.433472e+000
6.893342e+002,2.716217e+000
6.902984e+002,2.924728e+000
6.912626e+002,3.125671e+000
6.922269e+002,3.629013e+000
6.931911e+002,5.293930e+000
6.941553e+002,6.282730e+000
6.951196e+002,5.946014e+000
6.960838e+002,4.890381e+000
6.970480e+002,4.188095e+000
6.980123e+002,4.336403e+000
6.989765e+002,4.208817e+000
6.999407e+002,3.203087e+000
7.009050e+002,1.879578e+000
7.018692e+002,3.865128e-001
7.028334e+002,-1.080887e+000
7.037977e+002,-1.969589e+000
7.047619e+002,-6.802902e-001
7.057261e+002,1.703773e+000
7.066904e+002,2.597031e+000
7.076546e+002,1.583061e+000
7.086188e+002,-3.700256e-003
7.095831e+002,3.211975e-003
7.105473e+002,2.376465e+000
7.115115e+002,3.810860e+000
7.124758e+002,4.234833e+000
7.134400e+002,3.991188e+000
7.144042e+002,2.986862e+000
7.153685e+002,1.313011e+000
7.163327e+002,6.989288e-002
7.172969e+002,6.327820e-002
7.182612e+002,3.807297e-001
7.192254e+002,9.257965e-001
7.201896e+002,1.453537e+000
7.211539e+002,1.525459e+000
7.221181e+002,6.833038e-001
7.230823e+002,-4.390640e-001
7.240466e+002,1.586838e-001
7.250108e+002,2.090782e+000
7.259750e+002,3.536118e+000
7.269393e+002,3.254890e+000
7.279035e+002,1.467499e+000
7.288677e+002,6.689758e-001
7.298320e+002,2.310638e+000
7.307962e+002,3.468132e+000
7.317604e+002,3.653931e+000
7.327247e+002,3.393608e+000
7.336889e+002,3.354294e+000
7.346531e+002,3.631500e+000
7.356174e+002,3.894531e+000
7.365816e+002,4.347977e+000
7.375458e+002,4.707687e+000
7.385101e+002,4.649498e+000
7.394743e+002,4.146255e+000
7.404385e+002,3.493568e+000
7.414028e+002,3.080444e+000
7.423670e+002,2.750801e+000
7.433312e+002,2.367508e+000
7.442955e+002,2.003616e+000
7.452597e+002,1.962379e+000
7.462239e+002,2.718758e+000
7.471882e+002,4.685776e+000
7.481524e+002,5.402992e+000
7.491166e+002,3.764526e+000
7.500809e+002,2.166786e+000
7.510451e+002,1.435173e+000
7.520093e+002,1.504005e+000
7.529736e+002,1.932022e+000
7.539378e+002,2.999672e+000
7.549020e+002,3.803955e+000
7.558663e+002,3.560631e+000
7.568306e+002,2.798767e+000
7.577948e+002,2.297127e+000
7.587590e+002,2.473465e+000
7.597233e+002,2.871880e+000
7.606875e+002,1.957985e+000
7.616517e+002,-2.830505e-003
7.626160e+002,-9.585495e-001
7.635802e+002,-1.282730e-001
7.645444e+002,1.753906e+000
7.655087e+002,3.229607e+000
7.664729e+002,4.396652e+000
7.674371e+002,4.736320e+000
7.684014e+002,3.481491e+000
7.693656e+002,2.217888e+000
7.703298e+002,2.235458e+000
7.712941e+002,3.551170e+000
7.722583e+002,4.563156e+000
7.732225e+002,3.595024e+000
7.741868e+002,2.323502e+000
7.751510e+002,1.963760e+000
7.761152e+002,2.459091e+000
7.770795e+002,3.489449e+000
7.780437e+002,4.777054e+000
7.790079e+002,6.179634e+000
7.799722e+002,6.498917e+000
7.809364e+002,5.744148e+000
7.819006e+002,4.792725e+000
7.828649e+002,3.705597e+000
7.838291e+002,2.729149e+000
7.847933e+002,2.635735e+000
7.857576e+002,3.973999e+000
7.867218e+002,5.143364e+000
7.876860e+002,6.114120e+000
7.886503e+002,6.796852e+000
7.896145e+002,7.066010e+000
7.905787e+002,6.910011e+000
7.915430e+002,6.525345e+000
7.925072e+002,5.665993e+000
7.934714e+002,4.871628e+000
7.944357e+002,5.222145e+000
7.953999e+002,6.568436e+000
7.963641e+002,7.654366e+000
7.973284e+002,6.987671e+000
7.982926e+002,4.413673e+000
7.992568e+002,3.106041e+000
8.002211e+002,3.199074e+000
8.011853e+002,3.553246e+000
8.021495e+002,4.125328e+000
8.031138e+002,4.868195e+000
8.040780e+002,5.291512e+000
8.050422e+002,5.174026e+000
8.060065e+002,4.640854e+000
8.069707e+002,2.736382e+000
8.079349e+002,9.888916e-001
8.088992e+002,1.326370e+000
8.098634e+002,4.252136e+000
8.108276e+002,7.825272e+000
8.117919e+002,9.286400e+000
8.127561e+002,9.104630e+000
8.137203e+002,8.281197e+000
8.146846e+002,7.038422e+000
8.156488e+002,5.812035e+000
8.166130e+002,5.093300e+000
8.175773e+002,4.943275e+000
8.185415e+002,4.802162e+000
8.195057e+002,4.505707e+000
8.204700e+002,4.274590e+000
8.214342e+002,4.286140e+000
8.223984e+002,4.424034e+000
8.233627e+002,4.328690e+000
8.243269e+002,3.680298e+000
8.252911e+002,3.266953e+000
8.262554e+002,3.595840e+000
8.272196e+002,4.269585e+000
8.281838e+002,4.892929e+000
8.291481e+002,5.309090e+000
8.301123e+002,5.699860e+000
8.310765e+002,6.553963e+000
8.320408e+002,7.647552e+000
8.330050e+002,7.171608e+000
8.339692e+002,4.618866e+000
8.349335e+002,1.835236e+000
8.358977e+002,8.419189e-001
8.368619e+002,1.950325e+000
8.378262e+002,2.822990e+000
8.387904e+002,3.060944e+000
8.397546e+002,3.315323e+000
8.407189e+002,3.667847e+000
8.416831e+002,4.180298e+000
8.426473e+002,5.027924e+000
8.436116e+002,6.410866e+000
8.445758e+002,7.666252e+000
8.455400e+002,7.894012e+000
8.465043e+002,7.562813e+000
8.474685e+002,7.092941e+000
8.484327e+002,6.750923e+000
8.493970e+002,6.832870e+000
8.503612e+002,7.795113e+000
8.513254e+002,9.854034e+000
8.522897e+002,1.080688e+001
8.532539e+002,1.015036e+001
8.542181e+002,9.115364e+000
8.551824e+002,8.221664e+000
8.561466e+002,7.599892e+000
8.571108e+002,7.801483e+000
8.580751e+002,9.759148e+000
8.590393e+002,1.108435e+001
8.600035e+002,1.090066e+001
8.609678e+002,9.917877e+000
8.619320e+002,8.610329e+000
8.628962e+002,7.275871e+000
8.638605e+002,6.565033e+000
8.648247e+002,8.158676e+000
8.657889e+002,1.092262e+001
8.667532e+002,1.233362e+001
8.677174e+002,1.206268e+001
8.686816e+002,1.126324e+001
8.696459e+002,1.127497e+001
8.706101e+002,1.227470e+001
8.715743e+002,1.307076e+001
8.725386e+002,1.325061e+001
8.735028e+002,1.377688e+001
8.744670e+002,1.532063e+001
8.754313e+002,1.717254e+001
8.763955e+002,1.801579e+001
8.773597e+002,1.726908e+001
8.783240e+002,1.615034e+001
8.792882e+002,1.488342e+001
8.802524e+002,1.403799e+001
8.812167e+002,1.443163e+001
8.821809e+002,1.602913e+001
8.831451e+002,1.806736e+001
8.841094e+002,1.961981e+001
8.850736e+002,2.067336e+001
8.860378e+002,2.069077e+001
8.870021e+002,1.914635e+001
8.879663e+002,1.827925e+001
8.889305e+002,1.998315e+001
8.898948e+002,2.355394e+001
8.908590e+002,2.536263e+001
8.918232e+002,2.398540e+001
8.927875e+002,2.285705e+001
8.937517e+002,2.248378e+001
8.947159e+002,2.277605e+001
8.956802e+002,2.398363e+001
8.966444e+002,2.588239e+001
8.976086e+002,2.738452e+001
8.985729e+002,2.738137e+001
8.995371e+002,2.638608e+001
9.005013e+002,2.500362e+001
9.014656e+002,2.345732e+001
9.024298e+002,2.236601e+001
9.033940e+002,2.214412e+001
9.043583e+002,2.271432e+001
9.053225e+002,2.393163e+001
9.062867e+002,2.731303e+001
9.072510e+002,2.914835e+001
9.082152e+002,2.866585e+001
9.091794e+002,2.722250e+001
9.101437e+002,2.590108e+001
9.111079e+002,2.485538e+001
9.120721e+002,2.425548e+001
9.130364e+002,2.450481e+001
9.140006e+002,2.487091e+001
9.149648e+002,2.487450e+001
9.159291e+002,2.476732e+001
9.168933e+002,2.525568e+001
9.178575e+002,2.676752e+001
9.188218e+002,2.859990e+001
9.197860e+002,2.809814e+001
9.207502e+002,2.515677e+001
9.217145e+002,2.310153e+001
9.226787e+002,2.307707e+001
9.236429e+002,2.387489e+001
9.246072e+002,2.376155e+001
9.255714e+002,2.244923e+001
9.265356e+002,2.144362e+001
9.274999e+002,2.115785e+001
9.284641e+002,2.096809e+001
9.294283e+002,2.080455e+001
9.303926e+002,2.060904e+001
9.313568e+002,2.027763e+001
9.323210e+002,1.973834e+001
9.332853e+002,1.916536e+001
9.342495e+002,1.897525e+001
9.352137e+002,1.889799e+001
9.361780e+002,1.852737e+001
9.371422e+002,1.783368e+001
9.381064e+002,1.709224e+001
9.390707e+002,1.656300e+001
9.400349e+002,1.611911e+001
9.409991e+002,1.625037e+001
9.419634e+002,1.773056e+001
9.429276e+002,1.868535e+001
9.438918e+002,1.836127e+001
9.448561e+002,1.731978e+001
9.458203e+002,1.647598e+001
9.467845e+002,1.608589e+001
9.477488e+002,1.598058e+001
9.487130e+002,1.628293e+001
9.496772e+002,1.660246e+001
9.506415e+002,1.648840e+001
9.516057e+002,1.603078e+001
9.525699e+002,1.577272e+001
9.535342e+002,1.625146e+001
9.544984e+002,1.728850e+001
9.554626e+002,1.747366e+001
9.564269e+002,1.672264e+001
9.573911e+002,1.624527e+001
9.583553e+002,1.697331e+001
9.593196e+002,1.784583e+001
9.602838e+002,1.677257e+001
9.612480e+002,1.295599e+001
9.622123e+002,1.015013e+001
9.631765e+002,9.976860e+000
9.641407e+002,1.050980e+001
9.651050e+002,1.125488e+001
9.660692e+002,1.190492e+001
9.670334e+002,1.226588e+001
9.679977e+002,1.226135e+001
9.689619e+002,1.191299e+001
9.699261e+002,1.046556e+001
9.708904e+002,8.476067e+000
9.718546e+002,8.136940e+000
9.728188e+002,1.011923e+001
9.737831e+002,1.295656e+001
9.747473e+002,1.480014e+001
9.757115e+002,1.551935e+001
9.766758e+002,1.604817e+001
9.776400e+002,1.700880e+001
9.786042e+002,1.713667e+001
9.795685e+002,1.536000e+001
9.805327e+002,1.280263e+001
9.814969e+002,1.118957e+001
9.824612e+002,1.115049e+001
9.834254e+002,1.111600e+001
9.843896e+002,8.601395e+000
9.853539e+002,5.731697e+000
9.863181e+002,5.277328e+000
9.872823e+002,6.944611e+000
9.882466e+002,8.535553e+000
9.892108e+002,8.238167e+000
9.901750e+002,6.467926e+000
9.911393e+002,5.607773e+000
9.921035e+002,6.153656e+000
9.930677e+002,6.492706e+000
9.940320e+002,6.455132e+000
9.949962e+002,6.410728e+000
9.959604e+002,6.835960e+000
9.969247e+002,7.735672e+000
9.978889e+002,8.292419e+000
9.988531e+002,7.777084e+000
9.998174e+002,7.022415e+000
1.000782e+003,6.268105e+000
1.001746e+003,5.832138e+000
1.002710e+003,6.367508e+000
1.003674e+003,7.990875e+000
1.004639e+003,9.769569e+000
1.005603e+003,1.003675e+001
1.006567e+003,8.582573e+000
1.007531e+003,7.079971e+000
1.008495e+003,5.294189e+000
1.009460e+003,3.914177e+000
1.010424e+003,3.567947e+000
1.011388e+003,4.022339e+000
1.012352e+003,4.241936e+000
1.013317e+003,3.820450e+000
1.014281e+003,3.690880e+000
1.015245e+003,4.501137e+000
1.016209e+003,5.278053e+000
1.017174e+003,5.281342e+000
1.018138e+003,4.537956e+000
1.019102e+003,3.583389e+000
1.020066e+003,2.840614e+000
1.021031e+003,2.325920e+000
1.021995e+003,2.076004e+000
1.022959e+003,1.964043e+000
1.023923e+003,1.583313e+000
1.024887e+003,6.465912e-001
1.025852e+003,-3.788605e-001
1.026816e+003,-6.214600e-001
1.027780e+003,2.091370e-001
1.028744e+003,6.839447e-001
1.029709e+003,2.186661e-001
1.030673e+003,-7.624054e-002
1.031637e+003,2.715530e-001
1.032601e+003,8.894501e-001
1.033566e+003,1.321648e+000
1.034530e+003,1.416924e+000
1.035494e+003,1.190231e+000
1.036458e+003,3.882980e-001
1.037422e+003,-6.204529e-001
1.038387e+003,-1.126198e+000
1.039351e+003,-1.170998e+000
1.040315e+003,-1.309723e+000
1.041279e+003,-2.039841e+000
1.042244e+003,-3.022141e+000
1.043208e+003,-2.564255e+000
1.044172e+003,1.154961e+000
1.045136e+003,2.972855e+000
1.046101e+003,1.685928e+000
1.047065e+003,-2.264709e-001
1.048029e+003,-1.569359e+000
1.048993e+003,-2.181664e+000
1.049958e+003,-2.007256e+000
1.050922e+003,-7.303772e-001
1.051886e+003,7.200394e-001
1.052850e+003,1.303802e+000
1.053814e+003,1.493416e+000
1.054779e+003,1.948845e+000
1.055743e+003,2.765480e+000
1.056707e+003,3.493629e+000
1.057671e+003,3.596359e+000
1.058636e+003,3.056114e+000
1.059600e+003,2.338287e+000
1.060564e+003,1.197617e+000
1.061528e+003,3.962173e-001
1.062493e+003,1.392593e-001
1.063457e+003,8.641815e-002
1.064421e+003,-1.216965e-001
1.065385e+003,-4.957199e-001
1.066349e+003,-6.638107e-001
1.067314e+003,-1.939621e-001
1.068278e+003,2.510910e-001
1.069242e+003,4.051971e-002
1.070206e+003,-4.249420e-001
1.071171e+003,-5.095825e-001
1.072135e+003,1.343536e-002
1.073099e+003,8.351288e-001
1.074063e+003,1.498932e+000
1.075028e+003,2.026672e+000
1.075992e+003,2.307014e+000
1.076956e+003,2.123802e+000
1.077920e+003,1.996368e+000
1.078885e+003,2.552544e+000
1.079849e+003,3.226654e+000
1.080813e+003,2.572998e+000
1.081777e+003,5.332947e-003
1.082741e+003,-1.626778e+000
1.083706e+003,4.056931e-001
1.084670e+003,2.551262e+000
1.085634e+003,2.708344e+000
1.086598e+003,1.466904e+000
1.087563e+003,2.729950e-001
1.088527e+003,-1.802826e-002
1.089491e+003,3.101273e-001
1.090455e+003,6.544876e-001
1.091420e+003,9.683380e-001
1.092384e+003,1.106750e+000
1.093348e+003,1.122177e+000
1.094312e+003,7.945557e-001
1.095276e+003,-2.459259e-001
1.096241e+003,-1.647507e+000
1.097205e+003,-2.346367e+000
1.098169e+003,-1.983276e+000
1.099133e+003,-1.754517e+000
1.100098e+003,-2.284859e+000
1.101062e+003,-2.865013e+000
1.102026e+003,-2.901047e+000
1.102990e+003,-2.616821e+000
1.103955e+003,-2.867882e+000
1.104919e+003,-4.154282e+000
1.105883e+003,-5.459732e+000
1.106847e+003,-4.146034e+000
1.107812e+003,-2.378387e-001
1.108776e+003,9.647827e-001
1.109740e+003,-1.999413e+000
1.110704e+003,-5.095711e+000
1.111668e+003,-5.091240e+000
1.112633e+003,-2.685005e+000
1.113597e+003,-1.185677e+000
1.114561e+003,-1.524139e+000
1.115525e+003,-1.393372e+000
1.116490e+003,9.491501e-001
1.117454e+003,2.960091e+000
1.118418e+003,2.697021e+000
1.119382e+003,7.375031e-001
1.120347e+003,-1.204582e+000
1.121311e+003,-2.126129e+000
1.122275e+003,-2.417397e+000
1.123239e+003,-2.695694e+000
1.124203e+003,-2.843620e+000
1.125168e+003,-2.428116e+000
1.126132e+003,-1.126976e+000
1.127096e+003,3.590393e-002
1.128060e+003,1.144333e-001
1.129025e+003,-6.774368e-001
1.129989e+003,-1.276863e+000
1.130953e+003,-1.782578e+000
1.131917e+003,-1.728165e+000
1.132882e+003,-4.764786e-001
1.133846e+003,8.284454e-001
1.134810e+003,1.594757e+000
1.135774e+003,1.815674e+000
1.136739e+003,1.646599e+000
1.137703e+003,1.180298e+000
1.138667e+003,5.453873e-001
1.139631e+003,-1.751404e-001
1.140595e+003,-8.600693e-001
1.141560e+003,-5.467758e-001
1.142524e+003,1.204643e+000
1.143488e+003,2.714249e+000
1.144452e+003,1.893463e+000
1.145417e+003,-1.364594e-001
1.146381e+003,1.192223e+000
1.147345e+003,7.704384e+000
1.148309e+003,1.290416e+001
1.149274e+003,1.518744e+001
1.150238e+003,1.597310e+001
1.151202e+003,1.488898e+001
1.152166e+003,1.315466e+001
1.153130e+003,1.266682e+001
1.154095e+003,1.422063e+001
1.155059e+003,1.676254e+001
1.156023e+003,1.917639e+001
1.156987e+003,2.121893e+001
1.157952e+003,2.160854e+001
1.158916e+003,2.033998e+001
1.159880e+003,1.815621e+001
1.160844e+003,1.454862e+001
1.161809e+003,1.036635e+001
1.162773e+003,7.963287e+000
1.163737e+003,7.885124e+000
1.164701e+003,7.165657e+000
1.165666e+003,3.740692e+000
1.166630e+003,1.010414e+000
1.167594e+003,7.340698e-001
1.168558e+003,1.697083e+000
1.169522e+003,2.220161e+000
1.170487e+003,1.771439e+000
1.171451e+003,1.023926e+000
1.172415e+003,6.690598e-001
1.173379e+003,6.971054e-001
1.174344e+003,1.348732e+000
1.175308e+003,2.751450e+000
1.176272e+003,3.366310e+000
1.177236e+003,2.246803e+000
1.178201e+003,4.828415e-001
1.179165e+003,-6.299820e-001
1.180129e+003,-1.130302e+000
1.181093e+003,-1.445297e+000
1.182057e+003,-1.584778e+000
1.183022e+003,-1.578705e+000
1.183986e+003,-1.190765e+000
1.184950e+003,-8.444901e-001
1.185914e+003,-1.132751e+000
1.186879e+003,-1.914742e+000
1.187843e+003,-2.329689e+000
1.188807e+003,-1.670937e+000
1.189771e+003,-5.044556e-001
1.190736e+003,-5.940933e-001
1.191700e+003,-2.121986e+000
1.192664e+003,-3.066071e+000
1.193628e+003,-2.834274e+000
1.194593e+003,-2.472450e+000
1.195557e+003,-2.869347e+000
1.196521e+003,-3.765175e+000
1.197485e+003,-4.050499e+000
1.198449e+003,-3.160744e+000
1.199414e+003,-2.910141e+000
1.200378e+003,-5.087074e+000
1.201342e+003,-7.281555e+000
1.202306e+003,-7.825279e+000
1.203271e+003,-7.211098e+000
1.204235e+003,-6.741730e+000
1.205199e+003,-7.051689e+000
1.206163e+003,-7.661041e+000
1.207128e+003,-7.772064e+000
1.208092e+003,-7.344711e+000
1.209056e+003,-7.121918e+000
1.210020e+003,-6.932243e+000
1.210984e+003,-7.200500e+000
1.211949e+003,-8.306587e+000
1.212913e+003,-9.800232e+000
1.213877e+003,-1.123540e+001
1.214841e+003,-1.254016e+001
1.215806e+003,-1.330230e+001
1.216770e+003,-1.306269e+001
1.217734e+003,-1.272787e+001
1.218698e+003,-1.289445e+001
1.219663e+003,-1.339561e+001
1.220627e+003,-1.422378e+001
1.221591e+003,-1.521146e+001
1.222555e+003,-1.582484e+001
1.223520e+003,-1.554371e+001
1.224484e+003,-1.455006e+001
1.225448e+003,-1.380404e+001
1.226412e+003,-1.330927e+001
1.227376e+003,-1.316161e+001
1.228341e+003,-1.398021e+001
1.229305e+003,-1.447801e+001
1.230269e+003,-1.360596e+001
1.231233e+003,-1.202092e+001
1.232198e+003,-1.092776e+001
1.233162e+003,-1.058882e+001
1.234126e+003,-1.110131e+001
1.235090e+003,-1.341441e+001
1.236055e+003,-1.585365e+001
1.237019e+003,-1.669294e+001
1.237983e+003,-1.618322e+001
1.238947e+003,-1.477097e+001
1.239911e+003,-1.265125e+001
1.240876e+003,-1.083713e+001
1.241840e+003,-1.104537e+001
1.242804e+003,-1.344373e+001
1.243768e+003,-1.469713e+001
1.244733e+003,-1.348767e+001
1.245697e+003,-1.283070e+001
1.246661e+003,-1.370042e+001
1.247625e+003,-1.460762e+001
1.248590e+003,-1.402217e+001
1.249554e+003,-1.241595e+001
1.250518e+003,-1.167934e+001
1.251482e+003,-1.275509e+001
1.252447e+003,-1.423959e+001
1.253411e+003,-1.441619e+001
1.254375e+003,-1.373160e+001
1.255339e+003,-1.315637e+001
1.256303e+003,-1.271762e+001
1.257268e+003,-1.227203e+001
1.258232e+003,-1.176269e+001
1.259196e+003,-1.127997e+001
1.260160e+003,-1.088497e+001
1.261125e+003,-1.049895e+001
1.262089e+003,-1.044128e+001
1.263053e+003,-1.133089e+001
1.264017e+003,-1.190845e+001
1.264982e+003,-1.181146e+001
1.265946e+003,-1.129442e+001
1.266910e+003,-1.038080e+001
1.267874e+003,-9.290260e+000
1.268839e+003,-8.446899e+000
1.269803e+003,-8.128120e+000
1.270767e+003,-8.305397e+000
1.271731e+003,-9.055473e+000
1.272695e+003,-1.032907e+001
1.273660e+003,-1.126458e+001
1.274624e+003,-1.194615e+001
1.275588e+003,-1.220686e+001
1.276552e+003,-1.152723e+001
1.277517e+003,-1.046288e+001
1.278481e+003,-1.013860e+001
1.279445e+003,-1.066589e+001
1.280409e+003,-1.142364e+001
1.281374e+003,-1.272888e+001
1.282338e+003,-1.347944e+001
1.283302e+003,-1.293426e+001
1.284266e+003,-1.171005e+001
1.285230e+003,-1.012587e+001
1.286195e+003,-8.565834e+000
1.287159e+003,-7.859711e+000
1.288123e+003,-8.682724e+000
1.289087e+003,-1.036526e+001
1.290052e+003,-1.091907e+001
1.291016e+003,-9.908768e+000
1.291980e+003,-9.442162e+000
1.292944e+003,-9.732414e+000
1.293909e+003,-1.031045e+001
1.294873e+003,-1.128824e+001
1.295837e+003,-1.221660e+001
1.296801e+003,-1.227511e+001
1.297766e+003,-1.145815e+001
1.298730e+003,-1.114901e+001
1.299694e+003,-1.255555e+001
1.300658e+003,-1.388778e+001
1.301622e+003,-1.243797e+001
1.302587e+003,-9.840874e+000
1.303551e+003,-8.808693e+000
1.304515e+003,-9.731766e+000
1.305479e+003,-1.122695e+001
1.306444e+003,-1.239442e+001
1.307408e+003,-1.307108e+001
1.308372e+003,-1.233849e+001
1.309336e+003,-9.224785e+000
1.310301e+003,-7.754807e+000
1.311265e+003,-9.187691e+000
1.312229e+003,-1.087714e+001
1.313193e+003,-1.251398e+001
1.314157e+003,-1.375771e+001
1.315122e+003,-1.415961e+001
1.316086e+003,-1.384031e+001
1.317050e+003,-1.351156e+001
1.318014e+003,-1.364462e+001
1.318979e+003,-1.372536e+001
1.319943e+003,-1.254613e+001
1.320907e+003,-1.036573e+001
1.321871e+003,-9.741837e+000
1.322836e+003,-1.130754e+001
1.323800e+003,-1.272724e+001
1.324764e+003,-1.274023e+001
1.325728e+003,-1.183643e+001
1.326693e+003,-1.047479e+001
1.327657e+003,-8.672531e+000
1.328621e+003,-8.330215e+000
1.329585e+003,-1.113304e+001
1.330549e+003,-1.319481e+001
1.331514e+003,-1.182205e+001
1.332478e+003,-9.613091e+000
1.333442e+003,-9.234306e+000
1.334406e+003,-1.042976e+001
1.335371e+003,-1.095634e+001
1.336335e+003,-9.514053e+000
1.337299e+003,-7.716751e+000
1.338263e+003,-8.846573e+000
1.339228e+003,-1.350805e+001
1.340192e+003,-1.534236e+001
1.341156e+003,-1.190675e+001
1.342120e+003,-9.456688e+000
1.343084e+003,-9.545769e+000
1.344049e+003,-1.040147e+001
1.345013e+003,-1.072771e+001
1.345977e+003,-1.046648e+001
1.346941e+003,-9.929939e+000
1.347906e+003,-9.212898e+000
1.348870e+003,-8.567070e+000
1.349834e+003,-8.354187e+000
1.350798e+003,-8.290985e+000
1.351763e+003,-7.555374e+000
1.352727e+003,-6.332672e+000
1.353691e+003,-5.924622e+000
1.354655e+003,-7.028191e+000
1.355620e+003,-8.270744e+000
1.356584e+003,-7.471375e+000
1.357548e+003,-5.027534e+000
1.358512e+003,-5.016327e+000
1.359476e+003,-8.981636e+000
1.360441e+003,-1.183887e+001
1.361405e+003,-1.164362e+001
1.362369e+003,-1.074689e+001
1.363333e+003,-1.020660e+001
1.364298e+003,-9.717957e+000
1.365262e+003,-8.224976e+000
1.366226e+003,-5.872780e+000
1.367190e+003,-4.603317e+000
1.368155e+003,-6.195129e+000
1.369119e+003,-9.484077e+000
1.370083e+003,-1.071512e+001
1.371047e+003,-9.132324e+000
1.372011e+003,-8.547112e+000
1.372976e+003,-9.951836e+000
1.373940e+003,-1.109323e+001
1.374904e+003,-1.114408e+001
1.375868e+003,-1.044765e+001
1.376833e+003,-9.046585e+000
1.377797e+003,-7.215584e+000
1.378761e+003,-6.417091e+000
1.379725e+003,-7.596550e+000
1.380690e+003,-8.866783e+000
1.381654e+003,-7.442039e+000
1.382618e+003,-5.307449e+000
1.383582e+003,-5.836296e+000
1.384547e+003,-8.739105e+000
1.385511e+003,-1.047868e+001
1.386475e+003,-9.081757e+000
1.387439e+003,-6.469917e+000
1.388403e+003,-5.568619e+000
1.389368e+003,-6.377907e+000
1.390332e+003,-7.002785e+000
1.391296e+003,-7.284447e+000
1.392260e+003,-7.538368e+000
1.393225e+003,-8.290451e+000
1.394189e+003,-8.595879e+000
1.395153e+003,-7.416885e+000
1.396117e+003,-5.644394e+000
1.397082e+003,-4.713959e+000
1.398046e+003,-4.927719e+000
1.399010e+003,-5.385574e+000
1.399974e+003,-5.292915e+000
1.400938e+003,-4.902603e+000
1.401903e+003,-4.839867e+000
1.402867e+003,-4.989021e+000
1.403831e+003,-5.529251e+000
1.404795e+003,-7.524323e+000
1.405760e+003,-8.600471e+000
1.406724e+003,-7.113434e+000
1.407688e+003,-5.012459e+000
1.408652e+003,-4.602097e+000
1.409617e+003,-5.756691e+000
1.410581e+003,-6.891891e+000
1.411545e+003,-7.442192e+000
1.412509e+003,-7.533531e+000
1.413474e+003,-6.951019e+000
1.414438e+003,-6.267250e+000
1.415402e+003,-6.595993e+000
1.416366e+003,-7.685989e+000
1.417330e+003,-8.094589e+000
1.418295e+003,-7.145393e+000
1.419259e+003,-5.773392e+000
1.420223e+003,-5.095139e+000
1.421187e+003,-5.015625e+000
1.422152e+003,-4.622147e+000
1.423116e+003,-3.495277e+000
1.424080e+003,-3.210785e+000
1.425044e+003,-5.372314e+000
1.426009e+003,-7.297386e+000
1.426973e+003,-7.909286e+000
1.427937e+003,-7.648979e+000
1.428901e+003,-6.679573e+000
1.429865e+003,-5.383011e+000
1.430830e+003,-4.748383e+000
1.431794e+003,-5.422623e+000
1.432758e+003,-6.580200e+000
1.433722e+003,-6.478828e+000
1.434687e+003,-4.905663e+000
1.435651e+003,-3.979118e+000
1.436615e+003,-4.101959e+000
1.437579e+003,-4.583298e+000
1.438544e+003,-5.979042e+000
1.439508e+003,-7.051071e+000
1.440472e+003,-6.632240e+000
1.441436e+003,-5.350983e+000
1.442401e+003,-4.597534e+000
1.443365e+003,-4.667290e+000
1.444329e+003,-4.511795e+000
1.445293e+003,-3.206787e+000
1.446257e+003,-1.603226e+000
1.447222e+003,-1.423431e+000
1.448186e+003,-2.455841e+000
1.449150e+003,-3.766762e+000
1.450114e+003,-5.596397e+000
1.451079e+003,-6.490570e+000
1.452043e+003,-4.889397e+000
1.453007e+003,-2.447922e+000
1.453971e+003,-1.423256e+000
1.454936e+003,-1.747238e+000
1.455900e+003,-2.594986e+000
1.456864e+003,-4.030327e+000
1.457828e+003,-5.064766e+000
1.458792e+003,-4.750488e+000
1.459757e+003,-4.190178e+000
1.460721e+003,-4.450432e+000
1.461685e+003,-5.112488e+000
1.462649e+003,-5.196640e+000
1.463614e+003,-4.460350e+000
1.464578e+003,-3.452209e+000
1.465542e+003,-2.562103e+000
1.466506e+003,-2.002258e+000
1.467471e+003,-2.524803e+000
1.468435e+003,-4.420288e+000
1.469399e+003,-5.669395e+000
1.470363e+003,-5.934196e+000
1.471328e+003,-5.954353e+000
1.472292e+003,-6.012917e+000
1.473256e+003,-5.869980e+000
1.474220e+003,-5.001808e+000
1.475184e+003,-3.804588e+000
1.476149e+003,-3.172737e+000
1.477113e+003,-3.345123e+000
1.478077e+003,-3.597290e+000
1.479041e+003,-3.184395e+000
1.480006e+003,-2.322189e+000
1.480970e+003,-1.811920e+000
1.481934e+003,-1.700951e+000
1.482898e+003,-2.025307e+000
1.483863e+003,-3.320869e+000
1.484827e+003,-4.266281e+000
1.485791e+003,-4.378448e+000
1.486755e+003,-4.037796e+000
1.487719e+003,-3.413910e+000
1.488684e+003,-2.720215e+000
1.489648e+003,-2.398163e+000
1.490612e+003,-2.549026e+000
1.491576e+003,-2.570976e+000
1.492541e+003,-1.864784e+000
1.493505e+003,-9.611893e-001
1.494469e+003,-1.271797e+000
1.495433e+003,-2.583321e+000
1.496398e+003,-3.238800e+000
1.497362e+003,-2.886383e+000
1.498326e+003,-2.144341e+000
1.499290e+003,-8.782043e-001
1.500255e+003,2.621078e-001
1.501219e+003,-1.695633e-001
1.502183e+003,-1.733376e+000
1.503147e+003,-1.575035e+000
1.504111e+003,1.219589e+000
1.505076e+003,4.275307e+000
1.506040e+003,6.589172e+000
1.507004e+003,8.146866e+000
1.507968e+003,8.441002e+000
1.508933e+003,8.219978e+000
1.509897e+003,9.216064e+000
1.510861e+003,1.174049e+001
1.511825e+003,1.428000e+001
1.512790e+003,1.564646e+001
1.513754e+003,1.646832e+001
1.514718e+003,1.801592e+001
1.515682e+003,2.025061e+001
1.516646e+003,2.255372e+001
1.517611e+003,2.511078e+001
1.518575e+003,2.732206e+001
1.519539e+003,2.932449e+001
1.520503e+003,3.067564e+001
1.521468e+003,3.066489e+001
1.522432e+003,3.004324e+001
1.523396e+003,2.998130e+001
1.524360e+003,3.048822e+001
1.525325e+003,3.057397e+001
1.526289e+003,2.959525e+001
1.527253e+003,2.799271e+001
1.528217e+003,2.657237e+001
1.529182e+003,2.537844e+001
1.530146e+003,2.339196e+001
1.531110e+003,1.980779e+001
1.532074e+003,1.686689e+001
1.533039e+003,1.481834e+001
1.534003e+003,1.308276e+001
1.534967e+003,1.171445e+001
1.535931e+003,1.047356e+001
1.536896e+003,9.104050e+000
1.537860e+003,7.597046e+000
1.538824e+003,5.876251e+000
1.539788e+003,3.952492e+000
1.540752e+003,2.602821e+000
1.541717e+003,2.988014e+000
1.542681e+003,4.724991e+000
1.543645e+003,5.216270e+000
1.544609e+003,3.865768e+000
1.545573e+003,2.864899e+000
1.546538e+003,1.782570e+000
1.547502e+003,1.459602e+000
1.548466e+003,2.831230e+000
1.549430e+003,4.713158e+000
1.550395e+003,6.033264e+000
1.551359e+003,6.693825e+000
1.552323e+003,7.026413e+000
1.553287e+003,7.127197e+000
1.554252e+003,6.405289e+000
1.555216e+003,4.130600e+000
1.556180e+003,1.238380e+000
1.557144e+003,-2.943420e-002
1.558109e+003,4.250259e-001
1.559073e+003,9.788055e-001
1.560037e+003,2.013626e+000
1.561001e+003,2.105026e+000
1.561966e+003,-1.786041e-001
1.562930e+003,-2.570358e+000
1.563894e+003,-3.026199e+000
1.564858e+003,-1.972183e+000
1.565823e+003,-2.918625e-001
1.566787e+003,1.724380e+000
1.567751e+003,2.969254e+000
1.568715e+003,2.697639e+000
1.569679e+003,1.802704e+000
1.570644e+003,1.027626e+000
1.571608e+003,5.803757e-001
1.572572e+003,1.310722e+000
1.573536e+003,3.307915e+000
1.574500e+003,4.880356e+000
1.575465e+003,5.526947e+000
1.576429e+003,5.471481e+000
1.577393e+003,4.421066e+000
1.578357e+003,2.953659e+000
1.579322e+003,2.189133e+000
1.580286e+003,2.213890e+000
1.581250e+003,2.862411e+000
1.582214e+003,4.354431e+000
1.583179e+003,5.422661e+000
1.584143e+003,4.761154e+000
1.585107e+003,3.440903e+000
1.586071e+003,2.835564e+000
1.587036e+003,2.904922e+000
1.588000e+003,3.466690e+000
1.588964e+003,4.484329e+000
1.589928e+003,5.405205e+000
1.590893e+003,5.787987e+000
1.591857e+003,5.957047e+000
1.592821e+003,6.492348e+000
1.593785e+003,7.291321e+000
1.594750e+003,7.709351e+000
1.595714e+003,7.632637e+000
1.596678e+003,7.227577e+000
1.597642e+003,6.313744e+000
1.598606e+003,5.466736e+000
1.599571e+003,5.294502e+000
1.600535e+003,5.394341e+000
1.601499e+003,4.974152e+000
1.602463e+003,4.215965e+000
1.603427e+003,4.455948e+000
1.604392e+003,6.364616e+000
1.605356e+003,8.396324e+000
1.606320e+003,8.933853e+000
1.607284e+003,8.411514e+000
1.608249e+003,8.002892e+000
1.609213e+003,7.711098e+000
1.610177e+003,7.486664e+000
1.611141e+003,7.253532e+000
1.612106e+003,7.257950e+000
1.613070e+003,7.591476e+000
1.614034e+003,8.244797e+000
1.614998e+003,9.694374e+000
1.615963e+003,1.127171e+001
1.616927e+003,1.166560e+001
1.617891e+003,1.081725e+001
1.618855e+003,9.928055e+000
1.619820e+003,9.646561e+000
1.620784e+003,9.810616e+000
1.621748e+003,1.054294e+001
1.622712e+003,1.172348e+001
1.623677e+003,1.208633e+001
1.624641e+003,1.150142e+001
1.625605e+003,1.084042e+001
1.626569e+003,1.007980e+001
1.627533e+003,9.365936e+000
1.628498e+003,8.955132e+000
1.629462e+003,8.565796e+000
1.630426e+003,7.242630e+000
1.631390e+003,5.910301e+000
1.632354e+003,7.221542e+000
1.633319e+003,1.140861e+001
1.634283e+003,1.455935e+001
1.635247e+003,1.355011e+001
1.636211e+003,1.055479e+001
1.637176e+003,9.562973e+000
1.638140e+003,1.043958e+001
1.639104e+003,1.061513e+001
1.640068e+003,9.711876e+000
1.641033e+003,9.212730e+000
1.641997e+003,9.692581e+000
1.642961e+003,1.040417e+001
1.643925e+003,1.118101e+001
1.644890e+003,1.181689e+001
1.645854e+003,1.207090e+001
1.646818e+003,1.200173e+001
1.647782e+003,1.186721e+001
1.648747e+003,1.172198e+001
1.649711e+003,1.121010e+001
1.650675e+003,9.918427e+000
1.651639e+003,8.424240e+000
1.652604e+003,7.813850e+000
1.653568e+003,8.048210e+000
1.654532e+003,9.057114e+000
1.655496e+003,1.133178e+001
1.656460e+003,1.257854e+001
1.657425e+003,1.138138e+001
1.658389e+003,1.006689e+001
1.659353e+003,1.028871e+001
1.660317e+003,1.074793e+001
1.661281e+003,9.739098e+000
1.662246e+003,7.711052e+000
1.663210e+003,6.436691e+000
1.664174e+003,6.488419e+000
1.665138e+003,6.720375e+000
1.666103e+003,5.978149e+000
1.667067e+003,5.023369e+000
1.668031e+003,5.856125e+000
1.668995e+003,8.275749e+000
1.669960e+003,8.890732e+000
1.670924e+003,6.845764e+000
1.671888e+003,5.725166e+000
1.672852e+003,7.325340e+000
1.673817e+003,9.051254e+000
1.674781e+003,9.153351e+000
1.675745e+003,8.587708e+000
1.676709e+003,8.472031e+000
1.677674e+003,8.626404e+000
1.678638e+003,8.055237e+000
1.679602e+003,6.467743e+000
1.680566e+003,5.069496e+000
1.681531e+003,4.851242e+000
1.682495e+003,5.351540e+000
1.683459e+003,5.973778e+000
1.684423e+003,6.592552e+000
1.685387e+003,6.398483e+000
1.686352e+003,5.188385e+000
1.687316e+003,4.427689e+000
1.688280e+003,4.897346e+000
1.689244e+003,5.317673e+000
1.690208e+003,4.356995e+000
1.691173e+003,3.090286e+000
1.692137e+003,2.670311e+000
1.693101e+003,3.020897e+000
1.694065e+003,3.818405e+000
1.695030e+003,4.986794e+000
1.695994e+003,5.574158e+000
1.696958e+003,4.652252e+000
1.697922e+003,3.315674e+000
1.698887e+003,3.043365e+000
1.699851e+003,3.466194e+000
1.700815e+003,3.378525e+000
1.701779e+003,2.667480e+000
1.702744e+003,1.948677e+000
1.703708e+003,1.376297e+000
1.704672e+003,1.193443e+000
1.705636e+003,1.708076e+000
1.706601e+003,2.467224e+000
1.707565e+003,2.869400e+000
1.708529e+003,3.035530e+000
1.709493e+003,3.316887e+000
1.710458e+003,3.800888e+000
1.711422e+003,3.878029e+000
1.712386e+003,2.808578e+000
1.713350e+003,1.900200e+000
1.714314e+003,2.687622e+000
1.715279e+003,3.962181e+000
1.716243e+003,3.374405e+000
1.717207e+003,1.264267e+000
1.718171e+003,8.605957e-002
1.719135e+003,5.257263e-001
1.720100e+003,1.411804e+000
1.721064e+003,2.129669e+000
1.722028e+003,2.377335e+000
1.722992e+003,1.515862e+000
1.723957e+003,-1.248474e-001
1.724921e+003,-9.045029e-001
1.725885e+003,-8.569794e-001
1.726849e+003,-3.613663e-001
1.727814e+003,9.767151e-001
1.728778e+003,2.288513e+000
1.729742e+003,3.442635e+000
1.730706e+003,4.162865e+000
1.731671e+003,3.767975e+000
1.732635e+003,2.805923e+000
1.733599e+003,2.740318e+000
1.734563e+003,3.631935e+000
1.735528e+003,3.774872e+000
1.736492e+003,2.255943e+000
1.737456e+003,6.644135e-001
1.738420e+003,9.646606e-001
1.739385e+003,2.479599e+000
1.740349e+003,2.795143e+000
1.741313e+003,1.610657e+000
1.742277e+003,9.085388e-001
1.743241e+003,1.164413e+000
1.744206e+003,1.193054e+000
1.745170e+003,7.035446e-001
1.746134e+003,7.601166e-002
1.747098e+003,-8.120499e-001
1.748063e+003,-1.485466e+000
1.749027e+003,-1.143768e+000
1.749991e+003,-1.530228e-001
1.750955e+003,4.506378e-001
1.751919e+003,2.845688e-001
1.752884e+003,-4.568100e-001
1.753848e+003,-1.635376e+000
1.754812e+003,-2.698685e+000
1.755776e+003,-2.387245e+000
1.756741e+003,-7.280960e-001
1.757705e+003,1.818466e-001
1.758669e+003,-1.162491e-001
1.759633e+003,1.098709e-001
1.760598e+003,1.943764e+000
1.761562e+003,2.908592e+000
1.762526e+003,1.585594e+000
1.763490e+003,-4.895782e-002
1.764455e+003,-8.515701e-001
1.765419e+003,-8.923645e-001
1.766383e+003,-2.456284e-001
1.767347e+003,8.389740e-001
1.768312e+003,1.745781e+000
1.769276e+003,2.181488e+000
1.770240e+003,2.060600e+000
1.771204e+003,9.980621e-001
1.772168e+003,-2.768326e-001
1.773133e+003,1.534424e-001
1.774097e+003,2.048920e+000
1.775061e+003,2.911110e+000
1.776025e+003,2.343712e+000
1.776990e+003,1.568474e+000
1.777954e+003,8.713608e-001
1.778918e+003,4.488831e-001
1.779882e+003,5.183868e-001
1.780846e+003,8.111038e-001
1.781811e+003,1.222511e+000
1.782775e+003,1.583298e+000
1.783739e+003,1.053314e+000
1.784703e+003,-6.155396e-001
1.785668e+003,-1.453957e+000
1.786632e+003,1.538925e-001
1.787596e+003,1.659065e+000
1.788560e+003,9.656601e-001
1.789525e+003,-6.843719e-001
1.790489e+003,-2.006668e+000
1.791453e+003,-2.741493e+000
1.792417e+003,-2.216667e+000
1.793382e+003,-4.628372e-001
1.794346e+003,9.051361e-001
1.795310e+003,1.000008e+000
1.796274e+003,8.415527e-001
1.797239e+003,1.725403e+000
1.798203e+003,3.151276e+000
1.799167e+003,3.307205e+000
1.800131e+003,1.874687e+000
1.801095e+003,7.332764e-001
1.802060e+003,-3.095322e-001
1.803024e+003,-6.292648e-001
1.803988e+003,4.197235e-001
1.804952e+003,1.425735e+000
1.805917e+003,1.501945e+000
1.806881e+003,1.398544e+000
1.807845e+003,2.163239e+000
1.808809e+003,3.320236e+000
1.809773e+003,3.686417e+000
1.810738e+003,3.079475e+000
1.811702e+003,2.307045e+000
1.812666e+003,1.871857e+000
1.813630e+003,1.427254e+000
1.814595e+003,3.517609e-001
1.815559e+003,-9.307098e-001
1.816523e+003,-2.336884e-001
1.817487e+003,2.766273e+000
1.818452e+003,3.998833e+000
1.819416e+003,2.544449e+000
1.820380e+003,1.588455e+000
1.821344e+003,2.473343e+000
1.822309e+003,3.283302e+000
1.823273e+003,2.636948e+000
1.824237e+003,1.629715e+000
1.825201e+003,1.301445e+000
1.826166e+003,1.519165e+000
1.827130e+003,1.843170e+000
1.828094e+003,2.174568e+000
1.829058e+003,2.515633e+000
1.830022e+003,3.004326e+000
1.830987e+003,3.273903e+000
1.831951e+003,2.831696e+000
1.832915e+003,2.125130e+000
1.833879e+003,1.753197e+000
1.834844e+003,1.689507e+000
1.835808e+003,1.773788e+000
1.836772e+003,1.972588e+000
1.837736e+003,2.289673e+000
1.838700e+003,2.717010e+000
1.839665e+003,3.046501e+000
1.840629e+003,3.134003e+000
1.841593e+003,2.919044e+000
1.842557e+003,2.146103e+000
1.843522e+003,8.292542e-001
1.844486e+003,1.521683e-001
1.845450e+003,5.494843e-001
1.846414e+003,8.626709e-001
1.847379e+003,7.853165e-001
1.848343e+003,9.209595e-001
1.849307e+003,2.012856e+000
1.850271e+003,2.830559e+000
1.851236e+003,2.100029e+000
1.852200e+003,8.261108e-001
1.853164e+003,3.836823e-001
1.854128e+003,7.770615e-001
1.855093e+003,1.401054e+000
1.856057e+003,1.986328e+000
1.857021e+003,2.310570e+000
1.857985e+003,2.141624e+000
1.858949e+003,1.713760e+000
1.859914e+003,1.381889e+000
1.860878e+003,1.167183e+000
1.861842e+003,1.042839e+000
1.862806e+003,9.859695e-001
1.863771e+003,1.752975e+000
1.864735e+003,3.845779e+000
1.865699e+003,4.878098e+000
1.866663e+003,3.338493e+000
1.867627e+003,1.394676e+000
1.868592e+003,6.983719e-001
1.869556e+003,9.594116e-001
1.870520e+003,1.950455e+000
1.871484e+003,3.501831e+000
1.872449e+003,4.549362e+000
1.873413e+003,5.148712e+000
1.874377e+003,5.109695e+000
1.875341e+003,3.328835e+000
1.876306e+003,2.052208e+000
1.877270e+003,2.867668e+000
1.878234e+003,4.378250e+000
1.879198e+003,5.531532e+000
1.880163e+003,6.150459e+000
1.881127e+003,5.931190e+000
1.882091e+003,5.120110e+000
1.883055e+003,4.619896e+000
1.884020e+003,4.780365e+000
1.884984e+003,5.093872e+000
1.885948e+003,5.107651e+000
1.886912e+003,4.879654e+000
1.887876e+003,4.505981e+000
1.888841e+003,4.004463e+000
1.889805e+003,3.482986e+000
1.890769e+003,2.817818e+000
1.891733e+003,2.863243e+000
1.892698e+003,3.996475e+000
1.893662e+003,5.064133e+000
1.894626e+003,5.955170e+000
1.895590e+003,6.323502e+000
1.896554e+003,5.596596e+000
1.897519e+003,4.507225e+000
1.898483e+003,3.664627e+000
1.899447e+003,3.174164e+000
1.900411e+003,3.587837e+000
1.901376e+003,5.100662e+000
1.902340e+003,5.864723e+000
1.903304e+003,4.726357e+000
1.904268e+003,3.387917e+000
1.905233e+003,2.667458e+000
1.906197e+003,2.477982e+000
1.907161e+003,2.979469e+000
1.908125e+003,3.832062e+000
1.909090e+003,4.359695e+000
1.910054e+003,4.597435e+000
1.911018e+003,5.334900e+000
1.911982e+003,6.698898e+000
1.912947e+003,7.324867e+000
1.913911e+003,6.199593e+000
1.914875e+003,4.499374e+000
1.915839e+003,4.076767e+000
1.916803e+003,4.603317e+000
1.917768e+003,4.496864e+000
1.918732e+003,3.625412e+000
1.919696e+003,3.205956e+000
1.920660e+003,3.537796e+000
1.921625e+003,3.518944e+000
1.922589e+003,2.200172e+000
1.923553e+003,1.595573e+000
1.924517e+003,3.502327e+000
1.925481e+003,5.943130e+000
1.926446e+003,7.476212e+000
1.927410e+003,8.181885e+000
1.928374e+003,7.961548e+000
1.929338e+003,6.936905e+000
1.930303e+003,6.687134e+000
1.931267e+003,8.035851e+000
1.932231e+003,8.983543e+000
1.933195e+003,8.434242e+000
1.934160e+003,7.331505e+000
1.935124e+003,5.878044e+000
1.936088e+003,4.627403e+000
1.937052e+003,4.376099e+000
1.938017e+003,4.858177e+000
1.938981e+003,5.574615e+000
1.939945e+003,6.230286e+000
1.940909e+003,6.226326e+000
1.941874e+003,5.371033e+000
1.942838e+003,4.584587e+000
1.943802e+003,4.756958e+000
1.944766e+003,5.567566e+000
1.945730e+003,6.447723e+000
1.946695e+003,7.274818e+000
1.947659e+003,7.008652e+000
1.948623e+003,5.466576e+000
1.949587e+003,4.837273e+000
1.950552e+003,5.499680e+000
1.951516e+003,6.650055e+000
1.952480e+003,8.552544e+000
1.953444e+003,9.719643e+000
1.954408e+003,8.564888e+000
1.955373e+003,6.598618e+000
1.956337e+003,5.902916e+000
1.957301e+003,6.256462e+000
1.958265e+003,6.951431e+000
1.959230e+003,8.124016e+000
1.960194e+003,8.346077e+000
1.961158e+003,6.251892e+000
1.962122e+003,4.857773e+000
1.963087e+003,5.575005e+000
1.964051e+003,6.432144e+000
1.965015e+003,6.198875e+000
1.965979e+003,5.716972e+000
1.966944e+003,5.851028e+000
1.967908e+003,6.389587e+000
1.968872e+003,6.835152e+000
1.969836e+003,7.108940e+000
1.970801e+003,7.424858e+000
1.971765e+003,7.863739e+000
1.972729e+003,8.106804e+000
1.973693e+003,7.774559e+000
1.974657e+003,7.417915e+000
1.975622e+003,8.123711e+000
1.976586e+003,9.337326e+000
1.977550e+003,9.544952e+000
1.978514e+003,8.870438e+000
1.979479e+003,7.950706e+000
1.980443e+003,6.938194e+000
1.981407e+003,6.710709e+000
1.982371e+003,7.644539e+000
1.983335e+003,8.780312e+000
1.984300e+003,9.409454e+000
1.985264e+003,9.660591e+000
1.986228e+003,9.733292e+000
1.987192e+003,9.634163e+000
1.988157e+003,9.365868e+000
1.989121e+003,8.803497e+000
1.990085e+003,8.855125e+000
1.991049e+003,1.028476e+001
1.992014e+003,1.082155e+001
1.992978e+003,9.321510e+000
1.993942e+003,8.045967e+000
1.994906e+003,7.766495e+000
1.995871e+003,7.976891e+000
1.996835e+003,8.819847e+000
1.997799e+003,9.639435e+000
1.998763e+003,9.103271e+000
1.999728e+003,7.599602e+000
