5.003444e+002,2.522791e+001
5.013087e+002,2.706616e+001
5.022729e+002,2.829346e+001
5.032371e+002,2.896350e+001
5.042014e+002,2.790082e+001
5.051656e+002,2.551221e+001
5.061298e+002,2.359290e+001
5.070941e+002,2.384424e+001
5.080583e+002,2.682257e+001
5.090225e+002,2.744244e+001
5.099868e+002,2.437646e+001
5.109510e+002,2.113318e+001
5.119152e+002,1.943176e+001
5.128795e+002,1.944220e+001
5.138437e+002,2.008380e+001
5.148079e+002,2.230304e+001
5.157722e+002,2.406818e+001
5.167364e+002,2.407867e+001
5.177006e+002,2.228925e+001
5.186649e+002,1.987738e+001
5.196291e+002,1.837262e+001
5.205933e+002,1.778070e+001
5.215576e+002,1.774573e+001
5.225218e+002,1.785889e+001
5.234860e+002,1.770526e+001
5.244503e+002,1.694397e+001
5.254145e+002,1.588141e+001
5.263787e+002,1.456836e+001
5.273430e+002,1.232904e+001
5.283072e+002,1.028064e+001
5.292714e+002,1.014825e+001
5.302357e+002,1.310632e+001
5.311999e+002,1.414404e+001
5.321641e+002,1.205957e+001
5.331284e+002,9.518677e+000
5.340926e+002,8.376343e+000
5.350568e+002,9.161072e+000
5.360211e+002,1.035138e+001
5.369853e+002,1.182379e+001
5.379495e+002,1.303717e+001
5.389138e+002,1.302655e+001
5.398780e+002,1.150983e+001
5.408422e+002,9.180908e+000
5.418065e+002,8.190857e+000
5.427707e+002,8.330872e+000
5.437349e+002,8.181763e+000
5.446992e+002,7.141174e+000
5.456634e+002,5.602478e+000
5.466276e+002,5.123169e+000
5.475919e+002,7.769287e+000
5.485561e+002,9.194397e+000
5.495203e+002,8.036072e+000
5.504846e+002,5.667786e+000
5.514488e+002,4.168091e+000
5.524130e+002,4.541443e+000
5.533773e+002,5.909424e+000
5.543415e+002,8.297607e+000
5.553057e+002,1.089069e+001
5.562700e+002,1.296716e+001
5.572342e+002,1.402374e+001
5.581984e+002,1.386835e+001
5.591627e+002,1.174298e+001
5.601269e+002,8.642151e+000
5.610911e+002,6.030884e+000
5.620554e+002,4.528015e+000
5.630196e+002,3.954407e+000
5.639838e+002,4.100708e+000
5.649481e+002,6.071167e+000
5.659123e+002,7.208435e+000
5.668765e+002,7.284912e+000
5.678408e+002,6.732605e+000
5.688050e+002,6.147461e+000
5.697692e+002,5.020630e+000
5.707335e+002,3.535034e+000
5.716977e+002,1.832825e+000
5.726619e+002,1.079102e-001
5.736262e+002,-1.478943e+000
5.745904e+002,-2.816223e+000
5.755546e+002,-3.587708e+000
5.765189e+002,-3.662415e+000
5.774831e+002,-3.505554e+000
5.784473e+002,-3.425354e+000
5.794116e+002,-3.475403e+000
5.803758e+002,-3.389404e+000
5.813400e+002,-2.938293e+000
5.823043e+002,-2.513489e+000
5.832685e+002,-2.311829e+000
5.842327e+002,-2.241577e+000
5.851970e+002,-1.989075e+000
5.861612e+002,-1.060364e+000
5.871254e+002,1.640564e+000
5.880897e+002,3.282654e+000
5.890539e+002,2.166016e+000
5.900181e+002,-3.666992e-001
5.909824e+002,-1.799438e+000
5.919466e+002,4.449463e-002
5.929108e+002,2.482727e+000
5.938751e+002,2.422607e+000
5.948393e+002,9.053345e-001
5.958035e+002,-3.992920e-001
5.967678e+002,-2.248535e-001
5.977320e+002,1.259705e+000
5.986962e+002,1.376343e+000
5.996605e+002,-2.968140e-001
6.006247e+002,-1.932800e+000
6.015889e+002,-2.731018e+000
6.025532e+002,-2.677856e+000
6.035174e+002,-2.309204e+000
6.044816e+002,-6.242676e-001
6.054459e+002,3.935547e-001
6.064101e+002,-2.159424e-001
6.073743e+002,-1.623901e+000
6.083386e+002,-2.171997e+000
6.093028e+002,-4.669800e-001
6.102670e+002,1.415222e+000
6.112313e+002,1.670410e+000
6.121955e+002,1.012634e+000
6.131597e+002,4.610596e-001
6.141240e+002,6.846313e-001
6.150882e+002,1.259155e+000
6.160524e+002,-3.955078e-002
6.170167e+002,-2.678955e+000
6.179809e+002,-3.823242e+000
6.189451e+002,-1.925781e+000
6.199094e+002,2.326721e+000
6.208736e+002,4.995544e+000
6.218378e+002,5.687073e+000
6.228021e+002,5.800537e+000
6.237663e+002,5.184509e+000
6.247305e+002,4.244629e+000
6.256948e+002,3.481445e+000
6.266590e+002,2.956665e+000
6.276232e+002,1.930542e+000
6.285875e+002,-4.127808e-001
6.295517e+002,-2.656494e+000
6.305159e+002,-3.269165e+000
6.314802e+002,-1.579407e+000
6.324444e+002,1.284973e+000
6.334086e+002,3.231567e+000
6.343729e+002,4.627258e+000
6.353371e+002,5.045227e+000
6.363013e+002,4.124939e+000
6.372656e+002,2.069153e+000
6.382298e+002,-9.350586e-002
6.391940e+002,-2.597168e+000
6.401583e+002,-5.184692e+000
6.411225e+002,-8.106262e+000
6.420867e+002,-1.023993e+001
6.430510e+002,-1.020764e+001
6.440152e+002,-7.277771e+000
6.449794e+002,-4.746094e+000
6.459437e+002,-4.424805e+000
6.469079e+002,-4.986694e+000
6.478721e+002,-5.198547e+000
6.488364e+002,-4.630310e+000
6.498006e+002,-4.074768e+000
6.507648e+002,-5.891968e+000
6.517291e+002,-8.965637e+000
6.526933e+002,-9.874939e+000
6.536575e+002,-7.888611e+000
6.546218e+002,-4.675171e+000
6.555860e+002,-3.437561e+000
6.565502e+002,-5.436768e+000
6.575145e+002,-7.078430e+000
6.584787e+002,-8.954102e+000
6.594429e+002,-1.003320e+001
6.604072e+002,-9.047302e+000
6.613714e+002,-5.557373e+000
6.623356e+002,-2.519775e+000
6.632999e+002,-1.179993e+000
6.642641e+002,-1.234314e+000
6.652283e+002,-3.449341e+000
6.661926e+002,-6.884216e+000
6.671568e+002,-9.149963e+000
6.681210e+002,-7.092651e+000
6.690853e+002,-2.408203e+000
6.700495e+002,7.025146e-001
6.710137e+002,2.176697e+000
6.719780e+002,2.584778e+000
6.729422e+002,2.423950e+000
6.739064e+002,1.436401e+000
6.748707e+002,5.465088e-001
6.758349e+002,1.007080e-001
6.767991e+002,-8.002319e-001
6.777634e+002,-2.932556e+000
6.787276e+002,-5.699463e+000
6.796918e+002,-6.569763e+000
6.806561e+002,-3.624512e+000
6.816203e+002,-2.125244e-001
6.825845e+002,3.423157e+000
6.835488e+002,6.436340e+000
6.845130e+002,7.477539e+000
6.854772e+002,5.405029e+000
6.864415e+002,2.169922e+000
6.874057e+002,1.731079e+000
6.883699e+002,2.896057e+000
6.893342e+002,3.748230e+000
6.902984e+002,3.334900e+000
6.912626e+002,1.934204e+000
6.922269e+002,6.773071e-001
6.931911e+002,3.511963e-001
6.941553e+002,1.633911e-001
6.951196e+002,-3.089600e-001
6.960838e+002,-1.208313e+000
6.970480e+002,-2.580872e+000
6.980123e+002,-4.586609e+000
6.989765e+002,-6.118530e+000
6.999407e+002,-7.234985e+000
7.009050e+002,-7.654175e+000
7.018692e+002,-6.890991e+000
7.028334e+002,-4.968506e+000
7.037977e+002,-2.680481e+000
7.047619e+002,-6.270752e-001
7.057261e+002,1.047546e+000
7.066904e+002,9.286499e-001
7.076546e+002,-1.238342e+000
7.086188e+002,-3.689697e+000
7.095831e+002,-3.477966e+000
7.105473e+002,7.561646e-001
7.115115e+002,2.627441e+000
7.124758e+002,2.642212e-001
7.134400e+002,-2.332703e+000
7.144042e+002,-1.889160e+000
7.153685e+002,1.701843e+000
7.163327e+002,3.604980e+000
7.172969e+002,-1.387207e+000
7.182612e+002,-5.674927e+000
7.192254e+002,-5.634644e+000
7.201896e+002,-2.587769e+000
7.211539e+002,3.435669e-001
7.221181e+002,6.177979e-001
7.230823e+002,-8.420410e-001
7.240466e+002,-1.280762e+000
7.250108e+002,-6.636963e-001
7.259750e+002,-3.686523e-002
7.269393e+002,-3.911133e-001
7.279035e+002,-1.930908e+000
7.288677e+002,-3.142944e+000
7.298320e+002,-3.055298e+000
7.307962e+002,-2.245117e+000
7.317604e+002,3.790283e-002
7.327247e+002,2.819275e+000
7.336889e+002,4.407898e+000
7.346531e+002,3.615112e+000
7.356174e+002,1.744080e+000
7.365816e+002,-5.217285e-001
7.375458e+002,-2.047485e+000
7.385101e+002,-1.433167e+000
7.394743e+002,1.271912e+000
7.404385e+002,4.228638e+000
7.414028e+002,4.200439e+000
7.423670e+002,1.204468e+000
7.433312e+002,-5.166626e-001
7.442955e+002,-2.398682e-002
7.452597e+002,1.348938e+000
7.462239e+002,1.545105e+000
7.471882e+002,-3.979492e-001
7.481524e+002,5.487061e-002
7.491166e+002,4.202271e+000
7.500809e+002,7.721008e+000
7.510451e+002,9.221741e+000
7.520093e+002,8.788757e+000
7.529736e+002,7.129395e+000
7.539378e+002,4.085876e+000
7.549020e+002,1.608215e+000
7.558663e+002,7.354126e-001
7.568306e+002,1.021973e+000
7.577948e+002,1.875916e+000
7.587590e+002,2.779053e+000
7.597233e+002,3.446411e+000
7.606875e+002,3.866516e+000
7.616517e+002,4.312073e+000
7.626160e+002,4.352539e+000
7.635802e+002,3.777832e+000
7.645444e+002,3.002075e+000
7.655087e+002,2.802917e+000
7.664729e+002,3.326782e+000
7.674371e+002,3.899292e+000
7.684014e+002,4.783264e+000
7.693656e+002,5.351135e+000
7.703298e+002,5.197693e+000
7.712941e+002,4.359558e+000
7.722583e+002,3.276611e+000
7.732225e+002,1.649658e+000
7.741868e+002,4.993896e-001
7.751510e+002,6.088867e-001
7.761152e+002,1.907410e+000
7.770795e+002,4.343262e+000
7.780437e+002,7.857117e+000
7.790079e+002,1.190961e+001
7.799722e+002,1.188232e+001
7.809364e+002,7.395264e+000
7.819006e+002,3.852783e+000
7.828649e+002,4.420593e+000
7.838291e+002,7.911133e+000
7.847933e+002,9.569458e+000
7.857576e+002,7.178650e+000
7.867218e+002,5.262756e+000
7.876860e+002,5.336426e+000
7.886503e+002,6.333191e+000
7.896145e+002,7.717712e+000
7.905787e+002,9.191650e+000
7.915430e+002,9.935364e+000
7.925072e+002,7.297791e+000
7.934714e+002,3.899109e+000
7.944357e+002,4.000793e+000
7.953999e+002,7.462952e+000
7.963641e+002,1.067242e+001
7.973284e+002,9.276306e+000
7.982926e+002,2.829712e+000
7.992568e+002,6.624756e-001
8.002211e+002,3.424622e+000
8.011853e+002,6.218262e+000
8.021495e+002,8.536133e+000
8.031138e+002,1.063135e+001
8.040780e+002,1.143384e+001
8.050422e+002,8.338928e+000
8.060065e+002,6.899475e+000
8.069707e+002,9.928772e+000
8.079349e+002,1.414594e+001
8.088992e+002,1.661481e+001
8.098634e+002,1.642767e+001
8.108276e+002,1.503400e+001
8.117919e+002,1.385492e+001
8.127561e+002,1.218054e+001
8.137203e+002,9.980591e+000
8.146846e+002,7.642761e+000
8.156488e+002,4.974670e+000
8.166130e+002,1.128784e+000
8.175773e+002,-4.879456e+000
8.185415e+002,-6.603699e+000
8.195057e+002,-1.632996e+000
8.204700e+002,3.036621e+000
8.214342e+002,5.045837e+000
8.223984e+002,4.994629e+000
8.233627e+002,4.659180e+000
8.243269e+002,4.411255e+000
8.252911e+002,4.766357e+000
8.262554e+002,6.218140e+000
8.272196e+002,8.037354e+000
8.281838e+002,9.583313e+000
8.291481e+002,1.052368e+001
8.301123e+002,1.077216e+001
8.310765e+002,9.951416e+000
8.320408e+002,8.116577e+000
8.330050e+002,7.197449e+000
8.339692e+002,7.516785e+000
8.349335e+002,8.388123e+000
8.358977e+002,9.237671e+000
8.368619e+002,1.023181e+001
8.378262e+002,1.167712e+001
8.387904e+002,1.344696e+001
8.397546e+002,1.519427e+001
8.407189e+002,1.782281e+001
8.416831e+002,2.020966e+001
8.426473e+002,2.006421e+001
8.436116e+002,1.584589e+001
8.445758e+002,1.141901e+001
8.455400e+002,1.073285e+001
8.465043e+002,1.142645e+001
8.474685e+002,1.146820e+001
8.484327e+002,1.058124e+001
8.493970e+002,9.787048e+000
8.503612e+002,1.034546e+001
8.513254e+002,1.237750e+001
8.522897e+002,1.372137e+001
8.532539e+002,1.446844e+001
8.542181e+002,1.406903e+001
8.551824e+002,1.134039e+001
8.561466e+002,7.234619e+000
8.571108e+002,6.823120e+000
8.580751e+002,1.370911e+001
8.590393e+002,1.919843e+001
8.600035e+002,2.019971e+001
8.609678e+002,1.924268e+001
8.619320e+002,1.912738e+001
8.628962e+002,2.094806e+001
8.638605e+002,2.350513e+001
8.648247e+002,2.537927e+001
8.657889e+002,2.645880e+001
8.667532e+002,2.638446e+001
8.677174e+002,2.511041e+001
8.686816e+002,2.370343e+001
8.696459e+002,2.356433e+001
8.706101e+002,2.516266e+001
8.715743e+002,2.605029e+001
8.725386e+002,2.541205e+001
8.735028e+002,2.524841e+001
8.744670e+002,2.612787e+001
8.754313e+002,2.725372e+001
8.763955e+002,2.737006e+001
8.773597e+002,2.601666e+001
8.783240e+002,2.459338e+001
8.792882e+002,2.394269e+001
8.802524e+002,2.346954e+001
8.812167e+002,2.245630e+001
8.821809e+002,2.100073e+001
8.831451e+002,2.010889e+001
8.841094e+002,2.121704e+001
8.850736e+002,2.452881e+001
8.860378e+002,2.745581e+001
8.870021e+002,2.984711e+001
8.879663e+002,3.170746e+001
8.889305e+002,3.270929e+001
8.898948e+002,3.288910e+001
8.908590e+002,3.303461e+001
8.918232e+002,3.355524e+001
8.927875e+002,3.408490e+001
8.937517e+002,3.415906e+001
8.947159e+002,3.450214e+001
8.956802e+002,3.582697e+001
8.966444e+002,3.789063e+001
8.976086e+002,3.939954e+001
8.985729e+002,3.954034e+001
8.995371e+002,3.854413e+001
9.005013e+002,3.528809e+001
9.014656e+002,3.080072e+001
9.024298e+002,2.930890e+001
9.033940e+002,3.423285e+001
9.043583e+002,4.406268e+001
9.053225e+002,4.902698e+001
9.062867e+002,4.355878e+001
9.072510e+002,3.954883e+001
9.082152e+002,3.907190e+001
9.091794e+002,3.979535e+001
9.101437e+002,3.868207e+001
9.111079e+002,3.517841e+001
9.120721e+002,3.342279e+001
9.130364e+002,3.761243e+001
9.140006e+002,4.219434e+001
9.149648e+002,4.495203e+001
9.159291e+002,4.591791e+001
9.168933e+002,4.519586e+001
9.178575e+002,4.274139e+001
9.188218e+002,3.907404e+001
9.197860e+002,3.651373e+001
9.207502e+002,3.482092e+001
9.217145e+002,3.451300e+001
9.226787e+002,3.730493e+001
9.236429e+002,4.091943e+001
9.246072e+002,4.160547e+001
9.255714e+002,3.838519e+001
9.265356e+002,3.592126e+001
9.274999e+002,3.566937e+001
9.284641e+002,3.520392e+001
9.294283e+002,3.320709e+001
9.303926e+002,3.080011e+001
9.313568e+002,3.047919e+001
9.323210e+002,3.369440e+001
9.332853e+002,3.712531e+001
9.342495e+002,3.369745e+001
9.352137e+002,2.711914e+001
9.361780e+002,2.352582e+001
9.371422e+002,2.449927e+001
9.381064e+002,2.748096e+001
9.390707e+002,2.859204e+001
9.400349e+002,2.689734e+001
9.409991e+002,2.708191e+001
9.419634e+002,3.027032e+001
9.429276e+002,3.341260e+001
9.438918e+002,3.629639e+001
9.448561e+002,3.861108e+001
9.458203e+002,4.001489e+001
9.467845e+002,4.057660e+001
9.477488e+002,4.005212e+001
9.487130e+002,3.660016e+001
9.496772e+002,3.300330e+001
9.506415e+002,3.159222e+001
9.516057e+002,3.237238e+001
9.525699e+002,3.401031e+001
9.535342e+002,3.517450e+001
9.544984e+002,3.571649e+001
9.554626e+002,3.539441e+001
9.564269e+002,3.431689e+001
9.573911e+002,3.446930e+001
9.583553e+002,3.726880e+001
9.593196e+002,4.097876e+001
9.602838e+002,4.255847e+001
9.612480e+002,4.117865e+001
9.622123e+002,4.013135e+001
9.631765e+002,4.126489e+001
9.641407e+002,4.231805e+001
9.651050e+002,4.203314e+001
9.660692e+002,4.056793e+001
9.670334e+002,3.857581e+001
9.679977e+002,3.663660e+001
9.689619e+002,3.553961e+001
9.699261e+002,3.704285e+001
9.708904e+002,3.994769e+001
9.718546e+002,4.165253e+001
9.728188e+002,4.130096e+001
9.737831e+002,4.007928e+001
9.747473e+002,3.970313e+001
9.757115e+002,4.048285e+001
9.766758e+002,4.115747e+001
9.776400e+002,4.310883e+001
9.786042e+002,4.388635e+001
9.795685e+002,4.138660e+001
9.805327e+002,3.750604e+001
9.814969e+002,3.517212e+001
9.824612e+002,3.560699e+001
9.834254e+002,3.707092e+001
9.843896e+002,3.776099e+001
9.853539e+002,3.796747e+001
9.863181e+002,3.828168e+001
9.872823e+002,3.836713e+001
9.882466e+002,3.737531e+001
9.892108e+002,3.488733e+001
9.901750e+002,3.182117e+001
9.911393e+002,3.118640e+001
9.921035e+002,3.262567e+001
9.930677e+002,3.526569e+001
9.940320e+002,4.040393e+001
9.949962e+002,4.647974e+001
9.959604e+002,5.201117e+001
9.969247e+002,5.697241e+001
9.978889e+002,6.248511e+001
9.988531e+002,7.034619e+001
9.998174e+002,7.584454e+001
1.000782e+003,7.480127e+001
1.001746e+003,7.090961e+001
1.002710e+003,6.963623e+001
1.003674e+003,7.312518e+001
1.004639e+003,7.853552e+001
1.005603e+003,8.084845e+001
1.006567e+003,7.955957e+001
1.007531e+003,7.922443e+001
1.008495e+003,8.024695e+001
1.009460e+003,8.148718e+001
1.010424e+003,8.269763e+001
1.011388e+003,8.379779e+001
1.012352e+003,8.403467e+001
1.013317e+003,8.293329e+001
1.014281e+003,8.113678e+001
1.015245e+003,7.898993e+001
1.016209e+003,7.596454e+001
1.017174e+003,7.200275e+001
1.018138e+003,6.697949e+001
1.019102e+003,5.996930e+001
1.020066e+003,4.977271e+001
1.021031e+003,3.915918e+001
1.021995e+003,3.675757e+001
1.022959e+003,4.045209e+001
1.023923e+003,4.277069e+001
1.024887e+003,4.111932e+001
1.025852e+003,3.711359e+001
1.026816e+003,3.332635e+001
1.027780e+003,3.009076e+001
1.028744e+003,2.698218e+001
1.029709e+003,2.198700e+001
1.030673e+003,1.924579e+001
1.031637e+003,2.208337e+001
1.032601e+003,2.684485e+001
1.033566e+003,2.832489e+001
1.034530e+003,2.488055e+001
1.035494e+003,2.022107e+001
1.036458e+003,1.749255e+001
1.037422e+003,1.654779e+001
1.038387e+003,1.779889e+001
1.039351e+003,2.083105e+001
1.040315e+003,2.351855e+001
1.041279e+003,2.440741e+001
1.042244e+003,2.396698e+001
1.043208e+003,2.371222e+001
1.044172e+003,2.352167e+001
1.045136e+003,2.291986e+001
1.046101e+003,2.145276e+001
1.047065e+003,2.040625e+001
1.048029e+003,2.097375e+001
1.048993e+003,2.258929e+001
1.049958e+003,2.336139e+001
1.050922e+003,2.243951e+001
1.051886e+003,2.101392e+001
1.052850e+003,1.957861e+001
1.053814e+003,1.859357e+001
1.054779e+003,1.886072e+001
1.055743e+003,2.041315e+001
1.056707e+003,2.259180e+001
1.057671e+003,2.468140e+001
1.058636e+003,2.660510e+001
1.059600e+003,2.773395e+001
1.060564e+003,2.866748e+001
1.061528e+003,2.899292e+001
1.062493e+003,2.783856e+001
1.063457e+003,2.581952e+001
1.064421e+003,2.366486e+001
1.065385e+003,2.164276e+001
1.066349e+003,2.022943e+001
1.067314e+003,2.008295e+001
1.068278e+003,2.019147e+001
1.069242e+003,1.960236e+001
1.070206e+003,1.901892e+001
1.071171e+003,1.965881e+001
1.072135e+003,2.172491e+001
1.073099e+003,2.382312e+001
1.074063e+003,2.379456e+001
1.075028e+003,2.146265e+001
1.075992e+003,2.154578e+001
1.076956e+003,2.626422e+001
1.077920e+003,2.872815e+001
1.078885e+003,2.499500e+001
1.079849e+003,1.841199e+001
1.080813e+003,1.474677e+001
1.081777e+003,1.501813e+001
1.082741e+003,1.709711e+001
1.083706e+003,2.158252e+001
1.084670e+003,2.541168e+001
1.085634e+003,2.635876e+001
1.086598e+003,2.539056e+001
1.087563e+003,2.498535e+001
1.088527e+003,2.657886e+001
1.089491e+003,2.872290e+001
1.090455e+003,2.768939e+001
1.091420e+003,2.271710e+001
1.092384e+003,2.097534e+001
1.093348e+003,2.400519e+001
1.094312e+003,2.679041e+001
1.095276e+003,2.651196e+001
1.096241e+003,2.422180e+001
1.097205e+003,2.231207e+001
1.098169e+003,2.067261e+001
1.099133e+003,1.962616e+001
1.100098e+003,2.008459e+001
1.101062e+003,2.073785e+001
1.102026e+003,2.081384e+001
1.102990e+003,2.042133e+001
1.103955e+003,1.973029e+001
1.104919e+003,1.880298e+001
1.105883e+003,1.820514e+001
1.106847e+003,1.958264e+001
1.107812e+003,2.292108e+001
1.108776e+003,2.558075e+001
1.109740e+003,2.750146e+001
1.110704e+003,2.866949e+001
1.111668e+003,2.867157e+001
1.112633e+003,2.825989e+001
1.113597e+003,2.998047e+001
1.114561e+003,3.507874e+001
1.115525e+003,3.912921e+001
1.116490e+003,4.080023e+001
1.117454e+003,4.104572e+001
1.118418e+003,3.984125e+001
1.119382e+003,3.823370e+001
1.120347e+003,3.796387e+001
1.121311e+003,3.977704e+001
1.122275e+003,4.177252e+001
1.123239e+003,4.056982e+001
1.124203e+003,3.709857e+001
1.125168e+003,3.687714e+001
1.126132e+003,4.155225e+001
1.127096e+003,4.657373e+001
1.128060e+003,4.728882e+001
1.129025e+003,4.491516e+001
1.129989e+003,4.641333e+001
1.130953e+003,5.457690e+001
1.131917e+003,6.082013e+001
1.132882e+003,6.218652e+001
1.133846e+003,6.224268e+001
1.134810e+003,6.254230e+001
1.135774e+003,6.351062e+001
1.136739e+003,6.466724e+001
1.137703e+003,6.576898e+001
1.138667e+003,6.854395e+001
1.139631e+003,7.732190e+001
1.140595e+003,9.102380e+001
1.141560e+003,1.004348e+002
1.142524e+003,1.042487e+002
1.143488e+003,1.081410e+002
1.144452e+003,1.153389e+002
1.145417e+003,1.254985e+002
1.146381e+003,1.374528e+002
1.147345e+003,1.510647e+002
1.148309e+003,1.664810e+002
1.149274e+003,1.854088e+002
1.150238e+003,2.046725e+002
1.151202e+003,2.234475e+002
1.152166e+003,2.415406e+002
1.153130e+003,2.593770e+002
1.154095e+003,2.765753e+002
1.155059e+003,2.903699e+002
1.156023e+003,2.972806e+002
1.156987e+003,2.976080e+002
1.157952e+003,2.956193e+002
1.158916e+003,2.922292e+002
1.159880e+003,2.860989e+002
1.160844e+003,2.754037e+002
1.161809e+003,2.604271e+002
1.162773e+003,2.424464e+002
1.163737e+003,2.207243e+002
1.164701e+003,1.996265e+002
1.165666e+003,1.778037e+002
1.166630e+003,1.601079e+002
1.167594e+003,1.500946e+002
1.168558e+003,1.445113e+002
1.169522e+003,1.386212e+002
1.170487e+003,1.312652e+002
1.171451e+003,1.262257e+002
1.172415e+003,1.282199e+002
1.173379e+003,1.353046e+002
1.174344e+003,1.375903e+002
1.175308e+003,1.352264e+002
1.176272e+003,1.320317e+002
1.177236e+003,1.289177e+002
1.178201e+003,1.260726e+002
1.179165e+003,1.239469e+002
1.180129e+003,1.222712e+002
1.181093e+003,1.183610e+002
1.182057e+003,1.099741e+002
1.183022e+003,1.022020e+002
1.183986e+003,9.630658e+001
1.184950e+003,9.229218e+001
1.185914e+003,9.056281e+001
1.186879e+003,9.088300e+001
1.187843e+003,9.261481e+001
1.188807e+003,9.517615e+001
1.189771e+003,9.775256e+001
1.190736e+003,9.819507e+001
1.191700e+003,9.622821e+001
1.192664e+003,9.434363e+001
1.193628e+003,9.303442e+001
1.194593e+003,9.196655e+001
1.195557e+003,9.075177e+001
1.196521e+003,8.944037e+001
1.197485e+003,8.864465e+001
1.198449e+003,8.900690e+001
1.199414e+003,8.834601e+001
1.200378e+003,8.552069e+001
1.201342e+003,8.157581e+001
1.202306e+003,7.573328e+001
1.203271e+003,6.926172e+001
1.204235e+003,6.505511e+001
1.205199e+003,6.434937e+001
1.206163e+003,6.455640e+001
1.207128e+003,6.107880e+001
1.208092e+003,5.368652e+001
1.209056e+003,4.867877e+001
1.210020e+003,4.731897e+001
1.210984e+003,4.543817e+001
1.211949e+003,4.100610e+001
1.212913e+003,3.576855e+001
1.213877e+003,3.208124e+001
1.214841e+003,3.020190e+001
1.215806e+003,2.915759e+001
1.216770e+003,2.956085e+001
1.217734e+003,2.889545e+001
1.218698e+003,2.433862e+001
1.219663e+003,1.827954e+001
1.220627e+003,1.356647e+001
1.221591e+003,1.080634e+001
1.222555e+003,9.031433e+000
1.223520e+003,7.417542e+000
1.224484e+003,6.254578e+000
1.225448e+003,6.220459e+000
1.226412e+003,7.820801e+000
1.227376e+003,9.316345e+000
1.228341e+003,1.127075e+001
1.229305e+003,1.224756e+001
1.230269e+003,1.091101e+001
1.231233e+003,8.151184e+000
1.232198e+003,5.876892e+000
1.233162e+003,4.747986e+000
1.234126e+003,4.063965e+000
1.235090e+003,3.005737e+000
1.236055e+003,1.986206e+000
1.237019e+003,1.151184e+000
1.237983e+003,6.847534e-001
1.238947e+003,1.569702e+000
1.239911e+003,4.363464e+000
1.240876e+003,7.853577e+000
1.241840e+003,1.015161e+001
1.242804e+003,1.127478e+001
1.243768e+003,1.134467e+001
1.244733e+003,8.314636e+000
1.245697e+003,7.048340e+000
1.246661e+003,8.396851e+000
1.247625e+003,1.049536e+001
1.248590e+003,1.225391e+001
1.249554e+003,1.395081e+001
1.250518e+003,1.687726e+001
1.251482e+003,2.166687e+001
1.252447e+003,2.496942e+001
1.253411e+003,2.127106e+001
1.254375e+003,1.446802e+001
1.255339e+003,1.271851e+001
1.256303e+003,1.640393e+001
1.257268e+003,2.160065e+001
1.258232e+003,2.663660e+001
1.259196e+003,3.025037e+001
1.260160e+003,2.944611e+001
1.261125e+003,2.327118e+001
1.262089e+003,2.074854e+001
1.263053e+003,2.496722e+001
1.264017e+003,2.970825e+001
1.264982e+003,3.520813e+001
1.265946e+003,3.962000e+001
1.266910e+003,4.083691e+001
1.267874e+003,3.926959e+001
1.268839e+003,3.722656e+001
1.269803e+003,3.626056e+001
1.270767e+003,3.551532e+001
1.271731e+003,3.324725e+001
1.272695e+003,2.965533e+001
1.273660e+003,2.651483e+001
1.274624e+003,2.321356e+001
1.275588e+003,2.057080e+001
1.276552e+003,1.981085e+001
1.277517e+003,2.030072e+001
1.278481e+003,2.052826e+001
1.279445e+003,2.030200e+001
1.280409e+003,1.974164e+001
1.281374e+003,1.892120e+001
1.282338e+003,1.779285e+001
1.283302e+003,1.581256e+001
1.284266e+003,1.376764e+001
1.285230e+003,1.283075e+001
1.286195e+003,1.285687e+001
1.287159e+003,1.238019e+001
1.288123e+003,1.033331e+001
1.289087e+003,7.941345e+000
1.290052e+003,8.416260e+000
1.291016e+003,1.297394e+001
1.291980e+003,1.493445e+001
1.292944e+003,1.115961e+001
1.293909e+003,8.438049e+000
1.294873e+003,1.199988e+001
1.295837e+003,1.720673e+001
1.296801e+003,1.634076e+001
1.297766e+003,8.932617e+000
1.298730e+003,2.969971e+000
1.299694e+003,2.667908e+000
1.300658e+003,4.793823e+000
1.301622e+003,6.693481e+000
1.302587e+003,8.359985e+000
1.303551e+003,9.638306e+000
1.304515e+003,1.059845e+001
1.305479e+003,1.117480e+001
1.306444e+003,1.112317e+001
1.307408e+003,1.037061e+001
1.308372e+003,8.841919e+000
1.309336e+003,5.423218e+000
1.310301e+003,4.672913e+000
1.311265e+003,1.058557e+001
1.312229e+003,1.485425e+001
1.313193e+003,1.348877e+001
1.314157e+003,1.016290e+001
1.315122e+003,8.815125e+000
1.316086e+003,9.727661e+000
1.317050e+003,1.074353e+001
1.318014e+003,1.061835e+001
1.318979e+003,9.961731e+000
1.319943e+003,9.393433e+000
1.320907e+003,9.177063e+000
1.321871e+003,1.025250e+001
1.322836e+003,1.285413e+001
1.323800e+003,1.435327e+001
1.324764e+003,1.225885e+001
1.325728e+003,8.897461e+000
1.326693e+003,8.383606e+000
1.327657e+003,1.068860e+001
1.328621e+003,1.254266e+001
1.329585e+003,1.478192e+001
1.330549e+003,1.549347e+001
1.331514e+003,1.049646e+001
1.332478e+003,4.719482e+000
1.333442e+003,3.868774e+000
1.334406e+003,7.438843e+000
1.335371e+003,1.119403e+001
1.336335e+003,1.248633e+001
1.337299e+003,1.190314e+001
1.338263e+003,1.026038e+001
1.339228e+003,7.236877e+000
1.340192e+003,6.376770e+000
1.341156e+003,9.669922e+000
1.342120e+003,1.200848e+001
1.343084e+003,1.189392e+001
1.344049e+003,1.064642e+001
1.345013e+003,9.232788e+000
1.345977e+003,8.140808e+000
1.346941e+003,7.924194e+000
1.347906e+003,8.786560e+000
1.348870e+003,9.912476e+000
1.349834e+003,1.063202e+001
1.350798e+003,1.074353e+001
1.351763e+003,1.031616e+001
1.352727e+003,9.475891e+000
1.353691e+003,8.197998e+000
1.354655e+003,6.202881e+000
1.355620e+003,4.868225e+000
1.356584e+003,6.735107e+000
1.357548e+003,1.133325e+001
1.358512e+003,1.303064e+001
1.359476e+003,9.860291e+000
1.360441e+003,7.224243e+000
1.361405e+003,7.699768e+000
1.362369e+003,8.089722e+000
1.363333e+003,6.370544e+000
1.364298e+003,3.826965e+000
1.365262e+003,2.249817e+000
1.366226e+003,2.168091e+000
1.367190e+003,3.342163e+000
1.368155e+003,5.616333e+000
1.369119e+003,8.150757e+000
1.370083e+003,8.192688e+000
1.371047e+003,4.885437e+000
1.372011e+003,3.577393e+000
1.372976e+003,4.631042e+000
1.373940e+003,6.313782e+000
1.374904e+003,9.204041e+000
1.375868e+003,1.190930e+001
1.376833e+003,1.219562e+001
1.377797e+003,1.010254e+001
1.378761e+003,7.801331e+000
1.379725e+003,6.112793e+000
1.380690e+003,5.111938e+000
1.381654e+003,5.933472e+000
1.382618e+003,7.110229e+000
1.383582e+003,5.276001e+000
1.384547e+003,1.076233e+000
1.385511e+003,4.245605e-001
1.386475e+003,7.042603e+000
1.387439e+003,1.537927e+001
1.388403e+003,1.622772e+001
1.389368e+003,9.580078e+000
1.390332e+003,5.678284e+000
1.391296e+003,5.797607e+000
1.392260e+003,7.237061e+000
1.393225e+003,1.040497e+001
1.394189e+003,1.328772e+001
1.395153e+003,1.489984e+001
1.396117e+003,1.541571e+001
1.397082e+003,1.495801e+001
1.398046e+003,1.392346e+001
1.399010e+003,1.338367e+001
1.399974e+003,1.415448e+001
1.400938e+003,1.514325e+001
1.401903e+003,1.387109e+001
1.402867e+003,1.022534e+001
1.403831e+003,9.417725e+000
1.404795e+003,1.324786e+001
1.405760e+003,1.644891e+001
1.406724e+003,1.648547e+001
1.407688e+003,1.427386e+001
1.408652e+003,1.066479e+001
1.409617e+003,6.740051e+000
1.410581e+003,5.027710e+000
1.411545e+003,6.700745e+000
1.412509e+003,9.801575e+000
1.413474e+003,1.326117e+001
1.414438e+003,1.577393e+001
1.415402e+003,1.532373e+001
1.416366e+003,1.270862e+001
1.417330e+003,1.111890e+001
1.418295e+003,1.199695e+001
1.419259e+003,1.355945e+001
1.420223e+003,1.292609e+001
1.421187e+003,1.056622e+001
1.422152e+003,1.139117e+001
1.423116e+003,1.740131e+001
1.424080e+003,2.166455e+001
1.425044e+003,2.026410e+001
1.426009e+003,1.814484e+001
1.426973e+003,1.741772e+001
1.427937e+003,1.699438e+001
1.428901e+003,1.495239e+001
1.429865e+003,1.186029e+001
1.430830e+003,1.074066e+001
1.431794e+003,1.335272e+001
1.432758e+003,1.711041e+001
1.433722e+003,1.715424e+001
1.434687e+003,1.350562e+001
1.435651e+003,1.291547e+001
1.436615e+003,1.601331e+001
1.437579e+003,1.878699e+001
1.438544e+003,2.139288e+001
1.439508e+003,2.339154e+001
1.440472e+003,2.468140e+001
1.441436e+003,2.555322e+001
1.442401e+003,2.640607e+001
1.443365e+003,2.714087e+001
1.444329e+003,2.661859e+001
1.445293e+003,2.365057e+001
1.446257e+003,2.039056e+001
1.447222e+003,2.126086e+001
1.448186e+003,2.541602e+001
1.449150e+003,2.893140e+001
1.450114e+003,3.186560e+001
1.451079e+003,3.211334e+001
1.452043e+003,2.644043e+001
1.453007e+003,1.947217e+001
1.453971e+003,1.793280e+001
1.454936e+003,2.099658e+001
1.455900e+003,2.275311e+001
1.456864e+003,2.176178e+001
1.457828e+003,2.087445e+001
1.458792e+003,2.179877e+001
1.459757e+003,2.296643e+001
1.460721e+003,2.343896e+001
1.461685e+003,2.309430e+001
1.462649e+003,2.130164e+001
1.463614e+003,1.834320e+001
1.464578e+003,1.704028e+001
1.465542e+003,2.029840e+001
1.466506e+003,2.571796e+001
1.467471e+003,2.596405e+001
1.468435e+003,1.978168e+001
1.469399e+003,1.693927e+001
1.470363e+003,1.990167e+001
1.471328e+003,2.264679e+001
1.472292e+003,2.329633e+001
1.473256e+003,2.310181e+001
1.474220e+003,2.358527e+001
1.475184e+003,2.461115e+001
1.476149e+003,2.511469e+001
1.477113e+003,2.459290e+001
1.478077e+003,2.346246e+001
1.479041e+003,2.235895e+001
1.480006e+003,2.195605e+001
1.480970e+003,2.386401e+001
1.481934e+003,2.850171e+001
1.482898e+003,3.205017e+001
1.483863e+003,3.441895e+001
1.484827e+003,3.577509e+001
1.485791e+003,3.578094e+001
1.486755e+003,3.572327e+001
1.487719e+003,3.667493e+001
1.488684e+003,3.816595e+001
1.489648e+003,3.898175e+001
1.490612e+003,3.894092e+001
1.491576e+003,3.923651e+001
1.492541e+003,4.041443e+001
1.493505e+003,4.279913e+001
1.494469e+003,4.820813e+001
1.495433e+003,5.558270e+001
1.496398e+003,6.058282e+001
1.497362e+003,6.278076e+001
1.498326e+003,6.436365e+001
1.499290e+003,6.525256e+001
1.500255e+003,6.687250e+001
1.501219e+003,7.121240e+001
1.502183e+003,7.793372e+001
1.503147e+003,8.533539e+001
1.504111e+003,9.292889e+001
1.505076e+003,1.018662e+002
1.506040e+003,1.139641e+002
1.507004e+003,1.266697e+002
1.507968e+003,1.363742e+002
1.508933e+003,1.450546e+002
1.509897e+003,1.565961e+002
1.510861e+003,1.723201e+002
1.511825e+003,1.919001e+002
1.512790e+003,2.150000e+002
1.513754e+003,2.407498e+002
1.514718e+003,2.687661e+002
1.515682e+003,2.986573e+002
1.516646e+003,3.270851e+002
1.517611e+003,3.550567e+002
1.518575e+003,3.795422e+002
1.519539e+003,4.002345e+002
1.520503e+003,4.172914e+002
1.521468e+003,4.310931e+002
1.522432e+003,4.406941e+002
1.523396e+003,4.445125e+002
1.524360e+003,4.426776e+002
1.525325e+003,4.373162e+002
1.526289e+003,4.299476e+002
1.527253e+003,4.192396e+002
1.528217e+003,4.020843e+002
1.529182e+003,3.786958e+002
1.530146e+003,3.570161e+002
1.531110e+003,3.411841e+002
1.532074e+003,3.183376e+002
1.533039e+003,2.826699e+002
1.534003e+003,2.447738e+002
1.534967e+003,2.073975e+002
1.535931e+003,1.730886e+002
1.536896e+003,1.436083e+002
1.537860e+003,1.194202e+002
1.538824e+003,1.006340e+002
1.539788e+003,8.694635e+001
1.540752e+003,7.660010e+001
1.541717e+003,6.759607e+001
1.542681e+003,6.021747e+001
1.543645e+003,5.495490e+001
1.544609e+003,5.329059e+001
1.545573e+003,5.107886e+001
1.546538e+003,4.683380e+001
1.547502e+003,4.292535e+001
1.548466e+003,4.073694e+001
1.549430e+003,3.981317e+001
1.550395e+003,3.976257e+001
1.551359e+003,3.999072e+001
1.552323e+003,3.957794e+001
1.553287e+003,3.828979e+001
1.554252e+003,3.687170e+001
1.555216e+003,3.597443e+001
1.556180e+003,3.519934e+001
1.557144e+003,3.354968e+001
1.558109e+003,3.113647e+001
1.559073e+003,2.939227e+001
1.560037e+003,2.790668e+001
1.561001e+003,2.680383e+001
1.561966e+003,2.740009e+001
1.562930e+003,2.822937e+001
1.563894e+003,2.733728e+001
1.564858e+003,2.526154e+001
1.565823e+003,2.364447e+001
1.566787e+003,2.277545e+001
1.567751e+003,2.214496e+001
1.568715e+003,2.149542e+001
1.569679e+003,2.142548e+001
1.570644e+003,2.307721e+001
1.571608e+003,2.535889e+001
1.572572e+003,2.565125e+001
1.573536e+003,2.407208e+001
1.574500e+003,2.298053e+001
1.575465e+003,2.321393e+001
1.576429e+003,2.373969e+001
1.577393e+003,2.355261e+001
1.578357e+003,2.291669e+001
1.579322e+003,2.256555e+001
1.580286e+003,2.266998e+001
1.581250e+003,2.318170e+001
1.582214e+003,2.415735e+001
1.583179e+003,2.525885e+001
1.584143e+003,2.659967e+001
1.585107e+003,2.718103e+001
1.586071e+003,2.515186e+001
1.587036e+003,2.212805e+001
1.588000e+003,2.242792e+001
1.588964e+003,2.692059e+001
1.589928e+003,3.106885e+001
1.590893e+003,3.133185e+001
1.591857e+003,3.022906e+001
1.592821e+003,3.223291e+001
1.593785e+003,3.657556e+001
1.594750e+003,3.785553e+001
1.595714e+003,3.461957e+001
1.596678e+003,3.243231e+001
1.597642e+003,3.401453e+001
1.598606e+003,3.669812e+001
1.599571e+003,3.955225e+001
1.600535e+003,4.169897e+001
1.601499e+003,4.108282e+001
1.602463e+003,3.817822e+001
1.603427e+003,3.618469e+001
1.604392e+003,3.643085e+001
1.605356e+003,3.782855e+001
1.606320e+003,3.998639e+001
1.607284e+003,4.224884e+001
1.608249e+003,4.303882e+001
1.609213e+003,4.238678e+001
1.610177e+003,3.821722e+001
1.611141e+003,2.756262e+001
1.612106e+003,1.997864e+001
1.613070e+003,2.353033e+001
1.614034e+003,2.867188e+001
1.614998e+003,2.803979e+001
1.615963e+003,2.445740e+001
1.616927e+003,2.299420e+001
1.617891e+003,2.431348e+001
1.618855e+003,2.619458e+001
1.619820e+003,2.732452e+001
1.620784e+003,2.730231e+001
1.621748e+003,2.559668e+001
1.622712e+003,2.311694e+001
1.623677e+003,2.254364e+001
1.624641e+003,2.413702e+001
1.625605e+003,2.665009e+001
1.626569e+003,3.046106e+001
1.627533e+003,3.220428e+001
1.628498e+003,2.883057e+001
1.629462e+003,2.490619e+001
1.630426e+003,2.510669e+001
1.631390e+003,2.746924e+001
1.632354e+003,2.682953e+001
1.633319e+003,2.220953e+001
1.634283e+003,1.774005e+001
1.635247e+003,1.626703e+001
1.636211e+003,1.709021e+001
1.637176e+003,2.029926e+001
1.638140e+003,2.566443e+001
1.639104e+003,2.653912e+001
1.640068e+003,2.079956e+001
1.641033e+003,1.749261e+001
1.641997e+003,2.126807e+001
1.642961e+003,2.480688e+001
1.643925e+003,2.345270e+001
1.644890e+003,2.089166e+001
1.645854e+003,2.066223e+001
1.646818e+003,2.230945e+001
1.647782e+003,2.385864e+001
1.648747e+003,2.466180e+001
1.649711e+003,2.558997e+001
1.650675e+003,2.790839e+001
1.651639e+003,3.035498e+001
1.652604e+003,2.900970e+001
1.653568e+003,2.390710e+001
1.654532e+003,2.203937e+001
1.655496e+003,2.493921e+001
1.656460e+003,2.689398e+001
1.657425e+003,2.633514e+001
1.658389e+003,2.467059e+001
1.659353e+003,2.126166e+001
1.660317e+003,1.821497e+001
1.661281e+003,1.896417e+001
1.662246e+003,2.187805e+001
1.663210e+003,2.134296e+001
1.664174e+003,1.583484e+001
1.665138e+003,1.132861e+001
1.666103e+003,1.344550e+001
1.667067e+003,1.838110e+001
1.668031e+003,1.783582e+001
1.668995e+003,1.245325e+001
1.669960e+003,1.092908e+001
1.670924e+003,1.489966e+001
1.671888e+003,1.888397e+001
1.672852e+003,2.188702e+001
1.673817e+003,2.310339e+001
1.674781e+003,2.090100e+001
1.675745e+003,1.756824e+001
1.676709e+003,1.531793e+001
1.677674e+003,1.419147e+001
1.678638e+003,1.371008e+001
1.679602e+003,1.373145e+001
1.680566e+003,1.382288e+001
1.681531e+003,1.398834e+001
1.682495e+003,1.403650e+001
1.683459e+003,1.297546e+001
1.684423e+003,1.087909e+001
1.685387e+003,9.503052e+000
1.686352e+003,9.137146e+000
1.687316e+003,9.431580e+000
1.688280e+003,1.066095e+001
1.689244e+003,1.177161e+001
1.690208e+003,1.157587e+001
1.691173e+003,1.093250e+001
1.692137e+003,1.143616e+001
1.693101e+003,1.267816e+001
1.694065e+003,1.187402e+001
1.695030e+003,7.918457e+000
1.695994e+003,5.155945e+000
1.696958e+003,7.726257e+000
1.697922e+003,1.144061e+001
1.698887e+003,1.019983e+001
1.699851e+003,6.038635e+000
1.700815e+003,5.406860e+000
1.701779e+003,8.596008e+000
1.702744e+003,1.014606e+001
1.703708e+003,8.153442e+000
1.704672e+003,6.681763e+000
1.705636e+003,8.933655e+000
1.706601e+003,1.205994e+001
1.707565e+003,1.248804e+001
1.708529e+003,1.098749e+001
1.709493e+003,8.705078e+000
1.710458e+003,5.510071e+000
1.711422e+003,3.473999e+000
1.712386e+003,4.210815e+000
1.713350e+003,6.023315e+000
1.714314e+003,7.749451e+000
1.715279e+003,8.934143e+000
1.716243e+003,8.898071e+000
1.717207e+003,7.913208e+000
1.718171e+003,7.412048e+000
1.719135e+003,7.865845e+000
1.720100e+003,7.680481e+000
1.721064e+003,5.363647e+000
1.722028e+003,2.654419e+000
1.722992e+003,2.746704e+000
1.723957e+003,5.251282e+000
1.724921e+003,5.457764e+000
1.725885e+003,2.132385e+000
1.726849e+003,6.375732e-001
1.727814e+003,4.004822e+000
1.728778e+003,7.623474e+000
1.729742e+003,1.011523e+001
1.730706e+003,1.120093e+001
1.731671e+003,9.391479e+000
1.732635e+003,5.783081e+000
1.733599e+003,3.500916e+000
1.734563e+003,3.200928e+000
1.735528e+003,2.654114e+000
1.736492e+003,5.273438e-001
1.737456e+003,-1.246521e+000
1.738420e+003,-1.834106e-001
1.739385e+003,2.399048e+000
1.740349e+003,2.543823e+000
1.741313e+003,-2.332153e-001
1.742277e+003,-1.673706e+000
1.743241e+003,2.769775e-001
1.744206e+003,8.402710e-001
1.745170e+003,-2.980713e+000
1.746134e+003,-5.918457e+000
1.747098e+003,-3.966187e+000
1.748063e+003,-4.472046e-001
1.749027e+003,6.661987e-001
1.749991e+003,-2.582397e-001
1.750955e+003,-7.483521e-001
1.751919e+003,-4.589844e-002
1.752884e+003,6.499023e-001
1.753848e+003,3.430176e-001
1.754812e+003,-6.015625e-001
1.755776e+003,-1.321777e+000
1.756741e+003,-1.498169e+000
1.757705e+003,-1.209106e-001
1.758669e+003,3.895935e+000
1.759633e+003,5.393188e+000
1.760598e+003,1.589539e+000
1.761562e+003,-2.081726e+000
1.762526e+003,-4.377136e+000
1.763490e+003,-4.997009e+000
1.764455e+003,-2.253418e+000
1.765419e+003,1.610535e+000
1.766383e+003,2.747192e+000
1.767347e+003,9.604492e-001
1.768312e+003,-9.281616e-001
1.769276e+003,-1.695129e+000
1.770240e+003,-2.095154e+000
1.771204e+003,-2.641357e+000
1.772168e+003,-2.625671e+000
1.773133e+003,-2.205200e-001
1.774097e+003,4.044250e+000
1.775061e+003,4.213806e+000
1.776025e+003,-1.342163e+000
1.776990e+003,-5.731689e+000
1.777954e+003,-6.111938e+000
1.778918e+003,-4.944519e+000
1.779882e+003,-4.184204e+000
1.780846e+003,-3.323730e+000
1.781811e+003,-6.232300e-001
1.782775e+003,3.115784e+000
1.783739e+003,4.709778e+000
1.784703e+003,3.658020e+000
1.785668e+003,2.570129e+000
1.786632e+003,1.902832e+000
1.787596e+003,1.493225e+000
1.788560e+003,1.797241e+000
1.789525e+003,2.786438e+000
1.790489e+003,4.401062e+000
1.791453e+003,6.000977e+000
1.792417e+003,6.258423e+000
1.793382e+003,4.976868e+000
1.794346e+003,2.715332e+000
1.795310e+003,-4.343872e-001
1.796274e+003,-2.557617e+000
1.797239e+003,-8.922729e-001
1.798203e+003,3.402344e+000
1.799167e+003,5.313416e+000
1.800131e+003,3.854248e+000
1.801095e+003,1.692505e+000
1.802060e+003,-1.630371e+000
1.803024e+003,-3.497681e+000
1.803988e+003,-2.948608e+000
1.804952e+003,-2.266357e+000
1.805917e+003,-3.339783e+000
1.806881e+003,-4.134766e+000
1.807845e+003,-9.091797e-001
1.808809e+003,3.903687e+000
1.809773e+003,3.929993e+000
1.810738e+003,-1.103333e+000
1.811702e+003,-3.855835e+000
1.812666e+003,1.172485e-001
1.813630e+003,5.131775e+000
1.814595e+003,3.068481e+000
1.815559e+003,-3.813782e+000
1.816523e+003,-5.069519e+000
1.817487e+003,2.017822e-001
1.818452e+003,1.515564e+000
1.819416e+003,-3.239319e+000
1.820380e+003,-6.250916e+000
1.821344e+003,-4.803467e+000
1.822309e+003,-2.684631e+000
1.823273e+003,-1.352478e+000
1.824237e+003,-5.668335e-001
1.825201e+003,-9.456787e-001
1.826166e+003,-1.858337e+000
1.827130e+003,-9.205933e-001
1.828094e+003,2.036682e+000
1.829058e+003,2.828186e+000
1.830022e+003,-1.412292e+000
1.830987e+003,-5.894226e+000
1.831951e+003,-6.629822e+000
1.832915e+003,-5.209961e+000
1.833879e+003,-3.484253e+000
1.834844e+003,-1.744019e+000
1.835808e+003,-4.999390e-001
1.836772e+003,2.691650e-001
1.837736e+003,1.173340e+000
1.838700e+003,2.315002e+000
1.839665e+003,3.534180e+000
1.840629e+003,5.119629e+000
1.841593e+003,6.021973e+000
1.842557e+003,3.360840e+000
1.843522e+003,-2.803223e+000
1.844486e+003,-6.618774e+000
1.845450e+003,-7.085266e+000
1.846414e+003,-6.124207e+000
1.847379e+003,-1.474915e+000
1.848343e+003,3.265381e-001
1.849307e+003,-5.617554e+000
1.850271e+003,-1.153534e+001
1.851236e+003,-1.164026e+001
1.852200e+003,-7.994324e+000
1.853164e+003,-3.057556e+000
1.854128e+003,1.365479e+000
1.855093e+003,3.037292e+000
1.856057e+003,1.581360e+000
1.857021e+003,-1.087036e+000
1.857985e+003,-3.742859e+000
1.858949e+003,-6.053955e+000
1.859914e+003,-7.331360e+000
1.860878e+003,-7.545471e+000
1.861842e+003,-7.063660e+000
1.862806e+003,-6.005249e+000
1.863771e+003,-4.006775e+000
1.864735e+003,-6.474609e-001
1.865699e+003,1.221436e+000
1.866663e+003,-5.395508e-002
1.867627e+003,-1.742676e+000
1.868592e+003,-1.310974e+000
1.869556e+003,-4.412842e-001
1.870520e+003,-2.369629e+000
1.871484e+003,-6.492676e+000
1.872449e+003,-8.281433e+000
1.873413e+003,-5.735657e+000
1.874377e+003,-3.083069e+000
1.875341e+003,-2.578613e+000
1.876306e+003,-2.557800e+000
1.877270e+003,-2.116516e+000
1.878234e+003,-1.973816e+000
1.879198e+003,-3.670044e+000
1.880163e+003,-5.578613e+000
1.881127e+003,-3.916809e+000
1.882091e+003,7.500610e-001
1.883055e+003,4.103394e+000
1.884020e+003,4.256592e+000
1.884984e+003,2.351440e+000
1.885948e+003,-6.318359e-001
1.886912e+003,-3.827271e+000
1.887876e+003,-5.426941e+000
1.888841e+003,-5.501587e+000
1.889805e+003,-5.363037e+000
1.890769e+003,-5.120972e+000
1.891733e+003,-3.811462e+000
1.892698e+003,-3.435059e-001
1.893662e+003,9.664307e-001
1.894626e+003,-3.441162e+000
1.895590e+003,-7.420227e+000
1.896554e+003,-5.793579e+000
1.897519e+003,-1.771606e+000
1.898483e+003,7.869873e-001
1.899447e+003,1.849670e+000
1.900411e+003,3.142761e+000
1.901376e+003,5.137939e+000
1.902340e+003,5.969360e+000
1.903304e+003,4.725464e+000
1.904268e+003,2.354797e+000
1.905233e+003,-2.253845e+000
1.906197e+003,-5.864868e+000
1.907161e+003,-3.781555e+000
1.908125e+003,1.204712e+000
1.909090e+003,3.743652e+000
1.910054e+003,3.342957e+000
1.911018e+003,2.018738e+000
1.911982e+003,8.310547e-001
1.912947e+003,3.186035e-001
1.913911e+003,7.756958e-001
1.914875e+003,1.798035e+000
1.915839e+003,2.658936e+000
1.916803e+003,3.163818e+000
1.917768e+003,3.730652e+000
1.918732e+003,4.702332e+000
1.919696e+003,4.950439e+000
1.920660e+003,4.111206e+000
1.921625e+003,4.207520e+000
1.922589e+003,6.219055e+000
1.923553e+003,7.864685e+000
1.924517e+003,7.643921e+000
1.925481e+003,6.891541e+000
1.926446e+003,6.589661e+000
1.927410e+003,6.711548e+000
1.928374e+003,7.873108e+000
1.929338e+003,9.540955e+000
1.930303e+003,7.380310e+000
1.931267e+003,-1.168945e+000
1.932231e+003,-7.138367e+000
1.933195e+003,-5.203796e+000
1.934160e+003,-1.627136e+000
1.935124e+003,-4.302979e-001
1.936088e+003,-7.899780e-001
1.937052e+003,-1.714905e+000
1.938017e+003,-2.588501e+000
1.938981e+003,-2.743652e+000
1.939945e+003,-2.264893e+000
1.940909e+003,-1.786621e+000
1.941874e+003,-1.718201e+000
1.942838e+003,-2.334900e+000
1.943802e+003,-3.701416e+000
1.944766e+003,-4.603455e+000
1.945730e+003,-2.929443e+000
1.946695e+003,6.301880e-001
1.947659e+003,2.122192e+000
1.948623e+003,1.276367e+000
1.949587e+003,3.019409e-001
1.950552e+003,-7.393799e-001
1.951516e+003,-2.631836e-001
1.952480e+003,3.292725e+000
1.953444e+003,6.219360e+000
1.954408e+003,5.556152e+000
1.955373e+003,2.797852e+000
1.956337e+003,-2.448120e-001
1.957301e+003,-2.920898e+000
1.958265e+003,-4.328247e+000
1.959230e+003,-4.438721e+000
1.960194e+003,-2.833618e+000
1.961158e+003,2.796021e+000
1.962122e+003,5.566528e+000
1.963087e+003,1.185425e+000
1.964051e+003,-3.253174e+000
1.965015e+003,-3.099182e+000
1.965979e+003,-9.337158e-001
1.966944e+003,4.241943e-001
1.967908e+003,9.584351e-001
1.968872e+003,1.677368e+000
1.969836e+003,2.752747e+000
1.970801e+003,3.724243e+000
1.971765e+003,4.410156e+000
1.972729e+003,4.744385e+000
1.973693e+003,4.608704e+000
1.974657e+003,4.171997e+000
1.975622e+003,3.311523e+000
1.976586e+003,2.248352e+000
1.977550e+003,2.191345e+000
1.978514e+003,3.021301e+000
1.979479e+003,2.882813e+000
1.980443e+003,1.577087e+000
1.981407e+003,2.299133e+000
1.982371e+003,6.545471e+000
1.983335e+003,9.525574e+000
1.984300e+003,7.137634e+000
1.985264e+003,2.802612e+000
1.986228e+003,2.091553e+000
1.987192e+003,4.166687e+000
1.988157e+003,4.664612e+000
1.989121e+003,3.214111e+000
1.990085e+003,2.819519e+000
1.991049e+003,4.288452e+000
1.992014e+003,5.579712e+000
1.992978e+003,6.223328e+000
1.993942e+003,6.584045e+000
1.994906e+003,6.805908e+000
1.995871e+003,6.805054e+000
1.996835e+003,6.366943e+000
1.997799e+003,5.975220e+000
1.998763e+003,6.340881e+000
1.999728e+003,7.090698e+000
