5.003444e+002,3.489911e+001
5.013087e+002,3.609320e+001
5.022729e+002,3.383173e+001
5.032371e+002,2.974249e+001
5.042014e+002,2.800220e+001
5.051656e+002,2.834705e+001
5.061298e+002,2.903363e+001
5.070941e+002,2.832202e+001
5.080583e+002,2.550800e+001
5.090225e+002,2.389905e+001
5.099868e+002,2.382867e+001
5.109510e+002,2.412842e+001
5.119152e+002,2.413507e+001
5.128795e+002,2.380798e+001
5.138437e+002,2.419525e+001
5.148079e+002,2.708221e+001
5.157722e+002,2.969275e+001
5.167364e+002,3.065149e+001
5.177006e+002,2.971497e+001
5.186649e+002,2.770172e+001
5.196291e+002,2.576874e+001
5.205933e+002,2.405688e+001
5.215576e+002,2.160278e+001
5.225218e+002,1.820538e+001
5.234860e+002,1.464941e+001
5.244503e+002,1.279572e+001
5.254145e+002,1.375476e+001
5.263787e+002,1.592426e+001
5.273430e+002,2.063141e+001
5.283072e+002,2.568231e+001
5.292714e+002,2.781390e+001
5.302357e+002,2.529810e+001
5.311999e+002,2.158618e+001
5.321641e+002,1.614099e+001
5.331284e+002,1.162085e+001
5.340926e+002,1.055963e+001
5.350568e+002,1.390436e+001
5.360211e+002,1.679443e+001
5.369853e+002,1.426752e+001
5.379495e+002,1.041681e+001
5.389138e+002,8.194336e+000
5.398780e+002,8.749390e+000
5.408422e+002,1.124426e+001
5.418065e+002,1.449683e+001
5.427707e+002,1.818591e+001
5.437349e+002,1.915576e+001
5.446992e+002,1.565326e+001
5.456634e+002,9.264465e+000
5.466276e+002,5.788940e+000
5.475919e+002,9.395691e+000
5.485561e+002,1.134204e+001
5.495203e+002,9.734436e+000
5.504846e+002,6.436401e+000
5.514488e+002,4.496643e+000
5.524130e+002,5.967712e+000
5.533773e+002,7.297485e+000
5.543415e+002,6.110657e+000
5.553057e+002,4.111694e+000
5.562700e+002,3.272217e+000
5.572342e+002,4.711426e+000
5.581984e+002,6.691895e+000
5.591627e+002,4.254700e+000
5.601269e+002,-4.027710e-001
5.610911e+002,-2.875671e+000
5.620554e+002,-8.770752e-001
5.630196e+002,4.733154e+000
5.639838e+002,7.763794e+000
5.649481e+002,7.324463e+000
5.659123e+002,5.739441e+000
5.668765e+002,2.872864e+000
5.678408e+002,-3.218994e-001
5.688050e+002,-1.825928e+000
5.697692e+002,-9.869995e-001
5.707335e+002,1.572876e-001
5.716977e+002,2.252014e+000
5.726619e+002,4.197754e+000
5.736262e+002,4.179993e+000
5.745904e+002,5.670166e-001
5.755546e+002,-3.312866e+000
5.765189e+002,-1.809509e+000
5.774831e+002,2.366821e+000
5.784473e+002,4.843872e+000
5.794116e+002,2.855774e+000
5.803758e+002,-2.705383e+000
5.813400e+002,-4.148071e+000
5.823043e+002,-8.942261e-001
5.832685e+002,1.669067e+000
5.842327e+002,1.550049e+000
5.851970e+002,-4.204102e-001
5.861612e+002,-7.350464e-001
5.871254e+002,2.268799e+000
5.880897e+002,5.079407e+000
5.890539e+002,6.958618e+000
5.900181e+002,7.950928e+000
5.909824e+002,8.374023e+000
5.919466e+002,8.429199e+000
5.929108e+002,8.408020e+000
5.938751e+002,9.324158e+000
5.948393e+002,1.023883e+001
5.958035e+002,9.230774e+000
5.967678e+002,5.030273e+000
5.977320e+002,-1.297546e+000
5.986962e+002,-2.010681e+000
5.996605e+002,2.346619e+000
6.006247e+002,6.032532e+000
6.015889e+002,5.939941e+000
6.025532e+002,2.458862e+000
6.035174e+002,6.647949e-001
6.044816e+002,3.291748e+000
6.054459e+002,4.893555e+000
6.064101e+002,4.074402e+000
6.073743e+002,1.749573e+000
6.083386e+002,-2.061157e-001
6.093028e+002,-4.955444e-001
6.102670e+002,-6.361694e-001
6.112313e+002,-2.640320e+000
6.121955e+002,-5.158264e+000
6.131597e+002,-6.210083e+000
6.141240e+002,-4.493774e+000
6.150882e+002,-9.739990e-001
6.160524e+002,6.359253e-001
6.170167e+002,8.956299e-001
6.179809e+002,5.593872e-001
6.189451e+002,-7.182007e-001
6.199094e+002,-2.843140e+000
6.208736e+002,-3.377319e+000
6.218378e+002,1.790894e+000
6.228021e+002,4.722656e+000
6.237663e+002,2.918945e+000
6.247305e+002,-9.234009e-001
6.256948e+002,-2.268433e+000
6.266590e+002,1.556763e+000
6.276232e+002,4.682983e+000
6.285875e+002,3.558655e+000
6.295517e+002,6.961670e-001
6.305159e+002,-1.733521e+000
6.314802e+002,-2.601868e+000
6.324444e+002,-2.455566e+000
6.334086e+002,-1.606079e+000
6.343729e+002,-4.943848e-003
6.353371e+002,1.611755e+000
6.363013e+002,3.020874e+000
6.372656e+002,3.811646e+000
6.382298e+002,2.834473e+000
6.391940e+002,-3.326538e+000
6.401583e+002,-6.984985e+000
6.411225e+002,-6.024292e+000
6.420867e+002,-2.638794e+000
6.430510e+002,5.169067e-001
6.440152e+002,2.615906e+000
6.449794e+002,3.266846e+000
6.459437e+002,1.591614e+000
6.469079e+002,-7.291260e-001
6.478721e+002,-2.073486e+000
6.488364e+002,-1.902100e+000
6.498006e+002,-1.304871e+000
6.507648e+002,-3.090088e+000
6.517291e+002,-6.191650e+000
6.526933e+002,-7.428772e+000
6.536575e+002,-6.167664e+000
6.546218e+002,-3.498962e+000
6.555860e+002,-1.427673e+000
6.565502e+002,-5.609131e-002
6.575145e+002,5.466919e-001
6.584787e+002,3.435059e-001
6.594429e+002,-3.964233e-001
6.604072e+002,-1.745667e+000
6.613714e+002,-3.824036e+000
6.623356e+002,-5.241333e+000
6.632999e+002,-5.759277e+000
6.642641e+002,-5.723389e+000
6.652283e+002,-4.649597e+000
6.661926e+002,-2.551392e+000
6.671568e+002,2.176514e-001
6.681210e+002,3.440002e+000
6.690853e+002,6.041748e+000
6.700495e+002,5.862305e+000
6.710137e+002,3.061218e+000
6.719780e+002,-1.897583e-001
6.729422e+002,-1.682251e+000
6.739064e+002,-1.286621e+000
6.748707e+002,-6.917114e-001
6.758349e+002,5.305176e-001
6.767991e+002,1.222351e+000
6.777634e+002,1.159729e+000
6.787276e+002,7.030640e-001
6.796918e+002,4.396973e-001
6.806561e+002,-2.107544e-001
6.816203e+002,-6.165161e-001
6.825845e+002,-9.539795e-002
6.835488e+002,7.869873e-001
6.845130e+002,1.059509e+000
6.854772e+002,4.699707e-003
6.864415e+002,-1.263184e+000
6.874057e+002,-1.196533e+000
6.883699e+002,-4.672241e-001
6.893342e+002,9.237671e-001
6.902984e+002,3.269836e+000
6.912626e+002,6.272461e+000
6.922269e+002,6.888672e+000
6.931911e+002,3.642761e+000
6.941553e+002,1.304688e+000
6.951196e+002,-5.155640e-001
6.960838e+002,-1.821350e+000
6.970480e+002,-2.045410e+000
6.980123e+002,-2.846680e-001
6.989765e+002,1.234985e+000
6.999407e+002,1.257996e+000
7.009050e+002,7.963257e-001
7.018692e+002,9.047241e-001
7.028334e+002,1.728210e+000
7.037977e+002,2.020630e+000
7.047619e+002,-5.358276e-001
7.057261e+002,-4.395081e+000
7.066904e+002,-7.383545e+000
7.076546e+002,-9.168518e+000
7.086188e+002,-9.614746e+000
7.095831e+002,-8.356995e+000
7.105473e+002,-4.716980e+000
7.115115e+002,-2.325928e+000
7.124758e+002,-2.042480e+000
7.134400e+002,-2.170654e+000
7.144042e+002,-1.044922e+000
7.153685e+002,1.470947e+000
7.163327e+002,2.678894e+000
7.172969e+002,-6.823730e-001
7.182612e+002,-3.672913e+000
7.192254e+002,-4.065308e+000
7.201896e+002,-2.708923e+000
7.211539e+002,-1.601318e+000
7.221181e+002,-2.379333e+000
7.230823e+002,-4.250122e+000
7.240466e+002,-5.088989e+000
7.250108e+002,-4.701477e+000
7.259750e+002,-3.532043e+000
7.269393e+002,-2.205078e+000
7.279035e+002,-1.181091e+000
7.288677e+002,-2.889404e-001
7.298320e+002,2.313965e+000
7.307962e+002,4.354309e+000
7.317604e+002,5.329895e+000
7.327247e+002,5.925537e+000
7.336889e+002,6.789673e+000
7.346531e+002,7.558655e+000
7.356174e+002,7.302185e+000
7.365816e+002,6.106934e+000
7.375458e+002,5.091736e+000
7.385101e+002,4.888245e+000
7.394743e+002,5.725159e+000
7.404385e+002,7.626160e+000
7.414028e+002,1.108807e+001
7.423670e+002,1.432959e+001
7.433312e+002,1.378711e+001
7.442955e+002,9.614807e+000
7.452597e+002,5.177551e+000
7.462239e+002,3.906494e+000
7.471882e+002,6.253845e+000
7.481524e+002,9.101074e+000
7.491166e+002,1.253827e+001
7.500809e+002,1.493097e+001
7.510451e+002,1.619489e+001
7.520093e+002,1.601660e+001
7.529736e+002,1.335315e+001
7.539378e+002,6.411987e+000
7.549020e+002,9.631348e-002
7.558663e+002,-3.260742e+000
7.568306e+002,-4.103455e+000
7.577948e+002,-2.634766e+000
7.587590e+002,6.789551e-001
7.597233e+002,4.429932e+000
7.606875e+002,4.801147e+000
7.616517e+002,2.597107e+000
7.626160e+002,1.642639e+000
7.635802e+002,3.437256e+000
7.645444e+002,6.639893e+000
7.655087e+002,8.333618e+000
7.664729e+002,7.837158e+000
7.674371e+002,6.761597e+000
7.684014e+002,4.321106e+000
7.693656e+002,2.159546e+000
7.703298e+002,1.453186e+000
7.712941e+002,2.353271e+000
7.722583e+002,3.976685e+000
7.732225e+002,6.352478e+000
7.741868e+002,8.504700e+000
7.751510e+002,9.454102e+000
7.761152e+002,9.544678e+000
7.770795e+002,9.763184e+000
7.780437e+002,1.092902e+001
7.790079e+002,1.260883e+001
7.799722e+002,1.171198e+001
7.809364e+002,8.117737e+000
7.819006e+002,4.600098e+000
7.828649e+002,2.222290e+000
7.838291e+002,1.186279e+000
7.847933e+002,1.566833e+000
7.857576e+002,4.197449e+000
7.867218e+002,5.332642e+000
7.876860e+002,3.109497e+000
7.886503e+002,1.088867e+000
7.896145e+002,3.156860e+000
7.905787e+002,9.939636e+000
7.915430e+002,1.650201e+001
7.925072e+002,1.621124e+001
7.934714e+002,1.258020e+001
7.944357e+002,9.673584e+000
7.953999e+002,8.189270e+000
7.963641e+002,7.288269e+000
7.973284e+002,5.812317e+000
7.982926e+002,3.696716e+000
7.992568e+002,2.589233e+000
8.002211e+002,1.492554e+000
8.011853e+002,5.330200e-001
8.021495e+002,3.013916e-001
8.031138e+002,1.546509e+000
8.040780e+002,5.132202e+000
8.050422e+002,1.304651e+001
8.060065e+002,1.867688e+001
8.069707e+002,1.894501e+001
8.079349e+002,1.630475e+001
8.088992e+002,1.266248e+001
8.098634e+002,9.210144e+000
8.108276e+002,6.955322e+000
8.117919e+002,7.379639e+000
8.127561e+002,8.930542e+000
8.137203e+002,1.046490e+001
8.146846e+002,1.230701e+001
8.156488e+002,1.381091e+001
8.166130e+002,1.363898e+001
8.175773e+002,1.108423e+001
8.185415e+002,1.033032e+001
8.195057e+002,1.174329e+001
8.204700e+002,1.319257e+001
8.214342e+002,1.390448e+001
8.223984e+002,1.414294e+001
8.233627e+002,1.489764e+001
8.243269e+002,1.740320e+001
8.252911e+002,1.895160e+001
8.262554e+002,1.686444e+001
8.272196e+002,1.380890e+001
8.281838e+002,1.259686e+001
8.291481e+002,1.413690e+001
8.301123e+002,1.708185e+001
8.310765e+002,1.946899e+001
8.320408e+002,2.087140e+001
8.330050e+002,1.970642e+001
8.339692e+002,1.531476e+001
8.349335e+002,1.052686e+001
8.358977e+002,8.570801e+000
8.368619e+002,1.015448e+001
8.378262e+002,1.137964e+001
8.387904e+002,1.116797e+001
8.397546e+002,1.089435e+001
8.407189e+002,1.051270e+001
8.416831e+002,1.048822e+001
8.426473e+002,1.187939e+001
8.436116e+002,1.562531e+001
8.445758e+002,1.919977e+001
8.455400e+002,1.814685e+001
8.465043e+002,1.524884e+001
8.474685e+002,1.491528e+001
8.484327e+002,1.836017e+001
8.493970e+002,2.284955e+001
8.503612e+002,2.309344e+001
8.513254e+002,1.790497e+001
8.522897e+002,1.479089e+001
8.532539e+002,1.402423e+001
8.542181e+002,1.399786e+001
8.551824e+002,1.438336e+001
8.561466e+002,1.565106e+001
8.571108e+002,1.777759e+001
8.580751e+002,1.989661e+001
8.590393e+002,2.161542e+001
8.600035e+002,2.361432e+001
8.609678e+002,2.561627e+001
8.619320e+002,2.721289e+001
8.628962e+002,2.816833e+001
8.638605e+002,2.853442e+001
8.648247e+002,2.813586e+001
8.657889e+002,2.725122e+001
8.667532e+002,2.668683e+001
8.677174e+002,2.654834e+001
8.686816e+002,2.671997e+001
8.696459e+002,2.722363e+001
8.706101e+002,2.836426e+001
8.715743e+002,2.949646e+001
8.725386e+002,3.015497e+001
8.735028e+002,3.148071e+001
8.744670e+002,3.393689e+001
8.754313e+002,3.652594e+001
8.763955e+002,3.775165e+001
8.773597e+002,3.708527e+001
8.783240e+002,3.615350e+001
8.792882e+002,3.585645e+001
8.802524e+002,3.562817e+001
8.812167e+002,3.464716e+001
8.821809e+002,3.310217e+001
8.831451e+002,3.253638e+001
8.841094e+002,3.527802e+001
8.850736e+002,4.133020e+001
8.860378e+002,4.329486e+001
8.870021e+002,3.994171e+001
8.879663e+002,3.648596e+001
8.889305e+002,3.588379e+001
8.898948e+002,3.736560e+001
8.908590e+002,3.763861e+001
8.918232e+002,3.544354e+001
8.927875e+002,3.470453e+001
8.937517e+002,3.696527e+001
8.947159e+002,4.031958e+001
8.956802e+002,4.329047e+001
8.966444e+002,4.509717e+001
8.976086e+002,4.538806e+001
8.985729e+002,4.372797e+001
8.995371e+002,4.136761e+001
9.005013e+002,3.954443e+001
9.014656e+002,3.861707e+001
9.024298e+002,3.903992e+001
9.033940e+002,4.098199e+001
9.043583e+002,4.386371e+001
9.053225e+002,4.605536e+001
9.062867e+002,4.696967e+001
9.072510e+002,4.711694e+001
9.082152e+002,4.742090e+001
9.091794e+002,4.741290e+001
9.101437e+002,4.603412e+001
9.111079e+002,4.304285e+001
9.120721e+002,4.062054e+001
9.130364e+002,3.903485e+001
9.140006e+002,3.859344e+001
9.149648e+002,4.124304e+001
9.159291e+002,4.573450e+001
9.168933e+002,4.910260e+001
9.178575e+002,4.907001e+001
9.188218e+002,4.641534e+001
9.197860e+002,4.437561e+001
9.207502e+002,4.271875e+001
9.217145e+002,4.128210e+001
9.226787e+002,4.059894e+001
9.236429e+002,4.072998e+001
9.246072e+002,4.137085e+001
9.255714e+002,4.222955e+001
9.265356e+002,4.326770e+001
9.274999e+002,4.586530e+001
9.284641e+002,4.671216e+001
9.294283e+002,4.332294e+001
9.303926e+002,3.801532e+001
9.313568e+002,3.486823e+001
9.323210e+002,3.602698e+001
9.332853e+002,3.885797e+001
9.342495e+002,3.954688e+001
9.352137e+002,3.883960e+001
9.361780e+002,3.785077e+001
9.371422e+002,3.721301e+001
9.381064e+002,3.737054e+001
9.390707e+002,3.855176e+001
9.400349e+002,4.049805e+001
9.409991e+002,4.173987e+001
9.419634e+002,4.138074e+001
9.429276e+002,4.131006e+001
9.438918e+002,4.254144e+001
9.448561e+002,4.439990e+001
9.458203e+002,4.564734e+001
9.467845e+002,4.595795e+001
9.477488e+002,4.643945e+001
9.487130e+002,4.808649e+001
9.496772e+002,4.991180e+001
9.506415e+002,5.113824e+001
9.516057e+002,5.172711e+001
9.525699e+002,5.210840e+001
9.535342e+002,5.266882e+001
9.544984e+002,5.306024e+001
9.554626e+002,5.149414e+001
9.564269e+002,4.790039e+001
9.573911e+002,4.625153e+001
9.583553e+002,4.905872e+001
9.593196e+002,5.348224e+001
9.602838e+002,5.457623e+001
9.612480e+002,5.105640e+001
9.622123e+002,4.811591e+001
9.631765e+002,4.818542e+001
9.641407e+002,4.856360e+001
9.651050e+002,4.707648e+001
9.660692e+002,4.467126e+001
9.670334e+002,4.415125e+001
9.679977e+002,4.757574e+001
9.689619e+002,5.325195e+001
9.699261e+002,5.727405e+001
9.708904e+002,5.941333e+001
9.718546e+002,5.915723e+001
9.728188e+002,5.582922e+001
9.737831e+002,5.141418e+001
9.747473e+002,4.857660e+001
9.757115e+002,4.762573e+001
9.766758e+002,4.759070e+001
9.776400e+002,5.062933e+001
9.786042e+002,5.274603e+001
9.795685e+002,5.178955e+001
9.805327e+002,4.922223e+001
9.814969e+002,4.734967e+001
9.824612e+002,4.724390e+001
9.834254e+002,4.833630e+001
9.843896e+002,5.090088e+001
9.853539e+002,5.295569e+001
9.863181e+002,5.125092e+001
9.872823e+002,4.629419e+001
9.882466e+002,4.232428e+001
9.892108e+002,4.346216e+001
9.901750e+002,4.958838e+001
9.911393e+002,5.480225e+001
9.921035e+002,5.623236e+001
9.930677e+002,5.861285e+001
9.940320e+002,6.332330e+001
9.949962e+002,6.909784e+001
9.959604e+002,7.495410e+001
9.969247e+002,8.085828e+001
9.978889e+002,8.661578e+001
9.988531e+002,9.125739e+001
9.998174e+002,9.517664e+001
1.000782e+003,9.948895e+001
1.001746e+003,1.038610e+002
1.002710e+003,1.078233e+002
1.003674e+003,1.109461e+002
1.004639e+003,1.124712e+002
1.005603e+003,1.107059e+002
1.006567e+003,1.050837e+002
1.007531e+003,1.037968e+002
1.008495e+003,1.090342e+002
1.009460e+003,1.141795e+002
1.010424e+003,1.151860e+002
1.011388e+003,1.130740e+002
1.012352e+003,1.113481e+002
1.013317e+003,1.099139e+002
1.014281e+003,1.093251e+002
1.015245e+003,1.117232e+002
1.016209e+003,1.127250e+002
1.017174e+003,1.090560e+002
1.018138e+003,1.008848e+002
1.019102e+003,9.012811e+001
1.020066e+003,7.791534e+001
1.021031e+003,6.640729e+001
1.021995e+003,6.230042e+001
1.022959e+003,6.351471e+001
1.023923e+003,6.297028e+001
1.024887e+003,5.765198e+001
1.025852e+003,5.054565e+001
1.026816e+003,4.694434e+001
1.027780e+003,4.828265e+001
1.028744e+003,4.826001e+001
1.029709e+003,4.538898e+001
1.030673e+003,4.208752e+001
1.031637e+003,3.848749e+001
1.032601e+003,3.479285e+001
1.033566e+003,3.130804e+001
1.034530e+003,2.828461e+001
1.035494e+003,2.592834e+001
1.036458e+003,2.412695e+001
1.037422e+003,2.301508e+001
1.038387e+003,2.304913e+001
1.039351e+003,2.405377e+001
1.040315e+003,2.560291e+001
1.041279e+003,2.769360e+001
1.042244e+003,3.025781e+001
1.043208e+003,3.181763e+001
1.044172e+003,3.031348e+001
1.045136e+003,3.040729e+001
1.046101e+003,3.378851e+001
1.047065e+003,3.757227e+001
1.048029e+003,3.981213e+001
1.048993e+003,4.055170e+001
1.049958e+003,4.106946e+001
1.050922e+003,4.227185e+001
1.051886e+003,4.349860e+001
1.052850e+003,4.421356e+001
1.053814e+003,4.431628e+001
1.054779e+003,4.325061e+001
1.055743e+003,4.101093e+001
1.056707e+003,3.864343e+001
1.057671e+003,3.745715e+001
1.058636e+003,3.735718e+001
1.059600e+003,3.687372e+001
1.060564e+003,3.640680e+001
1.061528e+003,3.628247e+001
1.062493e+003,3.584552e+001
1.063457e+003,3.525519e+001
1.064421e+003,3.547241e+001
1.065385e+003,3.673962e+001
1.066349e+003,3.682056e+001
1.067314e+003,3.311804e+001
1.068278e+003,2.971484e+001
1.069242e+003,2.995056e+001
1.070206e+003,3.249561e+001
1.071171e+003,3.545789e+001
1.072135e+003,3.754443e+001
1.073099e+003,3.766571e+001
1.074063e+003,3.412024e+001
1.075028e+003,2.651404e+001
1.075992e+003,2.339038e+001
1.076956e+003,2.655701e+001
1.077920e+003,2.942017e+001
1.078885e+003,2.985437e+001
1.079849e+003,2.901929e+001
1.080813e+003,2.846442e+001
1.081777e+003,2.830975e+001
1.082741e+003,2.933472e+001
1.083706e+003,3.330688e+001
1.084670e+003,3.633600e+001
1.085634e+003,3.574969e+001
1.086598e+003,3.259198e+001
1.087563e+003,2.928412e+001
1.088527e+003,2.741687e+001
1.089491e+003,2.650543e+001
1.090455e+003,2.465564e+001
1.091420e+003,2.132074e+001
1.092384e+003,2.085889e+001
1.093348e+003,2.469623e+001
1.094312e+003,2.799945e+001
1.095276e+003,2.758801e+001
1.096241e+003,2.510510e+001
1.097205e+003,2.486121e+001
1.098169e+003,2.781219e+001
1.099133e+003,3.049359e+001
1.100098e+003,3.137244e+001
1.101062e+003,3.226166e+001
1.102026e+003,3.499231e+001
1.102990e+003,3.869775e+001
1.103955e+003,4.069391e+001
1.104919e+003,3.932086e+001
1.105883e+003,3.658093e+001
1.106847e+003,3.721375e+001
1.107812e+003,4.124078e+001
1.108776e+003,4.455963e+001
1.109740e+003,4.735504e+001
1.110704e+003,4.874164e+001
1.111668e+003,4.748688e+001
1.112633e+003,4.474860e+001
1.113597e+003,4.433069e+001
1.114561e+003,4.698187e+001
1.115525e+003,5.005920e+001
1.116490e+003,5.297668e+001
1.117454e+003,5.559650e+001
1.118418e+003,5.845819e+001
1.119382e+003,6.149127e+001
1.120347e+003,6.395477e+001
1.121311e+003,6.498969e+001
1.122275e+003,6.425745e+001
1.123239e+003,6.181818e+001
1.124203e+003,5.865442e+001
1.125168e+003,5.844617e+001
1.126132e+003,6.259198e+001
1.127096e+003,6.720947e+001
1.128060e+003,6.804785e+001
1.129025e+003,6.624066e+001
1.129989e+003,6.859247e+001
1.130953e+003,7.794666e+001
1.131917e+003,8.541992e+001
1.132882e+003,8.874817e+001
1.133846e+003,9.016681e+001
1.134810e+003,8.937604e+001
1.135774e+003,8.810443e+001
1.136739e+003,8.901434e+001
1.137703e+003,9.358179e+001
1.138667e+003,1.013995e+002
1.139631e+003,1.129367e+002
1.140595e+003,1.274581e+002
1.141560e+003,1.395605e+002
1.142524e+003,1.487308e+002
1.143488e+003,1.579788e+002
1.144452e+003,1.677296e+002
1.145417e+003,1.789170e+002
1.146381e+003,1.954456e+002
1.147345e+003,2.188834e+002
1.148309e+003,2.433521e+002
1.149274e+003,2.687830e+002
1.150238e+003,2.939213e+002
1.151202e+003,3.187863e+002
1.152166e+003,3.432621e+002
1.153130e+003,3.677551e+002
1.154095e+003,3.916780e+002
1.155059e+003,4.116415e+002
1.156023e+003,4.242642e+002
1.156987e+003,4.288266e+002
1.157952e+003,4.234020e+002
1.158916e+003,4.076267e+002
1.159880e+003,3.902169e+002
1.160844e+003,3.754366e+002
1.161809e+003,3.603637e+002
1.162773e+003,3.394359e+002
1.163737e+003,3.113242e+002
1.164701e+003,2.835736e+002
1.165666e+003,2.564405e+002
1.166630e+003,2.325792e+002
1.167594e+003,2.119893e+002
1.168558e+003,1.956368e+002
1.169522e+003,1.858628e+002
1.170487e+003,1.826227e+002
1.171451e+003,1.820622e+002
1.172415e+003,1.797015e+002
1.173379e+003,1.761925e+002
1.174344e+003,1.767352e+002
1.175308e+003,1.819056e+002
1.176272e+003,1.845733e+002
1.177236e+003,1.821917e+002
1.178201e+003,1.767668e+002
1.179165e+003,1.697817e+002
1.180129e+003,1.607960e+002
1.181093e+003,1.524582e+002
1.182057e+003,1.454848e+002
1.183022e+003,1.396318e+002
1.183986e+003,1.342922e+002
1.184950e+003,1.302543e+002
1.185914e+003,1.289295e+002
1.186879e+003,1.300322e+002
1.187843e+003,1.314855e+002
1.188807e+003,1.313970e+002
1.189771e+003,1.308225e+002
1.190736e+003,1.344471e+002
1.191700e+003,1.430428e+002
1.192664e+003,1.464231e+002
1.193628e+003,1.408044e+002
1.194593e+003,1.342909e+002
1.195557e+003,1.330198e+002
1.196521e+003,1.353548e+002
1.197485e+003,1.359099e+002
1.198449e+003,1.339553e+002
1.199414e+003,1.302982e+002
1.200378e+003,1.227596e+002
1.201342e+003,1.160336e+002
1.202306e+003,1.141636e+002
1.203271e+003,1.150317e+002
1.204235e+003,1.141238e+002
1.205199e+003,1.093303e+002
1.206163e+003,1.023514e+002
1.207128e+003,9.575415e+001
1.208092e+003,8.960431e+001
1.209056e+003,8.424365e+001
1.210020e+003,7.971167e+001
1.210984e+003,7.576428e+001
1.211949e+003,7.278265e+001
1.212913e+003,6.983710e+001
1.213877e+003,6.573175e+001
1.214841e+003,6.057642e+001
1.215806e+003,5.600452e+001
1.216770e+003,5.339380e+001
1.217734e+003,4.999237e+001
1.218698e+003,4.269269e+001
1.219663e+003,3.396796e+001
1.220627e+003,2.629785e+001
1.221591e+003,2.062372e+001
1.222555e+003,1.757788e+001
1.223520e+003,1.793195e+001
1.224484e+003,2.114050e+001
1.225448e+003,2.366534e+001
1.226412e+003,2.586664e+001
1.227376e+003,2.591132e+001
1.228341e+003,2.070056e+001
1.229305e+003,1.652887e+001
1.230269e+003,1.792218e+001
1.231233e+003,2.241205e+001
1.232198e+003,2.499152e+001
1.233162e+003,2.455780e+001
1.234126e+003,2.357068e+001
1.235090e+003,2.353668e+001
1.236055e+003,2.327936e+001
1.237019e+003,2.110016e+001
1.237983e+003,1.765582e+001
1.238947e+003,1.526111e+001
1.239911e+003,1.510419e+001
1.240876e+003,1.594989e+001
1.241840e+003,1.563324e+001
1.242804e+003,1.406427e+001
1.243768e+003,1.350848e+001
1.244733e+003,1.433295e+001
1.245697e+003,1.587781e+001
1.246661e+003,1.848853e+001
1.247625e+003,2.055200e+001
1.248590e+003,2.100769e+001
1.249554e+003,2.045685e+001
1.250518e+003,2.005347e+001
1.251482e+003,2.001746e+001
1.252447e+003,2.019641e+001
1.253411e+003,2.036145e+001
1.254375e+003,2.147009e+001
1.255339e+003,2.594794e+001
1.256303e+003,3.385046e+001
1.257268e+003,4.035901e+001
1.258232e+003,4.191376e+001
1.259196e+003,4.043140e+001
1.260160e+003,4.045227e+001
1.261125e+003,4.258435e+001
1.262089e+003,4.523651e+001
1.263053e+003,4.758936e+001
1.264017e+003,5.038068e+001
1.264982e+003,5.538879e+001
1.265946e+003,6.011694e+001
1.266910e+003,6.216455e+001
1.267874e+003,6.153845e+001
1.268839e+003,5.975714e+001
1.269803e+003,5.784265e+001
1.270767e+003,5.560138e+001
1.271731e+003,5.252997e+001
1.272695e+003,4.890894e+001
1.273660e+003,4.610645e+001
1.274624e+003,4.361499e+001
1.275588e+003,4.128931e+001
1.276552e+003,3.982697e+001
1.277517e+003,3.900616e+001
1.278481e+003,3.791754e+001
1.279445e+003,3.637268e+001
1.280409e+003,3.426086e+001
1.281374e+003,3.102313e+001
1.282338e+003,2.808234e+001
1.283302e+003,2.552423e+001
1.284266e+003,2.388733e+001
1.285230e+003,2.472534e+001
1.286195e+003,2.733319e+001
1.287159e+003,2.854413e+001
1.288123e+003,2.593671e+001
1.289087e+003,2.120929e+001
1.290052e+003,1.865247e+001
1.291016e+003,1.856659e+001
1.291980e+003,1.839008e+001
1.292944e+003,1.803467e+001
1.293909e+003,1.688025e+001
1.294873e+003,1.424957e+001
1.295837e+003,1.167114e+001
1.296801e+003,1.118811e+001
1.297766e+003,1.298767e+001
1.298730e+003,1.564154e+001
1.299694e+003,1.902368e+001
1.300658e+003,2.104706e+001
1.301622e+003,1.837860e+001
1.302587e+003,1.378369e+001
1.303551e+003,1.127881e+001
1.304515e+003,1.174603e+001
1.305479e+003,1.417224e+001
1.306444e+003,1.782782e+001
1.307408e+003,2.197260e+001
1.308372e+003,2.475366e+001
1.309336e+003,2.595001e+001
1.310301e+003,2.627521e+001
1.311265e+003,2.699658e+001
1.312229e+003,2.590613e+001
1.313193e+003,2.018341e+001
1.314157e+003,1.354126e+001
1.315122e+003,9.844604e+000
1.316086e+003,9.300964e+000
1.317050e+003,9.716309e+000
1.318014e+003,9.905457e+000
1.318979e+003,1.027722e+001
1.319943e+003,1.132343e+001
1.320907e+003,1.317560e+001
1.321871e+003,1.504749e+001
1.322836e+003,1.641321e+001
1.323800e+003,1.732690e+001
1.324764e+003,1.767249e+001
1.325728e+003,1.784595e+001
1.326693e+003,1.836237e+001
1.327657e+003,1.898511e+001
1.328621e+003,1.936688e+001
1.329585e+003,2.124286e+001
1.330549e+003,2.240125e+001
1.331514e+003,1.902008e+001
1.332478e+003,1.456323e+001
1.333442e+003,1.291791e+001
1.334406e+003,1.414642e+001
1.335371e+003,1.592212e+001
1.336335e+003,1.680804e+001
1.337299e+003,1.768317e+001
1.338263e+003,2.026398e+001
1.339228e+003,2.507257e+001
1.340192e+003,2.680072e+001
1.341156e+003,2.309686e+001
1.342120e+003,1.996735e+001
1.343084e+003,1.749451e+001
1.344049e+003,1.571667e+001
1.345013e+003,1.530389e+001
1.345977e+003,1.625079e+001
1.346941e+003,1.809436e+001
1.347906e+003,2.070715e+001
1.348870e+003,2.298108e+001
1.349834e+003,2.359186e+001
1.350798e+003,2.300494e+001
1.351763e+003,2.291852e+001
1.352727e+003,2.326367e+001
1.353691e+003,2.282904e+001
1.354655e+003,2.118475e+001
1.355620e+003,1.882013e+001
1.356584e+003,1.590472e+001
1.357548e+003,1.278436e+001
1.358512e+003,1.122528e+001
1.359476e+003,1.091431e+001
1.360441e+003,1.150653e+001
1.361405e+003,1.449579e+001
1.362369e+003,1.714447e+001
1.363333e+003,1.825476e+001
1.364298e+003,1.815942e+001
1.365262e+003,1.706366e+001
1.366226e+003,1.537439e+001
1.367190e+003,1.419629e+001
1.368155e+003,1.453473e+001
1.369119e+003,1.576685e+001
1.370083e+003,1.591437e+001
1.371047e+003,1.453680e+001
1.372011e+003,1.532703e+001
1.372976e+003,2.008124e+001
1.373940e+003,2.348749e+001
1.374904e+003,2.311096e+001
1.375868e+003,2.106812e+001
1.376833e+003,1.965564e+001
1.377797e+003,1.898529e+001
1.378761e+003,1.846124e+001
1.379725e+003,1.816101e+001
1.380690e+003,1.732501e+001
1.381654e+003,1.366315e+001
1.382618e+003,9.962585e+000
1.383582e+003,1.071838e+001
1.384547e+003,1.561273e+001
1.385511e+003,2.053143e+001
1.386475e+003,2.329779e+001
1.387439e+003,2.471088e+001
1.388403e+003,2.631677e+001
1.389368e+003,2.805701e+001
1.390332e+003,2.757141e+001
1.391296e+003,2.308160e+001
1.392260e+003,2.054950e+001
1.393225e+003,2.367401e+001
1.394189e+003,2.615997e+001
1.395153e+003,2.290009e+001
1.396117e+003,1.732379e+001
1.397082e+003,1.537689e+001
1.398046e+003,1.840143e+001
1.399010e+003,2.279413e+001
1.399974e+003,2.501746e+001
1.400938e+003,2.487042e+001
1.401903e+003,2.304425e+001
1.402867e+003,1.991754e+001
1.403831e+003,1.973651e+001
1.404795e+003,2.386743e+001
1.405760e+003,2.772302e+001
1.406724e+003,2.954425e+001
1.407688e+003,2.878070e+001
1.408652e+003,2.438092e+001
1.409617e+003,1.789551e+001
1.410581e+003,1.434821e+001
1.411545e+003,1.597662e+001
1.412509e+003,1.947461e+001
1.413474e+003,2.219080e+001
1.414438e+003,2.357434e+001
1.415402e+003,2.366528e+001
1.416366e+003,2.294440e+001
1.417330e+003,2.148871e+001
1.418295e+003,1.892694e+001
1.419259e+003,1.720062e+001
1.420223e+003,1.919183e+001
1.421187e+003,2.378754e+001
1.422152e+003,2.540680e+001
1.423116e+003,2.304346e+001
1.424080e+003,2.252826e+001
1.425044e+003,2.742511e+001
1.426009e+003,3.133215e+001
1.426973e+003,3.149573e+001
1.427937e+003,2.920074e+001
1.428901e+003,2.462390e+001
1.429865e+003,1.953137e+001
1.430830e+003,1.839648e+001
1.431794e+003,2.383398e+001
1.432758e+003,3.215271e+001
1.433722e+003,3.670050e+001
1.434687e+003,3.799652e+001
1.435651e+003,3.869458e+001
1.436615e+003,3.557751e+001
1.437579e+003,3.330609e+001
1.438544e+003,3.199011e+001
1.439508e+003,3.238409e+001
1.440472e+003,3.683545e+001
1.441436e+003,4.332770e+001
1.442401e+003,4.827020e+001
1.443365e+003,5.042908e+001
1.444329e+003,4.928448e+001
1.445293e+003,4.398175e+001
1.446257e+003,3.710498e+001
1.447222e+003,3.336243e+001
1.448186e+003,3.212988e+001
1.449150e+003,3.058484e+001
1.450114e+003,2.809515e+001
1.451079e+003,2.622583e+001
1.452043e+003,2.645642e+001
1.453007e+003,2.793652e+001
1.453971e+003,2.936243e+001
1.454936e+003,3.047485e+001
1.455900e+003,3.090826e+001
1.456864e+003,3.044830e+001
1.457828e+003,3.076111e+001
1.458792e+003,3.348090e+001
1.459757e+003,3.611810e+001
1.460721e+003,3.634479e+001
1.461685e+003,3.501685e+001
1.462649e+003,3.437909e+001
1.463614e+003,3.510400e+001
1.464578e+003,3.545972e+001
1.465542e+003,3.349658e+001
1.466506e+003,3.017169e+001
1.467471e+003,2.910004e+001
1.468435e+003,3.142535e+001
1.469399e+003,3.311255e+001
1.470363e+003,3.191479e+001
1.471328e+003,3.180322e+001
1.472292e+003,3.436279e+001
1.473256e+003,3.661060e+001
1.474220e+003,3.707587e+001
1.475184e+003,3.645465e+001
1.476149e+003,3.541565e+001
1.477113e+003,3.418005e+001
1.478077e+003,3.366058e+001
1.479041e+003,3.521838e+001
1.480006e+003,3.818347e+001
1.480970e+003,3.913910e+001
1.481934e+003,3.660577e+001
1.482898e+003,3.614734e+001
1.483863e+003,3.924744e+001
1.484827e+003,4.185413e+001
1.485791e+003,4.327313e+001
1.486755e+003,4.428326e+001
1.487719e+003,4.425214e+001
1.488684e+003,4.406433e+001
1.489648e+003,4.688654e+001
1.490612e+003,5.384552e+001
1.491576e+003,6.112524e+001
1.492541e+003,6.540186e+001
1.493505e+003,6.774652e+001
1.494469e+003,7.015747e+001
1.495433e+003,7.220947e+001
1.496398e+003,7.477429e+001
1.497362e+003,7.847339e+001
1.498326e+003,8.375970e+001
1.499290e+003,9.111768e+001
1.500255e+003,9.983069e+001
1.501219e+003,1.091021e+002
1.502183e+003,1.186221e+002
1.503147e+003,1.274250e+002
1.504111e+003,1.349598e+002
1.505076e+003,1.434156e+002
1.506040e+003,1.531699e+002
1.507004e+003,1.657759e+002
1.507968e+003,1.824924e+002
1.508933e+003,2.028486e+002
1.509897e+003,2.267015e+002
1.510861e+003,2.545078e+002
1.511825e+003,2.837273e+002
1.512790e+003,3.117618e+002
1.513754e+003,3.399255e+002
1.514718e+003,3.717025e+002
1.515682e+003,4.065933e+002
1.516646e+003,4.424769e+002
1.517611e+003,4.820908e+002
1.518575e+003,5.172047e+002
1.519539e+003,5.464518e+002
1.520503e+003,5.703168e+002
1.521468e+003,5.886869e+002
1.522432e+003,6.013951e+002
1.523396e+003,6.086804e+002
1.524360e+003,6.101654e+002
1.525325e+003,6.046874e+002
1.526289e+003,5.916221e+002
1.527253e+003,5.725660e+002
1.528217e+003,5.498315e+002
1.529182e+003,5.238231e+002
1.530146e+003,4.959626e+002
1.531110e+003,4.679315e+002
1.532074e+003,4.335782e+002
1.533039e+003,3.881076e+002
1.534003e+003,3.399117e+002
1.534967e+003,2.902992e+002
1.535931e+003,2.436389e+002
1.536896e+003,2.034562e+002
1.537860e+003,1.705290e+002
1.538824e+003,1.445952e+002
1.539788e+003,1.250339e+002
1.540752e+003,1.096539e+002
1.541717e+003,9.594226e+001
1.542681e+003,8.439484e+001
1.543645e+003,7.632605e+001
1.544609e+003,7.419861e+001
1.545573e+003,7.079932e+001
1.546538e+003,6.434875e+001
1.547502e+003,5.752191e+001
1.548466e+003,5.094727e+001
1.549430e+003,4.602643e+001
1.550395e+003,4.417938e+001
1.551359e+003,4.449420e+001
1.552323e+003,4.506085e+001
1.553287e+003,4.520953e+001
1.554252e+003,4.495984e+001
1.555216e+003,4.430396e+001
1.556180e+003,4.303351e+001
1.557144e+003,4.031525e+001
1.558109e+003,3.630383e+001
1.559073e+003,3.453748e+001
1.560037e+003,3.529999e+001
1.561001e+003,3.617108e+001
1.561966e+003,3.793152e+001
1.562930e+003,3.942981e+001
1.563894e+003,3.868201e+001
1.564858e+003,3.639288e+001
1.565823e+003,3.482617e+001
1.566787e+003,3.431561e+001
1.567751e+003,3.339862e+001
1.568715e+003,3.135730e+001
1.569679e+003,2.892285e+001
1.570644e+003,2.594263e+001
1.571608e+003,2.306720e+001
1.572572e+003,2.357733e+001
1.573536e+003,2.799127e+001
1.574500e+003,3.152020e+001
1.575465e+003,3.204535e+001
1.576429e+003,3.170575e+001
1.577393e+003,3.207599e+001
1.578357e+003,3.248651e+001
1.579322e+003,3.135535e+001
1.580286e+003,2.902332e+001
1.581250e+003,2.938324e+001
1.582214e+003,3.451202e+001
1.583179e+003,3.908679e+001
1.584143e+003,3.854999e+001
1.585107e+003,3.532214e+001
1.586071e+003,3.237640e+001
1.587036e+003,3.071844e+001
1.588000e+003,3.230212e+001
1.588964e+003,3.739008e+001
1.589928e+003,4.213232e+001
1.590893e+003,4.462390e+001
1.591857e+003,4.491187e+001
1.592821e+003,4.155859e+001
1.593785e+003,3.574365e+001
1.594750e+003,3.446692e+001
1.595714e+003,3.918103e+001
1.596678e+003,4.290686e+001
1.597642e+003,4.275604e+001
1.598606e+003,4.102777e+001
1.599571e+003,3.812183e+001
1.600535e+003,3.599347e+001
1.601499e+003,3.797925e+001
1.602463e+003,4.326404e+001
1.603427e+003,4.766742e+001
1.604392e+003,4.967438e+001
1.605356e+003,4.940753e+001
1.606320e+003,4.631372e+001
1.607284e+003,4.133240e+001
1.608249e+003,3.680890e+001
1.609213e+003,3.275537e+001
1.610177e+003,2.938733e+001
1.611141e+003,2.660437e+001
1.612106e+003,2.488489e+001
1.613070e+003,2.465210e+001
1.614034e+003,2.536237e+001
1.614998e+003,2.665765e+001
1.615963e+003,2.867438e+001
1.616927e+003,3.278778e+001
1.617891e+003,3.826501e+001
1.618855e+003,3.973889e+001
1.619820e+003,3.323370e+001
1.620784e+003,2.382446e+001
1.621748e+003,1.953320e+001
1.622712e+003,2.025757e+001
1.623677e+003,2.109216e+001
1.624641e+003,2.182043e+001
1.625605e+003,2.428760e+001
1.626569e+003,2.966467e+001
1.627533e+003,3.296246e+001
1.628498e+003,3.126068e+001
1.629462e+003,2.819775e+001
1.630426e+003,2.650671e+001
1.631390e+003,2.575513e+001
1.632354e+003,2.446869e+001
1.633319e+003,2.231140e+001
1.634283e+003,2.025916e+001
1.635247e+003,1.875134e+001
1.636211e+003,1.831110e+001
1.637176e+003,2.117682e+001
1.638140e+003,2.714252e+001
1.639104e+003,2.933405e+001
1.640068e+003,2.622870e+001
1.641033e+003,2.356866e+001
1.641997e+003,2.321509e+001
1.642961e+003,2.343683e+001
1.643925e+003,2.274628e+001
1.644890e+003,2.252881e+001
1.645854e+003,2.479761e+001
1.646818e+003,2.846765e+001
1.647782e+003,3.081647e+001
1.648747e+003,3.095209e+001
1.649711e+003,2.978357e+001
1.650675e+003,2.811096e+001
1.651639e+003,2.652008e+001
1.652604e+003,2.545752e+001
1.653568e+003,2.467072e+001
1.654532e+003,2.489160e+001
1.655496e+003,2.660114e+001
1.656460e+003,2.777722e+001
1.657425e+003,2.807019e+001
1.658389e+003,2.777106e+001
1.659353e+003,2.660931e+001
1.660317e+003,2.524335e+001
1.661281e+003,2.448621e+001
1.662246e+003,2.398175e+001
1.663210e+003,2.279755e+001
1.664174e+003,2.081805e+001
1.665138e+003,1.885150e+001
1.666103e+003,1.727277e+001
1.667067e+003,1.597382e+001
1.668031e+003,1.504846e+001
1.668995e+003,1.461682e+001
1.669960e+003,1.503815e+001
1.670924e+003,1.704468e+001
1.671888e+003,1.728729e+001
1.672852e+003,1.225354e+001
1.673817e+003,8.292480e+000
1.674781e+003,1.078162e+001
1.675745e+003,1.526196e+001
1.676709e+003,1.717633e+001
1.677674e+003,1.661200e+001
1.678638e+003,1.491718e+001
1.679602e+003,1.255115e+001
1.680566e+003,1.084491e+001
1.681531e+003,1.134186e+001
1.682495e+003,1.306116e+001
1.683459e+003,1.408258e+001
1.684423e+003,1.413281e+001
1.685387e+003,1.300940e+001
1.686352e+003,1.065295e+001
1.687316e+003,8.776245e+000
1.688280e+003,7.845032e+000
1.689244e+003,7.619385e+000
1.690208e+003,8.744629e+000
1.691173e+003,9.660645e+000
1.692137e+003,8.043823e+000
1.693101e+003,5.245300e+000
1.694065e+003,4.867676e+000
1.695030e+003,7.431091e+000
1.695994e+003,1.001434e+001
1.696958e+003,1.122687e+001
1.697922e+003,1.156598e+001
1.698887e+003,1.130176e+001
1.699851e+003,1.085925e+001
1.700815e+003,1.126001e+001
1.701779e+003,1.233875e+001
1.702744e+003,1.305426e+001
1.703708e+003,1.369104e+001
1.704672e+003,1.365131e+001
1.705636e+003,1.110071e+001
1.706601e+003,7.678894e+000
1.707565e+003,7.028320e+000
1.708529e+003,8.546692e+000
1.709493e+003,9.449036e+000
1.710458e+003,9.404053e+000
1.711422e+003,8.112305e+000
1.712386e+003,3.484070e+000
1.713350e+003,6.833496e-001
1.714314e+003,5.983643e+000
1.715279e+003,1.371027e+001
1.716243e+003,1.384686e+001
1.717207e+003,7.418640e+000
1.718171e+003,2.782166e+000
1.719135e+003,2.353821e+000
1.720100e+003,3.445129e+000
1.721064e+003,4.376160e+000
1.722028e+003,4.988159e+000
1.722992e+003,5.487488e+000
1.723957e+003,6.321411e+000
1.724921e+003,7.415283e+000
1.725885e+003,8.329346e+000
1.726849e+003,7.150635e+000
1.727814e+003,2.477051e+000
1.728778e+003,-1.049316e+000
1.729742e+003,-1.726074e+000
1.730706e+003,-4.702759e-001
1.731671e+003,2.910767e+000
1.732635e+003,6.192810e+000
1.733599e+003,5.637451e+000
1.734563e+003,1.668579e+000
1.735528e+003,-1.716919e+000
1.736492e+003,-2.629639e+000
1.737456e+003,-2.182434e+000
1.738420e+003,-1.629761e+000
1.739385e+003,-1.161072e+000
1.740349e+003,1.281738e-001
1.741313e+003,3.312561e+000
1.742277e+003,3.625244e+000
1.743241e+003,-2.086975e+000
1.744206e+003,-4.770020e+000
1.745170e+003,-8.043213e-001
1.746134e+003,3.054321e+000
1.747098e+003,2.753479e+000
1.748063e+003,5.043335e-001
1.749027e+003,-1.586304e+000
1.749991e+003,-2.730591e+000
1.750955e+003,-1.886047e+000
1.751919e+003,7.100220e-001
1.752884e+003,2.255310e+000
1.753848e+003,4.122314e-001
1.754812e+003,-3.647522e+000
1.755776e+003,-7.535217e+000
1.756741e+003,-1.077087e+001
1.757705e+003,-1.109369e+001
1.758669e+003,-8.018555e+000
1.759633e+003,-4.552307e+000
1.760598e+003,2.674561e-001
1.761562e+003,2.812622e+000
1.762526e+003,1.602417e+000
1.763490e+003,-8.320923e-001
1.764455e+003,-3.524353e+000
1.765419e+003,-5.695923e+000
1.766383e+003,-6.905334e+000
1.767347e+003,-7.175781e+000
1.768312e+003,-5.922668e+000
1.769276e+003,-2.951050e+000
1.770240e+003,-6.503906e-001
1.771204e+003,-1.436584e+000
1.772168e+003,-3.268921e+000
1.773133e+003,-1.784729e+000
1.774097e+003,2.468689e+000
1.775061e+003,3.814514e+000
1.776025e+003,8.460693e-001
1.776990e+003,-2.593079e+000
1.777954e+003,-5.696350e+000
1.778918e+003,-6.264587e+000
1.779882e+003,-9.533691e-001
1.780846e+003,5.491516e+000
1.781811e+003,6.470947e+000
1.782775e+003,3.781067e+000
1.783739e+003,3.517334e+000
1.784703e+003,7.054077e+000
1.785668e+003,8.694885e+000
1.786632e+003,3.520447e+000
1.787596e+003,-1.995361e+000
1.788560e+003,-1.593323e+000
1.789525e+003,1.513306e+000
1.790489e+003,1.693604e+000
1.791453e+003,-2.645874e-001
1.792417e+003,5.854492e-001
1.793382e+003,4.900391e+000
1.794346e+003,7.677490e+000
1.795310e+003,6.154358e+000
1.796274e+003,2.499634e+000
1.797239e+003,-8.276367e-001
1.798203e+003,-3.041199e+000
1.799167e+003,-3.453735e+000
1.800131e+003,-2.927551e+000
1.801095e+003,-1.636963e+000
1.802060e+003,3.447693e+000
1.803024e+003,6.273376e+000
1.803988e+003,3.015991e+000
1.804952e+003,6.934204e-001
1.805917e+003,4.768433e+000
1.806881e+003,9.521545e+000
1.807845e+003,9.139709e+000
1.808809e+003,4.996033e+000
1.809773e+003,7.415771e-002
1.810738e+003,-4.135376e+000
1.811702e+003,-5.640381e+000
1.812666e+003,-3.351807e+000
1.813630e+003,-7.409058e-001
1.814595e+003,-2.941284e+000
1.815559e+003,-8.237976e+000
1.816523e+003,-8.408264e+000
1.817487e+003,-2.702148e+000
1.818452e+003,7.622070e-001
1.819416e+003,1.019470e+000
1.820380e+003,2.233826e+000
1.821344e+003,6.874268e+000
1.822309e+003,9.814697e+000
1.823273e+003,6.723877e+000
1.824237e+003,2.309509e+000
1.825201e+003,9.481201e-001
1.826166e+003,1.870544e+000
1.827130e+003,3.211792e+000
1.828094e+003,4.381775e+000
1.829058e+003,3.668335e+000
1.830022e+003,-4.937744e-001
1.830987e+003,-4.323547e+000
1.831951e+003,-4.138428e+000
1.832915e+003,-2.109009e+000
1.833879e+003,-1.562256e+000
1.834844e+003,-1.973206e+000
1.835808e+003,-8.580322e-001
1.836772e+003,1.971375e+000
1.837736e+003,3.662903e+000
1.838700e+003,2.696472e+000
1.839665e+003,1.409180e+000
1.840629e+003,2.356873e+000
1.841593e+003,4.022461e+000
1.842557e+003,2.487000e+000
1.843522e+003,-2.197876e+000
1.844486e+003,-4.186890e+000
1.845450e+003,-6.974487e-001
1.846414e+003,1.364685e+000
1.847379e+003,6.685791e-001
1.848343e+003,-1.240234e+000
1.849307e+003,-5.253845e+000
1.850271e+003,-8.378540e+000
1.851236e+003,-8.079773e+000
1.852200e+003,-5.387024e+000
1.853164e+003,-1.426270e+000
1.854128e+003,2.285828e+000
1.855093e+003,3.302673e+000
1.856057e+003,1.469421e+000
1.857021e+003,4.426880e-001
1.857985e+003,3.316895e+000
1.858949e+003,6.880615e+000
1.859914e+003,4.671631e+000
1.860878e+003,-1.688965e+000
1.861842e+003,-3.046204e+000
1.862806e+003,6.349487e-001
1.863771e+003,1.765991e+000
1.864735e+003,-1.975769e+000
1.865699e+003,-4.048828e+000
1.866663e+003,5.377197e-002
1.867627e+003,4.338379e+000
1.868592e+003,2.379272e+000
1.869556e+003,-3.103882e+000
1.870520e+003,-6.644409e+000
1.871484e+003,-8.331116e+000
1.872449e+003,-8.164978e+000
1.873413e+003,-4.477234e+000
1.874377e+003,1.113281e-001
1.875341e+003,4.703247e+000
1.876306e+003,7.844543e+000
1.877270e+003,7.508728e+000
1.878234e+003,6.173462e+000
1.879198e+003,7.373535e+000
1.880163e+003,9.322937e+000
1.881127e+003,7.714233e+000
1.882091e+003,3.056213e+000
1.883055e+003,-1.911011e-001
1.884020e+003,-2.614746e-001
1.884984e+003,7.083740e-001
1.885948e+003,8.199463e-001
1.886912e+003,4.889526e-001
1.887876e+003,6.598511e-001
1.888841e+003,1.302979e+000
1.889805e+003,1.333984e+000
1.890769e+003,6.557617e-001
1.891733e+003,-3.927612e-001
1.892698e+003,-3.491516e+000
1.893662e+003,-3.538574e+000
1.894626e+003,4.634460e+000
1.895590e+003,1.218164e+001
1.896554e+003,1.257776e+001
1.897519e+003,9.854980e+000
1.898483e+003,7.914307e+000
1.899447e+003,6.282043e+000
1.900411e+003,3.651855e+000
1.901376e+003,-1.412354e-001
1.902340e+003,-2.405823e+000
1.903304e+003,-2.115784e+000
1.904268e+003,-2.917480e-001
1.905233e+003,4.275879e+000
1.906197e+003,8.722290e+000
1.907161e+003,1.029663e+001
1.908125e+003,9.669067e+000
1.909090e+003,6.922424e+000
1.910054e+003,2.858826e+000
1.911018e+003,5.114746e-001
1.911982e+003,9.566650e-001
1.912947e+003,2.136475e+000
1.913911e+003,2.397766e+000
1.914875e+003,2.405579e+000
1.915839e+003,2.955566e+000
1.916803e+003,3.787109e+000
1.917768e+003,5.831665e+000
1.918732e+003,9.943970e+000
1.919696e+003,1.180316e+001
1.920660e+003,1.080579e+001
1.921625e+003,9.940430e+000
1.922589e+003,9.449585e+000
1.923553e+003,9.142822e+000
1.924517e+003,9.383301e+000
1.925481e+003,9.491211e+000
1.926446e+003,8.989258e+000
1.927410e+003,7.925171e+000
1.928374e+003,5.398438e+000
1.929338e+003,1.484985e+000
1.930303e+003,6.907959e-001
1.931267e+003,6.165161e+000
1.932231e+003,1.070166e+001
1.933195e+003,9.331177e+000
1.934160e+003,6.915649e+000
1.935124e+003,7.440430e+000
1.936088e+003,8.287598e+000
1.937052e+003,5.425049e+000
1.938017e+003,1.250854e+000
1.938981e+003,2.039917e+000
1.939945e+003,7.340332e+000
1.940909e+003,9.914551e+000
1.941874e+003,6.585205e+000
1.942838e+003,1.923340e+000
1.943802e+003,5.227051e-001
1.944766e+003,1.733887e+000
1.945730e+003,3.485718e+000
1.946695e+003,5.383789e+000
1.947659e+003,7.106812e+000
1.948623e+003,8.647827e+000
1.949587e+003,8.436768e+000
1.950552e+003,5.959351e+000
1.951516e+003,4.267578e+000
1.952480e+003,4.470337e+000
1.953444e+003,5.407715e+000
1.954408e+003,6.278198e+000
1.955373e+003,6.849365e+000
1.956337e+003,7.918091e+000
1.957301e+003,9.364380e+000
1.958265e+003,8.144653e+000
1.959230e+003,3.529907e+000
1.960194e+003,2.678711e+000
1.961158e+003,8.608887e+000
1.962122e+003,1.361646e+001
1.963087e+003,1.660388e+001
1.964051e+003,1.736536e+001
1.965015e+003,1.503540e+001
1.965979e+003,1.200232e+001
1.966944e+003,8.993774e+000
1.967908e+003,6.948486e+000
1.968872e+003,8.679321e+000
1.969836e+003,1.321252e+001
1.970801e+003,1.482703e+001
1.971765e+003,1.137268e+001
1.972729e+003,7.927124e+000
1.973693e+003,8.861816e+000
1.974657e+003,1.171082e+001
1.975622e+003,1.281531e+001
1.976586e+003,1.258142e+001
1.977550e+003,1.259961e+001
1.978514e+003,1.302734e+001
1.979479e+003,1.367920e+001
1.980443e+003,1.436243e+001
1.981407e+003,1.423889e+001
1.982371e+003,1.315942e+001
1.983335e+003,1.176123e+001
1.984300e+003,1.010938e+001
1.985264e+003,8.648315e+000
1.986228e+003,8.399780e+000
1.987192e+003,9.279419e+000
1.988157e+003,1.110486e+001
1.989121e+003,1.473987e+001
1.990085e+003,1.574170e+001
1.991049e+003,1.295557e+001
1.992014e+003,1.044702e+001
1.992978e+003,7.976074e+000
1.993942e+003,6.281250e+000
1.994906e+003,6.142456e+000
1.995871e+003,6.356689e+000
1.996835e+003,5.879272e+000
1.997799e+003,5.615356e+000
1.998763e+003,6.957642e+000
1.999728e+003,9.338257e+000
