5.003444e+002,4.776099e+001
5.013087e+002,4.996297e+001
5.022729e+002,4.836522e+001
5.032371e+002,4.424922e+001
5.042014e+002,4.192276e+001
5.051656e+002,4.116661e+001
5.061298e+002,4.086914e+001
5.070941e+002,3.994983e+001
5.080583e+002,3.801959e+001
5.090225e+002,3.744836e+001
5.099868e+002,3.897005e+001
5.109510e+002,4.059782e+001
5.119152e+002,4.116289e+001
5.128795e+002,4.054080e+001
5.138437e+002,4.042833e+001
5.148079e+002,4.296193e+001
5.157722e+002,4.479228e+001
5.167364e+002,4.382208e+001
5.177006e+002,4.020299e+001
5.186649e+002,3.628447e+001
5.196291e+002,3.538419e+001
5.205933e+002,3.574681e+001
5.215576e+002,3.491121e+001
5.225218e+002,3.269887e+001
5.234860e+002,3.037381e+001
5.244503e+002,3.039313e+001
5.254145e+002,3.390172e+001
5.263787e+002,3.600565e+001
5.273430e+002,3.628342e+001
5.283072e+002,3.547212e+001
5.292714e+002,3.434155e+001
5.302357e+002,3.220729e+001
5.311999e+002,3.095531e+001
5.321641e+002,3.146199e+001
5.331284e+002,3.252626e+001
5.340926e+002,3.313577e+001
5.350568e+002,3.282956e+001
5.360211e+002,3.237128e+001
5.369853e+002,3.340347e+001
5.379495e+002,3.438939e+001
5.389138e+002,3.369763e+001
5.398780e+002,3.080519e+001
5.408422e+002,2.661768e+001
5.418065e+002,2.324791e+001
5.427707e+002,2.071451e+001
5.437349e+002,1.983018e+001
5.446992e+002,2.116492e+001
5.456634e+002,2.407964e+001
5.466276e+002,2.640396e+001
5.475919e+002,2.875996e+001
5.485561e+002,2.948994e+001
5.495203e+002,2.718282e+001
5.504846e+002,2.358626e+001
5.514488e+002,2.128754e+001
5.524130e+002,2.169347e+001
5.533773e+002,2.255820e+001
5.543415e+002,2.285367e+001
5.553057e+002,2.279362e+001
5.562700e+002,2.248402e+001
5.572342e+002,2.198071e+001
5.581984e+002,2.145459e+001
5.591627e+002,2.154050e+001
5.601269e+002,2.205505e+001
5.610911e+002,2.249283e+001
5.620554e+002,2.255890e+001
5.630196e+002,2.224416e+001
5.639838e+002,2.186580e+001
5.649481e+002,2.142012e+001
5.659123e+002,2.093279e+001
5.668765e+002,2.063583e+001
5.678408e+002,2.046849e+001
5.688050e+002,2.003214e+001
5.697692e+002,1.867717e+001
5.707335e+002,1.744554e+001
5.716977e+002,1.676651e+001
5.726619e+002,1.644687e+001
5.736262e+002,1.622890e+001
5.745904e+002,1.597289e+001
5.755546e+002,1.573427e+001
5.765189e+002,1.548349e+001
5.774831e+002,1.515343e+001
5.784473e+002,1.471855e+001
5.794116e+002,1.421365e+001
5.803758e+002,1.375009e+001
5.813400e+002,1.387500e+001
5.823043e+002,1.463683e+001
5.832685e+002,1.521317e+001
5.842327e+002,1.528798e+001
5.851970e+002,1.503934e+001
5.861612e+002,1.516217e+001
5.871254e+002,1.627135e+001
5.880897e+002,1.700012e+001
5.890539e+002,1.718661e+001
5.900181e+002,1.673543e+001
5.909824e+002,1.537146e+001
5.919466e+002,1.245428e+001
5.929108e+002,9.791031e+000
5.938751e+002,9.228577e+000
5.948393e+002,1.004337e+001
5.958035e+002,1.133463e+001
5.967678e+002,1.243950e+001
5.977320e+002,1.334137e+001
5.986962e+002,1.341722e+001
5.996605e+002,1.259468e+001
6.006247e+002,1.156784e+001
6.015889e+002,1.040868e+001
6.025532e+002,9.187592e+000
6.035174e+002,8.684631e+000
6.044816e+002,9.568924e+000
6.054459e+002,1.058556e+001
6.064101e+002,1.193889e+001
6.073743e+002,1.323698e+001
6.083386e+002,1.374222e+001
6.093028e+002,1.266023e+001
6.102670e+002,1.160994e+001
6.112313e+002,1.189285e+001
6.121955e+002,1.291096e+001
6.131597e+002,1.410600e+001
6.141240e+002,1.505553e+001
6.150882e+002,1.550908e+001
6.160524e+002,1.375615e+001
6.170167e+002,1.026721e+001
6.179809e+002,7.638077e+000
6.189451e+002,7.191422e+000
6.199094e+002,8.565979e+000
6.208736e+002,9.363892e+000
6.218378e+002,9.847046e+000
6.228021e+002,9.523453e+000
6.237663e+002,7.284073e+000
6.247305e+002,4.507904e+000
6.256948e+002,3.545456e+000
6.266590e+002,5.998611e+000
6.276232e+002,8.540497e+000
6.285875e+002,9.108978e+000
6.295517e+002,8.806915e+000
6.305159e+002,8.830994e+000
6.314802e+002,9.773178e+000
6.324444e+002,1.095161e+001
6.334086e+002,1.033102e+001
6.343729e+002,8.547516e+000
6.353371e+002,6.744232e+000
6.363013e+002,5.166672e+000
6.372656e+002,3.966995e+000
6.382298e+002,3.814758e+000
6.391940e+002,6.188110e+000
6.401583e+002,7.615768e+000
6.411225e+002,7.725708e+000
6.420867e+002,7.274048e+000
6.430510e+002,7.100250e+000
6.440152e+002,7.442902e+000
6.449794e+002,7.543045e+000
6.459437e+002,6.924713e+000
6.469079e+002,6.037338e+000
6.478721e+002,5.147919e+000
6.488364e+002,4.423935e+000
6.498006e+002,3.974411e+000
6.507648e+002,4.168243e+000
6.517291e+002,4.666687e+000
6.526933e+002,4.716782e+000
6.536575e+002,4.160797e+000
6.546218e+002,3.138962e+000
6.555860e+002,1.836197e+000
6.565502e+002,-5.006561e-001
6.575145e+002,-1.261383e+000
6.584787e+002,3.668213e-001
6.594429e+002,2.698166e+000
6.604072e+002,4.827225e+000
6.613714e+002,6.762512e+000
6.623356e+002,7.289413e+000
6.632999e+002,4.184647e+000
6.642641e+002,8.324585e-001
6.652283e+002,-1.007660e+000
6.661926e+002,-1.142410e+000
6.671568e+002,-4.733429e-001
6.681210e+002,1.107788e-002
6.690853e+002,3.883514e-001
6.700495e+002,9.633789e-001
6.710137e+002,1.744232e+000
6.719780e+002,2.681686e+000
6.729422e+002,3.797501e+000
6.739064e+002,5.254410e+000
6.748707e+002,5.487411e+000
6.758349e+002,3.414078e+000
6.767991e+002,1.684402e+000
6.777634e+002,1.743103e+000
6.787276e+002,3.428116e+000
6.796918e+002,4.900330e+000
6.806561e+002,5.075897e+000
6.816203e+002,5.171921e+000
6.825845e+002,5.876770e+000
6.835488e+002,6.798523e+000
6.845130e+002,7.182755e+000
6.854772e+002,6.429871e+000
6.864415e+002,5.219742e+000
6.874057e+002,4.890045e+000
6.883699e+002,5.121216e+000
6.893342e+002,5.490829e+000
6.902984e+002,5.818039e+000
6.912626e+002,6.112366e+000
6.922269e+002,6.224503e+000
6.931911e+002,6.017868e+000
6.941553e+002,6.123077e+000
6.951196e+002,7.052460e+000
6.960838e+002,7.989517e+000
6.970480e+002,7.409149e+000
6.980123e+002,4.063309e+000
6.989765e+002,1.806122e+000
6.999407e+002,2.963745e+000
7.009050e+002,5.013062e+000
7.018692e+002,5.846573e+000
7.028334e+002,4.815460e+000
7.037977e+002,3.212036e+000
7.047619e+002,3.288223e+000
7.057261e+002,4.368851e+000
7.066904e+002,4.867493e+000
7.076546e+002,4.527237e+000
7.086188e+002,3.852798e+000
7.095831e+002,3.631485e+000
7.105473e+002,3.954010e+000
7.115115e+002,4.339539e+000
7.124758e+002,5.151047e+000
7.134400e+002,5.609940e+000
7.144042e+002,4.980682e+000
7.153685e+002,3.336868e+000
7.163327e+002,2.248734e+000
7.172969e+002,3.250336e+000
7.182612e+002,4.243301e+000
7.192254e+002,4.226120e+000
7.201896e+002,3.463669e+000
7.211539e+002,2.715027e+000
7.221181e+002,2.631805e+000
7.230823e+002,2.945511e+000
7.240466e+002,2.988647e+000
7.250108e+002,2.862259e+000
7.259750e+002,2.398056e+000
7.269393e+002,1.215729e+000
7.279035e+002,-5.093994e-001
7.288677e+002,-4.661560e-001
7.298320e+002,4.365829e+000
7.307962e+002,7.627884e+000
7.317604e+002,8.310852e+000
7.327247e+002,7.466660e+000
7.336889e+002,6.333939e+000
7.346531e+002,4.933533e+000
7.356174e+002,3.532501e+000
7.365816e+002,2.531555e+000
7.375458e+002,1.770340e+000
7.385101e+002,1.027802e+000
7.394743e+002,2.994232e-001
7.404385e+002,-1.634674e-001
7.414028e+002,2.450562e-002
7.423670e+002,6.335602e-001
7.433312e+002,1.371048e+000
7.442955e+002,2.389816e+000
7.452597e+002,3.589828e+000
7.462239e+002,4.936905e+000
7.471882e+002,6.655533e+000
7.481524e+002,7.184753e+000
7.491166e+002,5.029236e+000
7.500809e+002,3.305664e+000
7.510451e+002,3.750824e+000
7.520093e+002,5.726639e+000
7.529736e+002,6.737091e+000
7.539378e+002,5.197159e+000
7.549020e+002,3.289917e+000
7.558663e+002,2.109268e+000
7.568306e+002,1.570267e+000
7.577948e+002,1.589783e+000
7.587590e+002,2.050797e+000
7.597233e+002,2.703629e+000
7.606875e+002,3.056198e+000
7.616517e+002,3.203598e+000
7.626160e+002,3.083862e+000
7.635802e+002,2.620316e+000
7.645444e+002,1.980576e+000
7.655087e+002,1.363480e+000
7.664729e+002,2.055969e-001
7.674371e+002,4.240112e-001
7.684014e+002,3.514954e+000
7.693656e+002,6.477890e+000
7.703298e+002,7.128525e+000
7.712941e+002,5.389252e+000
7.722583e+002,3.475525e+000
7.732225e+002,2.413940e+000
7.741868e+002,2.474457e+000
7.751510e+002,4.899292e+000
7.761152e+002,8.630981e+000
7.770795e+002,1.110272e+001
7.780437e+002,1.000067e+001
7.790079e+002,5.972534e+000
7.799722e+002,5.438309e+000
7.809364e+002,8.721786e+000
7.819006e+002,1.110701e+001
7.828649e+002,1.010577e+001
7.838291e+002,6.929474e+000
7.847933e+002,5.688965e+000
7.857576e+002,8.495483e+000
7.867218e+002,9.443054e+000
7.876860e+002,5.625824e+000
7.886503e+002,1.329742e+000
7.896145e+002,4.814606e-001
7.905787e+002,3.948059e+000
7.915430e+002,8.396545e+000
7.925072e+002,1.078534e+001
7.934714e+002,1.158836e+001
7.944357e+002,1.103964e+001
7.953999e+002,9.442139e+000
7.963641e+002,7.378052e+000
7.973284e+002,5.396515e+000
7.982926e+002,3.457077e+000
7.992568e+002,2.835602e+000
8.002211e+002,3.589874e+000
8.011853e+002,4.631241e+000
8.021495e+002,6.156708e+000
8.031138e+002,7.998032e+000
8.040780e+002,9.053223e+000
8.050422e+002,8.483612e+000
8.060065e+002,7.792557e+000
8.069707e+002,7.102219e+000
8.079349e+002,6.638000e+000
8.088992e+002,6.732910e+000
8.098634e+002,7.501694e+000
8.108276e+002,8.659180e+000
8.117919e+002,1.009402e+001
8.127561e+002,1.120248e+001
8.137203e+002,1.095435e+001
8.146846e+002,9.360962e+000
8.156488e+002,7.216599e+000
8.166130e+002,5.262650e+000
8.175773e+002,3.204178e+000
8.185415e+002,3.048431e+000
8.195057e+002,6.340363e+000
8.204700e+002,9.069443e+000
8.214342e+002,9.508270e+000
8.223984e+002,8.366837e+000
8.233627e+002,7.753693e+000
8.243269e+002,8.872269e+000
8.252911e+002,9.645279e+000
8.262554e+002,8.851028e+000
8.272196e+002,7.205536e+000
8.281838e+002,5.034775e+000
8.291481e+002,2.691650e+000
8.301123e+002,8.501740e-001
8.310765e+002,9.181213e-001
8.320408e+002,2.751968e+000
8.330050e+002,4.129593e+000
8.339692e+002,5.008835e+000
8.349335e+002,5.296951e+000
8.358977e+002,4.457169e+000
8.368619e+002,2.148315e+000
8.378262e+002,1.705673e+000
8.387904e+002,4.921677e+000
8.397546e+002,7.884552e+000
8.407189e+002,1.027983e+001
8.416831e+002,1.164014e+001
8.426473e+002,1.084888e+001
8.436116e+002,6.801102e+000
8.445758e+002,3.213196e+000
8.455400e+002,4.904205e+000
8.465043e+002,8.583984e+000
8.474685e+002,1.083627e+001
8.484327e+002,1.076056e+001
8.493970e+002,9.562973e+000
8.503612e+002,9.134308e+000
8.513254e+002,9.614059e+000
8.522897e+002,9.437592e+000
8.532539e+002,7.900360e+000
8.542181e+002,6.560699e+000
8.551824e+002,6.489990e+000
8.561466e+002,7.670761e+000
8.571108e+002,9.168457e+000
8.580751e+002,1.102483e+001
8.590393e+002,1.234428e+001
8.600035e+002,1.272220e+001
8.609678e+002,1.268544e+001
8.619320e+002,1.274046e+001
8.628962e+002,1.309656e+001
8.638605e+002,1.365857e+001
8.648247e+002,1.450531e+001
8.657889e+002,1.536484e+001
8.667532e+002,1.561047e+001
8.677174e+002,1.516055e+001
8.686816e+002,1.447917e+001
8.696459e+002,1.410197e+001
8.706101e+002,1.411559e+001
8.715743e+002,1.423093e+001
8.725386e+002,1.447621e+001
8.735028e+002,1.479550e+001
8.744670e+002,1.484514e+001
8.754313e+002,1.489383e+001
8.763955e+002,1.563786e+001
8.773597e+002,1.755667e+001
8.783240e+002,1.952023e+001
8.792882e+002,2.089149e+001
8.802524e+002,2.174229e+001
8.812167e+002,2.192334e+001
8.821809e+002,2.154988e+001
8.831451e+002,2.099809e+001
8.841094e+002,2.073376e+001
8.850736e+002,2.088939e+001
8.860378e+002,2.202403e+001
8.870021e+002,2.446919e+001
8.879663e+002,2.642393e+001
8.889305e+002,2.660193e+001
8.898948e+002,2.531517e+001
8.908590e+002,2.427419e+001
8.918232e+002,2.334378e+001
8.927875e+002,2.337012e+001
8.937517e+002,2.525835e+001
8.947159e+002,2.751913e+001
8.956802e+002,2.903688e+001
8.966444e+002,2.942734e+001
8.976086e+002,2.873019e+001
8.985729e+002,2.623361e+001
8.995371e+002,2.365294e+001
9.005013e+002,2.411534e+001
9.014656e+002,2.717110e+001
9.024298e+002,3.015071e+001
9.033940e+002,3.094597e+001
9.043583e+002,2.978279e+001
9.053225e+002,2.917101e+001
9.062867e+002,2.927559e+001
9.072510e+002,2.966675e+001
9.082152e+002,3.148853e+001
9.091794e+002,3.306247e+001
9.101437e+002,3.220219e+001
9.111079e+002,2.851974e+001
9.120721e+002,2.525235e+001
9.130364e+002,2.396887e+001
9.140006e+002,2.388681e+001
9.149648e+002,2.542825e+001
9.159291e+002,2.790430e+001
9.168933e+002,3.010634e+001
9.178575e+002,3.113274e+001
9.188218e+002,3.111098e+001
9.197860e+002,3.033673e+001
9.207502e+002,2.871207e+001
9.217145e+002,2.789766e+001
9.226787e+002,2.906407e+001
9.236429e+002,3.061421e+001
9.246072e+002,2.989279e+001
9.255714e+002,2.611279e+001
9.265356e+002,2.382906e+001
9.274999e+002,2.517535e+001
9.284641e+002,2.651944e+001
9.294283e+002,2.689165e+001
9.303926e+002,2.638004e+001
9.313568e+002,2.522945e+001
9.323210e+002,2.350197e+001
9.332853e+002,2.175677e+001
9.342495e+002,2.092734e+001
9.352137e+002,2.067305e+001
9.361780e+002,2.088460e+001
9.371422e+002,2.158167e+001
9.381064e+002,2.223755e+001
9.390707e+002,2.195178e+001
9.400349e+002,2.034695e+001
9.409991e+002,1.966725e+001
9.419634e+002,2.103558e+001
9.429276e+002,2.171964e+001
9.438918e+002,2.041600e+001
9.448561e+002,1.820993e+001
9.458203e+002,1.698174e+001
9.467845e+002,1.737959e+001
9.477488e+002,1.824182e+001
9.487130e+002,1.905394e+001
9.496772e+002,1.965985e+001
9.506415e+002,1.980522e+001
9.516057e+002,1.956389e+001
9.525699e+002,1.931396e+001
9.535342e+002,1.942886e+001
9.544984e+002,1.973914e+001
9.554626e+002,1.890193e+001
9.564269e+002,1.674701e+001
9.573911e+002,1.517624e+001
9.583553e+002,1.501477e+001
9.593196e+002,1.552927e+001
9.602838e+002,1.538530e+001
9.612480e+002,1.416609e+001
9.622123e+002,1.372917e+001
9.631765e+002,1.564265e+001
9.641407e+002,1.747826e+001
9.651050e+002,1.805823e+001
9.660692e+002,1.757896e+001
9.670334e+002,1.664973e+001
9.679977e+002,1.567393e+001
9.689619e+002,1.507283e+001
9.699261e+002,1.595789e+001
9.708904e+002,1.777350e+001
9.718546e+002,1.912001e+001
9.728188e+002,1.952863e+001
9.737831e+002,1.991873e+001
9.747473e+002,2.179268e+001
9.757115e+002,2.564445e+001
9.766758e+002,2.846695e+001
9.776400e+002,3.018643e+001
9.786042e+002,3.112741e+001
9.795685e+002,3.126967e+001
9.805327e+002,3.053793e+001
9.814969e+002,2.866455e+001
9.824612e+002,2.561905e+001
9.834254e+002,2.245566e+001
9.843896e+002,2.001411e+001
9.853539e+002,1.793869e+001
9.863181e+002,1.585703e+001
9.872823e+002,1.374445e+001
9.882466e+002,1.194063e+001
9.892108e+002,1.086446e+001
9.901750e+002,1.045886e+001
9.911393e+002,9.392075e+000
9.921035e+002,6.072403e+000
9.930677e+002,4.248657e+000
9.940320e+002,5.036087e+000
9.949962e+002,6.806412e+000
9.959604e+002,8.156265e+000
9.969247e+002,8.991180e+000
9.978889e+002,1.000476e+001
9.988531e+002,1.206757e+001
9.998174e+002,1.333714e+001
1.000782e+003,1.220056e+001
1.001746e+003,9.956757e+000
1.002710e+003,8.403397e+000
1.003674e+003,8.330170e+000
1.004639e+003,9.225906e+000
1.005603e+003,1.032834e+001
1.006567e+003,1.162334e+001
1.007531e+003,1.153563e+001
1.008495e+003,9.515274e+000
1.009460e+003,7.333878e+000
1.010424e+003,5.901779e+000
1.011388e+003,5.179535e+000
1.012352e+003,4.985062e+000
1.013317e+003,5.410736e+000
1.014281e+003,6.078156e+000
1.015245e+003,6.871567e+000
1.016209e+003,7.695892e+000
1.017174e+003,9.008896e+000
1.018138e+003,1.041179e+001
1.019102e+003,1.058850e+001
1.020066e+003,8.334152e+000
1.021031e+003,4.693161e+000
1.021995e+003,2.183243e+000
1.022959e+003,5.796204e-001
1.023923e+003,2.341003e-001
1.024887e+003,1.670425e+000
1.025852e+003,3.665848e+000
1.026816e+003,4.220444e+000
1.027780e+003,3.031464e+000
1.028744e+003,2.168030e+000
1.029709e+003,2.286163e+000
1.030673e+003,2.112274e+000
1.031637e+003,5.859528e-001
1.032601e+003,-1.233704e+000
1.033566e+003,-1.628403e+000
1.034530e+003,-1.268005e-002
1.035494e+003,2.102386e+000
1.036458e+003,3.381363e+000
1.037422e+003,3.744080e+000
1.038387e+003,2.558716e+000
1.039351e+003,9.480286e-002
1.040315e+003,-1.461639e+000
1.041279e+003,-2.599335e-001
1.042244e+003,2.981934e+000
1.043208e+003,4.465118e+000
1.044172e+003,2.548370e+000
1.045136e+003,1.417343e+000
1.046101e+003,1.584427e+000
1.047065e+003,2.166687e+000
1.048029e+003,3.011948e+000
1.048993e+003,3.775894e+000
1.049958e+003,3.427841e+000
1.050922e+003,1.038345e+000
1.051886e+003,-1.280304e+000
1.052850e+003,-1.041672e+000
1.053814e+003,3.498230e-001
1.054779e+003,1.147675e+000
1.055743e+003,9.540405e-001
1.056707e+003,4.612579e-001
1.057671e+003,5.299835e-001
1.058636e+003,1.147293e+000
1.059600e+003,1.100601e+000
1.060564e+003,-5.580292e-001
1.061528e+003,-1.257233e+000
1.062493e+003,-2.394409e-001
1.063457e+003,1.458267e+000
1.064421e+003,3.071213e+000
1.065385e+003,4.502686e+000
1.066349e+003,5.019806e+000
1.067314e+003,3.711899e+000
1.068278e+003,1.957733e+000
1.069242e+003,3.828430e-001
1.070206e+003,-7.769012e-001
1.071171e+003,-1.143814e+000
1.072135e+003,-6.614227e-001
1.073099e+003,2.044983e-001
1.074063e+003,7.608185e-001
1.075028e+003,1.030411e+000
1.075992e+003,9.392853e-001
1.076956e+003,4.236755e-001
1.077920e+003,-3.930969e-001
1.078885e+003,-2.169754e+000
1.079849e+003,-3.865967e+000
1.080813e+003,-3.212067e+000
1.081777e+003,6.035004e-001
1.082741e+003,3.978104e+000
1.083706e+003,4.578995e+000
1.084670e+003,4.465302e+000
1.085634e+003,4.862228e+000
1.086598e+003,5.380630e+000
1.087563e+003,4.815536e+000
1.088527e+003,2.650345e+000
1.089491e+003,1.137238e-001
1.090455e+003,-3.902283e-001
1.091420e+003,1.352219e+000
1.092384e+003,1.979996e+000
1.093348e+003,1.015045e+000
1.094312e+003,-2.776031e-001
1.095276e+003,-1.201202e+000
1.096241e+003,-1.785706e+000
1.097205e+003,-2.270432e+000
1.098169e+003,-2.776260e+000
1.099133e+003,-3.105667e+000
1.100098e+003,-3.553955e+000
1.101062e+003,-3.425797e+000
1.102026e+003,-1.587234e+000
1.102990e+003,1.159729e+000
1.103955e+003,2.815979e+000
1.104919e+003,2.188263e+000
1.105883e+003,5.953674e-001
1.106847e+003,1.136368e+000
1.107812e+003,3.806198e+000
1.108776e+003,4.758041e+000
1.109740e+003,3.250992e+000
1.110704e+003,1.232727e+000
1.111668e+003,5.387878e-002
1.112633e+003,-3.848572e-001
1.113597e+003,-8.093262e-001
1.114561e+003,-1.648361e+000
1.115525e+003,-1.735809e+000
1.116490e+003,4.183807e-001
1.117454e+003,2.258987e+000
1.118418e+003,1.669434e+000
1.119382e+003,-5.655365e-001
1.120347e+003,-2.224777e+000
1.121311e+003,-2.015793e+000
1.122275e+003,-8.104248e-001
1.123239e+003,5.479431e-002
1.124203e+003,6.304932e-001
1.125168e+003,4.549255e-001
1.126132e+003,-7.905273e-001
1.127096e+003,-1.987930e+000
1.128060e+003,-2.207870e+000
1.129025e+003,-1.703842e+000
1.129989e+003,-1.530075e+000
1.130953e+003,-1.832291e+000
1.131917e+003,-2.397430e+000
1.132882e+003,-3.491180e+000
1.133846e+003,-4.402924e+000
1.134810e+003,-4.751221e+000
1.135774e+003,-4.531387e+000
1.136739e+003,-3.843689e+000
1.137703e+003,-2.760437e+000
1.138667e+003,-1.410995e+000
1.139631e+003,1.153870e-001
1.140595e+003,1.722931e+000
1.141560e+003,2.801193e+000
1.142524e+003,3.146835e+000
1.143488e+003,3.825363e+000
1.144452e+003,5.825928e+000
1.145417e+003,8.713364e+000
1.146381e+003,1.088474e+001
1.147345e+003,1.204958e+001
1.148309e+003,1.302950e+001
1.149274e+003,1.328902e+001
1.150238e+003,1.424823e+001
1.151202e+003,1.725470e+001
1.152166e+003,2.143822e+001
1.153130e+003,2.534767e+001
1.154095e+003,2.816095e+001
1.155059e+003,2.965944e+001
1.156023e+003,2.954407e+001
1.156987e+003,2.790421e+001
1.157952e+003,2.566968e+001
1.158916e+003,2.281520e+001
1.159880e+003,2.030086e+001
1.160844e+003,1.840417e+001
1.161809e+003,1.700858e+001
1.162773e+003,1.634422e+001
1.163737e+003,1.681375e+001
1.164701e+003,1.623535e+001
1.165666e+003,1.298248e+001
1.166630e+003,9.774017e+000
1.167594e+003,7.391830e+000
1.168558e+003,5.741257e+000
1.169522e+003,4.610031e+000
1.170487e+003,3.908554e+000
1.171451e+003,3.702713e+000
1.172415e+003,4.112900e+000
1.173379e+003,4.976273e+000
1.174344e+003,5.699326e+000
1.175308e+003,6.400574e+000
1.176272e+003,6.340210e+000
1.177236e+003,4.814285e+000
1.178201e+003,2.819931e+000
1.179165e+003,1.593216e+000
1.180129e+003,1.081284e+000
1.181093e+003,4.924469e-001
1.182057e+003,-6.294861e-001
1.183022e+003,-1.278793e+000
1.183986e+003,-7.944183e-001
1.184950e+003,7.966614e-002
1.185914e+003,5.835419e-001
1.186879e+003,7.240753e-001
1.187843e+003,1.280197e+000
1.188807e+003,2.907639e+000
1.189771e+003,4.715851e+000
1.190736e+003,3.714310e+000
1.191700e+003,-5.331421e-001
1.192664e+003,-3.002869e+000
1.193628e+003,-2.023880e+000
1.194593e+003,-7.218933e-001
1.195557e+003,-1.655533e+000
1.196521e+003,-4.111298e+000
1.197485e+003,-5.375580e+000
1.198449e+003,-4.590439e+000
1.199414e+003,-4.017487e+000
1.200378e+003,-5.713821e+000
1.201342e+003,-7.017593e+000
1.202306e+003,-5.552429e+000
1.203271e+003,-2.483810e+000
1.204235e+003,-3.798218e-001
1.205199e+003,-4.951935e-001
1.206163e+003,-1.936295e+000
1.207128e+003,-3.298309e+000
1.208092e+003,-4.571045e+000
1.209056e+003,-5.619629e+000
1.210020e+003,-6.180023e+000
1.210984e+003,-7.045959e+000
1.211949e+003,-9.154236e+000
1.212913e+003,-1.128665e+001
1.213877e+003,-1.143149e+001
1.214841e+003,-9.532333e+000
1.215806e+003,-8.394714e+000
1.216770e+003,-9.472290e+000
1.217734e+003,-1.105099e+001
1.218698e+003,-1.249982e+001
1.219663e+003,-1.342883e+001
1.220627e+003,-1.287546e+001
1.221591e+003,-1.105284e+001
1.222555e+003,-9.636734e+000
1.223520e+003,-1.020364e+001
1.224484e+003,-1.216762e+001
1.225448e+003,-1.283983e+001
1.226412e+003,-1.117981e+001
1.227376e+003,-1.060139e+001
1.228341e+003,-1.222124e+001
1.229305e+003,-1.368190e+001
1.230269e+003,-1.344856e+001
1.231233e+003,-1.222839e+001
1.232198e+003,-1.153401e+001
1.233162e+003,-1.173718e+001
1.234126e+003,-1.203777e+001
1.235090e+003,-1.201709e+001
1.236055e+003,-1.176248e+001
1.237019e+003,-1.121887e+001
1.237983e+003,-1.055684e+001
1.238947e+003,-1.009091e+001
1.239911e+003,-9.919601e+000
1.240876e+003,-1.009241e+001
1.241840e+003,-1.085118e+001
1.242804e+003,-1.227577e+001
1.243768e+003,-1.275027e+001
1.244733e+003,-1.096129e+001
1.245697e+003,-9.949417e+000
1.246661e+003,-1.060120e+001
1.247625e+003,-1.164018e+001
1.248590e+003,-1.208661e+001
1.249554e+003,-1.196408e+001
1.250518e+003,-1.186873e+001
1.251482e+003,-1.212775e+001
1.252447e+003,-1.231902e+001
1.253411e+003,-1.160121e+001
1.254375e+003,-1.051010e+001
1.255339e+003,-1.037521e+001
1.256303e+003,-1.117778e+001
1.257268e+003,-1.188167e+001
1.258232e+003,-1.197873e+001
1.259196e+003,-1.169608e+001
1.260160e+003,-1.140248e+001
1.261125e+003,-1.108936e+001
1.262089e+003,-1.041676e+001
1.263053e+003,-8.943726e+000
1.264017e+003,-7.758118e+000
1.264982e+003,-7.017670e+000
1.265946e+003,-6.683960e+000
1.266910e+003,-6.837296e+000
1.267874e+003,-7.355606e+000
1.268839e+003,-7.948410e+000
1.269803e+003,-8.420319e+000
1.270767e+003,-8.769012e+000
1.271731e+003,-8.917007e+000
1.272695e+003,-8.855896e+000
1.273660e+003,-9.199402e+000
1.274624e+003,-1.045372e+001
1.275588e+003,-1.109641e+001
1.276552e+003,-9.583786e+000
1.277517e+003,-7.106613e+000
1.278481e+003,-6.058411e+000
1.279445e+003,-6.675858e+000
1.280409e+003,-7.440582e+000
1.281374e+003,-7.896225e+000
1.282338e+003,-8.360260e+000
1.283302e+003,-9.137955e+000
1.284266e+003,-9.944656e+000
1.285230e+003,-1.037572e+001
1.286195e+003,-1.045621e+001
1.287159e+003,-1.064760e+001
1.288123e+003,-1.130243e+001
1.289087e+003,-1.203635e+001
1.290052e+003,-1.174297e+001
1.291016e+003,-9.868958e+000
1.291980e+003,-9.234024e+000
1.292944e+003,-1.087080e+001
1.293909e+003,-1.241273e+001
1.294873e+003,-1.273283e+001
1.295837e+003,-1.245259e+001
1.296801e+003,-1.239003e+001
1.297766e+003,-1.267978e+001
1.298730e+003,-1.332597e+001
1.299694e+003,-1.475502e+001
1.300658e+003,-1.583997e+001
1.301622e+003,-1.492795e+001
1.302587e+003,-1.298514e+001
1.303551e+003,-1.142731e+001
1.304515e+003,-1.051453e+001
1.305479e+003,-9.992477e+000
1.306444e+003,-9.675598e+000
1.307408e+003,-9.678482e+000
1.308372e+003,-1.055508e+001
1.309336e+003,-1.319394e+001
1.310301e+003,-1.391934e+001
1.311265e+003,-1.020169e+001
1.312229e+003,-7.431137e+000
1.313193e+003,-7.874619e+000
1.314157e+003,-9.608643e+000
1.315122e+003,-1.063437e+001
1.316086e+003,-1.069514e+001
1.317050e+003,-1.072995e+001
1.318014e+003,-1.134648e+001
1.318979e+003,-1.197165e+001
1.319943e+003,-1.138380e+001
1.320907e+003,-9.783630e+000
1.321871e+003,-9.410339e+000
1.322836e+003,-1.092253e+001
1.323800e+003,-1.193340e+001
1.324764e+003,-1.034216e+001
1.325728e+003,-7.863663e+000
1.326693e+003,-7.876053e+000
1.327657e+003,-1.055954e+001
1.328621e+003,-1.214771e+001
1.329585e+003,-1.082802e+001
1.330549e+003,-9.270798e+000
1.331514e+003,-9.158264e+000
1.332478e+003,-9.557968e+000
1.333442e+003,-9.562149e+000
1.334406e+003,-9.105942e+000
1.335371e+003,-8.535065e+000
1.336335e+003,-8.077560e+000
1.337299e+003,-7.815582e+000
1.338263e+003,-7.948532e+000
1.339228e+003,-8.528610e+000
1.340192e+003,-8.992706e+000
1.341156e+003,-9.098282e+000
1.342120e+003,-9.459229e+000
1.343084e+003,-1.068387e+001
1.344049e+003,-1.184746e+001
1.345013e+003,-1.189503e+001
1.345977e+003,-1.112956e+001
1.346941e+003,-1.084061e+001
1.347906e+003,-1.153973e+001
1.348870e+003,-1.209541e+001
1.349834e+003,-1.142337e+001
1.350798e+003,-9.972473e+000
1.351763e+003,-8.193710e+000
1.352727e+003,-6.301086e+000
1.353691e+003,-5.781311e+000
1.354655e+003,-7.492340e+000
1.355620e+003,-9.572754e+000
1.356584e+003,-9.684799e+000
1.357548e+003,-8.044357e+000
1.358512e+003,-6.707748e+000
1.359476e+003,-5.609787e+000
1.360441e+003,-5.408859e+000
1.361405e+003,-7.184448e+000
1.362369e+003,-8.808350e+000
1.363333e+003,-9.055511e+000
1.364298e+003,-8.577393e+000
1.365262e+003,-8.332382e+000
1.366226e+003,-8.586060e+000
1.367190e+003,-9.099609e+000
1.368155e+003,-9.681717e+000
1.369119e+003,-1.008205e+001
1.370083e+003,-9.425735e+000
1.371047e+003,-7.256866e+000
1.372011e+003,-5.803665e+000
1.372976e+003,-5.443649e+000
1.373940e+003,-5.407410e+000
1.374904e+003,-5.674667e+000
1.375868e+003,-5.884186e+000
1.376833e+003,-5.363937e+000
1.377797e+003,-4.258316e+000
1.378761e+003,-3.809036e+000
1.379725e+003,-4.674515e+000
1.380690e+003,-5.847275e+000
1.381654e+003,-6.847168e+000
1.382618e+003,-7.172516e+000
1.383582e+003,-5.177933e+000
1.384547e+003,-1.357590e+000
1.385511e+003,4.319611e-001
1.386475e+003,-2.208160e+000
1.387439e+003,-6.298431e+000
1.388403e+003,-6.879181e+000
1.389368e+003,-3.972458e+000
1.390332e+003,-2.846924e+000
1.391296e+003,-4.389465e+000
1.392260e+003,-6.159668e+000
1.393225e+003,-8.541214e+000
1.394189e+003,-1.003481e+001
1.395153e+003,-9.060989e+000
1.396117e+003,-6.932053e+000
1.397082e+003,-5.631180e+000
1.398046e+003,-5.682251e+000
1.399010e+003,-6.290070e+000
1.399974e+003,-6.798904e+000
1.400938e+003,-7.147385e+000
1.401903e+003,-6.869690e+000
1.402867e+003,-5.555573e+000
1.403831e+003,-4.562881e+000
1.404795e+003,-3.926086e+000
1.405760e+003,-3.708389e+000
1.406724e+003,-4.493698e+000
1.407688e+003,-5.553207e+000
1.408652e+003,-5.804016e+000
1.409617e+003,-5.247452e+000
1.410581e+003,-4.796692e+000
1.411545e+003,-4.843735e+000
1.412509e+003,-4.910294e+000
1.413474e+003,-4.493225e+000
1.414438e+003,-3.952164e+000
1.415402e+003,-3.768036e+000
1.416366e+003,-3.845993e+000
1.417330e+003,-3.890961e+000
1.418295e+003,-3.784119e+000
1.419259e+003,-3.618118e+000
1.420223e+003,-3.651138e+000
1.421187e+003,-3.828735e+000
1.422152e+003,-3.359222e+000
1.423116e+003,-1.707520e+000
1.424080e+003,-8.709869e-001
1.425044e+003,-2.667816e+000
1.426009e+003,-4.154816e+000
1.426973e+003,-3.752396e+000
1.427937e+003,-2.587265e+000
1.428901e+003,-1.909912e+000
1.429865e+003,-1.907455e+000
1.430830e+003,-2.140411e+000
1.431794e+003,-2.348404e+000
1.432758e+003,-2.761597e+000
1.433722e+003,-3.832184e+000
1.434687e+003,-5.618164e+000
1.435651e+003,-6.006989e+000
1.436615e+003,-3.866455e+000
1.437579e+003,-2.495850e+000
1.438544e+003,-2.512039e+000
1.439508e+003,-2.975952e+000
1.440472e+003,-3.715134e+000
1.441436e+003,-4.188751e+000
1.442401e+003,-3.212036e+000
1.443365e+003,-7.326965e-001
1.444329e+003,1.241623e+000
1.445293e+003,1.185242e+000
1.446257e+003,-1.171875e-002
1.447222e+003,-1.013260e+000
1.448186e+003,-1.771347e+000
1.449150e+003,-1.628983e+000
1.450114e+003,-1.249542e-001
1.451079e+003,5.423126e-001
1.452043e+003,-1.540588e+000
1.453007e+003,-4.432983e+000
1.453971e+003,-5.500809e+000
1.454936e+003,-4.915817e+000
1.455900e+003,-4.017044e+000
1.456864e+003,-2.928589e+000
1.457828e+003,-1.941269e+000
1.458792e+003,-1.319855e+000
1.459757e+003,-8.788910e-001
1.460721e+003,-2.458191e-001
1.461685e+003,2.668762e-001
1.462649e+003,-2.260284e-001
1.463614e+003,-1.788574e+000
1.464578e+003,-2.936646e+000
1.465542e+003,-2.187363e+000
1.466506e+003,-4.978027e-001
1.467471e+003,-9.009857e-001
1.468435e+003,-4.021957e+000
1.469399e+003,-5.671295e+000
1.470363e+003,-4.724060e+000
1.471328e+003,-3.697403e+000
1.472292e+003,-3.466675e+000
1.473256e+003,-3.184845e+000
1.474220e+003,-1.333847e+000
1.475184e+003,9.309692e-001
1.476149e+003,8.303528e-001
1.477113e+003,-2.183670e+000
1.478077e+003,-5.326630e+000
1.479041e+003,-5.826630e+000
1.480006e+003,-4.403198e+000
1.480970e+003,-3.569748e+000
1.481934e+003,-3.703491e+000
1.482898e+003,-3.097275e+000
1.483863e+003,-7.836456e-001
1.484827e+003,7.904663e-001
1.485791e+003,4.567719e-001
1.486755e+003,-3.130188e-001
1.487719e+003,1.617432e-002
1.488684e+003,9.750977e-001
1.489648e+003,7.887421e-001
1.490612e+003,-1.015182e+000
1.491576e+003,-2.321259e+000
1.492541e+003,-1.274307e+000
1.493505e+003,1.058807e+000
1.494469e+003,2.502136e+000
1.495433e+003,3.101563e+000
1.496398e+003,3.412430e+000
1.497362e+003,3.501495e+000
1.498326e+003,3.660919e+000
1.499290e+003,3.854584e+000
1.500255e+003,4.310867e+000
1.501219e+003,5.549103e+000
1.502183e+003,7.367859e+000
1.503147e+003,8.618469e+000
1.504111e+003,8.915375e+000
1.505076e+003,9.358734e+000
1.506040e+003,1.089455e+001
1.507004e+003,1.254630e+001
1.507968e+003,1.297252e+001
1.508933e+003,1.288469e+001
1.509897e+003,1.364003e+001
1.510861e+003,1.561617e+001
1.511825e+003,1.894093e+001
1.512790e+003,2.412473e+001
1.513754e+003,2.971786e+001
1.514718e+003,3.264380e+001
1.515682e+003,3.287062e+001
1.516646e+003,3.446921e+001
1.517611e+003,3.890683e+001
1.518575e+003,4.212650e+001
1.519539e+003,4.157762e+001
1.520503e+003,4.094766e+001
1.521468e+003,4.260281e+001
1.522432e+003,4.507330e+001
1.523396e+003,4.646069e+001
1.524360e+003,4.630374e+001
1.525325e+003,4.472498e+001
1.526289e+003,4.182822e+001
1.527253e+003,3.874319e+001
1.528217e+003,3.772554e+001
1.529182e+003,3.887822e+001
1.530146e+003,3.734575e+001
1.531110e+003,3.071039e+001
1.532074e+003,2.580478e+001
1.533039e+003,2.443523e+001
1.534003e+003,2.287880e+001
1.534967e+003,1.941370e+001
1.535931e+003,1.520442e+001
1.536896e+003,1.111267e+001
1.537860e+003,7.712143e+000
1.538824e+003,5.975189e+000
1.539788e+003,6.256409e+000
1.540752e+003,7.050766e+000
1.541717e+003,6.411499e+000
1.542681e+003,4.694580e+000
1.543645e+003,4.011108e+000
1.544609e+003,4.923294e+000
1.545573e+003,5.676590e+000
1.546538e+003,6.208817e+000
1.547502e+003,6.467834e+000
1.548466e+003,6.295593e+000
1.549430e+003,6.137253e+000
1.550395e+003,6.627701e+000
1.551359e+003,7.420334e+000
1.552323e+003,7.333572e+000
1.553287e+003,6.045715e+000
1.554252e+003,4.984161e+000
1.555216e+003,5.515411e+000
1.556180e+003,6.768585e+000
1.557144e+003,6.691833e+000
1.558109e+003,5.251328e+000
1.559073e+003,3.774170e+000
1.560037e+003,1.771225e+000
1.561001e+003,6.111908e-001
1.561966e+003,1.660233e+000
1.562930e+003,3.064697e+000
1.563894e+003,2.687943e+000
1.564858e+003,1.309097e+000
1.565823e+003,1.133286e+000
1.566787e+003,2.529495e+000
1.567751e+003,4.106247e+000
1.568715e+003,5.175064e+000
1.569679e+003,5.946701e+000
1.570644e+003,6.802490e+000
1.571608e+003,7.423279e+000
1.572572e+003,6.883789e+000
1.573536e+003,5.171860e+000
1.574500e+003,3.887222e+000
1.575465e+003,3.663345e+000
1.576429e+003,3.782486e+000
1.577393e+003,3.471786e+000
1.578357e+003,3.148300e+000
1.579322e+003,4.027145e+000
1.580286e+003,6.048996e+000
1.581250e+003,7.082153e+000
1.582214e+003,6.165375e+000
1.583179e+003,5.335129e+000
1.584143e+003,6.218475e+000
1.585107e+003,7.819870e+000
1.586071e+003,9.377914e+000
1.587036e+003,1.062807e+001
1.588000e+003,1.010072e+001
1.588964e+003,7.284821e+000
1.589928e+003,4.971344e+000
1.590893e+003,5.421310e+000
1.591857e+003,7.034103e+000
1.592821e+003,7.063248e+000
1.593785e+003,5.987885e+000
1.594750e+003,6.971283e+000
1.595714e+003,1.086075e+001
1.596678e+003,1.346451e+001
1.597642e+003,1.229028e+001
1.598606e+003,1.054831e+001
1.599571e+003,1.117493e+001
1.600535e+003,1.262761e+001
1.601499e+003,1.265230e+001
1.602463e+003,1.140434e+001
1.603427e+003,1.071968e+001
1.604392e+003,1.135844e+001
1.605356e+003,1.264621e+001
1.606320e+003,1.424332e+001
1.607284e+003,1.585785e+001
1.608249e+003,1.668910e+001
1.609213e+003,1.672659e+001
1.610177e+003,1.594229e+001
1.611141e+003,1.363802e+001
1.612106e+003,1.225323e+001
1.613070e+003,1.411755e+001
1.614034e+003,1.627550e+001
1.614998e+003,1.651930e+001
1.615963e+003,1.561093e+001
1.616927e+003,1.482794e+001
1.617891e+003,1.441914e+001
1.618855e+003,1.420190e+001
1.619820e+003,1.407512e+001
1.620784e+003,1.384378e+001
1.621748e+003,1.308267e+001
1.622712e+003,1.210524e+001
1.623677e+003,1.251085e+001
1.624641e+003,1.464507e+001
1.625605e+003,1.618858e+001
1.626569e+003,1.599594e+001
1.627533e+003,1.587175e+001
1.628498e+003,1.733005e+001
1.629462e+003,1.884253e+001
1.630426e+003,1.881390e+001
1.631390e+003,1.783467e+001
1.632354e+003,1.737363e+001
1.633319e+003,1.777496e+001
1.634283e+003,1.837204e+001
1.635247e+003,1.867276e+001
1.636211e+003,1.883771e+001
1.637176e+003,1.950468e+001
1.638140e+003,2.058546e+001
1.639104e+003,1.984987e+001
1.640068e+003,1.638551e+001
1.641033e+003,1.427287e+001
1.641997e+003,1.539134e+001
1.642961e+003,1.690143e+001
1.643925e+003,1.735030e+001
1.644890e+003,1.748730e+001
1.645854e+003,1.811113e+001
1.646818e+003,1.904254e+001
1.647782e+003,1.968105e+001
1.648747e+003,1.983238e+001
1.649711e+003,1.971510e+001
1.650675e+003,1.955916e+001
1.651639e+003,1.929546e+001
1.652604e+003,1.856688e+001
1.653568e+003,1.736180e+001
1.654532e+003,1.659639e+001
1.655496e+003,1.650763e+001
1.656460e+003,1.618942e+001
1.657425e+003,1.531685e+001
1.658389e+003,1.430939e+001
1.659353e+003,1.274472e+001
1.660317e+003,1.162656e+001
1.661281e+003,1.255394e+001
1.662246e+003,1.482359e+001
1.663210e+003,1.629890e+001
1.664174e+003,1.629958e+001
1.665138e+003,1.559236e+001
1.666103e+003,1.471039e+001
1.667067e+003,1.363812e+001
1.668031e+003,1.202672e+001
1.668995e+003,1.002710e+001
1.669960e+003,9.831619e+000
1.670924e+003,1.219302e+001
1.671888e+003,1.390613e+001
1.672852e+003,1.375754e+001
1.673817e+003,1.297162e+001
1.674781e+003,1.165431e+001
1.675745e+003,1.062639e+001
1.676709e+003,1.136469e+001
1.677674e+003,1.317973e+001
1.678638e+003,1.364388e+001
1.679602e+003,1.201932e+001
1.680566e+003,1.026648e+001
1.681531e+003,9.989410e+000
1.682495e+003,1.044572e+001
1.683459e+003,1.039569e+001
1.684423e+003,9.838928e+000
1.685387e+003,8.829636e+000
1.686352e+003,7.246063e+000
1.687316e+003,6.538940e+000
1.688280e+003,7.732834e+000
1.689244e+003,8.831970e+000
1.690208e+003,7.630066e+000
1.691173e+003,6.023376e+000
1.692137e+003,6.306793e+000
1.693101e+003,8.072937e+000
1.694065e+003,9.790741e+000
1.695030e+003,1.106407e+001
1.695994e+003,1.140893e+001
1.696958e+003,1.003610e+001
1.697922e+003,8.255730e+000
1.698887e+003,8.019608e+000
1.699851e+003,8.678993e+000
1.700815e+003,7.846771e+000
1.701779e+003,5.350807e+000
1.702744e+003,3.984314e+000
1.703708e+003,4.997063e+000
1.704672e+003,6.081047e+000
1.705636e+003,5.345795e+000
1.706601e+003,3.807335e+000
1.707565e+003,2.730011e+000
1.708529e+003,2.263664e+000
1.709493e+003,3.263596e+000
1.710458e+003,6.115852e+000
1.711422e+003,7.581100e+000
1.712386e+003,5.601433e+000
1.713350e+003,2.761261e+000
1.714314e+003,2.740173e-001
1.715279e+003,-1.378220e+000
1.716243e+003,-7.779846e-001
1.717207e+003,1.592285e+000
1.718171e+003,3.107460e+000
1.719135e+003,3.055069e+000
1.720100e+003,2.686836e+000
1.721064e+003,2.727921e+000
1.722028e+003,3.060600e+000
1.722992e+003,3.802597e+000
1.723957e+003,4.788734e+000
1.724921e+003,4.542877e+000
1.725885e+003,2.668724e+000
1.726849e+003,1.468018e+000
1.727814e+003,2.091637e+000
1.728778e+003,2.601822e+000
1.729742e+003,1.555199e+000
1.730706e+003,5.297394e-001
1.731671e+003,1.446648e+000
1.732635e+003,3.349274e+000
1.733599e+003,4.147881e+000
1.734563e+003,3.632462e+000
1.735528e+003,3.068748e+000
1.736492e+003,3.096527e+000
1.737456e+003,3.087395e+000
1.738420e+003,2.247849e+000
1.739385e+003,8.512039e-001
1.740349e+003,1.153412e-001
1.741313e+003,2.698593e-001
1.742277e+003,1.582870e-001
1.743241e+003,-6.275253e-001
1.744206e+003,-9.283371e-001
1.745170e+003,-2.490845e-001
1.746134e+003,4.792938e-001
1.747098e+003,6.128311e-001
1.748063e+003,6.048737e-001
1.749027e+003,1.102715e+000
1.749991e+003,1.975357e+000
1.750955e+003,2.695801e+000
1.751919e+003,3.049202e+000
1.752884e+003,3.172928e+000
1.753848e+003,3.186012e+000
1.754812e+003,2.875793e+000
1.755776e+003,1.688713e+000
1.756741e+003,-2.549515e-001
1.757705e+003,-5.712357e-001
1.758669e+003,1.413895e+000
1.759633e+003,2.917854e+000
1.760598e+003,3.872314e+000
1.761562e+003,3.883659e+000
1.762526e+003,2.221039e+000
1.763490e+003,3.627243e-001
1.764455e+003,-9.876480e-001
1.765419e+003,-1.659073e+000
1.766383e+003,-1.270950e+000
1.767347e+003,-1.011658e-001
1.768312e+003,8.587723e-001
1.769276e+003,1.137772e+000
1.770240e+003,5.246735e-001
1.771204e+003,-1.693237e+000
1.772168e+003,-4.300858e+000
1.773133e+003,-4.259445e+000
1.774097e+003,-1.887207e+000
1.775061e+003,-4.239960e-001
1.776025e+003,-3.383026e-001
1.776990e+003,-4.088516e-001
1.777954e+003,-1.374359e-001
1.778918e+003,4.799652e-002
1.779882e+003,-4.738007e-001
1.780846e+003,-1.114159e+000
1.781811e+003,-9.923172e-001
1.782775e+003,-2.578201e-001
1.783739e+003,6.733170e-001
1.784703e+003,1.826553e+000
1.785668e+003,2.448418e+000
1.786632e+003,1.790436e+000
1.787596e+003,9.450531e-001
1.788560e+003,9.194183e-001
1.789525e+003,1.199310e+000
1.790489e+003,7.361450e-001
1.791453e+003,-1.451263e-001
1.792417e+003,5.813599e-003
1.793382e+003,1.361870e+000
1.794346e+003,2.348137e+000
1.795310e+003,2.108276e+000
1.796274e+003,1.387184e+000
1.797239e+003,1.087662e+000
1.798203e+003,1.030792e+000
1.799167e+003,3.120956e-001
1.800131e+003,-1.453461e+000
1.801095e+003,-2.131264e+000
1.802060e+003,-9.723358e-001
1.803024e+003,1.952286e-001
1.803988e+003,1.536430e+000
1.804952e+003,2.352509e+000
1.805917e+003,2.029533e+000
1.806881e+003,1.260109e+000
1.807845e+003,6.490555e-001
1.808809e+003,2.444000e-001
1.809773e+003,-1.687927e-001
1.810738e+003,-5.771713e-001
1.811702e+003,-6.109161e-001
1.812666e+003,-5.632019e-002
1.813630e+003,6.834030e-001
1.814595e+003,1.093872e+000
1.815559e+003,1.184875e+000
1.816523e+003,1.001869e+000
1.817487e+003,5.230942e-001
1.818452e+003,1.818924e-001
1.819416e+003,2.618408e-002
1.820380e+003,9.823608e-002
1.821344e+003,4.462509e-001
1.822309e+003,8.538666e-001
1.823273e+003,1.390114e+000
1.824237e+003,1.856194e+000
1.825201e+003,2.021858e+000
1.826166e+003,1.891754e+000
1.827130e+003,1.373627e+000
1.828094e+003,4.652710e-001
1.829058e+003,9.597778e-002
1.830022e+003,1.010353e+000
1.830987e+003,2.040871e+000
1.831951e+003,2.258812e+000
1.832915e+003,1.982430e+000
1.833879e+003,1.650047e+000
1.834844e+003,1.225105e+000
1.835808e+003,2.001038e-001
1.836772e+003,-1.306137e+000
1.837736e+003,-1.558334e+000
1.838700e+003,2.274475e-001
1.839665e+003,1.978279e+000
1.840629e+003,1.724907e+000
1.841593e+003,5.230789e-001
1.842557e+003,6.089935e-001
1.843522e+003,1.957306e+000
1.844486e+003,2.852615e+000
1.845450e+003,3.326492e+000
1.846414e+003,3.398537e+000
1.847379e+003,2.714561e+000
1.848343e+003,1.921700e+000
1.849307e+003,8.941803e-001
1.850271e+003,2.141266e-001
1.851236e+003,6.391525e-001
1.852200e+003,1.495277e+000
1.853164e+003,1.755775e+000
1.854128e+003,1.393372e+000
1.855093e+003,9.999008e-001
1.856057e+003,8.756561e-001
1.857021e+003,9.643173e-001
1.857985e+003,1.196404e+000
1.858949e+003,1.522362e+000
1.859914e+003,1.925575e+000
1.860878e+003,2.389877e+000
1.861842e+003,2.684456e+000
1.862806e+003,2.779732e+000
1.863771e+003,3.140472e+000
1.864735e+003,3.963387e+000
1.865699e+003,4.349823e+000
1.866663e+003,3.767616e+000
1.867627e+003,3.006752e+000
1.868592e+003,2.627541e+000
1.869556e+003,2.503822e+000
1.870520e+003,2.603027e+000
1.871484e+003,2.855598e+000
1.872449e+003,2.794456e+000
1.873413e+003,2.421928e+000
1.874377e+003,2.221268e+000
1.875341e+003,2.106522e+000
1.876306e+003,2.192490e+000
1.877270e+003,2.702621e+000
1.878234e+003,3.260414e+000
1.879198e+003,3.716736e+000
1.880163e+003,3.867119e+000
1.881127e+003,3.118683e+000
1.882091e+003,1.747704e+000
1.883055e+003,1.013962e+000
1.884020e+003,1.377235e+000
1.884984e+003,1.893021e+000
1.885948e+003,1.694031e+000
1.886912e+003,1.258720e+000
1.887876e+003,1.663155e+000
1.888841e+003,2.782066e+000
1.889805e+003,2.767929e+000
1.890769e+003,1.214684e+000
1.891733e+003,8.235931e-001
1.892698e+003,2.391617e+000
1.893662e+003,3.673241e+000
1.894626e+003,3.636314e+000
1.895590e+003,3.497269e+000
1.896554e+003,4.471802e+000
1.897519e+003,5.599670e+000
1.898483e+003,5.394844e+000
1.899447e+003,4.242622e+000
1.900411e+003,3.860641e+000
1.901376e+003,4.599228e+000
1.902340e+003,5.147873e+000
1.903304e+003,5.056137e+000
1.904268e+003,4.569359e+000
1.905233e+003,3.309052e+000
1.906197e+003,2.266403e+000
1.907161e+003,2.844330e+000
1.908125e+003,4.223206e+000
1.909090e+003,5.093956e+000
1.910054e+003,5.102219e+000
1.911018e+003,3.659424e+000
1.911982e+003,9.244461e-001
1.912947e+003,-8.928375e-001
1.913911e+003,-1.933289e-001
1.914875e+003,1.997688e+000
1.915839e+003,4.260391e+000
1.916803e+003,6.245728e+000
1.917768e+003,6.065178e+000
1.918732e+003,3.200150e+000
1.919696e+003,1.920860e+000
1.920660e+003,2.892723e+000
1.921625e+003,3.840630e+000
1.922589e+003,4.287636e+000
1.923553e+003,4.535690e+000
1.924517e+003,4.519356e+000
1.925481e+003,4.581963e+000
1.926446e+003,5.099655e+000
1.927410e+003,5.893028e+000
1.928374e+003,6.729805e+000
1.929338e+003,7.500580e+000
1.930303e+003,7.693459e+000
1.931267e+003,7.085686e+000
1.932231e+003,6.496834e+000
1.933195e+003,6.139015e+000
1.934160e+003,5.974304e+000
1.935124e+003,5.991806e+000
1.936088e+003,6.139473e+000
1.937052e+003,6.552895e+000
1.938017e+003,7.069145e+000
1.938981e+003,7.230438e+000
1.939945e+003,7.039772e+000
1.940909e+003,7.049789e+000
1.941874e+003,7.438705e+000
1.942838e+003,7.404358e+000
1.943802e+003,6.185959e+000
1.944766e+003,4.698631e+000
1.945730e+003,4.778816e+000
1.946695e+003,6.154976e+000
1.947659e+003,6.879265e+000
1.948623e+003,6.876152e+000
1.949587e+003,6.957565e+000
1.950552e+003,7.304787e+000
1.951516e+003,7.467003e+000
1.952480e+003,7.270157e+000
1.953444e+003,6.891403e+000
1.954408e+003,6.313759e+000
1.955373e+003,5.687614e+000
1.956337e+003,5.212593e+000
1.957301e+003,4.982193e+000
1.958265e+003,5.119705e+000
1.959230e+003,5.646736e+000
1.960194e+003,6.463455e+000
1.961158e+003,8.186562e+000
1.962122e+003,9.040611e+000
1.963087e+003,8.337372e+000
1.964051e+003,6.961868e+000
1.965015e+003,4.455376e+000
1.965979e+003,2.477104e+000
1.966944e+003,3.013741e+000
1.967908e+003,5.039963e+000
1.968872e+003,6.684090e+000
1.969836e+003,7.587166e+000
1.970801e+003,8.344559e+000
1.971765e+003,9.194641e+000
1.972729e+003,9.491547e+000
1.973693e+003,8.525978e+000
1.974657e+003,7.188156e+000
1.975622e+003,6.641396e+000
1.976586e+003,6.791054e+000
1.977550e+003,7.599266e+000
1.978514e+003,8.963524e+000
1.979479e+003,1.044598e+001
1.980443e+003,1.190683e+001
1.981407e+003,1.256364e+001
1.982371e+003,1.213048e+001
1.983335e+003,1.113596e+001
1.984300e+003,9.843864e+000
1.985264e+003,8.629066e+000
1.986228e+003,8.111061e+000
1.987192e+003,8.237595e+000
1.988157e+003,8.838295e+000
1.989121e+003,1.026121e+001
1.990085e+003,1.040141e+001
1.991049e+003,8.296013e+000
1.992014e+003,6.924286e+000
1.992978e+003,6.929062e+000
1.993942e+003,7.258766e+000
1.994906e+003,7.691437e+000
1.995871e+003,8.181519e+000
1.996835e+003,8.789413e+000
1.997799e+003,9.415405e+000
1.998763e+003,9.823929e+000
1.999728e+003,1.005414e+001
