5.003444e+002,2.927429e+001
5.013087e+002,3.084180e+001
5.022729e+002,2.583179e+001
5.032371e+002,1.770386e+001
5.042014e+002,1.599890e+001
5.051656e+002,1.989258e+001
5.061298e+002,2.507751e+001
5.070941e+002,2.763452e+001
5.080583e+002,2.682520e+001
5.090225e+002,2.487024e+001
5.099868e+002,2.071423e+001
5.109510e+002,1.682581e+001
5.119152e+002,1.437146e+001
5.128795e+002,1.348547e+001
5.138437e+002,1.381873e+001
5.148079e+002,1.718823e+001
5.157722e+002,2.032007e+001
5.167364e+002,2.121863e+001
5.177006e+002,1.973743e+001
5.186649e+002,1.759827e+001
5.196291e+002,1.783936e+001
5.205933e+002,1.935779e+001
5.215576e+002,1.934399e+001
5.225218e+002,1.730151e+001
5.234860e+002,1.474036e+001
5.244503e+002,1.524207e+001
5.254145e+002,2.109082e+001
5.263787e+002,2.413379e+001
5.273430e+002,2.272620e+001
5.283072e+002,1.966309e+001
5.292714e+002,1.860986e+001
5.302357e+002,1.999243e+001
5.311999e+002,2.031506e+001
5.321641e+002,2.034119e+001
5.331284e+002,2.011743e+001
5.340926e+002,1.882959e+001
5.350568e+002,1.567822e+001
5.360211e+002,1.271069e+001
5.369853e+002,1.396167e+001
5.379495e+002,1.646057e+001
5.389138e+002,1.718604e+001
5.398780e+002,1.502087e+001
5.408422e+002,1.135266e+001
5.418065e+002,1.054114e+001
5.427707e+002,1.213550e+001
5.437349e+002,1.326086e+001
5.446992e+002,1.304846e+001
5.456634e+002,1.173145e+001
5.466276e+002,1.038916e+001
5.475919e+002,9.150146e+000
5.485561e+002,8.330444e+000
5.495203e+002,7.165405e+000
5.504846e+002,6.103394e+000
5.514488e+002,6.348511e+000
5.524130e+002,9.635864e+000
5.533773e+002,1.236658e+001
5.543415e+002,1.237769e+001
5.553057e+002,1.118958e+001
5.562700e+002,1.034436e+001
5.572342e+002,1.067993e+001
5.581984e+002,1.104370e+001
5.591627e+002,8.423340e+000
5.601269e+002,4.504761e+000
5.610911e+002,2.154663e+000
5.620554e+002,2.733398e+000
5.630196e+002,5.548828e+000
5.639838e+002,6.824097e+000
5.649481e+002,5.831543e+000
5.659123e+002,4.479248e+000
5.668765e+002,3.547241e+000
5.678408e+002,3.420532e+000
5.688050e+002,4.152832e+000
5.697692e+002,5.648315e+000
5.707335e+002,5.900879e+000
5.716977e+002,4.068604e+000
5.726619e+002,1.353271e+000
5.736262e+002,-4.088135e-001
5.745904e+002,3.795166e-001
5.755546e+002,1.660400e+000
5.765189e+002,-1.565308e+000
5.774831e+002,-7.490356e+000
5.784473e+002,-1.191504e+001
5.794116e+002,-1.169299e+001
5.803758e+002,-6.850342e+000
5.813400e+002,-3.570557e+000
5.823043e+002,-2.819458e+000
5.832685e+002,-3.166016e+000
5.842327e+002,-4.076660e+000
5.851970e+002,-4.918213e+000
5.861612e+002,-4.520752e+000
5.871254e+002,-2.783936e+000
5.880897e+002,-5.792236e-001
5.890539e+002,2.433960e+000
5.900181e+002,5.309570e+000
5.909824e+002,6.706543e+000
5.919466e+002,5.632568e+000
5.929108e+002,3.816284e+000
5.938751e+002,3.060425e+000
5.948393e+002,2.958252e+000
5.958035e+002,3.152710e+000
5.967678e+002,3.464722e+000
5.977320e+002,4.022827e+000
5.986962e+002,3.106201e+000
5.996605e+002,-2.191162e-001
6.006247e+002,-2.914795e+000
6.015889e+002,-2.718994e+000
6.025532e+002,1.240234e-001
6.035174e+002,7.266846e-001
6.044816e+002,-4.469116e+000
6.054459e+002,-7.872314e+000
6.064101e+002,-7.234131e+000
6.073743e+002,-4.324097e+000
6.083386e+002,-2.330322e+000
6.093028e+002,-2.836914e+000
6.102670e+002,-4.376343e+000
6.112313e+002,-6.537598e+000
6.121955e+002,-8.692993e+000
6.131597e+002,-9.995239e+000
6.141240e+002,-9.897461e+000
6.150882e+002,-8.820679e+000
6.160524e+002,-7.762207e+000
6.170167e+002,-6.391846e+000
6.179809e+002,-5.528687e+000
6.189451e+002,-6.385376e+000
6.199094e+002,-8.851196e+000
6.208736e+002,-9.451416e+000
6.218378e+002,-4.213501e+000
6.228021e+002,-1.037598e-001
6.237663e+002,2.289307e+000
6.247305e+002,3.435669e+000
6.256948e+002,3.750000e+000
6.266590e+002,2.444702e+000
6.276232e+002,5.992432e-001
6.285875e+002,-2.087402e-001
6.295517e+002,-4.731445e-001
6.305159e+002,-1.317017e+000
6.314802e+002,-3.440308e+000
6.324444e+002,-6.083374e+000
6.334086e+002,-5.592407e+000
6.343729e+002,-2.439331e+000
6.353371e+002,1.335083e+000
6.363013e+002,5.164063e+000
6.372656e+002,8.295044e+000
6.382298e+002,8.574829e+000
6.391940e+002,2.036743e+000
6.401583e+002,-2.828003e+000
6.411225e+002,-4.057495e+000
6.420867e+002,-3.059326e+000
6.430510e+002,-1.979614e+000
6.440152e+002,-1.997681e+000
6.449794e+002,-2.312134e+000
6.459437e+002,-1.554321e+000
6.469079e+002,-1.364014e+000
6.478721e+002,-3.868042e+000
6.488364e+002,-9.096802e+000
6.498006e+002,-1.376599e+001
6.507648e+002,-1.077307e+001
6.517291e+002,-3.401367e+000
6.526933e+002,7.393799e-001
6.536575e+002,8.532715e-002
6.546218e+002,-3.353638e+000
6.555860e+002,-5.770264e+000
6.565502e+002,-7.246460e+000
6.575145e+002,-7.269531e+000
6.584787e+002,-5.220581e+000
6.594429e+002,-2.334106e+000
6.604072e+002,8.553467e-001
6.613714e+002,4.458496e+000
6.623356e+002,6.986206e+000
6.632999e+002,6.735474e+000
6.642641e+002,5.195923e+000
6.652283e+002,3.146606e+000
6.661926e+002,1.242554e+000
6.671568e+002,1.647949e-002
6.681210e+002,-4.760742e-003
6.690853e+002,2.615967e-001
6.700495e+002,-1.151855e+000
6.710137e+002,-4.067627e+000
6.719780e+002,-6.229858e+000
6.729422e+002,-5.195557e+000
6.739064e+002,-4.698486e-001
6.748707e+002,2.973755e+000
6.758349e+002,6.417114e+000
6.767991e+002,7.360107e+000
6.777634e+002,3.627197e+000
6.787276e+002,-3.424683e+000
6.796918e+002,-7.420166e+000
6.806561e+002,-4.175293e+000
6.816203e+002,-6.516113e-001
6.825845e+002,7.442627e-001
6.835488e+002,5.380859e-001
6.845130e+002,1.286621e-001
6.854772e+002,7.315674e-001
6.864415e+002,1.934937e+000
6.874057e+002,9.440918e-001
6.883699e+002,-1.964600e+000
6.893342e+002,-3.915771e+000
6.902984e+002,-2.977051e+000
6.912626e+002,4.661865e-001
6.922269e+002,2.220825e+000
6.931911e+002,2.305298e+000
6.941553e+002,2.679565e+000
6.951196e+002,2.454590e+000
6.960838e+002,1.676392e+000
6.970480e+002,8.493652e-001
6.980123e+002,7.373047e-002
6.989765e+002,3.995361e-001
6.999407e+002,2.485474e+000
7.009050e+002,5.103394e+000
7.018692e+002,7.845947e+000
7.028334e+002,1.017627e+001
7.037977e+002,1.082166e+001
7.047619e+002,6.625000e+000
7.057261e+002,5.424805e-001
7.066904e+002,-1.912964e+000
7.076546e+002,8.984375e-002
7.086188e+002,3.418945e+000
7.095831e+002,2.854614e+000
7.105473e+002,-4.460327e+000
7.115115e+002,-7.619995e+000
7.124758e+002,-4.968384e+000
7.134400e+002,-1.249756e+000
7.144042e+002,1.588867e+000
7.153685e+002,3.613525e+000
7.163327e+002,4.627075e+000
7.172969e+002,3.175781e+000
7.182612e+002,2.046753e+000
7.192254e+002,2.736328e+000
7.201896e+002,4.260864e+000
7.211539e+002,4.494141e+000
7.221181e+002,1.547119e+000
7.230823e+002,-2.913208e+000
7.240466e+002,-3.995361e+000
7.250108e+002,-1.921021e+000
7.259750e+002,3.486328e-001
7.269393e+002,3.848877e-001
7.279035e+002,-2.180420e+000
7.288677e+002,-4.174316e+000
7.298320e+002,-2.748901e+000
7.307962e+002,-1.318481e+000
7.317604e+002,-6.185303e-001
7.327247e+002,3.641357e-001
7.336889e+002,2.776001e+000
7.346531e+002,6.418823e+000
7.356174e+002,8.442505e+000
7.365816e+002,9.157349e+000
7.375458e+002,9.168335e+000
7.385101e+002,8.178711e+000
7.394743e+002,6.466431e+000
7.404385e+002,5.117065e+000
7.414028e+002,5.596802e+000
7.423670e+002,6.287476e+000
7.433312e+002,6.391602e+000
7.442955e+002,6.951904e+000
7.452597e+002,8.254639e+000
7.462239e+002,1.010742e+001
7.471882e+002,1.227319e+001
7.481524e+002,1.447583e+001
7.491166e+002,1.610010e+001
7.500809e+002,1.637891e+001
7.510451e+002,1.518250e+001
7.520093e+002,1.248718e+001
7.529736e+002,8.045654e+000
7.539378e+002,7.651367e-001
7.549020e+002,-4.719482e+000
7.558663e+002,-5.513184e+000
7.568306e+002,-3.281128e+000
7.577948e+002,-5.489502e-001
7.587590e+002,9.448242e-001
7.597233e+002,1.696777e+000
7.606875e+002,5.542236e+000
7.616517e+002,1.247900e+001
7.626160e+002,1.769202e+001
7.635802e+002,2.050232e+001
7.645444e+002,2.069800e+001
7.655087e+002,1.671472e+001
7.664729e+002,3.888184e+000
7.674371e+002,-2.998291e+000
7.684014e+002,-7.104492e-002
7.693656e+002,4.938599e+000
7.703298e+002,7.717285e+000
7.712941e+002,7.666870e+000
7.722583e+002,6.638794e+000
7.732225e+002,5.503418e+000
7.741868e+002,4.166382e+000
7.751510e+002,1.682861e+000
7.761152e+002,-1.017700e+000
7.770795e+002,-1.661865e+000
7.780437e+002,1.713257e+000
7.790079e+002,8.059814e+000
7.799722e+002,9.402954e+000
7.809364e+002,5.460693e+000
7.819006e+002,1.798950e+000
7.828649e+002,1.263550e+000
7.838291e+002,3.361450e+000
7.847933e+002,5.320923e+000
7.857576e+002,6.557861e+000
7.867218e+002,6.055298e+000
7.876860e+002,3.380493e+000
7.886503e+002,7.642822e-001
7.896145e+002,-4.794922e-001
7.905787e+002,1.271973e-001
7.915430e+002,3.026001e+000
7.925072e+002,1.114417e+001
7.934714e+002,1.891943e+001
7.944357e+002,2.054907e+001
7.953999e+002,1.657922e+001
7.963641e+002,1.055273e+001
7.973284e+002,5.997803e+000
7.982926e+002,2.940552e+000
7.992568e+002,2.146118e+000
8.002211e+002,3.548096e+000
8.011853e+002,3.388428e+000
8.021495e+002,-9.643555e-003
8.031138e+002,-4.195435e+000
8.040780e+002,-3.226440e+000
8.050422e+002,7.136475e+000
8.060065e+002,1.523950e+001
8.069707e+002,1.558508e+001
8.079349e+002,1.237024e+001
8.088992e+002,9.928223e+000
8.098634e+002,1.014587e+001
8.108276e+002,1.150085e+001
8.117919e+002,1.083044e+001
8.127561e+002,8.221313e+000
8.137203e+002,6.608521e+000
8.146846e+002,7.083252e+000
8.156488e+002,8.468018e+000
8.166130e+002,8.633179e+000
8.175773e+002,6.808350e+000
8.185415e+002,7.236328e+000
8.195057e+002,1.003394e+001
8.204700e+002,1.301831e+001
8.214342e+002,1.654578e+001
8.223984e+002,1.973352e+001
8.233627e+002,2.000720e+001
8.243269e+002,1.483691e+001
8.252911e+002,1.063477e+001
8.262554e+002,1.175073e+001
8.272196e+002,1.491333e+001
8.281838e+002,1.653516e+001
8.291481e+002,1.539575e+001
8.301123e+002,1.336865e+001
8.310765e+002,1.400781e+001
8.320408e+002,1.676465e+001
8.330050e+002,1.729187e+001
8.339692e+002,1.515259e+001
8.349335e+002,1.207739e+001
8.358977e+002,9.505615e+000
8.368619e+002,7.578613e+000
8.378262e+002,8.399536e+000
8.387904e+002,1.420984e+001
8.397546e+002,1.899597e+001
8.407189e+002,2.047302e+001
8.416831e+002,2.027966e+001
8.426473e+002,2.159399e+001
8.436116e+002,2.617786e+001
8.445758e+002,3.158826e+001
8.455400e+002,3.521765e+001
8.465043e+002,3.659521e+001
8.474685e+002,3.570764e+001
8.484327e+002,3.329199e+001
8.493970e+002,3.034143e+001
8.503612e+002,2.749927e+001
8.513254e+002,2.430542e+001
8.522897e+002,2.234534e+001
8.532539e+002,2.137830e+001
8.542181e+002,2.075574e+001
8.551824e+002,2.064038e+001
8.561466e+002,2.185632e+001
8.571108e+002,2.527783e+001
8.580751e+002,3.138232e+001
8.590393e+002,3.547925e+001
8.600035e+002,3.646045e+001
8.609678e+002,3.591650e+001
8.619320e+002,3.516467e+001
8.628962e+002,3.474146e+001
8.638605e+002,3.467627e+001
8.648247e+002,3.522729e+001
8.657889e+002,3.614246e+001
8.667532e+002,3.773914e+001
8.677174e+002,4.003503e+001
8.686816e+002,4.135840e+001
8.696459e+002,3.963892e+001
8.706101e+002,3.463086e+001
8.715743e+002,3.157166e+001
8.725386e+002,3.071558e+001
8.735028e+002,3.136609e+001
8.744670e+002,3.352527e+001
8.754313e+002,3.598572e+001
8.763955e+002,3.712695e+001
8.773597e+002,3.642297e+001
8.783240e+002,3.591821e+001
8.792882e+002,3.652991e+001
8.802524e+002,3.768176e+001
8.812167e+002,3.938196e+001
8.821809e+002,4.141919e+001
8.831451e+002,4.342285e+001
8.841094e+002,4.512500e+001
8.850736e+002,4.689355e+001
8.860378e+002,4.664624e+001
8.870021e+002,4.313330e+001
8.879663e+002,4.053418e+001
8.889305e+002,4.155359e+001
8.898948e+002,4.516248e+001
8.908590e+002,4.713855e+001
8.918232e+002,4.637878e+001
8.927875e+002,4.666016e+001
8.937517e+002,4.991199e+001
8.947159e+002,5.363916e+001
8.956802e+002,5.512573e+001
8.966444e+002,5.356787e+001
8.976086e+002,5.060413e+001
8.985729e+002,4.817578e+001
8.995371e+002,4.676758e+001
9.005013e+002,4.617407e+001
9.014656e+002,4.665320e+001
9.024298e+002,4.800171e+001
9.033940e+002,4.967932e+001
9.043583e+002,5.108069e+001
9.053225e+002,5.199048e+001
9.062867e+002,5.132422e+001
9.072510e+002,5.047876e+001
9.082152e+002,5.102661e+001
9.091794e+002,5.201697e+001
9.101437e+002,5.165466e+001
9.111079e+002,4.954468e+001
9.120721e+002,4.902869e+001
9.130364e+002,5.413184e+001
9.140006e+002,5.831885e+001
9.149648e+002,5.765381e+001
9.159291e+002,5.400793e+001
9.168933e+002,5.072339e+001
9.178575e+002,4.983984e+001
9.188218e+002,5.071777e+001
9.197860e+002,5.303210e+001
9.207502e+002,5.657690e+001
9.217145e+002,5.795093e+001
9.226787e+002,5.693738e+001
9.236429e+002,5.483435e+001
9.246072e+002,5.240332e+001
9.255714e+002,4.890942e+001
9.265356e+002,4.597278e+001
9.274999e+002,4.260791e+001
9.284641e+002,4.054248e+001
9.294283e+002,4.179504e+001
9.303926e+002,4.505872e+001
9.313568e+002,4.803809e+001
9.323210e+002,4.954199e+001
9.332853e+002,4.975623e+001
9.342495e+002,4.864709e+001
9.352137e+002,4.634509e+001
9.361780e+002,4.273218e+001
9.371422e+002,3.842371e+001
9.381064e+002,3.595251e+001
9.390707e+002,3.840784e+001
9.400349e+002,4.615588e+001
9.409991e+002,5.097449e+001
9.419634e+002,5.173975e+001
9.429276e+002,5.111963e+001
9.438918e+002,4.802588e+001
9.448561e+002,4.484241e+001
9.458203e+002,4.610815e+001
9.467845e+002,5.414441e+001
9.477488e+002,6.252197e+001
9.487130e+002,6.681250e+001
9.496772e+002,6.881128e+001
9.506415e+002,6.906274e+001
9.516057e+002,6.811230e+001
9.525699e+002,6.663940e+001
9.535342e+002,6.518066e+001
9.544984e+002,6.354956e+001
9.554626e+002,6.275562e+001
9.564269e+002,6.355688e+001
9.573911e+002,6.614246e+001
9.583553e+002,7.173987e+001
9.593196e+002,7.817297e+001
9.602838e+002,8.187158e+001
9.612480e+002,8.205273e+001
9.622123e+002,8.103503e+001
9.631765e+002,7.876685e+001
9.641407e+002,7.675464e+001
9.651050e+002,7.538513e+001
9.660692e+002,7.435388e+001
9.670334e+002,7.359290e+001
9.679977e+002,7.351062e+001
9.689619e+002,7.413538e+001
9.699261e+002,7.405518e+001
9.708904e+002,7.286243e+001
9.718546e+002,7.057971e+001
9.728188e+002,6.651746e+001
9.737831e+002,6.273120e+001
9.747473e+002,6.276746e+001
9.757115e+002,6.794788e+001
9.766758e+002,7.119495e+001
9.776400e+002,7.171143e+001
9.786042e+002,7.250049e+001
9.795685e+002,7.416272e+001
9.805327e+002,7.548621e+001
9.814969e+002,7.510278e+001
9.824612e+002,7.302271e+001
9.834254e+002,7.144165e+001
9.843896e+002,7.155542e+001
9.853539e+002,7.267871e+001
9.863181e+002,7.508362e+001
9.872823e+002,7.782703e+001
9.882466e+002,7.875281e+001
9.892108e+002,7.660059e+001
9.901750e+002,7.338989e+001
9.911393e+002,7.627075e+001
9.921035e+002,8.780103e+001
9.930677e+002,9.721045e+001
9.940320e+002,1.033732e+002
9.949962e+002,1.093804e+002
9.959604e+002,1.186421e+002
9.969247e+002,1.313298e+002
9.978889e+002,1.426387e+002
9.988531e+002,1.471479e+002
9.998174e+002,1.511541e+002
1.000782e+003,1.610190e+002
1.001746e+003,1.733906e+002
1.002710e+003,1.830132e+002
1.003674e+003,1.874141e+002
1.004639e+003,1.879465e+002
1.005603e+003,1.867256e+002
1.006567e+003,1.832498e+002
1.007531e+003,1.817776e+002
1.008495e+003,1.830183e+002
1.009460e+003,1.849674e+002
1.010424e+003,1.872391e+002
1.011388e+003,1.896948e+002
1.012352e+003,1.910223e+002
1.013317e+003,1.908381e+002
1.014281e+003,1.887048e+002
1.015245e+003,1.843169e+002
1.016209e+003,1.779205e+002
1.017174e+003,1.697303e+002
1.018138e+003,1.600553e+002
1.019102e+003,1.488755e+002
1.020066e+003,1.360206e+002
1.021031e+003,1.233749e+002
1.021995e+003,1.152869e+002
1.022959e+003,1.101309e+002
1.023923e+003,1.053167e+002
1.024887e+003,1.001750e+002
1.025852e+003,9.433435e+001
1.026816e+003,8.720044e+001
1.027780e+003,7.882861e+001
1.028744e+003,7.197241e+001
1.029709e+003,6.569275e+001
1.030673e+003,6.189014e+001
1.031637e+003,6.325537e+001
1.032601e+003,6.611633e+001
1.033566e+003,6.532202e+001
1.034530e+003,5.939587e+001
1.035494e+003,5.278040e+001
1.036458e+003,4.937634e+001
1.037422e+003,4.855591e+001
1.038387e+003,5.025708e+001
1.039351e+003,5.384998e+001
1.040315e+003,5.675415e+001
1.041279e+003,5.734473e+001
1.042244e+003,5.625464e+001
1.043208e+003,5.487341e+001
1.044172e+003,5.134473e+001
1.045136e+003,4.927869e+001
1.046101e+003,5.035413e+001
1.047065e+003,5.197827e+001
1.048029e+003,5.203723e+001
1.048993e+003,5.074927e+001
1.049958e+003,5.017480e+001
1.050922e+003,5.184802e+001
1.051886e+003,5.443176e+001
1.052850e+003,5.633093e+001
1.053814e+003,5.799988e+001
1.054779e+003,6.053931e+001
1.055743e+003,6.377454e+001
1.056707e+003,6.570410e+001
1.057671e+003,6.383948e+001
1.058636e+003,5.798633e+001
1.059600e+003,5.351379e+001
1.060564e+003,5.032703e+001
1.061528e+003,5.050549e+001
1.062493e+003,5.726929e+001
1.063457e+003,6.415161e+001
1.064421e+003,6.331921e+001
1.065385e+003,5.442407e+001
1.066349e+003,4.707361e+001
1.067314e+003,4.745496e+001
1.068278e+003,4.940637e+001
1.069242e+003,4.826514e+001
1.070206e+003,4.605066e+001
1.071171e+003,4.627917e+001
1.072135e+003,4.982593e+001
1.073099e+003,5.361426e+001
1.074063e+003,5.287085e+001
1.075028e+003,4.723047e+001
1.075992e+003,4.612964e+001
1.076956e+003,5.202563e+001
1.077920e+003,5.622021e+001
1.078885e+003,5.530933e+001
1.079849e+003,5.181921e+001
1.080813e+003,4.993323e+001
1.081777e+003,5.060352e+001
1.082741e+003,5.137854e+001
1.083706e+003,4.881763e+001
1.084670e+003,4.635779e+001
1.085634e+003,4.605457e+001
1.086598e+003,4.739063e+001
1.087563e+003,4.996118e+001
1.088527e+003,5.360669e+001
1.089491e+003,5.694751e+001
1.090455e+003,5.567419e+001
1.091420e+003,4.850073e+001
1.092384e+003,4.472046e+001
1.093348e+003,4.487000e+001
1.094312e+003,4.607300e+001
1.095276e+003,4.802942e+001
1.096241e+003,5.067163e+001
1.097205e+003,5.212366e+001
1.098169e+003,5.102576e+001
1.099133e+003,5.023218e+001
1.100098e+003,5.150159e+001
1.101062e+003,5.347144e+001
1.102026e+003,5.493213e+001
1.102990e+003,5.651086e+001
1.103955e+003,6.022058e+001
1.104919e+003,6.706421e+001
1.105883e+003,7.419019e+001
1.106847e+003,7.544641e+001
1.107812e+003,7.056702e+001
1.108776e+003,6.787085e+001
1.109740e+003,6.841467e+001
1.110704e+003,6.969604e+001
1.111668e+003,7.035864e+001
1.112633e+003,7.120520e+001
1.113597e+003,7.369128e+001
1.114561e+003,7.807471e+001
1.115525e+003,8.220068e+001
1.116490e+003,8.559863e+001
1.117454e+003,8.815918e+001
1.118418e+003,8.977686e+001
1.119382e+003,9.141809e+001
1.120347e+003,9.398047e+001
1.121311e+003,9.739661e+001
1.122275e+003,1.011301e+002
1.123239e+003,1.072292e+002
1.124203e+003,1.161034e+002
1.125168e+003,1.201310e+002
1.126132e+003,1.169576e+002
1.127096e+003,1.142773e+002
1.128060e+003,1.179591e+002
1.129025e+003,1.264982e+002
1.129989e+003,1.342261e+002
1.130953e+003,1.406327e+002
1.131917e+003,1.456110e+002
1.132882e+003,1.491450e+002
1.133846e+003,1.522147e+002
1.134810e+003,1.547395e+002
1.135774e+003,1.575128e+002
1.136739e+003,1.612191e+002
1.137703e+003,1.662410e+002
1.138667e+003,1.739020e+002
1.139631e+003,1.876210e+002
1.140595e+003,2.066636e+002
1.141560e+003,2.246890e+002
1.142524e+003,2.412277e+002
1.143488e+003,2.598746e+002
1.144452e+003,2.825121e+002
1.145417e+003,3.088738e+002
1.146381e+003,3.380172e+002
1.147345e+003,3.696193e+002
1.148309e+003,4.042469e+002
1.149274e+003,4.437526e+002
1.150238e+003,4.851152e+002
1.151202e+003,5.299037e+002
1.152166e+003,5.755308e+002
1.153130e+003,6.183478e+002
1.154095e+003,6.555930e+002
1.155059e+003,6.847212e+002
1.156023e+003,7.039215e+002
1.156987e+003,7.124884e+002
1.157952e+003,7.094563e+002
1.158916e+003,6.956941e+002
1.159880e+003,6.758245e+002
1.160844e+003,6.489155e+002
1.161809e+003,6.155178e+002
1.162773e+003,5.795768e+002
1.163737e+003,5.413723e+002
1.164701e+003,4.998663e+002
1.165666e+003,4.471521e+002
1.166630e+003,4.004249e+002
1.167594e+003,3.657318e+002
1.168558e+003,3.409031e+002
1.169522e+003,3.239879e+002
1.170487e+003,3.133689e+002
1.171451e+003,3.064347e+002
1.172415e+003,3.001138e+002
1.173379e+003,2.946001e+002
1.174344e+003,2.931266e+002
1.175308e+003,2.963763e+002
1.176272e+003,2.971835e+002
1.177236e+003,2.928020e+002
1.178201e+003,2.857792e+002
1.179165e+003,2.784548e+002
1.180129e+003,2.701932e+002
1.181093e+003,2.613774e+002
1.182057e+003,2.521361e+002
1.183022e+003,2.431746e+002
1.183986e+003,2.327678e+002
1.184950e+003,2.241672e+002
1.185914e+003,2.213837e+002
1.186879e+003,2.241936e+002
1.187843e+003,2.290653e+002
1.188807e+003,2.329132e+002
1.189771e+003,2.357195e+002
1.190736e+003,2.385149e+002
1.191700e+003,2.412897e+002
1.192664e+003,2.429695e+002
1.193628e+003,2.441704e+002
1.194593e+003,2.444034e+002
1.195557e+003,2.435021e+002
1.196521e+003,2.410753e+002
1.197485e+003,2.357181e+002
1.198449e+003,2.263489e+002
1.199414e+003,2.173287e+002
1.200378e+003,2.109200e+002
1.201342e+003,2.053735e+002
1.202306e+003,1.998083e+002
1.203271e+003,1.936965e+002
1.204235e+003,1.863700e+002
1.205199e+003,1.778337e+002
1.206163e+003,1.694600e+002
1.207128e+003,1.634501e+002
1.208092e+003,1.600704e+002
1.209056e+003,1.552758e+002
1.210020e+003,1.498964e+002
1.210984e+003,1.420918e+002
1.211949e+003,1.283379e+002
1.212913e+003,1.133436e+002
1.213877e+003,1.043346e+002
1.214841e+003,1.017920e+002
1.215806e+003,9.837097e+001
1.216770e+003,9.065930e+001
1.217734e+003,8.184705e+001
1.218698e+003,7.284302e+001
1.219663e+003,6.429956e+001
1.220627e+003,5.724915e+001
1.221591e+003,5.184082e+001
1.222555e+003,4.749341e+001
1.223520e+003,4.382751e+001
1.224484e+003,4.109802e+001
1.225448e+003,3.895569e+001
1.226412e+003,3.687598e+001
1.227376e+003,3.642090e+001
1.228341e+003,3.863831e+001
1.229305e+003,4.068994e+001
1.230269e+003,4.106140e+001
1.231233e+003,4.007373e+001
1.232198e+003,3.850220e+001
1.233162e+003,3.682312e+001
1.234126e+003,3.620789e+001
1.235090e+003,3.729028e+001
1.236055e+003,3.903015e+001
1.237019e+003,4.115112e+001
1.237983e+003,4.282507e+001
1.238947e+003,4.236719e+001
1.239911e+003,3.948730e+001
1.240876e+003,3.617700e+001
1.241840e+003,3.496619e+001
1.242804e+003,3.598596e+001
1.243768e+003,3.744495e+001
1.244733e+003,3.962866e+001
1.245697e+003,4.198962e+001
1.246661e+003,4.450500e+001
1.247625e+003,4.573425e+001
1.248590e+003,4.395947e+001
1.249554e+003,4.093457e+001
1.250518e+003,4.045923e+001
1.251482e+003,4.386902e+001
1.252447e+003,4.935254e+001
1.253411e+003,5.748315e+001
1.254375e+003,6.595496e+001
1.255339e+003,6.821143e+001
1.256303e+003,6.463525e+001
1.257268e+003,6.211609e+001
1.258232e+003,6.406189e+001
1.259196e+003,6.816113e+001
1.260160e+003,7.054504e+001
1.261125e+003,7.112292e+001
1.262089e+003,7.491089e+001
1.263053e+003,8.481360e+001
1.264017e+003,9.352197e+001
1.264982e+003,1.001998e+002
1.265946e+003,1.049287e+002
1.266910e+003,1.080269e+002
1.267874e+003,1.093749e+002
1.268839e+003,1.082142e+002
1.269803e+003,1.040514e+002
1.270767e+003,9.821863e+001
1.271731e+003,9.319531e+001
1.272695e+003,8.936536e+001
1.273660e+003,8.611108e+001
1.274624e+003,8.279224e+001
1.275588e+003,7.837463e+001
1.276552e+003,7.173865e+001
1.277517e+003,6.521997e+001
1.278481e+003,6.339795e+001
1.279445e+003,6.679846e+001
1.280409e+003,6.696729e+001
1.281374e+003,5.810596e+001
1.282338e+003,4.985754e+001
1.283302e+003,4.797278e+001
1.284266e+003,4.870056e+001
1.285230e+003,4.765576e+001
1.286195e+003,4.422375e+001
1.287159e+003,4.085718e+001
1.288123e+003,3.989124e+001
1.289087e+003,4.091724e+001
1.290052e+003,4.122046e+001
1.291016e+003,3.989844e+001
1.291980e+003,3.892566e+001
1.292944e+003,3.768018e+001
1.293909e+003,3.619775e+001
1.294873e+003,3.566357e+001
1.295837e+003,3.544202e+001
1.296801e+003,3.384082e+001
1.297766e+003,3.086182e+001
1.298730e+003,2.898718e+001
1.299694e+003,2.922449e+001
1.300658e+003,3.046814e+001
1.301622e+003,3.283899e+001
1.302587e+003,3.548254e+001
1.303551e+003,3.612280e+001
1.304515e+003,3.486108e+001
1.305479e+003,3.457104e+001
1.306444e+003,3.736523e+001
1.307408e+003,4.195642e+001
1.308372e+003,4.510022e+001
1.309336e+003,4.648608e+001
1.310301e+003,4.712415e+001
1.311265e+003,4.844592e+001
1.312229e+003,4.821643e+001
1.313193e+003,4.466089e+001
1.314157e+003,3.960864e+001
1.315122e+003,3.366809e+001
1.316086e+003,2.783923e+001
1.317050e+003,2.543713e+001
1.318014e+003,2.931909e+001
1.318979e+003,3.504297e+001
1.319943e+003,3.281421e+001
1.320907e+003,2.440540e+001
1.321871e+003,2.329419e+001
1.322836e+003,3.107385e+001
1.323800e+003,3.869885e+001
1.324764e+003,4.199768e+001
1.325728e+003,4.216687e+001
1.326693e+003,3.970740e+001
1.327657e+003,3.415454e+001
1.328621e+003,3.149304e+001
1.329585e+003,3.700427e+001
1.330549e+003,4.370752e+001
1.331514e+003,4.765308e+001
1.332478e+003,4.810620e+001
1.333442e+003,4.264893e+001
1.334406e+003,3.390259e+001
1.335371e+003,2.894373e+001
1.336335e+003,3.188562e+001
1.337299e+003,3.856848e+001
1.338263e+003,4.075964e+001
1.339228e+003,3.783154e+001
1.340192e+003,3.664417e+001
1.341156e+003,3.759216e+001
1.342120e+003,3.947241e+001
1.343084e+003,4.282556e+001
1.344049e+003,4.507556e+001
1.345013e+003,4.451904e+001
1.345977e+003,4.204370e+001
1.346941e+003,3.924780e+001
1.347906e+003,3.654675e+001
1.348870e+003,3.483118e+001
1.349834e+003,3.531665e+001
1.350798e+003,3.638831e+001
1.351763e+003,3.522717e+001
1.352727e+003,3.254211e+001
1.353691e+003,3.179907e+001
1.354655e+003,3.506348e+001
1.355620e+003,3.816992e+001
1.356584e+003,3.515771e+001
1.357548e+003,2.723303e+001
1.358512e+003,2.321594e+001
1.359476e+003,2.351306e+001
1.360441e+003,2.477979e+001
1.361405e+003,2.752283e+001
1.362369e+003,3.034998e+001
1.363333e+003,3.405627e+001
1.364298e+003,3.679492e+001
1.365262e+003,3.461780e+001
1.366226e+003,2.793311e+001
1.367190e+003,2.332373e+001
1.368155e+003,2.678870e+001
1.369119e+003,3.482971e+001
1.370083e+003,3.628540e+001
1.371047e+003,2.901331e+001
1.372011e+003,2.594006e+001
1.372976e+003,2.949927e+001
1.373940e+003,3.216711e+001
1.374904e+003,3.040662e+001
1.375868e+003,2.742480e+001
1.376833e+003,2.726428e+001
1.377797e+003,2.975305e+001
1.378761e+003,3.180322e+001
1.379725e+003,3.238293e+001
1.380690e+003,3.201379e+001
1.381654e+003,2.994995e+001
1.382618e+003,2.825732e+001
1.383582e+003,3.034143e+001
1.384547e+003,3.587939e+001
1.385511e+003,4.136450e+001
1.386475e+003,4.486145e+001
1.387439e+003,4.678711e+001
1.388403e+003,4.771484e+001
1.389368e+003,4.756665e+001
1.390332e+003,4.753149e+001
1.391296e+003,4.893420e+001
1.392260e+003,4.881055e+001
1.393225e+003,4.520313e+001
1.394189e+003,4.110974e+001
1.395153e+003,3.713660e+001
1.396117e+003,3.434058e+001
1.397082e+003,3.480859e+001
1.398046e+003,3.859900e+001
1.399010e+003,4.286755e+001
1.399974e+003,4.458667e+001
1.400938e+003,4.315491e+001
1.401903e+003,3.877319e+001
1.402867e+003,3.186047e+001
1.403831e+003,3.023438e+001
1.404795e+003,3.649548e+001
1.405760e+003,4.231104e+001
1.406724e+003,4.354675e+001
1.407688e+003,4.117639e+001
1.408652e+003,3.655786e+001
1.409617e+003,3.149426e+001
1.410581e+003,2.994067e+001
1.411545e+003,3.405884e+001
1.412509e+003,3.857959e+001
1.413474e+003,3.740356e+001
1.414438e+003,3.265027e+001
1.415402e+003,2.846448e+001
1.416366e+003,2.594409e+001
1.417330e+003,2.723926e+001
1.418295e+003,3.400598e+001
1.419259e+003,4.184009e+001
1.420223e+003,4.517590e+001
1.421187e+003,4.415881e+001
1.422152e+003,4.233411e+001
1.423116e+003,3.973157e+001
1.424080e+003,3.947266e+001
1.425044e+003,4.332007e+001
1.426009e+003,4.720557e+001
1.426973e+003,5.000427e+001
1.427937e+003,5.150476e+001
1.428901e+003,5.118726e+001
1.429865e+003,4.993213e+001
1.430830e+003,5.002856e+001
1.431794e+003,5.257642e+001
1.432758e+003,5.528699e+001
1.433722e+003,5.434485e+001
1.434687e+003,5.029321e+001
1.435651e+003,5.078809e+001
1.436615e+003,5.475940e+001
1.437579e+003,5.955505e+001
1.438544e+003,6.791138e+001
1.439508e+003,7.470996e+001
1.440472e+003,7.659412e+001
1.441436e+003,7.542175e+001
1.442401e+003,7.428259e+001
1.443365e+003,7.369995e+001
1.444329e+003,7.206323e+001
1.445293e+003,6.803979e+001
1.446257e+003,6.373792e+001
1.447222e+003,6.336584e+001
1.448186e+003,6.593726e+001
1.449150e+003,6.647327e+001
1.450114e+003,6.372583e+001
1.451079e+003,6.121814e+001
1.452043e+003,6.196533e+001
1.453007e+003,6.415405e+001
1.453971e+003,6.426636e+001
1.454936e+003,6.238403e+001
1.455900e+003,6.241406e+001
1.456864e+003,6.654175e+001
1.457828e+003,6.927295e+001
1.458792e+003,6.482434e+001
1.459757e+003,5.896680e+001
1.460721e+003,5.645557e+001
1.461685e+003,5.620459e+001
1.462649e+003,5.580615e+001
1.463614e+003,5.493030e+001
1.464578e+003,5.474109e+001
1.465542e+003,5.614050e+001
1.466506e+003,5.810242e+001
1.467471e+003,5.788831e+001
1.468435e+003,5.512927e+001
1.469399e+003,5.683899e+001
1.470363e+003,6.747583e+001
1.471328e+003,7.477417e+001
1.472292e+003,7.300330e+001
1.473256e+003,6.843262e+001
1.474220e+003,6.656982e+001
1.475184e+003,6.703540e+001
1.476149e+003,6.642944e+001
1.477113e+003,6.347998e+001
1.478077e+003,6.060742e+001
1.479041e+003,6.079272e+001
1.480006e+003,6.396692e+001
1.480970e+003,6.833105e+001
1.481934e+003,7.343689e+001
1.482898e+003,7.801758e+001
1.483863e+003,8.234399e+001
1.484827e+003,8.543481e+001
1.485791e+003,8.674548e+001
1.486755e+003,8.829041e+001
1.487719e+003,9.231104e+001
1.488684e+003,9.718079e+001
1.489648e+003,9.821741e+001
1.490612e+003,9.454150e+001
1.491576e+003,9.317639e+001
1.492541e+003,9.985461e+001
1.493505e+003,1.114460e+002
1.494469e+003,1.222184e+002
1.495433e+003,1.313792e+002
1.496398e+003,1.388458e+002
1.497362e+003,1.450630e+002
1.498326e+003,1.524707e+002
1.499290e+003,1.622760e+002
1.500255e+003,1.737087e+002
1.501219e+003,1.850885e+002
1.502183e+003,1.965452e+002
1.503147e+003,2.104106e+002
1.504111e+003,2.273497e+002
1.505076e+003,2.457981e+002
1.506040e+003,2.643137e+002
1.507004e+003,2.850579e+002
1.507968e+003,3.097120e+002
1.508933e+003,3.379917e+002
1.509897e+003,3.686072e+002
1.510861e+003,4.027429e+002
1.511825e+003,4.451937e+002
1.512790e+003,4.998459e+002
1.513754e+003,5.611029e+002
1.514718e+003,6.195140e+002
1.515682e+003,6.743008e+002
1.516646e+003,7.314243e+002
1.517611e+003,7.954795e+002
1.518575e+003,8.541482e+002
1.519539e+003,9.067721e+002
1.520503e+003,9.513595e+002
1.521468e+003,9.900741e+002
1.522432e+003,1.017457e+003
1.523396e+003,1.023186e+003
1.524360e+003,1.008995e+003
1.525325e+003,9.895479e+002
1.526289e+003,9.748333e+002
1.527253e+003,9.583558e+002
1.528217e+003,9.276818e+002
1.529182e+003,8.833601e+002
1.530146e+003,8.355623e+002
1.531110e+003,7.847756e+002
1.532074e+003,7.275911e+002
1.533039e+003,6.598552e+002
1.534003e+003,5.874357e+002
1.534967e+003,5.095848e+002
1.535931e+003,4.341071e+002
1.536896e+003,3.668748e+002
1.537860e+003,3.101318e+002
1.538824e+003,2.656147e+002
1.539788e+003,2.333672e+002
1.540752e+003,2.086333e+002
1.541717e+003,1.859503e+002
1.542681e+003,1.657751e+002
1.543645e+003,1.477780e+002
1.544609e+003,1.324550e+002
1.545573e+003,1.209259e+002
1.546538e+003,1.133958e+002
1.547502e+003,1.068402e+002
1.548466e+003,1.020469e+002
1.549430e+003,9.830249e+001
1.550395e+003,9.416614e+001
1.551359e+003,8.940356e+001
1.552323e+003,8.479639e+001
1.553287e+003,8.072620e+001
1.554252e+003,7.659412e+001
1.555216e+003,7.157581e+001
1.556180e+003,6.660181e+001
1.557144e+003,6.448828e+001
1.558109e+003,6.566028e+001
1.559073e+003,6.465063e+001
1.560037e+003,5.829492e+001
1.561001e+003,5.355811e+001
1.561966e+003,5.585291e+001
1.562930e+003,6.003601e+001
1.563894e+003,6.035510e+001
1.564858e+003,5.795728e+001
1.565823e+003,5.702673e+001
1.566787e+003,5.817053e+001
1.567751e+003,5.835107e+001
1.568715e+003,5.584900e+001
1.569679e+003,5.284082e+001
1.570644e+003,5.158875e+001
1.571608e+003,5.119202e+001
1.572572e+003,5.032068e+001
1.573536e+003,4.943652e+001
1.574500e+003,5.018457e+001
1.575465e+003,5.395203e+001
1.576429e+003,5.749683e+001
1.577393e+003,5.628943e+001
1.578357e+003,5.329456e+001
1.579322e+003,5.634509e+001
1.580286e+003,6.549316e+001
1.581250e+003,7.104333e+001
1.582214e+003,6.923889e+001
1.583179e+003,6.630835e+001
1.584143e+003,6.663904e+001
1.585107e+003,6.758765e+001
1.586071e+003,6.614417e+001
1.587036e+003,6.399866e+001
1.588000e+003,6.426807e+001
1.588964e+003,6.725928e+001
1.589928e+003,6.846936e+001
1.590893e+003,6.289307e+001
1.591857e+003,5.614075e+001
1.592821e+003,5.753442e+001
1.593785e+003,6.585168e+001
1.594750e+003,7.345923e+001
1.595714e+003,7.930371e+001
1.596678e+003,8.285571e+001
1.597642e+003,8.390613e+001
1.598606e+003,8.271777e+001
1.599571e+003,7.718738e+001
1.600535e+003,7.157397e+001
1.601499e+003,7.225903e+001
1.602463e+003,7.822900e+001
1.603427e+003,8.345020e+001
1.604392e+003,8.578406e+001
1.605356e+003,8.493872e+001
1.606320e+003,7.920581e+001
1.607284e+003,7.062427e+001
1.608249e+003,6.488965e+001
1.609213e+003,6.211121e+001
1.610177e+003,5.960425e+001
1.611141e+003,5.671729e+001
1.612106e+003,5.468457e+001
1.613070e+003,5.547632e+001
1.614034e+003,5.589282e+001
1.614998e+003,5.282043e+001
1.615963e+003,4.816138e+001
1.616927e+003,4.477588e+001
1.617891e+003,4.307361e+001
1.618855e+003,4.262256e+001
1.619820e+003,4.310779e+001
1.620784e+003,4.261377e+001
1.621748e+003,3.868774e+001
1.622712e+003,3.333350e+001
1.623677e+003,3.288843e+001
1.624641e+003,3.836829e+001
1.625605e+003,4.363367e+001
1.626569e+003,4.577576e+001
1.627533e+003,4.617542e+001
1.628498e+003,4.583240e+001
1.629462e+003,4.567847e+001
1.630426e+003,4.667944e+001
1.631390e+003,4.804639e+001
1.632354e+003,4.807556e+001
1.633319e+003,4.638293e+001
1.634283e+003,4.426489e+001
1.635247e+003,4.254016e+001
1.636211e+003,4.086035e+001
1.637176e+003,3.842993e+001
1.638140e+003,3.580835e+001
1.639104e+003,3.689624e+001
1.640068e+003,4.305151e+001
1.641033e+003,4.657874e+001
1.641997e+003,4.440405e+001
1.642961e+003,4.169702e+001
1.643925e+003,4.081348e+001
1.644890e+003,4.070471e+001
1.645854e+003,4.017419e+001
1.646818e+003,3.927344e+001
1.647782e+003,3.855273e+001
1.648747e+003,3.816235e+001
1.649711e+003,3.839917e+001
1.650675e+003,4.006458e+001
1.651639e+003,4.285596e+001
1.652604e+003,4.533350e+001
1.653568e+003,4.706812e+001
1.654532e+003,4.792334e+001
1.655496e+003,4.822595e+001
1.656460e+003,4.634705e+001
1.657425e+003,3.939099e+001
1.658389e+003,3.410974e+001
1.659353e+003,3.590698e+001
1.660317e+003,3.962183e+001
1.661281e+003,3.977832e+001
1.662246e+003,3.655176e+001
1.663210e+003,3.238232e+001
1.664174e+003,2.844275e+001
1.665138e+003,2.562891e+001
1.666103e+003,2.449585e+001
1.667067e+003,2.421033e+001
1.668031e+003,2.340674e+001
1.668995e+003,2.238635e+001
1.669960e+003,2.343250e+001
1.670924e+003,2.791943e+001
1.671888e+003,3.003699e+001
1.672852e+003,2.527893e+001
1.673817e+003,2.081165e+001
1.674781e+003,2.203369e+001
1.675745e+003,2.511572e+001
1.676709e+003,2.562012e+001
1.677674e+003,2.414514e+001
1.678638e+003,2.404443e+001
1.679602e+003,2.634473e+001
1.680566e+003,2.807373e+001
1.681531e+003,2.720471e+001
1.682495e+003,2.507776e+001
1.683459e+003,2.279968e+001
1.684423e+003,2.007605e+001
1.685387e+003,1.804126e+001
1.686352e+003,1.717468e+001
1.687316e+003,1.606165e+001
1.688280e+003,1.405054e+001
1.689244e+003,1.198987e+001
1.690208e+003,9.358765e+000
1.691173e+003,7.418823e+000
1.692137e+003,8.807617e+000
1.693101e+003,1.297156e+001
1.694065e+003,1.619763e+001
1.695030e+003,1.687817e+001
1.695994e+003,1.675269e+001
1.696958e+003,1.713330e+001
1.697922e+003,1.779724e+001
1.698887e+003,1.871130e+001
1.699851e+003,1.984021e+001
1.700815e+003,2.035803e+001
1.701779e+003,1.983826e+001
1.702744e+003,1.858350e+001
1.703708e+003,1.717505e+001
1.704672e+003,1.682935e+001
1.705636e+003,1.855310e+001
1.706601e+003,1.946948e+001
1.707565e+003,1.469482e+001
1.708529e+003,7.249634e+000
1.709493e+003,5.798340e+000
1.710458e+003,1.184973e+001
1.711422e+003,1.766602e+001
1.712386e+003,2.184106e+001
1.713350e+003,2.381360e+001
1.714314e+003,2.088159e+001
1.715279e+003,1.533911e+001
1.716243e+003,1.134241e+001
1.717207e+003,9.278931e+000
1.718171e+003,8.809570e+000
1.719135e+003,9.998291e+000
1.720100e+003,1.094604e+001
1.721064e+003,9.798828e+000
1.722028e+003,8.381714e+000
1.722992e+003,1.087769e+001
1.723957e+003,1.675818e+001
1.724921e+003,1.780322e+001
1.725885e+003,1.172827e+001
1.726849e+003,7.236328e+000
1.727814e+003,7.839478e+000
1.728778e+003,1.016150e+001
1.729742e+003,1.251416e+001
1.730706e+003,1.560266e+001
1.731671e+003,2.185559e+001
1.732635e+003,2.731921e+001
1.733599e+003,2.433691e+001
1.734563e+003,1.374756e+001
1.735528e+003,4.158813e+000
1.736492e+003,-2.493896e-001
1.737456e+003,-8.486328e-001
1.738420e+003,1.182495e+000
1.739385e+003,4.276123e+000
1.740349e+003,4.889648e+000
1.741313e+003,3.131592e+000
1.742277e+003,1.252686e+000
1.743241e+003,-1.646973e+000
1.744206e+003,-2.029907e+000
1.745170e+003,2.489258e+000
1.746134e+003,6.562866e+000
1.747098e+003,6.585693e+000
1.748063e+003,4.942383e+000
1.749027e+003,4.473633e+000
1.749991e+003,5.313477e+000
1.750955e+003,6.573730e+000
1.751919e+003,7.527222e+000
1.752884e+003,6.881958e+000
1.753848e+003,3.511597e+000
1.754812e+003,-8.475342e-001
1.755776e+003,-2.023926e+000
1.756741e+003,5.377197e-001
1.757705e+003,3.007202e+000
1.758669e+003,5.271973e+000
1.759633e+003,5.898682e+000
1.760598e+003,4.141235e+000
1.761562e+003,2.946777e-001
1.762526e+003,-7.364990e+000
1.763490e+003,-1.371509e+001
1.764455e+003,-1.506006e+001
1.765419e+003,-1.256494e+001
1.766383e+003,-7.896118e+000
1.767347e+003,-2.449341e+000
1.768312e+003,1.839844e+000
1.769276e+003,3.871338e+000
1.770240e+003,3.565674e+000
1.771204e+003,1.038330e+000
1.772168e+003,-1.753662e+000
1.773133e+003,-1.439453e+000
1.774097e+003,1.520386e+000
1.775061e+003,2.512329e+000
1.776025e+003,-7.324219e-004
1.776990e+003,-2.210083e+000
1.777954e+003,-1.742065e+000
1.778918e+003,-5.577393e-001
1.779882e+003,-9.645996e-001
1.780846e+003,-2.179199e+000
1.781811e+003,-1.603760e+000
1.782775e+003,-1.660156e-002
1.783739e+003,-1.333862e+000
1.784703e+003,-6.259644e+000
1.785668e+003,-9.059326e+000
1.786632e+003,-7.695190e+000
1.787596e+003,-4.975098e+000
1.788560e+003,2.335205e-001
1.789525e+003,5.351685e+000
1.790489e+003,4.290283e+000
1.791453e+003,-1.311401e+000
1.792417e+003,-4.781616e+000
1.793382e+003,-4.572754e+000
1.794346e+003,-2.119141e+000
1.795310e+003,1.916382e+000
1.796274e+003,5.513550e+000
1.797239e+003,7.074463e+000
1.798203e+003,7.250000e+000
1.799167e+003,4.720337e+000
1.800131e+003,-2.947021e+000
1.801095e+003,-8.107056e+000
1.802060e+003,-8.243042e+000
1.803024e+003,-7.108398e+000
1.803988e+003,-4.563110e+000
1.804952e+003,-2.534424e+000
1.805917e+003,-2.144653e+000
1.806881e+003,-2.579956e+000
1.807845e+003,-3.051636e+000
1.808809e+003,-3.077271e+000
1.809773e+003,-1.825439e+000
1.810738e+003,3.641357e-001
1.811702e+003,9.462891e-001
1.812666e+003,-1.650391e+000
1.813630e+003,-4.102661e+000
1.814595e+003,-1.527588e+000
1.815559e+003,4.196289e+000
1.816523e+003,5.979736e+000
1.817487e+003,3.589722e+000
1.818452e+003,1.823853e+000
1.819416e+003,1.326660e+000
1.820380e+003,2.587158e+000
1.821344e+003,6.890503e+000
1.822309e+003,9.745117e+000
1.823273e+003,8.369263e+000
1.824237e+003,5.602295e+000
1.825201e+003,3.212036e+000
1.826166e+003,1.274780e+000
1.827130e+003,-1.867676e-002
1.828094e+003,-9.018555e-001
1.829058e+003,-1.014526e+000
1.830022e+003,9.323730e-001
1.830987e+003,2.639160e+000
1.831951e+003,1.552124e+000
1.832915e+003,-4.340820e-001
1.833879e+003,-5.153809e-001
1.834844e+003,8.171387e-001
1.835808e+003,2.259521e+000
1.836772e+003,3.431152e+000
1.837736e+003,2.235352e+000
1.838700e+003,-2.731201e+000
1.839665e+003,-7.491211e+000
1.840629e+003,-7.913574e+000
1.841593e+003,-5.693848e+000
1.842557e+003,-5.011963e+000
1.843522e+003,-5.877808e+000
1.844486e+003,-5.907715e+000
1.845450e+003,-3.123901e+000
1.846414e+003,-1.390259e+000
1.847379e+003,-3.511353e+000
1.848343e+003,-5.403320e+000
1.849307e+003,-3.959839e+000
1.850271e+003,-2.988159e+000
1.851236e+003,-5.686035e+000
1.852200e+003,-9.574341e+000
1.853164e+003,-1.263220e+001
1.854128e+003,-1.462805e+001
1.855093e+003,-1.411877e+001
1.856057e+003,-1.037854e+001
1.857021e+003,-6.959961e+000
1.857985e+003,-7.331421e+000
1.858949e+003,-9.819580e+000
1.859914e+003,-1.160510e+001
1.860878e+003,-1.249231e+001
1.861842e+003,-1.298901e+001
1.862806e+003,-1.341089e+001
1.863771e+003,-1.040283e+001
1.864735e+003,-2.387817e+000
1.865699e+003,2.587036e+000
1.866663e+003,6.408691e-002
1.867627e+003,-3.239502e+000
1.868592e+003,-1.589355e+000
1.869556e+003,1.845581e+000
1.870520e+003,2.473145e+000
1.871484e+003,5.366211e-001
1.872449e+003,-2.039795e+000
1.873413e+003,-3.557129e+000
1.874377e+003,-2.712891e+000
1.875341e+003,-4.028320e-001
1.876306e+003,2.130615e+000
1.877270e+003,4.671753e+000
1.878234e+003,6.231201e+000
1.879198e+003,5.478149e+000
1.880163e+003,3.758667e+000
1.881127e+003,3.909180e+000
1.882091e+003,5.836548e+000
1.883055e+003,7.085205e+000
1.884020e+003,6.469482e+000
1.884984e+003,4.082275e+000
1.885948e+003,-4.602051e-002
1.886912e+003,-4.456787e+000
1.887876e+003,-6.196899e+000
1.888841e+003,-5.265503e+000
1.889805e+003,-2.099731e+000
1.890769e+003,4.203979e+000
1.891733e+003,7.738892e+000
1.892698e+003,6.479248e+000
1.893662e+003,4.463257e+000
1.894626e+003,2.714966e+000
1.895590e+003,1.607788e+000
1.896554e+003,1.901489e+000
1.897519e+003,3.390259e+000
1.898483e+003,5.809814e+000
1.899447e+003,7.972900e+000
1.900411e+003,8.364380e+000
1.901376e+003,7.002930e+000
1.902340e+003,4.143188e+000
1.903304e+003,-2.189575e+000
1.904268e+003,-7.057373e+000
1.905233e+003,-6.207153e+000
1.906197e+003,-3.041138e+000
1.907161e+003,-9.162598e-001
1.908125e+003,1.172485e+000
1.909090e+003,6.006836e+000
1.910054e+003,1.198694e+001
1.911018e+003,1.367786e+001
1.911982e+003,9.971191e+000
1.912947e+003,4.648926e+000
1.913911e+003,2.397461e-001
1.914875e+003,-1.785278e+000
1.915839e+003,1.107422e+000
1.916803e+003,6.865112e+000
1.917768e+003,7.594482e+000
1.918732e+003,2.729980e+000
1.919696e+003,2.011719e-001
1.920660e+003,1.108154e+000
1.921625e+003,2.984741e+000
1.922589e+003,5.494629e+000
1.923553e+003,7.470947e+000
1.924517e+003,8.045410e+000
1.925481e+003,8.241821e+000
1.926446e+003,9.831787e+000
1.927410e+003,1.144751e+001
1.928374e+003,8.974854e+000
1.929338e+003,2.311768e+000
1.930303e+003,-1.033447e+000
1.931267e+003,3.122192e+000
1.932231e+003,7.103394e+000
1.933195e+003,5.314819e+000
1.934160e+003,3.006470e+000
1.935124e+003,5.410522e+000
1.936088e+003,7.880005e+000
1.937052e+003,4.478882e+000
1.938017e+003,-2.232544e+000
1.938981e+003,-6.982178e+000
1.939945e+003,-8.868408e+000
1.940909e+003,-9.338501e+000
1.941874e+003,-9.345215e+000
1.942838e+003,-9.118408e+000
1.943802e+003,-8.185181e+000
1.944766e+003,-6.425415e+000
1.945730e+003,-5.379150e+000
1.946695e+003,-5.261230e+000
1.947659e+003,-3.026978e+000
1.948623e+003,1.457520e+000
1.949587e+003,4.303589e+000
1.950552e+003,5.366943e+000
1.951516e+003,5.248291e+000
1.952480e+003,3.001587e+000
1.953444e+003,2.019897e+000
1.954408e+003,5.488525e+000
1.955373e+003,9.754883e+000
1.956337e+003,1.097253e+001
1.957301e+003,1.022253e+001
1.958265e+003,7.647827e+000
1.959230e+003,2.758667e+000
1.960194e+003,1.360596e+000
1.961158e+003,6.250122e+000
1.962122e+003,8.993286e+000
1.963087e+003,6.573364e+000
1.964051e+003,2.932251e+000
1.965015e+003,-3.354492e-001
1.965979e+003,-1.701294e+000
1.966944e+003,5.137939e-001
1.967908e+003,4.038818e+000
1.968872e+003,5.723022e+000
1.969836e+003,5.244385e+000
1.970801e+003,3.457886e+000
1.971765e+003,9.923096e-001
1.972729e+003,-3.643799e-001
1.973693e+003,9.410400e-001
1.974657e+003,3.743042e+000
1.975622e+003,6.492310e+000
1.976586e+003,8.763916e+000
1.977550e+003,1.040649e+001
1.978514e+003,1.162756e+001
1.979479e+003,1.188672e+001
1.980443e+003,1.101440e+001
1.981407e+003,1.058704e+001
1.982371e+003,1.156226e+001
1.983335e+003,1.180408e+001
1.984300e+003,9.009644e+000
1.985264e+003,5.280518e+000
1.986228e+003,4.560913e+000
1.987192e+003,6.047729e+000
1.988157e+003,5.601929e+000
1.989121e+003,2.981567e+000
1.990085e+003,1.313721e+000
1.991049e+003,1.578857e+000
1.992014e+003,1.707764e+000
1.992978e+003,-8.974609e-001
1.993942e+003,-1.297241e+000
1.994906e+003,5.129150e+000
1.995871e+003,1.138403e+001
1.996835e+003,1.158960e+001
1.997799e+003,9.316162e+000
1.998763e+003,1.007874e+001
1.999728e+003,1.284338e+001
