5.003444e+002,1.183667e+001
5.013087e+002,1.315128e+001
5.022729e+002,1.113290e+001
5.032371e+002,7.091339e+000
5.042014e+002,5.184113e+000
5.051656e+002,5.123138e+000
5.061298e+002,5.253632e+000
5.070941e+002,3.879791e+000
5.080583e+002,1.830750e-001
5.090225e+002,-6.018677e-001
5.099868e+002,3.241180e+000
5.109510e+002,7.181671e+000
5.119152e+002,8.503235e+000
5.128795e+002,6.902283e+000
5.138437e+002,6.443542e+000
5.148079e+002,1.120798e+001
5.157722e+002,1.506760e+001
5.167364e+002,1.446365e+001
5.177006e+002,9.558868e+000
5.186649e+002,4.081390e+000
5.196291e+002,2.985992e+000
5.205933e+002,4.012390e+000
5.215576e+002,4.308350e+000
5.225218e+002,3.478851e+000
5.234860e+002,2.431854e+000
5.244503e+002,3.074585e+000
5.254145e+002,6.450226e+000
5.263787e+002,7.804626e+000
5.273430e+002,5.814972e+000
5.283072e+002,2.712585e+000
5.292714e+002,1.756836e+000
5.302357e+002,4.549133e+000
5.311999e+002,5.329681e+000
5.321641e+002,2.107697e+000
5.331284e+002,-1.621063e+000
5.340926e+002,-2.998260e+000
5.350568e+002,-9.396973e-001
5.360211e+002,1.417969e+000
5.369853e+002,1.362000e+000
5.379495e+002,4.715881e-001
5.389138e+002,-3.933716e-001
5.398780e+002,-7.758484e-001
5.408422e+002,-5.185547e-001
5.418065e+002,1.681213e+000
5.427707e+002,5.361603e+000
5.437349e+002,6.564301e+000
5.446992e+002,3.485107e+000
5.456634e+002,-2.370026e+000
5.466276e+002,-5.618866e+000
5.475919e+002,-3.658630e+000
5.485561e+002,-1.734406e+000
5.495203e+002,4.430542e-001
5.504846e+002,2.160095e+000
5.514488e+002,2.192902e+000
5.524130e+002,-8.755188e-001
5.533773e+002,-3.093781e+000
5.543415e+002,-2.015594e+000
5.553057e+002,5.026855e-001
5.562700e+002,2.721588e+000
5.572342e+002,3.541351e+000
5.581984e+002,3.247375e+000
5.591627e+002,2.514832e+000
5.601269e+002,1.560150e+000
5.610911e+002,3.739319e-001
5.620554e+002,-1.168182e+000
5.630196e+002,-2.972321e+000
5.639838e+002,-3.465576e+000
5.649481e+002,-1.350891e+000
5.659123e+002,1.992798e-001
5.668765e+002,8.134460e-001
5.678408e+002,7.547302e-001
5.688050e+002,4.653015e-001
5.697692e+002,-2.470398e-001
5.707335e+002,-1.458679e+000
5.716977e+002,-3.861389e+000
5.726619e+002,-6.378967e+000
5.736262e+002,-7.547363e+000
5.745904e+002,-6.221985e+000
5.755546e+002,-3.590546e+000
5.765189e+002,-1.450867e+000
5.774831e+002,8.593750e-002
5.784473e+002,9.892883e-001
5.794116e+002,1.308929e+000
5.803758e+002,1.195465e+000
5.813400e+002,9.078369e-001
5.823043e+002,2.995911e-001
5.832685e+002,-7.229614e-001
5.842327e+002,-2.699921e+000
5.851970e+002,-5.158905e+000
5.861612e+002,-5.743958e+000
5.871254e+002,-1.869476e+000
5.880897e+002,1.242401e+000
5.890539e+002,2.446136e+000
5.900181e+002,2.149353e+000
5.909824e+002,1.141418e+000
5.919466e+002,-3.294067e-001
5.929108e+002,-1.645935e+000
5.938751e+002,-2.040375e+000
5.948393e+002,-1.959839e+000
5.958035e+002,-2.239929e+000
5.967678e+002,-3.444214e+000
5.977320e+002,-5.176544e+000
5.986962e+002,-4.294464e+000
5.996605e+002,-9.075012e-001
6.006247e+002,1.626404e+000
6.015889e+002,1.349609e+000
6.025532e+002,-1.483429e+000
6.035174e+002,-3.340454e+000
6.044816e+002,-3.692291e+000
6.054459e+002,-3.396515e+000
6.064101e+002,-1.943207e+000
6.073743e+002,-2.761841e-002
6.083386e+002,1.127686e+000
6.093028e+002,5.743713e-001
6.102670e+002,-1.264343e-001
6.112313e+002,5.914307e-002
6.121955e+002,8.726196e-001
6.131597e+002,2.257935e+000
6.141240e+002,4.123505e+000
6.150882e+002,5.966278e+000
6.160524e+002,5.435333e+000
6.170167e+002,3.057953e+000
6.179809e+002,1.851501e-001
6.189451e+002,-3.077362e+000
6.199094e+002,-6.574188e+000
6.208736e+002,-8.419708e+000
6.218378e+002,-6.803253e+000
6.228021e+002,-5.042908e+000
6.237663e+002,-3.034882e+000
6.247305e+002,-1.079803e+000
6.256948e+002,2.113342e-001
6.266590e+002,7.485962e-002
6.276232e+002,2.716064e-003
6.285875e+002,1.367126e+000
6.295517e+002,3.280243e+000
6.305159e+002,4.716400e+000
6.314802e+002,5.080750e+000
6.324444e+002,4.748138e+000
6.334086e+002,5.309387e+000
6.343729e+002,6.470154e+000
6.353371e+002,6.534119e+000
6.363013e+002,4.566559e+000
6.372656e+002,1.386780e+000
6.382298e+002,1.242981e-001
6.391940e+002,3.192841e+000
6.401583e+002,4.991089e+000
6.411225e+002,5.031036e+000
6.420867e+002,4.380737e+000
6.430510e+002,4.271423e+000
6.440152e+002,5.138214e+000
6.449794e+002,5.374237e+000
6.459437e+002,3.552155e+000
6.469079e+002,1.331024e+000
6.478721e+002,7.727051e-002
6.488364e+002,2.764587e-001
6.498006e+002,1.248260e+000
6.507648e+002,1.834259e+000
6.517291e+002,2.100311e+000
6.526933e+002,2.349884e+000
6.536575e+002,2.632324e+000
6.546218e+002,2.844086e+000
6.555860e+002,2.770477e+000
6.565502e+002,2.053131e+000
6.575145e+002,1.813873e+000
6.584787e+002,2.139099e+000
6.594429e+002,2.820953e+000
6.604072e+002,3.946045e+000
6.613714e+002,5.640869e+000
6.623356e+002,6.729187e+000
6.632999e+002,5.918518e+000
6.642641e+002,4.763794e+000
6.652283e+002,4.060638e+000
6.661926e+002,4.023651e+000
6.671568e+002,4.421783e+000
6.681210e+002,4.868347e+000
6.690853e+002,5.491089e+000
6.700495e+002,7.141510e+000
6.710137e+002,9.704315e+000
6.719780e+002,1.150153e+001
6.729422e+002,1.048920e+001
6.739064e+002,5.655243e+000
6.748707e+002,3.845581e+000
6.758349e+002,6.828705e+000
6.767991e+002,9.760315e+000
6.777634e+002,1.087067e+001
6.787276e+002,1.037823e+001
6.796918e+002,9.533386e+000
6.806561e+002,7.801910e+000
6.816203e+002,6.533447e+000
6.825845e+002,6.205811e+000
6.835488e+002,6.714172e+000
6.845130e+002,8.109802e+000
6.854772e+002,1.062753e+001
6.864415e+002,1.334665e+001
6.874057e+002,1.399768e+001
6.883699e+002,1.287680e+001
6.893342e+002,1.066046e+001
6.902984e+002,7.608795e+000
6.912626e+002,4.162872e+000
6.922269e+002,2.966034e+000
6.931911e+002,6.317413e+000
6.941553e+002,9.382568e+000
6.951196e+002,1.190891e+001
6.960838e+002,1.361725e+001
6.970480e+002,1.397061e+001
6.980123e+002,1.223404e+001
6.989765e+002,1.098721e+001
6.999407e+002,1.122626e+001
7.009050e+002,1.221759e+001
7.018692e+002,1.344077e+001
7.028334e+002,1.466995e+001
7.037977e+002,1.607098e+001
7.047619e+002,1.854675e+001
7.057261e+002,2.136160e+001
7.066904e+002,2.254211e+001
7.076546e+002,2.174689e+001
7.086188e+002,1.983380e+001
7.095831e+002,1.805222e+001
7.105473e+002,1.605014e+001
7.115115e+002,1.520398e+001
7.124758e+002,1.624677e+001
7.134400e+002,1.734210e+001
7.144042e+002,1.715228e+001
7.153685e+002,1.576007e+001
7.163327e+002,1.524023e+001
7.172969e+002,1.766583e+001
7.182612e+002,2.021722e+001
7.192254e+002,2.204742e+001
7.201896e+002,2.295288e+001
7.211539e+002,2.275220e+001
7.221181e+002,2.114792e+001
7.230823e+002,1.897714e+001
7.240466e+002,1.865808e+001
7.250108e+002,1.992160e+001
7.259750e+002,2.127151e+001
7.269393e+002,2.169199e+001
7.279035e+002,2.108209e+001
7.288677e+002,2.026779e+001
7.298320e+002,1.936899e+001
7.307962e+002,1.891159e+001
7.317604e+002,1.894003e+001
7.327247e+002,1.947498e+001
7.336889e+002,2.061511e+001
7.346531e+002,2.245792e+001
7.356174e+002,2.338538e+001
7.365816e+002,2.269293e+001
7.375458e+002,2.146582e+001
7.385101e+002,2.007913e+001
7.394743e+002,1.887686e+001
7.404385e+002,1.842365e+001
7.414028e+002,1.988351e+001
7.423670e+002,2.235117e+001
7.433312e+002,2.316077e+001
7.442955e+002,2.227762e+001
7.452597e+002,2.140695e+001
7.462239e+002,2.257489e+001
7.471882e+002,2.650696e+001
7.481524e+002,2.886462e+001
7.491166e+002,2.862201e+001
7.500809e+002,2.774707e+001
7.510451e+002,2.677621e+001
7.520093e+002,2.578033e+001
7.529736e+002,2.457632e+001
7.539378e+002,2.244553e+001
7.549020e+002,2.178415e+001
7.558663e+002,2.536224e+001
7.568306e+002,3.060757e+001
7.577948e+002,3.375632e+001
7.587590e+002,3.257739e+001
7.597233e+002,2.864041e+001
7.606875e+002,2.692661e+001
7.616517e+002,2.731128e+001
7.626160e+002,2.809247e+001
7.635802e+002,2.911880e+001
7.645444e+002,3.015869e+001
7.655087e+002,3.057367e+001
7.664729e+002,2.973865e+001
7.674371e+002,2.953354e+001
7.684014e+002,3.112537e+001
7.693656e+002,3.230716e+001
7.703298e+002,3.098355e+001
7.712941e+002,2.729883e+001
7.722583e+002,2.455759e+001
7.732225e+002,2.585312e+001
7.741868e+002,2.852148e+001
7.751510e+002,3.088095e+001
7.761152e+002,3.276898e+001
7.770795e+002,3.434250e+001
7.780437e+002,3.571231e+001
7.790079e+002,3.678152e+001
7.799722e+002,3.711365e+001
7.809364e+002,3.675998e+001
7.819006e+002,3.604483e+001
7.828649e+002,3.452917e+001
7.838291e+002,3.290805e+001
7.847933e+002,3.345676e+001
7.857576e+002,3.824612e+001
7.867218e+002,4.112900e+001
7.876860e+002,3.989417e+001
7.886503e+002,3.781094e+001
7.896145e+002,3.776236e+001
7.905787e+002,4.042130e+001
7.915430e+002,4.359573e+001
7.925072e+002,4.520093e+001
7.934714e+002,4.540637e+001
7.944357e+002,4.414368e+001
7.953999e+002,4.183514e+001
7.963641e+002,3.950034e+001
7.973284e+002,3.818576e+001
7.982926e+002,3.794821e+001
7.992568e+002,3.804187e+001
8.002211e+002,3.830002e+001
8.011853e+002,3.818433e+001
8.021495e+002,3.720688e+001
8.031138e+002,3.617636e+001
8.040780e+002,3.735379e+001
8.050422e+002,4.295688e+001
8.060065e+002,4.713824e+001
8.069707e+002,4.685278e+001
8.079349e+002,4.490945e+001
8.088992e+002,4.431903e+001
8.098634e+002,4.614252e+001
8.108276e+002,4.854095e+001
8.117919e+002,4.854404e+001
8.127561e+002,4.676300e+001
8.137203e+002,4.490100e+001
8.146846e+002,4.340451e+001
8.156488e+002,4.269571e+001
8.166130e+002,4.330054e+001
8.175773e+002,4.558603e+001
8.185415e+002,4.657697e+001
8.195057e+002,4.472891e+001
8.204700e+002,4.334402e+001
8.214342e+002,4.404800e+001
8.223984e+002,4.606512e+001
8.233627e+002,4.712027e+001
8.243269e+002,4.586273e+001
8.252911e+002,4.492929e+001
8.262554e+002,4.660840e+001
8.272196e+002,4.885425e+001
8.281838e+002,4.910785e+001
8.291481e+002,4.670963e+001
8.301123e+002,4.366425e+001
8.310765e+002,4.376837e+001
8.320408e+002,4.664609e+001
8.330050e+002,4.762631e+001
8.339692e+002,4.614462e+001
8.349335e+002,4.395242e+001
8.358977e+002,4.263132e+001
8.368619e+002,4.225027e+001
8.378262e+002,4.312701e+001
8.387904e+002,4.673627e+001
8.397546e+002,4.955670e+001
8.407189e+002,5.027853e+001
8.416831e+002,4.977243e+001
8.426473e+002,4.971112e+001
8.436116e+002,5.096170e+001
8.445758e+002,5.239551e+001
8.455400e+002,5.258771e+001
8.465043e+002,5.195468e+001
8.474685e+002,5.089185e+001
8.484327e+002,4.983072e+001
8.493970e+002,4.942358e+001
8.503612e+002,5.056192e+001
8.513254e+002,5.351337e+001
8.522897e+002,5.548117e+001
8.532539e+002,5.628223e+001
8.542181e+002,5.624710e+001
8.551824e+002,5.527618e+001
8.561466e+002,5.377676e+001
8.571108e+002,5.345474e+001
8.580751e+002,5.440753e+001
8.590393e+002,5.605383e+001
8.600035e+002,5.974133e+001
8.609678e+002,6.356210e+001
8.619320e+002,6.480099e+001
8.628962e+002,6.255737e+001
8.638605e+002,5.969208e+001
8.648247e+002,6.121106e+001
8.657889e+002,6.513986e+001
8.667532e+002,6.731232e+001
8.677174e+002,6.718399e+001
8.686816e+002,6.613580e+001
8.696459e+002,6.575906e+001
8.706101e+002,6.627847e+001
8.715743e+002,6.666489e+001
8.725386e+002,6.685300e+001
8.735028e+002,6.705392e+001
8.744670e+002,6.703177e+001
8.754313e+002,6.682120e+001
8.763955e+002,6.647589e+001
8.773597e+002,6.582153e+001
8.783240e+002,6.619681e+001
8.792882e+002,6.975339e+001
8.802524e+002,7.370102e+001
8.812167e+002,7.531799e+001
8.821809e+002,7.432919e+001
8.831451e+002,7.258405e+001
8.841094e+002,7.252643e+001
8.850736e+002,7.424075e+001
8.860378e+002,7.533203e+001
8.870021e+002,7.555081e+001
8.879663e+002,7.567953e+001
8.889305e+002,7.607114e+001
8.898948e+002,7.660309e+001
8.908590e+002,7.690372e+001
8.918232e+002,7.645630e+001
8.927875e+002,7.707617e+001
8.937517e+002,8.054160e+001
8.947159e+002,8.410757e+001
8.956802e+002,8.491766e+001
8.966444e+002,8.255701e+001
8.976086e+002,7.959692e+001
8.985729e+002,7.866815e+001
8.995371e+002,7.925671e+001
9.005013e+002,8.016348e+001
9.014656e+002,8.139987e+001
9.024298e+002,8.288815e+001
9.033940e+002,8.446097e+001
9.043583e+002,8.593143e+001
9.053225e+002,8.715845e+001
9.062867e+002,8.808572e+001
9.072510e+002,8.845026e+001
9.082152e+002,8.831018e+001
9.091794e+002,8.802951e+001
9.101437e+002,8.802386e+001
9.111079e+002,8.834409e+001
9.120721e+002,8.815448e+001
9.130364e+002,8.538278e+001
9.140006e+002,8.298618e+001
9.149648e+002,8.322348e+001
9.159291e+002,8.550510e+001
9.168933e+002,8.806882e+001
9.178575e+002,8.958401e+001
9.188218e+002,9.049789e+001
9.197860e+002,9.298880e+001
9.207502e+002,9.707187e+001
9.217145e+002,9.936362e+001
9.226787e+002,9.894958e+001
9.236429e+002,9.725662e+001
9.246072e+002,9.587540e+001
9.255714e+002,9.469644e+001
9.265356e+002,9.349835e+001
9.274999e+002,9.143250e+001
9.284641e+002,9.003607e+001
9.294283e+002,9.046744e+001
9.303926e+002,9.198651e+001
9.313568e+002,9.343237e+001
9.323210e+002,9.425586e+001
9.332853e+002,9.408624e+001
9.342495e+002,9.096048e+001
9.352137e+002,8.666745e+001
9.361780e+002,8.441144e+001
9.371422e+002,8.501740e+001
9.381064e+002,8.698441e+001
9.390707e+002,8.809464e+001
9.400349e+002,8.791226e+001
9.409991e+002,8.832718e+001
9.419634e+002,8.987540e+001
9.429276e+002,9.113858e+001
9.438918e+002,9.206747e+001
9.448561e+002,9.246622e+001
9.458203e+002,9.160413e+001
9.467845e+002,8.889081e+001
9.477488e+002,8.724661e+001
9.487130e+002,9.086127e+001
9.496772e+002,9.494110e+001
9.506415e+002,9.511475e+001
9.516057e+002,9.163684e+001
9.525699e+002,8.783405e+001
9.535342e+002,8.694077e+001
9.544984e+002,8.844794e+001
9.554626e+002,8.866882e+001
9.564269e+002,8.775232e+001
9.573911e+002,8.685727e+001
9.583553e+002,8.601218e+001
9.593196e+002,8.534335e+001
9.602838e+002,8.518289e+001
9.612480e+002,8.562787e+001
9.622123e+002,8.589758e+001
9.631765e+002,8.521399e+001
9.641407e+002,8.500220e+001
9.651050e+002,8.636325e+001
9.660692e+002,8.854651e+001
9.670334e+002,8.991321e+001
9.679977e+002,8.952972e+001
9.689619e+002,8.879410e+001
9.699261e+002,9.098044e+001
9.708904e+002,9.482440e+001
9.718546e+002,9.680261e+001
9.728188e+002,9.566086e+001
9.737831e+002,9.410141e+001
9.747473e+002,9.671442e+001
9.757115e+002,1.052016e+002
9.766758e+002,1.088701e+002
9.776400e+002,1.034813e+002
9.786042e+002,9.878848e+001
9.795685e+002,9.718320e+001
9.805327e+002,9.722070e+001
9.814969e+002,9.693631e+001
9.824612e+002,9.582361e+001
9.834254e+002,9.478659e+001
9.843896e+002,9.483719e+001
9.853539e+002,9.495996e+001
9.863181e+002,9.409720e+001
9.872823e+002,9.212299e+001
9.882466e+002,8.931100e+001
9.892108e+002,8.602652e+001
9.901750e+002,8.288928e+001
9.911393e+002,8.246686e+001
9.921035e+002,8.606314e+001
9.930677e+002,8.925339e+001
9.940320e+002,9.326724e+001
9.949962e+002,9.619772e+001
9.959604e+002,9.528354e+001
9.969247e+002,9.064560e+001
9.978889e+002,8.736890e+001
9.988531e+002,8.831943e+001
9.998174e+002,9.009854e+001
1.000782e+003,9.100537e+001
1.001746e+003,9.150421e+001
1.002710e+003,9.241376e+001
1.003674e+003,9.399759e+001
1.004639e+003,9.567496e+001
1.005603e+003,9.645731e+001
1.006567e+003,9.615479e+001
1.007531e+003,9.524539e+001
1.008495e+003,9.336194e+001
1.009460e+003,9.169455e+001
1.010424e+003,9.104739e+001
1.011388e+003,9.129175e+001
1.012352e+003,9.181506e+001
1.013317e+003,9.283591e+001
1.014281e+003,9.323383e+001
1.015245e+003,9.211520e+001
1.016209e+003,9.066776e+001
1.017174e+003,8.994855e+001
1.018138e+003,8.991782e+001
1.019102e+003,8.966815e+001
1.020066e+003,8.844437e+001
1.021031e+003,8.687616e+001
1.021995e+003,8.630276e+001
1.022959e+003,8.637558e+001
1.023923e+003,8.693494e+001
1.024887e+003,8.808502e+001
1.025852e+003,8.932947e+001
1.026816e+003,9.021466e+001
1.027780e+003,9.116345e+001
1.028744e+003,9.052719e+001
1.029709e+003,8.600339e+001
1.030673e+003,8.234518e+001
1.031637e+003,8.101178e+001
1.032601e+003,8.124042e+001
1.033566e+003,8.202170e+001
1.034530e+003,8.304303e+001
1.035494e+003,8.452313e+001
1.036458e+003,8.738889e+001
1.037422e+003,9.020273e+001
1.038387e+003,8.998035e+001
1.039351e+003,8.699359e+001
1.040315e+003,8.470749e+001
1.041279e+003,8.598615e+001
1.042244e+003,8.993655e+001
1.043208e+003,9.159448e+001
1.044172e+003,8.851947e+001
1.045136e+003,8.682281e+001
1.046101e+003,8.771512e+001
1.047065e+003,8.906348e+001
1.048029e+003,8.959778e+001
1.048993e+003,8.927167e+001
1.049958e+003,8.839972e+001
1.050922e+003,8.670691e+001
1.051886e+003,8.602563e+001
1.052850e+003,8.934534e+001
1.053814e+003,9.406516e+001
1.054779e+003,9.682153e+001
1.055743e+003,9.687509e+001
1.056707e+003,9.560620e+001
1.057671e+003,9.468069e+001
1.058636e+003,9.405557e+001
1.059600e+003,9.267502e+001
1.060564e+003,8.846252e+001
1.061528e+003,8.705841e+001
1.062493e+003,9.108469e+001
1.063457e+003,9.664545e+001
1.064421e+003,9.977005e+001
1.065385e+003,1.000871e+002
1.066349e+003,9.932806e+001
1.067314e+003,9.744717e+001
1.068278e+003,9.584637e+001
1.069242e+003,9.586234e+001
1.070206e+003,9.679099e+001
1.071171e+003,9.743839e+001
1.072135e+003,9.719159e+001
1.073099e+003,9.623120e+001
1.074063e+003,9.497702e+001
1.075028e+003,9.343042e+001
1.075992e+003,9.303140e+001
1.076956e+003,9.451355e+001
1.077920e+003,9.535806e+001
1.078885e+003,9.397482e+001
1.079849e+003,9.189001e+001
1.080813e+003,9.219235e+001
1.081777e+003,9.587674e+001
1.082741e+003,9.886920e+001
1.083706e+003,9.763110e+001
1.084670e+003,9.594000e+001
1.085634e+003,9.602750e+001
1.086598e+003,9.726752e+001
1.087563e+003,9.815732e+001
1.088527e+003,9.795410e+001
1.089491e+003,9.723288e+001
1.090455e+003,9.672952e+001
1.091420e+003,9.629132e+001
1.092384e+003,9.644287e+001
1.093348e+003,9.763361e+001
1.094312e+003,9.827026e+001
1.095276e+003,9.728204e+001
1.096241e+003,9.530338e+001
1.097205e+003,9.374457e+001
1.098169e+003,9.237851e+001
1.099133e+003,9.207013e+001
1.100098e+003,9.391171e+001
1.101062e+003,9.628915e+001
1.102026e+003,9.901773e+001
1.102990e+003,1.013723e+002
1.103955e+003,1.018546e+002
1.104919e+003,9.956152e+001
1.105883e+003,9.594604e+001
1.106847e+003,9.417166e+001
1.107812e+003,9.430792e+001
1.108776e+003,9.491898e+001
1.109740e+003,9.624670e+001
1.110704e+003,9.743420e+001
1.111668e+003,9.789005e+001
1.112633e+003,9.793829e+001
1.113597e+003,9.850702e+001
1.114561e+003,1.000681e+002
1.115525e+003,1.007444e+002
1.116490e+003,9.845145e+001
1.117454e+003,9.654794e+001
1.118418e+003,9.830408e+001
1.119382e+003,1.025426e+002
1.120347e+003,1.055529e+002
1.121311e+003,1.048889e+002
1.122275e+003,1.018525e+002
1.123239e+003,9.922360e+001
1.124203e+003,9.741376e+001
1.125168e+003,9.738470e+001
1.126132e+003,9.988672e+001
1.127096e+003,1.026153e+002
1.128060e+003,1.033854e+002
1.129025e+003,1.026636e+002
1.129989e+003,1.032143e+002
1.130953e+003,1.060343e+002
1.131917e+003,1.079986e+002
1.132882e+003,1.077949e+002
1.133846e+003,1.072768e+002
1.134810e+003,1.077949e+002
1.135774e+003,1.089615e+002
1.136739e+003,1.094008e+002
1.137703e+003,1.083408e+002
1.138667e+003,1.068001e+002
1.139631e+003,1.065893e+002
1.140595e+003,1.076255e+002
1.141560e+003,1.089014e+002
1.142524e+003,1.104861e+002
1.143488e+003,1.125656e+002
1.144452e+003,1.154155e+002
1.145417e+003,1.187779e+002
1.146381e+003,1.218266e+002
1.147345e+003,1.245048e+002
1.148309e+003,1.266053e+002
1.149274e+003,1.266775e+002
1.150238e+003,1.278130e+002
1.151202e+003,1.328143e+002
1.152166e+003,1.399513e+002
1.153130e+003,1.457698e+002
1.154095e+003,1.485246e+002
1.155059e+003,1.495424e+002
1.156023e+003,1.512671e+002
1.156987e+003,1.533252e+002
1.157952e+003,1.523078e+002
1.158916e+003,1.480990e+002
1.159880e+003,1.436111e+002
1.160844e+003,1.395785e+002
1.161809e+003,1.359006e+002
1.162773e+003,1.331923e+002
1.163737e+003,1.319212e+002
1.164701e+003,1.296699e+002
1.165666e+003,1.243346e+002
1.166630e+003,1.197143e+002
1.167594e+003,1.173655e+002
1.168558e+003,1.164934e+002
1.169522e+003,1.160933e+002
1.170487e+003,1.157538e+002
1.171451e+003,1.155589e+002
1.172415e+003,1.156056e+002
1.173379e+003,1.157299e+002
1.174344e+003,1.152785e+002
1.175308e+003,1.142578e+002
1.176272e+003,1.136877e+002
1.177236e+003,1.141930e+002
1.178201e+003,1.152188e+002
1.179165e+003,1.161073e+002
1.180129e+003,1.167212e+002
1.181093e+003,1.164695e+002
1.182057e+003,1.145690e+002
1.183022e+003,1.129980e+002
1.183986e+003,1.129973e+002
1.184950e+003,1.133143e+002
1.185914e+003,1.125177e+002
1.186879e+003,1.107638e+002
1.187843e+003,1.094670e+002
1.188807e+003,1.097235e+002
1.189771e+003,1.109923e+002
1.190736e+003,1.120676e+002
1.191700e+003,1.129763e+002
1.192664e+003,1.129432e+002
1.193628e+003,1.117194e+002
1.194593e+003,1.100457e+002
1.195557e+003,1.079274e+002
1.196521e+003,1.056795e+002
1.197485e+003,1.046896e+002
1.198449e+003,1.055860e+002
1.199414e+003,1.065350e+002
1.200378e+003,1.059376e+002
1.201342e+003,1.058329e+002
1.202306e+003,1.085114e+002
1.203271e+003,1.124338e+002
1.204235e+003,1.141609e+002
1.205199e+003,1.122051e+002
1.206163e+003,1.087862e+002
1.207128e+003,1.075616e+002
1.208092e+003,1.086927e+002
1.209056e+003,1.094501e+002
1.210020e+003,1.100311e+002
1.210984e+003,1.099924e+002
1.211949e+003,1.086443e+002
1.212913e+003,1.068652e+002
1.213877e+003,1.060661e+002
1.214841e+003,1.063552e+002
1.215806e+003,1.061499e+002
1.216770e+003,1.046301e+002
1.217734e+003,1.026610e+002
1.218698e+003,1.002961e+002
1.219663e+003,9.804535e+001
1.220627e+003,9.657739e+001
1.221591e+003,9.600735e+001
1.222555e+003,9.618842e+001
1.223520e+003,9.707755e+001
1.224484e+003,9.835873e+001
1.225448e+003,9.807062e+001
1.226412e+003,9.470148e+001
1.227376e+003,9.310681e+001
1.228341e+003,9.390082e+001
1.229305e+003,9.554437e+001
1.230269e+003,9.812415e+001
1.231233e+003,1.006844e+002
1.232198e+003,1.010915e+002
1.233162e+003,9.876151e+001
1.234126e+003,9.685999e+001
1.235090e+003,9.803235e+001
1.236055e+003,1.001064e+002
1.237019e+003,1.009807e+002
1.237983e+003,1.007295e+002
1.238947e+003,9.968179e+001
1.239911e+003,9.810413e+001
1.240876e+003,9.695093e+001
1.241840e+003,9.782819e+001
1.242804e+003,1.009868e+002
1.243768e+003,1.018279e+002
1.244733e+003,9.707956e+001
1.245697e+003,9.436053e+001
1.246661e+003,9.505603e+001
1.247625e+003,9.681689e+001
1.248590e+003,9.847650e+001
1.249554e+003,9.985300e+001
1.250518e+003,1.008896e+002
1.251482e+003,1.014669e+002
1.252447e+003,1.013553e+002
1.253411e+003,1.000277e+002
1.254375e+003,9.824771e+001
1.255339e+003,9.721542e+001
1.256303e+003,9.711642e+001
1.257268e+003,9.845660e+001
1.258232e+003,1.020349e+002
1.259196e+003,1.060181e+002
1.260160e+003,1.064305e+002
1.261125e+003,1.025446e+002
1.262089e+003,1.008186e+002
1.263053e+003,1.040101e+002
1.264017e+003,1.064162e+002
1.264982e+003,1.062464e+002
1.265946e+003,1.051992e+002
1.266910e+003,1.049867e+002
1.267874e+003,1.056010e+002
1.268839e+003,1.057241e+002
1.269803e+003,1.044760e+002
1.270767e+003,1.029420e+002
1.271731e+003,1.034577e+002
1.272695e+003,1.060460e+002
1.273660e+003,1.077449e+002
1.274624e+003,1.081338e+002
1.275588e+003,1.076646e+002
1.276552e+003,1.064799e+002
1.277517e+003,1.049885e+002
1.278481e+003,1.034643e+002
1.279445e+003,1.017764e+002
1.280409e+003,1.011779e+002
1.281374e+003,1.029899e+002
1.282338e+003,1.048443e+002
1.283302e+003,1.058323e+002
1.284266e+003,1.059498e+002
1.285230e+003,1.046392e+002
1.286195e+003,1.023197e+002
1.287159e+003,1.008364e+002
1.288123e+003,1.018080e+002
1.289087e+003,1.041522e+002
1.290052e+003,1.040511e+002
1.291016e+003,1.000805e+002
1.291980e+003,9.827032e+001
1.292944e+003,1.001295e+002
1.293909e+003,1.016213e+002
1.294873e+003,1.009811e+002
1.295837e+003,9.953186e+001
1.296801e+003,9.909717e+001
1.297766e+003,9.987915e+001
1.298730e+003,1.006358e+002
1.299694e+003,1.004219e+002
1.300658e+003,1.001970e+002
1.301622e+003,1.018220e+002
1.302587e+003,1.040361e+002
1.303551e+003,1.042864e+002
1.304515e+003,1.024031e+002
1.305479e+003,1.010352e+002
1.306444e+003,1.024913e+002
1.307408e+003,1.054711e+002
1.308372e+003,1.054963e+002
1.309336e+003,1.009055e+002
1.310301e+003,9.846771e+001
1.311265e+003,1.009376e+002
1.312229e+003,1.027812e+002
1.313193e+003,1.011895e+002
1.314157e+003,9.890070e+001
1.315122e+003,9.937686e+001
1.316086e+003,1.024168e+002
1.317050e+003,1.047773e+002
1.318014e+003,1.043777e+002
1.318979e+003,1.027247e+002
1.319943e+003,1.022820e+002
1.320907e+003,1.030388e+002
1.321871e+003,1.038618e+002
1.322836e+003,1.045337e+002
1.323800e+003,1.049211e+002
1.324764e+003,1.048334e+002
1.325728e+003,1.045597e+002
1.326693e+003,1.047206e+002
1.327657e+003,1.052412e+002
1.328621e+003,1.046178e+002
1.329585e+003,1.017992e+002
1.330549e+003,1.000703e+002
1.331514e+003,1.011569e+002
1.332478e+003,1.030430e+002
1.333442e+003,1.043149e+002
1.334406e+003,1.047711e+002
1.335371e+003,1.045541e+002
1.336335e+003,1.037616e+002
1.337299e+003,1.024622e+002
1.338263e+003,1.005671e+002
1.339228e+003,9.777582e+001
1.340192e+003,9.736813e+001
1.341156e+003,1.018598e+002
1.342120e+003,1.048516e+002
1.343084e+003,1.041330e+002
1.344049e+003,1.024053e+002
1.345013e+003,1.022143e+002
1.345977e+003,1.032349e+002
1.346941e+003,1.033376e+002
1.347906e+003,1.016636e+002
1.348870e+003,1.001800e+002
1.349834e+003,1.009646e+002
1.350798e+003,1.027681e+002
1.351763e+003,1.034563e+002
1.352727e+003,1.031689e+002
1.353691e+003,1.023747e+002
1.354655e+003,1.010687e+002
1.355620e+003,1.000135e+002
1.356584e+003,1.001177e+002
1.357548e+003,1.013817e+002
1.358512e+003,1.034090e+002
1.359476e+003,1.065900e+002
1.360441e+003,1.087623e+002
1.361405e+003,1.091449e+002
1.362369e+003,1.089024e+002
1.363333e+003,1.080490e+002
1.364298e+003,1.072053e+002
1.365262e+003,1.075192e+002
1.366226e+003,1.089255e+002
1.367190e+003,1.096672e+002
1.368155e+003,1.081376e+002
1.369119e+003,1.053315e+002
1.370083e+003,1.045280e+002
1.371047e+003,1.066221e+002
1.372011e+003,1.073522e+002
1.372976e+003,1.053516e+002
1.373940e+003,1.034162e+002
1.374904e+003,1.028464e+002
1.375868e+003,1.028984e+002
1.376833e+003,1.025531e+002
1.377797e+003,1.017169e+002
1.378761e+003,1.007959e+002
1.379725e+003,9.981720e+001
1.380690e+003,9.946771e+001
1.381654e+003,1.015722e+002
1.382618e+003,1.042774e+002
1.383582e+003,1.047484e+002
1.384547e+003,1.030513e+002
1.385511e+003,1.008414e+002
1.386475e+003,9.855783e+001
1.387439e+003,9.715161e+001
1.388403e+003,9.873428e+001
1.389368e+003,1.032708e+002
1.390332e+003,1.063994e+002
1.391296e+003,1.083139e+002
1.392260e+003,1.083540e+002
1.393225e+003,1.045325e+002
1.394189e+003,1.009049e+002
1.395153e+003,9.998544e+001
1.396117e+003,1.007189e+002
1.397082e+003,1.011685e+002
1.398046e+003,1.009077e+002
1.399010e+003,1.011405e+002
1.399974e+003,1.028868e+002
1.400938e+003,1.052336e+002
1.401903e+003,1.059195e+002
1.402867e+003,1.050404e+002
1.403831e+003,1.043601e+002
1.404795e+003,1.023771e+002
1.405760e+003,1.020438e+002
1.406724e+003,1.061261e+002
1.407688e+003,1.104900e+002
1.408652e+003,1.100327e+002
1.409617e+003,1.054645e+002
1.410581e+003,1.017022e+002
1.411545e+003,1.006879e+002
1.412509e+003,1.008007e+002
1.413474e+003,1.007246e+002
1.414438e+003,1.003350e+002
1.415402e+003,9.970203e+001
1.416366e+003,9.908167e+001
1.417330e+003,9.890918e+001
1.418295e+003,9.933286e+001
1.419259e+003,1.003549e+002
1.420223e+003,1.024523e+002
1.421187e+003,1.051078e+002
1.422152e+003,1.055243e+002
1.423116e+003,1.029245e+002
1.424080e+003,1.012493e+002
1.425044e+003,1.020061e+002
1.426009e+003,1.030439e+002
1.426973e+003,1.039812e+002
1.427937e+003,1.043979e+002
1.428901e+003,1.037568e+002
1.429865e+003,1.022731e+002
1.430830e+003,1.004613e+002
1.431794e+003,9.861200e+001
1.432758e+003,9.746097e+001
1.433722e+003,9.893121e+001
1.434687e+003,1.037048e+002
1.435651e+003,1.061549e+002
1.436615e+003,1.026565e+002
1.437579e+003,1.008929e+002
1.438544e+003,1.034527e+002
1.439508e+003,1.061490e+002
1.440472e+003,1.057955e+002
1.441436e+003,1.039131e+002
1.442401e+003,1.040116e+002
1.443365e+003,1.066090e+002
1.444329e+003,1.081316e+002
1.445293e+003,1.057071e+002
1.446257e+003,1.016377e+002
1.447222e+003,1.001551e+002
1.448186e+003,1.008054e+002
1.449150e+003,1.016127e+002
1.450114e+003,1.025869e+002
1.451079e+003,1.027467e+002
1.452043e+003,1.007485e+002
1.453007e+003,9.851425e+001
1.453971e+003,9.917267e+001
1.454936e+003,1.021453e+002
1.455900e+003,1.032661e+002
1.456864e+003,1.012490e+002
1.457828e+003,9.920322e+001
1.458792e+003,9.846530e+001
1.459757e+003,9.861377e+001
1.460721e+003,1.000797e+002
1.461685e+003,1.019696e+002
1.462649e+003,1.025459e+002
1.463614e+003,1.014922e+002
1.464578e+003,9.993137e+001
1.465542e+003,9.870456e+001
1.466506e+003,9.770502e+001
1.467471e+003,9.676468e+001
1.468435e+003,9.593723e+001
1.469399e+003,9.606616e+001
1.470363e+003,9.761877e+001
1.471328e+003,9.907379e+001
1.472292e+003,1.001144e+002
1.473256e+003,1.005408e+002
1.474220e+003,1.004501e+002
1.475184e+003,1.000348e+002
1.476149e+003,9.918637e+001
1.477113e+003,9.789313e+001
1.478077e+003,9.670905e+001
1.479041e+003,9.634924e+001
1.480006e+003,9.668369e+001
1.480970e+003,9.686966e+001
1.481934e+003,9.657645e+001
1.482898e+003,9.666040e+001
1.483863e+003,9.795819e+001
1.484827e+003,9.833127e+001
1.485791e+003,9.624442e+001
1.486755e+003,9.417380e+001
1.487719e+003,9.464886e+001
1.488684e+003,9.683633e+001
1.489648e+003,9.823795e+001
1.490612e+003,9.815485e+001
1.491576e+003,9.787827e+001
1.492541e+003,9.834436e+001
1.493505e+003,9.923074e+001
1.494469e+003,9.994778e+001
1.495433e+003,1.003138e+002
1.496398e+003,1.003982e+002
1.497362e+003,1.003120e+002
1.498326e+003,1.006866e+002
1.499290e+003,1.023660e+002
1.500255e+003,1.042544e+002
1.501219e+003,1.042622e+002
1.502183e+003,1.028340e+002
1.503147e+003,1.032787e+002
1.504111e+003,1.067007e+002
1.505076e+003,1.100252e+002
1.506040e+003,1.111857e+002
1.507004e+003,1.118167e+002
1.507968e+003,1.134482e+002
1.508933e+003,1.158328e+002
1.509897e+003,1.185000e+002
1.510861e+003,1.215750e+002
1.511825e+003,1.254800e+002
1.512790e+003,1.304023e+002
1.513754e+003,1.358224e+002
1.514718e+003,1.414420e+002
1.515682e+003,1.471255e+002
1.516646e+003,1.504695e+002
1.517611e+003,1.503405e+002
1.518575e+003,1.507747e+002
1.519539e+003,1.538741e+002
1.520503e+003,1.572800e+002
1.521468e+003,1.605403e+002
1.522432e+003,1.627266e+002
1.523396e+003,1.620590e+002
1.524360e+003,1.589542e+002
1.525325e+003,1.564495e+002
1.526289e+003,1.566106e+002
1.527253e+003,1.572934e+002
1.528217e+003,1.543533e+002
1.529182e+003,1.478445e+002
1.530146e+003,1.430399e+002
1.531110e+003,1.410988e+002
1.532074e+003,1.385012e+002
1.533039e+003,1.348501e+002
1.534003e+003,1.299276e+002
1.534967e+003,1.229282e+002
1.535931e+003,1.157527e+002
1.536896e+003,1.103438e+002
1.537860e+003,1.067969e+002
1.538824e+003,1.041481e+002
1.539788e+003,1.017708e+002
1.540752e+003,9.957175e+001
1.541717e+003,9.756738e+001
1.542681e+003,9.589478e+001
1.543645e+003,9.487741e+001
1.544609e+003,9.508432e+001
1.545573e+003,9.503262e+001
1.546538e+003,9.354532e+001
1.547502e+003,9.278448e+001
1.548466e+003,9.477249e+001
1.549430e+003,9.735605e+001
1.550395e+003,9.796924e+001
1.551359e+003,9.694839e+001
1.552323e+003,9.633453e+001
1.553287e+003,9.682526e+001
1.554252e+003,9.703479e+001
1.555216e+003,9.565643e+001
1.556180e+003,9.333862e+001
1.557144e+003,9.155453e+001
1.558109e+003,9.041141e+001
1.559073e+003,8.943823e+001
1.560037e+003,8.817163e+001
1.561001e+003,8.740088e+001
1.561966e+003,8.837244e+001
1.562930e+003,8.956323e+001
1.563894e+003,8.892078e+001
1.564858e+003,8.727548e+001
1.565823e+003,8.705804e+001
1.566787e+003,8.864676e+001
1.567751e+003,9.032440e+001
1.568715e+003,9.125003e+001
1.569679e+003,9.178683e+001
1.570644e+003,9.237540e+001
1.571608e+003,9.268143e+001
1.572572e+003,9.197330e+001
1.573536e+003,9.032797e+001
1.574500e+003,8.927176e+001
1.575465e+003,8.972574e+001
1.576429e+003,9.008514e+001
1.577393e+003,8.855786e+001
1.578357e+003,8.612802e+001
1.579322e+003,8.473306e+001
1.580286e+003,8.457776e+001
1.581250e+003,8.553305e+001
1.582214e+003,8.792532e+001
1.583179e+003,9.003912e+001
1.584143e+003,9.060056e+001
1.585107e+003,8.996237e+001
1.586071e+003,8.815048e+001
1.587036e+003,8.607117e+001
1.588000e+003,8.638620e+001
1.588964e+003,8.971323e+001
1.589928e+003,9.226706e+001
1.590893e+003,9.086591e+001
1.591857e+003,8.802231e+001
1.592821e+003,8.757651e+001
1.593785e+003,8.918506e+001
1.594750e+003,9.081140e+001
1.595714e+003,9.226855e+001
1.596678e+003,9.268268e+001
1.597642e+003,9.091013e+001
1.598606e+003,8.921445e+001
1.599571e+003,8.985443e+001
1.600535e+003,9.148099e+001
1.601499e+003,9.260617e+001
1.602463e+003,9.293860e+001
1.603427e+003,9.200726e+001
1.604392e+003,8.943420e+001
1.605356e+003,8.716470e+001
1.606320e+003,8.748871e+001
1.607284e+003,8.954407e+001
1.608249e+003,9.095416e+001
1.609213e+003,9.170618e+001
1.610177e+003,9.190469e+001
1.611141e+003,9.117264e+001
1.612106e+003,9.089209e+001
1.613070e+003,9.270261e+001
1.614034e+003,9.425797e+001
1.614998e+003,9.357806e+001
1.615963e+003,9.158984e+001
1.616927e+003,8.956735e+001
1.617891e+003,8.787448e+001
1.618855e+003,8.708499e+001
1.619820e+003,8.759644e+001
1.620784e+003,8.830405e+001
1.621748e+003,8.766312e+001
1.622712e+003,8.627206e+001
1.623677e+003,8.648050e+001
1.624641e+003,8.866379e+001
1.625605e+003,9.046399e+001
1.626569e+003,9.085364e+001
1.627533e+003,9.070099e+001
1.628498e+003,9.050922e+001
1.629462e+003,9.035703e+001
1.630426e+003,9.063986e+001
1.631390e+003,9.082758e+001
1.632354e+003,8.928473e+001
1.633319e+003,8.593192e+001
1.634283e+003,8.380957e+001
1.635247e+003,8.539932e+001
1.636211e+003,8.864340e+001
1.637176e+003,9.001010e+001
1.638140e+003,8.968417e+001
1.639104e+003,8.925479e+001
1.640068e+003,8.867545e+001
1.641033e+003,8.797797e+001
1.641997e+003,8.725372e+001
1.642961e+003,8.648212e+001
1.643925e+003,8.527661e+001
1.644890e+003,8.427454e+001
1.645854e+003,8.438290e+001
1.646818e+003,8.513318e+001
1.647782e+003,8.509097e+001
1.648747e+003,8.388712e+001
1.649711e+003,8.314520e+001
1.650675e+003,8.463382e+001
1.651639e+003,8.685825e+001
1.652604e+003,8.613303e+001
1.653568e+003,8.249387e+001
1.654532e+003,7.973361e+001
1.655496e+003,7.805136e+001
1.656460e+003,7.728470e+001
1.657425e+003,7.820236e+001
1.658389e+003,7.910663e+001
1.659353e+003,7.852121e+001
1.660317e+003,7.783698e+001
1.661281e+003,7.905954e+001
1.662246e+003,8.142892e+001
1.663210e+003,8.242566e+001
1.664174e+003,8.132245e+001
1.665138e+003,7.982861e+001
1.666103e+003,7.949979e+001
1.667067e+003,7.928732e+001
1.668031e+003,7.653647e+001
1.668995e+003,7.160504e+001
1.669960e+003,6.915646e+001
1.670924e+003,7.004593e+001
1.671888e+003,7.144742e+001
1.672852e+003,7.255203e+001
1.673817e+003,7.371646e+001
1.674781e+003,7.540167e+001
1.675745e+003,7.705457e+001
1.676709e+003,7.844461e+001
1.677674e+003,7.921960e+001
1.678638e+003,7.816901e+001
1.679602e+003,7.495432e+001
1.680566e+003,7.197021e+001
1.681531e+003,7.127115e+001
1.682495e+003,7.185562e+001
1.683459e+003,7.197318e+001
1.684423e+003,7.157425e+001
1.685387e+003,7.094955e+001
1.686352e+003,7.015308e+001
1.687316e+003,6.941974e+001
1.688280e+003,6.896219e+001
1.689244e+003,6.829965e+001
1.690208e+003,6.649692e+001
1.691173e+003,6.461230e+001
1.692137e+003,6.403922e+001
1.693101e+003,6.459561e+001
1.694065e+003,6.513177e+001
1.695030e+003,6.521545e+001
1.695994e+003,6.537686e+001
1.696958e+003,6.646326e+001
1.697922e+003,6.734094e+001
1.698887e+003,6.642059e+001
1.699851e+003,6.420663e+001
1.700815e+003,6.183804e+001
1.701779e+003,5.937415e+001
1.702744e+003,5.750238e+001
1.703708e+003,5.651895e+001
1.704672e+003,5.672501e+001
1.705636e+003,5.909720e+001
1.706601e+003,6.152911e+001
1.707565e+003,6.078964e+001
1.708529e+003,5.789545e+001
1.709493e+003,5.538480e+001
1.710458e+003,5.343680e+001
1.711422e+003,5.264694e+001
1.712386e+003,5.439133e+001
1.713350e+003,5.628366e+001
1.714314e+003,5.587204e+001
1.715279e+003,5.437207e+001
1.716243e+003,5.414679e+001
1.717207e+003,5.505069e+001
1.718171e+003,5.529562e+001
1.719135e+003,5.442526e+001
1.720100e+003,5.342957e+001
1.721064e+003,5.285788e+001
1.722028e+003,5.254129e+001
1.722992e+003,5.246039e+001
1.723957e+003,5.271536e+001
1.724921e+003,5.293683e+001
1.725885e+003,5.291321e+001
1.726849e+003,5.241965e+001
1.727814e+003,5.124478e+001
1.728778e+003,5.044730e+001
1.729742e+003,5.097766e+001
1.730706e+003,5.151859e+001
1.731671e+003,5.014978e+001
1.732635e+003,4.769547e+001
1.733599e+003,4.625397e+001
1.734563e+003,4.639011e+001
1.735528e+003,4.792197e+001
1.736492e+003,5.066245e+001
1.737456e+003,5.261053e+001
1.738420e+003,5.122400e+001
1.739385e+003,4.742346e+001
1.740349e+003,4.505844e+001
1.741313e+003,4.442581e+001
1.742277e+003,4.438339e+001
1.743241e+003,4.579810e+001
1.744206e+003,4.667624e+001
1.745170e+003,4.621323e+001
1.746134e+003,4.562402e+001
1.747098e+003,4.541415e+001
1.748063e+003,4.553409e+001
1.749027e+003,4.615536e+001
1.749991e+003,4.699078e+001
1.750955e+003,4.733960e+001
1.751919e+003,4.696521e+001
1.752884e+003,4.634680e+001
1.753848e+003,4.589441e+001
1.754812e+003,4.506500e+001
1.755776e+003,4.252579e+001
1.756741e+003,3.855969e+001
1.757705e+003,3.837433e+001
1.758669e+003,4.375821e+001
1.759633e+003,4.728375e+001
1.760598e+003,4.739868e+001
1.761562e+003,4.644177e+001
1.762526e+003,4.473309e+001
1.763490e+003,4.293079e+001
1.764455e+003,4.121219e+001
1.765419e+003,3.987167e+001
1.766383e+003,3.913220e+001
1.767347e+003,3.898395e+001
1.768312e+003,3.965100e+001
1.769276e+003,4.122388e+001
1.770240e+003,4.241022e+001
1.771204e+003,4.191235e+001
1.772168e+003,4.051871e+001
1.773133e+003,3.953082e+001
1.774097e+003,3.895258e+001
1.775061e+003,3.906570e+001
1.776025e+003,3.988309e+001
1.776990e+003,4.027429e+001
1.777954e+003,3.999091e+001
1.778918e+003,3.946313e+001
1.779882e+003,3.884515e+001
1.780846e+003,3.796359e+001
1.781811e+003,3.632819e+001
1.782775e+003,3.444489e+001
1.783739e+003,3.422644e+001
1.784703e+003,3.620868e+001
1.785668e+003,3.725140e+001
1.786632e+003,3.423599e+001
1.787596e+003,3.195847e+001
1.788560e+003,3.606281e+001
1.789525e+003,4.191611e+001
1.790489e+003,4.222122e+001
1.791453e+003,3.823499e+001
1.792417e+003,3.531546e+001
1.793382e+003,3.465762e+001
1.794346e+003,3.470190e+001
1.795310e+003,3.461356e+001
1.796274e+003,3.477924e+001
1.797239e+003,3.591684e+001
1.798203e+003,3.758096e+001
1.799167e+003,3.761438e+001
1.800131e+003,3.530212e+001
1.801095e+003,3.393219e+001
1.802060e+003,3.485919e+001
1.803024e+003,3.508899e+001
1.803988e+003,3.366373e+001
1.804952e+003,3.209204e+001
1.805917e+003,3.074356e+001
1.806881e+003,2.987289e+001
1.807845e+003,2.967496e+001
1.808809e+003,3.021292e+001
1.809773e+003,3.204300e+001
1.810738e+003,3.477097e+001
1.811702e+003,3.618692e+001
1.812666e+003,3.494412e+001
1.813630e+003,3.310608e+001
1.814595e+003,3.365552e+001
1.815559e+003,3.562299e+001
1.816523e+003,3.482468e+001
1.817487e+003,3.091837e+001
1.818452e+003,2.867047e+001
1.819416e+003,2.891010e+001
1.820380e+003,2.950061e+001
1.821344e+003,3.010220e+001
1.822309e+003,3.026895e+001
1.823273e+003,2.986060e+001
1.824237e+003,2.904318e+001
1.825201e+003,2.707452e+001
1.826166e+003,2.484607e+001
1.827130e+003,2.513596e+001
1.828094e+003,2.827203e+001
1.829058e+003,3.077765e+001
1.830022e+003,3.112622e+001
1.830987e+003,3.037906e+001
1.831951e+003,2.885043e+001
1.832915e+003,2.717358e+001
1.833879e+003,2.647452e+001
1.834844e+003,2.638120e+001
1.835808e+003,2.535538e+001
1.836772e+003,2.337018e+001
1.837736e+003,2.230688e+001
1.838700e+003,2.292645e+001
1.839665e+003,2.443930e+001
1.840629e+003,2.648877e+001
1.841593e+003,2.819534e+001
1.842557e+003,2.737506e+001
1.843522e+003,2.406598e+001
1.844486e+003,2.174576e+001
1.845450e+003,2.043179e+001
1.846414e+003,2.055139e+001
1.847379e+003,2.397757e+001
1.848343e+003,2.574469e+001
1.849307e+003,2.254739e+001
1.850271e+003,1.931543e+001
1.851236e+003,2.038477e+001
1.852200e+003,2.331717e+001
1.853164e+003,2.424072e+001
1.854128e+003,2.302518e+001
1.855093e+003,2.177982e+001
1.856057e+003,2.149442e+001
1.857021e+003,2.181281e+001
1.857985e+003,2.244720e+001
1.858949e+003,2.296716e+001
1.859914e+003,2.269940e+001
1.860878e+003,2.174170e+001
1.861842e+003,2.004633e+001
1.862806e+003,1.752106e+001
1.863771e+003,1.665417e+001
1.864735e+003,1.813501e+001
1.865699e+003,1.973395e+001
1.866663e+003,2.071246e+001
1.867627e+003,2.136517e+001
1.868592e+003,2.199554e+001
1.869556e+003,2.215768e+001
1.870520e+003,2.102127e+001
1.871484e+003,1.880945e+001
1.872449e+003,1.704071e+001
1.873413e+003,1.613129e+001
1.874377e+003,1.622894e+001
1.875341e+003,1.796628e+001
1.876306e+003,1.924521e+001
1.877270e+003,1.889471e+001
1.878234e+003,1.751099e+001
1.879198e+003,1.482068e+001
1.880163e+003,1.211526e+001
1.881127e+003,1.198215e+001
1.882091e+003,1.413052e+001
1.883055e+003,1.595749e+001
1.884020e+003,1.629562e+001
1.884984e+003,1.558740e+001
1.885948e+003,1.418036e+001
1.886912e+003,1.292850e+001
1.887876e+003,1.378046e+001
1.888841e+003,1.649854e+001
1.889805e+003,1.795428e+001
1.890769e+003,1.809448e+001
1.891733e+003,1.708426e+001
1.892698e+003,1.400958e+001
1.893662e+003,1.178256e+001
1.894626e+003,1.181134e+001
1.895590e+003,1.254242e+001
1.896554e+003,1.313736e+001
1.897519e+003,1.381113e+001
1.898483e+003,1.495236e+001
1.899447e+003,1.616714e+001
1.900411e+003,1.643033e+001
1.901376e+003,1.557300e+001
1.902340e+003,1.475336e+001
1.903304e+003,1.435504e+001
1.904268e+003,1.411859e+001
1.905233e+003,1.404828e+001
1.906197e+003,1.401865e+001
1.907161e+003,1.421594e+001
1.908125e+003,1.425494e+001
1.909090e+003,1.305188e+001
1.910054e+003,1.082431e+001
1.911018e+003,8.826782e+000
1.911982e+003,7.661652e+000
1.912947e+003,7.765228e+000
1.913911e+003,9.418671e+000
1.914875e+003,1.139465e+001
1.915839e+003,1.174225e+001
1.916803e+003,1.057596e+001
1.917768e+003,8.711609e+000
1.918732e+003,5.837280e+000
1.919696e+003,5.029022e+000
1.920660e+003,7.032959e+000
1.921625e+003,9.463684e+000
1.922589e+003,1.302277e+001
1.923553e+003,1.476563e+001
1.924517e+003,1.107416e+001
1.925481e+003,6.749268e+000
1.926446e+003,6.385132e+000
1.927410e+003,8.309265e+000
1.928374e+003,9.155090e+000
1.929338e+003,8.627747e+000
1.930303e+003,7.948608e+000
1.931267e+003,7.582336e+000
1.932231e+003,7.247894e+000
1.933195e+003,6.384033e+000
1.934160e+003,5.711395e+000
1.935124e+003,5.777802e+000
1.936088e+003,6.233337e+000
1.937052e+003,7.154297e+000
1.938017e+003,8.135376e+000
1.938981e+003,7.963593e+000
1.939945e+003,6.787201e+000
1.940909e+003,6.497437e+000
1.941874e+003,7.761414e+000
1.942838e+003,8.401245e+000
1.943802e+003,6.419006e+000
1.944766e+003,3.447388e+000
1.945730e+003,2.554810e+000
1.946695e+003,3.377075e+000
1.947659e+003,3.591248e+000
1.948623e+003,3.051086e+000
1.949587e+003,3.383362e+000
1.950552e+003,5.274384e+000
1.951516e+003,6.168060e+000
1.952480e+003,4.860016e+000
1.953444e+003,3.098724e+000
1.954408e+003,1.853546e+000
1.955373e+003,9.006348e-001
1.956337e+003,3.610535e-001
1.957301e+003,1.041260e-001
1.958265e+003,-1.350189e+000
1.959230e+003,-4.445099e+000
1.960194e+003,-4.920868e+000
1.961158e+003,1.890564e-001
1.962122e+003,3.867218e+000
1.963087e+003,3.377747e+000
1.964051e+003,2.211853e+000
1.965015e+003,2.425323e+000
1.965979e+003,3.130981e+000
1.966944e+003,3.498230e+000
1.967908e+003,3.229736e+000
1.968872e+003,1.644806e+000
1.969836e+003,-7.152405e-001
1.970801e+003,-1.645721e+000
1.971765e+003,-3.040771e-001
1.972729e+003,1.251526e+000
1.973693e+003,1.246918e+000
1.974657e+003,5.701294e-001
1.975622e+003,4.223633e-001
1.976586e+003,6.041870e-001
1.977550e+003,4.793091e-001
1.978514e+003,3.078003e-001
1.979479e+003,2.001526e+000
1.980443e+003,5.561829e+000
1.981407e+003,6.458557e+000
1.982371e+003,2.910645e+000
1.983335e+003,-5.360107e-001
1.984300e+003,-4.142151e-001
1.985264e+003,8.554688e-001
1.986228e+003,-4.895325e-001
1.987192e+003,-3.696045e+000
1.988157e+003,-4.718079e+000
1.989121e+003,-2.881683e+000
1.990085e+003,-2.044281e+000
1.991049e+003,-2.336731e+000
1.992014e+003,-3.223114e+000
1.992978e+003,-6.062256e+000
1.993942e+003,-7.680328e+000
1.994906e+003,-6.339355e+000
1.995871e+003,-4.086578e+000
1.996835e+003,-1.472168e+000
1.997799e+003,6.252136e-001
1.998763e+003,3.579407e-001
1.999728e+003,-1.708588e+000
