5.003444e+002,3.299609e+001
5.013087e+002,3.230048e+001
5.022729e+002,3.091479e+001
5.032371e+002,2.962744e+001
5.042014e+002,2.934644e+001
5.051656e+002,3.001294e+001
5.061298e+002,3.093689e+001
5.070941e+002,3.144794e+001
5.080583e+002,3.134723e+001
5.090225e+002,3.029230e+001
5.099868e+002,2.680927e+001
5.109510e+002,2.412158e+001
5.119152e+002,2.453259e+001
5.128795e+002,2.840118e+001
5.138437e+002,3.129797e+001
5.148079e+002,3.027155e+001
5.157722e+002,2.951111e+001
5.167364e+002,3.171844e+001
5.177006e+002,3.631482e+001
5.186649e+002,3.945239e+001
5.196291e+002,3.505493e+001
5.205933e+002,2.832172e+001
5.215576e+002,2.415076e+001
5.225218e+002,2.284363e+001
5.234860e+002,2.331268e+001
5.244503e+002,2.420294e+001
5.254145e+002,2.648370e+001
5.263787e+002,2.648572e+001
5.273430e+002,2.235785e+001
5.283072e+002,1.720453e+001
5.292714e+002,1.537329e+001
5.302357e+002,1.835376e+001
5.311999e+002,2.018164e+001
5.321641e+002,2.095465e+001
5.331284e+002,2.101355e+001
5.340926e+002,1.990466e+001
5.350568e+002,1.709064e+001
5.360211e+002,1.446057e+001
5.369853e+002,1.513428e+001
5.379495e+002,1.692511e+001
5.389138e+002,1.787756e+001
5.398780e+002,1.716931e+001
5.408422e+002,1.537976e+001
5.418065e+002,1.405115e+001
5.427707e+002,1.317859e+001
5.437349e+002,1.322272e+001
5.446992e+002,1.454651e+001
5.456634e+002,1.658978e+001
5.466276e+002,1.754712e+001
5.475919e+002,1.639087e+001
5.485561e+002,1.566083e+001
5.495203e+002,1.563977e+001
5.504846e+002,1.566455e+001
5.514488e+002,1.475171e+001
5.524130e+002,1.211188e+001
5.533773e+002,1.035199e+001
5.543415e+002,1.138086e+001
5.553057e+002,1.344531e+001
5.562700e+002,1.453833e+001
5.572342e+002,1.338336e+001
5.581984e+002,1.111859e+001
5.591627e+002,1.122974e+001
5.601269e+002,1.299329e+001
5.610911e+002,1.436871e+001
5.620554e+002,1.415106e+001
5.630196e+002,1.235223e+001
5.639838e+002,1.066644e+001
5.649481e+002,9.545227e+000
5.659123e+002,7.947510e+000
5.668765e+002,5.994812e+000
5.678408e+002,4.065674e+000
5.688050e+002,2.463257e+000
5.697692e+002,3.977051e-001
5.707335e+002,-1.490540e+000
5.716977e+002,-2.537903e+000
5.726619e+002,-3.105347e+000
5.736262e+002,-3.897644e+000
5.745904e+002,-5.527649e+000
5.755546e+002,-6.466492e+000
5.765189e+002,-4.365723e+000
5.774831e+002,-7.983398e-001
5.784473e+002,2.086426e+000
5.794116e+002,3.011047e+000
5.803758e+002,2.517212e+000
5.813400e+002,3.595520e+000
5.823043e+002,6.554016e+000
5.832685e+002,8.074280e+000
5.842327e+002,6.619019e+000
5.851970e+002,3.048401e+000
5.861612e+002,1.035339e+000
5.871254e+002,1.192017e+000
5.880897e+002,2.357178e+000
5.890539e+002,5.084961e+000
5.900181e+002,8.273560e+000
5.909824e+002,1.044330e+001
5.919466e+002,1.078717e+001
5.929108e+002,9.877563e+000
5.938751e+002,8.076843e+000
5.948393e+002,5.889709e+000
5.958035e+002,4.239197e+000
5.967678e+002,3.846680e+000
5.977320e+002,4.645020e+000
5.986962e+002,4.467651e+000
5.996605e+002,2.720947e+000
6.006247e+002,1.308777e+000
6.015889e+002,1.317078e+000
6.025532e+002,2.695679e+000
6.035174e+002,3.835205e+000
6.044816e+002,5.179077e+000
6.054459e+002,5.877136e+000
6.064101e+002,5.190735e+000
6.073743e+002,3.812439e+000
6.083386e+002,3.031006e+000
6.093028e+002,3.753540e+000
6.102670e+002,5.080627e+000
6.112313e+002,6.321167e+000
6.121955e+002,7.398682e+000
6.131597e+002,8.467712e+000
6.141240e+002,9.577942e+000
6.150882e+002,1.025348e+001
6.160524e+002,7.700806e+000
6.170167e+002,2.750854e+000
6.179809e+002,-5.615234e-001
6.189451e+002,-3.244019e-001
6.199094e+002,2.767944e+000
6.208736e+002,5.041077e+000
6.218378e+002,7.039307e+000
6.228021e+002,8.410889e+000
6.237663e+002,9.045959e+000
6.247305e+002,9.205383e+000
6.256948e+002,9.196655e+000
6.266590e+002,9.017639e+000
6.276232e+002,7.624817e+000
6.285875e+002,3.382935e+000
6.295517e+002,-9.113159e-001
6.305159e+002,-1.892700e+000
6.314802e+002,1.951660e+000
6.324444e+002,7.932861e+000
6.334086e+002,8.958069e+000
6.343729e+002,6.841614e+000
6.353371e+002,4.814697e+000
6.363013e+002,3.903137e+000
6.372656e+002,3.595825e+000
6.382298e+002,2.415100e+000
6.391940e+002,-1.832031e+000
6.401583e+002,-4.250244e+000
6.411225e+002,-2.446228e+000
6.420867e+002,9.715576e-001
6.430510e+002,2.340515e+000
6.440152e+002,-3.352661e-001
6.449794e+002,-3.156494e+000
6.459437e+002,-4.168945e+000
6.469079e+002,-4.387085e+000
6.478721e+002,-4.362976e+000
6.488364e+002,-4.230469e+000
6.498006e+002,-3.707458e+000
6.507648e+002,-2.289795e+000
6.517291e+002,-4.380493e-001
6.526933e+002,1.309937e+000
6.536575e+002,2.878784e+000
6.546218e+002,3.714111e+000
6.555860e+002,2.674194e+000
6.565502e+002,-1.834045e+000
6.575145e+002,-4.983276e+000
6.584787e+002,-7.039673e+000
6.594429e+002,-7.704407e+000
6.604072e+002,-6.250244e+000
6.613714e+002,-2.320190e+000
6.623356e+002,1.428101e+000
6.632999e+002,4.724304e+000
6.642641e+002,6.111816e+000
6.652283e+002,3.853882e+000
6.661926e+002,-1.066284e+000
6.671568e+002,-5.571533e+000
6.681210e+002,-5.896301e+000
6.690853e+002,-3.739441e+000
6.700495e+002,-3.722839e+000
6.710137e+002,-5.751526e+000
6.719780e+002,-7.395081e+000
6.729422e+002,-5.953308e+000
6.739064e+002,-7.327881e-001
6.748707e+002,2.328247e+000
6.758349e+002,2.426331e+000
6.767991e+002,1.807922e+000
6.777634e+002,2.119202e+000
6.787276e+002,3.374817e+000
6.796918e+002,3.359131e+000
6.806561e+002,-1.897400e+000
6.816203e+002,-5.912964e+000
6.825845e+002,-4.969849e+000
6.835488e+002,-1.269775e+000
6.845130e+002,1.431519e+000
6.854772e+002,3.597412e-001
6.864415e+002,-2.477173e+000
6.874057e+002,-3.293945e+000
6.883699e+002,-3.084595e+000
6.893342e+002,-3.101257e+000
6.902984e+002,-3.932190e+000
6.912626e+002,-5.250122e+000
6.922269e+002,-5.752625e+000
6.931911e+002,-4.522705e+000
6.941553e+002,-2.318787e+000
6.951196e+002,1.267151e+000
6.960838e+002,4.863647e+000
6.970480e+002,6.423462e+000
6.980123e+002,4.840698e+000
6.989765e+002,3.575500e+000
6.999407e+002,4.455627e+000
7.009050e+002,5.756775e+000
7.018692e+002,6.121399e+000
7.028334e+002,5.032288e+000
7.037977e+002,2.978882e+000
7.047619e+002,4.274902e-001
7.057261e+002,-1.774048e+000
7.066904e+002,-2.314453e+000
7.076546e+002,-1.009094e+000
7.086188e+002,1.013000e+000
7.095831e+002,2.015076e+000
7.105473e+002,1.701843e+000
7.115115e+002,1.266479e-001
7.124758e+002,-4.838013e+000
7.134400e+002,-9.047119e+000
7.144042e+002,-8.943359e+000
7.153685e+002,-4.413269e+000
7.163327e+002,-9.982910e-001
7.172969e+002,-2.762695e+000
7.182612e+002,-4.682190e+000
7.192254e+002,-4.772766e+000
7.201896e+002,-3.623901e+000
7.211539e+002,-2.778625e+000
7.221181e+002,-3.494507e+000
7.230823e+002,-5.136169e+000
7.240466e+002,-5.916626e+000
7.250108e+002,-5.647156e+000
7.259750e+002,-4.882690e+000
7.269393e+002,-4.303955e+000
7.279035e+002,-4.372559e+000
7.288677e+002,-4.946350e+000
7.298320e+002,-5.799622e+000
7.307962e+002,-5.486694e+000
7.317604e+002,-2.927490e+000
7.327247e+002,5.892334e-001
7.336889e+002,2.621399e+000
7.346531e+002,1.235474e+000
7.356174e+002,-7.940674e-002
7.365816e+002,2.496338e+000
7.375458e+002,6.169861e+000
7.385101e+002,9.085754e+000
7.394743e+002,1.054425e+001
7.404385e+002,1.077216e+001
7.414028e+002,9.646423e+000
7.423670e+002,6.423096e+000
7.433312e+002,2.302612e+000
7.442955e+002,-2.145142e+000
7.452597e+002,-5.091553e+000
7.462239e+002,-4.415955e+000
7.471882e+002,9.312134e-001
7.481524e+002,4.380249e+000
7.491166e+002,4.008972e+000
7.500809e+002,2.965210e+000
7.510451e+002,1.966064e+000
7.520093e+002,1.264404e+000
7.529736e+002,1.414429e+000
7.539378e+002,3.887268e+000
7.549020e+002,6.669678e+000
7.558663e+002,8.351685e+000
7.568306e+002,9.390381e+000
7.577948e+002,1.053052e+001
7.587590e+002,1.199194e+001
7.597233e+002,1.282025e+001
7.606875e+002,1.044812e+001
7.616517e+002,5.673035e+000
7.626160e+002,1.895203e+000
7.635802e+002,5.969238e-002
7.645444e+002,-1.947632e-001
7.655087e+002,4.271851e-001
7.664729e+002,2.394348e+000
7.674371e+002,3.890076e+000
7.684014e+002,4.958191e+000
7.693656e+002,5.407410e+000
7.703298e+002,4.883911e+000
7.712941e+002,3.555176e+000
7.722583e+002,2.447998e+000
7.732225e+002,2.008423e+000
7.741868e+002,2.425171e+000
7.751510e+002,4.822998e+000
7.761152e+002,8.243591e+000
7.770795e+002,1.027759e+001
7.780437e+002,8.698181e+000
7.790079e+002,4.041382e+000
7.799722e+002,2.471313e+000
7.809364e+002,4.195984e+000
7.819006e+002,5.368958e+000
7.828649e+002,3.897522e+000
7.838291e+002,1.214417e+000
7.847933e+002,1.683350e+000
7.857576e+002,7.875610e+000
7.867218e+002,1.157623e+001
7.876860e+002,1.129645e+001
7.886503e+002,9.331604e+000
7.896145e+002,6.933167e+000
7.905787e+002,4.650574e+000
7.915430e+002,3.369629e+000
7.925072e+002,4.830566e+000
7.934714e+002,6.524414e+000
7.944357e+002,5.761353e+000
7.953999e+002,3.055847e+000
7.963641e+002,9.194946e-001
7.973284e+002,2.097839e+000
7.982926e+002,6.929077e+000
7.992568e+002,8.458923e+000
8.002211e+002,4.178101e+000
8.011853e+002,-2.855835e-001
8.021495e+002,-1.988098e+000
8.031138e+002,-9.013672e-001
8.040780e+002,8.463135e-001
8.050422e+002,2.111572e+000
8.060065e+002,3.983398e+000
8.069707e+002,7.940186e+000
8.079349e+002,1.136981e+001
8.088992e+002,1.120972e+001
8.098634e+002,6.933838e+000
8.108276e+002,2.123779e+000
8.117919e+002,1.647095e+000
8.127561e+002,3.354065e+000
8.137203e+002,4.865173e+000
8.146846e+002,6.360962e+000
8.156488e+002,7.562439e+000
8.166130e+002,7.623962e+000
8.175773e+002,5.992371e+000
8.185415e+002,5.776733e+000
8.195057e+002,7.725830e+000
8.204700e+002,8.990601e+000
8.214342e+002,7.753174e+000
8.223984e+002,5.139893e+000
8.233627e+002,4.445496e+000
8.243269e+002,8.136047e+000
8.252911e+002,1.157050e+001
8.262554e+002,1.131824e+001
8.272196e+002,9.799866e+000
8.281838e+002,9.477234e+000
8.291481e+002,1.119202e+001
8.301123e+002,1.392603e+001
8.310765e+002,1.623578e+001
8.320408e+002,1.770862e+001
8.330050e+002,1.676880e+001
8.339692e+002,1.282544e+001
8.349335e+002,8.427551e+000
8.358977e+002,6.494202e+000
8.368619e+002,7.688171e+000
8.378262e+002,8.474060e+000
8.387904e+002,7.312500e+000
8.397546e+002,6.599060e+000
8.407189e+002,7.123779e+000
8.416831e+002,8.550171e+000
8.426473e+002,1.024609e+001
8.436116e+002,1.202344e+001
8.445758e+002,1.400085e+001
8.455400e+002,1.608960e+001
8.465043e+002,1.753497e+001
8.474685e+002,1.816315e+001
8.484327e+002,1.824597e+001
8.493970e+002,1.790204e+001
8.503612e+002,1.664117e+001
8.513254e+002,1.393744e+001
8.522897e+002,1.269672e+001
8.532539e+002,1.341492e+001
8.542181e+002,1.410980e+001
8.551824e+002,1.384143e+001
8.561466e+002,1.327979e+001
8.571108e+002,1.413245e+001
8.580751e+002,1.651160e+001
8.590393e+002,1.826532e+001
8.600035e+002,1.904498e+001
8.609678e+002,1.954767e+001
8.619320e+002,2.037988e+001
8.628962e+002,2.174017e+001
8.638605e+002,2.347546e+001
8.648247e+002,2.593317e+001
8.657889e+002,2.834967e+001
8.667532e+002,2.906781e+001
8.677174e+002,2.786890e+001
8.686816e+002,2.599628e+001
8.696459e+002,2.486456e+001
8.706101e+002,2.471436e+001
8.715743e+002,2.560168e+001
8.725386e+002,2.887805e+001
8.735028e+002,3.149347e+001
8.744670e+002,3.134619e+001
8.754313e+002,2.963995e+001
8.763955e+002,2.929840e+001
8.773597e+002,3.189941e+001
8.783240e+002,3.472308e+001
8.792882e+002,3.582227e+001
8.802524e+002,3.580713e+001
8.812167e+002,3.508582e+001
8.821809e+002,3.386066e+001
8.831451e+002,3.217950e+001
8.841094e+002,3.011652e+001
8.850736e+002,2.811786e+001
8.860378e+002,2.761237e+001
8.870021e+002,2.839807e+001
8.879663e+002,2.992755e+001
8.889305e+002,3.212170e+001
8.898948e+002,3.463190e+001
8.908590e+002,3.641034e+001
8.918232e+002,3.770386e+001
8.927875e+002,3.843854e+001
8.937517e+002,3.858624e+001
8.947159e+002,3.831519e+001
8.956802e+002,3.699951e+001
8.966444e+002,3.456335e+001
8.976086e+002,3.230695e+001
8.985729e+002,3.221417e+001
8.995371e+002,3.365967e+001
9.005013e+002,3.494086e+001
9.014656e+002,3.623425e+001
9.024298e+002,3.778387e+001
9.033940e+002,3.951257e+001
9.043583e+002,4.099774e+001
9.053225e+002,4.185669e+001
9.062867e+002,4.062701e+001
9.072510e+002,4.000690e+001
9.082152e+002,4.171832e+001
9.091794e+002,4.401556e+001
9.101437e+002,4.480206e+001
9.111079e+002,4.367993e+001
9.120721e+002,4.269153e+001
9.130364e+002,4.243024e+001
9.140006e+002,4.237518e+001
9.149648e+002,4.335199e+001
9.159291e+002,4.486768e+001
9.168933e+002,4.519336e+001
9.178575e+002,4.295685e+001
9.188218e+002,3.921436e+001
9.197860e+002,3.871094e+001
9.207502e+002,4.128119e+001
9.217145e+002,4.342896e+001
9.226787e+002,4.572821e+001
9.236429e+002,4.734448e+001
9.246072e+002,4.600061e+001
9.255714e+002,4.041278e+001
9.265356e+002,3.675861e+001
9.274999e+002,3.813141e+001
9.284641e+002,3.889642e+001
9.294283e+002,3.640637e+001
9.303926e+002,3.244348e+001
9.313568e+002,3.046667e+001
9.323210e+002,3.231195e+001
9.332853e+002,3.547601e+001
9.342495e+002,3.598779e+001
9.352137e+002,3.496893e+001
9.361780e+002,3.421570e+001
9.371422e+002,3.449884e+001
9.381064e+002,3.589783e+001
9.390707e+002,3.829541e+001
9.400349e+002,4.168115e+001
9.409991e+002,4.257300e+001
9.419634e+002,3.838696e+001
9.429276e+002,3.511841e+001
9.438918e+002,3.533472e+001
9.448561e+002,3.731525e+001
9.458203e+002,3.752057e+001
9.467845e+002,3.445734e+001
9.477488e+002,3.309613e+001
9.487130e+002,3.890967e+001
9.496772e+002,4.648926e+001
9.506415e+002,5.254004e+001
9.516057e+002,5.621710e+001
9.525699e+002,5.733392e+001
9.535342e+002,5.561578e+001
9.544984e+002,5.126477e+001
9.554626e+002,4.755621e+001
9.564269e+002,4.499677e+001
9.573911e+002,4.363525e+001
9.583553e+002,4.372699e+001
9.593196e+002,4.463367e+001
9.602838e+002,4.548126e+001
9.612480e+002,4.614618e+001
9.622123e+002,4.638690e+001
9.631765e+002,4.634943e+001
9.641407e+002,4.603058e+001
9.651050e+002,4.534558e+001
9.660692e+002,4.403210e+001
9.670334e+002,4.157013e+001
9.679977e+002,3.784711e+001
9.689619e+002,3.459283e+001
9.699261e+002,3.535162e+001
9.708904e+002,3.854968e+001
9.718546e+002,4.116400e+001
9.728188e+002,4.232611e+001
9.737831e+002,4.270654e+001
9.747473e+002,4.359222e+001
9.757115e+002,4.550702e+001
9.766758e+002,4.592529e+001
9.776400e+002,4.313367e+001
9.786042e+002,4.173346e+001
9.795685e+002,4.382288e+001
9.805327e+002,4.684058e+001
9.814969e+002,4.744135e+001
9.824612e+002,4.480682e+001
9.834254e+002,4.189520e+001
9.843896e+002,4.064368e+001
9.853539e+002,4.048260e+001
9.863181e+002,4.105499e+001
9.872823e+002,4.204639e+001
9.882466e+002,4.370172e+001
9.892108e+002,4.675281e+001
9.901750e+002,5.153235e+001
9.911393e+002,5.533167e+001
9.921035e+002,5.563647e+001
9.930677e+002,5.617084e+001
9.940320e+002,5.684985e+001
9.949962e+002,5.894781e+001
9.959604e+002,6.436926e+001
9.969247e+002,7.311670e+001
9.978889e+002,8.133514e+001
9.988531e+002,8.636780e+001
9.998174e+002,8.978387e+001
1.000782e+003,9.305756e+001
1.001746e+003,9.619336e+001
1.002710e+003,9.881348e+001
1.003674e+003,1.006932e+002
1.004639e+003,1.019412e+002
1.005603e+003,1.027426e+002
1.006567e+003,1.028622e+002
1.007531e+003,1.032271e+002
1.008495e+003,1.044296e+002
1.009460e+003,1.049272e+002
1.010424e+003,1.031033e+002
1.011388e+003,9.991046e+001
1.012352e+003,9.914343e+001
1.013317e+003,1.030880e+002
1.014281e+003,1.049529e+002
1.015245e+003,1.029543e+002
1.016209e+003,9.800378e+001
1.017174e+003,8.907727e+001
1.018138e+003,7.780591e+001
1.019102e+003,6.853009e+001
1.020066e+003,6.517542e+001
1.021031e+003,6.569611e+001
1.021995e+003,6.309698e+001
1.022959e+003,5.759546e+001
1.023923e+003,5.236560e+001
1.024887e+003,4.832684e+001
1.025852e+003,4.498871e+001
1.026816e+003,4.182318e+001
1.027780e+003,3.921478e+001
1.028744e+003,3.688104e+001
1.029709e+003,3.450458e+001
1.030673e+003,3.251410e+001
1.031637e+003,3.145874e+001
1.032601e+003,3.038531e+001
1.033566e+003,2.772241e+001
1.034530e+003,2.314691e+001
1.035494e+003,1.922369e+001
1.036458e+003,1.888873e+001
1.037422e+003,2.066553e+001
1.038387e+003,2.246252e+001
1.039351e+003,2.398535e+001
1.040315e+003,2.514685e+001
1.041279e+003,2.607556e+001
1.042244e+003,2.692480e+001
1.043208e+003,2.742346e+001
1.044172e+003,2.701080e+001
1.045136e+003,2.610486e+001
1.046101e+003,2.372559e+001
1.047065e+003,2.232123e+001
1.048029e+003,2.448596e+001
1.048993e+003,2.896100e+001
1.049958e+003,3.137256e+001
1.050922e+003,2.962134e+001
1.051886e+003,2.623395e+001
1.052850e+003,2.199353e+001
1.053814e+003,1.846100e+001
1.054779e+003,1.876257e+001
1.055743e+003,2.294922e+001
1.056707e+003,2.704156e+001
1.057671e+003,2.603973e+001
1.058636e+003,1.979663e+001
1.059600e+003,1.836401e+001
1.060564e+003,2.807275e+001
1.061528e+003,3.443372e+001
1.062493e+003,3.282306e+001
1.063457e+003,2.779053e+001
1.064421e+003,2.450977e+001
1.065385e+003,2.378082e+001
1.066349e+003,2.308319e+001
1.067314e+003,2.050830e+001
1.068278e+003,1.848016e+001
1.069242e+003,1.899103e+001
1.070206e+003,2.128894e+001
1.071171e+003,2.441791e+001
1.072135e+003,2.749066e+001
1.073099e+003,2.920789e+001
1.074063e+003,2.758185e+001
1.075028e+003,2.232562e+001
1.075992e+003,2.003870e+001
1.076956e+003,2.158026e+001
1.077920e+003,2.318225e+001
1.078885e+003,2.409845e+001
1.079849e+003,2.464960e+001
1.080813e+003,2.506500e+001
1.081777e+003,2.542645e+001
1.082741e+003,2.581830e+001
1.083706e+003,2.587012e+001
1.084670e+003,2.526489e+001
1.085634e+003,2.310083e+001
1.086598e+003,2.027594e+001
1.087563e+003,1.882092e+001
1.088527e+003,1.997211e+001
1.089491e+003,2.258118e+001
1.090455e+003,2.362476e+001
1.091420e+003,2.248193e+001
1.092384e+003,2.203448e+001
1.093348e+003,2.233807e+001
1.094312e+003,2.246588e+001
1.095276e+003,2.207410e+001
1.096241e+003,2.168713e+001
1.097205e+003,2.207959e+001
1.098169e+003,2.324518e+001
1.099133e+003,2.431232e+001
1.100098e+003,2.479065e+001
1.101062e+003,2.566943e+001
1.102026e+003,2.805920e+001
1.102990e+003,3.140344e+001
1.103955e+003,3.416241e+001
1.104919e+003,3.532922e+001
1.105883e+003,3.555707e+001
1.106847e+003,3.671216e+001
1.107812e+003,3.867242e+001
1.108776e+003,3.875269e+001
1.109740e+003,3.582684e+001
1.110704e+003,3.314056e+001
1.111668e+003,3.324695e+001
1.112633e+003,3.611237e+001
1.113597e+003,4.075342e+001
1.114561e+003,4.858484e+001
1.115525e+003,5.349841e+001
1.116490e+003,5.179736e+001
1.117454e+003,4.863330e+001
1.118418e+003,4.667926e+001
1.119382e+003,4.681744e+001
1.120347e+003,4.950055e+001
1.121311e+003,5.458295e+001
1.122275e+003,5.959454e+001
1.123239e+003,6.052380e+001
1.124203e+003,5.831012e+001
1.125168e+003,5.724207e+001
1.126132e+003,5.794165e+001
1.127096e+003,5.939081e+001
1.128060e+003,5.976007e+001
1.129025e+003,5.965106e+001
1.129989e+003,6.349390e+001
1.130953e+003,7.443536e+001
1.131917e+003,8.215259e+001
1.132882e+003,8.211902e+001
1.133846e+003,8.072632e+001
1.134810e+003,8.169592e+001
1.135774e+003,8.471777e+001
1.136739e+003,8.718811e+001
1.137703e+003,8.765973e+001
1.138667e+003,8.860443e+001
1.139631e+003,9.467603e+001
1.140595e+003,1.056053e+002
1.141560e+003,1.180209e+002
1.142524e+003,1.323524e+002
1.143488e+003,1.476658e+002
1.144452e+003,1.628335e+002
1.145417e+003,1.782723e+002
1.146381e+003,1.952949e+002
1.147345e+003,2.132197e+002
1.148309e+003,2.344188e+002
1.149274e+003,2.626214e+002
1.150238e+003,2.912649e+002
1.151202e+003,3.182865e+002
1.152166e+003,3.434424e+002
1.153130e+003,3.675391e+002
1.154095e+003,3.902048e+002
1.155059e+003,4.079195e+002
1.156023e+003,4.164773e+002
1.156987e+003,4.159689e+002
1.157952e+003,4.102619e+002
1.158916e+003,4.001752e+002
1.159880e+003,3.866361e+002
1.160844e+003,3.676555e+002
1.161809e+003,3.444196e+002
1.162773e+003,3.212686e+002
1.163737e+003,2.985124e+002
1.164701e+003,2.747997e+002
1.165666e+003,2.476451e+002
1.166630e+003,2.224960e+002
1.167594e+003,1.989083e+002
1.168558e+003,1.795360e+002
1.169522e+003,1.691219e+002
1.170487e+003,1.680798e+002
1.171451e+003,1.706156e+002
1.172415e+003,1.703652e+002
1.173379e+003,1.676575e+002
1.174344e+003,1.652900e+002
1.175308e+003,1.635301e+002
1.176272e+003,1.612216e+002
1.177236e+003,1.580793e+002
1.178201e+003,1.544933e+002
1.179165e+003,1.509314e+002
1.180129e+003,1.470227e+002
1.181093e+003,1.407050e+002
1.182057e+003,1.284810e+002
1.183022e+003,1.190803e+002
1.183986e+003,1.162733e+002
1.184950e+003,1.170681e+002
1.185914e+003,1.196202e+002
1.186879e+003,1.230161e+002
1.187843e+003,1.263901e+002
1.188807e+003,1.288851e+002
1.189771e+003,1.305738e+002
1.190736e+003,1.324221e+002
1.191700e+003,1.344921e+002
1.192664e+003,1.352269e+002
1.193628e+003,1.349554e+002
1.194593e+003,1.333885e+002
1.195557e+003,1.290648e+002
1.196521e+003,1.230207e+002
1.197485e+003,1.197224e+002
1.198449e+003,1.212004e+002
1.199414e+003,1.213843e+002
1.200378e+003,1.166091e+002
1.201342e+003,1.105787e+002
1.202306e+003,1.046981e+002
1.203271e+003,9.922815e+001
1.204235e+003,9.412396e+001
1.205199e+003,8.952155e+001
1.206163e+003,8.598901e+001
1.207128e+003,8.459357e+001
1.208092e+003,8.559106e+001
1.209056e+003,8.323962e+001
1.210020e+003,7.607666e+001
1.210984e+003,6.924835e+001
1.211949e+003,6.455042e+001
1.212913e+003,6.051862e+001
1.213877e+003,5.537750e+001
1.214841e+003,4.917096e+001
1.215806e+003,4.329645e+001
1.216770e+003,3.810474e+001
1.217734e+003,3.344348e+001
1.218698e+003,2.819019e+001
1.219663e+003,2.340363e+001
1.220627e+003,2.084979e+001
1.221591e+003,2.054663e+001
1.222555e+003,2.094165e+001
1.223520e+003,2.072583e+001
1.224484e+003,2.002686e+001
1.225448e+003,1.848145e+001
1.226412e+003,1.528802e+001
1.227376e+003,1.278851e+001
1.228341e+003,1.101160e+001
1.229305e+003,9.521851e+000
1.230269e+003,7.892212e+000
1.231233e+003,6.382568e+000
1.232198e+003,5.756836e+000
1.233162e+003,6.446594e+000
1.234126e+003,7.955994e+000
1.235090e+003,9.978699e+000
1.236055e+003,1.194800e+001
1.237019e+003,1.336328e+001
1.237983e+003,1.417603e+001
1.238947e+003,1.479901e+001
1.239911e+003,1.563531e+001
1.240876e+003,1.634943e+001
1.241840e+003,1.615192e+001
1.242804e+003,1.502966e+001
1.243768e+003,1.381818e+001
1.244733e+003,1.144122e+001
1.245697e+003,1.057410e+001
1.246661e+003,1.137744e+001
1.247625e+003,1.287592e+001
1.248590e+003,1.496790e+001
1.249554e+003,1.769336e+001
1.250518e+003,2.122321e+001
1.251482e+003,2.560010e+001
1.252447e+003,2.810223e+001
1.253411e+003,2.413409e+001
1.254375e+003,1.730310e+001
1.255339e+003,1.515417e+001
1.256303e+003,1.807373e+001
1.257268e+003,2.171204e+001
1.258232e+003,2.312939e+001
1.259196e+003,2.331171e+001
1.260160e+003,2.512799e+001
1.261125e+003,2.927075e+001
1.262089e+003,3.342279e+001
1.263053e+003,3.696289e+001
1.264017e+003,3.998926e+001
1.264982e+003,4.264575e+001
1.265946e+003,4.510132e+001
1.266910e+003,4.823480e+001
1.267874e+003,5.138287e+001
1.268839e+003,5.223206e+001
1.269803e+003,4.923706e+001
1.270767e+003,4.425659e+001
1.271731e+003,4.071124e+001
1.272695e+003,3.888275e+001
1.273660e+003,3.796814e+001
1.274624e+003,3.781116e+001
1.275588e+003,3.683807e+001
1.276552e+003,3.449988e+001
1.277517e+003,3.150806e+001
1.278481e+003,2.846649e+001
1.279445e+003,2.522009e+001
1.280409e+003,2.224786e+001
1.281374e+003,1.906812e+001
1.282338e+003,1.736121e+001
1.283302e+003,1.926917e+001
1.284266e+003,2.206079e+001
1.285230e+003,2.250421e+001
1.286195e+003,2.026764e+001
1.287159e+003,1.737524e+001
1.288123e+003,1.568634e+001
1.289087e+003,1.502557e+001
1.290052e+003,1.393842e+001
1.291016e+003,1.188116e+001
1.291980e+003,9.952942e+000
1.292944e+003,5.784668e+000
1.293909e+003,3.874329e+000
1.294873e+003,9.229431e+000
1.295837e+003,1.675079e+001
1.296801e+003,1.854877e+001
1.297766e+003,1.393933e+001
1.298730e+003,9.232117e+000
1.299694e+003,7.208618e+000
1.300658e+003,6.532898e+000
1.301622e+003,5.763123e+000
1.302587e+003,5.589111e+000
1.303551e+003,7.969666e+000
1.304515e+003,1.296136e+001
1.305479e+003,1.625598e+001
1.306444e+003,1.350281e+001
1.307408e+003,7.012756e+000
1.308372e+003,5.710388e+000
1.309336e+003,1.176947e+001
1.310301e+003,1.622083e+001
1.311265e+003,1.962982e+001
1.312229e+003,2.071027e+001
1.313193e+003,1.651495e+001
1.314157e+003,1.123676e+001
1.315122e+003,9.786255e+000
1.316086e+003,1.194843e+001
1.317050e+003,1.341998e+001
1.318014e+003,1.154077e+001
1.318979e+003,8.191162e+000
1.319943e+003,5.842651e+000
1.320907e+003,4.940125e+000
1.321871e+003,7.163391e+000
1.322836e+003,1.325232e+001
1.323800e+003,1.781750e+001
1.324764e+003,1.674841e+001
1.325728e+003,1.321533e+001
1.326693e+003,1.274310e+001
1.327657e+003,1.528735e+001
1.328621e+003,1.657806e+001
1.329585e+003,1.596124e+001
1.330549e+003,1.583441e+001
1.331514e+003,1.612079e+001
1.332478e+003,1.640906e+001
1.333442e+003,1.719586e+001
1.334406e+003,1.826794e+001
1.335371e+003,1.835382e+001
1.336335e+003,1.671820e+001
1.337299e+003,1.445239e+001
1.338263e+003,1.348969e+001
1.339228e+003,1.400647e+001
1.340192e+003,1.436896e+001
1.341156e+003,1.433289e+001
1.342120e+003,1.446851e+001
1.343084e+003,1.443500e+001
1.344049e+003,1.413068e+001
1.345013e+003,1.425476e+001
1.345977e+003,1.466321e+001
1.346941e+003,1.395697e+001
1.347906e+003,1.149115e+001
1.348870e+003,9.331726e+000
1.349834e+003,9.217468e+000
1.350798e+003,1.047186e+001
1.351763e+003,1.288025e+001
1.352727e+003,1.607794e+001
1.353691e+003,1.713379e+001
1.354655e+003,1.474933e+001
1.355620e+003,1.098419e+001
1.356584e+003,7.738953e+000
1.357548e+003,5.281555e+000
1.358512e+003,4.851318e+000
1.359476e+003,6.630737e+000
1.360441e+003,8.442688e+000
1.361405e+003,1.099908e+001
1.362369e+003,1.261566e+001
1.363333e+003,1.100342e+001
1.364298e+003,8.667358e+000
1.365262e+003,9.989380e+000
1.366226e+003,1.522241e+001
1.367190e+003,1.977881e+001
1.368155e+003,1.954681e+001
1.369119e+003,1.588464e+001
1.370083e+003,1.303394e+001
1.371047e+003,1.116400e+001
1.372011e+003,1.084161e+001
1.372976e+003,1.252069e+001
1.373940e+003,1.402216e+001
1.374904e+003,1.546222e+001
1.375868e+003,1.612592e+001
1.376833e+003,1.422870e+001
1.377797e+003,1.002631e+001
1.378761e+003,6.635010e+000
1.379725e+003,5.508911e+000
1.380690e+003,5.553772e+000
1.381654e+003,6.203247e+000
1.382618e+003,7.276978e+000
1.383582e+003,8.322021e+000
1.384547e+003,9.388489e+000
1.385511e+003,1.110590e+001
1.386475e+003,1.376752e+001
1.387439e+003,1.647791e+001
1.388403e+003,1.819012e+001
1.389368e+003,1.885095e+001
1.390332e+003,1.788586e+001
1.391296e+003,1.396106e+001
1.392260e+003,1.178589e+001
1.393225e+003,1.324371e+001
1.394189e+003,1.537823e+001
1.395153e+003,1.745282e+001
1.396117e+003,1.872186e+001
1.397082e+003,1.757263e+001
1.398046e+003,1.440063e+001
1.399010e+003,1.274902e+001
1.399974e+003,1.570013e+001
1.400938e+003,2.063800e+001
1.401903e+003,2.060492e+001
1.402867e+003,1.497705e+001
1.403831e+003,1.303735e+001
1.404795e+003,1.627899e+001
1.405760e+003,1.976001e+001
1.406724e+003,2.150000e+001
1.407688e+003,2.119080e+001
1.408652e+003,1.854755e+001
1.409617e+003,1.475012e+001
1.410581e+003,1.314056e+001
1.411545e+003,1.543329e+001
1.412509e+003,1.786505e+001
1.413474e+003,1.520868e+001
1.414438e+003,1.061981e+001
1.415402e+003,1.097827e+001
1.416366e+003,1.595148e+001
1.417330e+003,2.021893e+001
1.418295e+003,2.170258e+001
1.419259e+003,2.192267e+001
1.420223e+003,2.229517e+001
1.421187e+003,2.242401e+001
1.422152e+003,2.131714e+001
1.423116e+003,1.842761e+001
1.424080e+003,1.792218e+001
1.425044e+003,2.254437e+001
1.426009e+003,2.712231e+001
1.426973e+003,3.046545e+001
1.427937e+003,3.196313e+001
1.428901e+003,3.003040e+001
1.429865e+003,2.585309e+001
1.430830e+003,2.322882e+001
1.431794e+003,2.442633e+001
1.432758e+003,2.777960e+001
1.433722e+003,3.067645e+001
1.434687e+003,3.382538e+001
1.435651e+003,3.706482e+001
1.436615e+003,3.873865e+001
1.437579e+003,3.961261e+001
1.438544e+003,3.986829e+001
1.439508e+003,3.966046e+001
1.440472e+003,3.936255e+001
1.441436e+003,3.920837e+001
1.442401e+003,3.923529e+001
1.443365e+003,3.924658e+001
1.444329e+003,3.868689e+001
1.445293e+003,3.709100e+001
1.446257e+003,3.550159e+001
1.447222e+003,3.617572e+001
1.448186e+003,3.843317e+001
1.449150e+003,3.870825e+001
1.450114e+003,3.614435e+001
1.451079e+003,3.318463e+001
1.452043e+003,3.153442e+001
1.453007e+003,3.052301e+001
1.453971e+003,2.792798e+001
1.454936e+003,2.415485e+001
1.455900e+003,2.482092e+001
1.456864e+003,3.333282e+001
1.457828e+003,3.934760e+001
1.458792e+003,3.280859e+001
1.459757e+003,2.433179e+001
1.460721e+003,2.330402e+001
1.461685e+003,2.686206e+001
1.462649e+003,2.865240e+001
1.463614e+003,2.720764e+001
1.464578e+003,2.514392e+001
1.465542e+003,2.444360e+001
1.466506e+003,2.474097e+001
1.467471e+003,2.556824e+001
1.468435e+003,2.746307e+001
1.469399e+003,3.017133e+001
1.470363e+003,3.495197e+001
1.471328e+003,3.738702e+001
1.472292e+003,3.486981e+001
1.473256e+003,3.037463e+001
1.474220e+003,2.528510e+001
1.475184e+003,2.129016e+001
1.476149e+003,2.043225e+001
1.477113e+003,2.276953e+001
1.478077e+003,2.597162e+001
1.479041e+003,2.814850e+001
1.480006e+003,3.031079e+001
1.480970e+003,3.490668e+001
1.481934e+003,4.277039e+001
1.482898e+003,4.702417e+001
1.483863e+003,4.568866e+001
1.484827e+003,4.371832e+001
1.485791e+003,4.161914e+001
1.486755e+003,4.092645e+001
1.487719e+003,4.320721e+001
1.488684e+003,4.747308e+001
1.489648e+003,5.165375e+001
1.490612e+003,5.530829e+001
1.491576e+003,5.899365e+001
1.492541e+003,6.302814e+001
1.493505e+003,6.699115e+001
1.494469e+003,6.966852e+001
1.495433e+003,7.087964e+001
1.496398e+003,7.310004e+001
1.497362e+003,7.758496e+001
1.498326e+003,8.273218e+001
1.499290e+003,8.716266e+001
1.500255e+003,9.199146e+001
1.501219e+003,9.839734e+001
1.502183e+003,1.062722e+002
1.503147e+003,1.154247e+002
1.504111e+003,1.256648e+002
1.505076e+003,1.379600e+002
1.506040e+003,1.535502e+002
1.507004e+003,1.710972e+002
1.507968e+003,1.891243e+002
1.508933e+003,2.079303e+002
1.509897e+003,2.278467e+002
1.510861e+003,2.497996e+002
1.511825e+003,2.758042e+002
1.512790e+003,3.075562e+002
1.513754e+003,3.419391e+002
1.514718e+003,3.734056e+002
1.515682e+003,4.015072e+002
1.516646e+003,4.317424e+002
1.517611e+003,4.669475e+002
1.518575e+003,4.999460e+002
1.519539e+003,5.321146e+002
1.520503e+003,5.587322e+002
1.521468e+003,5.760500e+002
1.522432e+003,5.863207e+002
1.523396e+003,5.942754e+002
1.524360e+003,5.991885e+002
1.525325e+003,5.945363e+002
1.526289e+003,5.761403e+002
1.527253e+003,5.494028e+002
1.528217e+003,5.235407e+002
1.529182e+003,4.990226e+002
1.530146e+003,4.718357e+002
1.531110e+003,4.416552e+002
1.532074e+003,4.082325e+002
1.533039e+003,3.691475e+002
1.534003e+003,3.278259e+002
1.534967e+003,2.840603e+002
1.535931e+003,2.420946e+002
1.536896e+003,2.056119e+002
1.537860e+003,1.753041e+002
1.538824e+003,1.505842e+002
1.539788e+003,1.306791e+002
1.540752e+003,1.135913e+002
1.541717e+003,9.687878e+001
1.542681e+003,8.143573e+001
1.543645e+003,7.097864e+001
1.544609e+003,6.796460e+001
1.545573e+003,6.550165e+001
1.546538e+003,6.362848e+001
1.547502e+003,6.075116e+001
1.548466e+003,5.546881e+001
1.549430e+003,5.089020e+001
1.550395e+003,5.139697e+001
1.551359e+003,5.461871e+001
1.552323e+003,5.305121e+001
1.553287e+003,4.450549e+001
1.554252e+003,3.589630e+001
1.555216e+003,3.327380e+001
1.556180e+003,3.443378e+001
1.557144e+003,3.451373e+001
1.558109e+003,3.365991e+001
1.559073e+003,3.361707e+001
1.560037e+003,3.442987e+001
1.561001e+003,3.432794e+001
1.561966e+003,3.253131e+001
1.562930e+003,3.118634e+001
1.563894e+003,3.268616e+001
1.564858e+003,3.546790e+001
1.565823e+003,3.564001e+001
1.566787e+003,3.253455e+001
1.567751e+003,2.938507e+001
1.568715e+003,2.808099e+001
1.569679e+003,2.788403e+001
1.570644e+003,2.747552e+001
1.571608e+003,2.702002e+001
1.572572e+003,2.843945e+001
1.573536e+003,3.218677e+001
1.574500e+003,3.455872e+001
1.575465e+003,3.352435e+001
1.576429e+003,3.164771e+001
1.577393e+003,3.062012e+001
1.578357e+003,3.000781e+001
1.579322e+003,2.890936e+001
1.580286e+003,2.761090e+001
1.581250e+003,2.884070e+001
1.582214e+003,3.439465e+001
1.583179e+003,3.882819e+001
1.584143e+003,3.647937e+001
1.585107e+003,3.177539e+001
1.586071e+003,3.205505e+001
1.587036e+003,3.606165e+001
1.588000e+003,3.777667e+001
1.588964e+003,3.540002e+001
1.589928e+003,3.297009e+001
1.590893e+003,3.378809e+001
1.591857e+003,3.562292e+001
1.592821e+003,3.456549e+001
1.593785e+003,3.141888e+001
1.594750e+003,3.062189e+001
1.595714e+003,3.287805e+001
1.596678e+003,3.479303e+001
1.597642e+003,3.485870e+001
1.598606e+003,3.453510e+001
1.599571e+003,3.453760e+001
1.600535e+003,3.543665e+001
1.601499e+003,3.889490e+001
1.602463e+003,4.399146e+001
1.603427e+003,4.634058e+001
1.604392e+003,4.392285e+001
1.605356e+003,4.071149e+001
1.606320e+003,4.133270e+001
1.607284e+003,4.413025e+001
1.608249e+003,4.407452e+001
1.609213e+003,4.106915e+001
1.610177e+003,3.810297e+001
1.611141e+003,3.554156e+001
1.612106e+003,3.340277e+001
1.613070e+003,3.215619e+001
1.614034e+003,3.080408e+001
1.614998e+003,2.757800e+001
1.615963e+003,2.422467e+001
1.616927e+003,2.410590e+001
1.617891e+003,2.722308e+001
1.618855e+003,3.036493e+001
1.619820e+003,3.167871e+001
1.620784e+003,3.038654e+001
1.621748e+003,2.466888e+001
1.622712e+003,1.638568e+001
1.623677e+003,1.341809e+001
1.624641e+003,1.667767e+001
1.625605e+003,2.068506e+001
1.626569e+003,2.424115e+001
1.627533e+003,2.593677e+001
1.628498e+003,2.460199e+001
1.629462e+003,2.281372e+001
1.630426e+003,2.298053e+001
1.631390e+003,2.413116e+001
1.632354e+003,2.360364e+001
1.633319e+003,2.093579e+001
1.634283e+003,1.875201e+001
1.635247e+003,1.895972e+001
1.636211e+003,2.053802e+001
1.637176e+003,2.255829e+001
1.638140e+003,2.505908e+001
1.639104e+003,2.456140e+001
1.640068e+003,1.905096e+001
1.641033e+003,1.723151e+001
1.641997e+003,2.543384e+001
1.642961e+003,3.225891e+001
1.643925e+003,3.026190e+001
1.644890e+003,2.568829e+001
1.645854e+003,2.400555e+001
1.646818e+003,2.509045e+001
1.647782e+003,2.762585e+001
1.648747e+003,3.092377e+001
1.649711e+003,3.305499e+001
1.650675e+003,3.240051e+001
1.651639e+003,3.067352e+001
1.652604e+003,3.138989e+001
1.653568e+003,3.410522e+001
1.654532e+003,3.347583e+001
1.655496e+003,2.841620e+001
1.656460e+003,2.289923e+001
1.657425e+003,1.685626e+001
1.658389e+003,1.267383e+001
1.659353e+003,1.187384e+001
1.660317e+003,1.309473e+001
1.661281e+003,1.607361e+001
1.662246e+003,1.946747e+001
1.663210e+003,2.010168e+001
1.664174e+003,1.722565e+001
1.665138e+003,1.417841e+001
1.666103e+003,1.358087e+001
1.667067e+003,1.429028e+001
1.668031e+003,1.441791e+001
1.668995e+003,1.411334e+001
1.669960e+003,1.400006e+001
1.670924e+003,1.443866e+001
1.671888e+003,1.431787e+001
1.672852e+003,1.316498e+001
1.673817e+003,1.097089e+001
1.674781e+003,5.669617e+000
1.675745e+003,8.100586e-001
1.676709e+003,1.239441e+000
1.677674e+003,5.564636e+000
1.678638e+003,8.766785e+000
1.679602e+003,9.282410e+000
1.680566e+003,8.917419e+000
1.681531e+003,9.455444e+000
1.682495e+003,1.004791e+001
1.683459e+003,7.842896e+000
1.684423e+003,3.366211e+000
1.685387e+003,2.235107e+000
1.686352e+003,5.554199e+000
1.687316e+003,8.508911e+000
1.688280e+003,9.394531e+000
1.689244e+003,9.876099e+000
1.690208e+003,1.101276e+001
1.691173e+003,1.222998e+001
1.692137e+003,1.352759e+001
1.693101e+003,1.487689e+001
1.694065e+003,1.487714e+001
1.695030e+003,1.268811e+001
1.695994e+003,1.053772e+001
1.696958e+003,9.809326e+000
1.697922e+003,1.034503e+001
1.698887e+003,1.337140e+001
1.699851e+003,1.740259e+001
1.700815e+003,1.659595e+001
1.701779e+003,1.037531e+001
1.702744e+003,5.208740e+000
1.703708e+003,3.616394e+000
1.704672e+003,3.761780e+000
1.705636e+003,4.369385e+000
1.706601e+003,4.601807e+000
1.707565e+003,3.791565e+000
1.708529e+003,2.599976e+000
1.709493e+003,2.061462e+000
1.710458e+003,2.268494e+000
1.711422e+003,2.611328e+000
1.712386e+003,3.896667e+000
1.713350e+003,4.732971e+000
1.714314e+003,1.818176e+000
1.715279e+003,-1.914734e+000
1.716243e+003,3.209839e-001
1.717207e+003,7.322571e+000
1.718171e+003,1.093610e+001
1.719135e+003,9.019348e+000
1.720100e+003,5.246521e+000
1.721064e+003,1.400635e+000
1.722028e+003,-2.043762e+000
1.722992e+003,-3.972168e+000
1.723957e+003,-4.025513e+000
1.724921e+003,-2.746216e+000
1.725885e+003,-4.432983e-001
1.726849e+003,-1.152344e-001
1.727814e+003,-3.608276e+000
1.728778e+003,-5.503723e+000
1.729742e+003,-2.035950e+000
1.730706e+003,2.417847e+000
1.731671e+003,2.494629e+000
1.732635e+003,-3.341675e-001
1.733599e+003,-9.761963e-001
1.734563e+003,1.550232e+000
1.735528e+003,3.790405e+000
1.736492e+003,3.710022e+000
1.737456e+003,2.940063e+000
1.738420e+003,3.443420e+000
1.739385e+003,4.450256e+000
1.740349e+003,4.634888e+000
1.741313e+003,4.527100e+000
1.742277e+003,2.705933e+000
1.743241e+003,-2.467834e+000
1.744206e+003,-5.880066e+000
1.745170e+003,-6.772217e+000
1.746134e+003,-6.409241e+000
1.747098e+003,-4.937927e+000
1.748063e+003,-3.089539e+000
1.749027e+003,-1.409241e+000
1.749991e+003,5.615234e-002
1.750955e+003,1.269653e+000
1.751919e+003,2.192200e+000
1.752884e+003,3.208374e+000
1.753848e+003,4.662231e+000
1.754812e+003,5.574951e+000
1.755776e+003,3.947998e+000
1.756741e+003,3.580322e-001
1.757705e+003,3.449097e-001
1.758669e+003,5.746826e+000
1.759633e+003,8.096252e+000
1.760598e+003,3.575195e+000
1.761562e+003,-5.601807e-001
1.762526e+003,-5.408936e-001
1.763490e+003,-1.277466e-001
1.764455e+003,-2.437866e+000
1.765419e+003,-5.810852e+000
1.766383e+003,-8.645508e+000
1.767347e+003,-1.017828e+001
1.768312e+003,-7.426086e+000
1.769276e+003,1.042847e+000
1.770240e+003,7.348389e+000
1.771204e+003,2.007202e+000
1.772168e+003,-8.557068e+000
1.773133e+003,-9.803894e+000
1.774097e+003,-2.797302e+000
1.775061e+003,1.963379e+000
1.776025e+003,2.834595e+000
1.776990e+003,2.507263e+000
1.777954e+003,2.138000e+000
1.778918e+003,1.826111e+000
1.779882e+003,1.347717e+000
1.780846e+003,2.647705e-001
1.781811e+003,-1.883240e+000
1.782775e+003,-4.509766e+000
1.783739e+003,-6.301147e+000
1.784703e+003,-7.011719e+000
1.785668e+003,-5.654480e+000
1.786632e+003,-4.654541e-001
1.787596e+003,3.901123e+000
1.788560e+003,4.175659e+000
1.789525e+003,2.767761e+000
1.790489e+003,2.292419e+000
1.791453e+003,2.317322e+000
1.792417e+003,1.076782e+000
1.793382e+003,-1.500000e+000
1.794346e+003,-2.607361e+000
1.795310e+003,-7.227173e-001
1.796274e+003,1.868408e+000
1.797239e+003,3.010559e+000
1.798203e+003,3.329407e+000
1.799167e+003,2.821106e+000
1.800131e+003,2.625122e-001
1.801095e+003,-1.869263e+000
1.802060e+003,-2.523865e+000
1.803024e+003,-2.567261e+000
1.803988e+003,-2.543274e+000
1.804952e+003,-2.052429e+000
1.805917e+003,2.041016e-001
1.806881e+003,2.048523e+000
1.807845e+003,3.265991e-001
1.808809e+003,-2.850891e+000
1.809773e+003,-2.583496e+000
1.810738e+003,1.558960e+000
1.811702e+003,5.000854e+000
1.812666e+003,4.871460e+000
1.813630e+003,3.919922e+000
1.814595e+003,6.189575e+000
1.815559e+003,1.015833e+001
1.816523e+003,9.752380e+000
1.817487e+003,4.650452e+000
1.818452e+003,-6.414795e-002
1.819416e+003,-4.524780e+000
1.820380e+003,-6.027283e+000
1.821344e+003,-2.386780e+000
1.822309e+003,1.320007e+000
1.823273e+003,3.026184e+000
1.824237e+003,3.356812e+000
1.825201e+003,1.674622e+000
1.826166e+003,-1.126648e+000
1.827130e+003,-2.541504e+000
1.828094e+003,-2.322388e+000
1.829058e+003,-1.692017e+000
1.830022e+003,-3.905640e-001
1.830987e+003,2.093506e-001
1.831951e+003,-2.103699e+000
1.832915e+003,-5.013367e+000
1.833879e+003,-4.817322e+000
1.834844e+003,-2.375488e+000
1.835808e+003,-7.360840e-001
1.836772e+003,-2.540283e-001
1.837736e+003,9.836426e-001
1.838700e+003,3.672302e+000
1.839665e+003,4.223267e+000
1.840629e+003,-1.173401e+000
1.841593e+003,-8.473145e+000
1.842557e+003,-9.228516e+000
1.843522e+003,-3.564575e+000
1.844486e+003,9.618530e-001
1.845450e+003,5.177734e+000
1.846414e+003,7.757996e+000
1.847379e+003,7.321289e+000
1.848343e+003,5.514954e+000
1.849307e+003,2.339722e+000
1.850271e+003,-9.818726e-001
1.851236e+003,-4.159485e+000
1.852200e+003,-6.152222e+000
1.853164e+003,-5.577148e+000
1.854128e+003,-3.544678e+000
1.855093e+003,-2.591248e+000
1.856057e+003,-3.191772e+000
1.857021e+003,-3.648560e+000
1.857985e+003,-2.736267e+000
1.858949e+003,-1.581726e+000
1.859914e+003,-2.172546e+000
1.860878e+003,-4.001526e+000
1.861842e+003,-5.383789e+000
1.862806e+003,-6.514343e+000
1.863771e+003,-4.415649e+000
1.864735e+003,2.563049e+000
1.865699e+003,6.189148e+000
1.866663e+003,1.474854e+000
1.867627e+003,-4.039185e+000
1.868592e+003,-3.627197e+000
1.869556e+003,-5.916138e-001
1.870520e+003,-5.120850e-001
1.871484e+003,-2.944031e+000
1.872449e+003,-4.504272e+000
1.873413e+003,-3.368469e+000
1.874377e+003,-1.638428e+000
1.875341e+003,-1.699219e+000
1.876306e+003,-1.402161e+000
1.877270e+003,1.001038e+000
1.878234e+003,3.452393e+000
1.879198e+003,3.901367e+000
1.880163e+003,3.163452e+000
1.881127e+003,2.988098e+000
1.882091e+003,3.569824e+000
1.883055e+003,3.945923e+000
1.884020e+003,3.680115e+000
1.884984e+003,3.305054e+000
1.885948e+003,3.368530e+000
1.886912e+003,3.230896e+000
1.887876e+003,1.495972e+000
1.888841e+003,-1.592651e+000
1.889805e+003,-3.603943e+000
1.890769e+003,-4.408081e+000
1.891733e+003,-4.883118e+000
1.892698e+003,-5.744568e+000
1.893662e+003,-5.618896e+000
1.894626e+003,-2.980957e+000
1.895590e+003,-2.568970e-001
1.896554e+003,1.106567e+000
1.897519e+003,1.977905e+000
1.898483e+003,2.948425e+000
1.899447e+003,3.555420e+000
1.900411e+003,3.523315e+000
1.901376e+003,2.969177e+000
1.902340e+003,2.045776e+000
1.903304e+003,3.930664e-001
1.904268e+003,-1.156250e+000
1.905233e+003,-2.548767e+000
1.906197e+003,-2.803528e+000
1.907161e+003,7.593994e-001
1.908125e+003,5.555664e+000
1.909090e+003,5.516113e+000
1.910054e+003,1.318848e+000
1.911018e+003,-6.665039e-001
1.911982e+003,1.772583e+000
1.912947e+003,5.638672e+000
1.913911e+003,8.605835e+000
1.914875e+003,9.701050e+000
1.915839e+003,6.877563e+000
1.916803e+003,9.213867e-001
1.917768e+003,-2.261841e+000
1.918732e+003,-2.096802e+000
1.919696e+003,-5.455322e-001
1.920660e+003,3.351440e+000
1.921625e+003,6.684082e+000
1.922589e+003,8.926270e+000
1.923553e+003,9.651123e+000
1.924517e+003,7.228027e+000
1.925481e+003,4.545166e+000
1.926446e+003,4.686279e+000
1.927410e+003,6.244751e+000
1.928374e+003,5.999023e+000
1.929338e+003,3.620483e+000
1.930303e+003,1.725464e+000
1.931267e+003,1.634155e+000
1.932231e+003,2.318359e+000
1.933195e+003,2.352173e+000
1.934160e+003,3.068848e+000
1.935124e+003,6.855713e+000
1.936088e+003,1.045764e+001
1.937052e+003,1.042065e+001
1.938017e+003,7.561768e+000
1.938981e+003,2.565308e+000
1.939945e+003,-3.269775e+000
1.940909e+003,-5.855469e+000
1.941874e+003,-3.743042e+000
1.942838e+003,-7.805176e-001
1.943802e+003,-8.728027e-002
1.944766e+003,-6.918945e-001
1.945730e+003,-1.944458e+000
1.946695e+003,-3.912109e+000
1.947659e+003,-4.313599e+000
1.948623e+003,-3.181152e+000
1.949587e+003,-1.260742e+000
1.950552e+003,2.152344e+000
1.951516e+003,4.134766e+000
1.952480e+003,3.078979e+000
1.953444e+003,1.623169e+000
1.954408e+003,7.706299e-001
1.955373e+003,7.532959e-001
1.956337e+003,3.765503e+000
1.957301e+003,8.810425e+000
1.958265e+003,1.001904e+001
1.959230e+003,6.679077e+000
1.960194e+003,5.143066e+000
1.961158e+003,6.081909e+000
1.962122e+003,7.546021e+000
1.963087e+003,1.048694e+001
1.964051e+003,1.233105e+001
1.965015e+003,1.192896e+001
1.965979e+003,1.035071e+001
1.966944e+003,6.982056e+000
1.967908e+003,3.217041e+000
1.968872e+003,2.000610e+000
1.969836e+003,3.322754e+000
1.970801e+003,4.510010e+000
1.971765e+003,4.478271e+000
1.972729e+003,4.582886e+000
1.973693e+003,6.147583e+000
1.974657e+003,7.778320e+000
1.975622e+003,6.811890e+000
1.976586e+003,4.136108e+000
1.977550e+003,2.421753e+000
1.978514e+003,1.935059e+000
1.979479e+003,3.009277e+000
1.980443e+003,5.466675e+000
1.981407e+003,7.838013e+000
1.982371e+003,9.854126e+000
1.983335e+003,9.912231e+000
1.984300e+003,6.027588e+000
1.985264e+003,1.650879e+000
1.986228e+003,2.726074e+000
1.987192e+003,7.979370e+000
1.988157e+003,1.091809e+001
1.989121e+003,1.160608e+001
1.990085e+003,1.047229e+001
1.991049e+003,6.244385e+000
1.992014e+003,3.342896e+000
1.992978e+003,2.253174e+000
1.993942e+003,2.080322e+000
1.994906e+003,2.958008e+000
1.995871e+003,4.218384e+000
1.996835e+003,5.915405e+000
1.997799e+003,7.680054e+000
1.998763e+003,8.969971e+000
1.999728e+003,9.381714e+000
