5.003444e+002,4.806003e+001
5.013087e+002,4.720166e+001
5.022729e+002,4.515367e+001
5.032371e+002,4.255046e+001
5.042014e+002,4.097185e+001
5.051656e+002,4.032890e+001
5.061298e+002,4.023892e+001
5.070941e+002,4.034082e+001
5.080583e+002,4.053236e+001
5.090225e+002,4.123621e+001
5.099868e+002,4.322389e+001
5.109510e+002,4.477606e+001
5.119152e+002,4.476157e+001
5.128795e+002,4.304028e+001
5.138437e+002,4.163091e+001
5.148079e+002,4.107184e+001
5.157722e+002,4.114066e+001
5.167364e+002,4.246632e+001
5.177006e+002,4.460393e+001
5.186649e+002,4.591853e+001
5.196291e+002,4.376190e+001
5.205933e+002,4.023013e+001
5.215576e+002,3.720483e+001
5.225218e+002,3.494583e+001
5.234860e+002,3.339377e+001
5.244503e+002,3.256007e+001
5.254145e+002,3.285526e+001
5.263787e+002,3.318866e+001
5.273430e+002,3.372427e+001
5.283072e+002,3.419453e+001
5.292714e+002,3.411761e+001
5.302357e+002,3.294333e+001
5.311999e+002,3.203880e+001
5.321641e+002,3.147850e+001
5.331284e+002,3.147214e+001
5.340926e+002,3.260268e+001
5.350568e+002,3.516585e+001
5.360211e+002,3.683884e+001
5.369853e+002,3.496133e+001
5.379495e+002,3.184753e+001
5.389138e+002,2.897017e+001
5.398780e+002,2.702704e+001
5.408422e+002,2.595163e+001
5.418065e+002,2.592160e+001
5.427707e+002,2.677487e+001
5.437349e+002,2.751067e+001
5.446992e+002,2.795421e+001
5.456634e+002,2.802184e+001
5.466276e+002,2.744301e+001
5.475919e+002,2.533223e+001
5.485561e+002,2.372334e+001
5.495203e+002,2.259053e+001
5.504846e+002,2.194260e+001
5.514488e+002,2.192546e+001
5.524130e+002,2.297569e+001
5.533773e+002,2.400900e+001
5.543415e+002,2.495963e+001
5.553057e+002,2.540143e+001
5.562700e+002,2.444293e+001
5.572342e+002,2.155540e+001
5.581984e+002,1.817386e+001
5.591627e+002,1.842084e+001
5.601269e+002,2.095811e+001
5.610911e+002,2.302133e+001
5.620554e+002,2.314629e+001
5.630196e+002,2.152055e+001
5.639838e+002,2.016760e+001
5.649481e+002,1.937660e+001
5.659123e+002,1.845035e+001
5.668765e+002,1.729845e+001
5.678408e+002,1.606857e+001
5.688050e+002,1.493391e+001
5.697692e+002,1.313559e+001
5.707335e+002,1.240363e+001
5.716977e+002,1.424356e+001
5.726619e+002,1.712941e+001
5.736262e+002,1.902286e+001
5.745904e+002,1.846010e+001
5.755546e+002,1.681670e+001
5.765189e+002,1.603838e+001
5.774831e+002,1.583351e+001
5.784473e+002,1.598476e+001
5.794116e+002,1.638429e+001
5.803758e+002,1.702414e+001
5.813400e+002,1.680319e+001
5.823043e+002,1.527043e+001
5.832685e+002,1.392448e+001
5.842327e+002,1.344969e+001
5.851970e+002,1.378564e+001
5.861612e+002,1.411343e+001
5.871254e+002,1.438843e+001
5.880897e+002,1.441328e+001
5.890539e+002,1.380357e+001
5.900181e+002,1.292570e+001
5.909824e+002,1.252042e+001
5.919466e+002,1.339139e+001
5.929108e+002,1.416241e+001
5.938751e+002,1.309662e+001
5.948393e+002,1.106668e+001
5.958035e+002,9.441559e+000
5.967678e+002,9.224945e+000
5.977320e+002,1.021744e+001
5.986962e+002,1.059811e+001
5.996605e+002,1.030959e+001
6.006247e+002,9.791199e+000
6.015889e+002,9.041550e+000
6.025532e+002,8.123199e+000
6.035174e+002,7.748596e+000
6.044816e+002,8.522812e+000
6.054459e+002,9.283081e+000
6.064101e+002,9.969986e+000
6.073743e+002,1.050687e+001
6.083386e+002,1.082956e+001
6.093028e+002,1.093559e+001
6.102670e+002,1.076094e+001
6.112313e+002,9.875397e+000
6.121955e+002,8.851791e+000
6.131597e+002,8.576569e+000
6.141240e+002,9.628006e+000
6.150882e+002,1.150153e+001
6.160524e+002,1.203673e+001
6.170167e+002,1.152313e+001
6.179809e+002,1.082571e+001
6.189451e+002,1.029150e+001
6.199094e+002,9.817963e+000
6.208736e+002,8.976334e+000
6.218378e+002,6.648819e+000
6.228021e+002,5.522034e+000
6.237663e+002,6.705719e+000
6.247305e+002,9.045212e+000
6.256948e+002,1.067844e+001
6.266590e+002,1.076024e+001
6.276232e+002,1.003375e+001
6.285875e+002,8.685104e+000
6.295517e+002,7.316696e+000
6.305159e+002,6.617996e+000
6.314802e+002,6.906204e+000
6.324444e+002,7.686615e+000
6.334086e+002,7.817993e+000
6.343729e+002,7.519653e+000
6.353371e+002,6.859665e+000
6.363013e+002,5.700226e+000
6.372656e+002,4.331253e+000
6.382298e+002,3.897552e+000
6.391940e+002,5.753204e+000
6.401583e+002,6.712418e+000
6.411225e+002,6.389877e+000
6.420867e+002,5.538559e+000
6.430510e+002,4.977646e+000
6.440152e+002,4.914032e+000
6.449794e+002,4.779007e+000
6.459437e+002,4.251175e+000
6.469079e+002,3.578659e+000
6.478721e+002,3.024078e+000
6.488364e+002,2.669006e+000
6.498006e+002,2.302536e+000
6.507648e+002,1.212433e+000
6.517291e+002,-2.011719e-001
6.526933e+002,-8.641663e-001
6.536575e+002,-5.722351e-001
6.546218e+002,5.040894e-001
6.555860e+002,2.140945e+000
6.565502e+002,5.187836e+000
6.575145e+002,6.739105e+000
6.584787e+002,6.293198e+000
6.594429e+002,5.004883e+000
6.604072e+002,3.379410e+000
6.613714e+002,1.346420e+000
6.623356e+002,3.468628e-001
6.632999e+002,2.207764e+000
6.642641e+002,4.157059e+000
6.652283e+002,4.649582e+000
6.661926e+002,3.763336e+000
6.671568e+002,2.739105e+000
6.681210e+002,3.014313e+000
6.690853e+002,4.164383e+000
6.700495e+002,5.063049e+000
6.710137e+002,5.689529e+000
6.719780e+002,6.217529e+000
6.729422e+002,6.912567e+000
6.739064e+002,8.001251e+000
6.748707e+002,7.451767e+000
6.758349e+002,3.652451e+000
6.767991e+002,5.139618e-001
6.777634e+002,8.366394e-002
6.787276e+002,2.105682e+000
6.796918e+002,4.047882e+000
6.806561e+002,5.319183e+000
6.816203e+002,5.712265e+000
6.825845e+002,4.295547e+000
6.835488e+002,2.140182e+000
6.845130e+002,1.101227e+000
6.854772e+002,2.721558e+000
6.864415e+002,5.470306e+000
6.874057e+002,5.434021e+000
6.883699e+002,3.433090e+000
6.893342e+002,1.715561e+000
6.902984e+002,1.577332e+000
6.912626e+002,2.787613e+000
6.922269e+002,3.539474e+000
6.931911e+002,3.917770e+000
6.941553e+002,3.942520e+000
6.951196e+002,3.017380e+000
6.960838e+002,1.769089e+000
6.970480e+002,1.432159e+000
6.980123e+002,2.872620e+000
6.989765e+002,3.753265e+000
6.999407e+002,2.672058e+000
7.009050e+002,1.059143e+000
7.018692e+002,-1.828308e-001
7.028334e+002,-6.478271e-001
7.037977e+002,-2.881927e-001
7.047619e+002,1.894196e+000
7.057261e+002,4.738602e+000
7.066904e+002,5.182877e+000
7.076546e+002,2.733749e+000
7.086188e+002,-3.739624e-001
7.095831e+002,-4.620361e-001
7.105473e+002,4.021225e+000
7.115115e+002,6.492798e+000
7.124758e+002,6.504364e+000
7.134400e+002,5.400970e+000
7.144042e+002,3.402313e+000
7.153685e+002,6.761017e-001
7.163327e+002,-1.016541e+000
7.172969e+002,1.644135e-001
7.182612e+002,1.708527e+000
7.192254e+002,2.960495e+000
7.201896e+002,3.694092e+000
7.211539e+002,3.686859e+000
7.221181e+002,2.648575e+000
7.230823e+002,1.181015e+000
7.240466e+002,9.617310e-001
7.250108e+002,1.799484e+000
7.259750e+002,2.792114e+000
7.269393e+002,3.319717e+000
7.279035e+002,3.389755e+000
7.288677e+002,3.838196e+000
7.298320e+002,6.280624e+000
7.307962e+002,7.372864e+000
7.317604e+002,5.882874e+000
7.327247e+002,3.339951e+000
7.336889e+002,1.803131e+000
7.346531e+002,1.839935e+000
7.356174e+002,2.174820e+000
7.365816e+002,2.743500e+000
7.375458e+002,3.127487e+000
7.385101e+002,2.662491e+000
7.394743e+002,1.388275e+000
7.404385e+002,2.277069e-001
7.414028e+002,7.418976e-001
7.423670e+002,2.362762e+000
7.433312e+002,2.984100e+000
7.442955e+002,2.511124e+000
7.452597e+002,2.041061e+000
7.462239e+002,3.013367e+000
7.471882e+002,6.135452e+000
7.481524e+002,7.304077e+000
7.491166e+002,4.868576e+000
7.500809e+002,2.485352e+000
7.510451e+002,1.711166e+000
7.520093e+002,2.192917e+000
7.529736e+002,2.278229e+000
7.539378e+002,9.195862e-001
7.549020e+002,-3.179169e-001
7.558663e+002,-6.746521e-001
7.568306e+002,-2.719269e-001
7.577948e+002,8.807831e-001
7.587590e+002,2.680252e+000
7.597233e+002,4.674194e+000
7.606875e+002,5.630325e+000
7.616517e+002,5.722580e+000
7.626160e+002,5.453110e+000
7.635802e+002,4.892868e+000
7.645444e+002,4.114273e+000
7.655087e+002,3.176956e+000
7.664729e+002,1.737183e+000
7.674371e+002,8.991699e-001
7.684014e+002,6.550293e-001
7.693656e+002,9.216919e-001
7.703298e+002,1.828461e+000
7.712941e+002,3.318466e+000
7.722583e+002,4.940796e+000
7.732225e+002,6.941711e+000
7.741868e+002,8.300674e+000
7.751510e+002,7.839737e+000
7.761152e+002,6.055923e+000
7.770795e+002,4.051987e+000
7.780437e+002,2.778656e+000
7.790079e+002,2.220596e+000
7.799722e+002,2.872787e+000
7.809364e+002,4.936478e+000
7.819006e+002,6.286270e+000
7.828649e+002,5.375656e+000
7.838291e+002,3.190063e+000
7.847933e+002,3.119186e+000
7.857576e+002,7.233139e+000
7.867218e+002,9.816620e+000
7.876860e+002,9.259842e+000
7.886503e+002,7.633926e+000
7.896145e+002,6.390320e+000
7.905787e+002,6.004257e+000
7.915430e+002,6.316833e+000
7.925072e+002,7.618134e+000
7.934714e+002,9.121353e+000
7.944357e+002,1.042523e+001
7.953999e+002,1.133888e+001
7.963641e+002,1.120256e+001
7.973284e+002,9.132263e+000
7.982926e+002,4.937286e+000
7.992568e+002,2.728851e+000
8.002211e+002,2.405090e+000
8.011853e+002,3.060150e+000
8.021495e+002,5.557602e+000
8.031138e+002,9.164200e+000
8.040780e+002,1.065489e+001
8.050422e+002,7.614761e+000
8.060065e+002,5.124603e+000
8.069707e+002,4.894638e+000
8.079349e+002,5.769867e+000
8.088992e+002,6.731003e+000
8.098634e+002,7.407776e+000
8.108276e+002,8.151291e+000
8.117919e+002,9.663803e+000
8.127561e+002,1.127960e+001
8.137203e+002,1.201965e+001
8.146846e+002,1.185693e+001
8.156488e+002,1.090506e+001
8.166130e+002,9.090027e+000
8.175773e+002,6.040955e+000
8.185415e+002,4.212067e+000
8.195057e+002,3.878357e+000
8.204700e+002,3.970947e+000
8.214342e+002,4.667603e+000
8.223984e+002,5.527740e+000
8.233627e+002,5.265686e+000
8.243269e+002,2.570068e+000
8.252911e+002,5.908813e-001
8.262554e+002,1.432938e+000
8.272196e+002,3.512024e+000
8.281838e+002,5.318405e+000
8.291481e+002,6.233261e+000
8.301123e+002,6.664963e+000
8.310765e+002,7.319229e+000
8.320408e+002,8.107742e+000
8.330050e+002,8.537888e+000
8.339692e+002,8.673874e+000
8.349335e+002,8.246719e+000
8.358977e+002,6.776505e+000
8.368619e+002,4.085785e+000
8.378262e+002,2.013016e+000
8.387904e+002,-1.563721e-001
8.397546e+002,-9.380951e-001
8.407189e+002,1.120483e+000
8.416831e+002,4.593597e+000
8.426473e+002,7.084259e+000
8.436116e+002,7.465866e+000
8.445758e+002,6.979004e+000
8.455400e+002,6.195801e+000
8.465043e+002,5.549240e+000
8.474685e+002,5.940125e+000
8.484327e+002,7.542725e+000
8.493970e+002,9.615219e+000
8.503612e+002,1.082370e+001
8.513254e+002,1.101750e+001
8.522897e+002,1.056477e+001
8.532539e+002,8.679382e+000
8.542181e+002,7.113220e+000
8.551824e+002,7.193573e+000
8.561466e+002,8.810852e+000
8.571108e+002,1.033104e+001
8.580751e+002,1.132144e+001
8.590393e+002,1.181648e+001
8.600035e+002,1.144571e+001
8.609678e+002,1.096503e+001
8.619320e+002,1.146385e+001
8.628962e+002,1.326155e+001
8.638605e+002,1.501201e+001
8.648247e+002,1.393675e+001
8.657889e+002,1.153532e+001
8.667532e+002,1.153769e+001
8.677174e+002,1.441452e+001
8.686816e+002,1.750929e+001
8.696459e+002,1.756743e+001
8.706101e+002,1.398592e+001
8.715743e+002,1.229642e+001
8.725386e+002,1.401729e+001
8.735028e+002,1.551199e+001
8.744670e+002,1.533293e+001
8.754313e+002,1.432018e+001
8.763955e+002,1.431270e+001
8.773597e+002,1.619910e+001
8.783240e+002,1.829720e+001
8.792882e+002,1.953938e+001
8.802524e+002,2.024675e+001
8.812167e+002,2.049178e+001
8.821809e+002,2.042795e+001
8.831451e+002,2.040848e+001
8.841094e+002,2.094017e+001
8.850736e+002,2.203392e+001
8.860378e+002,2.249097e+001
8.870021e+002,2.210916e+001
8.879663e+002,2.171251e+001
8.889305e+002,2.158795e+001
8.898948e+002,2.173512e+001
8.908590e+002,2.238319e+001
8.918232e+002,2.431644e+001
8.927875e+002,2.559492e+001
8.937517e+002,2.541902e+001
8.947159e+002,2.480670e+001
8.956802e+002,2.437387e+001
8.966444e+002,2.430824e+001
8.976086e+002,2.472028e+001
8.985729e+002,2.626828e+001
8.995371e+002,2.803491e+001
9.005013e+002,2.810660e+001
9.014656e+002,2.681964e+001
9.024298e+002,2.581485e+001
9.033940e+002,2.632201e+001
9.043583e+002,2.803456e+001
9.053225e+002,2.905641e+001
9.062867e+002,2.800078e+001
9.072510e+002,2.795872e+001
9.082152e+002,3.025691e+001
9.091794e+002,3.296227e+001
9.101437e+002,3.380983e+001
9.111079e+002,3.240843e+001
9.120721e+002,3.146529e+001
9.130364e+002,3.375986e+001
9.140006e+002,3.574800e+001
9.149648e+002,3.494185e+001
9.159291e+002,3.231435e+001
9.168933e+002,3.011327e+001
9.178575e+002,2.986360e+001
9.188218e+002,3.082529e+001
9.197860e+002,3.062784e+001
9.207502e+002,2.921783e+001
9.217145e+002,2.778912e+001
9.226787e+002,2.652368e+001
9.236429e+002,2.557524e+001
9.246072e+002,2.510373e+001
9.255714e+002,2.508221e+001
9.265356e+002,2.532158e+001
9.274999e+002,2.629266e+001
9.284641e+002,2.689238e+001
9.294283e+002,2.674652e+001
9.303926e+002,2.601694e+001
9.313568e+002,2.480000e+001
9.323210e+002,2.306770e+001
9.332853e+002,2.160365e+001
9.342495e+002,2.234145e+001
9.352137e+002,2.405597e+001
9.361780e+002,2.501289e+001
9.371422e+002,2.489632e+001
9.381064e+002,2.420633e+001
9.390707e+002,2.344614e+001
9.400349e+002,2.242255e+001
9.409991e+002,2.200929e+001
9.419634e+002,2.317882e+001
9.429276e+002,2.359814e+001
9.438918e+002,2.197903e+001
9.448561e+002,1.947928e+001
9.458203e+002,1.812720e+001
9.467845e+002,1.865221e+001
9.477488e+002,1.958493e+001
9.487130e+002,2.047276e+001
9.496772e+002,2.080797e+001
9.506415e+002,1.965227e+001
9.516057e+002,1.733960e+001
9.525699e+002,1.523422e+001
9.535342e+002,1.465703e+001
9.544984e+002,1.538834e+001
9.554626e+002,1.586398e+001
9.564269e+002,1.614151e+001
9.573911e+002,1.654286e+001
9.583553e+002,1.759537e+001
9.593196e+002,1.857248e+001
9.602838e+002,1.800409e+001
9.612480e+002,1.527798e+001
9.622123e+002,1.325128e+001
9.631765e+002,1.296576e+001
9.641407e+002,1.336150e+001
9.651050e+002,1.438118e+001
9.660692e+002,1.559299e+001
9.670334e+002,1.642682e+001
9.679977e+002,1.657549e+001
9.689619e+002,1.630745e+001
9.699261e+002,1.574962e+001
9.708904e+002,1.501025e+001
9.718546e+002,1.460085e+001
9.728188e+002,1.454828e+001
9.737831e+002,1.505467e+001
9.747473e+002,1.670619e+001
9.757115e+002,1.994124e+001
9.766758e+002,2.206816e+001
9.776400e+002,2.284285e+001
9.786042e+002,2.294279e+001
9.795685e+002,2.224356e+001
9.805327e+002,2.093373e+001
9.814969e+002,1.920323e+001
9.824612e+002,1.717018e+001
9.834254e+002,1.511081e+001
9.843896e+002,1.300002e+001
9.853539e+002,1.103319e+001
9.863181e+002,9.181595e+000
9.872823e+002,7.603516e+000
9.882466e+002,7.179459e+000
9.892108e+002,8.818558e+000
9.901750e+002,1.214140e+001
9.911393e+002,1.344928e+001
9.921035e+002,1.086168e+001
9.930677e+002,8.717514e+000
9.940320e+002,7.378647e+000
9.949962e+002,6.540787e+000
9.959604e+002,5.872620e+000
9.969247e+002,5.381378e+000
9.978889e+002,5.556183e+000
9.988531e+002,7.140213e+000
9.998174e+002,8.602524e+000
1.000782e+003,9.343765e+000
1.001746e+003,9.385635e+000
1.002710e+003,8.484268e+000
1.003674e+003,6.687943e+000
1.004639e+003,4.822098e+000
1.005603e+003,4.426941e+000
1.006567e+003,5.646378e+000
1.007531e+003,6.083496e+000
1.008495e+003,5.329315e+000
1.009460e+003,4.675674e+000
1.010424e+003,5.178116e+000
1.011388e+003,6.484329e+000
1.012352e+003,7.030731e+000
1.013317e+003,6.215042e+000
1.014281e+003,5.361206e+000
1.015245e+003,4.818268e+000
1.016209e+003,4.384323e+000
1.017174e+003,3.772934e+000
1.018138e+003,3.123245e+000
1.019102e+003,3.080307e+000
1.020066e+003,4.325668e+000
1.021031e+003,6.129913e+000
1.021995e+003,6.030746e+000
1.022959e+003,4.345917e+000
1.023923e+003,2.598907e+000
1.024887e+003,1.152344e+000
1.025852e+003,6.048584e-002
1.026816e+003,-5.720367e-001
1.027780e+003,-6.835938e-001
1.028744e+003,-3.201599e-001
1.029709e+003,1.588135e+000
1.030673e+003,2.680679e+000
1.031637e+003,1.713577e+000
1.032601e+003,-3.250732e-001
1.033566e+003,-2.188766e+000
1.034530e+003,-3.389008e+000
1.035494e+003,-3.831009e+000
1.036458e+003,-2.979935e+000
1.037422e+003,-1.606140e+000
1.038387e+003,-1.154404e+000
1.039351e+003,-1.573441e+000
1.040315e+003,-1.756485e+000
1.041279e+003,-7.996979e-001
1.042244e+003,1.038818e+000
1.043208e+003,2.345215e+000
1.044172e+003,2.994293e+000
1.045136e+003,3.033966e+000
1.046101e+003,2.108505e+000
1.047065e+003,1.061325e+000
1.048029e+003,2.430115e-001
1.048993e+003,-2.664642e-001
1.049958e+003,-2.985687e-001
1.050922e+003,3.942108e-001
1.051886e+003,1.296555e+000
1.052850e+003,2.075043e+000
1.053814e+003,2.613892e+000
1.054779e+003,2.653976e+000
1.055743e+003,2.171219e+000
1.056707e+003,1.398590e+000
1.057671e+003,5.765228e-001
1.058636e+003,-3.124390e-001
1.059600e+003,-3.917542e-001
1.060564e+003,1.433105e+000
1.061528e+003,2.633057e+000
1.062493e+003,2.181259e+000
1.063457e+003,1.254990e+000
1.064421e+003,1.491699e+000
1.065385e+003,3.058060e+000
1.066349e+003,3.828430e+000
1.067314e+003,1.960587e+000
1.068278e+003,-1.264343e-001
1.069242e+003,-9.466553e-001
1.070206e+003,-7.067719e-001
1.071171e+003,5.259399e-001
1.072135e+003,2.483170e+000
1.073099e+003,4.115112e+000
1.074063e+003,3.604340e+000
1.075028e+003,6.744232e-001
1.075992e+003,-4.370270e-001
1.076956e+003,9.495850e-001
1.077920e+003,2.494415e+000
1.078885e+003,3.795135e+000
1.079849e+003,4.653534e+000
1.080813e+003,4.473633e+000
1.081777e+003,2.986710e+000
1.082741e+003,1.597488e+000
1.083706e+003,6.812897e-001
1.084670e+003,2.158966e-001
1.085634e+003,6.439362e-001
1.086598e+003,1.464554e+000
1.087563e+003,1.678726e+000
1.088527e+003,8.236542e-001
1.089491e+003,-2.967072e-001
1.090455e+003,-1.106567e-001
1.091420e+003,1.505661e+000
1.092384e+003,2.087524e+000
1.093348e+003,1.352554e+000
1.094312e+003,4.228210e-002
1.095276e+003,-2.027496e+000
1.096241e+003,-4.240433e+000
1.097205e+003,-4.451294e+000
1.098169e+003,-1.430969e+000
1.099133e+003,5.464325e-001
1.100098e+003,-1.112503e+000
1.101062e+003,-3.242218e+000
1.102026e+003,-3.862366e+000
1.102990e+003,-3.257553e+000
1.103955e+003,-2.741318e+000
1.104919e+003,-3.126221e+000
1.105883e+003,-3.895004e+000
1.106847e+003,-3.830048e+000
1.107812e+003,-2.931213e+000
1.108776e+003,-2.585587e+000
1.109740e+003,-3.160172e+000
1.110704e+003,-3.643860e+000
1.111668e+003,-3.259491e+000
1.112633e+003,-2.095642e+000
1.113597e+003,-5.089111e-001
1.114561e+003,2.210922e+000
1.115525e+003,3.374771e+000
1.116490e+003,7.920532e-001
1.117454e+003,-2.098175e+000
1.118418e+003,-2.779327e+000
1.119382e+003,-1.751892e+000
1.120347e+003,-1.170319e+000
1.121311e+003,-2.410156e+000
1.122275e+003,-4.441246e+000
1.123239e+003,-4.965431e+000
1.124203e+003,-3.974655e+000
1.125168e+003,-2.901871e+000
1.126132e+003,-1.669556e+000
1.127096e+003,-7.546997e-001
1.128060e+003,-7.771912e-001
1.129025e+003,-1.527390e+000
1.129989e+003,-1.895889e+000
1.130953e+003,-1.802155e+000
1.131917e+003,-1.384659e+000
1.132882e+003,-2.655640e-001
1.133846e+003,7.704163e-001
1.134810e+003,9.835358e-001
1.135774e+003,7.482910e-001
1.136739e+003,1.158096e+000
1.137703e+003,2.797150e+000
1.138667e+003,4.634354e+000
1.139631e+003,4.719055e+000
1.140595e+003,3.237076e+000
1.141560e+003,2.369034e+000
1.142524e+003,2.394897e+000
1.143488e+003,2.578232e+000
1.144452e+003,1.860001e+000
1.145417e+003,8.499756e-001
1.146381e+003,2.164520e+000
1.147345e+003,7.133636e+000
1.148309e+003,1.090266e+001
1.149274e+003,1.190123e+001
1.150238e+003,1.197986e+001
1.151202e+003,1.104486e+001
1.152166e+003,1.020898e+001
1.153130e+003,1.169553e+001
1.154095e+003,1.623398e+001
1.155059e+003,2.084669e+001
1.156023e+003,2.110258e+001
1.156987e+003,1.754024e+001
1.157952e+003,1.533020e+001
1.158916e+003,1.482689e+001
1.159880e+003,1.432648e+001
1.160844e+003,1.260068e+001
1.161809e+003,1.016098e+001
1.162773e+003,8.431305e+000
1.163737e+003,7.649078e+000
1.164701e+003,6.575684e+000
1.165666e+003,4.337189e+000
1.166630e+003,2.427032e+000
1.167594e+003,1.655640e+000
1.168558e+003,1.424683e+000
1.169522e+003,9.342499e-001
1.170487e+003,-7.510376e-002
1.171451e+003,-1.390335e+000
1.172415e+003,-2.940498e+000
1.173379e+003,-4.431778e+000
1.174344e+003,-3.877876e+000
1.175308e+003,-1.116867e+000
1.176272e+003,8.241730e-001
1.177236e+003,7.827606e-001
1.178201e+003,-3.558350e-001
1.179165e+003,-1.833900e+000
1.180129e+003,-3.716057e+000
1.181093e+003,-4.818665e+000
1.182057e+003,-4.591255e+000
1.183022e+003,-3.873993e+000
1.183986e+003,-2.215553e+000
1.184950e+003,-8.005676e-001
1.185914e+003,-9.175262e-001
1.186879e+003,-2.487740e+000
1.187843e+003,-4.525917e+000
1.188807e+003,-6.276855e+000
1.189771e+003,-7.606728e+000
1.190736e+003,-7.882515e+000
1.191700e+003,-6.972450e+000
1.192664e+003,-6.403297e+000
1.193628e+003,-6.444321e+000
1.194593e+003,-6.585762e+000
1.195557e+003,-6.411293e+000
1.196521e+003,-6.061943e+000
1.197485e+003,-6.022377e+000
1.198449e+003,-6.416046e+000
1.199414e+003,-6.922119e+000
1.200378e+003,-7.878242e+000
1.201342e+003,-8.456612e+000
1.202306e+003,-7.644920e+000
1.203271e+003,-6.138634e+000
1.204235e+003,-5.408440e+000
1.205199e+003,-6.132378e+000
1.206163e+003,-7.579384e+000
1.207128e+003,-8.555679e+000
1.208092e+003,-9.020279e+000
1.209056e+003,-9.714157e+000
1.210020e+003,-1.089690e+001
1.210984e+003,-1.175758e+001
1.211949e+003,-1.184898e+001
1.212913e+003,-1.165787e+001
1.213877e+003,-1.165220e+001
1.214841e+003,-1.187258e+001
1.215806e+003,-1.267931e+001
1.216770e+003,-1.486541e+001
1.217734e+003,-1.664420e+001
1.218698e+003,-1.664818e+001
1.219663e+003,-1.577396e+001
1.220627e+003,-1.499549e+001
1.221591e+003,-1.455950e+001
1.222555e+003,-1.427175e+001
1.223520e+003,-1.394456e+001
1.224484e+003,-1.356989e+001
1.225448e+003,-1.322035e+001
1.226412e+003,-1.285491e+001
1.227376e+003,-1.267090e+001
1.228341e+003,-1.291255e+001
1.229305e+003,-1.309863e+001
1.230269e+003,-1.272498e+001
1.231233e+003,-1.218388e+001
1.232198e+003,-1.246413e+001
1.233162e+003,-1.385571e+001
1.234126e+003,-1.484157e+001
1.235090e+003,-1.387462e+001
1.236055e+003,-1.248498e+001
1.237019e+003,-1.244357e+001
1.237983e+003,-1.336206e+001
1.238947e+003,-1.388161e+001
1.239911e+003,-1.341970e+001
1.240876e+003,-1.308878e+001
1.241840e+003,-1.487177e+001
1.242804e+003,-1.901221e+001
1.243768e+003,-2.073364e+001
1.244733e+003,-1.747247e+001
1.245697e+003,-1.505874e+001
1.246661e+003,-1.452009e+001
1.247625e+003,-1.452822e+001
1.248590e+003,-1.397398e+001
1.249554e+003,-1.298219e+001
1.250518e+003,-1.239333e+001
1.251482e+003,-1.262798e+001
1.252447e+003,-1.329655e+001
1.253411e+003,-1.413109e+001
1.254375e+003,-1.487632e+001
1.255339e+003,-1.496523e+001
1.256303e+003,-1.437807e+001
1.257268e+003,-1.373743e+001
1.258232e+003,-1.341130e+001
1.259196e+003,-1.335625e+001
1.260160e+003,-1.353228e+001
1.261125e+003,-1.402942e+001
1.262089e+003,-1.384783e+001
1.263053e+003,-1.217379e+001
1.264017e+003,-1.080123e+001
1.264982e+003,-1.004413e+001
1.265946e+003,-9.798462e+000
1.266910e+003,-1.023720e+001
1.267874e+003,-1.108808e+001
1.268839e+003,-1.157456e+001
1.269803e+003,-1.116951e+001
1.270767e+003,-1.037500e+001
1.271731e+003,-1.012167e+001
1.272695e+003,-1.039880e+001
1.273660e+003,-1.083325e+001
1.274624e+003,-1.150385e+001
1.275588e+003,-1.234436e+001
1.276552e+003,-1.383234e+001
1.277517e+003,-1.515485e+001
1.278481e+003,-1.430340e+001
1.279445e+003,-1.094102e+001
1.280409e+003,-9.073227e+000
1.281374e+003,-1.131519e+001
1.282338e+003,-1.354063e+001
1.283302e+003,-1.339124e+001
1.284266e+003,-1.221243e+001
1.285230e+003,-1.139947e+001
1.286195e+003,-1.129151e+001
1.287159e+003,-1.162200e+001
1.288123e+003,-1.215359e+001
1.289087e+003,-1.271212e+001
1.290052e+003,-1.284672e+001
1.291016e+003,-1.234298e+001
1.291980e+003,-1.239428e+001
1.292944e+003,-1.337731e+001
1.293909e+003,-1.446884e+001
1.294873e+003,-1.542226e+001
1.295837e+003,-1.617610e+001
1.296801e+003,-1.681475e+001
1.297766e+003,-1.729214e+001
1.298730e+003,-1.698644e+001
1.299694e+003,-1.520912e+001
1.300658e+003,-1.327766e+001
1.301622e+003,-1.284993e+001
1.302587e+003,-1.311714e+001
1.303551e+003,-1.263016e+001
1.304515e+003,-1.122006e+001
1.305479e+003,-1.028307e+001
1.306444e+003,-1.116930e+001
1.307408e+003,-1.312511e+001
1.308372e+003,-1.332703e+001
1.309336e+003,-1.089820e+001
1.310301e+003,-9.441742e+000
1.311265e+003,-9.212914e+000
1.312229e+003,-9.792480e+000
1.313193e+003,-1.193452e+001
1.314157e+003,-1.428962e+001
1.315122e+003,-1.563454e+001
1.316086e+003,-1.574618e+001
1.317050e+003,-1.465727e+001
1.318014e+003,-1.222266e+001
1.318979e+003,-9.787895e+000
1.319943e+003,-1.001369e+001
1.320907e+003,-1.262703e+001
1.321871e+003,-1.512051e+001
1.322836e+003,-1.786569e+001
1.323800e+003,-1.910063e+001
1.324764e+003,-1.698723e+001
1.325728e+003,-1.322440e+001
1.326693e+003,-1.038761e+001
1.327657e+003,-8.577995e+000
1.328621e+003,-8.529655e+000
1.329585e+003,-1.214620e+001
1.330549e+003,-1.431512e+001
1.331514e+003,-1.060735e+001
1.332478e+003,-6.043709e+000
1.333442e+003,-6.152885e+000
1.334406e+003,-1.013074e+001
1.335371e+003,-1.304839e+001
1.336335e+003,-1.195837e+001
1.337299e+003,-9.093094e+000
1.338263e+003,-8.802429e+000
1.339228e+003,-1.152520e+001
1.340192e+003,-1.265057e+001
1.341156e+003,-1.064894e+001
1.342120e+003,-9.423782e+000
1.343084e+003,-1.004417e+001
1.344049e+003,-1.126357e+001
1.345013e+003,-1.236501e+001
1.345977e+003,-1.306949e+001
1.346941e+003,-1.291589e+001
1.347906e+003,-1.170568e+001
1.348870e+003,-1.021080e+001
1.349834e+003,-8.910896e+000
1.350798e+003,-8.037247e+000
1.351763e+003,-7.872475e+000
1.352727e+003,-8.349571e+000
1.353691e+003,-9.330818e+000
1.354655e+003,-1.102967e+001
1.355620e+003,-1.227670e+001
1.356584e+003,-1.081625e+001
1.357548e+003,-7.189880e+000
1.358512e+003,-6.989067e+000
1.359476e+003,-1.250932e+001
1.360441e+003,-1.609956e+001
1.361405e+003,-1.457746e+001
1.362369e+003,-1.204162e+001
1.363333e+003,-9.931870e+000
1.364298e+003,-8.315987e+000
1.365262e+003,-6.854919e+000
1.366226e+003,-5.573708e+000
1.367190e+003,-5.093384e+000
1.368155e+003,-5.993591e+000
1.369119e+003,-7.725594e+000
1.370083e+003,-8.503052e+000
1.371047e+003,-7.928459e+000
1.372011e+003,-7.975632e+000
1.372976e+003,-9.629623e+000
1.373940e+003,-1.070525e+001
1.374904e+003,-9.617889e+000
1.375868e+003,-7.972145e+000
1.376833e+003,-8.171440e+000
1.377797e+003,-1.011121e+001
1.378761e+003,-1.124725e+001
1.379725e+003,-1.028439e+001
1.380690e+003,-8.895897e+000
1.381654e+003,-8.984055e+000
1.382618e+003,-9.602707e+000
1.383582e+003,-9.300293e+000
1.384547e+003,-8.147575e+000
1.385511e+003,-7.313507e+000
1.386475e+003,-7.411720e+000
1.387439e+003,-8.097946e+000
1.388403e+003,-9.092003e+000
1.389368e+003,-1.039513e+001
1.390332e+003,-1.072567e+001
1.391296e+003,-9.489212e+000
1.392260e+003,-8.315880e+000
1.393225e+003,-7.487869e+000
1.394189e+003,-6.928490e+000
1.395153e+003,-6.497078e+000
1.396117e+003,-6.348625e+000
1.397082e+003,-6.800514e+000
1.398046e+003,-7.846558e+000
1.399010e+003,-9.240646e+000
1.399974e+003,-1.082882e+001
1.400938e+003,-1.222002e+001
1.401903e+003,-1.187256e+001
1.402867e+003,-8.984459e+000
1.403831e+003,-7.202583e+000
1.404795e+003,-7.383850e+000
1.405760e+003,-7.588783e+000
1.406724e+003,-7.052467e+000
1.407688e+003,-6.453690e+000
1.408652e+003,-6.475227e+000
1.409617e+003,-7.066414e+000
1.410581e+003,-8.005547e+000
1.411545e+003,-9.355476e+000
1.412509e+003,-1.025138e+001
1.413474e+003,-9.691254e+000
1.414438e+003,-8.289566e+000
1.415402e+003,-6.478279e+000
1.416366e+003,-4.507912e+000
1.417330e+003,-4.098717e+000
1.418295e+003,-6.243820e+000
1.419259e+003,-8.933617e+000
1.420223e+003,-9.885925e+000
1.421187e+003,-9.359741e+000
1.422152e+003,-8.717049e+000
1.423116e+003,-7.865608e+000
1.424080e+003,-7.097137e+000
1.425044e+003,-6.488251e+000
1.426009e+003,-6.109367e+000
1.426973e+003,-5.965225e+000
1.427937e+003,-6.096428e+000
1.428901e+003,-6.776772e+000
1.429865e+003,-7.776131e+000
1.430830e+003,-8.343048e+000
1.431794e+003,-8.011497e+000
1.432758e+003,-7.085457e+000
1.433722e+003,-6.043190e+000
1.434687e+003,-4.738861e+000
1.435651e+003,-4.076401e+000
1.436615e+003,-4.753868e+000
1.437579e+003,-5.412682e+000
1.438544e+003,-6.146263e+000
1.439508e+003,-6.563583e+000
1.440472e+003,-6.058960e+000
1.441436e+003,-5.102089e+000
1.442401e+003,-4.745995e+000
1.443365e+003,-5.191719e+000
1.444329e+003,-5.482117e+000
1.445293e+003,-4.838799e+000
1.446257e+003,-3.765884e+000
1.447222e+003,-3.088913e+000
1.448186e+003,-2.843422e+000
1.449150e+003,-3.384369e+000
1.450114e+003,-4.974678e+000
1.451079e+003,-6.482231e+000
1.452043e+003,-7.619370e+000
1.453007e+003,-8.078499e+000
1.453971e+003,-7.117126e+000
1.454936e+003,-4.982651e+000
1.455900e+003,-3.336327e+000
1.456864e+003,-2.520576e+000
1.457828e+003,-2.101402e+000
1.458792e+003,-1.890678e+000
1.459757e+003,-2.027679e+000
1.460721e+003,-2.939392e+000
1.461685e+003,-4.198402e+000
1.462649e+003,-4.977432e+000
1.463614e+003,-5.031395e+000
1.464578e+003,-4.598732e+000
1.465542e+003,-3.839645e+000
1.466506e+003,-2.922874e+000
1.467471e+003,-2.234856e+000
1.468435e+003,-1.670982e+000
1.469399e+003,-1.516350e+000
1.470363e+003,-2.162308e+000
1.471328e+003,-2.849663e+000
1.472292e+003,-3.561264e+000
1.473256e+003,-4.220734e+000
1.474220e+003,-4.594719e+000
1.475184e+003,-4.816154e+000
1.476149e+003,-5.309555e+000
1.477113e+003,-6.168732e+000
1.478077e+003,-6.970573e+000
1.479041e+003,-7.271416e+000
1.480006e+003,-6.988556e+000
1.480970e+003,-5.859833e+000
1.481934e+003,-3.429596e+000
1.482898e+003,-2.436096e+000
1.483863e+003,-3.990211e+000
1.484827e+003,-5.276146e+000
1.485791e+003,-5.367737e+000
1.486755e+003,-4.959969e+000
1.487719e+003,-4.680954e+000
1.488684e+003,-4.530510e+000
1.489648e+003,-4.137512e+000
1.490612e+003,-3.379372e+000
1.491576e+003,-2.930550e+000
1.492541e+003,-3.603302e+000
1.493505e+003,-4.563309e+000
1.494469e+003,-3.678543e+000
1.495433e+003,-1.344643e+000
1.496398e+003,5.453720e-001
1.497362e+003,2.038979e+000
1.498326e+003,2.546295e+000
1.499290e+003,5.366898e-001
1.500255e+003,-1.789124e+000
1.501219e+003,-1.060226e+000
1.502183e+003,2.222824e+000
1.503147e+003,4.891022e+000
1.504111e+003,6.248627e+000
1.505076e+003,6.984489e+000
1.506040e+003,7.312859e+000
1.507004e+003,7.381165e+000
1.507968e+003,6.905174e+000
1.508933e+003,6.423042e+000
1.509897e+003,7.166496e+000
1.510861e+003,9.384941e+000
1.511825e+003,1.215052e+001
1.512790e+003,1.482884e+001
1.513754e+003,1.745142e+001
1.514718e+003,2.038210e+001
1.515682e+003,2.357040e+001
1.516646e+003,2.550549e+001
1.517611e+003,2.556943e+001
1.518575e+003,2.576168e+001
1.519539e+003,2.725702e+001
1.520503e+003,2.855926e+001
1.521468e+003,2.860027e+001
1.522432e+003,2.803828e+001
1.523396e+003,2.779697e+001
1.524360e+003,2.802103e+001
1.525325e+003,2.847405e+001
1.526289e+003,2.901252e+001
1.527253e+003,2.918814e+001
1.528217e+003,2.813447e+001
1.529182e+003,2.587589e+001
1.530146e+003,2.343647e+001
1.531110e+003,2.052398e+001
1.532074e+003,1.790041e+001
1.533039e+003,1.557053e+001
1.534003e+003,1.333901e+001
1.534967e+003,1.117010e+001
1.535931e+003,9.212265e+000
1.536896e+003,7.667511e+000
1.537860e+003,6.482735e+000
1.538824e+003,5.351250e+000
1.539788e+003,4.105019e+000
1.540752e+003,3.017067e+000
1.541717e+003,2.513367e+000
1.542681e+003,2.508057e+000
1.543645e+003,2.276993e+000
1.544609e+003,1.789215e+000
1.545573e+003,1.289406e+000
1.546538e+003,-9.209442e-002
1.547502e+003,-5.138550e-001
1.548466e+003,1.728729e+000
1.549430e+003,4.548126e+000
1.550395e+003,5.928940e+000
1.551359e+003,5.866928e+000
1.552323e+003,4.919830e+000
1.553287e+003,3.392685e+000
1.554252e+003,2.117004e+000
1.555216e+003,1.827591e+000
1.556180e+003,2.255104e+000
1.557144e+003,3.007446e+000
1.558109e+003,4.109047e+000
1.559073e+003,4.168404e+000
1.560037e+003,2.539673e+000
1.561001e+003,9.911880e-001
1.561966e+003,3.942871e-002
1.562930e+003,-3.850937e-001
1.563894e+003,-4.984970e-001
1.564858e+003,-1.800156e-001
1.565823e+003,1.470451e+000
1.566787e+003,4.429672e+000
1.567751e+003,5.738968e+000
1.568715e+003,3.243950e+000
1.569679e+003,-1.815033e-002
1.570644e+003,-1.844635e-001
1.571608e+003,1.835762e+000
1.572572e+003,3.574890e+000
1.573536e+003,5.011955e+000
1.574500e+003,5.894821e+000
1.575465e+003,5.914337e+000
1.576429e+003,5.657883e+000
1.577393e+003,5.643021e+000
1.578357e+003,5.620453e+000
1.579322e+003,4.747124e+000
1.580286e+003,3.160217e+000
1.581250e+003,3.138840e+000
1.582214e+003,5.865387e+000
1.583179e+003,8.435020e+000
1.584143e+003,8.632126e+000
1.585107e+003,7.489937e+000
1.586071e+003,6.324257e+000
1.587036e+003,5.230774e+000
1.588000e+003,4.260384e+000
1.588964e+003,3.364929e+000
1.589928e+003,2.740448e+000
1.590893e+003,2.341171e+000
1.591857e+003,2.479454e+000
1.592821e+003,4.168259e+000
1.593785e+003,6.984200e+000
1.594750e+003,8.187927e+000
1.595714e+003,7.147491e+000
1.596678e+003,6.279213e+000
1.597642e+003,6.610092e+000
1.598606e+003,7.331360e+000
1.599571e+003,8.118690e+000
1.600535e+003,8.732063e+000
1.601499e+003,8.384438e+000
1.602463e+003,7.400902e+000
1.603427e+003,7.836197e+000
1.604392e+003,1.077187e+001
1.605356e+003,1.336410e+001
1.606320e+003,1.180556e+001
1.607284e+003,7.985527e+000
1.608249e+003,7.854889e+000
1.609213e+003,1.158442e+001
1.610177e+003,1.354340e+001
1.611141e+003,1.204624e+001
1.612106e+003,1.064645e+001
1.613070e+003,1.164352e+001
1.614034e+003,1.280123e+001
1.614998e+003,1.212010e+001
1.615963e+003,1.064082e+001
1.616927e+003,1.016103e+001
1.617891e+003,1.093987e+001
1.618855e+003,1.236584e+001
1.619820e+003,1.421140e+001
1.620784e+003,1.566408e+001
1.621748e+003,1.523111e+001
1.622712e+003,1.342360e+001
1.623677e+003,1.310096e+001
1.624641e+003,1.458739e+001
1.625605e+003,1.580403e+001
1.626569e+003,1.607458e+001
1.627533e+003,1.610209e+001
1.628498e+003,1.653604e+001
1.629462e+003,1.676971e+001
1.630426e+003,1.593705e+001
1.631390e+003,1.454462e+001
1.632354e+003,1.368736e+001
1.633319e+003,1.364400e+001
1.634283e+003,1.415530e+001
1.635247e+003,1.512877e+001
1.636211e+003,1.619856e+001
1.637176e+003,1.670786e+001
1.638140e+003,1.671754e+001
1.639104e+003,1.681416e+001
1.640068e+003,1.708672e+001
1.641033e+003,1.701813e+001
1.641997e+003,1.600235e+001
1.642961e+003,1.537408e+001
1.643925e+003,1.653325e+001
1.644890e+003,1.776206e+001
1.645854e+003,1.690653e+001
1.646818e+003,1.470036e+001
1.647782e+003,1.349113e+001
1.648747e+003,1.394096e+001
1.649711e+003,1.454997e+001
1.650675e+003,1.413279e+001
1.651639e+003,1.307400e+001
1.652604e+003,1.168199e+001
1.653568e+003,9.991974e+000
1.654532e+003,1.041833e+001
1.655496e+003,1.398969e+001
1.656460e+003,1.640753e+001
1.657425e+003,1.569767e+001
1.658389e+003,1.461427e+001
1.659353e+003,1.489890e+001
1.660317e+003,1.541704e+001
1.661281e+003,1.489831e+001
1.662246e+003,1.348701e+001
1.663210e+003,1.182079e+001
1.664174e+003,1.017174e+001
1.665138e+003,9.117577e+000
1.666103e+003,9.154648e+000
1.667067e+003,9.987679e+000
1.668031e+003,1.145200e+001
1.668995e+003,1.343252e+001
1.669960e+003,1.385057e+001
1.670924e+003,1.205743e+001
1.671888e+003,1.094056e+001
1.672852e+003,1.196452e+001
1.673817e+003,1.296511e+001
1.674781e+003,1.253046e+001
1.675745e+003,1.139107e+001
1.676709e+003,9.972717e+000
1.677674e+003,8.583534e+000
1.678638e+003,7.964951e+000
1.679602e+003,8.346588e+000
1.680566e+003,8.916374e+000
1.681531e+003,9.106377e+000
1.682495e+003,9.109131e+000
1.683459e+003,9.381737e+000
1.684423e+003,9.741119e+000
1.685387e+003,8.953186e+000
1.686352e+003,6.699768e+000
1.687316e+003,5.231384e+000
1.688280e+003,5.569160e+000
1.689244e+003,6.263733e+000
1.690208e+003,6.135971e+000
1.691173e+003,5.856239e+000
1.692137e+003,6.378510e+000
1.693101e+003,7.445770e+000
1.694065e+003,8.064049e+000
1.695030e+003,7.947083e+000
1.695994e+003,7.295517e+000
1.696958e+003,5.899529e+000
1.697922e+003,4.501190e+000
1.698887e+003,4.202980e+000
1.699851e+003,4.638733e+000
1.700815e+003,4.579437e+000
1.701779e+003,3.909584e+000
1.702744e+003,3.446480e+000
1.703708e+003,3.539429e+000
1.704672e+003,3.750435e+000
1.705636e+003,3.699997e+000
1.706601e+003,3.514221e+000
1.707565e+003,3.348091e+000
1.708529e+003,3.312798e+000
1.709493e+003,3.873634e+000
1.710458e+003,5.214546e+000
1.711422e+003,5.816414e+000
1.712386e+003,4.346184e+000
1.713350e+003,2.857414e+000
1.714314e+003,3.352356e+000
1.715279e+003,4.596992e+000
1.716243e+003,4.471481e+000
1.717207e+003,3.095909e+000
1.718171e+003,1.853310e+000
1.719135e+003,1.139938e+000
1.720100e+003,6.151123e-001
1.721064e+003,7.321930e-002
1.722028e+003,-5.238342e-001
1.722992e+003,-1.428192e+000
1.723957e+003,-2.333130e+000
1.724921e+003,-1.549095e+000
1.725885e+003,1.274635e+000
1.726849e+003,2.925461e+000
1.727814e+003,1.977585e+000
1.728778e+003,1.220428e+000
1.729742e+003,2.444084e+000
1.730706e+003,3.820564e+000
1.731671e+003,3.096504e+000
1.732635e+003,1.184883e+000
1.733599e+003,4.632645e-001
1.734563e+003,1.231529e+000
1.735528e+003,1.919838e+000
1.736492e+003,1.674049e+000
1.737456e+003,9.721069e-001
1.738420e+003,3.277435e-001
1.739385e+003,-2.399216e-001
1.740349e+003,-5.154877e-001
1.741313e+003,-4.551620e-001
1.742277e+003,-1.295853e-001
1.743241e+003,1.330673e+000
1.744206e+003,1.776855e+000
1.745170e+003,-4.652786e-001
1.746134e+003,-2.213600e+000
1.747098e+003,-9.049606e-001
1.748063e+003,1.230614e+000
1.749027e+003,1.196869e+000
1.749991e+003,-3.997803e-001
1.750955e+003,-8.141708e-001
1.751919e+003,7.054672e-001
1.752884e+003,2.221405e+000
1.753848e+003,2.126610e+000
1.754812e+003,1.057236e+000
1.755776e+003,2.593384e-001
1.756741e+003,-2.234192e-001
1.757705e+003,-3.236618e-001
1.758669e+003,4.554749e-003
1.759633e+003,4.807968e-001
1.760598e+003,1.527550e+000
1.761562e+003,1.976440e+000
1.762526e+003,1.137093e+000
1.763490e+003,5.163574e-002
1.764455e+003,-9.876862e-001
1.765419e+003,-1.543999e+000
1.766383e+003,-7.299194e-001
1.767347e+003,1.169205e+000
1.768312e+003,2.616882e+000
1.769276e+003,2.878281e+000
1.770240e+003,2.504837e+000
1.771204e+003,2.016243e+000
1.772168e+003,1.499664e+000
1.773133e+003,1.075310e+000
1.774097e+003,7.187958e-001
1.775061e+003,1.334610e-001
1.776025e+003,-8.316803e-001
1.776990e+003,-1.467926e+000
1.777954e+003,-1.413818e+000
1.778918e+003,-1.097878e+000
1.779882e+003,-7.158432e-001
1.780846e+003,-4.238281e-001
1.781811e+003,-3.815079e-001
1.782775e+003,-5.404587e-001
1.783739e+003,-9.385300e-001
1.784703e+003,-1.647408e+000
1.785668e+003,-1.605766e+000
1.786632e+003,4.361420e-001
1.787596e+003,2.152855e+000
1.788560e+003,1.589432e+000
1.789525e+003,-1.539612e-002
1.790489e+003,-1.396713e+000
1.791453e+003,-2.294815e+000
1.792417e+003,-2.214722e+000
1.793382e+003,-1.119652e+000
1.794346e+003,4.358215e-001
1.795310e+003,2.224617e+000
1.796274e+003,3.528511e+000
1.797239e+003,3.506950e+000
1.798203e+003,2.532471e+000
1.799167e+003,1.503937e+000
1.800131e+003,1.766663e-001
1.801095e+003,-2.384644e-001
1.802060e+003,1.475380e+000
1.803024e+003,2.255440e+000
1.803988e+003,8.424988e-001
1.804952e+003,-4.361191e-001
1.805917e+003,-4.015884e-001
1.806881e+003,2.251892e-001
1.807845e+003,8.268127e-001
1.808809e+003,1.344696e+000
1.809773e+003,2.001999e+000
1.810738e+003,2.737022e+000
1.811702e+003,3.013374e+000
1.812666e+003,2.504761e+000
1.813630e+003,1.703270e+000
1.814595e+003,1.217056e+000
1.815559e+003,1.049278e+000
1.816523e+003,1.486252e+000
1.817487e+003,2.680779e+000
1.818452e+003,2.754662e+000
1.819416e+003,1.144859e+000
1.820380e+003,-6.011200e-002
1.821344e+003,-1.063995e-001
1.822309e+003,1.212311e-002
1.823273e+003,-4.911423e-001
1.824237e+003,-9.022217e-001
1.825201e+003,-3.172379e-001
1.826166e+003,8.970032e-001
1.827130e+003,1.885117e+000
1.828094e+003,2.456360e+000
1.829058e+003,2.210777e+000
1.830022e+003,5.250244e-001
1.830987e+003,-1.024330e+000
1.831951e+003,-1.072304e+000
1.832915e+003,-2.358551e-001
1.833879e+003,9.878311e-001
1.834844e+003,2.243858e+000
1.835808e+003,2.349586e+000
1.836772e+003,1.322792e+000
1.837736e+003,1.155533e+000
1.838700e+003,2.739548e+000
1.839665e+003,4.084206e+000
1.840629e+003,3.297424e+000
1.841593e+003,1.343758e+000
1.842557e+003,1.211014e-001
1.843522e+003,-3.717422e-001
1.844486e+003,-5.243683e-002
1.845450e+003,1.988007e+000
1.846414e+003,3.192932e+000
1.847379e+003,2.944229e+000
1.848343e+003,2.554459e+000
1.849307e+003,2.593498e+000
1.850271e+003,2.478607e+000
1.851236e+003,1.456657e+000
1.852200e+003,2.557755e-001
1.853164e+003,-7.144928e-002
1.854128e+003,3.458176e-001
1.855093e+003,7.378387e-001
1.856057e+003,8.236618e-001
1.857021e+003,7.275314e-001
1.857985e+003,4.929123e-001
1.858949e+003,2.738647e-001
1.859914e+003,3.133087e-001
1.860878e+003,6.296768e-001
1.861842e+003,1.371262e+000
1.862806e+003,2.537041e+000
1.863771e+003,3.392792e+000
1.864735e+003,3.826164e+000
1.865699e+003,3.796875e+000
1.866663e+003,3.184517e+000
1.867627e+003,2.364540e+000
1.868592e+003,1.258987e+000
1.869556e+003,3.387222e-001
1.870520e+003,6.150818e-001
1.871484e+003,1.956444e+000
1.872449e+003,3.811592e+000
1.873413e+003,6.845032e+000
1.874377e+003,8.207794e+000
1.875341e+003,5.461723e+000
1.876306e+003,2.715782e+000
1.877270e+003,2.456894e+000
1.878234e+003,2.933182e+000
1.879198e+003,2.106644e+000
1.880163e+003,8.125458e-001
1.881127e+003,1.055298e+000
1.882091e+003,2.746300e+000
1.883055e+003,4.190384e+000
1.884020e+003,4.657051e+000
1.884984e+003,4.714722e+000
1.885948e+003,4.887154e+000
1.886912e+003,4.981621e+000
1.887876e+003,4.588493e+000
1.888841e+003,3.752022e+000
1.889805e+003,2.844627e+000
1.890769e+003,1.668648e+000
1.891733e+003,1.583649e+000
1.892698e+003,3.181450e+000
1.893662e+003,4.670036e+000
1.894626e+003,5.661362e+000
1.895590e+003,6.110237e+000
1.896554e+003,5.671181e+000
1.897519e+003,4.956345e+000
1.898483e+003,4.497475e+000
1.899447e+003,4.335861e+000
1.900411e+003,4.758553e+000
1.901376e+003,5.880951e+000
1.902340e+003,6.660156e+000
1.903304e+003,6.637352e+000
1.904268e+003,6.269966e+000
1.905233e+003,5.803299e+000
1.906197e+003,5.195618e+000
1.907161e+003,3.917229e+000
1.908125e+003,2.731453e+000
1.909090e+003,3.297104e+000
1.910054e+003,5.258118e+000
1.911018e+003,6.924614e+000
1.911982e+003,7.619827e+000
1.912947e+003,6.973808e+000
1.913911e+003,4.695969e+000
1.914875e+003,2.450096e+000
1.915839e+003,2.965797e+000
1.916803e+003,5.515251e+000
1.917768e+003,6.569870e+000
1.918732e+003,5.989052e+000
1.919696e+003,4.971786e+000
1.920660e+003,3.233093e+000
1.921625e+003,1.969711e+000
1.922589e+003,1.013931e+000
1.923553e+003,1.198975e+000
1.924517e+003,4.428482e+000
1.925481e+003,7.705841e+000
1.926446e+003,8.061470e+000
1.927410e+003,6.695099e+000
1.928374e+003,6.003860e+000
1.929338e+003,6.097641e+000
1.930303e+003,5.863945e+000
1.931267e+003,4.874367e+000
1.932231e+003,4.258858e+000
1.933195e+003,4.635544e+000
1.934160e+003,5.324783e+000
1.935124e+003,6.255768e+000
1.936088e+003,6.853905e+000
1.937052e+003,5.991974e+000
1.938017e+003,4.488091e+000
1.938981e+003,4.293114e+000
1.939945e+003,5.463783e+000
1.940909e+003,6.394539e+000
1.941874e+003,6.370605e+000
1.942838e+003,6.289597e+000
1.943802e+003,7.048973e+000
1.944766e+003,8.185165e+000
1.945730e+003,8.703506e+000
1.946695e+003,8.617432e+000
1.947659e+003,8.136696e+000
1.948623e+003,7.150154e+000
1.949587e+003,6.991623e+000
1.950552e+003,8.065117e+000
1.951516e+003,8.998642e+000
1.952480e+003,9.374863e+000
1.953444e+003,9.410828e+000
1.954408e+003,8.981987e+000
1.955373e+003,8.509468e+000
1.956337e+003,8.840775e+000
1.957301e+003,9.710609e+000
1.958265e+003,9.976547e+000
1.959230e+003,9.554588e+000
1.960194e+003,9.088020e+000
1.961158e+003,8.534760e+000
1.962122e+003,7.986115e+000
1.963087e+003,7.473312e+000
1.964051e+003,6.991379e+000
1.965015e+003,6.653336e+000
1.965979e+003,6.326477e+000
1.966944e+003,5.518654e+000
1.967908e+003,4.702507e+000
1.968872e+003,4.983810e+000
1.969836e+003,6.233856e+000
1.970801e+003,7.156082e+000
1.971765e+003,7.217232e+000
1.972729e+003,7.067719e+000
1.973693e+003,7.184158e+000
1.974657e+003,7.594215e+000
1.975622e+003,8.529343e+000
1.976586e+003,9.694031e+000
1.977550e+003,1.027815e+001
1.978514e+003,1.038593e+001
1.979479e+003,1.065102e+001
1.980443e+003,1.114204e+001
1.981407e+003,1.162505e+001
1.982371e+003,1.206731e+001
1.983335e+003,1.167153e+001
1.984300e+003,9.630585e+000
1.985264e+003,7.280357e+000
1.986228e+003,6.756958e+000
1.987192e+003,7.721916e+000
1.988157e+003,8.444603e+000
1.989121e+003,8.901314e+000
1.990085e+003,9.333046e+000
1.991049e+003,9.954720e+000
1.992014e+003,1.016499e+001
1.992978e+003,9.289040e+000
1.993942e+003,8.767487e+000
1.994906e+003,9.618172e+000
1.995871e+003,1.045692e+001
1.996835e+003,9.972824e+000
1.997799e+003,9.039192e+000
1.998763e+003,9.134850e+000
1.999728e+003,1.001295e+001
