5.003444e+002,2.550452e+001
5.013087e+002,2.564087e+001
5.022729e+002,2.460388e+001
5.032371e+002,2.276013e+001
5.042014e+002,1.883972e+001
5.051656e+002,1.344104e+001
5.061298e+002,9.352051e+000
5.070941e+002,9.194336e+000
5.080583e+002,1.376343e+001
5.090225e+002,1.586682e+001
5.099868e+002,1.284558e+001
5.109510e+002,1.082813e+001
5.119152e+002,1.428882e+001
5.128795e+002,2.392773e+001
5.138437e+002,3.068054e+001
5.148079e+002,3.008521e+001
5.157722e+002,2.763525e+001
5.167364e+002,2.437183e+001
5.177006e+002,2.083838e+001
5.186649e+002,1.753223e+001
5.196291e+002,1.602136e+001
5.205933e+002,1.575330e+001
5.215576e+002,1.518311e+001
5.225218e+002,1.373621e+001
5.234860e+002,1.162598e+001
5.244503e+002,9.884521e+000
5.254145e+002,9.483887e+000
5.263787e+002,8.673706e+000
5.273430e+002,6.386353e+000
5.283072e+002,4.393677e+000
5.292714e+002,5.334717e+000
5.302357e+002,1.076538e+001
5.311999e+002,1.380725e+001
5.321641e+002,1.388293e+001
5.331284e+002,1.299939e+001
5.340926e+002,1.222302e+001
5.350568e+002,1.161377e+001
5.360211e+002,1.064392e+001
5.369853e+002,9.876465e+000
5.379495e+002,9.203979e+000
5.389138e+002,7.823242e+000
5.398780e+002,5.550781e+000
5.408422e+002,3.220825e+000
5.418065e+002,3.913208e+000
5.427707e+002,7.151855e+000
5.437349e+002,1.010864e+001
5.446992e+002,1.226733e+001
5.456634e+002,1.332190e+001
5.466276e+002,1.237158e+001
5.475919e+002,6.275391e+000
5.485561e+002,2.574219e+000
5.495203e+002,2.739868e+000
5.504846e+002,4.550537e+000
5.514488e+002,4.883911e+000
5.524130e+002,2.193359e+000
5.533773e+002,7.800293e-002
5.543415e+002,2.059326e-001
5.553057e+002,1.750122e+000
5.562700e+002,4.140381e+000
5.572342e+002,6.922119e+000
5.581984e+002,9.286011e+000
5.591627e+002,9.491577e+000
5.601269e+002,8.614868e+000
5.610911e+002,8.102905e+000
5.620554e+002,8.572144e+000
5.630196e+002,9.535522e+000
5.639838e+002,8.669800e+000
5.649481e+002,3.930298e+000
5.659123e+002,4.079590e-001
5.668765e+002,4.592285e-001
5.678408e+002,3.215820e+000
5.688050e+002,5.160767e+000
5.697692e+002,3.557007e+000
5.707335e+002,1.752808e+000
5.716977e+002,1.580933e+000
5.726619e+002,2.061646e+000
5.736262e+002,1.518066e+000
5.745904e+002,-1.393677e+000
5.755546e+002,-4.231812e+000
5.765189e+002,-3.582642e+000
5.774831e+002,-1.131104e+000
5.784473e+002,1.261597e+000
5.794116e+002,2.572754e+000
5.803758e+002,3.224731e+000
5.813400e+002,2.974854e+000
5.823043e+002,4.916992e-001
5.832685e+002,-1.647461e+000
5.842327e+002,-1.773193e+000
5.851970e+002,2.064209e-001
5.861612e+002,2.309937e+000
5.871254e+002,4.939209e+000
5.880897e+002,5.877197e+000
5.890539e+002,2.643433e+000
5.900181e+002,-2.534790e+000
5.909824e+002,-5.607056e+000
5.919466e+002,-3.043091e+000
5.929108e+002,8.402100e-001
5.938751e+002,1.120361e+000
5.948393e+002,-7.321777e-001
5.958035e+002,-2.445068e+000
5.967678e+002,-2.263306e+000
5.977320e+002,-2.835693e-001
5.986962e+002,7.806396e-001
5.996605e+002,2.030029e-001
6.006247e+002,-3.437500e-001
6.015889e+002,2.285156e-001
6.025532e+002,1.866333e+000
6.035174e+002,2.694214e+000
6.044816e+002,2.611084e+000
6.054459e+002,1.885742e+000
6.064101e+002,-3.231201e-001
6.073743e+002,-3.092041e+000
6.083386e+002,-4.798584e+000
6.093028e+002,-4.386475e+000
6.102670e+002,-2.577393e+000
6.112313e+002,6.232910e-001
6.121955e+002,4.068359e+000
6.131597e+002,6.089111e+000
6.141240e+002,5.560303e+000
6.150882e+002,3.232422e+000
6.160524e+002,3.062744e+000
6.170167e+002,4.950684e+000
6.179809e+002,6.530640e+000
6.189451e+002,6.449341e+000
6.199094e+002,4.554321e+000
6.208736e+002,1.996216e+000
6.218378e+002,-2.142578e+000
6.228021e+002,-4.489624e+000
6.237663e+002,-3.031372e+000
6.247305e+002,1.712646e-001
6.256948e+002,1.197876e+000
6.266590e+002,-3.237793e+000
6.276232e+002,-7.386597e+000
6.285875e+002,-6.706299e+000
6.295517e+002,-3.642700e+000
6.305159e+002,-3.619385e-001
6.314802e+002,1.613525e+000
6.324444e+002,1.699219e+000
6.334086e+002,-3.261719e+000
6.343729e+002,-1.075977e+001
6.353371e+002,-1.405322e+001
6.363013e+002,-1.014014e+001
6.372656e+002,-1.762085e+000
6.382298e+002,1.739990e+000
6.391940e+002,-5.554321e+000
6.401583e+002,-1.084058e+001
6.411225e+002,-1.241028e+001
6.420867e+002,-1.143799e+001
6.430510e+002,-9.415649e+000
6.440152e+002,-6.723022e+000
6.449794e+002,-5.203491e+000
6.459437e+002,-6.371460e+000
6.469079e+002,-8.359741e+000
6.478721e+002,-9.765869e+000
6.488364e+002,-9.873169e+000
6.498006e+002,-8.774536e+000
6.507648e+002,-6.176880e+000
6.517291e+002,-3.069702e+000
6.526933e+002,-1.679443e+000
6.536575e+002,-2.544312e+000
6.546218e+002,-4.526245e+000
6.555860e+002,-5.441528e+000
6.565502e+002,-5.134399e+000
6.575145e+002,-3.909790e+000
6.584787e+002,-6.149902e-001
6.594429e+002,2.660522e+000
6.604072e+002,4.436401e+000
6.613714e+002,4.525146e+000
6.623356e+002,3.328369e+000
6.632999e+002,-9.306641e-001
6.642641e+002,-5.525635e+000
6.652283e+002,-8.979126e+000
6.661926e+002,-1.066687e+001
6.671568e+002,-1.039893e+001
6.681210e+002,-7.417969e+000
6.690853e+002,-3.619263e+000
6.700495e+002,-3.701416e+000
6.710137e+002,-7.424683e+000
6.719780e+002,-1.095471e+001
6.729422e+002,-1.014282e+001
6.739064e+002,-4.165771e+000
6.748707e+002,-5.175781e-002
6.758349e+002,2.827271e+000
6.767991e+002,3.570190e+000
6.777634e+002,9.815674e-001
6.787276e+002,-3.879395e+000
6.796918e+002,-6.489014e+000
6.806561e+002,-4.486816e+000
6.816203e+002,-1.669800e+000
6.825845e+002,1.650513e+000
6.835488e+002,4.566772e+000
6.845130e+002,5.916626e+000
6.854772e+002,4.869873e+000
6.864415e+002,2.643311e+000
6.874057e+002,6.098633e-001
6.883699e+002,-1.716309e+000
6.893342e+002,-3.949951e+000
6.902984e+002,-5.755493e+000
6.912626e+002,-6.790161e+000
6.922269e+002,-6.006470e+000
6.931911e+002,4.619141e-001
6.941553e+002,5.263916e+000
6.951196e+002,6.241699e+000
6.960838e+002,4.688721e+000
6.970480e+002,3.041504e+000
6.980123e+002,2.015381e+000
6.989765e+002,1.224609e+000
6.999407e+002,7.934570e-002
7.009050e+002,-9.194336e-001
7.018692e+002,-1.208740e+000
7.028334e+002,-7.766113e-001
7.037977e+002,-4.101563e-001
7.047619e+002,-1.044678e+000
7.057261e+002,-1.976440e+000
7.066904e+002,-2.799561e+000
7.076546e+002,-3.494507e+000
7.086188e+002,-4.169678e+000
7.095831e+002,-5.130493e+000
7.105473e+002,-7.380981e+000
7.115115e+002,-7.465942e+000
7.124758e+002,-4.277344e+000
7.134400e+002,-9.211426e-001
7.144042e+002,1.751709e+000
7.153685e+002,3.789063e+000
7.163327e+002,3.619019e+000
7.172969e+002,-3.623169e+000
7.182612e+002,-9.261475e+000
7.192254e+002,-8.548584e+000
7.201896e+002,-3.714600e+000
7.211539e+002,3.994141e-001
7.221181e+002,-1.933594e-001
7.230823e+002,-3.838257e+000
7.240466e+002,-6.576050e+000
7.250108e+002,-7.822388e+000
7.259750e+002,-6.098755e+000
7.269393e+002,-4.835205e-001
7.279035e+002,7.495605e+000
7.288677e+002,1.057727e+001
7.298320e+002,4.723145e+000
7.307962e+002,1.467651e+000
7.317604e+002,3.329468e+000
7.327247e+002,7.649170e+000
7.336889e+002,9.981079e+000
7.346531e+002,7.582886e+000
7.356174e+002,4.670410e+000
7.365816e+002,5.956543e+000
7.375458e+002,8.330688e+000
7.385101e+002,8.970947e+000
7.394743e+002,7.379150e+000
7.404385e+002,5.516968e+000
7.414028e+002,6.192993e+000
7.423670e+002,7.753174e+000
7.433312e+002,8.536743e+000
7.442955e+002,9.469727e+000
7.452597e+002,1.028601e+001
7.462239e+002,9.765991e+000
7.471882e+002,6.663452e+000
7.481524e+002,6.511353e+000
7.491166e+002,1.004602e+001
7.500809e+002,1.323450e+001
7.510451e+002,1.522571e+001
7.520093e+002,1.576099e+001
7.529736e+002,1.440344e+001
7.539378e+002,1.047559e+001
7.549020e+002,6.962769e+000
7.558663e+002,5.513916e+000
7.568306e+002,5.460327e+000
7.577948e+002,5.709961e+000
7.587590e+002,5.393066e+000
7.597233e+002,4.436646e+000
7.606875e+002,4.264526e+000
7.616517e+002,5.186157e+000
7.626160e+002,5.125732e+000
7.635802e+002,3.020874e+000
7.645444e+002,4.888916e-001
7.655087e+002,1.339844e+000
7.664729e+002,9.046997e+000
7.674371e+002,1.169543e+001
7.684014e+002,4.734497e+000
7.693656e+002,-3.152588e+000
7.703298e+002,-6.181396e+000
7.712941e+002,-3.740112e+000
7.722583e+002,-2.349854e-001
7.732225e+002,1.018433e+000
7.741868e+002,2.230591e+000
7.751510e+002,5.746704e+000
7.761152e+002,1.078430e+001
7.770795e+002,1.540576e+001
7.780437e+002,1.782288e+001
7.790079e+002,1.786523e+001
7.799722e+002,1.436951e+001
7.809364e+002,6.755493e+000
7.819006e+002,9.921875e-001
7.828649e+002,5.352783e-001
7.838291e+002,4.342163e+000
7.847933e+002,8.023926e+000
7.857576e+002,1.139197e+001
7.867218e+002,1.245764e+001
7.876860e+002,1.107556e+001
7.886503e+002,8.783569e+000
7.896145e+002,6.327637e+000
7.905787e+002,4.054321e+000
7.915430e+002,2.651855e+000
7.925072e+002,3.005005e+000
7.934714e+002,3.466187e+000
7.944357e+002,2.686768e+000
7.953999e+002,1.248413e+000
7.963641e+002,8.293457e-001
7.973284e+002,3.167480e+000
7.982926e+002,8.525513e+000
7.992568e+002,1.159229e+001
8.002211e+002,1.115869e+001
8.011853e+002,8.467041e+000
8.021495e+002,3.509766e+000
8.031138e+002,-1.716309e+000
8.040780e+002,-2.753906e+000
8.050422e+002,3.114868e+000
8.060065e+002,8.210449e+000
8.069707e+002,9.264771e+000
8.079349e+002,8.147461e+000
8.088992e+002,6.877563e+000
8.098634e+002,6.500977e+000
8.108276e+002,6.670532e+000
8.117919e+002,6.212402e+000
8.127561e+002,4.515625e+000
8.137203e+002,2.232422e+000
8.146846e+002,1.835938e-001
8.156488e+002,-3.197021e-001
8.166130e+002,2.215576e+000
8.175773e+002,8.657715e+000
8.185415e+002,1.166394e+001
8.195057e+002,7.696167e+000
8.204700e+002,4.094604e+000
8.214342e+002,3.358276e+000
8.223984e+002,4.893921e+000
8.233627e+002,7.079102e+000
8.243269e+002,1.037598e+001
8.252911e+002,1.272839e+001
8.262554e+002,1.276636e+001
8.272196e+002,1.153564e+001
8.281838e+002,9.402222e+000
8.291481e+002,6.851929e+000
8.301123e+002,5.084473e+000
8.310765e+002,6.779907e+000
8.320408e+002,1.131555e+001
8.330050e+002,1.307214e+001
8.339692e+002,1.147668e+001
8.349335e+002,8.524658e+000
8.358977e+002,6.173950e+000
8.368619e+002,4.780640e+000
8.378262e+002,4.192871e+000
8.387904e+002,1.908813e+000
8.397546e+002,2.253174e+000
8.407189e+002,8.733154e+000
8.416831e+002,1.816040e+001
8.426473e+002,2.510498e+001
8.436116e+002,2.704077e+001
8.445758e+002,2.698059e+001
8.455400e+002,2.746448e+001
8.465043e+002,2.695776e+001
8.474685e+002,2.396411e+001
8.484327e+002,1.889697e+001
8.493970e+002,1.384839e+001
8.503612e+002,1.147412e+001
8.513254e+002,1.187317e+001
8.522897e+002,1.304712e+001
8.532539e+002,1.523914e+001
8.542181e+002,1.692053e+001
8.551824e+002,1.775818e+001
8.561466e+002,1.850122e+001
8.571108e+002,1.995459e+001
8.580751e+002,2.069189e+001
8.590393e+002,2.090100e+001
8.600035e+002,2.033374e+001
8.609678e+002,2.060193e+001
8.619320e+002,2.443713e+001
8.628962e+002,3.242297e+001
8.638605e+002,4.007800e+001
8.648247e+002,3.923743e+001
8.657889e+002,3.325476e+001
8.667532e+002,2.972998e+001
8.677174e+002,2.964368e+001
8.686816e+002,3.039026e+001
8.696459e+002,2.910461e+001
8.706101e+002,2.581250e+001
8.715743e+002,2.300024e+001
8.725386e+002,1.840955e+001
8.735028e+002,1.712415e+001
8.744670e+002,2.210388e+001
8.754313e+002,2.995166e+001
8.763955e+002,3.470959e+001
8.773597e+002,3.404480e+001
8.783240e+002,3.293298e+001
8.792882e+002,3.560059e+001
8.802524e+002,3.858972e+001
8.812167e+002,3.882471e+001
8.821809e+002,3.587683e+001
8.831451e+002,3.137598e+001
8.841094e+002,2.741260e+001
8.850736e+002,2.460925e+001
8.860378e+002,2.417456e+001
8.870021e+002,2.609253e+001
8.879663e+002,2.849329e+001
8.889305e+002,3.059351e+001
8.898948e+002,3.205139e+001
8.908590e+002,3.200842e+001
8.918232e+002,2.969141e+001
8.927875e+002,2.814441e+001
8.937517e+002,2.728906e+001
8.947159e+002,2.788171e+001
8.956802e+002,3.096973e+001
8.966444e+002,3.594568e+001
8.976086e+002,4.005554e+001
8.985729e+002,4.104456e+001
8.995371e+002,4.020300e+001
9.005013e+002,3.862109e+001
9.014656e+002,3.693616e+001
9.024298e+002,3.651953e+001
9.033940e+002,3.815076e+001
9.043583e+002,4.098743e+001
9.053225e+002,4.236804e+001
9.062867e+002,4.068054e+001
9.072510e+002,3.851343e+001
9.082152e+002,3.638977e+001
9.091794e+002,3.495288e+001
9.101437e+002,3.458325e+001
9.111079e+002,3.527527e+001
9.120721e+002,3.675171e+001
9.130364e+002,3.915051e+001
9.140006e+002,4.089844e+001
9.149648e+002,4.145056e+001
9.159291e+002,4.147961e+001
9.168933e+002,4.168359e+001
9.178575e+002,4.226294e+001
9.188218e+002,4.291248e+001
9.197860e+002,4.390051e+001
9.207502e+002,4.501367e+001
9.217145e+002,4.446960e+001
9.226787e+002,4.146790e+001
9.236429e+002,3.863220e+001
9.246072e+002,3.954504e+001
9.255714e+002,4.484326e+001
9.265356e+002,4.787280e+001
9.274999e+002,4.521936e+001
9.284641e+002,4.209900e+001
9.294283e+002,4.097253e+001
9.303926e+002,4.101355e+001
9.313568e+002,4.012000e+001
9.323210e+002,3.711597e+001
9.332853e+002,3.317322e+001
9.342495e+002,2.929199e+001
9.352137e+002,2.581946e+001
9.361780e+002,2.493384e+001
9.371422e+002,2.748218e+001
9.381064e+002,3.064929e+001
9.390707e+002,2.953613e+001
9.400349e+002,2.205884e+001
9.409991e+002,1.991528e+001
9.419634e+002,2.660181e+001
9.429276e+002,3.298816e+001
9.438918e+002,3.780957e+001
9.448561e+002,4.076953e+001
9.458203e+002,4.089636e+001
9.467845e+002,3.737292e+001
9.477488e+002,3.493445e+001
9.487130e+002,3.844373e+001
9.496772e+002,4.327014e+001
9.506415e+002,4.622058e+001
9.516057e+002,4.682471e+001
9.525699e+002,4.572009e+001
9.535342e+002,4.340149e+001
9.544984e+002,3.988489e+001
9.554626e+002,3.771228e+001
9.564269e+002,3.784473e+001
9.573911e+002,3.884998e+001
9.583553e+002,4.036292e+001
9.593196e+002,4.211792e+001
9.602838e+002,4.382129e+001
9.612480e+002,4.533215e+001
9.622123e+002,4.633740e+001
9.631765e+002,4.718567e+001
9.641407e+002,4.759106e+001
9.651050e+002,4.706592e+001
9.660692e+002,4.554529e+001
9.670334e+002,4.327856e+001
9.679977e+002,4.076978e+001
9.689619e+002,3.889014e+001
9.699261e+002,3.821838e+001
9.708904e+002,3.809290e+001
9.718546e+002,3.852063e+001
9.728188e+002,3.927014e+001
9.737831e+002,4.027136e+001
9.747473e+002,4.186890e+001
9.757115e+002,4.451172e+001
9.766758e+002,4.655615e+001
9.776400e+002,4.894971e+001
9.786042e+002,5.068811e+001
9.795685e+002,5.101758e+001
9.805327e+002,4.983704e+001
9.814969e+002,4.714929e+001
9.824612e+002,4.336340e+001
9.834254e+002,4.033167e+001
9.843896e+002,3.856445e+001
9.853539e+002,3.831738e+001
9.863181e+002,4.134106e+001
9.872823e+002,4.646094e+001
9.882466e+002,5.008276e+001
9.892108e+002,4.970398e+001
9.901750e+002,4.709399e+001
9.911393e+002,4.835156e+001
9.921035e+002,5.452454e+001
9.930677e+002,5.919849e+001
9.940320e+002,6.272803e+001
9.949962e+002,6.560010e+001
9.959604e+002,6.746094e+001
9.969247e+002,6.859375e+001
9.978889e+002,7.179248e+001
9.988531e+002,7.962341e+001
9.998174e+002,8.616199e+001
1.000782e+003,8.805066e+001
1.001746e+003,8.749438e+001
1.002710e+003,8.738086e+001
1.003674e+003,8.891382e+001
1.004639e+003,9.115784e+001
1.005603e+003,9.254639e+001
1.006567e+003,9.272864e+001
1.007531e+003,9.273853e+001
1.008495e+003,9.255237e+001
1.009460e+003,9.249353e+001
1.010424e+003,9.347021e+001
1.011388e+003,9.511743e+001
1.012352e+003,9.495337e+001
1.013317e+003,9.067273e+001
1.014281e+003,8.788293e+001
1.015245e+003,9.119604e+001
1.016209e+003,9.327588e+001
1.017174e+003,8.750012e+001
1.018138e+003,7.501733e+001
1.019102e+003,6.259436e+001
1.020066e+003,5.578186e+001
1.021031e+003,5.373987e+001
1.021995e+003,5.355872e+001
1.022959e+003,5.424219e+001
1.023923e+003,5.465063e+001
1.024887e+003,5.485071e+001
1.025852e+003,5.354248e+001
1.026816e+003,4.833826e+001
1.027780e+003,3.858252e+001
1.028744e+003,3.070898e+001
1.029709e+003,2.531165e+001
1.030673e+003,2.134851e+001
1.031637e+003,1.872522e+001
1.032601e+003,1.687158e+001
1.033566e+003,1.508215e+001
1.034530e+003,1.335754e+001
1.035494e+003,1.326868e+001
1.036458e+003,1.745752e+001
1.037422e+003,2.333398e+001
1.038387e+003,2.687842e+001
1.039351e+003,2.784094e+001
1.040315e+003,2.745325e+001
1.041279e+003,2.675403e+001
1.042244e+003,2.609192e+001
1.043208e+003,2.570190e+001
1.044172e+003,2.399231e+001
1.045136e+003,2.413611e+001
1.046101e+003,2.938721e+001
1.047065e+003,3.393066e+001
1.048029e+003,3.270386e+001
1.048993e+003,2.692847e+001
1.049958e+003,2.277075e+001
1.050922e+003,2.397449e+001
1.051886e+003,2.653418e+001
1.052850e+003,2.605066e+001
1.053814e+003,2.416528e+001
1.054779e+003,2.291479e+001
1.055743e+003,2.262964e+001
1.056707e+003,2.234912e+001
1.057671e+003,2.090735e+001
1.058636e+003,1.815100e+001
1.059600e+003,1.639551e+001
1.060564e+003,1.596057e+001
1.061528e+003,1.772461e+001
1.062493e+003,2.325586e+001
1.063457e+003,2.879199e+001
1.064421e+003,3.005188e+001
1.065385e+003,2.694507e+001
1.066349e+003,2.449536e+001
1.067314e+003,2.644629e+001
1.068278e+003,2.839624e+001
1.069242e+003,2.646631e+001
1.070206e+003,2.303638e+001
1.071171e+003,2.176440e+001
1.072135e+003,2.380383e+001
1.073099e+003,2.705176e+001
1.074063e+003,2.848560e+001
1.075028e+003,2.813708e+001
1.075992e+003,2.916064e+001
1.076956e+003,3.257373e+001
1.077920e+003,3.433923e+001
1.078885e+003,3.278076e+001
1.079849e+003,2.966724e+001
1.080813e+003,2.795361e+001
1.081777e+003,2.846326e+001
1.082741e+003,2.863220e+001
1.083706e+003,2.444653e+001
1.084670e+003,2.052441e+001
1.085634e+003,1.997656e+001
1.086598e+003,2.167688e+001
1.087563e+003,2.351636e+001
1.088527e+003,2.453003e+001
1.089491e+003,2.516040e+001
1.090455e+003,2.516223e+001
1.091420e+003,2.388257e+001
1.092384e+003,2.297937e+001
1.093348e+003,2.219104e+001
1.094312e+003,2.118982e+001
1.095276e+003,2.013391e+001
1.096241e+003,1.954797e+001
1.097205e+003,1.990381e+001
1.098169e+003,2.112939e+001
1.099133e+003,2.203821e+001
1.100098e+003,2.237231e+001
1.101062e+003,2.274963e+001
1.102026e+003,2.375122e+001
1.102990e+003,2.518762e+001
1.103955e+003,2.600769e+001
1.104919e+003,2.549634e+001
1.105883e+003,2.495422e+001
1.106847e+003,2.824768e+001
1.107812e+003,3.522668e+001
1.108776e+003,3.790027e+001
1.109740e+003,3.411206e+001
1.110704e+003,2.983545e+001
1.111668e+003,3.010071e+001
1.112633e+003,3.434387e+001
1.113597e+003,3.829944e+001
1.114561e+003,4.133496e+001
1.115525e+003,4.315564e+001
1.116490e+003,4.298303e+001
1.117454e+003,4.224414e+001
1.118418e+003,4.161389e+001
1.119382e+003,4.205078e+001
1.120347e+003,4.497607e+001
1.121311e+003,5.067834e+001
1.122275e+003,5.587244e+001
1.123239e+003,5.500012e+001
1.124203e+003,4.952576e+001
1.125168e+003,4.689233e+001
1.126132e+003,4.796924e+001
1.127096e+003,5.162854e+001
1.128060e+003,5.766650e+001
1.129025e+003,6.522290e+001
1.129989e+003,7.145947e+001
1.130953e+003,7.625378e+001
1.131917e+003,7.862598e+001
1.132882e+003,7.669141e+001
1.133846e+003,7.486926e+001
1.134810e+003,7.570923e+001
1.135774e+003,7.907739e+001
1.136739e+003,8.395422e+001
1.137703e+003,8.965674e+001
1.138667e+003,9.544910e+001
1.139631e+003,9.988647e+001
1.140595e+003,1.031927e+002
1.141560e+003,1.080909e+002
1.142524e+003,1.146891e+002
1.143488e+003,1.250267e+002
1.144452e+003,1.415789e+002
1.145417e+003,1.627483e+002
1.146381e+003,1.825319e+002
1.147345e+003,1.992638e+002
1.148309e+003,2.179534e+002
1.149274e+003,2.423142e+002
1.150238e+003,2.669595e+002
1.151202e+003,2.918997e+002
1.152166e+003,3.149641e+002
1.153130e+003,3.322449e+002
1.154095e+003,3.415387e+002
1.155059e+003,3.447013e+002
1.156023e+003,3.452504e+002
1.156987e+003,3.434987e+002
1.157952e+003,3.397288e+002
1.158916e+003,3.355565e+002
1.159880e+003,3.279327e+002
1.160844e+003,3.124471e+002
1.161809e+003,2.909604e+002
1.162773e+003,2.691088e+002
1.163737e+003,2.466183e+002
1.164701e+003,2.257192e+002
1.165666e+003,2.076445e+002
1.166630e+003,1.915554e+002
1.167594e+003,1.765616e+002
1.168558e+003,1.635121e+002
1.169522e+003,1.537035e+002
1.170487e+003,1.475138e+002
1.171451e+003,1.446882e+002
1.172415e+003,1.453293e+002
1.173379e+003,1.481534e+002
1.174344e+003,1.475339e+002
1.175308e+003,1.438370e+002
1.176272e+003,1.386631e+002
1.177236e+003,1.310247e+002
1.178201e+003,1.237606e+002
1.179165e+003,1.209371e+002
1.180129e+003,1.221208e+002
1.181093e+003,1.205354e+002
1.182057e+003,1.131276e+002
1.183022e+003,1.059919e+002
1.183986e+003,9.984973e+001
1.184950e+003,9.616235e+001
1.185914e+003,9.710620e+001
1.186879e+003,1.023340e+002
1.187843e+003,1.095377e+002
1.188807e+003,1.166993e+002
1.189771e+003,1.232123e+002
1.190736e+003,1.284025e+002
1.191700e+003,1.323445e+002
1.192664e+003,1.322518e+002
1.193628e+003,1.260747e+002
1.194593e+003,1.190746e+002
1.195557e+003,1.146187e+002
1.196521e+003,1.120941e+002
1.197485e+003,1.099124e+002
1.198449e+003,1.082675e+002
1.199414e+003,1.060415e+002
1.200378e+003,1.028597e+002
1.201342e+003,9.893506e+001
1.202306e+003,9.309424e+001
1.203271e+003,8.637061e+001
1.204235e+003,8.124133e+001
1.205199e+003,7.892456e+001
1.206163e+003,7.776465e+001
1.207128e+003,7.466968e+001
1.208092e+003,6.953198e+001
1.209056e+003,6.731348e+001
1.210020e+003,7.143347e+001
1.210984e+003,7.146814e+001
1.211949e+003,6.106348e+001
1.212913e+003,4.677039e+001
1.213877e+003,3.707312e+001
1.214841e+003,3.273450e+001
1.215806e+003,3.002026e+001
1.216770e+003,2.806116e+001
1.217734e+003,2.622656e+001
1.218698e+003,2.287939e+001
1.219663e+003,1.944971e+001
1.220627e+003,1.842725e+001
1.221591e+003,1.978113e+001
1.222555e+003,2.086938e+001
1.223520e+003,1.932910e+001
1.224484e+003,1.615637e+001
1.225448e+003,1.480530e+001
1.226412e+003,1.653589e+001
1.227376e+003,1.689563e+001
1.228341e+003,1.431238e+001
1.229305e+003,1.168628e+001
1.230269e+003,1.054553e+001
1.231233e+003,1.040491e+001
1.232198e+003,1.036926e+001
1.233162e+003,1.050598e+001
1.234126e+003,1.150330e+001
1.235090e+003,1.418274e+001
1.236055e+003,1.665979e+001
1.237019e+003,1.672705e+001
1.237983e+003,1.489453e+001
1.238947e+003,1.318689e+001
1.239911e+003,1.278699e+001
1.240876e+003,1.320715e+001
1.241840e+003,1.347290e+001
1.242804e+003,1.366528e+001
1.243768e+003,1.302112e+001
1.244733e+003,9.271606e+000
1.245697e+003,7.900269e+000
1.246661e+003,9.735840e+000
1.247625e+003,1.240332e+001
1.248590e+003,1.561072e+001
1.249554e+003,1.888171e+001
1.250518e+003,2.020520e+001
1.251482e+003,1.814478e+001
1.252447e+003,1.505713e+001
1.253411e+003,1.390222e+001
1.254375e+003,1.480164e+001
1.255339e+003,1.796948e+001
1.256303e+003,2.352881e+001
1.257268e+003,2.841382e+001
1.258232e+003,3.010706e+001
1.259196e+003,2.952380e+001
1.260160e+003,2.909802e+001
1.261125e+003,2.905310e+001
1.262089e+003,3.176538e+001
1.263053e+003,4.060352e+001
1.264017e+003,4.691846e+001
1.264982e+003,4.755566e+001
1.265946e+003,4.617615e+001
1.266910e+003,4.630188e+001
1.267874e+003,4.800122e+001
1.268839e+003,4.914539e+001
1.269803e+003,4.836523e+001
1.270767e+003,4.635144e+001
1.271731e+003,4.439722e+001
1.272695e+003,4.280469e+001
1.273660e+003,4.126050e+001
1.274624e+003,3.903235e+001
1.275588e+003,3.582825e+001
1.276552e+003,3.114368e+001
1.277517e+003,2.670496e+001
1.278481e+003,2.556592e+001
1.279445e+003,2.797839e+001
1.280409e+003,2.907751e+001
1.281374e+003,2.651062e+001
1.282338e+003,2.353625e+001
1.283302e+003,2.168518e+001
1.284266e+003,2.031433e+001
1.285230e+003,1.811816e+001
1.286195e+003,1.531104e+001
1.287159e+003,1.424414e+001
1.288123e+003,1.715662e+001
1.289087e+003,2.243774e+001
1.290052e+003,2.373193e+001
1.291016e+003,1.887720e+001
1.291980e+003,1.572534e+001
1.292944e+003,1.394995e+001
1.293909e+003,1.288281e+001
1.294873e+003,1.326514e+001
1.295837e+003,1.471521e+001
1.296801e+003,1.710010e+001
1.297766e+003,2.013293e+001
1.298730e+003,2.121545e+001
1.299694e+003,1.774158e+001
1.300658e+003,1.302698e+001
1.301622e+003,1.054907e+001
1.302587e+003,1.002368e+001
1.303551e+003,1.160181e+001
1.304515e+003,1.520972e+001
1.305479e+003,1.827869e+001
1.306444e+003,1.806079e+001
1.307408e+003,1.568896e+001
1.308372e+003,1.639526e+001
1.309336e+003,2.199414e+001
1.310301e+003,2.484436e+001
1.311265e+003,2.281787e+001
1.312229e+003,2.102063e+001
1.313193e+003,2.169922e+001
1.314157e+003,2.249634e+001
1.315122e+003,2.047705e+001
1.316086e+003,1.552258e+001
1.317050e+003,9.498657e+000
1.318014e+003,3.719849e+000
1.318979e+003,-3.009033e-001
1.319943e+003,1.805420e-001
1.320907e+003,5.071411e+000
1.321871e+003,1.006787e+001
1.322836e+003,1.449976e+001
1.323800e+003,1.767358e+001
1.324764e+003,1.908154e+001
1.325728e+003,1.934583e+001
1.326693e+003,1.878284e+001
1.327657e+003,1.700830e+001
1.328621e+003,1.633911e+001
1.329585e+003,2.066602e+001
1.330549e+003,2.443506e+001
1.331514e+003,2.104089e+001
1.332478e+003,1.583191e+001
1.333442e+003,1.522205e+001
1.334406e+003,1.883594e+001
1.335371e+003,2.202307e+001
1.336335e+003,2.189270e+001
1.337299e+003,1.942151e+001
1.338263e+003,1.604529e+001
1.339228e+003,1.148303e+001
1.340192e+003,8.952759e+000
1.341156e+003,7.817505e+000
1.342120e+003,9.369385e+000
1.343084e+003,1.669446e+001
1.344049e+003,2.298816e+001
1.345013e+003,2.208704e+001
1.345977e+003,1.622095e+001
1.346941e+003,1.202063e+001
1.347906e+003,1.179456e+001
1.348870e+003,1.344299e+001
1.349834e+003,1.544604e+001
1.350798e+003,1.721460e+001
1.351763e+003,1.896606e+001
1.352727e+003,2.056006e+001
1.353691e+003,1.981104e+001
1.354655e+003,1.542615e+001
1.355620e+003,1.055212e+001
1.356584e+003,9.070557e+000
1.357548e+003,1.086316e+001
1.358512e+003,1.304211e+001
1.359476e+003,1.520569e+001
1.360441e+003,1.617712e+001
1.361405e+003,1.546411e+001
1.362369e+003,1.447498e+001
1.363333e+003,1.386023e+001
1.364298e+003,1.348108e+001
1.365262e+003,1.315747e+001
1.366226e+003,1.277710e+001
1.367190e+003,1.219202e+001
1.368155e+003,1.126611e+001
1.369119e+003,1.005469e+001
1.370083e+003,8.821289e+000
1.371047e+003,7.700684e+000
1.372011e+003,7.734009e+000
1.372976e+003,8.894653e+000
1.373940e+003,9.690186e+000
1.374904e+003,9.448364e+000
1.375868e+003,9.222046e+000
1.376833e+003,9.720703e+000
1.377797e+003,1.102661e+001
1.378761e+003,1.443347e+001
1.379725e+003,2.174670e+001
1.380690e+003,2.790222e+001
1.381654e+003,2.624524e+001
1.382618e+003,2.109924e+001
1.383582e+003,1.785510e+001
1.384547e+003,1.676575e+001
1.385511e+003,1.604968e+001
1.386475e+003,1.438245e+001
1.387439e+003,1.306348e+001
1.388403e+003,1.522705e+001
1.389368e+003,2.077832e+001
1.390332e+003,2.246240e+001
1.391296e+003,1.794775e+001
1.392260e+003,1.483154e+001
1.393225e+003,1.489172e+001
1.394189e+003,1.619373e+001
1.395153e+003,1.948608e+001
1.396117e+003,2.255225e+001
1.397082e+003,2.125916e+001
1.398046e+003,1.566809e+001
1.399010e+003,1.148926e+001
1.399974e+003,1.368591e+001
1.400938e+003,1.874390e+001
1.401903e+003,1.742920e+001
1.402867e+003,8.888184e+000
1.403831e+003,6.515869e+000
1.404795e+003,1.267297e+001
1.405760e+003,1.970642e+001
1.406724e+003,2.561340e+001
1.407688e+003,2.829468e+001
1.408652e+003,2.546204e+001
1.409617e+003,1.879053e+001
1.410581e+003,1.296497e+001
1.411545e+003,9.365356e+000
1.412509e+003,9.425415e+000
1.413474e+003,1.761414e+001
1.414438e+003,2.721436e+001
1.415402e+003,2.725500e+001
1.416366e+003,1.964526e+001
1.417330e+003,1.355737e+001
1.418295e+003,1.243359e+001
1.419259e+003,1.445947e+001
1.420223e+003,1.830798e+001
1.421187e+003,2.303943e+001
1.422152e+003,2.509033e+001
1.423116e+003,2.402478e+001
1.424080e+003,2.417688e+001
1.425044e+003,2.763000e+001
1.426009e+003,3.008887e+001
1.426973e+003,2.824109e+001
1.427937e+003,2.525793e+001
1.428901e+003,2.590869e+001
1.429865e+003,3.017590e+001
1.430830e+003,3.396790e+001
1.431794e+003,3.424561e+001
1.432758e+003,3.174609e+001
1.433722e+003,2.855347e+001
1.434687e+003,2.534595e+001
1.435651e+003,2.621899e+001
1.436615e+003,3.211023e+001
1.437579e+003,3.586377e+001
1.438544e+003,3.627295e+001
1.439508e+003,3.560852e+001
1.440472e+003,3.600403e+001
1.441436e+003,3.713354e+001
1.442401e+003,3.682617e+001
1.443365e+003,3.467639e+001
1.444329e+003,3.425452e+001
1.445293e+003,3.903943e+001
1.446257e+003,4.559021e+001
1.447222e+003,4.649866e+001
1.448186e+003,4.268835e+001
1.449150e+003,3.957629e+001
1.450114e+003,3.763440e+001
1.451079e+003,3.529016e+001
1.452043e+003,3.155847e+001
1.453007e+003,2.807422e+001
1.453971e+003,2.683838e+001
1.454936e+003,2.731006e+001
1.455900e+003,2.723376e+001
1.456864e+003,2.601904e+001
1.457828e+003,2.607922e+001
1.458792e+003,3.038525e+001
1.459757e+003,3.415967e+001
1.460721e+003,3.174805e+001
1.461685e+003,2.628821e+001
1.462649e+003,2.537817e+001
1.463614e+003,3.083008e+001
1.464578e+003,3.630566e+001
1.465542e+003,3.566565e+001
1.466506e+003,3.101611e+001
1.467471e+003,2.953748e+001
1.468435e+003,3.277673e+001
1.469399e+003,3.558850e+001
1.470363e+003,3.651379e+001
1.471328e+003,3.688708e+001
1.472292e+003,3.595215e+001
1.473256e+003,3.418494e+001
1.474220e+003,3.278455e+001
1.475184e+003,3.216101e+001
1.476149e+003,3.227380e+001
1.477113e+003,3.243958e+001
1.478077e+003,3.102295e+001
1.479041e+003,2.685852e+001
1.480006e+003,2.225769e+001
1.480970e+003,2.378345e+001
1.481934e+003,3.306360e+001
1.482898e+003,3.829199e+001
1.483863e+003,3.683130e+001
1.484827e+003,3.515845e+001
1.485791e+003,3.411768e+001
1.486755e+003,3.547766e+001
1.487719e+003,4.194287e+001
1.488684e+003,5.119153e+001
1.489648e+003,5.788794e+001
1.490612e+003,6.070020e+001
1.491576e+003,6.251782e+001
1.492541e+003,6.525452e+001
1.493505e+003,6.834778e+001
1.494469e+003,7.081348e+001
1.495433e+003,7.198267e+001
1.496398e+003,7.189734e+001
1.497362e+003,7.040979e+001
1.498326e+003,7.207922e+001
1.499290e+003,8.121997e+001
1.500255e+003,9.320703e+001
1.501219e+003,1.011208e+002
1.502183e+003,1.055166e+002
1.503147e+003,1.116211e+002
1.504111e+003,1.204828e+002
1.505076e+003,1.315815e+002
1.506040e+003,1.452523e+002
1.507004e+003,1.607673e+002
1.507968e+003,1.774875e+002
1.508933e+003,1.952399e+002
1.509897e+003,2.137474e+002
1.510861e+003,2.339149e+002
1.511825e+003,2.569783e+002
1.512790e+003,2.830305e+002
1.513754e+003,3.113058e+002
1.514718e+003,3.423678e+002
1.515682e+003,3.756232e+002
1.516646e+003,4.057849e+002
1.517611e+003,4.340719e+002
1.518575e+003,4.575554e+002
1.519539e+003,4.745184e+002
1.520503e+003,4.885516e+002
1.521468e+003,5.034995e+002
1.522432e+003,5.148024e+002
1.523396e+003,5.145690e+002
1.524360e+003,5.033907e+002
1.525325e+003,4.904388e+002
1.526289e+003,4.820110e+002
1.527253e+003,4.734852e+002
1.528217e+003,4.560846e+002
1.529182e+003,4.302258e+002
1.530146e+003,4.024121e+002
1.531110e+003,3.720443e+002
1.532074e+003,3.396080e+002
1.533039e+003,3.006288e+002
1.534003e+003,2.621826e+002
1.534967e+003,2.291061e+002
1.535931e+003,1.996165e+002
1.536896e+003,1.697826e+002
1.537860e+003,1.408580e+002
1.538824e+003,1.183502e+002
1.539788e+003,1.044711e+002
1.540752e+003,9.423926e+001
1.541717e+003,8.156421e+001
1.542681e+003,6.783447e+001
1.543645e+003,5.972375e+001
1.544609e+003,6.117322e+001
1.545573e+003,6.031555e+001
1.546538e+003,5.260510e+001
1.547502e+003,4.650952e+001
1.548466e+003,4.842114e+001
1.549430e+003,5.257800e+001
1.550395e+003,5.183093e+001
1.551359e+003,4.704810e+001
1.552323e+003,4.384106e+001
1.553287e+003,4.418494e+001
1.554252e+003,4.459460e+001
1.555216e+003,4.172925e+001
1.556180e+003,3.730994e+001
1.557144e+003,3.583862e+001
1.558109e+003,3.771313e+001
1.559073e+003,3.743896e+001
1.560037e+003,3.206787e+001
1.561001e+003,2.813550e+001
1.561966e+003,3.102808e+001
1.562930e+003,3.525928e+001
1.563894e+003,3.438281e+001
1.564858e+003,3.017664e+001
1.565823e+003,2.822095e+001
1.566787e+003,2.941101e+001
1.567751e+003,3.041675e+001
1.568715e+003,2.957239e+001
1.569679e+003,2.816541e+001
1.570644e+003,2.692090e+001
1.571608e+003,2.581494e+001
1.572572e+003,2.659241e+001
1.573536e+003,2.984680e+001
1.574500e+003,3.212122e+001
1.575465e+003,3.132910e+001
1.576429e+003,3.014172e+001
1.577393e+003,3.059033e+001
1.578357e+003,3.169861e+001
1.579322e+003,3.231396e+001
1.580286e+003,3.252466e+001
1.581250e+003,3.158752e+001
1.582214e+003,2.854773e+001
1.583179e+003,2.705237e+001
1.584143e+003,3.129297e+001
1.585107e+003,3.640295e+001
1.586071e+003,3.604077e+001
1.587036e+003,3.266724e+001
1.588000e+003,3.172485e+001
1.588964e+003,3.397656e+001
1.589928e+003,3.603040e+001
1.590893e+003,3.547632e+001
1.591857e+003,3.391382e+001
1.592821e+003,3.361072e+001
1.593785e+003,3.459607e+001
1.594750e+003,3.632117e+001
1.595714e+003,3.847229e+001
1.596678e+003,4.077673e+001
1.597642e+003,4.370068e+001
1.598606e+003,4.607666e+001
1.599571e+003,4.715417e+001
1.600535e+003,4.754834e+001
1.601499e+003,4.745581e+001
1.602463e+003,4.694653e+001
1.603427e+003,4.712073e+001
1.604392e+003,4.866846e+001
1.605356e+003,4.951355e+001
1.606320e+003,4.716370e+001
1.607284e+003,4.269312e+001
1.608249e+003,3.883679e+001
1.609213e+003,3.561243e+001
1.610177e+003,3.287439e+001
1.611141e+003,3.007861e+001
1.612106e+003,2.913879e+001
1.613070e+003,3.390381e+001
1.614034e+003,3.800500e+001
1.614998e+003,3.487842e+001
1.615963e+003,2.873303e+001
1.616927e+003,2.723767e+001
1.617891e+003,3.094592e+001
1.618855e+003,3.411731e+001
1.619820e+003,3.290942e+001
1.620784e+003,2.963232e+001
1.621748e+003,2.941711e+001
1.622712e+003,3.233704e+001
1.623677e+003,3.191492e+001
1.624641e+003,2.728552e+001
1.625605e+003,2.473962e+001
1.626569e+003,2.465344e+001
1.627533e+003,2.479187e+001
1.628498e+003,2.539685e+001
1.629462e+003,2.623242e+001
1.630426e+003,2.661255e+001
1.631390e+003,2.681482e+001
1.632354e+003,2.802502e+001
1.633319e+003,3.025122e+001
1.634283e+003,3.138684e+001
1.635247e+003,2.958118e+001
1.636211e+003,2.625598e+001
1.637176e+003,2.423657e+001
1.638140e+003,2.377698e+001
1.639104e+003,2.387134e+001
1.640068e+003,2.431506e+001
1.641033e+003,2.469336e+001
1.641997e+003,2.567761e+001
1.642961e+003,2.620105e+001
1.643925e+003,2.536340e+001
1.644890e+003,2.403137e+001
1.645854e+003,2.218933e+001
1.646818e+003,2.050732e+001
1.647782e+003,2.070215e+001
1.648747e+003,2.317200e+001
1.649711e+003,2.679541e+001
1.650675e+003,3.181042e+001
1.651639e+003,3.630920e+001
1.652604e+003,3.361169e+001
1.653568e+003,2.378064e+001
1.654532e+003,2.088721e+001
1.655496e+003,2.836060e+001
1.656460e+003,3.300647e+001
1.657425e+003,2.929004e+001
1.658389e+003,2.492749e+001
1.659353e+003,2.410229e+001
1.660317e+003,2.469263e+001
1.661281e+003,2.471252e+001
1.662246e+003,2.378308e+001
1.663210e+003,2.174829e+001
1.664174e+003,1.891235e+001
1.665138e+003,1.744556e+001
1.666103e+003,1.978809e+001
1.667067e+003,2.272168e+001
1.668031e+003,1.889197e+001
1.668995e+003,9.177124e+000
1.669960e+003,4.060181e+000
1.670924e+003,5.190186e+000
1.671888e+003,8.117920e+000
1.672852e+003,1.281909e+001
1.673817e+003,1.629016e+001
1.674781e+003,1.515674e+001
1.675745e+003,1.285022e+001
1.676709e+003,1.352344e+001
1.677674e+003,1.635107e+001
1.678638e+003,1.799170e+001
1.679602e+003,1.741162e+001
1.680566e+003,1.564929e+001
1.681531e+003,1.363892e+001
1.682495e+003,1.168152e+001
1.683459e+003,8.991333e+000
1.684423e+003,5.574829e+000
1.685387e+003,4.296265e+000
1.686352e+003,5.830200e+000
1.687316e+003,8.092163e+000
1.688280e+003,1.074841e+001
1.689244e+003,1.333203e+001
1.690208e+003,1.623621e+001
1.691173e+003,1.793530e+001
1.692137e+003,1.562878e+001
1.693101e+003,1.140186e+001
1.694065e+003,1.101978e+001
1.695030e+003,1.542004e+001
1.695994e+003,1.833569e+001
1.696958e+003,1.495972e+001
1.697922e+003,1.007922e+001
1.698887e+003,1.033142e+001
1.699851e+003,1.404626e+001
1.700815e+003,1.528955e+001
1.701779e+003,1.326550e+001
1.702744e+003,1.123853e+001
1.703708e+003,1.086816e+001
1.704672e+003,1.142517e+001
1.705636e+003,1.142249e+001
1.706601e+003,1.102441e+001
1.707565e+003,1.273755e+001
1.708529e+003,1.574915e+001
1.709493e+003,1.485986e+001
1.710458e+003,8.710327e+000
1.711422e+003,4.880371e+000
1.712386e+003,9.107178e+000
1.713350e+003,1.469617e+001
1.714314e+003,1.598926e+001
1.715279e+003,1.404761e+001
1.716243e+003,9.854980e+000
1.717207e+003,4.722656e+000
1.718171e+003,3.852539e+000
1.719135e+003,8.817749e+000
1.720100e+003,1.388330e+001
1.721064e+003,1.530505e+001
1.722028e+003,1.353113e+001
1.722992e+003,8.786255e+000
1.723957e+003,2.689453e+000
1.724921e+003,3.713379e-001
1.725885e+003,1.034180e+000
1.726849e+003,2.044189e+000
1.727814e+003,5.115479e+000
1.728778e+003,8.237671e+000
1.729742e+003,9.882568e+000
1.730706e+003,1.128625e+001
1.731671e+003,1.420239e+001
1.732635e+003,1.629639e+001
1.733599e+003,1.377966e+001
1.734563e+003,7.245239e+000
1.735528e+003,-1.068115e-001
1.736492e+003,-6.902100e+000
1.737456e+003,-1.045764e+001
1.738420e+003,-7.024780e+000
1.739385e+003,4.952393e-001
1.740349e+003,3.476196e+000
1.741313e+003,1.632935e+000
1.742277e+003,-6.601563e-001
1.743241e+003,-3.967529e+000
1.744206e+003,-5.656250e+000
1.745170e+003,-5.834106e+000
1.746134e+003,-4.569336e+000
1.747098e+003,-3.341064e-001
1.748063e+003,4.039795e+000
1.749027e+003,5.031372e+000
1.749991e+003,3.499756e+000
1.750955e+003,2.507935e+000
1.751919e+003,2.965942e+000
1.752884e+003,3.414551e+000
1.753848e+003,2.632690e+000
1.754812e+003,1.244019e+000
1.755776e+003,1.066895e+000
1.756741e+003,2.669678e+000
1.757705e+003,4.168945e+000
1.758669e+003,5.388794e+000
1.759633e+003,5.200806e+000
1.760598e+003,4.165039e-001
1.761562e+003,-2.407959e+000
1.762526e+003,3.330688e+000
1.763490e+003,8.261597e+000
1.764455e+003,3.769409e+000
1.765419e+003,-4.753906e+000
1.766383e+003,-9.249756e+000
1.767347e+003,-8.992554e+000
1.768312e+003,-6.902710e+000
1.769276e+003,-4.506470e+000
1.770240e+003,-2.596558e+000
1.771204e+003,-1.329468e+000
1.772168e+003,3.619385e-001
1.773133e+003,4.662354e+000
1.774097e+003,1.086035e+001
1.775061e+003,1.103491e+001
1.776025e+003,2.733398e+000
1.776990e+003,-4.707153e+000
1.777954e+003,-7.837036e+000
1.778918e+003,-7.796875e+000
1.779882e+003,-4.671875e+000
1.780846e+003,-7.177734e-001
1.781811e+003,2.048462e+000
1.782775e+003,3.887573e+000
1.783739e+003,5.005859e+000
1.784703e+003,5.639282e+000
1.785668e+003,6.048828e+000
1.786632e+003,5.039429e+000
1.787596e+003,3.802368e+000
1.788560e+003,5.144409e+000
1.789525e+003,7.317871e+000
1.790489e+003,5.992065e+000
1.791453e+003,2.130615e+000
1.792417e+003,9.781494e-001
1.793382e+003,3.304199e+000
1.794346e+003,3.971802e+000
1.795310e+003,1.403809e-002
1.796274e+003,-5.055420e+000
1.797239e+003,-6.873291e+000
1.798203e+003,-5.375122e+000
1.799167e+003,-2.938110e+000
1.800131e+003,-8.070068e-001
1.801095e+003,4.138184e-001
1.802060e+003,3.774658e+000
1.803024e+003,4.282104e+000
1.803988e+003,-3.848633e+000
1.804952e+003,-9.422241e+000
1.805917e+003,-4.018311e+000
1.806881e+003,3.782959e+000
1.807845e+003,5.733765e+000
1.808809e+003,3.200562e+000
1.809773e+003,1.020508e-001
1.810738e+003,-2.041992e+000
1.811702e+003,-2.698120e+000
1.812666e+003,-1.629150e+000
1.813630e+003,4.810791e-001
1.814595e+003,3.026611e+000
1.815559e+003,5.254517e+000
1.816523e+003,4.353027e+000
1.817487e+003,5.358887e-002
1.818452e+003,-2.161865e+000
1.819416e+003,-6.558838e-001
1.820380e+003,9.395752e-001
1.821344e+003,8.128662e-001
1.822309e+003,2.664795e-001
1.823273e+003,1.241699e+000
1.824237e+003,2.323486e+000
1.825201e+003,7.694092e-001
1.826166e+003,-2.359497e+000
1.827130e+003,-3.468384e+000
1.828094e+003,-2.238281e+000
1.829058e+003,-1.380005e+000
1.830022e+003,-2.040161e+000
1.830987e+003,-2.494873e+000
1.831951e+003,6.262207e-002
1.832915e+003,2.717041e+000
1.833879e+003,2.359619e-001
1.834844e+003,-5.806519e+000
1.835808e+003,-1.068835e+001
1.836772e+003,-1.332690e+001
1.837736e+003,-1.337598e+001
1.838700e+003,-1.096191e+001
1.839665e+003,-7.354126e+000
1.840629e+003,-2.993042e+000
1.841593e+003,1.053833e+000
1.842557e+003,1.574707e+000
1.843522e+003,-1.387207e+000
1.844486e+003,-1.415649e+000
1.845450e+003,5.553711e+000
1.846414e+003,9.391602e+000
1.847379e+003,7.010620e+000
1.848343e+003,3.332153e+000
1.849307e+003,-1.256836e+000
1.850271e+003,-4.745239e+000
1.851236e+003,-4.850098e+000
1.852200e+003,-2.896973e+000
1.853164e+003,-1.047852e+000
1.854128e+003,-4.890137e-001
1.855093e+003,-1.724731e+000
1.856057e+003,-4.097168e+000
1.857021e+003,-5.718628e+000
1.857985e+003,-5.378296e+000
1.858949e+003,-4.090332e+000
1.859914e+003,-3.339111e+000
1.860878e+003,-2.762085e+000
1.861842e+003,-1.112427e+000
1.862806e+003,1.412842e+000
1.863771e+003,2.139404e+000
1.864735e+003,-3.482666e-001
1.865699e+003,-1.419189e+000
1.866663e+003,2.585449e+000
1.867627e+003,6.786011e+000
1.868592e+003,6.166016e+000
1.869556e+003,1.946533e+000
1.870520e+003,-3.225830e+000
1.871484e+003,-8.970337e+000
1.872449e+003,-1.193579e+001
1.873413e+003,-9.240845e+000
1.874377e+003,-5.493042e+000
1.875341e+003,-3.930908e+000
1.876306e+003,-2.693604e+000
1.877270e+003,-5.156250e-001
1.878234e+003,1.097656e+000
1.879198e+003,1.035767e+000
1.880163e+003,-4.083252e-001
1.881127e+003,-3.247192e+000
1.882091e+003,-6.624390e+000
1.883055e+003,-8.378784e+000
1.884020e+003,-7.738037e+000
1.884984e+003,-5.728760e+000
1.885948e+003,-3.135376e+000
1.886912e+003,-1.187866e+000
1.887876e+003,-2.704224e+000
1.888841e+003,-7.145752e+000
1.889805e+003,-8.749878e+000
1.890769e+003,-7.193970e+000
1.891733e+003,-4.315430e+000
1.892698e+003,1.010742e-001
1.893662e+003,3.534912e+000
1.894626e+003,5.916016e+000
1.895590e+003,6.527466e+000
1.896554e+003,4.265259e+000
1.897519e+003,1.187622e+000
1.898483e+003,-1.260742e+000
1.899447e+003,-3.504395e+000
1.900411e+003,-5.637817e+000
1.901376e+003,-7.536133e+000
1.902340e+003,-6.852661e+000
1.903304e+003,-1.942139e-001
1.904268e+003,5.006958e+000
1.905233e+003,2.478149e+000
1.906197e+003,-1.476807e+000
1.907161e+003,7.658691e-001
1.908125e+003,6.113037e+000
1.909090e+003,7.619507e+000
1.910054e+003,4.903320e+000
1.911018e+003,1.714844e+000
1.911982e+003,-8.728027e-002
1.912947e+003,-2.862549e-001
1.913911e+003,1.063965e+000
1.914875e+003,3.311035e+000
1.915839e+003,5.271362e+000
1.916803e+003,6.377075e+000
1.917768e+003,6.432251e+000
1.918732e+003,5.684570e+000
1.919696e+003,5.693237e+000
1.920660e+003,7.220581e+000
1.921625e+003,8.703247e+000
1.922589e+003,9.689453e+000
1.923553e+003,9.739380e+000
1.924517e+003,8.446289e+000
1.925481e+003,6.448730e+000
1.926446e+003,3.082520e+000
1.927410e+003,-5.285645e-002
1.928374e+003,8.867188e-001
1.929338e+003,5.232422e+000
1.930303e+003,6.557983e+000
1.931267e+003,3.305664e+000
1.932231e+003,4.819336e-001
1.933195e+003,-1.036011e+000
1.934160e+003,-1.371338e+000
1.935124e+003,5.856934e-001
1.936088e+003,2.296875e+000
1.937052e+003,5.622559e-001
1.938017e+003,-2.669312e+000
1.938981e+003,-3.144165e+000
1.939945e+003,-8.754883e-001
1.940909e+003,2.675781e-001
1.941874e+003,-1.486084e+000
1.942838e+003,-3.183472e+000
1.943802e+003,-1.333374e+000
1.944766e+003,2.075806e+000
1.945730e+003,1.151123e+000
1.946695e+003,-3.800171e+000
1.947659e+003,-5.853516e+000
1.948623e+003,-4.894409e+000
1.949587e+003,-4.633789e+000
1.950552e+003,-5.389160e+000
1.951516e+003,-5.510254e+000
1.952480e+003,-4.540527e+000
1.953444e+003,-2.616333e+000
1.954408e+003,1.242065e+000
1.955373e+003,4.042480e+000
1.956337e+003,6.871338e-001
1.957301e+003,-5.751099e+000
1.958265e+003,-6.523926e+000
1.959230e+003,-5.974121e-001
1.960194e+003,4.622803e+000
1.961158e+003,7.510376e+000
1.962122e+003,8.107422e+000
1.963087e+003,4.282227e+000
1.964051e+003,1.133789e+000
1.965015e+003,3.069092e+000
1.965979e+003,7.132935e+000
1.966944e+003,1.091711e+001
1.967908e+003,1.267395e+001
1.968872e+003,9.288452e+000
1.969836e+003,2.372437e+000
1.970801e+003,-9.442139e-001
1.971765e+003,2.189697e+000
1.972729e+003,6.144531e+000
1.973693e+003,6.097900e+000
1.974657e+003,4.225952e+000
1.975622e+003,3.118774e+000
1.976586e+003,2.491455e+000
1.977550e+003,2.309326e+000
1.978514e+003,2.878784e+000
1.979479e+003,4.972778e+000
1.980443e+003,8.360962e+000
1.981407e+003,1.019348e+001
1.982371e+003,9.665894e+000
1.983335e+003,8.102051e+000
1.984300e+003,5.829834e+000
1.985264e+003,3.732544e+000
1.986228e+003,3.877319e+000
1.987192e+003,5.638550e+000
1.988157e+003,5.831543e+000
1.989121e+003,4.434082e+000
1.990085e+003,3.045532e+000
1.991049e+003,1.759155e+000
1.992014e+003,1.153076e+000
1.992978e+003,1.056763e+000
1.993942e+003,1.162720e+000
1.994906e+003,1.723633e+000
1.995871e+003,2.146729e+000
1.996835e+003,1.378174e+000
1.997799e+003,1.037964e+000
1.998763e+003,4.241577e+000
1.999728e+003,9.473999e+000
