5.003444e+002,2.789343e+001
5.013087e+002,2.819519e+001
5.022729e+002,2.711612e+001
5.032371e+002,2.521393e+001
5.042014e+002,2.372806e+001
5.051656e+002,2.266580e+001
5.061298e+002,2.198401e+001
5.070941e+002,2.165414e+001
5.080583e+002,2.171588e+001
5.090225e+002,2.124966e+001
5.099868e+002,1.947391e+001
5.109510e+002,1.811060e+001
5.119152e+002,1.838998e+001
5.128795e+002,2.050000e+001
5.138437e+002,2.205429e+001
5.148079e+002,2.281702e+001
5.157722e+002,2.247025e+001
5.167364e+002,1.975342e+001
5.177006e+002,1.513889e+001
5.186649e+002,1.098575e+001
5.196291e+002,1.102762e+001
5.205933e+002,1.307697e+001
5.215576e+002,1.483331e+001
5.225218e+002,1.570255e+001
5.234860e+002,1.538467e+001
5.244503e+002,1.342139e+001
5.254145e+002,9.210846e+000
5.263787e+002,7.771698e+000
5.273430e+002,1.052368e+001
5.283072e+002,1.506308e+001
5.292714e+002,1.831769e+001
5.302357e+002,2.034918e+001
5.311999e+002,1.975220e+001
5.321641e+002,1.412689e+001
5.331284e+002,8.419403e+000
5.340926e+002,7.001495e+000
5.350568e+002,1.165210e+001
5.360211e+002,1.659671e+001
5.369853e+002,1.707352e+001
5.379495e+002,1.540152e+001
5.389138e+002,1.244843e+001
5.398780e+002,8.904327e+000
5.408422e+002,5.590729e+000
5.418065e+002,5.409454e+000
5.427707e+002,7.868195e+000
5.437349e+002,9.732513e+000
5.446992e+002,1.013745e+001
5.456634e+002,9.351227e+000
5.466276e+002,8.377075e+000
5.475919e+002,6.772705e+000
5.485561e+002,5.727448e+000
5.495203e+002,5.369659e+000
5.504846e+002,5.410583e+000
5.514488e+002,5.594330e+000
5.524130e+002,6.149445e+000
5.533773e+002,6.400818e+000
5.543415e+002,5.469788e+000
5.553057e+002,4.383789e+000
5.562700e+002,4.449463e+000
5.572342e+002,6.419525e+000
5.581984e+002,8.957123e+000
5.591627e+002,8.527435e+000
5.601269e+002,6.381287e+000
5.610911e+002,4.971375e+000
5.620554e+002,5.602173e+000
5.630196e+002,7.786713e+000
5.639838e+002,7.671448e+000
5.649481e+002,3.005737e+000
5.659123e+002,-6.472778e-001
5.668765e+002,-1.951904e+000
5.678408e+002,-1.345337e+000
5.688050e+002,-3.077698e-001
5.697692e+002,8.713074e-001
5.707335e+002,1.867920e+000
5.716977e+002,2.734009e+000
5.726619e+002,3.461334e+000
5.736262e+002,4.059540e+000
5.745904e+002,4.562622e+000
5.755546e+002,4.953857e+000
5.765189e+002,5.055786e+000
5.774831e+002,4.818634e+000
5.784473e+002,4.419891e+000
5.794116e+002,4.056793e+000
5.803758e+002,3.786987e+000
5.813400e+002,2.624420e+000
5.823043e+002,-3.843994e-001
5.832685e+002,-2.388123e+000
5.842327e+002,-1.690704e+000
5.851970e+002,1.371307e+000
5.861612e+002,3.832703e+000
5.871254e+002,5.238922e+000
5.880897e+002,5.692688e+000
5.890539e+002,4.337463e+000
5.900181e+002,2.095734e+000
5.909824e+002,5.299377e-001
5.919466e+002,9.099121e-001
5.929108e+002,1.813995e+000
5.938751e+002,1.621979e+000
5.948393e+002,7.828369e-001
5.958035e+002,-3.784180e-003
5.967678e+002,-2.019348e-001
5.977320e+002,1.536560e-001
5.986962e+002,4.085693e-001
5.996605e+002,5.250549e-001
6.006247e+002,-2.404175e-001
6.015889e+002,-3.119049e+000
6.025532e+002,-7.791992e+000
6.035174e+002,-9.962952e+000
6.044816e+002,-6.977600e+000
6.054459e+002,-4.007935e+000
6.064101e+002,-1.326538e+000
6.073743e+002,7.651672e-001
6.083386e+002,1.892853e+000
6.093028e+002,1.596375e+000
6.102670e+002,8.308716e-001
6.112313e+002,1.766663e-001
6.121955e+002,-3.457031e-001
6.131597e+002,-7.949524e-001
6.141240e+002,-1.204681e+000
6.150882e+002,-1.465637e+000
6.160524e+002,-6.031189e-001
6.170167e+002,1.257294e+000
6.179809e+002,2.621033e+000
6.189451e+002,2.569397e+000
6.199094e+002,1.228394e+000
6.208736e+002,2.562256e-001
6.218378e+002,2.696228e-001
6.228021e+002,3.684082e-001
6.237663e+002,5.455017e-001
6.247305e+002,8.071289e-001
6.256948e+002,1.148529e+000
6.266590e+002,1.538727e+000
6.276232e+002,1.586823e+000
6.285875e+002,1.326782e+000
6.295517e+002,8.497620e-001
6.305159e+002,-3.732300e-002
6.314802e+002,-1.424835e+000
6.324444e+002,-2.906372e+000
6.334086e+002,-2.753326e+000
6.343729e+002,-1.363831e+000
6.353371e+002,5.105591e-002
6.363013e+002,1.114502e+000
6.372656e+002,1.687744e+000
6.382298e+002,1.407837e+000
6.391940e+002,-7.503662e-001
6.401583e+002,-2.631592e+000
6.411225e+002,-3.924347e+000
6.420867e+002,-4.704987e+000
6.430510e+002,-5.020020e+000
6.440152e+002,-4.723083e+000
6.449794e+002,-5.181244e+000
6.459437e+002,-8.643372e+000
6.469079e+002,-1.196393e+001
6.478721e+002,-1.194833e+001
6.488364e+002,-7.832672e+000
6.498006e+002,-2.403931e+000
6.507648e+002,-5.426941e-001
6.517291e+002,-1.457977e+000
6.526933e+002,-3.715942e+000
6.536575e+002,-7.191467e+000
6.546218e+002,-1.080313e+001
6.555860e+002,-1.242786e+001
6.565502e+002,-1.083713e+001
6.575145e+002,-9.707214e+000
6.584787e+002,-9.859955e+000
6.594429e+002,-9.749512e+000
6.604072e+002,-7.516174e+000
6.613714e+002,-2.536835e+000
6.623356e+002,8.580933e-001
6.632999e+002,-8.167419e-001
6.642641e+002,-3.561493e+000
6.652283e+002,-5.906738e+000
6.661926e+002,-7.182312e+000
6.671568e+002,-7.058838e+000
6.681210e+002,-4.703552e+000
6.690853e+002,-1.206085e+000
6.700495e+002,6.907959e-001
6.710137e+002,1.001587e+000
6.719780e+002,7.433777e-001
6.729422e+002,1.045654e+000
6.739064e+002,2.178528e+000
6.748707e+002,1.659607e+000
6.758349e+002,-1.979675e+000
6.767991e+002,-5.156647e+000
6.777634e+002,-5.892303e+000
6.787276e+002,-4.380646e+000
6.796918e+002,-3.110809e+000
6.806561e+002,-3.494202e+000
6.816203e+002,-4.088165e+000
6.825845e+002,-4.629700e+000
6.835488e+002,-4.916840e+000
6.845130e+002,-4.510223e+000
6.854772e+002,-2.920258e+000
6.864415e+002,-1.023682e+000
6.874057e+002,-1.499359e+000
6.883699e+002,-3.675568e+000
6.893342e+002,-5.389252e+000
6.902984e+002,-5.367462e+000
6.912626e+002,-3.796783e+000
6.922269e+002,-2.354492e+000
6.931911e+002,-2.426147e-002
6.941553e+002,1.243988e+000
6.951196e+002,4.528503e-001
6.960838e+002,-1.522552e+000
6.970480e+002,-3.414154e+000
6.980123e+002,-5.405701e+000
6.989765e+002,-5.732727e+000
6.999407e+002,-2.343414e+000
7.009050e+002,1.558014e+000
7.018692e+002,3.178802e+000
7.028334e+002,1.701569e+000
7.037977e+002,-1.023163e+000
7.047619e+002,-2.041168e+000
7.057261e+002,-1.921539e+000
7.066904e+002,-2.080780e+000
7.076546e+002,-2.749146e+000
7.086188e+002,-3.714172e+000
7.095831e+002,-4.746490e+000
7.105473e+002,-6.428406e+000
7.115115e+002,-6.314911e+000
7.124758e+002,-2.922089e+000
7.134400e+002,3.031616e-001
7.144042e+002,1.398346e+000
7.153685e+002,3.530273e-001
7.163327e+002,-1.326294e+000
7.172969e+002,-4.211456e+000
7.182612e+002,-6.395142e+000
7.192254e+002,-6.809967e+000
7.201896e+002,-5.969971e+000
7.211539e+002,-4.924194e+000
7.221181e+002,-4.491882e+000
7.230823e+002,-4.479462e+000
7.240466e+002,-4.177856e+000
7.250108e+002,-3.561127e+000
7.259750e+002,-3.259857e+000
7.269393e+002,-3.925385e+000
7.279035e+002,-5.508118e+000
7.288677e+002,-6.064484e+000
7.298320e+002,-3.793488e+000
7.307962e+002,-1.970123e+000
7.317604e+002,-1.325806e+000
7.327247e+002,-9.842529e-001
7.336889e+002,4.530029e-001
7.346531e+002,3.676483e+000
7.356174e+002,5.572174e+000
7.365816e+002,3.933319e+000
7.375458e+002,1.525757e+000
7.385101e+002,3.635864e-001
7.394743e+002,9.632568e-001
7.404385e+002,2.423279e+000
7.414028e+002,3.598602e+000
7.423670e+002,3.924011e+000
7.433312e+002,2.639923e+000
7.442955e+002,-2.359009e-001
7.452597e+002,-2.771515e+000
7.462239e+002,-2.630768e+000
7.471882e+002,1.108368e+000
7.481524e+002,3.131989e+000
7.491166e+002,2.685242e+000
7.500809e+002,1.246704e+000
7.510451e+002,-1.428925e+000
7.520093e+002,-4.744873e+000
7.529736e+002,-6.909790e+000
7.539378e+002,-6.295563e+000
7.549020e+002,-4.983765e+000
7.558663e+002,-4.273651e+000
7.568306e+002,-3.911194e+000
7.577948e+002,-3.632019e+000
7.587590e+002,-3.311310e+000
7.597233e+002,-2.948914e+000
7.606875e+002,-1.835510e+000
7.616517e+002,5.767822e-003
7.626160e+002,7.799683e-001
7.635802e+002,-2.189331e-001
7.645444e+002,-2.201447e+000
7.655087e+002,-3.593140e+000
7.664729e+002,-4.221130e+000
7.674371e+002,-4.681488e+000
7.684014e+002,-5.699188e+000
7.693656e+002,-6.075073e+000
7.703298e+002,-4.403931e+000
7.712941e+002,-8.065796e-001
7.722583e+002,2.197906e+000
7.732225e+002,2.175598e+000
7.741868e+002,1.296997e+000
7.751510e+002,1.223419e+000
7.761152e+002,1.815765e+000
7.770795e+002,2.358643e+000
7.780437e+002,2.196045e+000
7.790079e+002,1.356079e+000
7.799722e+002,3.593445e-001
7.809364e+002,-8.501282e-001
7.819006e+002,-1.867035e+000
7.828649e+002,-2.560608e+000
7.838291e+002,-2.769073e+000
7.847933e+002,-2.156982e+000
7.857576e+002,-2.400818e-001
7.867218e+002,1.161926e+000
7.876860e+002,1.643311e+000
7.886503e+002,1.964630e+000
7.896145e+002,3.004486e+000
7.905787e+002,4.890991e+000
7.915430e+002,6.383545e+000
7.925072e+002,5.213501e+000
7.934714e+002,3.146576e+000
7.944357e+002,2.363861e+000
7.953999e+002,3.067932e+000
7.963641e+002,4.505463e+000
7.973284e+002,5.821594e+000
7.982926e+002,7.063354e+000
7.992568e+002,6.936493e+000
8.002211e+002,4.474823e+000
8.011853e+002,1.896393e+000
8.021495e+002,-9.704590e-003
8.031138e+002,-9.302979e-001
8.040780e+002,-4.449768e-001
8.050422e+002,2.430023e+000
8.060065e+002,4.677856e+000
8.069707e+002,5.004456e+000
8.079349e+002,4.316650e+000
8.088992e+002,3.603699e+000
8.098634e+002,3.285278e+000
8.108276e+002,2.874420e+000
8.117919e+002,8.055420e-001
8.127561e+002,-1.937927e+000
8.137203e+002,-2.266144e+000
8.146846e+002,2.986450e-001
8.156488e+002,3.472961e+000
8.166130e+002,4.233246e+000
8.175773e+002,1.941040e+000
8.185415e+002,7.671509e-001
8.195057e+002,1.006927e+000
8.204700e+002,1.405273e+000
8.214342e+002,1.457672e+000
8.223984e+002,1.367218e+000
8.233627e+002,1.811798e+000
8.243269e+002,3.454224e+000
8.252911e+002,4.939728e+000
8.262554e+002,5.587616e+000
8.272196e+002,5.643707e+000
8.281838e+002,5.201599e+000
8.291481e+002,4.371918e+000
8.301123e+002,3.297882e+000
8.310765e+002,1.992584e+000
8.320408e+002,6.824646e-001
8.330050e+002,1.610840e+000
8.339692e+002,5.660522e+000
8.349335e+002,9.741058e+000
8.358977e+002,1.037064e+001
8.368619e+002,7.040344e+000
8.378262e+002,4.865021e+000
8.387904e+002,4.331299e+000
8.397546e+002,4.289856e+000
8.407189e+002,4.667480e+000
8.416831e+002,5.345398e+000
8.426473e+002,6.431183e+000
8.436116e+002,8.232391e+000
8.445758e+002,9.434174e+000
8.455400e+002,7.705078e+000
8.465043e+002,4.731659e+000
8.474685e+002,2.494385e+000
8.484327e+002,1.744446e+000
8.493970e+002,2.121826e+000
8.503612e+002,2.806396e+000
8.513254e+002,3.731567e+000
8.522897e+002,5.194092e+000
8.532539e+002,8.205139e+000
8.542181e+002,1.019553e+001
8.551824e+002,8.998260e+000
8.561466e+002,5.307404e+000
8.571108e+002,3.487671e+000
8.580751e+002,4.923248e+000
8.590393e+002,6.962952e+000
8.600035e+002,9.575958e+000
8.609678e+002,1.219016e+001
8.619320e+002,1.435419e+001
8.628962e+002,1.581512e+001
8.638605e+002,1.637854e+001
8.648247e+002,1.519101e+001
8.657889e+002,1.300772e+001
8.667532e+002,1.155374e+001
8.677174e+002,1.105649e+001
8.686816e+002,1.094275e+001
8.696459e+002,1.053619e+001
8.706101e+002,9.780457e+000
8.715743e+002,9.969147e+000
8.725386e+002,1.136517e+001
8.735028e+002,1.328210e+001
8.744670e+002,1.594229e+001
8.754313e+002,1.867389e+001
8.763955e+002,2.040771e+001
8.773597e+002,2.072116e+001
8.783240e+002,2.061792e+001
8.792882e+002,2.039447e+001
8.802524e+002,2.026050e+001
8.812167e+002,2.060156e+001
8.821809e+002,2.138388e+001
8.831451e+002,2.222885e+001
8.841094e+002,2.271680e+001
8.850736e+002,2.291177e+001
8.860378e+002,2.220615e+001
8.870021e+002,2.020193e+001
8.879663e+002,1.841666e+001
8.889305e+002,1.759512e+001
8.898948e+002,1.757706e+001
8.908590e+002,1.786493e+001
8.918232e+002,1.866449e+001
8.927875e+002,1.976187e+001
8.937517e+002,2.138889e+001
8.947159e+002,2.306631e+001
8.956802e+002,2.436508e+001
8.966444e+002,2.506332e+001
8.976086e+002,2.513556e+001
8.985729e+002,2.450940e+001
8.995371e+002,2.365067e+001
9.005013e+002,2.294073e+001
9.014656e+002,2.255774e+001
9.024298e+002,2.293558e+001
9.033940e+002,2.439847e+001
9.043583e+002,2.657718e+001
9.053225e+002,2.766190e+001
9.062867e+002,2.597198e+001
9.072510e+002,2.508371e+001
9.082152e+002,2.622617e+001
9.091794e+002,2.784540e+001
9.101437e+002,2.821979e+001
9.111079e+002,2.704718e+001
9.120721e+002,2.584918e+001
9.130364e+002,2.493994e+001
9.140006e+002,2.448862e+001
9.149648e+002,2.531238e+001
9.159291e+002,2.688242e+001
9.168933e+002,2.788306e+001
9.178575e+002,2.732764e+001
9.188218e+002,2.574686e+001
9.197860e+002,2.544598e+001
9.207502e+002,2.640765e+001
9.217145e+002,2.629788e+001
9.226787e+002,2.411887e+001
9.236429e+002,2.164346e+001
9.246072e+002,2.141202e+001
9.255714e+002,2.389722e+001
9.265356e+002,2.537408e+001
9.274999e+002,2.409595e+001
9.284641e+002,2.280093e+001
9.294283e+002,2.317349e+001
9.303926e+002,2.417041e+001
9.313568e+002,2.324060e+001
9.323210e+002,1.887076e+001
9.332853e+002,1.419315e+001
9.342495e+002,1.537271e+001
9.352137e+002,1.942682e+001
9.361780e+002,2.248206e+001
9.371422e+002,2.378610e+001
9.381064e+002,2.378375e+001
9.390707e+002,2.268295e+001
9.400349e+002,1.992780e+001
9.409991e+002,1.856219e+001
9.419634e+002,1.940121e+001
9.429276e+002,2.027667e+001
9.438918e+002,2.061511e+001
9.448561e+002,2.071582e+001
9.458203e+002,2.131360e+001
9.467845e+002,2.286383e+001
9.477488e+002,2.394379e+001
9.487130e+002,2.271719e+001
9.496772e+002,2.104355e+001
9.506415e+002,2.030850e+001
9.516057e+002,2.062027e+001
9.525699e+002,2.131467e+001
9.535342e+002,2.170605e+001
9.544984e+002,2.185513e+001
9.554626e+002,2.321008e+001
9.564269e+002,2.651550e+001
9.573911e+002,2.877338e+001
9.583553e+002,2.856464e+001
9.593196e+002,2.699594e+001
9.602838e+002,2.590506e+001
9.612480e+002,2.548773e+001
9.622123e+002,2.471783e+001
9.631765e+002,2.318488e+001
9.641407e+002,2.148544e+001
9.651050e+002,1.938776e+001
9.660692e+002,1.728000e+001
9.670334e+002,1.595886e+001
9.679977e+002,1.602713e+001
9.689619e+002,1.712958e+001
9.699261e+002,1.824768e+001
9.708904e+002,1.934933e+001
9.718546e+002,2.094824e+001
9.728188e+002,2.315555e+001
9.737831e+002,2.558359e+001
9.747473e+002,2.814209e+001
9.757115e+002,3.126599e+001
9.766758e+002,3.239484e+001
9.776400e+002,3.048520e+001
9.786042e+002,2.815237e+001
9.795685e+002,2.520566e+001
9.805327e+002,2.226984e+001
9.814969e+002,2.038077e+001
9.824612e+002,2.001370e+001
9.834254e+002,2.002026e+001
9.843896e+002,1.880283e+001
9.853539e+002,1.733289e+001
9.863181e+002,1.682806e+001
9.872823e+002,1.713315e+001
9.882466e+002,1.734497e+001
9.892108e+002,1.681564e+001
9.901750e+002,1.613327e+001
9.911393e+002,1.784515e+001
9.921035e+002,2.413171e+001
9.930677e+002,2.823505e+001
9.940320e+002,2.867648e+001
9.949962e+002,2.815076e+001
9.959604e+002,2.926190e+001
9.969247e+002,3.216171e+001
9.978889e+002,3.453302e+001
9.988531e+002,3.466406e+001
9.998174e+002,3.414520e+001
1.000782e+003,3.424487e+001
1.001746e+003,3.461118e+001
1.002710e+003,3.436935e+001
1.003674e+003,3.321506e+001
1.004639e+003,3.194736e+001
1.005603e+003,3.209521e+001
1.006567e+003,3.375507e+001
1.007531e+003,3.416238e+001
1.008495e+003,3.290604e+001
1.009460e+003,3.137991e+001
1.010424e+003,3.068790e+001
1.011388e+003,3.052042e+001
1.012352e+003,2.923972e+001
1.013317e+003,2.547128e+001
1.014281e+003,2.282748e+001
1.015245e+003,2.321051e+001
1.016209e+003,2.400717e+001
1.017174e+003,2.320792e+001
1.018138e+003,2.090207e+001
1.019102e+003,1.875241e+001
1.020066e+003,1.823660e+001
1.021031e+003,1.866248e+001
1.021995e+003,1.744150e+001
1.022959e+003,1.477933e+001
1.023923e+003,1.248105e+001
1.024887e+003,1.110587e+001
1.025852e+003,1.032358e+001
1.026816e+003,9.754486e+000
1.027780e+003,9.592560e+000
1.028744e+003,9.409363e+000
1.029709e+003,9.577087e+000
1.030673e+003,9.168640e+000
1.031637e+003,7.000549e+000
1.032601e+003,4.345306e+000
1.033566e+003,3.125366e+000
1.034530e+003,4.038849e+000
1.035494e+003,5.827209e+000
1.036458e+003,7.537659e+000
1.037422e+003,8.784027e+000
1.038387e+003,8.730286e+000
1.039351e+003,7.477448e+000
1.040315e+003,6.374390e+000
1.041279e+003,6.615326e+000
1.042244e+003,7.790039e+000
1.043208e+003,7.353149e+000
1.044172e+003,2.846680e+000
1.045136e+003,7.195129e-001
1.046101e+003,3.020172e+000
1.047065e+003,5.833069e+000
1.048029e+003,6.423218e+000
1.048993e+003,5.155182e+000
1.049958e+003,4.411438e+000
1.050922e+003,5.575470e+000
1.051886e+003,7.172241e+000
1.052850e+003,7.898529e+000
1.053814e+003,7.953979e+000
1.054779e+003,7.112274e+000
1.055743e+003,5.532196e+000
1.056707e+003,4.414185e+000
1.057671e+003,5.297699e+000
1.058636e+003,8.163940e+000
1.059600e+003,9.721680e+000
1.060564e+003,9.344940e+000
1.061528e+003,9.115692e+000
1.062493e+003,9.071411e+000
1.063457e+003,9.092621e+000
1.064421e+003,9.364899e+000
1.065385e+003,9.951416e+000
1.066349e+003,1.000302e+001
1.067314e+003,8.409546e+000
1.068278e+003,6.997009e+000
1.069242e+003,6.997711e+000
1.070206e+003,8.126953e+000
1.071171e+003,1.027539e+001
1.072135e+003,1.306223e+001
1.073099e+003,1.513162e+001
1.074063e+003,1.417548e+001
1.075028e+003,9.823944e+000
1.075992e+003,8.246826e+000
1.076956e+003,1.087372e+001
1.077920e+003,1.303632e+001
1.078885e+003,1.308160e+001
1.079849e+003,1.179733e+001
1.080813e+003,1.033432e+001
1.081777e+003,8.773926e+000
1.082741e+003,7.602905e+000
1.083706e+003,6.581787e+000
1.084670e+003,6.126251e+000
1.085634e+003,7.100708e+000
1.086598e+003,8.753571e+000
1.087563e+003,9.792664e+000
1.088527e+003,9.572235e+000
1.089491e+003,8.535461e+000
1.090455e+003,7.129303e+000
1.091420e+003,5.152710e+000
1.092384e+003,4.576141e+000
1.093348e+003,6.147552e+000
1.094312e+003,7.458862e+000
1.095276e+003,6.853088e+000
1.096241e+003,5.136810e+000
1.097205e+003,4.499481e+000
1.098169e+003,5.325317e+000
1.099133e+003,6.440643e+000
1.100098e+003,8.275055e+000
1.101062e+003,9.612366e+000
1.102026e+003,8.986877e+000
1.102990e+003,7.286713e+000
1.103955e+003,6.628357e+000
1.104919e+003,8.250122e+000
1.105883e+003,1.105899e+001
1.106847e+003,1.293811e+001
1.107812e+003,1.379059e+001
1.108776e+003,1.413831e+001
1.109740e+003,1.399078e+001
1.110704e+003,1.337286e+001
1.111668e+003,1.179044e+001
1.112633e+003,9.856110e+000
1.113597e+003,1.012460e+001
1.114561e+003,1.410760e+001
1.115525e+003,1.691104e+001
1.116490e+003,1.633331e+001
1.117454e+003,1.488766e+001
1.118418e+003,1.395392e+001
1.119382e+003,1.380136e+001
1.120347e+003,1.423318e+001
1.121311e+003,1.497998e+001
1.122275e+003,1.553381e+001
1.123239e+003,1.506409e+001
1.124203e+003,1.398926e+001
1.125168e+003,1.454785e+001
1.126132e+003,1.749963e+001
1.127096e+003,2.069604e+001
1.128060e+003,2.270291e+001
1.129025e+003,2.349683e+001
1.129989e+003,2.291275e+001
1.130953e+003,1.953162e+001
1.131917e+003,1.788049e+001
1.132882e+003,2.023480e+001
1.133846e+003,2.349615e+001
1.134810e+003,2.623724e+001
1.135774e+003,2.825525e+001
1.136739e+003,2.954755e+001
1.137703e+003,3.013187e+001
1.138667e+003,3.071457e+001
1.139631e+003,3.258871e+001
1.140595e+003,3.569995e+001
1.141560e+003,3.928711e+001
1.142524e+003,4.339981e+001
1.143488e+003,4.824243e+001
1.144452e+003,5.421457e+001
1.145417e+003,6.097195e+001
1.146381e+003,6.697678e+001
1.147345e+003,7.116568e+001
1.148309e+003,7.729782e+001
1.149274e+003,8.862329e+001
1.150238e+003,9.977588e+001
1.151202e+003,1.086185e+002
1.152166e+003,1.152292e+002
1.153130e+003,1.203453e+002
1.154095e+003,1.241309e+002
1.155059e+003,1.258472e+002
1.156023e+003,1.248371e+002
1.156987e+003,1.209512e+002
1.157952e+003,1.135714e+002
1.158916e+003,1.021512e+002
1.159880e+003,9.218747e+001
1.160844e+003,8.700153e+001
1.161809e+003,8.451489e+001
1.162773e+003,8.057736e+001
1.163737e+003,7.487665e+001
1.164701e+003,6.915472e+001
1.165666e+003,6.394116e+001
1.166630e+003,5.890601e+001
1.167594e+003,5.299054e+001
1.168558e+003,4.755753e+001
1.169522e+003,4.496533e+001
1.170487e+003,4.555444e+001
1.171451e+003,4.671478e+001
1.172415e+003,4.535007e+001
1.173379e+003,4.215231e+001
1.174344e+003,4.161179e+001
1.175308e+003,4.402664e+001
1.176272e+003,4.496497e+001
1.177236e+003,4.186783e+001
1.178201e+003,3.759109e+001
1.179165e+003,3.554437e+001
1.180129e+003,3.561044e+001
1.181093e+003,3.659830e+001
1.182057e+003,3.994003e+001
1.183022e+003,4.181332e+001
1.183986e+003,4.014847e+001
1.184950e+003,3.706006e+001
1.185914e+003,3.389841e+001
1.186879e+003,3.143643e+001
1.187843e+003,3.068085e+001
1.188807e+003,3.245428e+001
1.189771e+003,3.555899e+001
1.190736e+003,3.652203e+001
1.191700e+003,3.508554e+001
1.192664e+003,3.379636e+001
1.193628e+003,3.330042e+001
1.194593e+003,3.264865e+001
1.195557e+003,3.068042e+001
1.196521e+003,2.791833e+001
1.197485e+003,2.645728e+001
1.198449e+003,2.704614e+001
1.199414e+003,2.765857e+001
1.200378e+003,2.811066e+001
1.201342e+003,2.765854e+001
1.202306e+003,2.472794e+001
1.203271e+003,2.055042e+001
1.204235e+003,1.779825e+001
1.205199e+003,1.773181e+001
1.206163e+003,1.893454e+001
1.207128e+003,1.904279e+001
1.208092e+003,1.801947e+001
1.209056e+003,1.650336e+001
1.210020e+003,1.419833e+001
1.210984e+003,1.210904e+001
1.211949e+003,1.078955e+001
1.212913e+003,9.590240e+000
1.213877e+003,7.466187e+000
1.214841e+003,4.456818e+000
1.215806e+003,2.347565e+000
1.216770e+003,2.405212e+000
1.217734e+003,2.533417e+000
1.218698e+003,4.039917e-001
1.219663e+003,-2.164612e+000
1.220627e+003,-2.471313e+000
1.221591e+003,-4.150696e-001
1.222555e+003,1.742035e+000
1.223520e+003,1.945923e+000
1.224484e+003,5.252991e-001
1.225448e+003,-1.294464e+000
1.226412e+003,-4.287689e+000
1.227376e+003,-5.872498e+000
1.228341e+003,-5.408203e+000
1.229305e+003,-4.436188e+000
1.230269e+003,-3.789825e+000
1.231233e+003,-3.249878e+000
1.232198e+003,-1.801483e+000
1.233162e+003,1.007965e+000
1.234126e+003,2.666321e+000
1.235090e+003,1.956177e-002
1.236055e+003,-3.644348e+000
1.237019e+003,-4.827545e+000
1.237983e+003,-4.064941e+000
1.238947e+003,-2.660126e+000
1.239911e+003,-1.104004e+000
1.240876e+003,1.362305e-001
1.241840e+003,1.634827e-001
1.242804e+003,-1.111023e+000
1.243768e+003,-1.769531e+000
1.244733e+003,-1.221741e+000
1.245697e+003,-7.849426e-001
1.246661e+003,-1.057831e+000
1.247625e+003,-1.332855e+000
1.248590e+003,-5.571594e-001
1.249554e+003,8.928833e-001
1.250518e+003,1.425751e+000
1.251482e+003,1.714783e-001
1.252447e+003,-1.683105e+000
1.253411e+003,-3.221252e+000
1.254375e+003,-3.784668e+000
1.255339e+003,-1.479767e+000
1.256303e+003,3.640961e+000
1.257268e+003,7.813232e+000
1.258232e+003,8.610992e+000
1.259196e+003,7.212677e+000
1.260160e+003,5.990295e+000
1.261125e+003,4.979675e+000
1.262089e+003,4.930878e+000
1.263053e+003,6.296783e+000
1.264017e+003,7.914368e+000
1.264982e+003,1.060034e+001
1.265946e+003,1.274826e+001
1.266910e+003,1.270587e+001
1.267874e+003,1.061032e+001
1.268839e+003,7.440277e+000
1.269803e+003,3.813721e+000
1.270767e+003,8.114929e-001
1.271731e+003,9.585571e-001
1.272695e+003,4.240112e+000
1.273660e+003,6.420807e+000
1.274624e+003,7.233002e+000
1.275588e+003,6.670441e+000
1.276552e+003,3.625549e+000
1.277517e+003,-6.604004e-002
1.278481e+003,-6.322327e-001
1.279445e+003,2.358521e+000
1.280409e+003,4.292786e+000
1.281374e+003,3.024384e+000
1.282338e+003,1.298523e+000
1.283302e+003,-3.710938e-002
1.284266e+003,-7.044067e-001
1.285230e+003,8.053589e-002
1.286195e+003,1.943756e+000
1.287159e+003,3.308258e+000
1.288123e+003,2.939331e+000
1.289087e+003,1.365875e+000
1.290052e+003,-1.624756e-001
1.291016e+003,-2.023010e+000
1.291980e+003,-2.794861e+000
1.292944e+003,-1.461548e+000
1.293909e+003,-7.348633e-001
1.294873e+003,-2.249084e+000
1.295837e+003,-4.383301e+000
1.296801e+003,-4.777496e+000
1.297766e+003,-3.217804e+000
1.298730e+003,-1.549316e+000
1.299694e+003,-6.415100e-001
1.300658e+003,-4.185486e-001
1.301622e+003,-1.088165e+000
1.302587e+003,-2.060028e+000
1.303551e+003,-2.441986e+000
1.304515e+003,-2.042938e+000
1.305479e+003,-1.291382e+000
1.306444e+003,-6.137695e-001
1.307408e+003,2.825928e-002
1.308372e+003,1.147278e+000
1.309336e+003,3.280792e+000
1.310301e+003,4.146667e+000
1.311265e+003,2.785675e+000
1.312229e+003,1.413574e+000
1.313193e+003,1.811829e-001
1.314157e+003,-4.957581e-001
1.315122e+003,3.500671e-001
1.316086e+003,2.231354e+000
1.317050e+003,3.097473e+000
1.318014e+003,1.624420e+000
1.318979e+003,-1.081207e+000
1.319943e+003,-3.673462e+000
1.320907e+003,-5.822906e+000
1.321871e+003,-5.517914e+000
1.322836e+003,-2.055847e+000
1.323800e+003,8.684692e-001
1.324764e+003,8.937073e-001
1.325728e+003,-5.604553e-001
1.326693e+003,-1.394104e+000
1.327657e+003,-1.635956e+000
1.328621e+003,-8.778076e-001
1.329585e+003,2.525452e+000
1.330549e+003,5.236420e+000
1.331514e+003,4.232361e+000
1.332478e+003,2.178070e+000
1.333442e+003,2.101746e+000
1.334406e+003,3.735779e+000
1.335371e+003,4.782867e+000
1.336335e+003,3.827576e+000
1.337299e+003,1.350983e+000
1.338263e+003,-1.995056e+000
1.339228e+003,-6.581696e+000
1.340192e+003,-8.426453e+000
1.341156e+003,-5.486511e+000
1.342120e+003,-3.041138e+000
1.343084e+003,-2.324188e+000
1.344049e+003,-2.199097e+000
1.345013e+003,-1.674164e+000
1.345977e+003,-6.995850e-001
1.346941e+003,4.671326e-001
1.347906e+003,1.767151e+000
1.348870e+003,2.525330e+000
1.349834e+003,1.671509e+000
1.350798e+003,7.009888e-002
1.351763e+003,-2.968445e-001
1.352727e+003,3.905640e-001
1.353691e+003,6.750183e-001
1.354655e+003,-9.957886e-002
1.355620e+003,-9.136963e-001
1.356584e+003,-4.819336e-001
1.357548e+003,1.121185e+000
1.358512e+003,2.967560e+000
1.359476e+003,5.561432e+000
1.360441e+003,6.413483e+000
1.361405e+003,3.877899e+000
1.362369e+003,7.955627e-001
1.363333e+003,-2.424805e+000
1.364298e+003,-4.849823e+000
1.365262e+003,-4.916718e+000
1.366226e+003,-2.696472e+000
1.367190e+003,-2.501831e-001
1.368155e+003,5.892334e-001
1.369119e+003,2.085571e-001
1.370083e+003,-2.243652e-001
1.371047e+003,-7.994690e-001
1.372011e+003,-5.226135e-001
1.372976e+003,1.463348e+000
1.373940e+003,2.784729e+000
1.374904e+003,2.226379e+000
1.375868e+003,8.955688e-001
1.376833e+003,-3.353882e-002
1.377797e+003,-4.431152e-001
1.378761e+003,-4.174500e-001
1.379725e+003,1.779480e-001
1.380690e+003,8.017883e-001
1.381654e+003,5.375366e-001
1.382618e+003,2.123718e-001
1.383582e+003,1.325104e+000
1.384547e+003,3.685150e+000
1.385511e+003,5.417480e+000
1.386475e+003,5.458038e+000
1.387439e+003,4.582428e+000
1.388403e+003,3.727081e+000
1.389368e+003,2.878906e+000
1.390332e+003,3.221222e+000
1.391296e+003,6.379028e+000
1.392260e+003,7.655670e+000
1.393225e+003,3.492004e+000
1.394189e+003,-4.144287e-002
1.395153e+003,2.059875e+000
1.396117e+003,6.423676e+000
1.397082e+003,6.957642e+000
1.398046e+003,2.666107e+000
1.399010e+003,-1.674011e+000
1.399974e+003,-1.761505e+000
1.400938e+003,9.718628e-001
1.401903e+003,2.612549e+000
1.402867e+003,3.402283e+000
1.403831e+003,3.723877e+000
1.404795e+003,2.639069e+000
1.405760e+003,1.954224e+000
1.406724e+003,2.541077e+000
1.407688e+003,3.134094e+000
1.408652e+003,2.338928e+000
1.409617e+003,4.881592e-001
1.410581e+003,-1.133484e+000
1.411545e+003,-2.214722e+000
1.412509e+003,-1.902954e+000
1.413474e+003,2.094452e+000
1.414438e+003,6.786377e+000
1.415402e+003,6.829010e+000
1.416366e+003,3.066254e+000
1.417330e+003,3.558655e-001
1.418295e+003,6.057129e-001
1.419259e+003,2.428772e+000
1.420223e+003,4.661865e+000
1.421187e+003,7.020905e+000
1.422152e+003,8.309326e+000
1.423116e+003,8.502594e+000
1.424080e+003,8.249939e+000
1.425044e+003,6.886902e+000
1.426009e+003,5.669586e+000
1.426973e+003,4.888855e+000
1.427937e+003,4.671509e+000
1.428901e+003,5.729584e+000
1.429865e+003,7.673950e+000
1.430830e+003,8.604980e+000
1.431794e+003,7.243713e+000
1.432758e+003,5.205109e+000
1.433722e+003,6.055054e+000
1.434687e+003,1.042145e+001
1.435651e+003,1.267725e+001
1.436615e+003,1.034329e+001
1.437579e+003,8.489197e+000
1.438544e+003,8.099731e+000
1.439508e+003,7.900665e+000
1.440472e+003,6.490753e+000
1.441436e+003,5.035767e+000
1.442401e+003,6.244507e+000
1.443365e+003,1.038474e+001
1.444329e+003,1.404404e+001
1.445293e+003,1.484735e+001
1.446257e+003,1.354462e+001
1.447222e+003,1.060867e+001
1.448186e+003,6.493042e+000
1.449150e+003,3.984467e+000
1.450114e+003,3.337799e+000
1.451079e+003,3.964142e+000
1.452043e+003,7.227386e+000
1.453007e+003,1.066794e+001
1.453971e+003,9.859619e+000
1.454936e+003,5.442566e+000
1.455900e+003,3.240295e+000
1.456864e+003,5.052551e+000
1.457828e+003,7.359558e+000
1.458792e+003,7.959015e+000
1.459757e+003,8.195221e+000
1.460721e+003,9.621521e+000
1.461685e+003,1.141284e+001
1.462649e+003,1.169962e+001
1.463614e+003,1.016360e+001
1.464578e+003,8.301331e+000
1.465542e+003,7.280151e+000
1.466506e+003,6.963989e+000
1.467471e+003,7.295807e+000
1.468435e+003,8.679626e+000
1.469399e+003,9.630005e+000
1.470363e+003,9.023834e+000
1.471328e+003,9.093109e+000
1.472292e+003,1.124307e+001
1.473256e+003,1.302112e+001
1.474220e+003,1.249924e+001
1.475184e+003,1.065524e+001
1.476149e+003,9.203247e+000
1.477113e+003,8.747986e+000
1.478077e+003,9.211243e+000
1.479041e+003,1.071786e+001
1.480006e+003,1.275009e+001
1.480970e+003,1.311395e+001
1.481934e+003,1.090076e+001
1.482898e+003,1.015900e+001
1.483863e+003,1.214148e+001
1.484827e+003,1.358658e+001
1.485791e+003,1.320200e+001
1.486755e+003,1.258551e+001
1.487719e+003,1.314438e+001
1.488684e+003,1.456540e+001
1.489648e+003,1.590149e+001
1.490612e+003,1.691901e+001
1.491576e+003,1.782376e+001
1.492541e+003,1.863177e+001
1.493505e+003,1.948511e+001
1.494469e+003,2.091064e+001
1.495433e+003,2.260519e+001
1.496398e+003,2.362500e+001
1.497362e+003,2.369858e+001
1.498326e+003,2.451941e+001
1.499290e+003,2.685251e+001
1.500255e+003,3.044275e+001
1.501219e+003,3.538199e+001
1.502183e+003,4.130112e+001
1.503147e+003,4.662500e+001
1.504111e+003,5.109171e+001
1.505076e+003,5.437445e+001
1.506040e+003,5.454184e+001
1.507004e+003,5.543784e+001
1.507968e+003,6.117392e+001
1.508933e+003,7.023660e+001
1.509897e+003,8.006497e+001
1.510861e+003,9.024121e+001
1.511825e+003,9.977069e+001
1.512790e+003,1.074966e+002
1.513754e+003,1.144184e+002
1.514718e+003,1.229268e+002
1.515682e+003,1.328617e+002
1.516646e+003,1.419676e+002
1.517611e+003,1.507118e+002
1.518575e+003,1.576347e+002
1.519539e+003,1.625985e+002
1.520503e+003,1.656172e+002
1.521468e+003,1.657341e+002
1.522432e+003,1.641530e+002
1.523396e+003,1.627221e+002
1.524360e+003,1.614558e+002
1.525325e+003,1.589073e+002
1.526289e+003,1.541718e+002
1.527253e+003,1.474885e+002
1.528217e+003,1.390365e+002
1.529182e+003,1.289274e+002
1.530146e+003,1.186154e+002
1.531110e+003,1.070066e+002
1.532074e+003,9.701218e+001
1.533039e+003,9.042554e+001
1.534003e+003,8.271194e+001
1.534967e+003,7.055099e+001
1.535931e+003,5.775266e+001
1.536896e+003,4.875549e+001
1.537860e+003,4.352069e+001
1.538824e+003,3.918658e+001
1.539788e+003,3.417502e+001
1.540752e+003,2.935181e+001
1.541717e+003,2.602618e+001
1.542681e+003,2.396542e+001
1.543645e+003,2.100763e+001
1.544609e+003,1.602158e+001
1.545573e+003,1.370410e+001
1.546538e+003,1.552493e+001
1.547502e+003,1.749847e+001
1.548466e+003,1.893622e+001
1.549430e+003,1.968051e+001
1.550395e+003,1.918256e+001
1.551359e+003,1.772571e+001
1.552323e+003,1.627103e+001
1.553287e+003,1.517993e+001
1.554252e+003,1.392166e+001
1.555216e+003,1.182861e+001
1.556180e+003,9.756378e+000
1.557144e+003,1.021179e+001
1.558109e+003,1.335187e+001
1.559073e+003,1.416394e+001
1.560037e+003,1.075815e+001
1.561001e+003,8.268036e+000
1.561966e+003,9.530731e+000
1.562930e+003,1.178632e+001
1.563894e+003,1.252747e+001
1.564858e+003,1.199887e+001
1.565823e+003,1.105945e+001
1.566787e+003,9.914124e+000
1.567751e+003,8.947632e+000
1.568715e+003,8.447296e+000
1.569679e+003,8.230103e+000
1.570644e+003,7.997467e+000
1.571608e+003,7.703339e+000
1.572572e+003,7.342133e+000
1.573536e+003,7.001099e+000
1.574500e+003,7.697327e+000
1.575465e+003,1.032861e+001
1.576429e+003,1.306125e+001
1.577393e+003,1.448160e+001
1.578357e+003,1.481516e+001
1.579322e+003,1.448331e+001
1.580286e+003,1.361606e+001
1.581250e+003,1.251495e+001
1.582214e+003,1.106238e+001
1.583179e+003,1.016064e+001
1.584143e+003,1.085654e+001
1.585107e+003,1.195746e+001
1.586071e+003,1.186328e+001
1.587036e+003,1.116745e+001
1.588000e+003,1.117126e+001
1.588964e+003,1.204715e+001
1.589928e+003,1.329086e+001
1.590893e+003,1.498056e+001
1.591857e+003,1.651437e+001
1.592821e+003,1.662570e+001
1.593785e+003,1.568701e+001
1.594750e+003,1.590909e+001
1.595714e+003,1.773917e+001
1.596678e+003,1.899875e+001
1.597642e+003,1.854266e+001
1.598606e+003,1.769818e+001
1.599571e+003,1.786975e+001
1.600535e+003,1.822241e+001
1.601499e+003,1.740918e+001
1.602463e+003,1.553299e+001
1.603427e+003,1.370029e+001
1.604392e+003,1.226636e+001
1.605356e+003,1.177859e+001
1.606320e+003,1.351575e+001
1.607284e+003,1.640363e+001
1.608249e+003,1.704868e+001
1.609213e+003,1.535300e+001
1.610177e+003,1.445828e+001
1.611141e+003,1.519089e+001
1.612106e+003,1.598383e+001
1.613070e+003,1.599875e+001
1.614034e+003,1.584140e+001
1.614998e+003,1.610336e+001
1.615963e+003,1.644589e+001
1.616927e+003,1.605548e+001
1.617891e+003,1.490509e+001
1.618855e+003,1.395044e+001
1.619820e+003,1.371997e+001
1.620784e+003,1.363303e+001
1.621748e+003,1.316861e+001
1.622712e+003,1.258615e+001
1.623677e+003,1.196765e+001
1.624641e+003,1.120087e+001
1.625605e+003,1.121762e+001
1.626569e+003,1.219025e+001
1.627533e+003,1.320251e+001
1.628498e+003,1.467657e+001
1.629462e+003,1.563495e+001
1.630426e+003,1.470197e+001
1.631390e+003,1.263367e+001
1.632354e+003,1.096277e+001
1.633319e+003,1.014697e+001
1.634283e+003,1.034451e+001
1.635247e+003,1.187238e+001
1.636211e+003,1.374918e+001
1.637176e+003,1.424207e+001
1.638140e+003,1.350439e+001
1.639104e+003,1.281464e+001
1.640068e+003,1.221152e+001
1.641033e+003,1.126215e+001
1.641997e+003,8.948761e+000
1.642961e+003,7.768402e+000
1.643925e+003,9.775787e+000
1.644890e+003,1.268799e+001
1.645854e+003,1.434097e+001
1.646818e+003,1.486963e+001
1.647782e+003,1.541034e+001
1.648747e+003,1.625418e+001
1.649711e+003,1.632574e+001
1.650675e+003,1.454099e+001
1.651639e+003,1.218518e+001
1.652604e+003,1.199423e+001
1.653568e+003,1.377557e+001
1.654532e+003,1.464053e+001
1.655496e+003,1.441122e+001
1.656460e+003,1.334027e+001
1.657425e+003,1.046902e+001
1.658389e+003,8.302338e+000
1.659353e+003,8.658020e+000
1.660317e+003,9.949310e+000
1.661281e+003,1.056360e+001
1.662246e+003,1.050223e+001
1.663210e+003,1.057880e+001
1.664174e+003,1.108737e+001
1.665138e+003,1.113007e+001
1.666103e+003,9.688660e+000
1.667067e+003,7.502960e+000
1.668031e+003,6.120483e+000
1.668995e+003,5.548676e+000
1.669960e+003,5.273865e+000
1.670924e+003,5.336395e+000
1.671888e+003,5.604919e+000
1.672852e+003,6.211151e+000
1.673817e+003,6.586487e+000
1.674781e+003,6.070038e+000
1.675745e+003,5.346649e+000
1.676709e+003,5.290649e+000
1.677674e+003,5.689026e+000
1.678638e+003,5.536652e+000
1.679602e+003,4.540619e+000
1.680566e+003,4.007507e+000
1.681531e+003,5.261322e+000
1.682495e+003,7.361176e+000
1.683459e+003,8.749786e+000
1.684423e+003,9.339172e+000
1.685387e+003,9.025757e+000
1.686352e+003,7.753296e+000
1.687316e+003,6.285706e+000
1.688280e+003,4.389954e+000
1.689244e+003,3.230316e+000
1.690208e+003,4.448730e+000
1.691173e+003,6.259583e+000
1.692137e+003,6.832184e+000
1.693101e+003,6.464844e+000
1.694065e+003,5.994476e+000
1.695030e+003,5.479279e+000
1.695994e+003,4.733704e+000
1.696958e+003,3.257690e+000
1.697922e+003,2.143494e+000
1.698887e+003,3.654114e+000
1.699851e+003,6.539703e+000
1.700815e+003,6.415527e+000
1.701779e+003,2.911255e+000
1.702744e+003,-3.735046e-001
1.703708e+003,-2.425812e+000
1.704672e+003,-2.834900e+000
1.705636e+003,-7.641296e-001
1.706601e+003,2.172333e+000
1.707565e+003,4.381805e+000
1.708529e+003,5.759399e+000
1.709493e+003,5.057220e+000
1.710458e+003,1.814331e+000
1.711422e+003,-7.059937e-001
1.712386e+003,-9.228210e-001
1.713350e+003,-1.000977e-002
1.714314e+003,1.600922e+000
1.715279e+003,3.162445e+000
1.716243e+003,3.463593e+000
1.717207e+003,2.639557e+000
1.718171e+003,1.440002e+000
1.719135e+003,1.074219e-001
1.720100e+003,-7.482910e-002
1.721064e+003,2.072693e+000
1.722028e+003,4.621552e+000
1.722992e+003,4.860443e+000
1.723957e+003,3.323029e+000
1.724921e+003,2.114258e+000
1.725885e+003,9.285889e-001
1.726849e+003,1.830444e-001
1.727814e+003,4.657898e-001
1.728778e+003,1.058960e+000
1.729742e+003,1.872192e+000
1.730706e+003,2.553436e+000
1.731671e+003,2.663147e+000
1.732635e+003,2.120636e+000
1.733599e+003,9.250183e-001
1.734563e+003,-5.750122e-001
1.735528e+003,-1.556854e+000
1.736492e+003,-1.659698e+000
1.737456e+003,-9.732971e-001
1.738420e+003,5.706177e-001
1.739385e+003,2.321899e+000
1.740349e+003,2.219971e+000
1.741313e+003,-2.106018e-001
1.742277e+003,-1.481628e+000
1.743241e+003,-1.877747e-001
1.744206e+003,2.472229e-001
1.745170e+003,-1.452576e+000
1.746134e+003,-3.291504e+000
1.747098e+003,-4.661072e+000
1.748063e+003,-5.238983e+000
1.749027e+003,-4.244080e+000
1.749991e+003,-2.268097e+000
1.750955e+003,-8.022766e-001
1.751919e+003,-3.948669e-001
1.752884e+003,-5.069580e-001
1.753848e+003,-6.947327e-001
1.754812e+003,-1.081390e+000
1.755776e+003,-1.797913e+000
1.756741e+003,-2.711639e+000
1.757705e+003,-4.209778e+000
1.758669e+003,-7.713226e+000
1.759633e+003,-7.870819e+000
1.760598e+003,-1.272583e-001
1.761562e+003,4.940674e+000
1.762526e+003,1.868744e+000
1.763490e+003,-2.205505e+000
1.764455e+003,-1.857788e+000
1.765419e+003,7.355042e-001
1.766383e+003,1.590637e+000
1.767347e+003,2.789307e-001
1.768312e+003,-1.220093e+000
1.769276e+003,-2.025482e+000
1.770240e+003,-2.602203e+000
1.771204e+003,-3.297333e+000
1.772168e+003,-3.788116e+000
1.773133e+003,-3.371979e+000
1.774097e+003,-2.224762e+000
1.775061e+003,-2.398132e+000
1.776025e+003,-4.564636e+000
1.776990e+003,-5.564728e+000
1.777954e+003,-3.741150e+000
1.778918e+003,-1.353577e+000
1.779882e+003,1.855774e-001
1.780846e+003,9.183044e-001
1.781811e+003,1.058105e+000
1.782775e+003,6.822205e-001
1.783739e+003,-4.065552e-001
1.784703e+003,-2.349060e+000
1.785668e+003,-3.044647e+000
1.786632e+003,-8.783875e-001
1.787596e+003,1.411377e+000
1.788560e+003,2.077972e+000
1.789525e+003,1.887207e+000
1.790489e+003,1.514191e+000
1.791453e+003,9.976501e-001
1.792417e+003,4.010315e-001
1.793382e+003,-2.370605e-001
1.794346e+003,-8.571472e-001
1.795310e+003,-1.456421e+000
1.796274e+003,-1.987976e+000
1.797239e+003,-2.237274e+000
1.798203e+003,-2.272949e+000
1.799167e+003,-3.007202e+000
1.800131e+003,-5.022095e+000
1.801095e+003,-5.976807e+000
1.802060e+003,-4.939453e+000
1.803024e+003,-3.850342e+000
1.803988e+003,-2.856567e+000
1.804952e+003,-2.107758e+000
1.805917e+003,-2.039825e+000
1.806881e+003,-1.952026e+000
1.807845e+003,-7.460327e-001
1.808809e+003,1.001160e+000
1.809773e+003,1.959839e+000
1.810738e+003,1.861725e+000
1.811702e+003,1.418365e+000
1.812666e+003,1.061859e+000
1.813630e+003,4.877625e-001
1.814595e+003,-8.184814e-001
1.815559e+003,-2.584473e+000
1.816523e+003,-3.453430e+000
1.817487e+003,-3.318939e+000
1.818452e+003,-2.959991e+000
1.819416e+003,-2.033478e+000
1.820380e+003,-1.585022e+000
1.821344e+003,-2.260864e+000
1.822309e+003,-3.274750e+000
1.823273e+003,-4.649567e+000
1.824237e+003,-5.532501e+000
1.825201e+003,-4.443115e+000
1.826166e+003,-2.376190e+000
1.827130e+003,-2.187408e+000
1.828094e+003,-4.353607e+000
1.829058e+003,-6.022461e+000
1.830022e+003,-5.760010e+000
1.830987e+003,-4.545959e+000
1.831951e+003,-2.164459e+000
1.832915e+003,-6.039429e-002
1.833879e+003,-1.117950e+000
1.834844e+003,-4.195160e+000
1.835808e+003,-5.456818e+000
1.836772e+003,-4.437683e+000
1.837736e+003,-3.450226e+000
1.838700e+003,-3.557251e+000
1.839665e+003,-4.272888e+000
1.840629e+003,-5.255768e+000
1.841593e+003,-5.985901e+000
1.842557e+003,-5.359863e+000
1.843522e+003,-3.410339e+000
1.844486e+003,-2.005371e+000
1.845450e+003,-8.769226e-001
1.846414e+003,-4.879456e-001
1.847379e+003,-1.812775e+000
1.848343e+003,-3.033600e+000
1.849307e+003,-3.771973e+000
1.850271e+003,-3.901154e+000
1.851236e+003,-2.910675e+000
1.852200e+003,-1.408295e+000
1.853164e+003,1.049805e-002
1.854128e+003,8.220825e-001
1.855093e+003,1.693726e-001
1.856057e+003,-1.954987e+000
1.857021e+003,-3.939087e+000
1.857985e+003,-4.503113e+000
1.858949e+003,-4.379852e+000
1.859914e+003,-4.906372e+000
1.860878e+003,-5.809235e+000
1.861842e+003,-5.691010e+000
1.862806e+003,-4.575867e+000
1.863771e+003,-3.309326e+000
1.864735e+003,-1.974243e+000
1.865699e+003,-9.927979e-001
1.866663e+003,-3.224182e-001
1.867627e+003,-2.495728e-001
1.868592e+003,-1.913635e+000
1.869556e+003,-4.061676e+000
1.870520e+003,-3.549103e+000
1.871484e+003,-9.333496e-001
1.872449e+003,-3.326416e-002
1.873413e+003,-1.404968e+000
1.874377e+003,-2.010590e+000
1.875341e+003,-4.945374e-001
1.876306e+003,6.021729e-001
1.877270e+003,-6.436157e-001
1.878234e+003,-2.527740e+000
1.879198e+003,-3.204651e+000
1.880163e+003,-3.138214e+000
1.881127e+003,-3.830597e+000
1.882091e+003,-4.989838e+000
1.883055e+003,-4.294922e+000
1.884020e+003,-1.056396e+000
1.884984e+003,1.920898e+000
1.885948e+003,2.097412e+000
1.886912e+003,4.159546e-001
1.887876e+003,-1.391785e+000
1.888841e+003,-3.254852e+000
1.889805e+003,-4.449890e+000
1.890769e+003,-4.990997e+000
1.891733e+003,-4.735046e+000
1.892698e+003,-3.529877e+000
1.893662e+003,-2.101410e+000
1.894626e+003,1.356506e-001
1.895590e+003,1.531311e+000
1.896554e+003,6.354675e-001
1.897519e+003,-1.316467e+000
1.898483e+003,-3.799072e+000
1.899447e+003,-6.269531e+000
1.900411e+003,-6.449280e+000
1.901376e+003,-3.772156e+000
1.902340e+003,-1.357300e+000
1.903304e+003,-4.333801e-001
1.904268e+003,-9.155273e-003
1.905233e+003,4.119873e-001
1.906197e+003,8.427429e-001
1.907161e+003,1.582489e+000
1.908125e+003,2.258118e+000
1.909090e+003,1.796539e+000
1.910054e+003,3.967590e-001
1.911018e+003,-4.182739e-001
1.911982e+003,-1.555481e-001
1.912947e+003,-7.086182e-002
1.913911e+003,-1.135559e+000
1.914875e+003,-2.109589e+000
1.915839e+003,-1.056396e+000
1.916803e+003,1.546906e+000
1.917768e+003,4.191711e+000
1.918732e+003,7.366150e+000
1.919696e+003,7.886963e+000
1.920660e+003,4.641327e+000
1.921625e+003,2.075012e+000
1.922589e+003,1.242432e+000
1.923553e+003,8.638611e-001
1.924517e+003,5.538940e-001
1.925481e+003,2.155762e-001
1.926446e+003,-8.457642e-001
1.927410e+003,-1.754211e+000
1.928374e+003,-1.907043e-001
1.929338e+003,3.575165e+000
1.930303e+003,5.410370e+000
1.931267e+003,3.863495e+000
1.932231e+003,2.470764e+000
1.933195e+003,3.287628e+000
1.934160e+003,3.909637e+000
1.935124e+003,1.878387e+000
1.936088e+003,-8.515320e-001
1.937052e+003,-1.392609e+000
1.938017e+003,-5.508118e-001
1.938981e+003,-8.811951e-001
1.939945e+003,-2.572845e+000
1.940909e+003,-3.849304e+000
1.941874e+003,-3.928558e+000
1.942838e+003,-3.481659e+000
1.943802e+003,-2.995850e+000
1.944766e+003,-2.307220e+000
1.945730e+003,-1.272400e+000
1.946695e+003,-9.771729e-002
1.947659e+003,1.332397e-001
1.948623e+003,-7.785339e-001
1.949587e+003,-6.143188e-001
1.950552e+003,1.344299e+000
1.951516e+003,2.753815e+000
1.952480e+003,2.939545e+000
1.953444e+003,2.085297e+000
1.954408e+003,-8.667603e-001
1.955373e+003,-3.803101e+000
1.956337e+003,-2.721893e+000
1.957301e+003,1.134430e+000
1.958265e+003,2.597198e+000
1.959230e+003,1.214752e+000
1.960194e+003,5.436096e-001
1.961158e+003,1.191254e+000
1.962122e+003,1.896790e+000
1.963087e+003,2.878937e+000
1.964051e+003,3.262634e+000
1.965015e+003,2.082947e+000
1.965979e+003,7.514038e-001
1.966944e+003,6.171265e-001
1.967908e+003,1.188690e+000
1.968872e+003,1.483551e+000
1.969836e+003,1.401123e+000
1.970801e+003,1.423737e+000
1.971765e+003,1.761688e+000
1.972729e+003,2.128143e+000
1.973693e+003,2.337219e+000
1.974657e+003,2.226379e+000
1.975622e+003,9.897156e-001
1.976586e+003,-6.635132e-001
1.977550e+003,-2.313232e-001
1.978514e+003,1.902740e+000
1.979479e+003,3.035278e+000
1.980443e+003,2.754181e+000
1.981407e+003,1.913788e+000
1.982371e+003,8.437195e-001
1.983335e+003,1.097717e-001
1.984300e+003,6.631470e-002
1.985264e+003,4.204102e-001
1.986228e+003,8.673096e-001
1.987192e+003,1.365723e+000
1.988157e+003,1.726013e+000
1.989121e+003,2.019653e+000
1.990085e+003,2.110291e+000
1.991049e+003,2.107025e+000
1.992014e+003,1.843567e+000
1.992978e+003,2.237854e-001
1.993942e+003,-3.415222e-001
1.994906e+003,2.451477e+000
1.995871e+003,5.072388e+000
1.996835e+003,4.478058e+000
1.997799e+003,2.436920e+000
1.998763e+003,1.337982e+000
1.999728e+003,1.215576e+000
