5.003444e+002,5.159247e+001
5.013087e+002,5.194560e+001
5.022729e+002,5.044325e+001
5.032371e+002,4.764680e+001
5.042014e+002,4.495099e+001
5.051656e+002,4.243518e+001
5.061298e+002,4.051570e+001
5.070941e+002,3.958730e+001
5.080583e+002,3.978192e+001
5.090225e+002,3.984195e+001
5.099868e+002,3.933595e+001
5.109510e+002,3.914775e+001
5.119152e+002,4.008812e+001
5.128795e+002,4.230646e+001
5.138437e+002,4.372177e+001
5.148079e+002,4.315923e+001
5.157722e+002,4.217503e+001
5.167364e+002,4.130774e+001
5.177006e+002,4.059009e+001
5.186649e+002,3.959151e+001
5.196291e+002,3.735652e+001
5.205933e+002,3.518718e+001
5.215576e+002,3.464720e+001
5.225218e+002,3.562463e+001
5.234860e+002,3.700755e+001
5.244503e+002,3.692754e+001
5.254145e+002,3.495895e+001
5.263787e+002,3.396364e+001
5.273430e+002,3.447948e+001
5.283072e+002,3.559685e+001
5.292714e+002,3.592390e+001
5.302357e+002,3.456129e+001
5.311999e+002,3.393176e+001
5.321641e+002,3.555128e+001
5.331284e+002,3.733351e+001
5.340926e+002,3.745499e+001
5.350568e+002,3.509608e+001
5.360211e+002,3.197539e+001
5.369853e+002,2.944420e+001
5.379495e+002,2.741684e+001
5.389138e+002,2.577266e+001
5.398780e+002,2.445926e+001
5.408422e+002,2.358112e+001
5.418065e+002,2.365656e+001
5.427707e+002,2.456657e+001
5.437349e+002,2.582018e+001
5.446992e+002,2.754276e+001
5.456634e+002,2.932733e+001
5.466276e+002,2.976581e+001
5.475919e+002,2.678635e+001
5.485561e+002,2.511514e+001
5.495203e+002,2.586118e+001
5.504846e+002,2.758165e+001
5.514488e+002,2.810971e+001
5.524130e+002,2.613206e+001
5.533773e+002,2.445319e+001
5.543415e+002,2.513451e+001
5.553057e+002,2.650606e+001
5.562700e+002,2.665887e+001
5.572342e+002,2.441859e+001
5.581984e+002,2.103975e+001
5.591627e+002,1.944562e+001
5.601269e+002,1.923683e+001
5.610911e+002,1.988017e+001
5.620554e+002,2.114354e+001
5.630196e+002,2.282500e+001
5.639838e+002,2.354926e+001
5.649481e+002,2.299805e+001
5.659123e+002,2.200175e+001
5.668765e+002,2.035185e+001
5.678408e+002,1.850525e+001
5.688050e+002,1.762761e+001
5.697692e+002,1.881046e+001
5.707335e+002,1.944220e+001
5.716977e+002,1.865375e+001
5.726619e+002,1.702437e+001
5.736262e+002,1.530696e+001
5.745904e+002,1.399298e+001
5.755546e+002,1.297986e+001
5.765189e+002,1.185654e+001
5.774831e+002,1.066035e+001
5.784473e+002,9.527481e+000
5.794116e+002,8.616974e+000
5.803758e+002,8.084473e+000
5.813400e+002,9.054199e+000
5.823043e+002,1.205650e+001
5.832685e+002,1.422192e+001
5.842327e+002,1.406157e+001
5.851970e+002,1.213112e+001
5.861612e+002,1.152428e+001
5.871254e+002,1.444504e+001
5.880897e+002,1.654749e+001
5.890539e+002,1.644226e+001
5.900181e+002,1.499608e+001
5.909824e+002,1.392650e+001
5.919466e+002,1.467117e+001
5.929108e+002,1.533781e+001
5.938751e+002,1.359308e+001
5.948393e+002,1.054976e+001
5.958035e+002,7.832291e+000
5.967678e+002,6.645844e+000
5.977320e+002,6.894730e+000
5.986962e+002,7.684235e+000
5.996605e+002,8.857529e+000
6.006247e+002,9.954391e+000
6.015889e+002,1.091689e+001
6.025532e+002,1.173196e+001
6.035174e+002,1.203522e+001
6.044816e+002,1.120479e+001
6.054459e+002,1.054053e+001
6.064101e+002,9.994446e+000
6.073743e+002,9.762970e+000
6.083386e+002,1.041301e+001
6.093028e+002,1.306490e+001
6.102670e+002,1.494778e+001
6.112313e+002,1.319667e+001
6.121955e+002,9.798187e+000
6.131597e+002,7.389832e+000
6.141240e+002,7.758484e+000
6.150882e+002,1.009879e+001
6.160524e+002,1.112614e+001
6.170167e+002,1.113892e+001
6.179809e+002,1.104181e+001
6.189451e+002,1.119066e+001
6.199094e+002,1.145668e+001
6.208736e+002,1.133702e+001
6.218378e+002,1.067050e+001
6.228021e+002,1.003508e+001
6.237663e+002,9.487564e+000
6.247305e+002,9.039856e+000
6.256948e+002,8.633453e+000
6.266590e+002,8.106476e+000
6.276232e+002,7.632401e+000
6.285875e+002,7.371140e+000
6.295517e+002,7.346466e+000
6.305159e+002,7.444672e+000
6.314802e+002,7.596802e+000
6.324444e+002,7.959900e+000
6.334086e+002,1.013797e+001
6.343729e+002,1.336868e+001
6.353371e+002,1.445743e+001
6.363013e+002,1.180963e+001
6.372656e+002,6.759354e+000
6.382298e+002,4.244492e+000
6.391940e+002,7.887451e+000
6.401583e+002,9.278030e+000
6.411225e+002,7.013184e+000
6.420867e+002,3.403641e+000
6.430510e+002,9.593658e-001
6.440152e+002,2.566681e-001
6.449794e+002,5.391541e-001
6.459437e+002,2.411545e+000
6.469079e+002,4.211670e+000
6.478721e+002,4.261902e+000
6.488364e+002,2.236877e+000
6.498006e+002,-1.735840e-001
6.507648e+002,6.107941e-001
6.517291e+002,3.134705e+000
6.526933e+002,3.530563e+000
6.536575e+002,9.338837e-001
6.546218e+002,-2.726440e+000
6.555860e+002,-3.690094e+000
6.565502e+002,-2.822266e-001
6.575145e+002,2.529388e+000
6.584787e+002,5.350983e+000
6.594429e+002,7.241592e+000
6.604072e+002,7.143677e+000
6.613714e+002,4.732178e+000
6.623356e+002,2.199493e+000
6.632999e+002,-3.538971e-001
6.642641e+002,-2.136246e+000
6.652283e+002,-2.074371e+000
6.661926e+002,-4.486389e-001
6.671568e+002,1.351425e+000
6.681210e+002,1.487167e+000
6.690853e+002,5.891571e-001
6.700495e+002,7.366180e-001
6.710137e+002,1.902939e+000
6.719780e+002,3.020187e+000
6.729422e+002,2.873398e+000
6.739064e+002,1.063583e+000
6.748707e+002,9.872437e-002
6.758349e+002,2.914429e-002
6.767991e+002,3.926849e-001
6.777634e+002,1.466537e+000
6.787276e+002,3.150299e+000
6.796918e+002,4.320465e+000
6.806561e+002,4.067139e+000
6.816203e+002,3.445129e+000
6.825845e+002,2.187485e+000
6.835488e+002,9.946289e-001
6.845130e+002,1.273224e+000
6.854772e+002,4.343460e+000
6.864415e+002,8.192978e+000
6.874057e+002,7.597412e+000
6.883699e+002,3.855667e+000
6.893342e+002,3.948517e-001
6.902984e+002,-8.375702e-001
6.912626e+002,-1.253967e-001
6.922269e+002,2.653809e-001
6.931911e+002,4.466248e-002
6.941553e+002,2.680359e-001
6.951196e+002,1.164490e+000
6.960838e+002,2.285629e+000
6.970480e+002,3.085007e+000
6.980123e+002,3.597412e+000
6.989765e+002,3.502991e+000
6.999407e+002,2.269089e+000
7.009050e+002,7.939911e-001
7.018692e+002,-4.565582e-001
7.028334e+002,-1.215042e+000
7.037977e+002,-1.160248e+000
7.047619e+002,1.358917e+000
7.057261e+002,4.808640e+000
7.066904e+002,5.160461e+000
7.076546e+002,1.766373e+000
7.086188e+002,-2.507584e+000
7.095831e+002,-2.944519e+000
7.105473e+002,2.429550e+000
7.115115e+002,5.217819e+000
7.124758e+002,4.262390e+000
7.134400e+002,2.405090e+000
7.144042e+002,1.182556e+000
7.153685e+002,7.403717e-001
7.163327e+002,5.326080e-001
7.172969e+002,4.856567e-001
7.182612e+002,5.219574e-001
7.192254e+002,5.062103e-001
7.201896e+002,4.923859e-001
7.211539e+002,6.911469e-001
7.221181e+002,1.346863e+000
7.230823e+002,2.138794e+000
7.240466e+002,2.123337e+000
7.250108e+002,1.588165e+000
7.259750e+002,1.237686e+000
7.269393e+002,1.381973e+000
7.279035e+002,1.839020e+000
7.288677e+002,2.150162e+000
7.298320e+002,2.753159e+000
7.307962e+002,3.145782e+000
7.317604e+002,2.866837e+000
7.327247e+002,2.560211e+000
7.336889e+002,3.292099e+000
7.346531e+002,5.658051e+000
7.356174e+002,7.077408e+000
7.365816e+002,6.025574e+000
7.375458e+002,4.177536e+000
7.385101e+002,2.307281e+000
7.394743e+002,8.973846e-001
7.404385e+002,4.564819e-001
7.414028e+002,2.242615e+000
7.423670e+002,5.276535e+000
7.433312e+002,5.983215e+000
7.442955e+002,4.123367e+000
7.452597e+002,1.874100e+000
7.462239e+002,1.832611e+000
7.471882e+002,4.847656e+000
7.481524e+002,6.073883e+000
7.491166e+002,3.916229e+000
7.500809e+002,1.777008e+000
7.510451e+002,1.081223e+000
7.520093e+002,1.524353e+000
7.529736e+002,1.632614e+000
7.539378e+002,4.336700e-001
7.549020e+002,-4.275665e-001
7.558663e+002,2.949524e-001
7.568306e+002,1.839432e+000
7.577948e+002,3.155945e+000
7.587590e+002,3.566513e+000
7.597233e+002,3.278625e+000
7.606875e+002,3.219376e+000
7.616517e+002,3.420959e+000
7.626160e+002,2.885101e+000
7.635802e+002,8.527374e-001
7.645444e+002,-1.483597e+000
7.655087e+002,-1.343430e+000
7.664729e+002,3.311813e+000
7.674371e+002,5.831314e+000
7.684014e+002,4.432236e+000
7.693656e+002,2.423050e+000
7.703298e+002,2.133423e+000
7.712941e+002,3.729507e+000
7.722583e+002,5.068008e+000
7.732225e+002,4.187592e+000
7.741868e+002,2.759613e+000
7.751510e+002,1.658035e+000
7.761152e+002,1.166595e+000
7.770795e+002,1.860687e+000
7.780437e+002,4.267044e+000
7.790079e+002,7.881607e+000
7.799722e+002,7.915024e+000
7.809364e+002,4.022232e+000
7.819006e+002,1.060730e+000
7.828649e+002,1.478256e+000
7.838291e+002,4.364227e+000
7.847933e+002,6.601639e+000
7.857576e+002,8.482925e+000
7.867218e+002,8.335281e+000
7.876860e+002,4.353058e+000
7.886503e+002,-1.157684e-001
7.896145e+002,-2.110397e+000
7.905787e+002,-9.527893e-001
7.915430e+002,9.656982e-001
7.925072e+002,8.614502e-001
7.934714e+002,6.990051e-002
7.944357e+002,4.185486e-001
7.953999e+002,1.926346e+000
7.963641e+002,3.381531e+000
7.973284e+002,3.326309e+000
7.982926e+002,1.605087e+000
7.992568e+002,1.495392e+000
8.002211e+002,3.493591e+000
8.011853e+002,5.201981e+000
8.021495e+002,6.055801e+000
8.031138e+002,6.295074e+000
8.040780e+002,6.171341e+000
8.050422e+002,5.178268e+000
8.060065e+002,4.333969e+000
8.069707e+002,3.414581e+000
8.079349e+002,2.935562e+000
8.088992e+002,3.732620e+000
8.098634e+002,6.011414e+000
8.108276e+002,8.756866e+000
8.117919e+002,1.077841e+001
8.127561e+002,1.169783e+001
8.137203e+002,1.087552e+001
8.146846e+002,8.414902e+000
8.156488e+002,5.539764e+000
8.166130e+002,3.624390e+000
8.175773e+002,2.722672e+000
8.185415e+002,2.255844e+000
8.195057e+002,2.034042e+000
8.204700e+002,2.131760e+000
8.214342e+002,2.901443e+000
8.223984e+002,4.018173e+000
8.233627e+002,4.655457e+000
8.243269e+002,4.500885e+000
8.252911e+002,3.941086e+000
8.262554e+002,2.390823e+000
8.272196e+002,1.069870e+000
8.281838e+002,1.629135e+000
8.291481e+002,4.404770e+000
8.301123e+002,7.912689e+000
8.310765e+002,9.583344e+000
8.320408e+002,9.371231e+000
8.330050e+002,8.707596e+000
8.339692e+002,7.594711e+000
8.349335e+002,6.333832e+000
8.358977e+002,5.329895e+000
8.368619e+002,4.723114e+000
8.378262e+002,3.830704e+000
8.387904e+002,1.435669e+000
8.397546e+002,-5.525208e-002
8.407189e+002,5.341492e-001
8.416831e+002,2.322784e+000
8.426473e+002,3.754074e+000
8.436116e+002,4.119675e+000
8.445758e+002,4.168777e+000
8.455400e+002,4.568604e+000
8.465043e+002,4.947540e+000
8.474685e+002,4.895065e+000
8.484327e+002,4.476532e+000
8.493970e+002,4.299377e+000
8.503612e+002,5.282852e+000
8.513254e+002,7.688339e+000
8.522897e+002,8.748550e+000
8.532539e+002,7.619888e+000
8.542181e+002,6.267868e+000
8.551824e+002,5.814621e+000
8.561466e+002,6.343018e+000
8.571108e+002,7.576996e+000
8.580751e+002,9.945755e+000
8.590393e+002,1.174870e+001
8.600035e+002,1.287990e+001
8.609678e+002,1.320786e+001
8.619320e+002,1.200145e+001
8.628962e+002,9.162033e+000
8.638605e+002,6.580276e+000
8.648247e+002,7.993698e+000
8.657889e+002,1.157501e+001
8.667532e+002,1.336510e+001
8.677174e+002,1.284921e+001
8.686816e+002,1.156241e+001
8.696459e+002,1.130284e+001
8.706101e+002,1.233871e+001
8.715743e+002,1.290681e+001
8.725386e+002,1.260258e+001
8.735028e+002,1.242197e+001
8.744670e+002,1.257289e+001
8.754313e+002,1.284399e+001
8.763955e+002,1.275986e+001
8.773597e+002,1.194308e+001
8.783240e+002,1.184218e+001
8.792882e+002,1.437833e+001
8.802524e+002,1.734193e+001
8.812167e+002,1.849007e+001
8.821809e+002,1.765407e+001
8.831451e+002,1.652359e+001
8.841094e+002,1.733488e+001
8.850736e+002,2.011726e+001
8.860378e+002,2.244421e+001
8.870021e+002,2.434949e+001
8.879663e+002,2.559642e+001
8.889305e+002,2.576764e+001
8.898948e+002,2.501724e+001
8.908590e+002,2.428889e+001
8.918232e+002,2.337791e+001
8.927875e+002,2.323752e+001
8.937517e+002,2.453212e+001
8.947159e+002,2.623763e+001
8.956802e+002,2.732176e+001
8.966444e+002,2.757281e+001
8.976086e+002,2.787502e+001
8.985729e+002,2.971664e+001
8.995371e+002,3.180580e+001
9.005013e+002,3.165982e+001
9.014656e+002,2.962946e+001
9.024298e+002,2.731065e+001
9.033940e+002,2.576173e+001
9.043583e+002,2.488506e+001
9.053225e+002,2.466235e+001
9.062867e+002,2.526036e+001
9.072510e+002,2.623018e+001
9.082152e+002,2.813783e+001
9.091794e+002,3.030815e+001
9.101437e+002,3.209833e+001
9.111079e+002,3.339284e+001
9.120721e+002,3.437105e+001
9.130364e+002,3.539017e+001
9.140006e+002,3.556924e+001
9.149648e+002,3.361891e+001
9.159291e+002,3.064505e+001
9.168933e+002,2.884209e+001
9.178575e+002,2.966220e+001
9.188218e+002,3.212035e+001
9.197860e+002,3.315340e+001
9.207502e+002,3.273640e+001
9.217145e+002,3.146419e+001
9.226787e+002,2.925491e+001
9.236429e+002,2.670190e+001
9.246072e+002,2.422185e+001
9.255714e+002,2.145033e+001
9.265356e+002,2.017023e+001
9.274999e+002,2.202890e+001
9.284641e+002,2.382422e+001
9.294283e+002,2.455861e+001
9.303926e+002,2.451576e+001
9.313568e+002,2.440608e+001
9.323210e+002,2.459015e+001
9.332853e+002,2.473317e+001
9.342495e+002,2.423680e+001
9.352137e+002,2.331421e+001
9.361780e+002,2.226445e+001
9.371422e+002,2.125356e+001
9.381064e+002,2.043063e+001
9.390707e+002,1.987857e+001
9.400349e+002,1.947755e+001
9.409991e+002,1.926666e+001
9.419634e+002,1.940715e+001
9.429276e+002,1.944135e+001
9.438918e+002,1.895374e+001
9.448561e+002,1.842923e+001
9.458203e+002,1.887169e+001
9.467845e+002,2.081941e+001
9.477488e+002,2.262621e+001
9.487130e+002,2.327145e+001
9.496772e+002,2.306419e+001
9.506415e+002,2.174908e+001
9.516057e+002,1.964302e+001
9.525699e+002,1.769505e+001
9.535342e+002,1.682639e+001
9.544984e+002,1.677812e+001
9.554626e+002,1.544887e+001
9.564269e+002,1.242943e+001
9.573911e+002,1.087762e+001
9.583553e+002,1.287656e+001
9.593196e+002,1.621815e+001
9.602838e+002,1.695488e+001
9.612480e+002,1.405917e+001
9.622123e+002,1.212212e+001
9.631765e+002,1.357516e+001
9.641407e+002,1.523131e+001
9.651050e+002,1.562347e+001
9.660692e+002,1.493657e+001
9.670334e+002,1.400322e+001
9.679977e+002,1.339761e+001
9.689619e+002,1.311145e+001
9.699261e+002,1.267116e+001
9.708904e+002,1.222734e+001
9.718546e+002,1.279807e+001
9.728188e+002,1.466211e+001
9.737831e+002,1.716402e+001
9.747473e+002,1.952109e+001
9.757115e+002,2.171252e+001
9.766758e+002,2.411076e+001
9.776400e+002,2.851227e+001
9.786042e+002,3.113226e+001
9.795685e+002,3.010016e+001
9.805327e+002,2.697842e+001
9.814969e+002,2.389035e+001
9.824612e+002,2.162167e+001
9.834254e+002,1.951410e+001
9.843896e+002,1.611691e+001
9.853539e+002,1.282933e+001
9.863181e+002,1.150427e+001
9.872823e+002,1.192393e+001
9.882466e+002,1.279225e+001
9.892108e+002,1.316029e+001
9.901750e+002,1.319487e+001
9.911393e+002,1.287315e+001
9.921035e+002,1.128436e+001
9.930677e+002,1.016096e+001
9.940320e+002,1.005066e+001
9.949962e+002,1.029874e+001
9.959604e+002,1.009253e+001
9.969247e+002,9.455078e+000
9.978889e+002,9.730164e+000
9.988531e+002,1.251323e+001
9.998174e+002,1.479637e+001
1.000782e+003,1.415382e+001
1.001746e+003,1.227243e+001
1.002710e+003,1.203348e+001
1.003674e+003,1.443201e+001
1.004639e+003,1.727582e+001
1.005603e+003,1.655302e+001
1.006567e+003,1.178981e+001
1.007531e+003,8.482468e+000
1.008495e+003,6.452499e+000
1.009460e+003,6.046860e+000
1.010424e+003,8.717255e+000
1.011388e+003,1.342818e+001
1.012352e+003,1.564459e+001
1.013317e+003,1.354311e+001
1.014281e+003,1.131453e+001
1.015245e+003,1.015826e+001
1.016209e+003,9.384155e+000
1.017174e+003,8.506790e+000
1.018138e+003,7.536652e+000
1.019102e+003,6.879517e+000
1.020066e+003,6.947861e+000
1.021031e+003,7.457245e+000
1.021995e+003,7.441864e+000
1.022959e+003,6.870972e+000
1.023923e+003,5.722198e+000
1.024887e+003,3.647308e+000
1.025852e+003,1.528610e+000
1.026816e+003,1.030777e+000
1.027780e+003,2.733322e+000
1.028744e+003,3.747009e+000
1.029709e+003,3.610184e+000
1.030673e+003,3.010941e+000
1.031637e+003,1.486313e+000
1.032601e+003,-1.877594e-001
1.033566e+003,-7.680206e-001
1.034530e+003,1.750488e-001
1.035494e+003,1.440079e+000
1.036458e+003,2.002777e+000
1.037422e+003,1.674561e+000
1.038387e+003,-5.621033e-001
1.039351e+003,-4.343475e+000
1.040315e+003,-6.662354e+000
1.041279e+003,-4.998383e+000
1.042244e+003,-2.960968e-001
1.043208e+003,2.545715e+000
1.044172e+003,2.426865e+000
1.045136e+003,1.839279e+000
1.046101e+003,9.437561e-002
1.047065e+003,-1.226593e+000
1.048029e+003,-5.727844e-001
1.048993e+003,1.439499e+000
1.049958e+003,2.271729e+000
1.050922e+003,2.340088e-001
1.051886e+003,-1.769531e+000
1.052850e+003,2.642822e-002
1.053814e+003,3.220871e+000
1.054779e+003,4.535995e+000
1.055743e+003,3.366058e+000
1.056707e+003,1.579468e+000
1.057671e+003,1.467865e+000
1.058636e+003,3.021774e+000
1.059600e+003,3.520782e+000
1.060564e+003,2.586945e+000
1.061528e+003,1.510574e+000
1.062493e+003,-1.252441e-001
1.063457e+003,-1.673569e+000
1.064421e+003,-2.113129e+000
1.065385e+003,-1.322235e+000
1.066349e+003,-7.609711e-001
1.067314e+003,-1.650223e+000
1.068278e+003,-2.368851e+000
1.069242e+003,-1.413391e+000
1.070206e+003,4.072723e-001
1.071171e+003,1.732651e+000
1.072135e+003,1.946960e+000
1.073099e+003,1.523483e+000
1.074063e+003,1.357971e+000
1.075028e+003,1.551361e+000
1.075992e+003,1.127747e+000
1.076956e+003,-6.396027e-001
1.077920e+003,-1.916519e+000
1.078885e+003,-1.584534e+000
1.079849e+003,-3.346252e-001
1.080813e+003,4.571991e-001
1.081777e+003,5.265961e-001
1.082741e+003,7.022400e-001
1.083706e+003,1.651352e+000
1.084670e+003,2.353699e+000
1.085634e+003,2.179031e+000
1.086598e+003,1.316650e+000
1.087563e+003,1.390076e-002
1.088527e+003,-1.444336e+000
1.089491e+003,-2.362946e+000
1.090455e+003,-1.293701e+000
1.091420e+003,1.955109e+000
1.092384e+003,2.938812e+000
1.093348e+003,4.087067e-001
1.094312e+003,-2.215027e+000
1.095276e+003,-2.840714e+000
1.096241e+003,-1.909637e+000
1.097205e+003,-8.736725e-001
1.098169e+003,1.338959e-001
1.099133e+003,9.000549e-001
1.100098e+003,1.701523e+000
1.101062e+003,2.055908e+000
1.102026e+003,1.341751e+000
1.102990e+003,-4.951477e-002
1.103955e+003,-1.323181e+000
1.104919e+003,-2.014816e+000
1.105883e+003,-2.208893e+000
1.106847e+003,-1.894775e+000
1.107812e+003,-1.094543e+000
1.108776e+003,-8.957062e-001
1.109740e+003,-1.689972e+000
1.110704e+003,-2.363449e+000
1.111668e+003,-1.782761e+000
1.112633e+003,-2.356873e-001
1.113597e+003,6.468811e-001
1.114561e+003,3.278503e-001
1.115525e+003,1.588440e-002
1.116490e+003,3.134155e-001
1.117454e+003,5.113983e-001
1.118418e+003,-1.791687e-001
1.119382e+003,-1.225876e+000
1.120347e+003,-1.218323e+000
1.121311e+003,6.103973e-001
1.122275e+003,2.887772e+000
1.123239e+003,2.911316e+000
1.124203e+003,1.023209e+000
1.125168e+003,8.354187e-002
1.126132e+003,5.607910e-001
1.127096e+003,1.393661e+000
1.128060e+003,1.965988e+000
1.129025e+003,2.180710e+000
1.129989e+003,1.583954e+000
1.130953e+003,-6.109467e-001
1.131917e+003,-1.965149e+000
1.132882e+003,-1.297272e+000
1.133846e+003,-1.576691e-001
1.134810e+003,5.320740e-001
1.135774e+003,9.035950e-001
1.136739e+003,1.655701e+000
1.137703e+003,3.157410e+000
1.138667e+003,4.742172e+000
1.139631e+003,5.060898e+000
1.140595e+003,4.318649e+000
1.141560e+003,4.713348e+000
1.142524e+003,6.767776e+000
1.143488e+003,8.756210e+000
1.144452e+003,8.675629e+000
1.145417e+003,7.520050e+000
1.146381e+003,9.362732e+000
1.147345e+003,1.580609e+001
1.148309e+003,2.106557e+001
1.149274e+003,2.326488e+001
1.150238e+003,2.461229e+001
1.151202e+003,2.544206e+001
1.152166e+003,2.655473e+001
1.153130e+003,2.928177e+001
1.154095e+003,3.401743e+001
1.155059e+003,3.905370e+001
1.156023e+003,4.225899e+001
1.156987e+003,4.359087e+001
1.157952e+003,4.371526e+001
1.158916e+003,4.287823e+001
1.159880e+003,4.072005e+001
1.160844e+003,3.587245e+001
1.161809e+003,2.956516e+001
1.162773e+003,2.509106e+001
1.163737e+003,2.298000e+001
1.164701e+003,2.041629e+001
1.165666e+003,1.533817e+001
1.166630e+003,1.127267e+001
1.167594e+003,1.003563e+001
1.168558e+003,1.037842e+001
1.169522e+003,1.071413e+001
1.170487e+003,1.045297e+001
1.171451e+003,9.928299e+000
1.172415e+003,9.486984e+000
1.173379e+003,9.056381e+000
1.174344e+003,8.284149e+000
1.175308e+003,7.131943e+000
1.176272e+003,6.547424e+000
1.177236e+003,7.382599e+000
1.178201e+003,8.584900e+000
1.179165e+003,8.704651e+000
1.180129e+003,7.657303e+000
1.181093e+003,6.401077e+000
1.182057e+003,4.947693e+000
1.183022e+003,3.691193e+000
1.183986e+003,3.160294e+000
1.184950e+003,2.618256e+000
1.185914e+003,8.128815e-001
1.186879e+003,-1.836716e+000
1.187843e+003,-3.242554e+000
1.188807e+003,-1.696075e+000
1.189771e+003,1.649078e+000
1.190736e+003,3.550934e+000
1.191700e+003,3.899719e+000
1.192664e+003,3.464661e+000
1.193628e+003,1.844498e+000
1.194593e+003,1.838226e-001
1.195557e+003,-7.021179e-001
1.196521e+003,-1.006805e+000
1.197485e+003,-1.384521e+000
1.198449e+003,-2.003418e+000
1.199414e+003,-2.396271e+000
1.200378e+003,-2.059616e+000
1.201342e+003,-1.680405e+000
1.202306e+003,-1.524216e+000
1.203271e+003,-1.772934e+000
1.204235e+003,-2.791870e+000
1.205199e+003,-4.644913e+000
1.206163e+003,-6.679459e+000
1.207128e+003,-7.853973e+000
1.208092e+003,-8.122681e+000
1.209056e+003,-7.648102e+000
1.210020e+003,-5.742249e+000
1.210984e+003,-4.557205e+000
1.211949e+003,-4.815475e+000
1.212913e+003,-6.093903e+000
1.213877e+003,-8.298050e+000
1.214841e+003,-1.129016e+001
1.215806e+003,-1.307405e+001
1.216770e+003,-1.215565e+001
1.217734e+003,-1.101654e+001
1.218698e+003,-1.162283e+001
1.219663e+003,-1.297621e+001
1.220627e+003,-1.393918e+001
1.221591e+003,-1.423669e+001
1.222555e+003,-1.407959e+001
1.223520e+003,-1.362166e+001
1.224484e+003,-1.295880e+001
1.225448e+003,-1.274506e+001
1.226412e+003,-1.325749e+001
1.227376e+003,-1.369348e+001
1.228341e+003,-1.407632e+001
1.229305e+003,-1.442969e+001
1.230269e+003,-1.446011e+001
1.231233e+003,-1.456207e+001
1.232198e+003,-1.582483e+001
1.233162e+003,-1.858444e+001
1.234126e+003,-2.063443e+001
1.235090e+003,-2.008398e+001
1.236055e+003,-1.840456e+001
1.237019e+003,-1.677812e+001
1.237983e+003,-1.545499e+001
1.238947e+003,-1.491307e+001
1.239911e+003,-1.529344e+001
1.240876e+003,-1.606189e+001
1.241840e+003,-1.646362e+001
1.242804e+003,-1.645569e+001
1.243768e+003,-1.675392e+001
1.244733e+003,-1.851477e+001
1.245697e+003,-1.894148e+001
1.246661e+003,-1.703073e+001
1.247625e+003,-1.461591e+001
1.248590e+003,-1.240305e+001
1.249554e+003,-1.081245e+001
1.250518e+003,-1.088496e+001
1.251482e+003,-1.327972e+001
1.252447e+003,-1.610353e+001
1.253411e+003,-1.708952e+001
1.254375e+003,-1.669342e+001
1.255339e+003,-1.576027e+001
1.256303e+003,-1.434808e+001
1.257268e+003,-1.328947e+001
1.258232e+003,-1.323207e+001
1.259196e+003,-1.379436e+001
1.260160e+003,-1.421576e+001
1.261125e+003,-1.452551e+001
1.262089e+003,-1.392833e+001
1.263053e+003,-1.125130e+001
1.264017e+003,-9.209030e+000
1.264982e+003,-8.553818e+000
1.265946e+003,-8.638718e+000
1.266910e+003,-9.234543e+000
1.267874e+003,-9.955460e+000
1.268839e+003,-9.879562e+000
1.269803e+003,-8.363785e+000
1.270767e+003,-6.516281e+000
1.271731e+003,-6.566452e+000
1.272695e+003,-8.463272e+000
1.273660e+003,-1.027641e+001
1.274624e+003,-1.232988e+001
1.275588e+003,-1.371298e+001
1.276552e+003,-1.336407e+001
1.277517e+003,-1.209258e+001
1.278481e+003,-1.155774e+001
1.279445e+003,-1.192763e+001
1.280409e+003,-1.233052e+001
1.281374e+003,-1.272548e+001
1.282338e+003,-1.272363e+001
1.283302e+003,-1.171777e+001
1.284266e+003,-1.052211e+001
1.285230e+003,-1.018520e+001
1.286195e+003,-1.073708e+001
1.287159e+003,-1.126723e+001
1.288123e+003,-1.098494e+001
1.289087e+003,-1.026970e+001
1.290052e+003,-1.051909e+001
1.291016e+003,-1.235347e+001
1.291980e+003,-1.314038e+001
1.292944e+003,-1.217679e+001
1.293909e+003,-1.134863e+001
1.294873e+003,-1.136905e+001
1.295837e+003,-1.179280e+001
1.296801e+003,-1.199486e+001
1.297766e+003,-1.191171e+001
1.298730e+003,-1.203149e+001
1.299694e+003,-1.273315e+001
1.300658e+003,-1.365689e+001
1.301622e+003,-1.461700e+001
1.302587e+003,-1.536133e+001
1.303551e+003,-1.543460e+001
1.304515e+003,-1.475676e+001
1.305479e+003,-1.364929e+001
1.306444e+003,-1.232275e+001
1.307408e+003,-1.097458e+001
1.308372e+003,-1.011230e+001
1.309336e+003,-9.675400e+000
1.310301e+003,-9.975754e+000
1.311265e+003,-1.227347e+001
1.312229e+003,-1.363795e+001
1.313193e+003,-1.206076e+001
1.314157e+003,-9.929108e+000
1.315122e+003,-1.009425e+001
1.316086e+003,-1.254652e+001
1.317050e+003,-1.502023e+001
1.318014e+003,-1.601414e+001
1.318979e+003,-1.600586e+001
1.319943e+003,-1.575620e+001
1.320907e+003,-1.526239e+001
1.321871e+003,-1.495903e+001
1.322836e+003,-1.513268e+001
1.323800e+003,-1.496602e+001
1.324764e+003,-1.359290e+001
1.325728e+003,-1.179381e+001
1.326693e+003,-1.112897e+001
1.327657e+003,-1.171561e+001
1.328621e+003,-1.186487e+001
1.329585e+003,-1.070288e+001
1.330549e+003,-9.222229e+000
1.331514e+003,-7.410629e+000
1.332478e+003,-6.332657e+000
1.333442e+003,-7.603622e+000
1.334406e+003,-1.052771e+001
1.335371e+003,-1.269020e+001
1.336335e+003,-1.265070e+001
1.337299e+003,-1.148608e+001
1.338263e+003,-1.132294e+001
1.339228e+003,-1.238292e+001
1.340192e+003,-1.228474e+001
1.341156e+003,-9.979263e+000
1.342120e+003,-8.149673e+000
1.343084e+003,-7.025040e+000
1.344049e+003,-6.809296e+000
1.345013e+003,-8.194977e+000
1.345977e+003,-1.047928e+001
1.346941e+003,-1.191785e+001
1.347906e+003,-1.190375e+001
1.348870e+003,-1.087801e+001
1.349834e+003,-8.756317e+000
1.350798e+003,-6.323120e+000
1.351763e+003,-4.623550e+000
1.352727e+003,-3.724167e+000
1.353691e+003,-4.295181e+000
1.354655e+003,-6.916519e+000
1.355620e+003,-9.849075e+000
1.356584e+003,-1.077393e+001
1.357548e+003,-9.953552e+000
1.358512e+003,-1.012993e+001
1.359476e+003,-1.198291e+001
1.360441e+003,-1.360382e+001
1.361405e+003,-1.492278e+001
1.362369e+003,-1.537167e+001
1.363333e+003,-1.415984e+001
1.364298e+003,-1.212541e+001
1.365262e+003,-1.023508e+001
1.366226e+003,-8.854385e+000
1.367190e+003,-7.921829e+000
1.368155e+003,-7.371765e+000
1.369119e+003,-7.353378e+000
1.370083e+003,-8.415192e+000
1.371047e+003,-1.100900e+001
1.372011e+003,-1.249512e+001
1.372976e+003,-1.247969e+001
1.373940e+003,-1.214783e+001
1.374904e+003,-1.174973e+001
1.375868e+003,-1.130797e+001
1.376833e+003,-1.097290e+001
1.377797e+003,-1.071637e+001
1.378761e+003,-1.004208e+001
1.379725e+003,-8.499527e+000
1.380690e+003,-7.169952e+000
1.381654e+003,-7.369003e+000
1.382618e+003,-8.357559e+000
1.383582e+003,-9.803589e+000
1.384547e+003,-1.133714e+001
1.385511e+003,-1.078625e+001
1.386475e+003,-6.578949e+000
1.387439e+003,-1.603729e+000
1.388403e+003,-5.175781e-001
1.389368e+003,-3.319183e+000
1.390332e+003,-5.739914e+000
1.391296e+003,-7.828201e+000
1.392260e+003,-9.039154e+000
1.393225e+003,-8.613113e+000
1.394189e+003,-8.121475e+000
1.395153e+003,-8.684555e+000
1.396117e+003,-9.666534e+000
1.397082e+003,-9.969345e+000
1.398046e+003,-9.308533e+000
1.399010e+003,-8.149002e+000
1.399974e+003,-6.940399e+000
1.400938e+003,-6.047455e+000
1.401903e+003,-6.427887e+000
1.402867e+003,-8.386337e+000
1.403831e+003,-9.028458e+000
1.404795e+003,-7.572037e+000
1.405760e+003,-6.166092e+000
1.406724e+003,-5.595795e+000
1.407688e+003,-5.741318e+000
1.408652e+003,-6.266846e+000
1.409617e+003,-7.063828e+000
1.410581e+003,-8.612030e+000
1.411545e+003,-1.142232e+001
1.412509e+003,-1.329428e+001
1.413474e+003,-1.118097e+001
1.414438e+003,-7.465729e+000
1.415402e+003,-5.883484e+000
1.416366e+003,-6.224594e+000
1.417330e+003,-7.244659e+000
1.418295e+003,-8.761505e+000
1.419259e+003,-9.672653e+000
1.420223e+003,-8.042542e+000
1.421187e+003,-4.548920e+000
1.422152e+003,-3.321106e+000
1.423116e+003,-5.090363e+000
1.424080e+003,-6.626602e+000
1.425044e+003,-6.799118e+000
1.426009e+003,-7.053955e+000
1.426973e+003,-8.781265e+000
1.427937e+003,-1.044460e+001
1.428901e+003,-9.607788e+000
1.429865e+003,-6.576859e+000
1.430830e+003,-4.031906e+000
1.431794e+003,-3.782486e+000
1.432758e+003,-4.879105e+000
1.433722e+003,-5.329178e+000
1.434687e+003,-4.923309e+000
1.435651e+003,-4.777161e+000
1.436615e+003,-5.847977e+000
1.437579e+003,-6.395660e+000
1.438544e+003,-5.749466e+000
1.439508e+003,-4.979065e+000
1.440472e+003,-4.704788e+000
1.441436e+003,-4.744385e+000
1.442401e+003,-4.906219e+000
1.443365e+003,-5.087799e+000
1.444329e+003,-4.622910e+000
1.445293e+003,-2.709335e+000
1.446257e+003,-6.237335e-001
1.447222e+003,-1.404449e+000
1.448186e+003,-4.401367e+000
1.449150e+003,-5.815643e+000
1.450114e+003,-4.983627e+000
1.451079e+003,-4.120758e+000
1.452043e+003,-4.819855e+000
1.453007e+003,-5.658401e+000
1.453971e+003,-4.230087e+000
1.454936e+003,-9.749603e-001
1.455900e+003,8.549500e-001
1.456864e+003,3.923492e-001
1.457828e+003,-6.705780e-001
1.458792e+003,-2.006607e+000
1.459757e+003,-3.096909e+000
1.460721e+003,-3.299881e+000
1.461685e+003,-2.980713e+000
1.462649e+003,-2.926651e+000
1.463614e+003,-3.278107e+000
1.464578e+003,-3.421326e+000
1.465542e+003,-2.718338e+000
1.466506e+003,-1.734711e+000
1.467471e+003,-2.326996e+000
1.468435e+003,-5.012939e+000
1.469399e+003,-6.088531e+000
1.470363e+003,-4.203934e+000
1.471328e+003,-2.535065e+000
1.472292e+003,-1.676605e+000
1.473256e+003,-1.542465e+000
1.474220e+003,-2.090515e+000
1.475184e+003,-3.053162e+000
1.476149e+003,-4.518723e+000
1.477113e+003,-6.290100e+000
1.478077e+003,-7.078903e+000
1.479041e+003,-5.487244e+000
1.480006e+003,-2.417648e+000
1.480970e+003,-1.169464e+000
1.481934e+003,-2.591583e+000
1.482898e+003,-2.650742e+000
1.483863e+003,-1.862946e-001
1.484827e+003,1.799942e+000
1.485791e+003,2.772522e+000
1.486755e+003,2.890396e+000
1.487719e+003,1.712082e+000
1.488684e+003,-2.084808e-001
1.489648e+003,-1.370728e+000
1.490612e+003,-1.272644e+000
1.491576e+003,-9.370728e-001
1.492541e+003,-1.352219e+000
1.493505e+003,-1.950165e+000
1.494469e+003,-1.379868e+000
1.495433e+003,9.718323e-002
1.496398e+003,1.770370e+000
1.497362e+003,3.941864e+000
1.498326e+003,5.604630e+000
1.499290e+003,5.696854e+000
1.500255e+003,5.330688e+000
1.501219e+003,5.978806e+000
1.502183e+003,7.517349e+000
1.503147e+003,9.067215e+000
1.504111e+003,1.034421e+001
1.505076e+003,1.217474e+001
1.506040e+003,1.591551e+001
1.507004e+003,1.949579e+001
1.507968e+003,2.016025e+001
1.508933e+003,1.937503e+001
1.509897e+003,2.025850e+001
1.510861e+003,2.348207e+001
1.511825e+003,2.752649e+001
1.512790e+003,3.127939e+001
1.513754e+003,3.496217e+001
1.514718e+003,3.922725e+001
1.515682e+003,4.399408e+001
1.516646e+003,4.850778e+001
1.517611e+003,5.303673e+001
1.518575e+003,5.681741e+001
1.519539e+003,5.928481e+001
1.520503e+003,6.145604e+001
1.521468e+003,6.467776e+001
1.522432e+003,6.739937e+001
1.523396e+003,6.681821e+001
1.524360e+003,6.323076e+001
1.525325e+003,6.006302e+001
1.526289e+003,5.961916e+001
1.527253e+003,6.015182e+001
1.528217e+003,5.846761e+001
1.529182e+003,5.460849e+001
1.530146e+003,5.051083e+001
1.531110e+003,4.596283e+001
1.532074e+003,4.141621e+001
1.533039e+003,3.637598e+001
1.534003e+003,3.156473e+001
1.534967e+003,2.770915e+001
1.535931e+003,2.431659e+001
1.536896e+003,2.045352e+001
1.537860e+003,1.641852e+001
1.538824e+003,1.351457e+001
1.539788e+003,1.231807e+001
1.540752e+003,1.187755e+001
1.541717e+003,1.105994e+001
1.542681e+003,9.970856e+000
1.543645e+003,9.008606e+000
1.544609e+003,8.405472e+000
1.545573e+003,7.594742e+000
1.546538e+003,5.575928e+000
1.547502e+003,4.376709e+000
1.548466e+003,5.525238e+000
1.549430e+003,7.446136e+000
1.550395e+003,8.764786e+000
1.551359e+003,9.226288e+000
1.552323e+003,8.600784e+000
1.553287e+003,6.931778e+000
1.554252e+003,5.494873e+000
1.555216e+003,5.457947e+000
1.556180e+003,6.234970e+000
1.557144e+003,6.635162e+000
1.558109e+003,6.669724e+000
1.559073e+003,5.798370e+000
1.560037e+003,3.012604e+000
1.561001e+003,1.123093e+000
1.561966e+003,1.786072e+000
1.562930e+003,3.302505e+000
1.563894e+003,4.283340e+000
1.564858e+003,4.692657e+000
1.565823e+003,4.592697e+000
1.566787e+003,4.031677e+000
1.567751e+003,3.571671e+000
1.568715e+003,3.549545e+000
1.569679e+003,3.830719e+000
1.570644e+003,4.362717e+000
1.571608e+003,4.915970e+000
1.572572e+003,4.956909e+000
1.573536e+003,4.519974e+000
1.574500e+003,4.303299e+000
1.575465e+003,4.513000e+000
1.576429e+003,4.958801e+000
1.577393e+003,5.572845e+000
1.578357e+003,6.214050e+000
1.579322e+003,6.753204e+000
1.580286e+003,7.185913e+000
1.581250e+003,7.259323e+000
1.582214e+003,6.841980e+000
1.583179e+003,6.199432e+000
1.584143e+003,5.015549e+000
1.585107e+003,4.091019e+000
1.586071e+003,4.916809e+000
1.587036e+003,7.018158e+000
1.588000e+003,8.655411e+000
1.588964e+003,9.405518e+000
1.589928e+003,9.408813e+000
1.590893e+003,8.165817e+000
1.591857e+003,6.831680e+000
1.592821e+003,7.581406e+000
1.593785e+003,9.964188e+000
1.594750e+003,1.114342e+001
1.595714e+003,1.057442e+001
1.596678e+003,9.788269e+000
1.597642e+003,9.199112e+000
1.598606e+003,8.895340e+000
1.599571e+003,9.102524e+000
1.600535e+003,9.578278e+000
1.601499e+003,9.892593e+000
1.602463e+003,1.008775e+001
1.603427e+003,1.069281e+001
1.604392e+003,1.197614e+001
1.605356e+003,1.336795e+001
1.606320e+003,1.407942e+001
1.607284e+003,1.453163e+001
1.608249e+003,1.651932e+001
1.609213e+003,2.015645e+001
1.610177e+003,2.114635e+001
1.611141e+003,1.770045e+001
1.612106e+003,1.428860e+001
1.613070e+003,1.292455e+001
1.614034e+003,1.251746e+001
1.614998e+003,1.247162e+001
1.615963e+003,1.279308e+001
1.616927e+003,1.376245e+001
1.617891e+003,1.524702e+001
1.618855e+003,1.630742e+001
1.619820e+003,1.629752e+001
1.620784e+003,1.574593e+001
1.621748e+003,1.553937e+001
1.622712e+003,1.574953e+001
1.623677e+003,1.600439e+001
1.624641e+003,1.636784e+001
1.625605e+003,1.640077e+001
1.626569e+003,1.528358e+001
1.627533e+003,1.453473e+001
1.628498e+003,1.557683e+001
1.629462e+003,1.690538e+001
1.630426e+003,1.720468e+001
1.631390e+003,1.672093e+001
1.632354e+003,1.605481e+001
1.633319e+003,1.543796e+001
1.634283e+003,1.523221e+001
1.635247e+003,1.571732e+001
1.636211e+003,1.666013e+001
1.637176e+003,1.789626e+001
1.638140e+003,1.940968e+001
1.639104e+003,2.037422e+001
1.640068e+003,2.083308e+001
1.641033e+003,2.021693e+001
1.641997e+003,1.713544e+001
1.642961e+003,1.484341e+001
1.643925e+003,1.588878e+001
1.644890e+003,1.763945e+001
1.645854e+003,1.687491e+001
1.646818e+003,1.461752e+001
1.647782e+003,1.441077e+001
1.648747e+003,1.718637e+001
1.649711e+003,1.992703e+001
1.650675e+003,2.015781e+001
1.651639e+003,1.895313e+001
1.652604e+003,1.832967e+001
1.653568e+003,1.820717e+001
1.654532e+003,1.793834e+001
1.655496e+003,1.749585e+001
1.656460e+003,1.689182e+001
1.657425e+003,1.591812e+001
1.658389e+003,1.515918e+001
1.659353e+003,1.498883e+001
1.660317e+003,1.510580e+001
1.661281e+003,1.518509e+001
1.662246e+003,1.522278e+001
1.663210e+003,1.549692e+001
1.664174e+003,1.610736e+001
1.665138e+003,1.643527e+001
1.666103e+003,1.575716e+001
1.667067e+003,1.465785e+001
1.668031e+003,1.475591e+001
1.668995e+003,1.590118e+001
1.669960e+003,1.507616e+001
1.670924e+003,1.129230e+001
1.671888e+003,9.062561e+000
1.672852e+003,1.087520e+001
1.673817e+003,1.286488e+001
1.674781e+003,1.229926e+001
1.675745e+003,1.081615e+001
1.676709e+003,1.007632e+001
1.677674e+003,1.003850e+001
1.678638e+003,1.015283e+001
1.679602e+003,1.024609e+001
1.680566e+003,1.005615e+001
1.681531e+003,9.291489e+000
1.682495e+003,8.369125e+000
1.683459e+003,7.957184e+000
1.684423e+003,7.909698e+000
1.685387e+003,7.515259e+000
1.686352e+003,6.628387e+000
1.687316e+003,6.439545e+000
1.688280e+003,7.778748e+000
1.689244e+003,9.042923e+000
1.690208e+003,8.833282e+000
1.691173e+003,8.005997e+000
1.692137e+003,7.214417e+000
1.693101e+003,6.717804e+000
1.694065e+003,7.173630e+000
1.695030e+003,8.708405e+000
1.695994e+003,9.853241e+000
1.696958e+003,9.787628e+000
1.697922e+003,8.867859e+000
1.698887e+003,7.112610e+000
1.699851e+003,4.956039e+000
1.700815e+003,3.664307e+000
1.701779e+003,3.299973e+000
1.702744e+003,3.390060e+000
1.703708e+003,4.087112e+000
1.704672e+003,4.390091e+000
1.705636e+003,2.941132e+000
1.706601e+003,1.086716e+000
1.707565e+003,1.221985e+000
1.708529e+003,2.800629e+000
1.709493e+003,4.081955e+000
1.710458e+003,4.916855e+000
1.711422e+003,4.845627e+000
1.712386e+003,2.793137e+000
1.713350e+003,9.786072e-001
1.714314e+003,1.527298e+000
1.715279e+003,3.097076e+000
1.716243e+003,3.461456e+000
1.717207e+003,2.716293e+000
1.718171e+003,2.336624e+000
1.719135e+003,2.750916e+000
1.720100e+003,2.738480e+000
1.721064e+003,1.240143e+000
1.722028e+003,-4.904938e-001
1.722992e+003,-4.864044e-001
1.723957e+003,1.041077e+000
1.724921e+003,2.483398e+000
1.725885e+003,3.905457e+000
1.726849e+003,4.002823e+000
1.727814e+003,1.235153e+000
1.728778e+003,-7.420959e-001
1.729742e+003,1.347351e-001
1.730706e+003,1.984131e+000
1.731671e+003,3.110703e+000
1.732635e+003,3.524765e+000
1.733599e+003,3.963104e+000
1.734563e+003,4.512283e+000
1.735528e+003,4.220642e+000
1.736492e+003,2.549057e+000
1.737456e+003,5.431366e-001
1.738420e+003,-5.906982e-001
1.739385e+003,-1.062866e+000
1.740349e+003,-1.388809e+000
1.741313e+003,-1.576004e+000
1.742277e+003,-1.224091e+000
1.743241e+003,4.772186e-001
1.744206e+003,1.564011e+000
1.745170e+003,1.075073e+000
1.746134e+003,6.462250e-001
1.747098e+003,1.876923e+000
1.748063e+003,3.125443e+000
1.749027e+003,1.709656e+000
1.749991e+003,-1.304962e+000
1.750955e+003,-2.273865e+000
1.751919e+003,-2.962646e-001
1.752884e+003,1.555679e+000
1.753848e+003,7.187347e-001
1.754812e+003,-1.380493e+000
1.755776e+003,-1.774048e+000
1.756741e+003,-4.474640e-001
1.757705e+003,5.312347e-001
1.758669e+003,1.066849e+000
1.759633e+003,1.318985e+000
1.760598e+003,1.370087e+000
1.761562e+003,8.722076e-001
1.762526e+003,-8.470306e-001
1.763490e+003,-2.381393e+000
1.764455e+003,-2.813354e+000
1.765419e+003,-2.345139e+000
1.766383e+003,-1.328629e+000
1.767347e+003,4.159546e-002
1.768312e+003,1.850296e+000
1.769276e+003,4.152130e+000
1.770240e+003,5.297958e+000
1.771204e+003,2.991440e+000
1.772168e+003,-8.381653e-001
1.773133e+003,-1.641556e+000
1.774097e+003,2.237549e-001
1.775061e+003,1.152542e+000
1.776025e+003,6.091461e-001
1.776990e+003,-1.990814e-001
1.777954e+003,-1.101730e+000
1.778918e+003,-1.339401e+000
1.779882e+003,5.095673e-001
1.780846e+003,2.450714e+000
1.781811e+003,1.280426e+000
1.782775e+003,-1.910248e+000
1.783739e+003,-3.428833e+000
1.784703e+003,-2.602493e+000
1.785668e+003,-1.669601e+000
1.786632e+003,-1.640564e+000
1.787596e+003,-1.873581e+000
1.788560e+003,-1.614243e+000
1.789525e+003,-1.303925e+000
1.790489e+003,-2.172012e+000
1.791453e+003,-3.640015e+000
1.792417e+003,-3.469803e+000
1.793382e+003,-1.349518e+000
1.794346e+003,7.969818e-001
1.795310e+003,1.993958e+000
1.796274e+003,2.168945e+000
1.797239e+003,1.138123e+000
1.798203e+003,-5.630035e-001
1.799167e+003,-1.636322e+000
1.800131e+003,-2.319275e+000
1.801095e+003,-2.007858e+000
1.802060e+003,6.899872e-001
1.803024e+003,2.399429e+000
1.803988e+003,1.674484e+000
1.804952e+003,1.159119e+000
1.805917e+003,2.670212e+000
1.806881e+003,4.503845e+000
1.807845e+003,5.173859e+000
1.808809e+003,4.694366e+000
1.809773e+003,3.118591e+000
1.810738e+003,8.495483e-001
1.811702e+003,-7.268677e-001
1.812666e+003,-7.744293e-001
1.813630e+003,-3.501740e-001
1.814595e+003,-9.872894e-001
1.815559e+003,-2.217972e+000
1.816523e+003,-1.651718e+000
1.817487e+003,1.036407e+000
1.818452e+003,1.854767e+000
1.819416e+003,-2.407990e-001
1.820380e+003,-1.418655e+000
1.821344e+003,-4.455566e-003
1.822309e+003,1.473740e+000
1.823273e+003,1.338089e+000
1.824237e+003,8.219910e-001
1.825201e+003,1.409561e+000
1.826166e+003,2.537537e+000
1.827130e+003,2.319901e+000
1.828094e+003,4.677734e-001
1.829058e+003,-4.702911e-001
1.830022e+003,1.379578e+000
1.830987e+003,3.211807e+000
1.831951e+003,2.399780e+000
1.832915e+003,3.875275e-001
1.833879e+003,-8.503418e-001
1.834844e+003,-1.441208e+000
1.835808e+003,-2.352493e+000
1.836772e+003,-3.575302e+000
1.837736e+003,-3.463608e+000
1.838700e+003,-1.276993e+000
1.839665e+003,6.466370e-001
1.840629e+003,8.834839e-003
1.841593e+003,-1.653748e+000
1.842557e+003,-1.008728e+000
1.843522e+003,1.895813e+000
1.844486e+003,3.690659e+000
1.845450e+003,4.447403e+000
1.846414e+003,4.081528e+000
1.847379e+003,7.772217e-001
1.848343e+003,-1.424316e+000
1.849307e+003,-1.389771e-001
1.850271e+003,1.484222e+000
1.851236e+003,1.098907e+000
1.852200e+003,-2.749329e-001
1.853164e+003,-1.401840e+000
1.854128e+003,-1.983597e+000
1.855093e+003,-1.790070e+000
1.856057e+003,-7.508392e-001
1.857021e+003,5.736847e-001
1.857985e+003,1.756775e+000
1.858949e+003,2.483871e+000
1.859914e+003,1.871506e+000
1.860878e+003,3.142548e-001
1.861842e+003,1.988220e-002
1.862806e+003,9.988708e-001
1.863771e+003,2.028000e+000
1.864735e+003,2.995682e+000
1.865699e+003,3.425751e+000
1.866663e+003,3.051178e+000
1.867627e+003,2.339752e+000
1.868592e+003,1.339279e+000
1.869556e+003,3.371735e-001
1.870520e+003,1.342773e-001
1.871484e+003,5.938873e-001
1.872449e+003,8.551788e-001
1.873413e+003,1.001678e+000
1.874377e+003,1.304916e+000
1.875341e+003,1.195129e+000
1.876306e+003,1.664871e+000
1.877270e+003,4.467346e+000
1.878234e+003,6.935349e+000
1.879198e+003,5.759338e+000
1.880163e+003,2.582397e+000
1.881127e+003,5.376892e-001
1.882091e+003,4.417419e-002
1.883055e+003,-9.205627e-002
1.884020e+003,-3.964539e-001
1.884984e+003,-3.724213e-001
1.885948e+003,4.546509e-001
1.886912e+003,1.678650e+000
1.887876e+003,2.582062e+000
1.888841e+003,3.141769e+000
1.889805e+003,2.695663e+000
1.890769e+003,8.615875e-001
1.891733e+003,1.870117e-001
1.892698e+003,1.427658e+000
1.893662e+003,2.401581e+000
1.894626e+003,2.318878e+000
1.895590e+003,1.894363e+000
1.896554e+003,1.040497e+000
1.897519e+003,6.102448e-001
1.898483e+003,2.208755e+000
1.899447e+003,4.990753e+000
1.900411e+003,6.257935e+000
1.901376e+003,5.560989e+000
1.902340e+003,4.141571e+000
1.903304e+003,1.560791e+000
1.904268e+003,-2.430573e-001
1.905233e+003,3.639832e-001
1.906197e+003,1.946350e+000
1.907161e+003,3.412674e+000
1.908125e+003,4.597397e+000
1.909090e+003,5.463608e+000
1.910054e+003,5.826370e+000
1.911018e+003,5.002426e+000
1.911982e+003,3.018051e+000
1.912947e+003,1.434204e+000
1.913911e+003,1.366394e+000
1.914875e+003,2.105545e+000
1.915839e+003,2.557358e+000
1.916803e+003,2.706131e+000
1.917768e+003,2.817123e+000
1.918732e+003,2.969757e+000
1.919696e+003,2.899094e+000
1.920660e+003,2.378952e+000
1.921625e+003,2.452866e+000
1.922589e+003,3.635696e+000
1.923553e+003,4.851334e+000
1.924517e+003,5.596832e+000
1.925481e+003,6.093323e+000
1.926446e+003,6.918945e+000
1.927410e+003,7.502716e+000
1.928374e+003,6.079208e+000
1.929338e+003,2.795380e+000
1.930303e+003,1.361740e+000
1.931267e+003,3.465973e+000
1.932231e+003,5.420349e+000
1.933195e+003,5.398239e+000
1.934160e+003,4.686157e+000
1.935124e+003,3.747620e+000
1.936088e+003,2.979919e+000
1.937052e+003,3.192108e+000
1.938017e+003,3.946106e+000
1.938981e+003,4.025681e+000
1.939945e+003,3.381866e+000
1.940909e+003,2.978500e+000
1.941874e+003,3.241348e+000
1.942838e+003,3.855133e+000
1.943802e+003,4.628815e+000
1.944766e+003,5.426575e+000
1.945730e+003,5.780197e+000
1.946695e+003,5.687881e+000
1.947659e+003,5.546463e+000
1.948623e+003,5.291946e+000
1.949587e+003,5.519043e+000
1.950552e+003,6.463882e+000
1.951516e+003,7.404144e+000
1.952480e+003,8.236221e+000
1.953444e+003,8.695068e+000
1.954408e+003,8.298599e+000
1.955373e+003,7.612915e+000
1.956337e+003,7.734238e+000
1.957301e+003,8.402039e+000
1.958265e+003,8.193054e+000
1.959230e+003,6.908844e+000
1.960194e+003,6.323471e+000
1.961158e+003,7.253723e+000
1.962122e+003,7.728424e+000
1.963087e+003,6.864487e+000
1.964051e+003,5.927917e+000
1.965015e+003,5.597137e+000
1.965979e+003,5.745041e+000
1.966944e+003,6.333786e+000
1.967908e+003,7.037155e+000
1.968872e+003,7.582932e+000
1.969836e+003,7.816986e+000
1.970801e+003,7.264221e+000
1.971765e+003,5.826248e+000
1.972729e+003,4.830261e+000
1.973693e+003,5.514786e+000
1.974657e+003,6.856308e+000
1.975622e+003,7.161469e+000
1.976586e+003,6.914780e+000
1.977550e+003,7.853317e+000
1.978514e+003,9.683487e+000
1.979479e+003,1.036884e+001
1.980443e+003,9.624680e+000
1.981407e+003,8.390121e+000
1.982371e+003,7.015701e+000
1.983335e+003,5.588730e+000
1.984300e+003,3.977295e+000
1.985264e+003,3.078812e+000
1.986228e+003,4.559128e+000
1.987192e+003,7.792908e+000
1.988157e+003,9.521210e+000
1.989121e+003,9.539810e+000
1.990085e+003,9.210159e+000
1.991049e+003,8.136993e+000
1.992014e+003,7.620865e+000
1.992978e+003,8.243286e+000
1.993942e+003,8.762589e+000
1.994906e+003,8.863876e+000
1.995871e+003,8.615753e+000
1.996835e+003,7.883224e+000
1.997799e+003,7.000031e+000
1.998763e+003,5.913574e+000
1.999728e+003,5.000641e+000
