5.003444e+002,4.952658e+001
5.013087e+002,4.917145e+001
5.022729e+002,4.770326e+001
5.032371e+002,4.554095e+001
5.042014e+002,4.353973e+001
5.051656e+002,4.175319e+001
5.061298e+002,4.041479e+001
5.070941e+002,3.968896e+001
5.080583e+002,3.949301e+001
5.090225e+002,4.017883e+001
5.099868e+002,4.294470e+001
5.109510e+002,4.508943e+001
5.119152e+002,4.482639e+001
5.128795e+002,4.192859e+001
5.138437e+002,3.960405e+001
5.148079e+002,3.908319e+001
5.157722e+002,3.927710e+001
5.167364e+002,4.031308e+001
5.177006e+002,4.178374e+001
5.186649e+002,4.261456e+001
5.196291e+002,4.097350e+001
5.205933e+002,3.852469e+001
5.215576e+002,3.689900e+001
5.225218e+002,3.618352e+001
5.234860e+002,3.592400e+001
5.244503e+002,3.544836e+001
5.254145e+002,3.487283e+001
5.263787e+002,3.413785e+001
5.273430e+002,3.298357e+001
5.283072e+002,3.183954e+001
5.292714e+002,3.134875e+001
5.302357e+002,3.186368e+001
5.311999e+002,3.183473e+001
5.321641e+002,3.063390e+001
5.331284e+002,2.952101e+001
5.340926e+002,2.977153e+001
5.350568e+002,3.191165e+001
5.360211e+002,3.352484e+001
5.369853e+002,3.177910e+001
5.379495e+002,2.913141e+001
5.389138e+002,2.757417e+001
5.398780e+002,2.781750e+001
5.408422e+002,2.903123e+001
5.418065e+002,2.896921e+001
5.427707e+002,2.781519e+001
5.437349e+002,2.674435e+001
5.446992e+002,2.606508e+001
5.456634e+002,2.562498e+001
5.466276e+002,2.491275e+001
5.475919e+002,2.323361e+001
5.485561e+002,2.231433e+001
5.495203e+002,2.269510e+001
5.504846e+002,2.360481e+001
5.514488e+002,2.390483e+001
5.524130e+002,2.290707e+001
5.533773e+002,2.217720e+001
5.543415e+002,2.293806e+001
5.553057e+002,2.411893e+001
5.562700e+002,2.446861e+001
5.572342e+002,2.321506e+001
5.581984e+002,2.121848e+001
5.591627e+002,2.062271e+001
5.601269e+002,2.105775e+001
5.610911e+002,2.189740e+001
5.620554e+002,2.284248e+001
5.630196e+002,2.375102e+001
5.639838e+002,2.371866e+001
5.649481e+002,2.215961e+001
5.659123e+002,2.054811e+001
5.668765e+002,1.892070e+001
5.678408e+002,1.755327e+001
5.688050e+002,1.713232e+001
5.697692e+002,1.867896e+001
5.707335e+002,1.963223e+001
5.716977e+002,1.893130e+001
5.726619e+002,1.740799e+001
5.736262e+002,1.624846e+001
5.745904e+002,1.633873e+001
5.755546e+002,1.682988e+001
5.765189e+002,1.595137e+001
5.774831e+002,1.431036e+001
5.784473e+002,1.328011e+001
5.794116e+002,1.383900e+001
5.803758e+002,1.581863e+001
5.813400e+002,1.586708e+001
5.823043e+002,1.311136e+001
5.832685e+002,1.085051e+001
5.842327e+002,1.055536e+001
5.851970e+002,1.200272e+001
5.861612e+002,1.323453e+001
5.871254e+002,1.397864e+001
5.880897e+002,1.429605e+001
5.890539e+002,1.396739e+001
5.900181e+002,1.319208e+001
5.909824e+002,1.225114e+001
5.919466e+002,1.123431e+001
5.929108e+002,1.044652e+001
5.938751e+002,1.036505e+001
5.948393e+002,1.059320e+001
5.958035e+002,1.041402e+001
5.967678e+002,9.335129e+000
5.977320e+002,7.653809e+000
5.986962e+002,7.560013e+000
5.996605e+002,8.900162e+000
6.006247e+002,1.013107e+001
6.015889e+002,1.040375e+001
6.025532e+002,9.826141e+000
6.035174e+002,9.822449e+000
6.044816e+002,1.121794e+001
6.054459e+002,1.238046e+001
6.064101e+002,1.314969e+001
6.073743e+002,1.350363e+001
6.083386e+002,1.342819e+001
6.093028e+002,1.276964e+001
6.102670e+002,1.201118e+001
6.112313e+002,1.143829e+001
6.121955e+002,1.101935e+001
6.131597e+002,1.070959e+001
6.141240e+002,1.047435e+001
6.150882e+002,1.030424e+001
6.160524e+002,1.030690e+001
6.170167e+002,1.050638e+001
6.179809e+002,1.061728e+001
6.189451e+002,1.042468e+001
6.199094e+002,9.916046e+000
6.208736e+002,9.428619e+000
6.218378e+002,8.798615e+000
6.228021e+002,8.675339e+000
6.237663e+002,9.827881e+000
6.247305e+002,1.138257e+001
6.256948e+002,1.175858e+001
6.266590e+002,9.729446e+000
6.276232e+002,7.557663e+000
6.285875e+002,6.386444e+000
6.295517e+002,6.110931e+000
6.305159e+002,6.909897e+000
6.314802e+002,8.752655e+000
6.324444e+002,1.090211e+001
6.334086e+002,1.134401e+001
6.343729e+002,1.062903e+001
6.353371e+002,9.538269e+000
6.363013e+002,8.196640e+000
6.372656e+002,6.766724e+000
6.382298e+002,5.940369e+000
6.391940e+002,6.477615e+000
6.401583e+002,6.570114e+000
6.411225e+002,6.009796e+000
6.420867e+002,5.325714e+000
6.430510e+002,5.111069e+000
6.440152e+002,5.567062e+000
6.449794e+002,5.908066e+000
6.459437e+002,5.791595e+000
6.469079e+002,5.399063e+000
6.478721e+002,4.900864e+000
6.488364e+002,4.372894e+000
6.498006e+002,3.745697e+000
6.507648e+002,2.697357e+000
6.517291e+002,1.367676e+000
6.526933e+002,7.435608e-002
6.536575e+002,-1.162308e+000
6.546218e+002,-2.056198e+000
6.555860e+002,-2.025192e+000
6.565502e+002,-5.164795e-001
6.575145e+002,8.234253e-001
6.584787e+002,2.308441e+000
6.594429e+002,3.433380e+000
6.604072e+002,3.605515e+000
6.613714e+002,2.638580e+000
6.623356e+002,1.856934e+000
6.632999e+002,1.912491e+000
6.642641e+002,2.144623e+000
6.652283e+002,2.373810e+000
6.661926e+002,2.577606e+000
6.671568e+002,2.791504e+000
6.681210e+002,2.946518e+000
6.690853e+002,3.111374e+000
6.700495e+002,3.681946e+000
6.710137e+002,4.626205e+000
6.719780e+002,5.414734e+000
6.729422e+002,5.437958e+000
6.739064e+002,4.468765e+000
6.748707e+002,3.816376e+000
6.758349e+002,3.555801e+000
6.767991e+002,3.374664e+000
6.777634e+002,3.307953e+000
6.787276e+002,3.389496e+000
6.796918e+002,3.425156e+000
6.806561e+002,3.214615e+000
6.816203e+002,2.848984e+000
6.825845e+002,2.070496e+000
6.835488e+002,1.231125e+000
6.845130e+002,9.672699e-001
6.854772e+002,1.836777e+000
6.864415e+002,3.280792e+000
6.874057e+002,4.070557e+000
6.883699e+002,4.163742e+000
6.893342e+002,3.346268e+000
6.902984e+002,1.398148e+000
6.912626e+002,-1.281662e+000
6.922269e+002,-2.168594e+000
6.931911e+002,9.983673e-001
6.941553e+002,3.196274e+000
6.951196e+002,3.166794e+000
6.960838e+002,2.070724e+000
6.970480e+002,2.106583e+000
6.980123e+002,4.703751e+000
6.989765e+002,5.952225e+000
6.999407e+002,2.536072e+000
7.009050e+002,-1.423981e+000
7.018692e+002,-2.145493e+000
7.028334e+002,1.335373e+000
7.037977e+002,6.072113e+000
7.047619e+002,7.648254e+000
7.057261e+002,7.004669e+000
7.066904e+002,5.398087e+000
7.076546e+002,3.016922e+000
7.086188e+002,8.214874e-001
7.095831e+002,4.315338e-001
7.105473e+002,2.653931e+000
7.115115e+002,4.028931e+000
7.124758e+002,4.832016e+000
7.134400e+002,4.693329e+000
7.144042e+002,2.718643e+000
7.153685e+002,-9.393463e-001
7.163327e+002,-3.335999e+000
7.172969e+002,-2.005737e+000
7.182612e+002,-1.370239e-002
7.192254e+002,1.934799e+000
7.201896e+002,3.474808e+000
7.211539e+002,4.216064e+000
7.221181e+002,3.736145e+000
7.230823e+002,2.653091e+000
7.240466e+002,2.960892e+000
7.250108e+002,4.359177e+000
7.259750e+002,5.202896e+000
7.269393e+002,4.330688e+000
7.279035e+002,1.904999e+000
7.288677e+002,2.291260e-001
7.298320e+002,1.214752e-001
7.307962e+002,2.488098e-001
7.317604e+002,5.070953e-001
7.327247e+002,9.944153e-001
7.336889e+002,1.882141e+000
7.346531e+002,3.246231e+000
7.356174e+002,4.194077e+000
7.365816e+002,4.670380e+000
7.375458e+002,4.702972e+000
7.385101e+002,4.028320e+000
7.394743e+002,2.735214e+000
7.404385e+002,1.342239e+000
7.414028e+002,5.186005e-001
7.423670e+002,1.120911e-001
7.433312e+002,2.045288e-001
7.442955e+002,1.002075e+000
7.452597e+002,2.193787e+000
7.462239e+002,3.585678e+000
7.471882e+002,5.542557e+000
7.481524e+002,5.671173e+000
7.491166e+002,2.200943e+000
7.500809e+002,-1.036362e+000
7.510451e+002,-2.664978e+000
7.520093e+002,-2.834991e+000
7.529736e+002,-2.484070e+000
7.539378e+002,-1.693680e+000
7.549020e+002,-6.768188e-001
7.558663e+002,6.920319e-001
7.568306e+002,2.049789e+000
7.577948e+002,2.770782e+000
7.587590e+002,2.483475e+000
7.597233e+002,1.555634e+000
7.606875e+002,1.320450e+000
7.616517e+002,1.767410e+000
7.626160e+002,2.343842e+000
7.635802e+002,3.105865e+000
7.645444e+002,3.782181e+000
7.655087e+002,3.635574e+000
7.664729e+002,1.841797e+000
7.674371e+002,1.008972e+000
7.684014e+002,1.876999e+000
7.693656e+002,3.007416e+000
7.703298e+002,3.301895e+000
7.712941e+002,2.750763e+000
7.722583e+002,2.663864e+000
7.732225e+002,4.571899e+000
7.741868e+002,6.785706e+000
7.751510e+002,8.352890e+000
7.761152e+002,9.078003e+000
7.770795e+002,8.680603e+000
7.780437e+002,6.873840e+000
7.790079e+002,3.896957e+000
7.799722e+002,1.980255e+000
7.809364e+002,9.943390e-001
7.819006e+002,6.975098e-001
7.828649e+002,1.261215e+000
7.838291e+002,2.564682e+000
7.847933e+002,4.082001e+000
7.857576e+002,5.937210e+000
7.867218e+002,7.423538e+000
7.876860e+002,9.113800e+000
7.886503e+002,1.019220e+001
7.896145e+002,9.468445e+000
7.905787e+002,6.824631e+000
7.915430e+002,4.300339e+000
7.925072e+002,4.356796e+000
7.934714e+002,5.449234e+000
7.944357e+002,6.144150e+000
7.953999e+002,6.377991e+000
7.963641e+002,6.624802e+000
7.973284e+002,7.410614e+000
7.982926e+002,8.817795e+000
7.992568e+002,8.999054e+000
8.002211e+002,7.266617e+000
8.011853e+002,5.391327e+000
8.021495e+002,4.201828e+000
8.031138e+002,3.680374e+000
8.040780e+002,3.245041e+000
8.050422e+002,2.601974e+000
8.060065e+002,2.040665e+000
8.069707e+002,1.093918e+000
8.079349e+002,4.454041e-001
8.088992e+002,1.046036e+000
8.098634e+002,3.154297e+000
8.108276e+002,5.784744e+000
8.117919e+002,7.745728e+000
8.127561e+002,8.783142e+000
8.137203e+002,8.468140e+000
8.146846e+002,6.904053e+000
8.156488e+002,5.172409e+000
8.166130e+002,4.565292e+000
8.175773e+002,5.318146e+000
8.185415e+002,5.574295e+000
8.195057e+002,3.992432e+000
8.204700e+002,3.404892e+000
8.214342e+002,6.049484e+000
8.223984e+002,1.040952e+001
8.233627e+002,1.225522e+001
8.243269e+002,9.038010e+000
8.252911e+002,5.361603e+000
8.262554e+002,3.202560e+000
8.272196e+002,2.427002e+000
8.281838e+002,3.337952e+000
8.291481e+002,5.767029e+000
8.301123e+002,8.767487e+000
8.310765e+002,1.084177e+001
8.320408e+002,1.179066e+001
8.330050e+002,1.128175e+001
8.339692e+002,9.062683e+000
8.349335e+002,6.185303e+000
8.358977e+002,3.351059e+000
8.368619e+002,3.653717e-001
8.378262e+002,-6.937103e-001
8.387904e+002,1.959152e+000
8.397546e+002,4.366974e+000
8.407189e+002,5.499802e+000
8.416831e+002,5.773026e+000
8.426473e+002,6.128601e+000
8.436116e+002,7.060852e+000
8.445758e+002,7.880219e+000
8.455400e+002,7.380707e+000
8.465043e+002,6.371445e+000
8.474685e+002,5.991730e+000
8.484327e+002,6.581818e+000
8.493970e+002,7.588303e+000
8.503612e+002,7.941452e+000
8.513254e+002,7.445190e+000
8.522897e+002,7.262131e+000
8.532539e+002,7.417282e+000
8.542181e+002,7.662338e+000
8.551824e+002,7.951309e+000
8.561466e+002,8.398193e+000
8.571108e+002,9.085464e+000
8.580751e+002,9.775665e+000
8.590393e+002,1.054880e+001
8.600035e+002,1.178468e+001
8.609678e+002,1.311496e+001
8.619320e+002,1.398195e+001
8.628962e+002,1.419124e+001
8.638605e+002,1.436313e+001
8.648247e+002,1.600539e+001
8.657889e+002,1.807426e+001
8.667532e+002,1.782231e+001
8.677174e+002,1.490636e+001
8.686816e+002,1.196863e+001
8.696459e+002,1.232550e+001
8.706101e+002,1.672929e+001
8.715743e+002,1.916629e+001
8.725386e+002,1.812675e+001
8.735028e+002,1.728273e+001
8.744670e+002,1.769441e+001
8.754313e+002,1.872316e+001
8.763955e+002,1.908421e+001
8.773597e+002,1.819507e+001
8.783240e+002,1.743256e+001
8.792882e+002,1.780986e+001
8.802524e+002,1.863579e+001
8.812167e+002,1.954337e+001
8.821809e+002,2.032634e+001
8.831451e+002,2.073529e+001
8.841094e+002,2.038937e+001
8.850736e+002,1.946542e+001
8.860378e+002,1.991472e+001
8.870021e+002,2.203175e+001
8.879663e+002,2.403043e+001
8.889305e+002,2.474095e+001
8.898948e+002,2.439725e+001
8.908590e+002,2.437773e+001
8.918232e+002,2.508112e+001
8.927875e+002,2.580228e+001
8.937517e+002,2.639301e+001
8.947159e+002,2.694370e+001
8.956802e+002,2.746724e+001
8.966444e+002,2.791214e+001
8.976086e+002,2.822310e+001
8.985729e+002,2.839351e+001
8.995371e+002,2.859338e+001
9.005013e+002,2.926979e+001
9.014656e+002,3.026709e+001
9.024298e+002,3.043777e+001
9.033940e+002,2.865332e+001
9.043583e+002,2.532191e+001
9.053225e+002,2.441521e+001
9.062867e+002,2.829605e+001
9.072510e+002,3.157024e+001
9.082152e+002,3.480035e+001
9.091794e+002,3.715714e+001
9.101437e+002,3.739021e+001
9.111079e+002,3.526312e+001
9.120721e+002,3.308919e+001
9.130364e+002,3.190805e+001
9.140006e+002,3.117935e+001
9.149648e+002,3.093875e+001
9.159291e+002,3.103773e+001
9.168933e+002,3.119327e+001
9.178575e+002,3.115204e+001
9.188218e+002,3.084836e+001
9.197860e+002,3.007362e+001
9.207502e+002,2.873076e+001
9.217145e+002,2.813834e+001
9.226787e+002,2.900012e+001
9.236429e+002,3.054616e+001
9.246072e+002,3.183824e+001
9.255714e+002,3.292805e+001
9.265356e+002,3.303658e+001
9.274999e+002,3.114731e+001
9.284641e+002,2.914101e+001
9.294283e+002,2.758307e+001
9.303926e+002,2.646838e+001
9.313568e+002,2.565672e+001
9.323210e+002,2.508961e+001
9.332853e+002,2.452031e+001
9.342495e+002,2.320161e+001
9.352137e+002,2.166417e+001
9.361780e+002,2.108609e+001
9.371422e+002,2.177298e+001
9.381064e+002,2.278300e+001
9.390707e+002,2.266786e+001
9.400349e+002,2.101405e+001
9.409991e+002,2.030400e+001
9.419634e+002,2.142694e+001
9.429276e+002,2.216727e+001
9.438918e+002,2.145628e+001
9.448561e+002,2.020120e+001
9.458203e+002,2.020140e+001
9.467845e+002,2.229134e+001
9.477488e+002,2.409517e+001
9.487130e+002,2.353862e+001
9.496772e+002,2.212016e+001
9.506415e+002,2.049557e+001
9.516057e+002,1.905972e+001
9.525699e+002,1.839456e+001
9.535342e+002,1.907185e+001
9.544984e+002,2.084547e+001
9.554626e+002,2.198813e+001
9.564269e+002,2.272595e+001
9.573911e+002,2.293446e+001
9.583553e+002,2.226413e+001
9.593196e+002,2.110411e+001
9.602838e+002,2.010796e+001
9.612480e+002,1.932280e+001
9.622123e+002,1.843491e+001
9.631765e+002,1.674892e+001
9.641407e+002,1.559872e+001
9.651050e+002,1.594823e+001
9.660692e+002,1.724089e+001
9.670334e+002,1.840384e+001
9.679977e+002,1.883879e+001
9.689619e+002,1.878009e+001
9.699261e+002,1.795895e+001
9.708904e+002,1.674345e+001
9.718546e+002,1.674728e+001
9.728188e+002,1.842807e+001
9.737831e+002,2.079909e+001
9.747473e+002,2.266411e+001
9.757115e+002,2.398685e+001
9.766758e+002,2.517635e+001
9.776400e+002,2.689314e+001
9.786042e+002,2.784564e+001
9.795685e+002,2.723184e+001
9.805327e+002,2.572778e+001
9.814969e+002,2.440823e+001
9.824612e+002,2.370357e+001
9.834254e+002,2.279225e+001
9.843896e+002,1.988057e+001
9.853539e+002,1.674823e+001
9.863181e+002,1.569833e+001
9.872823e+002,1.648756e+001
9.882466e+002,1.745624e+001
9.892108e+002,1.731885e+001
9.901750e+002,1.631750e+001
9.911393e+002,1.518709e+001
9.921035e+002,1.256212e+001
9.930677e+002,1.161145e+001
9.940320e+002,1.397633e+001
9.949962e+002,1.709860e+001
9.959604e+002,1.861336e+001
9.969247e+002,1.839667e+001
9.978889e+002,1.802121e+001
9.988531e+002,1.802341e+001
9.998174e+002,1.794344e+001
1.000782e+003,1.743456e+001
1.001746e+003,1.685796e+001
1.002710e+003,1.686113e+001
1.003674e+003,1.761351e+001
1.004639e+003,1.841910e+001
1.005603e+003,1.800378e+001
1.006567e+003,1.618193e+001
1.007531e+003,1.478058e+001
1.008495e+003,1.350404e+001
1.009460e+003,1.316809e+001
1.010424e+003,1.512398e+001
1.011388e+003,1.859598e+001
1.012352e+003,2.018217e+001
1.013317e+003,1.854349e+001
1.014281e+003,1.670839e+001
1.015245e+003,1.524474e+001
1.016209e+003,1.420723e+001
1.017174e+003,1.408266e+001
1.018138e+003,1.453992e+001
1.019102e+003,1.453059e+001
1.020066e+003,1.321204e+001
1.021031e+003,1.094098e+001
1.021995e+003,8.034683e+000
1.022959e+003,4.619202e+000
1.023923e+003,2.428833e+000
1.024887e+003,2.258362e+000
1.025852e+003,3.120819e+000
1.026816e+003,3.598038e+000
1.027780e+003,3.759293e+000
1.028744e+003,3.552673e+000
1.029709e+003,2.206818e+000
1.030673e+003,1.350815e+000
1.031637e+003,1.988815e+000
1.032601e+003,3.137314e+000
1.033566e+003,3.299927e+000
1.034530e+003,2.009811e+000
1.035494e+003,5.681915e-001
1.036458e+003,5.032654e-001
1.037422e+003,1.080902e+000
1.038387e+003,8.596649e-001
1.039351e+003,-8.924866e-002
1.040315e+003,-4.203491e-001
1.041279e+003,1.067520e+000
1.042244e+003,3.839294e+000
1.043208e+003,4.959534e+000
1.044172e+003,2.708206e+000
1.045136e+003,1.520355e+000
1.046101e+003,2.168549e+000
1.047065e+003,3.241943e+000
1.048029e+003,4.010696e+000
1.048993e+003,4.369690e+000
1.049958e+003,4.346573e+000
1.050922e+003,3.848938e+000
1.051886e+003,3.410889e+000
1.052850e+003,3.661438e+000
1.053814e+003,4.211929e+000
1.054779e+003,4.759155e+000
1.055743e+003,5.117859e+000
1.056707e+003,4.821808e+000
1.057671e+003,3.214081e+000
1.058636e+003,2.619629e-001
1.059600e+003,-1.017197e+000
1.060564e+003,1.253036e+000
1.061528e+003,2.615982e+000
1.062493e+003,1.243301e+000
1.063457e+003,-6.710052e-001
1.064421e+003,-6.547546e-002
1.065385e+003,3.345734e+000
1.066349e+003,5.442932e+000
1.067314e+003,2.785370e+000
1.068278e+003,-2.026367e-001
1.069242e+003,-1.720734e-001
1.070206e+003,1.648026e+000
1.071171e+003,3.185379e+000
1.072135e+003,3.508240e+000
1.073099e+003,3.250443e+000
1.074063e+003,3.573654e+000
1.075028e+003,4.614487e+000
1.075992e+003,4.851486e+000
1.076956e+003,3.898941e+000
1.077920e+003,2.807770e+000
1.078885e+003,1.746490e+000
1.079849e+003,9.933167e-001
1.080813e+003,1.078857e+000
1.081777e+003,2.194656e+000
1.082741e+003,3.549698e+000
1.083706e+003,5.395309e+000
1.084670e+003,6.590088e+000
1.085634e+003,6.167496e+000
1.086598e+003,4.621094e+000
1.087563e+003,2.785294e+000
1.088527e+003,1.245514e+000
1.089491e+003,3.162231e-001
1.090455e+003,5.881500e-001
1.091420e+003,2.153046e+000
1.092384e+003,3.129486e+000
1.093348e+003,3.385178e+000
1.094312e+003,3.194458e+000
1.095276e+003,2.659897e+000
1.096241e+003,1.915207e+000
1.097205e+003,1.109818e+000
1.098169e+003,-3.274536e-002
1.099133e+003,-5.869293e-001
1.100098e+003,4.523315e-001
1.101062e+003,1.611938e+000
1.102026e+003,1.816330e+000
1.102990e+003,1.378418e+000
1.103955e+003,1.334122e+000
1.104919e+003,2.282074e+000
1.105883e+003,3.508698e+000
1.106847e+003,3.346695e+000
1.107812e+003,1.784744e+000
1.108776e+003,1.568192e+000
1.109740e+003,3.478210e+000
1.110704e+003,5.357285e+000
1.111668e+003,5.455688e+000
1.112633e+003,4.299484e+000
1.113597e+003,4.029053e+000
1.114561e+003,5.283768e+000
1.115525e+003,6.185730e+000
1.116490e+003,6.126648e+000
1.117454e+003,5.602219e+000
1.118418e+003,4.493759e+000
1.119382e+003,3.334381e+000
1.120347e+003,3.196381e+000
1.121311e+003,4.655487e+000
1.122275e+003,6.645691e+000
1.123239e+003,7.267075e+000
1.124203e+003,6.680817e+000
1.125168e+003,5.734283e+000
1.126132e+003,4.108902e+000
1.127096e+003,3.178940e+000
1.128060e+003,4.686142e+000
1.129025e+003,7.856613e+000
1.129989e+003,8.886047e+000
1.130953e+003,6.211334e+000
1.131917e+003,4.307190e+000
1.132882e+003,4.404068e+000
1.133846e+003,5.529175e+000
1.134810e+003,7.951050e+000
1.135774e+003,1.081297e+001
1.136739e+003,1.248015e+001
1.137703e+003,1.204332e+001
1.138667e+003,1.047079e+001
1.139631e+003,9.128387e+000
1.140595e+003,8.196762e+000
1.141560e+003,8.816269e+000
1.142524e+003,1.148849e+001
1.143488e+003,1.439169e+001
1.144452e+003,1.571324e+001
1.145417e+003,1.622684e+001
1.146381e+003,1.908360e+001
1.147345e+003,2.553207e+001
1.148309e+003,3.108221e+001
1.149274e+003,3.377533e+001
1.150238e+003,3.633495e+001
1.151202e+003,4.016029e+001
1.152166e+003,4.500406e+001
1.153130e+003,5.055968e+001
1.154095e+003,5.641180e+001
1.155059e+003,6.091466e+001
1.156023e+003,6.149309e+001
1.156987e+003,5.864604e+001
1.157952e+003,5.707770e+001
1.158916e+003,5.733597e+001
1.159880e+003,5.684636e+001
1.160844e+003,5.379053e+001
1.161809e+003,4.888692e+001
1.162773e+003,4.379799e+001
1.163737e+003,3.831839e+001
1.164701e+003,3.369067e+001
1.165666e+003,3.133760e+001
1.166630e+003,2.887332e+001
1.167594e+003,2.492143e+001
1.168558e+003,2.051051e+001
1.169522e+003,1.685510e+001
1.170487e+003,1.447813e+001
1.171451e+003,1.357146e+001
1.172415e+003,1.452936e+001
1.173379e+003,1.687617e+001
1.174344e+003,1.831802e+001
1.175308e+003,1.896564e+001
1.176272e+003,1.881383e+001
1.177236e+003,1.747214e+001
1.178201e+003,1.568712e+001
1.179165e+003,1.423730e+001
1.180129e+003,1.305229e+001
1.181093e+003,1.228632e+001
1.182057e+003,1.253506e+001
1.183022e+003,1.245306e+001
1.183986e+003,1.122342e+001
1.184950e+003,9.706924e+000
1.185914e+003,8.840881e+000
1.186879e+003,8.634613e+000
1.187843e+003,8.193787e+000
1.188807e+003,6.724640e+000
1.189771e+003,4.996170e+000
1.190736e+003,5.757874e+000
1.191700e+003,9.364380e+000
1.192664e+003,1.165256e+001
1.193628e+003,1.200192e+001
1.194593e+003,1.143695e+001
1.195557e+003,1.030444e+001
1.196521e+003,8.793884e+000
1.197485e+003,7.658600e+000
1.198449e+003,7.138596e+000
1.199414e+003,6.648529e+000
1.200378e+003,6.007874e+000
1.201342e+003,5.249130e+000
1.202306e+003,4.284088e+000
1.203271e+003,3.176865e+000
1.204235e+003,2.029770e+000
1.205199e+003,9.334412e-001
1.206163e+003,-4.150391e-002
1.207128e+003,-8.379974e-001
1.208092e+003,-1.459610e+000
1.209056e+003,-1.049133e+000
1.210020e+003,1.310486e+000
1.210984e+003,2.736877e+000
1.211949e+003,2.552002e+000
1.212913e+003,8.741913e-001
1.213877e+003,-2.975067e+000
1.214841e+003,-8.835220e+000
1.215806e+003,-1.279572e+001
1.216770e+003,-1.261940e+001
1.217734e+003,-1.128197e+001
1.218698e+003,-1.069177e+001
1.219663e+003,-1.053291e+001
1.220627e+003,-1.050426e+001
1.221591e+003,-1.046950e+001
1.222555e+003,-1.021622e+001
1.223520e+003,-9.502884e+000
1.224484e+003,-8.573593e+000
1.225448e+003,-8.767792e+000
1.226412e+003,-1.090559e+001
1.227376e+003,-1.240430e+001
1.228341e+003,-1.324886e+001
1.229305e+003,-1.355984e+001
1.230269e+003,-1.294208e+001
1.231233e+003,-1.196870e+001
1.232198e+003,-1.192262e+001
1.233162e+003,-1.316164e+001
1.234126e+003,-1.406242e+001
1.235090e+003,-1.297461e+001
1.236055e+003,-1.155936e+001
1.237019e+003,-1.193414e+001
1.237983e+003,-1.346164e+001
1.238947e+003,-1.418640e+001
1.239911e+003,-1.326555e+001
1.240876e+003,-1.177412e+001
1.241840e+003,-1.138557e+001
1.242804e+003,-1.217699e+001
1.243768e+003,-1.255269e+001
1.244733e+003,-1.191641e+001
1.245697e+003,-1.164786e+001
1.246661e+003,-1.245122e+001
1.247625e+003,-1.325905e+001
1.248590e+003,-1.308452e+001
1.249554e+003,-1.210345e+001
1.250518e+003,-1.115366e+001
1.251482e+003,-1.063359e+001
1.252447e+003,-1.048802e+001
1.253411e+003,-1.083125e+001
1.254375e+003,-1.129970e+001
1.255339e+003,-1.117029e+001
1.256303e+003,-1.039360e+001
1.257268e+003,-9.365463e+000
1.258232e+003,-8.242950e+000
1.259196e+003,-7.277786e+000
1.260160e+003,-6.975006e+000
1.261125e+003,-7.431381e+000
1.262089e+003,-7.513718e+000
1.263053e+003,-6.831192e+000
1.264017e+003,-6.253555e+000
1.264982e+003,-5.903732e+000
1.265946e+003,-5.747955e+000
1.266910e+003,-5.778854e+000
1.267874e+003,-5.962051e+000
1.268839e+003,-6.263535e+000
1.269803e+003,-6.659470e+000
1.270767e+003,-7.011154e+000
1.271731e+003,-6.886810e+000
1.272695e+003,-6.326019e+000
1.273660e+003,-6.827072e+000
1.274624e+003,-9.111649e+000
1.275588e+003,-1.094244e+001
1.276552e+003,-1.063693e+001
1.277517e+003,-9.163010e+000
1.278481e+003,-8.396454e+000
1.279445e+003,-8.494614e+000
1.280409e+003,-8.817261e+000
1.281374e+003,-9.535141e+000
1.282338e+003,-9.893661e+000
1.283302e+003,-9.293213e+000
1.284266e+003,-8.311386e+000
1.285230e+003,-7.340805e+000
1.286195e+003,-6.671082e+000
1.287159e+003,-6.848007e+000
1.288123e+003,-8.299789e+000
1.289087e+003,-1.035680e+001
1.290052e+003,-1.108293e+001
1.291016e+003,-1.005385e+001
1.291980e+003,-9.349762e+000
1.292944e+003,-9.098373e+000
1.293909e+003,-9.100281e+000
1.294873e+003,-9.281143e+000
1.295837e+003,-9.553619e+000
1.296801e+003,-9.769821e+000
1.297766e+003,-9.937012e+000
1.298730e+003,-1.046236e+001
1.299694e+003,-1.188321e+001
1.300658e+003,-1.324538e+001
1.301622e+003,-1.361131e+001
1.302587e+003,-1.313817e+001
1.303551e+003,-1.167239e+001
1.304515e+003,-9.321411e+000
1.305479e+003,-7.335571e+000
1.306444e+003,-6.787140e+000
1.307408e+003,-7.372635e+000
1.308372e+003,-7.972214e+000
1.309336e+003,-8.489319e+000
1.310301e+003,-9.348282e+000
1.311265e+003,-1.098924e+001
1.312229e+003,-1.236313e+001
1.313193e+003,-1.336420e+001
1.314157e+003,-1.383533e+001
1.315122e+003,-1.334377e+001
1.316086e+003,-1.213307e+001
1.317050e+003,-1.122835e+001
1.318014e+003,-1.130835e+001
1.318979e+003,-1.163348e+001
1.319943e+003,-1.069205e+001
1.320907e+003,-8.699356e+000
1.321871e+003,-7.966599e+000
1.322836e+003,-9.045166e+000
1.323800e+003,-1.007263e+001
1.324764e+003,-1.002394e+001
1.325728e+003,-9.304642e+000
1.326693e+003,-8.395203e+000
1.327657e+003,-7.337662e+000
1.328621e+003,-7.196167e+000
1.329585e+003,-8.836060e+000
1.330549e+003,-1.002464e+001
1.331514e+003,-9.187866e+000
1.332478e+003,-8.055862e+000
1.333442e+003,-8.665924e+000
1.334406e+003,-1.054108e+001
1.335371e+003,-1.140144e+001
1.336335e+003,-9.909805e+000
1.337299e+003,-7.351563e+000
1.338263e+003,-6.188461e+000
1.339228e+003,-6.560608e+000
1.340192e+003,-6.998749e+000
1.341156e+003,-7.857025e+000
1.342120e+003,-8.272751e+000
1.343084e+003,-7.606369e+000
1.344049e+003,-7.042953e+000
1.345013e+003,-7.847672e+000
1.345977e+003,-9.492966e+000
1.346941e+003,-1.033142e+001
1.347906e+003,-9.765411e+000
1.348870e+003,-8.585434e+000
1.349834e+003,-7.356705e+000
1.350798e+003,-6.152878e+000
1.351763e+003,-4.705231e+000
1.352727e+003,-3.189529e+000
1.353691e+003,-2.867020e+000
1.354655e+003,-4.434814e+000
1.355620e+003,-6.446014e+000
1.356584e+003,-7.014618e+000
1.357548e+003,-6.336670e+000
1.358512e+003,-6.519073e+000
1.359476e+003,-8.245697e+000
1.360441e+003,-9.465836e+000
1.361405e+003,-9.363907e+000
1.362369e+003,-8.898209e+000
1.363333e+003,-8.398788e+000
1.364298e+003,-7.884186e+000
1.365262e+003,-6.978027e+000
1.366226e+003,-5.859726e+000
1.367190e+003,-5.749893e+000
1.368155e+003,-7.782425e+000
1.369119e+003,-1.099680e+001
1.370083e+003,-1.228040e+001
1.371047e+003,-1.098477e+001
1.372011e+003,-1.021907e+001
1.372976e+003,-1.106740e+001
1.373940e+003,-1.115656e+001
1.374904e+003,-8.570740e+000
1.375868e+003,-5.362915e+000
1.376833e+003,-4.294693e+000
1.377797e+003,-5.418900e+000
1.378761e+003,-6.953323e+000
1.379725e+003,-8.398895e+000
1.380690e+003,-9.171326e+000
1.381654e+003,-7.892166e+000
1.382618e+003,-5.903717e+000
1.383582e+003,-5.305832e+000
1.384547e+003,-6.000198e+000
1.385511e+003,-6.214691e+000
1.386475e+003,-4.957901e+000
1.387439e+003,-3.302734e+000
1.388403e+003,-3.015747e+000
1.389368e+003,-4.099167e+000
1.390332e+003,-4.590881e+000
1.391296e+003,-3.953690e+000
1.392260e+003,-3.609329e+000
1.393225e+003,-3.996368e+000
1.394189e+003,-4.627716e+000
1.395153e+003,-5.519333e+000
1.396117e+003,-6.340973e+000
1.397082e+003,-6.496475e+000
1.398046e+003,-5.949142e+000
1.399010e+003,-5.447327e+000
1.399974e+003,-5.729492e+000
1.400938e+003,-6.578552e+000
1.401903e+003,-7.080002e+000
1.402867e+003,-6.971085e+000
1.403831e+003,-6.694901e+000
1.404795e+003,-6.375870e+000
1.405760e+003,-5.916916e+000
1.406724e+003,-5.168152e+000
1.407688e+003,-4.585754e+000
1.408652e+003,-4.663376e+000
1.409617e+003,-5.246704e+000
1.410581e+003,-5.755814e+000
1.411545e+003,-5.989792e+000
1.412509e+003,-5.979324e+000
1.413474e+003,-5.755936e+000
1.414438e+003,-5.408524e+000
1.415402e+003,-4.892014e+000
1.416366e+003,-4.185196e+000
1.417330e+003,-3.459732e+000
1.418295e+003,-2.716019e+000
1.419259e+003,-2.220032e+000
1.420223e+003,-2.541534e+000
1.421187e+003,-3.533920e+000
1.422152e+003,-3.888931e+000
1.423116e+003,-3.226196e+000
1.424080e+003,-2.820541e+000
1.425044e+003,-3.660080e+000
1.426009e+003,-4.267975e+000
1.426973e+003,-3.554733e+000
1.427937e+003,-2.563599e+000
1.428901e+003,-2.914551e+000
1.429865e+003,-4.345673e+000
1.430830e+003,-4.900024e+000
1.431794e+003,-3.342117e+000
1.432758e+003,-8.063660e-001
1.433722e+003,5.850677e-001
1.434687e+003,9.057007e-001
1.435651e+003,6.726532e-001
1.436615e+003,-1.391479e+000
1.437579e+003,-2.606888e+000
1.438544e+003,-2.178818e+000
1.439508e+003,-1.337357e+000
1.440472e+003,-6.179352e-001
1.441436e+003,-9.890747e-002
1.442401e+003,1.671753e-001
1.443365e+003,1.466217e-001
1.444329e+003,-2.279358e-001
1.445293e+003,-1.095856e+000
1.446257e+003,-1.996155e+000
1.447222e+003,-1.903534e+000
1.448186e+003,-1.058044e+000
1.449150e+003,-8.332825e-001
1.450114e+003,-1.624878e+000
1.451079e+003,-2.002029e+000
1.452043e+003,-7.531433e-001
1.453007e+003,1.075912e+000
1.453971e+003,2.077667e+000
1.454936e+003,2.246918e+000
1.455900e+003,1.925247e+000
1.456864e+003,1.104645e+000
1.457828e+003,2.079315e-001
1.458792e+003,-8.473511e-001
1.459757e+003,-1.671417e+000
1.460721e+003,-1.786285e+000
1.461685e+003,-1.461288e+000
1.462649e+003,-1.255646e+000
1.463614e+003,-1.276733e+000
1.464578e+003,-1.160431e+000
1.465542e+003,-5.285797e-001
1.466506e+003,2.595367e-001
1.467471e+003,6.591797e-002
1.468435e+003,-1.378754e+000
1.469399e+003,-2.005508e+000
1.470363e+003,-1.170334e+000
1.471328e+003,-4.341736e-001
1.472292e+003,-5.311737e-001
1.473256e+003,-6.192322e-001
1.474220e+003,5.360413e-001
1.475184e+003,2.152100e+000
1.476149e+003,2.297867e+000
1.477113e+003,5.402679e-001
1.478077e+003,-1.316452e+000
1.479041e+003,-1.446548e+000
1.480006e+003,-3.837585e-001
1.480970e+003,-1.015625e-001
1.481934e+003,-1.193054e+000
1.482898e+003,-7.732239e-001
1.483863e+003,3.089355e+000
1.484827e+003,5.540756e+000
1.485791e+003,4.072983e+000
1.486755e+003,1.858170e+000
1.487719e+003,1.846344e+000
1.488684e+003,3.516846e+000
1.489648e+003,4.881302e+000
1.490612e+003,5.327789e+000
1.491576e+003,5.508591e+000
1.492541e+003,5.922852e+000
1.493505e+003,6.376221e+000
1.494469e+003,6.299133e+000
1.495433e+003,5.749496e+000
1.496398e+003,5.630707e+000
1.497362e+003,6.169891e+000
1.498326e+003,7.154465e+000
1.499290e+003,8.766815e+000
1.500255e+003,1.052992e+001
1.501219e+003,1.157619e+001
1.502183e+003,1.206934e+001
1.503147e+003,1.317332e+001
1.504111e+003,1.519243e+001
1.505076e+003,1.757294e+001
1.506040e+003,2.013106e+001
1.507004e+003,2.281476e+001
1.507968e+003,2.562920e+001
1.508933e+003,2.850630e+001
1.509897e+003,3.115155e+001
1.510861e+003,3.367445e+001
1.511825e+003,3.691270e+001
1.512790e+003,4.136493e+001
1.513754e+003,4.677577e+001
1.514718e+003,5.319099e+001
1.515682e+003,6.052106e+001
1.516646e+003,6.634431e+001
1.517611e+003,6.987631e+001
1.518575e+003,7.355630e+001
1.519539e+003,7.951859e+001
1.520503e+003,8.454272e+001
1.521468e+003,8.661594e+001
1.522432e+003,8.676895e+001
1.523396e+003,8.637854e+001
1.524360e+003,8.577783e+001
1.525325e+003,8.475578e+001
1.526289e+003,8.319885e+001
1.527253e+003,8.111737e+001
1.528217e+003,7.856284e+001
1.529182e+003,7.560864e+001
1.530146e+003,7.112151e+001
1.531110e+003,6.379973e+001
1.532074e+003,5.721237e+001
1.533039e+003,5.161682e+001
1.534003e+003,4.640274e+001
1.534967e+003,4.226468e+001
1.535931e+003,3.800975e+001
1.536896e+003,3.126704e+001
1.537860e+003,2.305444e+001
1.538824e+003,1.732230e+001
1.539788e+003,1.593454e+001
1.540752e+003,1.612897e+001
1.541717e+003,1.433882e+001
1.542681e+003,1.103564e+001
1.543645e+003,8.999222e+000
1.544609e+003,8.877045e+000
1.545573e+003,8.661438e+000
1.546538e+003,8.047989e+000
1.547502e+003,7.524841e+000
1.548466e+003,7.275757e+000
1.549430e+003,7.385040e+000
1.550395e+003,8.101044e+000
1.551359e+003,9.121933e+000
1.552323e+003,9.794708e+000
1.553287e+003,9.887207e+000
1.554252e+003,9.426437e+000
1.555216e+003,8.321854e+000
1.556180e+003,6.944031e+000
1.557144e+003,6.160645e+000
1.558109e+003,6.032608e+000
1.559073e+003,6.179245e+000
1.560037e+003,7.001602e+000
1.561001e+003,6.975067e+000
1.561966e+003,4.773499e+000
1.562930e+003,2.493195e+000
1.563894e+003,2.001251e+000
1.564858e+003,2.890503e+000
1.565823e+003,4.397430e+000
1.566787e+003,6.241074e+000
1.567751e+003,6.977539e+000
1.568715e+003,5.418228e+000
1.569679e+003,3.675217e+000
1.570644e+003,4.894028e+000
1.571608e+003,7.791321e+000
1.572572e+003,8.569748e+000
1.573536e+003,7.123199e+000
1.574500e+003,6.069931e+000
1.575465e+003,6.404846e+000
1.576429e+003,7.084671e+000
1.577393e+003,7.139816e+000
1.578357e+003,6.965027e+000
1.579322e+003,7.514374e+000
1.580286e+003,8.806244e+000
1.581250e+003,9.930466e+000
1.582214e+003,1.063347e+001
1.583179e+003,1.102994e+001
1.584143e+003,1.105840e+001
1.585107e+003,1.086160e+001
1.586071e+003,1.075905e+001
1.587036e+003,1.076627e+001
1.588000e+003,1.066457e+001
1.588964e+003,1.034779e+001
1.589928e+003,9.912582e+000
1.590893e+003,9.003830e+000
1.591857e+003,8.445892e+000
1.592821e+003,1.014342e+001
1.593785e+003,1.352022e+001
1.594750e+003,1.484126e+001
1.595714e+003,1.324638e+001
1.596678e+003,1.203500e+001
1.597642e+003,1.267041e+001
1.598606e+003,1.390036e+001
1.599571e+003,1.517281e+001
1.600535e+003,1.618793e+001
1.601499e+003,1.628998e+001
1.602463e+003,1.563191e+001
1.603427e+003,1.525720e+001
1.604392e+003,1.563576e+001
1.605356e+003,1.605817e+001
1.606320e+003,1.549245e+001
1.607284e+003,1.452060e+001
1.608249e+003,1.516380e+001
1.609213e+003,1.750864e+001
1.610177e+003,1.858893e+001
1.611141e+003,1.753160e+001
1.612106e+003,1.615479e+001
1.613070e+003,1.468726e+001
1.614034e+003,1.381700e+001
1.614998e+003,1.424866e+001
1.615963e+003,1.556320e+001
1.616927e+003,1.744040e+001
1.617891e+003,1.953746e+001
1.618855e+003,2.052870e+001
1.619820e+003,1.950636e+001
1.620784e+003,1.741199e+001
1.621748e+003,1.520769e+001
1.622712e+003,1.322913e+001
1.623677e+003,1.327203e+001
1.624641e+003,1.577071e+001
1.625605e+003,1.784105e+001
1.626569e+003,1.856818e+001
1.627533e+003,1.889342e+001
1.628498e+003,1.965730e+001
1.629462e+003,2.010077e+001
1.630426e+003,1.899918e+001
1.631390e+003,1.716376e+001
1.632354e+003,1.662505e+001
1.633319e+003,1.772522e+001
1.634283e+003,1.864561e+001
1.635247e+003,1.795894e+001
1.636211e+003,1.653380e+001
1.637176e+003,1.597797e+001
1.638140e+003,1.626648e+001
1.639104e+003,1.646724e+001
1.640068e+003,1.649796e+001
1.641033e+003,1.651717e+001
1.641997e+003,1.654819e+001
1.642961e+003,1.667747e+001
1.643925e+003,1.728023e+001
1.644890e+003,1.771957e+001
1.645854e+003,1.704555e+001
1.646818e+003,1.569058e+001
1.647782e+003,1.479210e+001
1.648747e+003,1.472165e+001
1.649711e+003,1.537601e+001
1.650675e+003,1.694511e+001
1.651639e+003,1.871980e+001
1.652604e+003,1.886087e+001
1.653568e+003,1.741296e+001
1.654532e+003,1.692874e+001
1.655496e+003,1.795636e+001
1.656460e+003,1.840707e+001
1.657425e+003,1.689633e+001
1.658389e+003,1.583006e+001
1.659353e+003,1.742250e+001
1.660317e+003,1.939157e+001
1.661281e+003,1.907274e+001
1.662246e+003,1.690605e+001
1.663210e+003,1.471700e+001
1.664174e+003,1.317712e+001
1.665138e+003,1.248923e+001
1.666103e+003,1.305110e+001
1.667067e+003,1.408394e+001
1.668031e+003,1.399382e+001
1.668995e+003,1.287683e+001
1.669960e+003,1.173689e+001
1.670924e+003,1.045761e+001
1.671888e+003,1.011523e+001
1.672852e+003,1.181535e+001
1.673817e+003,1.333133e+001
1.674781e+003,1.291783e+001
1.675745e+003,1.183688e+001
1.676709e+003,1.156270e+001
1.677674e+003,1.186041e+001
1.678638e+003,1.141013e+001
1.679602e+003,9.826096e+000
1.680566e+003,8.832291e+000
1.681531e+003,1.022453e+001
1.682495e+003,1.246544e+001
1.683459e+003,1.256406e+001
1.684423e+003,1.091231e+001
1.685387e+003,1.045448e+001
1.686352e+003,1.165924e+001
1.687316e+003,1.248273e+001
1.688280e+003,1.215607e+001
1.689244e+003,1.152217e+001
1.690208e+003,1.132988e+001
1.691173e+003,1.102072e+001
1.692137e+003,9.686798e+000
1.693101e+003,7.775864e+000
1.694065e+003,6.616486e+000
1.695030e+003,6.485687e+000
1.695994e+003,6.716431e+000
1.696958e+003,6.996246e+000
1.697922e+003,7.386093e+000
1.698887e+003,8.256454e+000
1.699851e+003,9.274673e+000
1.700815e+003,9.247681e+000
1.701779e+003,8.061737e+000
1.702744e+003,6.668304e+000
1.703708e+003,5.332550e+000
1.704672e+003,4.281113e+000
1.705636e+003,3.525742e+000
1.706601e+003,3.138199e+000
1.707565e+003,3.613708e+000
1.708529e+003,4.658432e+000
1.709493e+003,5.263397e+000
1.710458e+003,5.331512e+000
1.711422e+003,4.684265e+000
1.712386e+003,2.252075e+000
1.713350e+003,3.775940e-001
1.714314e+003,1.579681e+000
1.715279e+003,4.065750e+000
1.716243e+003,4.845566e+000
1.717207e+003,4.013290e+000
1.718171e+003,3.285385e+000
1.719135e+003,3.153290e+000
1.720100e+003,2.920273e+000
1.721064e+003,1.988083e+000
1.722028e+003,1.032608e+000
1.722992e+003,1.079727e+000
1.723957e+003,2.087082e+000
1.724921e+003,3.562378e+000
1.725885e+003,5.658035e+000
1.726849e+003,6.605026e+000
1.727814e+003,5.383713e+000
1.728778e+003,4.229614e+000
1.729742e+003,4.413452e+000
1.730706e+003,4.759537e+000
1.731671e+003,3.653870e+000
1.732635e+003,1.840500e+000
1.733599e+003,1.323288e+000
1.734563e+003,2.318100e+000
1.735528e+003,3.355896e+000
1.736492e+003,3.627380e+000
1.737456e+003,3.181381e+000
1.738420e+003,1.922043e+000
1.739385e+003,3.055878e-001
1.740349e+003,3.113098e-001
1.741313e+003,2.512436e+000
1.742277e+003,3.660889e+000
1.743241e+003,3.063477e+000
1.744206e+003,2.685730e+000
1.745170e+003,2.994171e+000
1.746134e+003,3.247025e+000
1.747098e+003,3.032150e+000
1.748063e+003,2.531464e+000
1.749027e+003,2.034821e+000
1.749991e+003,1.486893e+000
1.750955e+003,2.533722e-001
1.751919e+003,-1.613205e+000
1.752884e+003,-2.441238e+000
1.753848e+003,-8.151093e-001
1.754812e+003,1.914902e+000
1.755776e+003,3.029190e+000
1.756741e+003,2.644135e+000
1.757705e+003,2.787018e+000
1.758669e+003,3.767334e+000
1.759633e+003,4.196487e+000
1.760598e+003,3.356339e+000
1.761562e+003,2.686325e+000
1.762526e+003,3.161560e+000
1.763490e+003,3.520523e+000
1.764455e+003,2.480042e+000
1.765419e+003,9.367371e-001
1.766383e+003,2.956543e-001
1.767347e+003,6.500397e-001
1.768312e+003,1.378143e+000
1.769276e+003,2.185562e+000
1.770240e+003,2.649948e+000
1.771204e+003,2.389938e+000
1.772168e+003,1.618057e+000
1.773133e+003,3.226624e-001
1.774097e+003,-1.339172e+000
1.775061e+003,-1.438934e+000
1.776025e+003,4.349060e-001
1.776990e+003,1.647354e+000
1.777954e+003,1.147263e+000
1.778918e+003,4.170685e-001
1.779882e+003,5.321198e-001
1.780846e+003,8.851471e-001
1.781811e+003,4.748840e-001
1.782775e+003,-3.168793e-001
1.783739e+003,-1.347504e-001
1.784703e+003,1.323273e+000
1.785668e+003,2.682266e+000
1.786632e+003,3.665237e+000
1.787596e+003,3.835831e+000
1.788560e+003,2.348389e+000
1.789525e+003,3.980103e-001
1.790489e+003,-5.578918e-001
1.791453e+003,-5.674133e-001
1.792417e+003,2.235413e-001
1.793382e+003,1.617294e+000
1.794346e+003,2.269104e+000
1.795310e+003,1.400970e+000
1.796274e+003,2.957764e-001
1.797239e+003,5.747528e-001
1.798203e+003,1.639221e+000
1.799167e+003,1.195038e+000
1.800131e+003,-1.314629e+000
1.801095e+003,-2.466560e+000
1.802060e+003,-9.487152e-001
1.803024e+003,-6.094360e-002
1.803988e+003,-1.089973e+000
1.804952e+003,-1.699158e+000
1.805917e+003,-3.268051e-001
1.806881e+003,1.603745e+000
1.807845e+003,2.859283e+000
1.808809e+003,3.424637e+000
1.809773e+003,3.552734e+000
1.810738e+003,3.407288e+000
1.811702e+003,3.259064e+000
1.812666e+003,3.266266e+000
1.813630e+003,3.174316e+000
1.814595e+003,2.573082e+000
1.815559e+003,1.659332e+000
1.816523e+003,1.351425e+000
1.817487e+003,1.711708e+000
1.818452e+003,2.220787e+000
1.819416e+003,3.117554e+000
1.820380e+003,3.544815e+000
1.821344e+003,2.843285e+000
1.822309e+003,2.100395e+000
1.823273e+003,1.975464e+000
1.824237e+003,2.191620e+000
1.825201e+003,2.471336e+000
1.826166e+003,2.800591e+000
1.827130e+003,3.441193e+000
1.828094e+003,4.376160e+000
1.829058e+003,4.432884e+000
1.830022e+003,2.726616e+000
1.830987e+003,8.031235e-001
1.831951e+003,-2.686157e-001
1.832915e+003,-6.272354e-001
1.833879e+003,-2.527847e-001
1.834844e+003,6.156082e-001
1.835808e+003,1.263329e+000
1.836772e+003,1.629723e+000
1.837736e+003,2.415192e+000
1.838700e+003,3.923096e+000
1.839665e+003,5.098930e+000
1.840629e+003,4.967094e+000
1.841593e+003,3.994873e+000
1.842557e+003,3.039459e+000
1.843522e+003,2.103508e+000
1.844486e+003,1.597107e+000
1.845450e+003,1.732048e+000
1.846414e+003,2.068054e+000
1.847379e+003,2.657219e+000
1.848343e+003,3.167328e+000
1.849307e+003,3.872009e+000
1.850271e+003,4.153023e+000
1.851236e+003,2.968773e+000
1.852200e+003,1.529434e+000
1.853164e+003,1.662460e+000
1.854128e+003,3.059166e+000
1.855093e+003,4.147118e+000
1.856057e+003,4.347305e+000
1.857021e+003,4.027359e+000
1.857985e+003,3.387306e+000
1.858949e+003,2.715080e+000
1.859914e+003,2.669815e+000
1.860878e+003,3.095901e+000
1.861842e+003,2.807167e+000
1.862806e+003,1.744560e+000
1.863771e+003,1.648285e+000
1.864735e+003,3.023140e+000
1.865699e+003,4.288155e+000
1.866663e+003,4.972870e+000
1.867627e+003,5.009583e+000
1.868592e+003,3.554466e+000
1.869556e+003,1.797585e+000
1.870520e+003,2.703438e+000
1.871484e+003,5.679123e+000
1.872449e+003,6.563728e+000
1.873413e+003,4.460915e+000
1.874377e+003,2.923325e+000
1.875341e+003,2.715897e+000
1.876306e+003,3.310997e+000
1.877270e+003,5.583748e+000
1.878234e+003,7.444305e+000
1.879198e+003,6.099052e+000
1.880163e+003,3.147850e+000
1.881127e+003,1.597504e+000
1.882091e+003,1.797295e+000
1.883055e+003,2.596832e+000
1.884020e+003,3.422165e+000
1.884984e+003,4.242325e+000
1.885948e+003,5.049744e+000
1.886912e+003,5.658379e+000
1.887876e+003,5.709389e+000
1.888841e+003,5.219910e+000
1.889805e+003,4.076576e+000
1.890769e+003,1.879921e+000
1.891733e+003,1.326065e+000
1.892698e+003,3.391266e+000
1.893662e+003,5.254852e+000
1.894626e+003,6.397438e+000
1.895590e+003,6.533569e+000
1.896554e+003,4.509308e+000
1.897519e+003,2.132164e+000
1.898483e+003,1.604233e+000
1.899447e+003,2.535164e+000
1.900411e+003,3.561539e+000
1.901376e+003,4.506836e+000
1.902340e+003,5.218651e+000
1.903304e+003,5.639359e+000
1.904268e+003,5.794907e+000
1.905233e+003,5.644325e+000
1.906197e+003,5.338249e+000
1.907161e+003,4.826111e+000
1.908125e+003,4.402733e+000
1.909090e+003,4.662041e+000
1.910054e+003,5.432152e+000
1.911018e+003,6.086746e+000
1.911982e+003,6.372887e+000
1.912947e+003,5.972801e+000
1.913911e+003,4.631386e+000
1.914875e+003,3.325684e+000
1.915839e+003,3.631157e+000
1.916803e+003,5.140060e+000
1.917768e+003,5.971542e+000
1.918732e+003,6.021240e+000
1.919696e+003,6.398155e+000
1.920660e+003,7.326302e+000
1.921625e+003,8.118317e+000
1.922589e+003,8.784317e+000
1.923553e+003,8.947365e+000
1.924517e+003,7.633415e+000
1.925481e+003,6.435638e+000
1.926446e+003,7.206032e+000
1.927410e+003,8.940575e+000
1.928374e+003,9.467316e+000
1.929338e+003,8.709854e+000
1.930303e+003,8.489922e+000
1.931267e+003,9.646629e+000
1.932231e+003,1.042770e+001
1.933195e+003,9.656754e+000
1.934160e+003,8.567253e+000
1.935124e+003,8.025673e+000
1.936088e+003,7.664261e+000
1.937052e+003,7.077240e+000
1.938017e+003,6.347954e+000
1.938981e+003,5.532280e+000
1.939945e+003,4.784332e+000
1.940909e+003,4.661507e+000
1.941874e+003,5.346748e+000
1.942838e+003,6.115562e+000
1.943802e+003,6.315910e+000
1.944766e+003,6.582062e+000
1.945730e+003,8.374367e+000
1.946695e+003,1.128157e+001
1.947659e+003,1.199498e+001
1.948623e+003,1.027137e+001
1.949587e+003,8.891685e+000
1.950552e+003,8.094955e+000
1.951516e+003,8.068161e+000
1.952480e+003,9.316612e+000
1.953444e+003,1.038433e+001
1.954408e+003,1.002029e+001
1.955373e+003,9.079010e+000
1.956337e+003,8.840355e+000
1.957301e+003,9.154488e+000
1.958265e+003,9.245285e+000
1.959230e+003,9.067894e+000
1.960194e+003,8.989586e+000
1.961158e+003,9.582214e+000
1.962122e+003,9.273911e+000
1.963087e+003,6.376419e+000
1.964051e+003,4.075050e+000
1.965015e+003,4.732689e+000
1.965979e+003,6.499298e+000
1.966944e+003,7.724670e+000
1.967908e+003,8.292458e+000
1.968872e+003,8.310501e+000
1.969836e+003,8.043556e+000
1.970801e+003,8.229408e+000
1.971765e+003,9.132057e+000
1.972729e+003,9.715759e+000
1.973693e+003,8.873978e+000
1.974657e+003,7.908890e+000
1.975622e+003,9.409607e+000
1.976586e+003,1.205742e+001
1.977550e+003,1.183221e+001
1.978514e+003,9.334175e+000
1.979479e+003,8.382843e+000
1.980443e+003,9.464767e+000
1.981407e+003,1.086311e+001
1.982371e+003,1.202279e+001
1.983335e+003,1.224861e+001
1.984300e+003,1.081435e+001
1.985264e+003,8.951004e+000
1.986228e+003,8.668381e+000
1.987192e+003,9.577438e+000
1.988157e+003,9.597717e+000
1.989121e+003,8.365509e+000
1.990085e+003,8.318062e+000
1.991049e+003,1.055711e+001
1.992014e+003,1.181110e+001
1.992978e+003,1.042133e+001
1.993942e+003,9.673172e+000
1.994906e+003,1.202919e+001
1.995871e+003,1.404960e+001
1.996835e+003,1.184786e+001
1.997799e+003,8.559433e+000
1.998763e+003,9.896179e+000
1.999728e+003,1.463364e+001
