5.003444e+002,2.339368e+001
5.013087e+002,2.379108e+001
5.022729e+002,2.347076e+001
5.032371e+002,2.274347e+001
5.042014e+002,2.111316e+001
5.051656e+002,1.890558e+001
5.061298e+002,1.792737e+001
5.070941e+002,2.006152e+001
5.080583e+002,2.632819e+001
5.090225e+002,2.849200e+001
5.099868e+002,2.493896e+001
5.109510e+002,2.044153e+001
5.119152e+002,1.699213e+001
5.128795e+002,1.471515e+001
5.138437e+002,1.371552e+001
5.148079e+002,1.529108e+001
5.157722e+002,1.712292e+001
5.167364e+002,1.823364e+001
5.177006e+002,1.837708e+001
5.186649e+002,1.799200e+001
5.196291e+002,1.802771e+001
5.205933e+002,1.814398e+001
5.215576e+002,1.718671e+001
5.225218e+002,1.494775e+001
5.234860e+002,1.210913e+001
5.244503e+002,1.023340e+001
5.254145e+002,1.014185e+001
5.263787e+002,9.724792e+000
5.273430e+002,8.877930e+000
5.283072e+002,7.783936e+000
5.292714e+002,6.387573e+000
5.302357e+002,3.526306e+000
5.311999e+002,2.075073e+000
5.321641e+002,4.490967e+000
5.331284e+002,7.356506e+000
5.340926e+002,7.239075e+000
5.350568e+002,2.477356e+000
5.360211e+002,-2.221863e+000
5.369853e+002,-1.470215e+000
5.379495e+002,1.407043e+000
5.389138e+002,3.743530e+000
5.398780e+002,4.432678e+000
5.408422e+002,4.277283e+000
5.418065e+002,6.001709e+000
5.427707e+002,9.229309e+000
5.437349e+002,1.108429e+001
5.446992e+002,1.039410e+001
5.456634e+002,7.973694e+000
5.466276e+002,6.843323e+000
5.475919e+002,8.988342e+000
5.485561e+002,1.030695e+001
5.495203e+002,1.049463e+001
5.504846e+002,9.567810e+000
5.514488e+002,7.323975e+000
5.524130e+002,2.736755e+000
5.533773e+002,-3.854980e-001
5.543415e+002,9.063110e-001
5.553057e+002,3.764404e+000
5.562700e+002,5.034180e+000
5.572342e+002,2.759583e+000
5.581984e+002,-1.224548e+000
5.591627e+002,-2.289063e+000
5.601269e+002,-1.188660e+000
5.610911e+002,6.292725e-001
5.620554e+002,2.403076e+000
5.630196e+002,3.930054e+000
5.639838e+002,4.465942e+000
5.649481e+002,3.219727e+000
5.659123e+002,2.183228e+000
5.668765e+002,2.278198e+000
5.678408e+002,3.273621e+000
5.688050e+002,3.934387e+000
5.697692e+002,2.843872e+000
5.707335e+002,1.967407e+000
5.716977e+002,2.795410e+000
5.726619e+002,4.150757e+000
5.736262e+002,4.204407e+000
5.745904e+002,1.498108e+000
5.755546e+002,-1.713196e+000
5.765189e+002,-2.179810e+000
5.774831e+002,-1.049194e+000
5.784473e+002,3.413696e-001
5.794116e+002,1.211121e+000
5.803758e+002,1.765625e+000
5.813400e+002,1.658020e+000
5.823043e+002,2.037964e-001
5.832685e+002,-1.205750e+000
5.842327e+002,-1.963501e+000
5.851970e+002,-1.870056e+000
5.861612e+002,-9.490967e-001
5.871254e+002,2.620972e+000
5.880897e+002,4.424500e+000
5.890539e+002,2.055237e+000
5.900181e+002,-2.535278e+000
5.909824e+002,-6.083008e+000
5.919466e+002,-6.460876e+000
5.929108e+002,-4.834839e+000
5.938751e+002,-2.270203e+000
5.948393e+002,6.693726e-001
5.958035e+002,3.297791e+000
5.967678e+002,5.158691e+000
5.977320e+002,6.307312e+000
5.986962e+002,5.601013e+000
5.996605e+002,2.625549e+000
6.006247e+002,6.347656e-003
6.015889e+002,-1.178040e+000
6.025532e+002,-9.175415e-001
6.035174e+002,2.196045e-001
6.044816e+002,5.410034e+000
6.054459e+002,7.978577e+000
6.064101e+002,5.327026e+000
6.073743e+002,-4.005737e-001
6.083386e+002,-5.382385e+000
6.093028e+002,-7.712097e+000
6.102670e+002,-8.392212e+000
6.112313e+002,-8.699463e+000
6.121955e+002,-8.344543e+000
6.131597e+002,-6.597290e+000
6.141240e+002,-3.020020e+000
6.150882e+002,1.581055e+000
6.160524e+002,4.003784e+000
6.170167e+002,4.787170e+000
6.179809e+002,4.832886e+000
6.189451e+002,4.095215e+000
6.199094e+002,2.589783e+000
6.208736e+002,1.648499e+000
6.218378e+002,2.807861e+000
6.228021e+002,3.442749e+000
6.237663e+002,3.264221e+000
6.247305e+002,2.547974e+000
6.256948e+002,1.517944e+000
6.266590e+002,-3.019409e-001
6.276232e+002,-1.929749e+000
6.285875e+002,-2.690979e+000
6.295517e+002,-2.627625e+000
6.305159e+002,-1.616699e+000
6.314802e+002,2.380981e-001
6.324444e+002,2.211121e+000
6.334086e+002,2.685730e+000
6.343729e+002,2.260559e+000
6.353371e+002,1.445740e+000
6.363013e+002,3.328857e-001
6.372656e+002,-1.211731e+000
6.382298e+002,-3.467712e+000
6.391940e+002,-9.161499e+000
6.401583e+002,-1.186237e+001
6.411225e+002,-9.009338e+000
6.420867e+002,-3.778015e+000
6.430510e+002,-3.522339e-001
6.440152e+002,-7.487793e-001
6.449794e+002,-8.246460e-001
6.459437e+002,3.523926e+000
6.469079e+002,7.793457e+000
6.478721e+002,7.988098e+000
6.488364e+002,3.111877e+000
6.498006e+002,-3.707703e+000
6.507648e+002,-7.461060e+000
6.517291e+002,-9.018372e+000
6.526933e+002,-1.019745e+001
6.536575e+002,-1.138867e+001
6.546218e+002,-1.190094e+001
6.555860e+002,-1.019751e+001
6.565502e+002,-4.007507e+000
6.575145e+002,-7.962036e-001
6.584787e+002,-2.271362e+000
6.594429e+002,-4.871704e+000
6.604072e+002,-5.874023e+000
6.613714e+002,-4.790466e+000
6.623356e+002,-3.331299e+000
6.632999e+002,-1.695557e+000
6.642641e+002,-8.319092e-001
6.652283e+002,-1.744202e+000
6.661926e+002,-3.838623e+000
6.671568e+002,-5.216858e+000
6.681210e+002,-3.353271e+000
6.690853e+002,2.457275e-001
6.700495e+002,2.043274e+000
6.710137e+002,1.997192e+000
6.719780e+002,6.308594e-001
6.729422e+002,-1.819580e+000
6.739064e+002,-6.126282e+000
6.748707e+002,-7.163025e+000
6.758349e+002,-2.735840e+000
6.767991e+002,1.276611e+000
6.777634e+002,2.582275e+000
6.787276e+002,1.613464e+000
6.796918e+002,6.179810e-001
6.806561e+002,-3.980713e-001
6.816203e+002,-1.011108e+000
6.825845e+002,-8.175049e-001
6.835488e+002,-1.387329e-001
6.845130e+002,6.193848e-001
6.854772e+002,1.251343e+000
6.864415e+002,1.851685e+000
6.874057e+002,2.026306e+000
6.883699e+002,1.622864e+000
6.893342e+002,1.143433e+000
6.902984e+002,1.001038e+000
6.912626e+002,1.127869e+000
6.922269e+002,3.611450e-001
6.931911e+002,-2.719482e+000
6.941553e+002,-3.764160e+000
6.951196e+002,-1.304382e+000
6.960838e+002,2.447205e+000
6.970480e+002,4.000732e+000
6.980123e+002,1.757935e+000
6.989765e+002,1.055908e-002
6.999407e+002,1.098572e+000
7.009050e+002,2.808411e+000
7.018692e+002,3.252869e+000
7.028334e+002,1.836243e+000
7.037977e+002,-3.112793e-001
7.047619e+002,-1.341492e+000
7.057261e+002,-1.353210e+000
7.066904e+002,-1.064575e+000
7.076546e+002,-6.027222e-001
7.086188e+002,2.958374e-001
7.095831e+002,2.166809e+000
7.105473e+002,5.676758e+000
7.115115e+002,7.255981e+000
7.124758e+002,6.650940e+000
7.134400e+002,4.667236e+000
7.144042e+002,9.464111e-001
7.153685e+002,-4.210388e+000
7.163327e+002,-7.468079e+000
7.172969e+002,-5.305420e+000
7.182612e+002,-2.530518e+000
7.192254e+002,-1.036926e+000
7.201896e+002,-6.613159e-001
7.211539e+002,-1.994629e-001
7.221181e+002,1.570129e+000
7.230823e+002,3.328674e+000
7.240466e+002,9.880981e-001
7.250108e+002,-4.191833e+000
7.259750e+002,-8.447388e+000
7.269393e+002,-9.954651e+000
7.279035e+002,-9.185913e+000
7.288677e+002,-7.427979e+000
7.298320e+002,-1.645020e+000
7.307962e+002,2.618591e+000
7.317604e+002,3.897949e+000
7.327247e+002,3.990601e+000
7.336889e+002,5.466980e+000
7.346531e+002,9.209229e+000
7.356174e+002,1.129010e+001
7.365816e+002,9.230652e+000
7.375458e+002,6.333069e+000
7.385101e+002,5.224792e+000
7.394743e+002,6.411621e+000
7.404385e+002,8.107056e+000
7.414028e+002,7.210327e+000
7.423670e+002,3.828918e+000
7.433312e+002,1.802551e+000
7.442955e+002,1.903564e+000
7.452597e+002,3.468689e+000
7.462239e+002,5.762878e+000
7.471882e+002,9.039978e+000
7.481524e+002,1.113196e+001
7.491166e+002,1.013849e+001
7.500809e+002,9.387146e+000
7.510451e+002,1.085938e+001
7.520093e+002,1.378748e+001
7.529736e+002,1.520667e+001
7.539378e+002,1.320947e+001
7.549020e+002,1.099634e+001
7.558663e+002,1.084406e+001
7.568306e+002,1.163599e+001
7.577948e+002,1.152179e+001
7.587590e+002,9.357239e+000
7.597233e+002,5.912781e+000
7.606875e+002,4.194824e+000
7.616517e+002,4.246155e+000
7.626160e+002,5.050293e+000
7.635802e+002,6.733032e+000
7.645444e+002,8.827576e+000
7.655087e+002,1.019177e+001
7.664729e+002,1.018494e+001
7.674371e+002,1.060138e+001
7.684014e+002,1.232196e+001
7.693656e+002,1.368951e+001
7.703298e+002,1.336780e+001
7.712941e+002,1.141510e+001
7.722583e+002,9.620239e+000
7.732225e+002,9.276123e+000
7.741868e+002,9.637634e+000
7.751510e+002,1.048206e+001
7.761152e+002,1.153949e+001
7.770795e+002,1.227954e+001
7.780437e+002,1.218311e+001
7.790079e+002,1.128711e+001
7.799722e+002,1.077802e+001
7.809364e+002,1.076758e+001
7.819006e+002,1.027789e+001
7.828649e+002,8.681519e+000
7.838291e+002,6.642151e+000
7.847933e+002,5.936096e+000
7.857576e+002,7.205444e+000
7.867218e+002,7.861389e+000
7.876860e+002,7.844299e+000
7.886503e+002,7.480774e+000
7.896145e+002,6.797058e+000
7.905787e+002,5.876343e+000
7.915430e+002,5.259033e+000
7.925072e+002,5.400757e+000
7.934714e+002,5.715698e+000
7.944357e+002,6.181396e+000
7.953999e+002,6.871338e+000
7.963641e+002,7.536377e+000
7.973284e+002,7.776489e+000
7.982926e+002,7.593872e+000
7.992568e+002,6.814758e+000
8.002211e+002,4.151611e+000
8.011853e+002,1.721008e+000
8.021495e+002,7.945557e-001
8.031138e+002,1.616821e+000
8.040780e+002,3.591980e+000
8.050422e+002,6.507751e+000
8.060065e+002,9.933228e+000
8.069707e+002,1.492719e+001
8.079349e+002,1.920813e+001
8.088992e+002,2.005084e+001
8.098634e+002,1.695801e+001
8.108276e+002,1.312213e+001
8.117919e+002,1.337311e+001
8.127561e+002,1.524628e+001
8.137203e+002,1.443384e+001
8.146846e+002,1.085596e+001
8.156488e+002,7.215271e+000
8.166130e+002,6.652161e+000
8.175773e+002,9.646851e+000
8.185415e+002,1.233801e+001
8.195057e+002,1.442700e+001
8.204700e+002,1.603973e+001
8.214342e+002,1.725647e+001
8.223984e+002,1.803375e+001
8.233627e+002,1.824335e+001
8.243269e+002,1.784253e+001
8.252911e+002,1.706940e+001
8.262554e+002,1.541956e+001
8.272196e+002,1.384857e+001
8.281838e+002,1.370300e+001
8.291481e+002,1.521143e+001
8.301123e+002,1.695343e+001
8.310765e+002,1.624536e+001
8.320408e+002,1.321155e+001
8.330050e+002,1.124805e+001
8.339692e+002,1.073413e+001
8.349335e+002,1.094250e+001
8.358977e+002,1.139954e+001
8.368619e+002,1.235767e+001
8.378262e+002,1.313953e+001
8.387904e+002,1.288104e+001
8.397546e+002,1.287964e+001
8.407189e+002,1.381671e+001
8.416831e+002,1.520929e+001
8.426473e+002,1.600256e+001
8.436116e+002,1.554059e+001
8.445758e+002,1.547272e+001
8.455400e+002,1.797437e+001
8.465043e+002,2.092383e+001
8.474685e+002,2.141010e+001
8.484327e+002,1.942102e+001
8.493970e+002,1.871631e+001
8.503612e+002,2.561237e+001
8.513254e+002,4.220697e+001
8.522897e+002,4.804700e+001
8.532539e+002,3.732831e+001
8.542181e+002,2.451630e+001
8.551824e+002,1.798877e+001
8.561466e+002,1.749878e+001
8.571108e+002,1.799377e+001
8.580751e+002,1.598846e+001
8.590393e+002,1.699609e+001
8.600035e+002,2.725629e+001
8.609678e+002,3.956616e+001
8.619320e+002,4.490399e+001
8.628962e+002,3.996509e+001
8.638605e+002,3.154773e+001
8.648247e+002,3.000201e+001
8.657889e+002,3.264612e+001
8.667532e+002,3.406055e+001
8.677174e+002,3.354559e+001
8.686816e+002,3.237976e+001
8.696459e+002,3.221838e+001
8.706101e+002,3.356848e+001
8.715743e+002,3.340485e+001
8.725386e+002,2.997894e+001
8.735028e+002,2.747223e+001
8.744670e+002,2.692108e+001
8.754313e+002,2.751288e+001
8.763955e+002,2.775037e+001
8.773597e+002,2.696692e+001
8.783240e+002,2.720984e+001
8.792882e+002,3.113916e+001
8.802524e+002,3.558923e+001
8.812167e+002,3.777368e+001
8.821809e+002,3.723462e+001
8.831451e+002,3.533698e+001
8.841094e+002,3.383521e+001
8.850736e+002,3.299701e+001
8.860378e+002,3.273993e+001
8.870021e+002,3.290350e+001
8.879663e+002,3.334045e+001
8.889305e+002,3.386963e+001
8.898948e+002,3.441003e+001
8.908590e+002,3.509735e+001
8.918232e+002,3.643616e+001
8.927875e+002,3.766278e+001
8.937517e+002,3.891071e+001
8.947159e+002,3.982288e+001
8.956802e+002,3.927942e+001
8.966444e+002,3.726709e+001
8.976086e+002,3.584052e+001
8.985729e+002,3.788354e+001
8.995371e+002,4.187372e+001
9.005013e+002,4.509485e+001
9.014656e+002,4.752374e+001
9.024298e+002,4.891510e+001
9.033940e+002,4.875891e+001
9.043583e+002,4.705103e+001
9.053225e+002,4.584741e+001
9.062867e+002,4.553772e+001
9.072510e+002,4.478662e+001
9.082152e+002,4.374152e+001
9.091794e+002,4.286682e+001
9.101437e+002,4.254407e+001
9.111079e+002,4.280353e+001
9.120721e+002,4.317700e+001
9.130364e+002,4.301532e+001
9.140006e+002,4.264203e+001
9.149648e+002,4.231274e+001
9.159291e+002,4.238208e+001
9.168933e+002,4.324512e+001
9.178575e+002,4.500739e+001
9.188218e+002,4.713513e+001
9.197860e+002,4.835229e+001
9.207502e+002,4.855115e+001
9.217145e+002,4.777521e+001
9.226787e+002,4.590472e+001
9.236429e+002,4.394110e+001
9.246072e+002,4.316827e+001
9.255714e+002,4.373688e+001
9.265356e+002,4.333008e+001
9.274999e+002,4.015247e+001
9.284641e+002,3.720795e+001
9.294283e+002,3.544135e+001
9.303926e+002,3.492914e+001
9.313568e+002,3.584491e+001
9.323210e+002,3.838312e+001
9.332853e+002,4.085114e+001
9.342495e+002,4.007513e+001
9.352137e+002,3.738257e+001
9.361780e+002,3.448676e+001
9.371422e+002,3.204944e+001
9.381064e+002,3.062286e+001
9.390707e+002,3.069452e+001
9.400349e+002,3.209344e+001
9.409991e+002,3.385938e+001
9.419634e+002,3.640649e+001
9.429276e+002,3.857330e+001
9.438918e+002,4.044348e+001
9.448561e+002,4.175604e+001
9.458203e+002,4.177039e+001
9.467845e+002,4.002057e+001
9.477488e+002,3.886273e+001
9.487130e+002,4.065686e+001
9.496772e+002,4.319861e+001
9.506415e+002,4.504590e+001
9.516057e+002,4.592743e+001
9.525699e+002,4.606750e+001
9.535342e+002,4.564484e+001
9.544984e+002,4.455518e+001
9.554626e+002,4.277673e+001
9.564269e+002,4.032422e+001
9.573911e+002,3.927728e+001
9.583553e+002,4.027515e+001
9.593196e+002,4.276129e+001
9.602838e+002,4.657825e+001
9.612480e+002,5.257880e+001
9.622123e+002,5.564722e+001
9.631765e+002,5.234521e+001
9.641407e+002,4.810345e+001
9.651050e+002,4.450635e+001
9.660692e+002,4.186969e+001
9.670334e+002,4.038367e+001
9.679977e+002,4.038104e+001
9.689619e+002,4.139539e+001
9.699261e+002,4.171863e+001
9.708904e+002,4.142609e+001
9.718546e+002,4.168182e+001
9.728188e+002,4.273450e+001
9.737831e+002,4.377527e+001
9.747473e+002,4.343671e+001
9.757115e+002,4.115295e+001
9.766758e+002,4.128705e+001
9.776400e+002,4.769727e+001
9.786042e+002,5.236548e+001
9.795685e+002,5.206207e+001
9.805327e+002,4.904175e+001
9.814969e+002,4.691980e+001
9.824612e+002,4.711542e+001
9.834254e+002,4.723889e+001
9.843896e+002,4.339508e+001
9.853539e+002,3.854980e+001
9.863181e+002,3.567792e+001
9.872823e+002,3.488336e+001
9.882466e+002,3.577301e+001
9.892108e+002,3.837189e+001
9.901750e+002,4.294843e+001
9.911393e+002,4.801703e+001
9.921035e+002,5.417279e+001
9.930677e+002,5.773517e+001
9.940320e+002,5.644037e+001
9.949962e+002,5.478351e+001
9.959604e+002,5.744958e+001
9.969247e+002,6.463098e+001
9.978889e+002,7.120599e+001
9.988531e+002,7.388220e+001
9.998174e+002,7.533173e+001
1.000782e+003,7.754620e+001
1.001746e+003,8.018890e+001
1.002710e+003,8.241315e+001
1.003674e+003,8.382739e+001
1.004639e+003,8.480664e+001
1.005603e+003,8.602081e+001
1.006567e+003,8.737970e+001
1.007531e+003,8.887720e+001
1.008495e+003,9.091290e+001
1.009460e+003,9.245685e+001
1.010424e+003,9.284210e+001
1.011388e+003,9.236365e+001
1.012352e+003,9.198798e+001
1.013317e+003,9.225739e+001
1.014281e+003,9.116345e+001
1.015245e+003,8.778925e+001
1.016209e+003,8.315985e+001
1.017174e+003,7.715869e+001
1.018138e+003,7.066479e+001
1.019102e+003,6.585254e+001
1.020066e+003,6.485266e+001
1.021031e+003,6.606055e+001
1.021995e+003,6.424609e+001
1.022959e+003,5.963177e+001
1.023923e+003,5.377814e+001
1.024887e+003,4.655792e+001
1.025852e+003,3.926990e+001
1.026816e+003,3.416101e+001
1.027780e+003,3.184344e+001
1.028744e+003,3.013470e+001
1.029709e+003,2.904987e+001
1.030673e+003,2.818689e+001
1.031637e+003,2.715436e+001
1.032601e+003,2.618579e+001
1.033566e+003,2.589227e+001
1.034530e+003,2.655695e+001
1.035494e+003,2.745276e+001
1.036458e+003,2.736133e+001
1.037422e+003,2.699469e+001
1.038387e+003,2.803119e+001
1.039351e+003,3.022522e+001
1.040315e+003,3.167645e+001
1.041279e+003,3.089301e+001
1.042244e+003,2.871075e+001
1.043208e+003,2.877551e+001
1.044172e+003,3.376587e+001
1.045136e+003,3.556683e+001
1.046101e+003,3.165472e+001
1.047065e+003,2.740741e+001
1.048029e+003,2.642877e+001
1.048993e+003,2.810376e+001
1.049958e+003,2.927142e+001
1.050922e+003,2.839703e+001
1.051886e+003,2.738873e+001
1.052850e+003,2.839618e+001
1.053814e+003,3.023285e+001
1.054779e+003,3.159375e+001
1.055743e+003,3.203406e+001
1.056707e+003,3.134601e+001
1.057671e+003,2.912952e+001
1.058636e+003,2.529932e+001
1.059600e+003,2.437573e+001
1.060564e+003,3.020850e+001
1.061528e+003,3.406476e+001
1.062493e+003,3.306348e+001
1.063457e+003,3.003906e+001
1.064421e+003,2.834534e+001
1.065385e+003,2.848657e+001
1.066349e+003,2.842273e+001
1.067314e+003,2.693982e+001
1.068278e+003,2.517303e+001
1.069242e+003,2.291687e+001
1.070206e+003,2.142255e+001
1.071171e+003,2.328693e+001
1.072135e+003,2.898010e+001
1.073099e+003,3.510675e+001
1.074063e+003,3.606244e+001
1.075028e+003,3.134753e+001
1.075992e+003,2.892572e+001
1.076956e+003,2.928656e+001
1.077920e+003,3.003540e+001
1.078885e+003,3.111938e+001
1.079849e+003,3.219958e+001
1.080813e+003,3.235712e+001
1.081777e+003,3.140680e+001
1.082741e+003,3.021600e+001
1.083706e+003,2.725287e+001
1.084670e+003,2.523499e+001
1.085634e+003,2.722583e+001
1.086598e+003,3.114081e+001
1.087563e+003,3.266858e+001
1.088527e+003,2.972803e+001
1.089491e+003,2.508325e+001
1.090455e+003,2.373889e+001
1.091420e+003,2.588226e+001
1.092384e+003,2.717133e+001
1.093348e+003,2.716583e+001
1.094312e+003,2.665723e+001
1.095276e+003,2.614423e+001
1.096241e+003,2.587732e+001
1.097205e+003,2.611420e+001
1.098169e+003,2.689569e+001
1.099133e+003,2.736957e+001
1.100098e+003,2.670990e+001
1.101062e+003,2.642517e+001
1.102026e+003,2.795123e+001
1.102990e+003,3.066345e+001
1.103955e+003,3.302441e+001
1.104919e+003,3.402197e+001
1.105883e+003,3.365186e+001
1.106847e+003,3.154504e+001
1.107812e+003,2.772821e+001
1.108776e+003,2.708594e+001
1.109740e+003,3.127850e+001
1.110704e+003,3.564172e+001
1.111668e+003,3.656519e+001
1.112633e+003,3.518750e+001
1.113597e+003,3.577765e+001
1.114561e+003,3.959973e+001
1.115525e+003,4.263733e+001
1.116490e+003,4.385333e+001
1.117454e+003,4.376788e+001
1.118418e+003,4.159546e+001
1.119382e+003,3.887158e+001
1.120347e+003,3.875055e+001
1.121311e+003,4.288080e+001
1.122275e+003,4.831262e+001
1.123239e+003,4.969153e+001
1.124203e+003,4.777283e+001
1.125168e+003,4.723444e+001
1.126132e+003,4.861072e+001
1.127096e+003,5.113281e+001
1.128060e+003,5.465857e+001
1.129025e+003,5.870074e+001
1.129989e+003,6.124323e+001
1.130953e+003,6.096246e+001
1.131917e+003,6.157611e+001
1.132882e+003,6.601263e+001
1.133846e+003,6.997180e+001
1.134810e+003,6.952161e+001
1.135774e+003,6.656250e+001
1.136739e+003,6.575922e+001
1.137703e+003,6.970673e+001
1.138667e+003,7.657001e+001
1.139631e+003,8.370074e+001
1.140595e+003,9.093927e+001
1.141560e+003,9.761542e+001
1.142524e+003,1.033266e+002
1.143488e+003,1.107997e+002
1.144452e+003,1.222532e+002
1.145417e+003,1.368348e+002
1.146381e+003,1.513619e+002
1.147345e+003,1.652517e+002
1.148309e+003,1.801758e+002
1.149274e+003,1.974880e+002
1.150238e+003,2.152529e+002
1.151202e+003,2.333768e+002
1.152166e+003,2.513644e+002
1.153130e+003,2.694516e+002
1.154095e+003,2.870385e+002
1.155059e+003,3.000889e+002
1.156023e+003,3.027242e+002
1.156987e+003,2.958646e+002
1.157952e+003,2.889549e+002
1.158916e+003,2.828960e+002
1.159880e+003,2.757678e+002
1.160844e+003,2.658521e+002
1.161809e+003,2.531584e+002
1.162773e+003,2.386722e+002
1.163737e+003,2.222680e+002
1.164701e+003,2.048524e+002
1.165666e+003,1.836500e+002
1.166630e+003,1.651882e+002
1.167594e+003,1.521487e+002
1.168558e+003,1.431559e+002
1.169522e+003,1.364188e+002
1.170487e+003,1.312364e+002
1.171451e+003,1.281765e+002
1.172415e+003,1.280762e+002
1.173379e+003,1.301729e+002
1.174344e+003,1.312977e+002
1.175308e+003,1.317956e+002
1.176272e+003,1.303558e+002
1.177236e+003,1.253210e+002
1.178201e+003,1.193209e+002
1.179165e+003,1.158570e+002
1.180129e+003,1.147054e+002
1.181093e+003,1.120163e+002
1.182057e+003,1.058451e+002
1.183022e+003,1.001428e+002
1.183986e+003,9.571179e+001
1.184950e+003,9.286157e+001
1.185914e+003,9.214056e+001
1.186879e+003,9.344519e+001
1.187843e+003,9.644550e+001
1.188807e+003,1.008506e+002
1.189771e+003,1.054326e+002
1.190736e+003,1.065711e+002
1.191700e+003,1.038026e+002
1.192664e+003,1.018471e+002
1.193628e+003,1.022101e+002
1.194593e+003,1.024455e+002
1.195557e+003,1.005414e+002
1.196521e+003,9.696722e+001
1.197485e+003,9.333594e+001
1.198449e+003,8.955408e+001
1.199414e+003,8.700806e+001
1.200378e+003,8.827753e+001
1.201342e+003,8.926605e+001
1.202306e+003,8.667200e+001
1.203271e+003,8.159631e+001
1.204235e+003,7.687201e+001
1.205199e+003,7.399457e+001
1.206163e+003,7.222357e+001
1.207128e+003,7.034937e+001
1.208092e+003,6.844012e+001
1.209056e+003,6.491602e+001
1.210020e+003,5.903210e+001
1.210984e+003,5.341144e+001
1.211949e+003,4.832916e+001
1.212913e+003,4.403363e+001
1.213877e+003,4.167468e+001
1.214841e+003,4.126068e+001
1.215806e+003,3.917609e+001
1.216770e+003,3.229401e+001
1.217734e+003,2.602863e+001
1.218698e+003,2.430975e+001
1.219663e+003,2.479333e+001
1.220627e+003,2.495148e+001
1.221591e+003,2.416571e+001
1.222555e+003,2.303699e+001
1.223520e+003,2.218652e+001
1.224484e+003,2.153076e+001
1.225448e+003,1.999921e+001
1.226412e+003,1.637451e+001
1.227376e+003,1.459387e+001
1.228341e+003,1.595471e+001
1.229305e+003,1.740570e+001
1.230269e+003,1.742059e+001
1.231233e+003,1.628326e+001
1.232198e+003,1.418158e+001
1.233162e+003,1.113605e+001
1.234126e+003,1.035565e+001
1.235090e+003,1.619891e+001
1.236055e+003,2.306781e+001
1.237019e+003,2.498956e+001
1.237983e+003,2.289795e+001
1.238947e+003,1.944647e+001
1.239911e+003,1.595184e+001
1.240876e+003,1.354852e+001
1.241840e+003,1.401068e+001
1.242804e+003,1.757111e+001
1.243768e+003,1.997998e+001
1.244733e+003,1.947229e+001
1.245697e+003,2.019611e+001
1.246661e+003,2.406555e+001
1.247625e+003,2.723950e+001
1.248590e+003,2.586877e+001
1.249554e+003,2.164465e+001
1.250518e+003,2.004108e+001
1.251482e+003,2.355060e+001
1.252447e+003,2.787878e+001
1.253411e+003,2.791620e+001
1.254375e+003,2.554266e+001
1.255339e+003,2.407635e+001
1.256303e+003,2.388019e+001
1.257268e+003,2.558118e+001
1.258232e+003,3.002454e+001
1.259196e+003,3.514233e+001
1.260160e+003,3.662323e+001
1.261125e+003,3.375775e+001
1.262089e+003,3.344183e+001
1.263053e+003,3.850153e+001
1.264017e+003,4.296124e+001
1.264982e+003,4.657770e+001
1.265946e+003,4.839276e+001
1.266910e+003,4.653778e+001
1.267874e+003,4.197064e+001
1.268839e+003,3.794135e+001
1.269803e+003,3.662244e+001
1.270767e+003,3.716956e+001
1.271731e+003,3.846564e+001
1.272695e+003,4.051532e+001
1.273660e+003,4.084930e+001
1.274624e+003,3.861780e+001
1.275588e+003,3.542395e+001
1.276552e+003,3.189130e+001
1.277517e+003,2.859869e+001
1.278481e+003,2.636768e+001
1.279445e+003,2.521252e+001
1.280409e+003,2.403662e+001
1.281374e+003,2.229980e+001
1.282338e+003,2.087512e+001
1.283302e+003,1.933710e+001
1.284266e+003,1.874872e+001
1.285230e+003,2.159576e+001
1.286195e+003,2.701318e+001
1.287159e+003,3.057568e+001
1.288123e+003,2.874768e+001
1.289087e+003,2.354346e+001
1.290052e+003,2.054681e+001
1.291016e+003,2.033051e+001
1.291980e+003,1.946338e+001
1.292944e+003,1.623889e+001
1.293909e+003,1.405420e+001
1.294873e+003,1.560022e+001
1.295837e+003,1.863977e+001
1.296801e+003,1.999921e+001
1.297766e+003,1.927325e+001
1.298730e+003,1.779846e+001
1.299694e+003,1.572699e+001
1.300658e+003,1.368518e+001
1.301622e+003,1.201154e+001
1.302587e+003,1.118945e+001
1.303551e+003,1.255212e+001
1.304515e+003,1.616516e+001
1.305479e+003,1.951898e+001
1.306444e+003,2.031543e+001
1.307408e+003,1.927765e+001
1.308372e+003,1.932654e+001
1.309336e+003,2.090594e+001
1.310301e+003,2.213098e+001
1.311265e+003,2.445044e+001
1.312229e+003,2.485535e+001
1.313193e+003,1.988757e+001
1.314157e+003,1.412250e+001
1.315122e+003,1.323730e+001
1.316086e+003,1.684875e+001
1.317050e+003,1.941565e+001
1.318014e+003,1.734845e+001
1.318979e+003,1.338226e+001
1.319943e+003,1.213800e+001
1.320907e+003,1.350220e+001
1.321871e+003,1.444867e+001
1.322836e+003,1.395740e+001
1.323800e+003,1.486493e+001
1.324764e+003,2.083337e+001
1.325728e+003,2.815863e+001
1.326693e+003,2.968488e+001
1.327657e+003,2.495282e+001
1.328621e+003,2.082397e+001
1.329585e+003,1.990991e+001
1.330549e+003,2.021423e+001
1.331514e+003,1.956812e+001
1.332478e+003,1.897375e+001
1.333442e+003,2.021356e+001
1.334406e+003,2.290228e+001
1.335371e+003,2.505518e+001
1.336335e+003,2.544800e+001
1.337299e+003,2.459027e+001
1.338263e+003,2.327814e+001
1.339228e+003,2.142737e+001
1.340192e+003,2.002563e+001
1.341156e+003,1.869556e+001
1.342120e+003,1.828253e+001
1.343084e+003,1.985986e+001
1.344049e+003,2.101422e+001
1.345013e+003,1.914288e+001
1.345977e+003,1.556543e+001
1.346941e+003,1.421582e+001
1.347906e+003,1.655457e+001
1.348870e+003,2.005707e+001
1.349834e+003,2.307544e+001
1.350798e+003,2.490686e+001
1.351763e+003,2.435144e+001
1.352727e+003,2.191235e+001
1.353691e+003,2.005188e+001
1.354655e+003,1.971924e+001
1.355620e+003,2.016479e+001
1.356584e+003,2.106201e+001
1.357548e+003,2.230103e+001
1.358512e+003,2.158667e+001
1.359476e+003,1.708167e+001
1.360441e+003,1.417950e+001
1.361405e+003,1.589917e+001
1.362369e+003,1.802423e+001
1.363333e+003,1.842993e+001
1.364298e+003,1.800806e+001
1.365262e+003,1.854401e+001
1.366226e+003,2.021179e+001
1.367190e+003,2.128900e+001
1.368155e+003,2.021631e+001
1.369119e+003,1.774493e+001
1.370083e+003,1.632623e+001
1.371047e+003,1.645673e+001
1.372011e+003,1.626019e+001
1.372976e+003,1.458362e+001
1.373940e+003,1.344446e+001
1.374904e+003,1.421136e+001
1.375868e+003,1.577673e+001
1.376833e+003,1.658459e+001
1.377797e+003,1.651703e+001
1.378761e+003,1.646808e+001
1.379725e+003,1.680048e+001
1.380690e+003,1.759265e+001
1.381654e+003,1.981696e+001
1.382618e+003,2.222858e+001
1.383582e+003,2.249707e+001
1.384547e+003,2.087036e+001
1.385511e+003,2.007343e+001
1.386475e+003,2.153137e+001
1.387439e+003,2.372186e+001
1.388403e+003,2.462024e+001
1.389368e+003,2.419379e+001
1.390332e+003,2.239362e+001
1.391296e+003,1.780884e+001
1.392260e+003,1.518018e+001
1.393225e+003,1.662006e+001
1.394189e+003,1.876416e+001
1.395153e+003,2.007727e+001
1.396117e+003,2.069305e+001
1.397082e+003,2.116516e+001
1.398046e+003,2.170917e+001
1.399010e+003,2.190143e+001
1.399974e+003,2.110242e+001
1.400938e+003,1.988483e+001
1.401903e+003,2.125201e+001
1.402867e+003,2.708484e+001
1.403831e+003,3.092969e+001
1.404795e+003,3.187982e+001
1.405760e+003,3.143085e+001
1.406724e+003,2.831769e+001
1.407688e+003,2.425677e+001
1.408652e+003,2.236163e+001
1.409617e+003,2.257098e+001
1.410581e+003,2.117206e+001
1.411545e+003,1.618890e+001
1.412509e+003,1.198688e+001
1.413474e+003,1.336346e+001
1.414438e+003,1.743610e+001
1.415402e+003,2.044330e+001
1.416366e+003,2.249005e+001
1.417330e+003,2.333337e+001
1.418295e+003,2.256268e+001
1.419259e+003,2.175983e+001
1.420223e+003,2.329797e+001
1.421187e+003,2.632422e+001
1.422152e+003,2.598883e+001
1.423116e+003,2.064563e+001
1.424080e+003,1.826666e+001
1.425044e+003,2.433820e+001
1.426009e+003,2.961542e+001
1.426973e+003,3.009515e+001
1.427937e+003,2.773578e+001
1.428901e+003,2.388232e+001
1.429865e+003,1.999213e+001
1.430830e+003,1.879700e+001
1.431794e+003,2.188123e+001
1.432758e+003,2.689777e+001
1.433722e+003,2.957379e+001
1.434687e+003,3.017108e+001
1.435651e+003,3.128101e+001
1.436615e+003,3.252368e+001
1.437579e+003,3.271204e+001
1.438544e+003,3.109607e+001
1.439508e+003,2.933997e+001
1.440472e+003,2.865155e+001
1.441436e+003,2.899561e+001
1.442401e+003,3.011554e+001
1.443365e+003,3.170673e+001
1.444329e+003,3.274866e+001
1.445293e+003,3.241772e+001
1.446257e+003,3.173285e+001
1.447222e+003,3.327527e+001
1.448186e+003,3.617133e+001
1.449150e+003,3.510809e+001
1.450114e+003,2.836865e+001
1.451079e+003,2.241248e+001
1.452043e+003,2.090778e+001
1.453007e+003,2.216217e+001
1.453971e+003,2.424701e+001
1.454936e+003,2.681238e+001
1.455900e+003,2.855597e+001
1.456864e+003,2.913947e+001
1.457828e+003,2.973480e+001
1.458792e+003,3.105084e+001
1.459757e+003,3.220239e+001
1.460721e+003,3.252734e+001
1.461685e+003,3.212671e+001
1.462649e+003,3.142352e+001
1.463614e+003,3.062500e+001
1.464578e+003,2.926208e+001
1.465542e+003,2.651831e+001
1.466506e+003,2.325867e+001
1.467471e+003,2.277472e+001
1.468435e+003,2.623962e+001
1.469399e+003,2.835803e+001
1.470363e+003,2.678650e+001
1.471328e+003,2.604474e+001
1.472292e+003,2.800946e+001
1.473256e+003,2.966620e+001
1.474220e+003,2.836926e+001
1.475184e+003,2.590942e+001
1.476149e+003,2.572333e+001
1.477113e+003,2.857874e+001
1.478077e+003,3.232300e+001
1.479041e+003,3.514429e+001
1.480006e+003,3.740259e+001
1.480970e+003,3.961853e+001
1.481934e+003,4.185651e+001
1.482898e+003,4.210950e+001
1.483863e+003,3.833038e+001
1.484827e+003,3.553156e+001
1.485791e+003,3.542554e+001
1.486755e+003,3.702673e+001
1.487719e+003,4.017926e+001
1.488684e+003,4.377228e+001
1.489648e+003,4.514362e+001
1.490612e+003,4.372614e+001
1.491576e+003,4.347357e+001
1.492541e+003,4.795673e+001
1.493505e+003,5.467480e+001
1.494469e+003,5.787457e+001
1.495433e+003,5.792426e+001
1.496398e+003,5.917725e+001
1.497362e+003,6.276074e+001
1.498326e+003,6.726111e+001
1.499290e+003,7.237592e+001
1.500255e+003,7.757434e+001
1.501219e+003,8.116034e+001
1.502183e+003,8.371832e+001
1.503147e+003,8.960095e+001
1.504111e+003,1.004048e+002
1.505076e+003,1.110723e+002
1.506040e+003,1.172261e+002
1.507004e+003,1.237362e+002
1.507968e+003,1.350930e+002
1.508933e+003,1.503962e+002
1.509897e+003,1.682368e+002
1.510861e+003,1.886786e+002
1.511825e+003,2.107531e+002
1.512790e+003,2.334948e+002
1.513754e+003,2.569490e+002
1.514718e+003,2.826693e+002
1.515682e+003,3.102932e+002
1.516646e+003,3.337235e+002
1.517611e+003,3.516764e+002
1.518575e+003,3.683550e+002
1.519539e+003,3.858131e+002
1.520503e+003,4.022383e+002
1.521468e+003,4.189650e+002
1.522432e+003,4.325175e+002
1.523396e+003,4.380779e+002
1.524360e+003,4.353784e+002
1.525325e+003,4.278464e+002
1.526289e+003,4.178548e+002
1.527253e+003,4.052878e+002
1.528217e+003,3.897776e+002
1.529182e+003,3.716104e+002
1.530146e+003,3.497677e+002
1.531110e+003,3.221572e+002
1.532074e+003,2.939518e+002
1.533039e+003,2.654154e+002
1.534003e+003,2.351886e+002
1.534967e+003,2.002988e+002
1.535931e+003,1.663668e+002
1.536896e+003,1.393527e+002
1.537860e+003,1.195345e+002
1.538824e+003,1.038412e+002
1.539788e+003,9.043500e+001
1.540752e+003,7.959485e+001
1.541717e+003,7.204639e+001
1.542681e+003,6.748114e+001
1.543645e+003,6.269989e+001
1.544609e+003,5.774658e+001
1.545573e+003,5.341040e+001
1.546538e+003,4.890729e+001
1.547502e+003,4.508698e+001
1.548466e+003,4.316858e+001
1.549430e+003,4.215802e+001
1.550395e+003,4.041425e+001
1.551359e+003,3.827441e+001
1.552323e+003,3.789258e+001
1.553287e+003,3.989233e+001
1.554252e+003,4.148932e+001
1.555216e+003,4.015253e+001
1.556180e+003,3.686151e+001
1.557144e+003,3.375653e+001
1.558109e+003,3.098029e+001
1.559073e+003,2.833984e+001
1.560037e+003,2.456226e+001
1.561001e+003,2.260162e+001
1.561966e+003,2.610779e+001
1.562930e+003,3.019293e+001
1.563894e+003,2.937000e+001
1.564858e+003,2.534930e+001
1.565823e+003,2.253644e+001
1.566787e+003,2.185785e+001
1.567751e+003,2.334619e+001
1.568715e+003,2.771655e+001
1.569679e+003,3.264026e+001
1.570644e+003,3.524780e+001
1.571608e+003,3.565997e+001
1.572572e+003,3.478662e+001
1.573536e+003,3.281598e+001
1.574500e+003,3.132050e+001
1.575465e+003,3.091895e+001
1.576429e+003,3.071307e+001
1.577393e+003,2.995123e+001
1.578357e+003,2.870013e+001
1.579322e+003,2.688110e+001
1.580286e+003,2.476526e+001
1.581250e+003,2.439789e+001
1.582214e+003,2.677747e+001
1.583179e+003,2.960919e+001
1.584143e+003,3.183063e+001
1.585107e+003,3.264697e+001
1.586071e+003,3.032928e+001
1.587036e+003,2.658081e+001
1.588000e+003,2.611255e+001
1.588964e+003,2.989972e+001
1.589928e+003,3.356018e+001
1.590893e+003,3.409467e+001
1.591857e+003,3.310089e+001
1.592821e+003,3.315582e+001
1.593785e+003,3.397321e+001
1.594750e+003,3.306268e+001
1.595714e+003,2.946558e+001
1.596678e+003,2.749237e+001
1.597642e+003,2.943286e+001
1.598606e+003,3.280457e+001
1.599571e+003,3.708429e+001
1.600535e+003,4.086005e+001
1.601499e+003,4.136237e+001
1.602463e+003,3.911432e+001
1.603427e+003,3.801050e+001
1.604392e+003,3.980719e+001
1.605356e+003,4.189081e+001
1.606320e+003,4.141626e+001
1.607284e+003,3.927936e+001
1.608249e+003,3.825317e+001
1.609213e+003,3.842047e+001
1.610177e+003,3.696234e+001
1.611141e+003,3.249951e+001
1.612106e+003,2.871375e+001
1.613070e+003,2.831873e+001
1.614034e+003,2.833038e+001
1.614998e+003,2.618933e+001
1.615963e+003,2.316467e+001
1.616927e+003,2.100671e+001
1.617891e+003,2.018964e+001
1.618855e+003,2.170831e+001
1.619820e+003,2.650250e+001
1.620784e+003,3.115149e+001
1.621748e+003,3.049335e+001
1.622712e+003,2.598572e+001
1.623677e+003,2.412250e+001
1.624641e+003,2.526416e+001
1.625605e+003,2.758154e+001
1.626569e+003,3.129132e+001
1.627533e+003,3.354095e+001
1.628498e+003,3.283881e+001
1.629462e+003,3.102124e+001
1.630426e+003,2.905658e+001
1.631390e+003,2.720734e+001
1.632354e+003,2.556049e+001
1.633319e+003,2.422034e+001
1.634283e+003,2.411456e+001
1.635247e+003,2.619745e+001
1.636211e+003,2.886963e+001
1.637176e+003,2.928394e+001
1.638140e+003,2.772284e+001
1.639104e+003,2.625201e+001
1.640068e+003,2.443262e+001
1.641033e+003,2.416693e+001
1.641997e+003,2.827869e+001
1.642961e+003,3.096790e+001
1.643925e+003,2.753210e+001
1.644890e+003,2.285168e+001
1.645854e+003,2.162292e+001
1.646818e+003,2.326825e+001
1.647782e+003,2.532678e+001
1.648747e+003,2.694446e+001
1.649711e+003,2.854138e+001
1.650675e+003,3.083478e+001
1.651639e+003,3.316675e+001
1.652604e+003,3.380518e+001
1.653568e+003,3.261548e+001
1.654532e+003,3.002618e+001
1.655496e+003,2.528711e+001
1.656460e+003,2.194159e+001
1.657425e+003,2.138287e+001
1.658389e+003,2.224286e+001
1.659353e+003,2.563055e+001
1.660317e+003,2.851703e+001
1.661281e+003,2.667212e+001
1.662246e+003,2.139075e+001
1.663210e+003,1.714539e+001
1.664174e+003,1.555731e+001
1.665138e+003,1.589410e+001
1.666103e+003,1.795282e+001
1.667067e+003,2.042926e+001
1.668031e+003,2.039648e+001
1.668995e+003,1.819067e+001
1.669960e+003,1.816107e+001
1.670924e+003,2.150012e+001
1.671888e+003,2.357300e+001
1.672852e+003,2.239673e+001
1.673817e+003,2.005902e+001
1.674781e+003,1.696338e+001
1.675745e+003,1.411310e+001
1.676709e+003,1.250958e+001
1.677674e+003,1.213647e+001
1.678638e+003,1.312476e+001
1.679602e+003,1.548535e+001
1.680566e+003,1.678577e+001
1.681531e+003,1.467047e+001
1.682495e+003,1.141595e+001
1.683459e+003,1.053473e+001
1.684423e+003,1.160797e+001
1.685387e+003,1.341132e+001
1.686352e+003,1.618665e+001
1.687316e+003,1.759937e+001
1.688280e+003,1.634241e+001
1.689244e+003,1.460205e+001
1.690208e+003,1.371094e+001
1.691173e+003,1.322253e+001
1.692137e+003,1.311310e+001
1.693101e+003,1.331311e+001
1.694065e+003,1.266663e+001
1.695030e+003,1.056458e+001
1.695994e+003,9.347595e+000
1.696958e+003,1.135211e+001
1.697922e+003,1.420404e+001
1.698887e+003,1.489203e+001
1.699851e+003,1.408746e+001
1.700815e+003,1.352887e+001
1.701779e+003,1.323108e+001
1.702744e+003,1.272125e+001
1.703708e+003,1.210291e+001
1.704672e+003,1.156891e+001
1.705636e+003,1.050189e+001
1.706601e+003,9.549561e+000
1.707565e+003,1.078223e+001
1.708529e+003,1.351282e+001
1.709493e+003,1.495813e+001
1.710458e+003,1.474725e+001
1.711422e+003,1.331274e+001
1.712386e+003,9.833130e+000
1.713350e+003,6.855957e+000
1.714314e+003,6.590881e+000
1.715279e+003,7.501587e+000
1.716243e+003,6.942810e+000
1.717207e+003,5.269958e+000
1.718171e+003,5.625916e+000
1.719135e+003,8.937439e+000
1.720100e+003,1.048505e+001
1.721064e+003,6.390930e+000
1.722028e+003,6.762085e-001
1.722992e+003,-5.679321e-001
1.723957e+003,2.194214e+000
1.724921e+003,4.723572e+000
1.725885e+003,6.810364e+000
1.726849e+003,7.047546e+000
1.727814e+003,3.485229e+000
1.728778e+003,1.457825e+000
1.729742e+003,4.649597e+000
1.730706e+003,8.927490e+000
1.731671e+003,1.012769e+001
1.732635e+003,8.715881e+000
1.733599e+003,6.747742e+000
1.734563e+003,5.063110e+000
1.735528e+003,3.701111e+000
1.736492e+003,2.540100e+000
1.737456e+003,1.534119e+000
1.738420e+003,5.621338e-001
1.739385e+003,-3.085938e-001
1.740349e+003,1.443481e-001
1.741313e+003,2.643188e+000
1.742277e+003,3.880127e+000
1.743241e+003,3.245605e+000
1.744206e+003,2.879822e+000
1.745170e+003,3.399841e+000
1.746134e+003,3.524902e+000
1.747098e+003,1.902100e+000
1.748063e+003,-6.610107e-002
1.749027e+003,-7.222290e-001
1.749991e+003,-1.235352e-001
1.750955e+003,1.157410e+000
1.751919e+003,2.588074e+000
1.752884e+003,2.974854e+000
1.753848e+003,1.303223e+000
1.754812e+003,-1.417358e+000
1.755776e+003,-2.946655e+000
1.756741e+003,-3.072937e+000
1.757705e+003,-3.219421e+000
1.758669e+003,-4.016479e+000
1.759633e+003,-3.643066e+000
1.760598e+003,-8.519287e-001
1.761562e+003,1.136719e+000
1.762526e+003,1.199951e+000
1.763490e+003,8.685303e-001
1.764455e+003,1.681702e+000
1.765419e+003,2.682007e+000
1.766383e+003,1.518982e+000
1.767347e+003,-1.577820e+000
1.768312e+003,-3.548279e+000
1.769276e+003,-3.019958e+000
1.770240e+003,-1.676147e+000
1.771204e+003,-6.818237e-001
1.772168e+003,1.845703e-001
1.773133e+003,9.501953e-001
1.774097e+003,1.536072e+000
1.775061e+003,9.019165e-001
1.776025e+003,-1.663574e+000
1.776990e+003,-3.034424e+000
1.777954e+003,-1.448792e+000
1.778918e+003,9.282227e-001
1.779882e+003,2.544922e+000
1.780846e+003,3.542542e+000
1.781811e+003,4.729675e+000
1.782775e+003,5.836670e+000
1.783739e+003,5.504395e+000
1.784703e+003,3.507690e+000
1.785668e+003,1.670471e+000
1.786632e+003,2.041016e-001
1.787596e+003,-8.703003e-001
1.788560e+003,-9.362183e-001
1.789525e+003,-2.651978e-001
1.790489e+003,4.022827e-001
1.791453e+003,9.500732e-001
1.792417e+003,1.797607e+000
1.793382e+003,2.962524e+000
1.794346e+003,3.545715e+000
1.795310e+003,2.999573e+000
1.796274e+003,2.065979e+000
1.797239e+003,1.817017e+000
1.798203e+003,2.224182e+000
1.799167e+003,2.068237e+000
1.800131e+003,6.567383e-001
1.801095e+003,-8.301392e-001
1.802060e+003,-2.694458e+000
1.803024e+003,-3.017273e+000
1.803988e+003,-4.649658e-001
1.804952e+003,1.833618e+000
1.805917e+003,2.313477e+000
1.806881e+003,1.885437e+000
1.807845e+003,1.551819e+000
1.808809e+003,1.332703e+000
1.809773e+003,6.354370e-001
1.810738e+003,-4.881592e-001
1.811702e+003,-1.157104e+000
1.812666e+003,-8.449707e-001
1.813630e+003,3.070679e-001
1.814595e+003,2.373352e+000
1.815559e+003,4.704651e+000
1.816523e+003,4.668335e+000
1.817487e+003,2.066589e+000
1.818452e+003,1.442871e-001
1.819416e+003,-6.003418e-001
1.820380e+003,-8.281250e-001
1.821344e+003,-5.127563e-001
1.822309e+003,-6.079712e-001
1.823273e+003,-2.300110e+000
1.824237e+003,-3.755920e+000
1.825201e+003,-2.757324e+000
1.826166e+003,-2.890015e-001
1.827130e+003,8.379517e-001
1.828094e+003,8.856201e-002
1.829058e+003,3.063965e-002
1.830022e+003,2.824097e+000
1.830987e+003,5.114441e+000
1.831951e+003,3.527588e+000
1.832915e+003,1.996460e-001
1.833879e+003,-2.506592e+000
1.834844e+003,-4.157471e+000
1.835808e+003,-3.434509e+000
1.836772e+003,-4.485474e-001
1.837736e+003,2.014038e+000
1.838700e+003,2.623230e+000
1.839665e+003,1.780640e+000
1.840629e+003,-2.209473e-001
1.841593e+003,-2.782166e+000
1.842557e+003,-5.073914e+000
1.843522e+003,-7.086304e+000
1.844486e+003,-6.952820e+000
1.845450e+003,-1.882019e+000
1.846414e+003,6.211548e-001
1.847379e+003,-1.710999e+000
1.848343e+003,-4.436829e+000
1.849307e+003,-7.276611e+000
1.850271e+003,-8.699280e+000
1.851236e+003,-6.569336e+000
1.852200e+003,-2.804626e+000
1.853164e+003,2.211914e-001
1.854128e+003,1.632141e+000
1.855093e+003,8.566895e-001
1.856057e+003,-1.765686e+000
1.857021e+003,-3.822998e+000
1.857985e+003,-3.309631e+000
1.858949e+003,-2.045166e+000
1.859914e+003,-3.669312e+000
1.860878e+003,-7.278198e+000
1.861842e+003,-8.130981e+000
1.862806e+003,-6.258179e+000
1.863771e+003,-2.908142e+000
1.864735e+003,2.482910e+000
1.865699e+003,5.015015e+000
1.866663e+003,1.194885e+000
1.867627e+003,-2.948303e+000
1.868592e+003,-1.705566e+000
1.869556e+003,1.938782e+000
1.870520e+003,2.732117e+000
1.871484e+003,1.075378e+000
1.872449e+003,-9.057617e-002
1.873413e+003,5.124512e-001
1.874377e+003,1.024231e+000
1.875341e+003,-3.372192e-001
1.876306e+003,-1.725037e+000
1.877270e+003,-2.366089e+000
1.878234e+003,-2.554688e+000
1.879198e+003,-2.052368e+000
1.880163e+003,-1.378174e+000
1.881127e+003,-1.597046e+000
1.882091e+003,-2.530457e+000
1.883055e+003,-3.056946e+000
1.884020e+003,-2.708435e+000
1.884984e+003,-1.613892e+000
1.885948e+003,1.962891e-001
1.886912e+003,1.717834e+000
1.887876e+003,6.040649e-001
1.888841e+003,-2.729553e+000
1.889805e+003,-3.216309e+000
1.890769e+003,-1.904907e-001
1.891733e+003,2.093445e+000
1.892698e+003,2.845398e+000
1.893662e+003,3.273254e+000
1.894626e+003,4.236755e+000
1.895590e+003,4.585693e+000
1.896554e+003,2.827393e+000
1.897519e+003,8.214722e-001
1.898483e+003,1.014832e+000
1.899447e+003,2.457764e+000
1.900411e+003,2.228271e+000
1.901376e+003,-1.676636e-001
1.902340e+003,-1.819214e+000
1.903304e+003,-8.344727e-001
1.904268e+003,-2.261963e-001
1.905233e+003,-2.249817e+000
1.906197e+003,-4.915649e+000
1.907161e+003,-6.672546e+000
1.908125e+003,-7.186890e+000
1.909090e+003,-6.186951e+000
1.910054e+003,-3.997009e+000
1.911018e+003,-7.015991e-001
1.911982e+003,3.435059e+000
1.912947e+003,6.088318e+000
1.913911e+003,5.478394e+000
1.914875e+003,3.748169e+000
1.915839e+003,4.242615e+000
1.916803e+003,6.089600e+000
1.917768e+003,5.696838e+000
1.918732e+003,2.690430e+000
1.919696e+003,1.341553e+000
1.920660e+003,2.605042e+000
1.921625e+003,3.433044e+000
1.922589e+003,2.444214e+000
1.923553e+003,1.698059e+000
1.924517e+003,3.387085e+000
1.925481e+003,4.867188e+000
1.926446e+003,2.974548e+000
1.927410e+003,-4.641113e-001
1.928374e+003,-1.871826e+000
1.929338e+003,-1.240479e+000
1.930303e+003,-3.988647e-001
1.931267e+003,9.424438e-001
1.932231e+003,1.513977e+000
1.933195e+003,-8.759766e-001
1.934160e+003,-2.951904e+000
1.935124e+003,-1.558289e+000
1.936088e+003,7.130127e-001
1.937052e+003,1.198547e+000
1.938017e+003,1.719971e-001
1.938981e+003,-1.909241e+000
1.939945e+003,-4.514221e+000
1.940909e+003,-6.287659e+000
1.941874e+003,-6.703369e+000
1.942838e+003,-6.514526e+000
1.943802e+003,-6.189697e+000
1.944766e+003,-5.323547e+000
1.945730e+003,-3.509705e+000
1.946695e+003,-1.105652e+000
1.947659e+003,5.357666e-001
1.948623e+003,1.321289e+000
1.949587e+003,1.722900e+000
1.950552e+003,2.155273e+000
1.951516e+003,1.119080e+000
1.952480e+003,-3.026367e+000
1.953444e+003,-6.340576e+000
1.954408e+003,-5.815674e+000
1.955373e+003,-3.553162e+000
1.956337e+003,-1.313660e+000
1.957301e+003,7.128906e-001
1.958265e+003,2.419434e-001
1.959230e+003,-3.272339e+000
1.960194e+003,-4.613403e+000
1.961158e+003,-2.107056e+000
1.962122e+003,2.040405e-001
1.963087e+003,1.851318e+000
1.964051e+003,2.507629e+000
1.965015e+003,1.757080e+000
1.965979e+003,6.577759e-001
1.966944e+003,1.922607e-002
1.967908e+003,-5.792847e-001
1.968872e+003,-2.278564e+000
1.969836e+003,-4.649963e+000
1.970801e+003,-5.517395e+000
1.971765e+003,-4.023987e+000
1.972729e+003,-2.057190e+000
1.973693e+003,-1.190491e+000
1.974657e+003,-8.776245e-001
1.975622e+003,-6.287842e-001
1.976586e+003,-3.652954e-001
1.977550e+003,7.374268e-001
1.978514e+003,2.516785e+000
1.979479e+003,3.330627e+000
1.980443e+003,2.934387e+000
1.981407e+003,2.642822e+000
1.982371e+003,3.055237e+000
1.983335e+003,3.765564e+000
1.984300e+003,4.368286e+000
1.985264e+003,4.565125e+000
1.986228e+003,4.016724e+000
1.987192e+003,2.904663e+000
1.988157e+003,2.203491e+000
1.989121e+003,2.021545e+000
1.990085e+003,2.369263e+000
1.991049e+003,4.391296e+000
1.992014e+003,4.955750e+000
1.992978e+003,2.281494e+000
1.993942e+003,-2.998047e-001
1.994906e+003,-3.027344e+000
1.995871e+003,-3.857422e+000
1.996835e+003,1.306030e+000
1.997799e+003,7.964233e+000
1.998763e+003,8.732300e+000
1.999728e+003,4.397278e+000
