5.003444e+002,4.306357e+001
5.013087e+002,4.244643e+001
5.022729e+002,4.180470e+001
5.032371e+002,4.128336e+001
5.042014e+002,4.096338e+001
5.051656e+002,4.081953e+001
5.061298e+002,4.043460e+001
5.070941e+002,3.927467e+001
5.080583e+002,3.684781e+001
5.090225e+002,3.630939e+001
5.099868e+002,3.893924e+001
5.109510e+002,4.147391e+001
5.119152e+002,4.212878e+001
5.128795e+002,4.072693e+001
5.138437e+002,3.934578e+001
5.148079e+002,3.868544e+001
5.157722e+002,3.825931e+001
5.167364e+002,3.803978e+001
5.177006e+002,3.785860e+001
5.186649e+002,3.735635e+001
5.196291e+002,3.586758e+001
5.205933e+002,3.419696e+001
5.215576e+002,3.306171e+001
5.225218e+002,3.245567e+001
5.234860e+002,3.212892e+001
5.244503e+002,3.174446e+001
5.254145e+002,3.139851e+001
5.263787e+002,3.146452e+001
5.273430e+002,3.224165e+001
5.283072e+002,3.323000e+001
5.292714e+002,3.371388e+001
5.302357e+002,3.340144e+001
5.311999e+002,3.272076e+001
5.321641e+002,3.206931e+001
5.331284e+002,3.120480e+001
5.340926e+002,2.953104e+001
5.350568e+002,2.666737e+001
5.360211e+002,2.430284e+001
5.369853e+002,2.454036e+001
5.379495e+002,2.584044e+001
5.389138e+002,2.722797e+001
5.398780e+002,2.817514e+001
5.408422e+002,2.858984e+001
5.418065e+002,2.797221e+001
5.427707e+002,2.649806e+001
5.437349e+002,2.542459e+001
5.446992e+002,2.514471e+001
5.456634e+002,2.541078e+001
5.466276e+002,2.539375e+001
5.475919e+002,2.515132e+001
5.485561e+002,2.453241e+001
5.495203e+002,2.269231e+001
5.504846e+002,2.066092e+001
5.514488e+002,2.015770e+001
5.524130e+002,2.264613e+001
5.533773e+002,2.494972e+001
5.543415e+002,2.539029e+001
5.553057e+002,2.487404e+001
5.562700e+002,2.419385e+001
5.572342e+002,2.382645e+001
5.581984e+002,2.366147e+001
5.591627e+002,2.380469e+001
5.601269e+002,2.408011e+001
5.610911e+002,2.371843e+001
5.620554e+002,2.222272e+001
5.630196e+002,1.977000e+001
5.639838e+002,1.838611e+001
5.649481e+002,1.851305e+001
5.659123e+002,1.904492e+001
5.668765e+002,2.083316e+001
5.678408e+002,2.312067e+001
5.688050e+002,2.338737e+001
5.697692e+002,1.876764e+001
5.707335e+002,1.476172e+001
5.716977e+002,1.336160e+001
5.726619e+002,1.351862e+001
5.736262e+002,1.371587e+001
5.745904e+002,1.292517e+001
5.755546e+002,1.198706e+001
5.765189e+002,1.194814e+001
5.774831e+002,1.256035e+001
5.784473e+002,1.385631e+001
5.794116e+002,1.588618e+001
5.803758e+002,1.852097e+001
5.813400e+002,1.884753e+001
5.823043e+002,1.607338e+001
5.832685e+002,1.345683e+001
5.842327e+002,1.221089e+001
5.851970e+002,1.223151e+001
5.861612e+002,1.239751e+001
5.871254e+002,1.273677e+001
5.880897e+002,1.288347e+001
5.890539e+002,1.256123e+001
5.900181e+002,1.197876e+001
5.909824e+002,1.147725e+001
5.919466e+002,1.124855e+001
5.929108e+002,1.136818e+001
5.938751e+002,1.216962e+001
5.948393e+002,1.318604e+001
5.958035e+002,1.359431e+001
5.967678e+002,1.282597e+001
5.977320e+002,1.117952e+001
5.986962e+002,1.075540e+001
5.996605e+002,1.139323e+001
6.006247e+002,1.207777e+001
6.015889e+002,1.245396e+001
6.025532e+002,1.253607e+001
6.035174e+002,1.238878e+001
6.044816e+002,1.193471e+001
6.054459e+002,1.132515e+001
6.064101e+002,1.016415e+001
6.073743e+002,8.914886e+000
6.083386e+002,8.423752e+000
6.093028e+002,9.365158e+000
6.102670e+002,1.082895e+001
6.112313e+002,1.236967e+001
6.121955e+002,1.372299e+001
6.131597e+002,1.462054e+001
6.141240e+002,1.486441e+001
6.150882e+002,1.443225e+001
6.160524e+002,1.286320e+001
6.170167e+002,1.042601e+001
6.179809e+002,8.423218e+000
6.189451e+002,7.494522e+000
6.199094e+002,7.440399e+000
6.208736e+002,7.092743e+000
6.218378e+002,6.003906e+000
6.228021e+002,5.355469e+000
6.237663e+002,5.419540e+000
6.247305e+002,5.976471e+000
6.256948e+002,6.749146e+000
6.266590e+002,7.872421e+000
6.276232e+002,8.334076e+000
6.285875e+002,7.004074e+000
6.295517e+002,5.286423e+000
6.305159e+002,4.818222e+000
6.314802e+002,6.396011e+000
6.324444e+002,8.937119e+000
6.334086e+002,9.501312e+000
6.343729e+002,8.745575e+000
6.353371e+002,7.929520e+000
6.363013e+002,7.468399e+000
6.372656e+002,7.196884e+000
6.382298e+002,6.586411e+000
6.391940e+002,4.741470e+000
6.401583e+002,3.740845e+000
6.411225e+002,4.380127e+000
6.420867e+002,5.677597e+000
6.430510e+002,6.385834e+000
6.440152e+002,5.975204e+000
6.449794e+002,5.318787e+000
6.459437e+002,4.806793e+000
6.469079e+002,4.353561e+000
6.478721e+002,3.989578e+000
6.488364e+002,3.708374e+000
6.498006e+002,3.383896e+000
6.507648e+002,2.491928e+000
6.517291e+002,1.351837e+000
6.526933e+002,9.988556e-001
6.536575e+002,1.666321e+000
6.546218e+002,2.712921e+000
6.555860e+002,2.859497e+000
6.565502e+002,1.223358e+000
6.575145e+002,6.087494e-001
6.584787e+002,1.589874e+000
6.594429e+002,2.995895e+000
6.604072e+002,3.932587e+000
6.613714e+002,4.249298e+000
6.623356e+002,4.525742e+000
6.632999e+002,5.007980e+000
6.642641e+002,5.422379e+000
6.652283e+002,6.084290e+000
6.661926e+002,6.749924e+000
6.671568e+002,6.475647e+000
6.681210e+002,3.438171e+000
6.690853e+002,-8.173065e-001
6.700495e+002,-1.971237e+000
6.710137e+002,-9.573364e-002
6.719780e+002,2.596069e+000
6.729422e+002,3.785507e+000
6.739064e+002,3.186096e+000
6.748707e+002,2.362808e+000
6.758349e+002,1.413879e+000
6.767991e+002,1.887970e-001
6.777634e+002,-1.940750e+000
6.787276e+002,-4.591721e+000
6.796918e+002,-5.571548e+000
6.806561e+002,-2.606186e+000
6.816203e+002,5.336151e-001
6.825845e+002,2.625076e+000
6.835488e+002,3.830582e+000
6.845130e+002,4.556442e+000
6.854772e+002,5.071564e+000
6.864415e+002,5.605362e+000
6.874057e+002,6.924347e+000
6.883699e+002,8.511246e+000
6.893342e+002,9.025299e+000
6.902984e+002,7.652664e+000
6.912626e+002,4.783936e+000
6.922269e+002,2.912506e+000
6.931911e+002,2.641739e+000
6.941553e+002,2.877563e+000
6.951196e+002,4.070541e+000
6.960838e+002,5.397491e+000
6.970480e+002,5.512070e+000
6.980123e+002,3.714630e+000
6.989765e+002,1.865265e+000
6.999407e+002,8.720398e-002
7.009050e+002,-1.033188e+000
7.018692e+002,-6.959839e-001
7.028334e+002,1.181488e+000
7.037977e+002,3.562607e+000
7.047619e+002,5.066422e+000
7.057261e+002,5.847229e+000
7.066904e+002,5.870239e+000
7.076546e+002,5.115784e+000
7.086188e+002,4.097305e+000
7.095831e+002,3.646988e+000
7.105473e+002,4.011795e+000
7.115115e+002,4.009445e+000
7.124758e+002,3.533203e+000
7.134400e+002,2.828766e+000
7.144042e+002,1.731979e+000
7.153685e+002,3.409576e-001
7.163327e+002,-1.148529e-001
7.172969e+002,2.280655e+000
7.182612e+002,4.544022e+000
7.192254e+002,5.498505e+000
7.201896e+002,5.274460e+000
7.211539e+002,4.360947e+000
7.221181e+002,3.075165e+000
7.230823e+002,1.725754e+000
7.240466e+002,1.148926e+000
7.250108e+002,1.257370e+000
7.259750e+002,1.514511e+000
7.269393e+002,1.531845e+000
7.279035e+002,1.252106e+000
7.288677e+002,1.000961e+000
7.298320e+002,1.337723e+000
7.307962e+002,1.356674e+000
7.317604e+002,4.094696e-001
7.327247e+002,-6.338196e-001
7.336889e+002,-3.246002e-001
7.346531e+002,2.172821e+000
7.356174e+002,3.765671e+000
7.365816e+002,1.991974e+000
7.375458e+002,-3.437805e-001
7.385101e+002,-1.076370e+000
7.394743e+002,2.911987e-001
7.404385e+002,2.609558e+000
7.414028e+002,4.310150e+000
7.423670e+002,5.182617e+000
7.433312e+002,5.417480e+000
7.442955e+002,5.122498e+000
7.452597e+002,4.697311e+000
7.462239e+002,4.520676e+000
7.471882e+002,4.629425e+000
7.481524e+002,4.636566e+000
7.491166e+002,4.010406e+000
7.500809e+002,3.622589e+000
7.510451e+002,4.453033e+000
7.520093e+002,5.916641e+000
7.529736e+002,5.755081e+000
7.539378e+002,1.328918e+000
7.549020e+002,-2.153152e+000
7.558663e+002,-3.331909e-001
7.568306e+002,3.949097e+000
7.577948e+002,6.544434e+000
7.587590e+002,5.022018e+000
7.597233e+002,1.111603e+000
7.606875e+002,3.283844e-001
7.616517e+002,2.333771e+000
7.626160e+002,4.281921e+000
7.635802e+002,5.765472e+000
7.645444e+002,6.570999e+000
7.655087e+002,5.975739e+000
7.664729e+002,2.684494e+000
7.674371e+002,8.288727e-001
7.684014e+002,9.544067e-001
7.693656e+002,1.972702e+000
7.703298e+002,3.671906e+000
7.712941e+002,5.819275e+000
7.722583e+002,7.405548e+000
7.732225e+002,7.420029e+000
7.741868e+002,6.731125e+000
7.751510e+002,5.567154e+000
7.761152e+002,4.312057e+000
7.770795e+002,3.698410e+000
7.780437e+002,4.374847e+000
7.790079e+002,6.083786e+000
7.799722e+002,6.721359e+000
7.809364e+002,6.238998e+000
7.819006e+002,5.778336e+000
7.828649e+002,5.964783e+000
7.838291e+002,6.601913e+000
7.847933e+002,6.844604e+000
7.857576e+002,6.241425e+000
7.867218e+002,5.653931e+000
7.876860e+002,5.215744e+000
7.886503e+002,5.037033e+000
7.896145e+002,5.373825e+000
7.905787e+002,6.222702e+000
7.915430e+002,6.947098e+000
7.925072e+002,6.529404e+000
7.934714e+002,5.631638e+000
7.944357e+002,5.106979e+000
7.953999e+002,5.044495e+000
7.963641e+002,5.032196e+000
7.973284e+002,4.530914e+000
7.982926e+002,3.456390e+000
7.992568e+002,3.819351e+000
8.002211e+002,6.478073e+000
8.011853e+002,8.332642e+000
8.021495e+002,8.027725e+000
8.031138e+002,6.237259e+000
8.040780e+002,4.929214e+000
8.050422e+002,4.301056e+000
8.060065e+002,4.239426e+000
8.069707e+002,4.875885e+000
8.079349e+002,5.740692e+000
8.088992e+002,6.575562e+000
8.098634e+002,7.264008e+000
8.108276e+002,7.628693e+000
8.117919e+002,7.111526e+000
8.127561e+002,5.927597e+000
8.137203e+002,4.765442e+000
8.146846e+002,3.812454e+000
8.156488e+002,3.099411e+000
8.166130e+002,2.516571e+000
8.175773e+002,1.840118e+000
8.185415e+002,2.591721e+000
8.195057e+002,6.496552e+000
8.204700e+002,9.292770e+000
8.214342e+002,8.791138e+000
8.223984e+002,6.094910e+000
8.233627e+002,4.245865e+000
8.243269e+002,4.555161e+000
8.252911e+002,5.395462e+000
8.262554e+002,6.307617e+000
8.272196e+002,6.821518e+000
8.281838e+002,5.963684e+000
8.291481e+002,3.672165e+000
8.301123e+002,1.350311e+000
8.310765e+002,1.700256e+000
8.320408e+002,4.497238e+000
8.330050e+002,6.362991e+000
8.339692e+002,7.123993e+000
8.349335e+002,7.034256e+000
8.358977e+002,6.010422e+000
8.368619e+002,3.828201e+000
8.378262e+002,2.775803e+000
8.387904e+002,3.506561e+000
8.397546e+002,4.547470e+000
8.407189e+002,6.084625e+000
8.416831e+002,7.583481e+000
8.426473e+002,8.148224e+000
8.436116e+002,7.247391e+000
8.445758e+002,5.957809e+000
8.455400e+002,4.940216e+000
8.465043e+002,4.246292e+000
8.474685e+002,4.194199e+000
8.484327e+002,4.893173e+000
8.493970e+002,6.202286e+000
8.503612e+002,7.834290e+000
8.513254e+002,9.928391e+000
8.522897e+002,1.047412e+001
8.532539e+002,8.327927e+000
8.542181e+002,6.198273e+000
8.551824e+002,6.003510e+000
8.561466e+002,7.576752e+000
8.571108e+002,8.734497e+000
8.580751e+002,8.477386e+000
8.590393e+002,7.984070e+000
8.600035e+002,7.267349e+000
8.609678e+002,6.870590e+000
8.619320e+002,7.527298e+000
8.628962e+002,9.443359e+000
8.638605e+002,1.175276e+001
8.648247e+002,1.334456e+001
8.657889e+002,1.423239e+001
8.667532e+002,1.429416e+001
8.677174e+002,1.351334e+001
8.686816e+002,1.251041e+001
8.696459e+002,1.204404e+001
8.706101e+002,1.228455e+001
8.715743e+002,1.217567e+001
8.725386e+002,1.080244e+001
8.735028e+002,1.026814e+001
8.744670e+002,1.148555e+001
8.754313e+002,1.368535e+001
8.763955e+002,1.550877e+001
8.773597e+002,1.651871e+001
8.783240e+002,1.730600e+001
8.792882e+002,1.829649e+001
8.802524e+002,1.922261e+001
8.812167e+002,1.972032e+001
8.821809e+002,1.982715e+001
8.831451e+002,2.005017e+001
8.841094e+002,2.112325e+001
8.850736e+002,2.301706e+001
8.860378e+002,2.375693e+001
8.870021e+002,2.309868e+001
8.879663e+002,2.218558e+001
8.889305e+002,2.144336e+001
8.898948e+002,2.086545e+001
8.908590e+002,2.059447e+001
8.918232e+002,2.079085e+001
8.927875e+002,2.126920e+001
8.937517e+002,2.235632e+001
8.947159e+002,2.341583e+001
8.956802e+002,2.380394e+001
8.966444e+002,2.338165e+001
8.976086e+002,2.256349e+001
8.985729e+002,2.150356e+001
8.995371e+002,2.082176e+001
9.005013e+002,2.171031e+001
9.014656e+002,2.389017e+001
9.024298e+002,2.573074e+001
9.033940e+002,2.586188e+001
9.043583e+002,2.451926e+001
9.053225e+002,2.422021e+001
9.062867e+002,2.661255e+001
9.072510e+002,2.774873e+001
9.082152e+002,2.646649e+001
9.091794e+002,2.481487e+001
9.101437e+002,2.502539e+001
9.111079e+002,2.745877e+001
9.120721e+002,2.976089e+001
9.130364e+002,3.037274e+001
9.140006e+002,3.039432e+001
9.149648e+002,3.039291e+001
9.159291e+002,3.044742e+001
9.168933e+002,3.048053e+001
9.178575e+002,3.038962e+001
9.188218e+002,3.006351e+001
9.197860e+002,2.913333e+001
9.207502e+002,2.751926e+001
9.217145e+002,2.645270e+001
9.226787e+002,2.672678e+001
9.236429e+002,2.734558e+001
9.246072e+002,2.671426e+001
9.255714e+002,2.441397e+001
9.265356e+002,2.269008e+001
9.274999e+002,2.202975e+001
9.284641e+002,2.178546e+001
9.294283e+002,2.221492e+001
9.303926e+002,2.287082e+001
9.313568e+002,2.297621e+001
9.323210e+002,2.209474e+001
9.332853e+002,2.085201e+001
9.342495e+002,2.010136e+001
9.352137e+002,1.969072e+001
9.361780e+002,1.965164e+001
9.371422e+002,2.004372e+001
9.381064e+002,2.065797e+001
9.390707e+002,2.118106e+001
9.400349e+002,2.160022e+001
9.409991e+002,2.130707e+001
9.419634e+002,1.956657e+001
9.429276e+002,1.810831e+001
9.438918e+002,1.730235e+001
9.448561e+002,1.712076e+001
9.458203e+002,1.768234e+001
9.467845e+002,1.925203e+001
9.477488e+002,2.055435e+001
9.487130e+002,2.047945e+001
9.496772e+002,1.981425e+001
9.506415e+002,1.877843e+001
9.516057e+002,1.766190e+001
9.525699e+002,1.710342e+001
9.535342e+002,1.774141e+001
9.544984e+002,1.929463e+001
9.554626e+002,1.951718e+001
9.564269e+002,1.839908e+001
9.573911e+002,1.717587e+001
9.583553e+002,1.593457e+001
9.593196e+002,1.481606e+001
9.602838e+002,1.413695e+001
9.612480e+002,1.399083e+001
9.622123e+002,1.379767e+001
9.631765e+002,1.319180e+001
9.641407e+002,1.275594e+001
9.651050e+002,1.271117e+001
9.660692e+002,1.300928e+001
9.670334e+002,1.365916e+001
9.679977e+002,1.473334e+001
9.689619e+002,1.590213e+001
9.699261e+002,1.573518e+001
9.708904e+002,1.480493e+001
9.718546e+002,1.531200e+001
9.728188e+002,1.791289e+001
9.737831e+002,2.119467e+001
9.747473e+002,2.336089e+001
9.757115e+002,2.425372e+001
9.766758e+002,2.502417e+001
9.776400e+002,2.605727e+001
9.786042e+002,2.665451e+001
9.795685e+002,2.678819e+001
9.805327e+002,2.619038e+001
9.814969e+002,2.430385e+001
9.824612e+002,2.099323e+001
9.834254e+002,1.770155e+001
9.843896e+002,1.574106e+001
9.853539e+002,1.448174e+001
9.863181e+002,1.334790e+001
9.872823e+002,1.225713e+001
9.882466e+002,1.140590e+001
9.892108e+002,1.106023e+001
9.901750e+002,1.125502e+001
9.911393e+002,1.138559e+001
9.921035e+002,1.114847e+001
9.930677e+002,1.084140e+001
9.940320e+002,1.082474e+001
9.949962e+002,1.065074e+001
9.959604e+002,9.578674e+000
9.969247e+002,7.661606e+000
9.978889e+002,6.477051e+000
9.988531e+002,6.775009e+000
9.998174e+002,7.848511e+000
1.000782e+003,1.030017e+001
1.001746e+003,1.293208e+001
1.002710e+003,1.354678e+001
1.003674e+003,1.146089e+001
1.004639e+003,8.840317e+000
1.005603e+003,9.791931e+000
1.006567e+003,1.469691e+001
1.007531e+003,1.587035e+001
1.008495e+003,1.186806e+001
1.009460e+003,7.310272e+000
1.010424e+003,4.679291e+000
1.011388e+003,3.723129e+000
1.012352e+003,3.529404e+000
1.013317e+003,4.536469e+000
1.014281e+003,5.094406e+000
1.015245e+003,4.322098e+000
1.016209e+003,3.263824e+000
1.017174e+003,2.549286e+000
1.018138e+003,2.347427e+000
1.019102e+003,2.707275e+000
1.020066e+003,3.805435e+000
1.021031e+003,5.156097e+000
1.021995e+003,4.846588e+000
1.022959e+003,3.185684e+000
1.023923e+003,2.101807e+000
1.024887e+003,2.405975e+000
1.025852e+003,3.212982e+000
1.026816e+003,3.052338e+000
1.027780e+003,1.681519e+000
1.028744e+003,8.056641e-001
1.029709e+003,1.475113e+000
1.030673e+003,1.527313e+000
1.031637e+003,-6.230316e-001
1.032601e+003,-3.442230e+000
1.033566e+003,-4.617294e+000
1.034530e+003,-3.347031e+000
1.035494e+003,-1.189423e+000
1.036458e+003,6.661530e-001
1.037422e+003,1.866501e+000
1.038387e+003,1.492081e+000
1.039351e+003,-2.757874e-001
1.040315e+003,-1.767151e+000
1.041279e+003,-1.654938e+000
1.042244e+003,-2.796936e-001
1.043208e+003,5.031891e-001
1.044172e+003,6.768799e-002
1.045136e+003,-7.774353e-002
1.046101e+003,3.774261e-001
1.047065e+003,9.133301e-001
1.048029e+003,1.285385e+000
1.048993e+003,1.413330e+000
1.049958e+003,1.078247e+000
1.050922e+003,-1.120148e-001
1.051886e+003,-8.828888e-001
1.052850e+003,1.105240e+000
1.053814e+003,3.748932e+000
1.054779e+003,3.734604e+000
1.055743e+003,6.514587e-001
1.056707e+003,-2.676376e+000
1.057671e+003,-2.757202e+000
1.058636e+003,4.196167e-001
1.059600e+003,1.838608e+000
1.060564e+003,-1.027374e-001
1.061528e+003,-1.170227e+000
1.062493e+003,-2.841492e-001
1.063457e+003,1.229370e+000
1.064421e+003,2.165009e+000
1.065385e+003,2.391022e+000
1.066349e+003,1.809174e+000
1.067314e+003,-9.063416e-001
1.068278e+003,-2.850113e+000
1.069242e+003,-7.163696e-001
1.070206e+003,3.122147e+000
1.071171e+003,4.437088e+000
1.072135e+003,1.668442e+000
1.073099e+003,-2.513046e+000
1.074063e+003,-3.497467e+000
1.075028e+003,-8.773804e-001
1.075992e+003,6.239166e-001
1.076956e+003,6.894073e-001
1.077920e+003,3.101501e-001
1.078885e+003,-4.487305e-001
1.079849e+003,-1.206116e+000
1.080813e+003,-1.239288e+000
1.081777e+003,-3.316040e-001
1.082741e+003,6.915894e-001
1.083706e+003,1.798996e+000
1.084670e+003,2.392151e+000
1.085634e+003,1.522934e+000
1.086598e+003,-3.347778e-002
1.087563e+003,-5.640869e-001
1.088527e+003,8.151855e-001
1.089491e+003,2.876099e+000
1.090455e+003,3.020508e+000
1.091420e+003,9.205933e-001
1.092384e+003,-6.595459e-001
1.093348e+003,-1.827225e+000
1.094312e+003,-2.449539e+000
1.095276e+003,-2.120026e+000
1.096241e+003,-1.102509e+000
1.097205e+003,-2.888641e-001
1.098169e+003,2.465820e-001
1.099133e+003,3.042450e-001
1.100098e+003,-5.415802e-001
1.101062e+003,-1.445404e+000
1.102026e+003,-1.993103e+000
1.102990e+003,-2.126328e+000
1.103955e+003,-1.903046e+000
1.104919e+003,-1.377823e+000
1.105883e+003,-5.990906e-001
1.106847e+003,6.277008e-001
1.107812e+003,2.222076e+000
1.108776e+003,1.852081e+000
1.109740e+003,-1.740173e+000
1.110704e+003,-4.893692e+000
1.111668e+003,-4.193375e+000
1.112633e+003,-6.452637e-001
1.113597e+003,9.030304e-001
1.114561e+003,-1.199524e+000
1.115525e+003,-2.614059e+000
1.116490e+003,-1.570114e+000
1.117454e+003,5.360413e-002
1.118418e+003,1.779602e+000
1.119382e+003,3.052780e+000
1.120347e+003,2.700027e+000
1.121311e+003,-4.426575e-002
1.122275e+003,-3.603745e+000
1.123239e+003,-4.423859e+000
1.124203e+003,-2.587326e+000
1.125168e+003,-1.011246e+000
1.126132e+003,2.112427e-001
1.127096e+003,9.492798e-001
1.128060e+003,8.509216e-001
1.129025e+003,7.614136e-002
1.129989e+003,-5.345001e-001
1.130953e+003,-1.108810e+000
1.131917e+003,-1.135559e+000
1.132882e+003,-4.489136e-002
1.133846e+003,1.180237e+000
1.134810e+003,2.038422e+000
1.135774e+003,2.520798e+000
1.136739e+003,2.730835e+000
1.137703e+003,2.731674e+000
1.138667e+003,2.696869e+000
1.139631e+003,2.820190e+000
1.140595e+003,3.207306e+000
1.141560e+003,4.684662e+000
1.142524e+003,7.741638e+000
1.143488e+003,1.050163e+001
1.144452e+003,1.148280e+001
1.145417e+003,1.111362e+001
1.146381e+003,1.096985e+001
1.147345e+003,1.110896e+001
1.148309e+003,1.132805e+001
1.149274e+003,1.070802e+001
1.150238e+003,1.106844e+001
1.151202e+003,1.396074e+001
1.152166e+003,1.846634e+001
1.153130e+003,2.315784e+001
1.154095e+003,2.717444e+001
1.155059e+003,2.984094e+001
1.156023e+003,3.009898e+001
1.156987e+003,2.816759e+001
1.157952e+003,2.626515e+001
1.158916e+003,2.452063e+001
1.159880e+003,2.282709e+001
1.160844e+003,2.100735e+001
1.161809e+003,1.900346e+001
1.162773e+003,1.682140e+001
1.163737e+003,1.437004e+001
1.164701e+003,1.220949e+001
1.165666e+003,1.099554e+001
1.166630e+003,9.646515e+000
1.167594e+003,7.201523e+000
1.168558e+003,4.608261e+000
1.169522e+003,3.477036e+000
1.170487e+003,4.077972e+000
1.171451e+003,4.738892e+000
1.172415e+003,3.442551e+000
1.173379e+003,7.337189e-001
1.174344e+003,-1.694794e-001
1.175308e+003,8.311615e-001
1.176272e+003,1.529068e+000
1.177236e+003,8.791351e-001
1.178201e+003,-1.134338e-001
1.179165e+003,1.535034e-002
1.180129e+003,1.236893e+000
1.181093e+003,1.625961e+000
1.182057e+003,1.772461e-001
1.183022e+003,-1.177414e+000
1.183986e+003,-1.718445e+000
1.184950e+003,-1.830399e+000
1.185914e+003,-1.866730e+000
1.186879e+003,-1.860428e+000
1.187843e+003,-1.499878e+000
1.188807e+003,-5.244751e-001
1.189771e+003,5.424805e-001
1.190736e+003,-5.313110e-002
1.191700e+003,-2.588638e+000
1.192664e+003,-3.852936e+000
1.193628e+003,-2.757080e+000
1.194593e+003,-1.322449e+000
1.195557e+003,-7.693634e-001
1.196521e+003,-1.049301e+000
1.197485e+003,-2.195267e+000
1.198449e+003,-4.689285e+000
1.199414e+003,-6.485245e+000
1.200378e+003,-6.076065e+000
1.201342e+003,-5.192795e+000
1.202306e+003,-4.997696e+000
1.203271e+003,-5.213821e+000
1.204235e+003,-4.644562e+000
1.205199e+003,-2.859177e+000
1.206163e+003,-1.352615e+000
1.207128e+003,-2.835541e+000
1.208092e+003,-7.527328e+000
1.209056e+003,-1.001611e+001
1.210020e+003,-9.470024e+000
1.210984e+003,-8.834953e+000
1.211949e+003,-9.192711e+000
1.212913e+003,-9.784126e+000
1.213877e+003,-9.194710e+000
1.214841e+003,-7.403748e+000
1.215806e+003,-6.935669e+000
1.216770e+003,-9.537895e+000
1.217734e+003,-1.255115e+001
1.218698e+003,-1.431181e+001
1.219663e+003,-1.530872e+001
1.220627e+003,-1.630465e+001
1.221591e+003,-1.728855e+001
1.222555e+003,-1.727840e+001
1.223520e+003,-1.527943e+001
1.224484e+003,-1.196896e+001
1.225448e+003,-1.073109e+001
1.226412e+003,-1.292276e+001
1.227376e+003,-1.430763e+001
1.228341e+003,-1.449752e+001
1.229305e+003,-1.439767e+001
1.230269e+003,-1.439553e+001
1.231233e+003,-1.448478e+001
1.232198e+003,-1.456544e+001
1.233162e+003,-1.458126e+001
1.234126e+003,-1.461668e+001
1.235090e+003,-1.507283e+001
1.236055e+003,-1.531046e+001
1.237019e+003,-1.425108e+001
1.237983e+003,-1.246160e+001
1.238947e+003,-1.142515e+001
1.239911e+003,-1.172392e+001
1.240876e+003,-1.265359e+001
1.241840e+003,-1.319205e+001
1.242804e+003,-1.328958e+001
1.243768e+003,-1.381760e+001
1.244733e+003,-1.593779e+001
1.245697e+003,-1.686840e+001
1.246661e+003,-1.538021e+001
1.247625e+003,-1.367218e+001
1.248590e+003,-1.365186e+001
1.249554e+003,-1.480621e+001
1.250518e+003,-1.514230e+001
1.251482e+003,-1.374316e+001
1.252447e+003,-1.191610e+001
1.253411e+003,-1.116313e+001
1.254375e+003,-1.103772e+001
1.255339e+003,-1.052142e+001
1.256303e+003,-9.578186e+000
1.257268e+003,-9.059471e+000
1.258232e+003,-9.707123e+000
1.259196e+003,-1.086034e+001
1.260160e+003,-1.103828e+001
1.261125e+003,-1.003574e+001
1.262089e+003,-8.949104e+000
1.263053e+003,-7.456589e+000
1.264017e+003,-6.594040e+000
1.264982e+003,-7.259056e+000
1.265946e+003,-8.120430e+000
1.266910e+003,-7.439087e+000
1.267874e+003,-5.629211e+000
1.268839e+003,-4.978584e+000
1.269803e+003,-7.024986e+000
1.270767e+003,-1.013596e+001
1.271731e+003,-1.097230e+001
1.272695e+003,-9.596741e+000
1.273660e+003,-9.587776e+000
1.274624e+003,-1.181626e+001
1.275588e+003,-1.357282e+001
1.276552e+003,-1.291122e+001
1.277517e+003,-1.092793e+001
1.278481e+003,-9.653023e+000
1.279445e+003,-9.226997e+000
1.280409e+003,-9.279465e+000
1.281374e+003,-9.736305e+000
1.282338e+003,-1.063632e+001
1.283302e+003,-1.278976e+001
1.284266e+003,-1.488786e+001
1.285230e+003,-1.504348e+001
1.286195e+003,-1.339170e+001
1.287159e+003,-1.195513e+001
1.288123e+003,-1.237759e+001
1.289087e+003,-1.380628e+001
1.290052e+003,-1.368915e+001
1.291016e+003,-1.132025e+001
1.291980e+003,-1.013111e+001
1.292944e+003,-1.058546e+001
1.293909e+003,-1.159257e+001
1.294873e+003,-1.337014e+001
1.295837e+003,-1.501570e+001
1.296801e+003,-1.489120e+001
1.297766e+003,-1.297916e+001
1.298730e+003,-1.184767e+001
1.299694e+003,-1.338609e+001
1.300658e+003,-1.527102e+001
1.301622e+003,-1.434104e+001
1.302587e+003,-1.218716e+001
1.303551e+003,-1.162476e+001
1.304515e+003,-1.298048e+001
1.305479e+003,-1.405619e+001
1.306444e+003,-1.294381e+001
1.307408e+003,-1.053233e+001
1.308372e+003,-9.910416e+000
1.309336e+003,-1.192721e+001
1.310301e+003,-1.313012e+001
1.311265e+003,-1.297368e+001
1.312229e+003,-1.239722e+001
1.313193e+003,-1.126823e+001
1.314157e+003,-1.013481e+001
1.315122e+003,-9.666473e+000
1.316086e+003,-9.824730e+000
1.317050e+003,-9.890038e+000
1.318014e+003,-9.343224e+000
1.318979e+003,-8.613960e+000
1.319943e+003,-8.513954e+000
1.320907e+003,-8.980904e+000
1.321871e+003,-9.611885e+000
1.322836e+003,-1.063421e+001
1.323800e+003,-1.125208e+001
1.324764e+003,-1.035443e+001
1.325728e+003,-9.116707e+000
1.326693e+003,-9.906395e+000
1.327657e+003,-1.285722e+001
1.328621e+003,-1.525918e+001
1.329585e+003,-1.667062e+001
1.330549e+003,-1.657094e+001
1.331514e+003,-1.368970e+001
1.332478e+003,-1.045712e+001
1.333442e+003,-9.356255e+000
1.334406e+003,-1.014465e+001
1.335371e+003,-1.105573e+001
1.336335e+003,-1.099565e+001
1.337299e+003,-1.025063e+001
1.338263e+003,-9.300919e+000
1.339228e+003,-8.001633e+000
1.340192e+003,-7.874825e+000
1.341156e+003,-1.032533e+001
1.342120e+003,-1.181203e+001
1.343084e+003,-1.137679e+001
1.344049e+003,-1.031981e+001
1.345013e+003,-9.559753e+000
1.345977e+003,-9.040482e+000
1.346941e+003,-8.193565e+000
1.347906e+003,-6.767799e+000
1.348870e+003,-5.764481e+000
1.349834e+003,-6.318069e+000
1.350798e+003,-7.827934e+000
1.351763e+003,-9.322807e+000
1.352727e+003,-1.064379e+001
1.353691e+003,-1.095301e+001
1.354655e+003,-9.791939e+000
1.355620e+003,-8.054665e+000
1.356584e+003,-6.635460e+000
1.357548e+003,-5.513718e+000
1.358512e+003,-4.634880e+000
1.359476e+003,-3.820450e+000
1.360441e+003,-3.955032e+000
1.361405e+003,-6.075325e+000
1.362369e+003,-8.216347e+000
1.363333e+003,-9.682953e+000
1.364298e+003,-1.043826e+001
1.365262e+003,-1.036067e+001
1.366226e+003,-9.595924e+000
1.367190e+003,-8.691544e+000
1.368155e+003,-8.126297e+000
1.369119e+003,-7.916161e+000
1.370083e+003,-8.152466e+000
1.371047e+003,-9.030907e+000
1.372011e+003,-9.338257e+000
1.372976e+003,-8.459305e+000
1.373940e+003,-7.976822e+000
1.374904e+003,-9.197517e+000
1.375868e+003,-1.061134e+001
1.376833e+003,-9.954117e+000
1.377797e+003,-7.381081e+000
1.378761e+003,-5.276329e+000
1.379725e+003,-4.562408e+000
1.380690e+003,-4.804634e+000
1.381654e+003,-6.501801e+000
1.382618e+003,-8.384781e+000
1.383582e+003,-8.185593e+000
1.384547e+003,-6.156113e+000
1.385511e+003,-5.096016e+000
1.386475e+003,-6.708855e+000
1.387439e+003,-8.999573e+000
1.388403e+003,-8.619637e+000
1.389368e+003,-5.586098e+000
1.390332e+003,-3.472778e+000
1.391296e+003,-2.208420e+000
1.392260e+003,-2.194756e+000
1.393225e+003,-4.424850e+000
1.394189e+003,-6.819054e+000
1.395153e+003,-8.624672e+000
1.396117e+003,-9.617805e+000
1.397082e+003,-9.381134e+000
1.398046e+003,-8.035858e+000
1.399010e+003,-6.537407e+000
1.399974e+003,-5.794487e+000
1.400938e+003,-5.706787e+000
1.401903e+003,-5.793442e+000
1.402867e+003,-5.963387e+000
1.403831e+003,-5.950752e+000
1.404795e+003,-5.650620e+000
1.405760e+003,-5.471725e+000
1.406724e+003,-5.753822e+000
1.407688e+003,-6.295044e+000
1.408652e+003,-6.716255e+000
1.409617e+003,-6.970131e+000
1.410581e+003,-7.384209e+000
1.411545e+003,-8.148933e+000
1.412509e+003,-8.803825e+000
1.413474e+003,-9.144264e+000
1.414438e+003,-8.988655e+000
1.415402e+003,-7.410103e+000
1.416366e+003,-4.741707e+000
1.417330e+003,-3.431473e+000
1.418295e+003,-4.751381e+000
1.419259e+003,-6.518791e+000
1.420223e+003,-6.068558e+000
1.421187e+003,-3.818245e+000
1.422152e+003,-2.081306e+000
1.423116e+003,-7.659302e-001
1.424080e+003,-2.036057e-001
1.425044e+003,-1.197029e+000
1.426009e+003,-2.362961e+000
1.426973e+003,-3.118805e+000
1.427937e+003,-3.748878e+000
1.428901e+003,-4.846809e+000
1.429865e+003,-6.209587e+000
1.430830e+003,-6.818184e+000
1.431794e+003,-6.047394e+000
1.432758e+003,-4.567764e+000
1.433722e+003,-3.587166e+000
1.434687e+003,-2.999229e+000
1.435651e+003,-3.051079e+000
1.436615e+003,-5.001122e+000
1.437579e+003,-6.121925e+000
1.438544e+003,-5.387749e+000
1.439508e+003,-4.503006e+000
1.440472e+003,-5.053207e+000
1.441436e+003,-6.058563e+000
1.442401e+003,-5.197800e+000
1.443365e+003,-2.159134e+000
1.444329e+003,4.639053e-001
1.445293e+003,7.751083e-001
1.446257e+003,-3.934174e-001
1.447222e+003,-1.998177e+000
1.448186e+003,-3.844528e+000
1.449150e+003,-4.556564e+000
1.450114e+003,-3.762535e+000
1.451079e+003,-2.961731e+000
1.452043e+003,-3.022919e+000
1.453007e+003,-3.342964e+000
1.453971e+003,-3.119698e+000
1.454936e+003,-2.430840e+000
1.455900e+003,-1.681595e+000
1.456864e+003,-7.704010e-001
1.457828e+003,-3.486328e-001
1.458792e+003,-1.526199e+000
1.459757e+003,-2.768784e+000
1.460721e+003,-2.343430e+000
1.461685e+003,-1.139343e+000
1.462649e+003,-1.239502e+000
1.463614e+003,-3.044006e+000
1.464578e+003,-4.789345e+000
1.465542e+003,-4.859734e+000
1.466506e+003,-3.932098e+000
1.467471e+003,-4.112175e+000
1.468435e+003,-5.788742e+000
1.469399e+003,-6.241455e+000
1.470363e+003,-4.209297e+000
1.471328e+003,-2.672531e+000
1.472292e+003,-2.677940e+000
1.473256e+003,-3.127815e+000
1.474220e+003,-3.212006e+000
1.475184e+003,-2.965561e+000
1.476149e+003,-2.632576e+000
1.477113e+003,-2.412102e+000
1.478077e+003,-2.628517e+000
1.479041e+003,-3.576462e+000
1.480006e+003,-4.863678e+000
1.480970e+003,-5.265137e+000
1.481934e+003,-4.562370e+000
1.482898e+003,-4.142250e+000
1.483863e+003,-4.248917e+000
1.484827e+003,-4.291153e+000
1.485791e+003,-4.544106e+000
1.486755e+003,-4.200386e+000
1.487719e+003,-1.681290e+000
1.488684e+003,1.882401e+000
1.489648e+003,3.132133e+000
1.490612e+003,1.122574e+000
1.491576e+003,-6.742630e-001
1.492541e+003,8.273544e-001
1.493505e+003,3.848969e+000
1.494469e+003,4.393120e+000
1.495433e+003,2.809738e+000
1.496398e+003,1.368904e+000
1.497362e+003,2.621689e-001
1.498326e+003,-1.490555e-001
1.499290e+003,6.221771e-001
1.500255e+003,1.965034e+000
1.501219e+003,3.093178e+000
1.502183e+003,4.007149e+000
1.503147e+003,4.824020e+000
1.504111e+003,5.413620e+000
1.505076e+003,6.759956e+000
1.506040e+003,1.013879e+001
1.507004e+003,1.381249e+001
1.507968e+003,1.571137e+001
1.508933e+003,1.669970e+001
1.509897e+003,1.888407e+001
1.510861e+003,2.263967e+001
1.511825e+003,2.583402e+001
1.512790e+003,2.660587e+001
1.513754e+003,2.637044e+001
1.514718e+003,2.792691e+001
1.515682e+003,3.122050e+001
1.516646e+003,3.497821e+001
1.517611e+003,3.999330e+001
1.518575e+003,4.353169e+001
1.519539e+003,4.347141e+001
1.520503e+003,4.315528e+001
1.521468e+003,4.484872e+001
1.522432e+003,4.703143e+001
1.523396e+003,4.752488e+001
1.524360e+003,4.604868e+001
1.525325e+003,4.347824e+001
1.526289e+003,4.041876e+001
1.527253e+003,3.758534e+001
1.528217e+003,3.637074e+001
1.529182e+003,3.684972e+001
1.530146e+003,3.626004e+001
1.531110e+003,3.404052e+001
1.532074e+003,3.168432e+001
1.533039e+003,2.980346e+001
1.534003e+003,2.698138e+001
1.534967e+003,2.165105e+001
1.535931e+003,1.593226e+001
1.536896e+003,1.218427e+001
1.537860e+003,1.045943e+001
1.538824e+003,9.589493e+000
1.539788e+003,8.864372e+000
1.540752e+003,7.913193e+000
1.541717e+003,6.235474e+000
1.542681e+003,4.065239e+000
1.543645e+003,2.676331e+000
1.544609e+003,2.313087e+000
1.545573e+003,2.375023e+000
1.546538e+003,2.991966e+000
1.547502e+003,3.670471e+000
1.548466e+003,4.287880e+000
1.549430e+003,4.995895e+000
1.550395e+003,6.358887e+000
1.551359e+003,7.832695e+000
1.552323e+003,7.778503e+000
1.553287e+003,5.730705e+000
1.554252e+003,3.308609e+000
1.555216e+003,1.818565e+000
1.556180e+003,1.197792e+000
1.557144e+003,1.600845e+000
1.558109e+003,3.086960e+000
1.559073e+003,3.506615e+000
1.560037e+003,2.135368e+000
1.561001e+003,9.394913e-001
1.561966e+003,5.720367e-001
1.562930e+003,8.029556e-001
1.563894e+003,1.815277e+000
1.564858e+003,3.081055e+000
1.565823e+003,3.098961e+000
1.566787e+003,1.694366e+000
1.567751e+003,1.081123e+000
1.568715e+003,2.717819e+000
1.569679e+003,5.081505e+000
1.570644e+003,6.418648e+000
1.571608e+003,6.843460e+000
1.572572e+003,6.770668e+000
1.573536e+003,6.231750e+000
1.574500e+003,5.966263e+000
1.575465e+003,6.443283e+000
1.576429e+003,6.851051e+000
1.577393e+003,6.243744e+000
1.578357e+003,5.195396e+000
1.579322e+003,4.906540e+000
1.580286e+003,5.441246e+000
1.581250e+003,6.168457e+000
1.582214e+003,6.955467e+000
1.583179e+003,7.689056e+000
1.584143e+003,8.361755e+000
1.585107e+003,8.786751e+000
1.586071e+003,8.732254e+000
1.587036e+003,8.391380e+000
1.588000e+003,8.012512e+000
1.588964e+003,7.558838e+000
1.589928e+003,7.727852e+000
1.590893e+003,9.714539e+000
1.591857e+003,1.189754e+001
1.592821e+003,1.119765e+001
1.593785e+003,8.307236e+000
1.594750e+003,7.582130e+000
1.595714e+003,9.985085e+000
1.596678e+003,1.139659e+001
1.597642e+003,9.291016e+000
1.598606e+003,7.024498e+000
1.599571e+003,7.461563e+000
1.600535e+003,9.253990e+000
1.601499e+003,1.094887e+001
1.602463e+003,1.231058e+001
1.603427e+003,1.314862e+001
1.604392e+003,1.334205e+001
1.605356e+003,1.344039e+001
1.606320e+003,1.420734e+001
1.607284e+003,1.525263e+001
1.608249e+003,1.529948e+001
1.609213e+003,1.430494e+001
1.610177e+003,1.365211e+001
1.611141e+003,1.361975e+001
1.612106e+003,1.381717e+001
1.613070e+003,1.438770e+001
1.614034e+003,1.479799e+001
1.614998e+003,1.424364e+001
1.615963e+003,1.343320e+001
1.616927e+003,1.380303e+001
1.617891e+003,1.537020e+001
1.618855e+003,1.656336e+001
1.619820e+003,1.637209e+001
1.620784e+003,1.558822e+001
1.621748e+003,1.533771e+001
1.622712e+003,1.566469e+001
1.623677e+003,1.641837e+001
1.624641e+003,1.773892e+001
1.625605e+003,1.867563e+001
1.626569e+003,1.865042e+001
1.627533e+003,1.850041e+001
1.628498e+003,1.911851e+001
1.629462e+003,1.953147e+001
1.630426e+003,1.849113e+001
1.631390e+003,1.665043e+001
1.632354e+003,1.539198e+001
1.633319e+003,1.510078e+001
1.634283e+003,1.567340e+001
1.635247e+003,1.718536e+001
1.636211e+003,1.899966e+001
1.637176e+003,1.988510e+001
1.638140e+003,1.995360e+001
1.639104e+003,2.085310e+001
1.640068e+003,2.332256e+001
1.641033e+003,2.371789e+001
1.641997e+003,1.925654e+001
1.642961e+003,1.529609e+001
1.643925e+003,1.475561e+001
1.644890e+003,1.568566e+001
1.645854e+003,1.649396e+001
1.646818e+003,1.700648e+001
1.647782e+003,1.738576e+001
1.648747e+003,1.768501e+001
1.649711e+003,1.793044e+001
1.650675e+003,1.825519e+001
1.651639e+003,1.843005e+001
1.652604e+003,1.779298e+001
1.653568e+003,1.634072e+001
1.654532e+003,1.483174e+001
1.655496e+003,1.295773e+001
1.656460e+003,1.236083e+001
1.657425e+003,1.502327e+001
1.658389e+003,1.706750e+001
1.659353e+003,1.550407e+001
1.660317e+003,1.297790e+001
1.661281e+003,1.231702e+001
1.662246e+003,1.325008e+001
1.663210e+003,1.438217e+001
1.664174e+003,1.521889e+001
1.665138e+003,1.527525e+001
1.666103e+003,1.382108e+001
1.667067e+003,1.177040e+001
1.668031e+003,1.112572e+001
1.668995e+003,1.179711e+001
1.669960e+003,1.215156e+001
1.670924e+003,1.197215e+001
1.671888e+003,1.201453e+001
1.672852e+003,1.271565e+001
1.673817e+003,1.332678e+001
1.674781e+003,1.355495e+001
1.675745e+003,1.332161e+001
1.676709e+003,1.223263e+001
1.677674e+003,1.061005e+001
1.678638e+003,9.291809e+000
1.679602e+003,8.555115e+000
1.680566e+003,8.562126e+000
1.681531e+003,9.830345e+000
1.682495e+003,1.147203e+001
1.683459e+003,1.169135e+001
1.684423e+003,1.074316e+001
1.685387e+003,1.074098e+001
1.686352e+003,1.213107e+001
1.687316e+003,1.235104e+001
1.688280e+003,9.899559e+000
1.689244e+003,7.376694e+000
1.690208e+003,6.685272e+000
1.691173e+003,6.941422e+000
1.692137e+003,7.500000e+000
1.693101e+003,8.251198e+000
1.694065e+003,9.012711e+000
1.695030e+003,9.712791e+000
1.695994e+003,9.670074e+000
1.696958e+003,7.933960e+000
1.697922e+003,5.957138e+000
1.698887e+003,5.855820e+000
1.699851e+003,6.959267e+000
1.700815e+003,6.975914e+000
1.701779e+003,5.719666e+000
1.702744e+003,5.144432e+000
1.703708e+003,6.125969e+000
1.704672e+003,7.095169e+000
1.705636e+003,6.747742e+000
1.706601e+003,5.770203e+000
1.707565e+003,5.347466e+000
1.708529e+003,5.285774e+000
1.709493e+003,4.685081e+000
1.710458e+003,3.321228e+000
1.711422e+003,2.491943e+000
1.712386e+003,3.001862e+000
1.713350e+003,3.986809e+000
1.714314e+003,5.070808e+000
1.715279e+003,5.905319e+000
1.716243e+003,5.853722e+000
1.717207e+003,5.027351e+000
1.718171e+003,3.941650e+000
1.719135e+003,2.753548e+000
1.720100e+003,2.316017e+000
1.721064e+003,3.409012e+000
1.722028e+003,4.849716e+000
1.722992e+003,4.923019e+000
1.723957e+003,3.940437e+000
1.724921e+003,3.413879e+000
1.725885e+003,3.333061e+000
1.726849e+003,3.109970e+000
1.727814e+003,2.615952e+000
1.728778e+003,2.218964e+000
1.729742e+003,2.032211e+000
1.730706e+003,2.011780e+000
1.731671e+003,2.272697e+000
1.732635e+003,2.504501e+000
1.733599e+003,2.064964e+000
1.734563e+003,1.040657e+000
1.735528e+003,3.125687e-001
1.736492e+003,3.177948e-001
1.737456e+003,6.468811e-001
1.738420e+003,8.386612e-001
1.739385e+003,8.803864e-001
1.740349e+003,8.661499e-001
1.741313e+003,7.840652e-001
1.742277e+003,9.135284e-001
1.743241e+003,1.698830e+000
1.744206e+003,2.079659e+000
1.745170e+003,1.720230e+000
1.746134e+003,1.101822e+000
1.747098e+003,-1.332474e-001
1.748063e+003,-1.033058e+000
1.749027e+003,3.257751e-002
1.749991e+003,2.305969e+000
1.750955e+003,3.506775e+000
1.751919e+003,2.919334e+000
1.752884e+003,1.689148e+000
1.753848e+003,7.456055e-001
1.754812e+003,2.480469e-001
1.755776e+003,6.688995e-001
1.756741e+003,2.008789e+000
1.757705e+003,2.778313e+000
1.758669e+003,2.972473e+000
1.759633e+003,2.447647e+000
1.760598e+003,1.291656e-001
1.761562e+003,-1.448891e+000
1.762526e+003,-9.601746e-001
1.763490e+003,8.651733e-003
1.764455e+003,5.119324e-001
1.765419e+003,6.617279e-001
1.766383e+003,5.496826e-001
1.767347e+003,3.422012e-001
1.768312e+003,7.943878e-001
1.769276e+003,2.277298e+000
1.770240e+003,3.208374e+000
1.771204e+003,1.543495e+000
1.772168e+003,-1.286232e+000
1.773133e+003,-1.929306e+000
1.774097e+003,-6.240082e-001
1.775061e+003,2.110748e-001
1.776025e+003,2.131500e-001
1.776990e+003,4.466476e-001
1.777954e+003,1.692848e+000
1.778918e+003,2.447601e+000
1.779882e+003,8.964233e-001
1.780846e+003,-1.271729e+000
1.781811e+003,-1.458221e+000
1.782775e+003,-2.777634e-001
1.783739e+003,4.563141e-002
1.784703e+003,-8.834610e-001
1.785668e+003,-1.426453e+000
1.786632e+003,-7.777863e-001
1.787596e+003,1.552200e-001
1.788560e+003,1.125923e+000
1.789525e+003,1.822670e+000
1.790489e+003,1.340591e+000
1.791453e+003,1.485062e-001
1.792417e+003,-6.729126e-003
1.793382e+003,1.123146e+000
1.794346e+003,1.923920e+000
1.795310e+003,1.508575e+000
1.796274e+003,7.815399e-001
1.797239e+003,8.441162e-001
1.798203e+003,1.416977e+000
1.799167e+003,1.363579e+000
1.800131e+003,4.137573e-001
1.801095e+003,-7.760620e-002
1.802060e+003,1.459122e-001
1.803024e+003,5.706558e-001
1.803988e+003,1.334892e+000
1.804952e+003,1.987709e+000
1.805917e+003,2.317551e+000
1.806881e+003,2.429359e+000
1.807845e+003,2.556450e+000
1.808809e+003,2.558578e+000
1.809773e+003,1.785210e+000
1.810738e+003,3.992004e-001
1.811702e+003,-1.040878e-001
1.812666e+003,1.172020e+000
1.813630e+003,2.893562e+000
1.814595e+003,3.303757e+000
1.815559e+003,2.598358e+000
1.816523e+003,1.452293e+000
1.817487e+003,-2.123413e-001
1.818452e+003,-1.324356e+000
1.819416e+003,-2.047073e+000
1.820380e+003,-1.346581e+000
1.821344e+003,2.558289e+000
1.822309e+003,5.706131e+000
1.823273e+003,5.065414e+000
1.824237e+003,3.219208e+000
1.825201e+003,2.603477e+000
1.826166e+003,2.954041e+000
1.827130e+003,3.343979e+000
1.828094e+003,3.571106e+000
1.829058e+003,3.478416e+000
1.830022e+003,3.046532e+000
1.830987e+003,2.251007e+000
1.831951e+003,3.491440e-001
1.832915e+003,-1.404152e+000
1.833879e+003,-4.295044e-001
1.834844e+003,2.172623e+000
1.835808e+003,2.475044e+000
1.836772e+003,1.780930e-001
1.837736e+003,-1.167801e+000
1.838700e+003,-1.991272e-002
1.839665e+003,1.780830e+000
1.840629e+003,2.654945e+000
1.841593e+003,2.899193e+000
1.842557e+003,3.079330e+000
1.843522e+003,3.191933e+000
1.844486e+003,3.211273e+000
1.845450e+003,2.882973e+000
1.846414e+003,3.103531e+000
1.847379e+003,4.875191e+000
1.848343e+003,5.633621e+000
1.849307e+003,3.541031e+000
1.850271e+003,1.381340e+000
1.851236e+003,1.208298e+000
1.852200e+003,2.249687e+000
1.853164e+003,3.528458e+000
1.854128e+003,4.590317e+000
1.855093e+003,5.009727e+000
1.856057e+003,4.721245e+000
1.857021e+003,4.184715e+000
1.857985e+003,3.709114e+000
1.858949e+003,3.389908e+000
1.859914e+003,3.557358e+000
1.860878e+003,4.081718e+000
1.861842e+003,4.068733e+000
1.862806e+003,3.481148e+000
1.863771e+003,3.085609e+000
1.864735e+003,3.031540e+000
1.865699e+003,2.932976e+000
1.866663e+003,2.576866e+000
1.867627e+003,2.304131e+000
1.868592e+003,2.430138e+000
1.869556e+003,2.734795e+000
1.870520e+003,2.895798e+000
1.871484e+003,2.925804e+000
1.872449e+003,2.983063e+000
1.873413e+003,3.307411e+000
1.874377e+003,3.367874e+000
1.875341e+003,2.147095e+000
1.876306e+003,1.493820e+000
1.877270e+003,3.280258e+000
1.878234e+003,5.266708e+000
1.879198e+003,4.743866e+000
1.880163e+003,2.958382e+000
1.881127e+003,2.535667e+000
1.882091e+003,3.601967e+000
1.883055e+003,4.584229e+000
1.884020e+003,4.794220e+000
1.884984e+003,4.703949e+000
1.885948e+003,4.741402e+000
1.886912e+003,4.865181e+000
1.887876e+003,5.092453e+000
1.888841e+003,5.355911e+000
1.889805e+003,4.435036e+000
1.890769e+003,1.772087e+000
1.891733e+003,1.157349e+000
1.892698e+003,4.103302e+000
1.893662e+003,6.167732e+000
1.894626e+003,5.428925e+000
1.895590e+003,3.965530e+000
1.896554e+003,2.588692e+000
1.897519e+003,1.768684e+000
1.898483e+003,2.508598e+000
1.899447e+003,4.229019e+000
1.900411e+003,4.902771e+000
1.901376e+003,4.134506e+000
1.902340e+003,3.924248e+000
1.903304e+003,5.677803e+000
1.904268e+003,7.116570e+000
1.905233e+003,6.566566e+000
1.906197e+003,5.346458e+000
1.907161e+003,4.859077e+000
1.908125e+003,4.704803e+000
1.909090e+003,3.789734e+000
1.910054e+003,2.252357e+000
1.911018e+003,1.111221e+000
1.911982e+003,7.831192e-001
1.912947e+003,1.328644e+000
1.913911e+003,2.780441e+000
1.914875e+003,4.398529e+000
1.915839e+003,4.990356e+000
1.916803e+003,4.714111e+000
1.917768e+003,4.447922e+000
1.918732e+003,4.100891e+000
1.919696e+003,4.699203e+000
1.920660e+003,6.823723e+000
1.921625e+003,8.361977e+000
1.922589e+003,8.795387e+000
1.923553e+003,8.606392e+000
1.924517e+003,7.602913e+000
1.925481e+003,6.483002e+000
1.926446e+003,5.648872e+000
1.927410e+003,5.224258e+000
1.928374e+003,5.675690e+000
1.929338e+003,6.874939e+000
1.930303e+003,7.312164e+000
1.931267e+003,6.306786e+000
1.932231e+003,5.751434e+000
1.933195e+003,7.074577e+000
1.934160e+003,8.346649e+000
1.935124e+003,7.881119e+000
1.936088e+003,6.770378e+000
1.937052e+003,6.591774e+000
1.938017e+003,6.909966e+000
1.938981e+003,6.035278e+000
1.939945e+003,4.150612e+000
1.940909e+003,3.669174e+000
1.941874e+003,5.512131e+000
1.942838e+003,7.339233e+000
1.943802e+003,6.975197e+000
1.944766e+003,5.678223e+000
1.945730e+003,6.027954e+000
1.946695e+003,7.684814e+000
1.947659e+003,7.865585e+000
1.948623e+003,6.333321e+000
1.949587e+003,6.097511e+000
1.950552e+003,7.991364e+000
1.951516e+003,9.131592e+000
1.952480e+003,8.342300e+000
1.953444e+003,7.020714e+000
1.954408e+003,5.649330e+000
1.955373e+003,4.700645e+000
1.956337e+003,5.314720e+000
1.957301e+003,6.989937e+000
1.958265e+003,7.690453e+000
1.959230e+003,7.239754e+000
1.960194e+003,7.008873e+000
1.961158e+003,6.724495e+000
1.962122e+003,7.214470e+000
1.963087e+003,1.014117e+001
1.964051e+003,1.215934e+001
1.965015e+003,1.042278e+001
1.965979e+003,7.768021e+000
1.966944e+003,7.133652e+000
1.967908e+003,7.754242e+000
1.968872e+003,7.489090e+000
1.969836e+003,6.336960e+000
1.970801e+003,6.243797e+000
1.971765e+003,7.949669e+000
1.972729e+003,9.556129e+000
1.973693e+003,9.373535e+000
1.974657e+003,8.467209e+000
1.975622e+003,8.334656e+000
1.976586e+003,8.735497e+000
1.977550e+003,9.077774e+000
1.978514e+003,9.398880e+000
1.979479e+003,1.004639e+001
1.980443e+003,1.101070e+001
1.981407e+003,1.147012e+001
1.982371e+003,1.112554e+001
1.983335e+003,1.038618e+001
1.984300e+003,9.393501e+000
1.985264e+003,8.852379e+000
1.986228e+003,1.006515e+001
1.987192e+003,1.252325e+001
1.988157e+003,1.354680e+001
1.989121e+003,1.286660e+001
1.990085e+003,1.222743e+001
1.991049e+003,1.179501e+001
1.992014e+003,1.112310e+001
1.992978e+003,9.650124e+000
1.993942e+003,8.577148e+000
1.994906e+003,8.095879e+000
1.995871e+003,8.369743e+000
1.996835e+003,1.030849e+001
1.997799e+003,1.264450e+001
1.998763e+003,1.335686e+001
1.999728e+003,1.266063e+001
