5.003444e+002,3.388593e+001
5.013087e+002,3.111877e+001
5.022729e+002,2.796106e+001
5.032371e+002,2.519861e+001
5.042014e+002,2.327930e+001
5.051656e+002,2.225562e+001
5.061298e+002,2.240747e+001
5.070941e+002,2.413861e+001
5.080583e+002,2.794843e+001
5.090225e+002,2.874011e+001
5.099868e+002,2.440106e+001
5.109510e+002,2.023126e+001
5.119152e+002,1.931366e+001
5.128795e+002,2.202863e+001
5.138437e+002,2.433997e+001
5.148079e+002,2.460577e+001
5.157722e+002,2.465503e+001
5.167364e+002,2.538586e+001
5.177006e+002,2.656543e+001
5.186649e+002,2.689020e+001
5.196291e+002,2.441272e+001
5.205933e+002,2.128125e+001
5.215576e+002,1.895099e+001
5.225218e+002,1.741089e+001
5.234860e+002,1.659918e+001
5.244503e+002,1.694086e+001
5.254145e+002,1.953851e+001
5.263787e+002,2.101025e+001
5.273430e+002,2.056372e+001
5.283072e+002,1.954163e+001
5.292714e+002,1.971661e+001
5.302357e+002,2.136835e+001
5.311999e+002,2.222198e+001
5.321641e+002,2.356927e+001
5.331284e+002,2.414703e+001
5.340926e+002,2.173535e+001
5.350568e+002,1.497949e+001
5.360211e+002,9.081665e+000
5.369853e+002,1.118915e+001
5.379495e+002,1.584607e+001
5.389138e+002,1.838641e+001
5.398780e+002,1.700024e+001
5.408422e+002,1.342072e+001
5.418065e+002,1.276862e+001
5.427707e+002,1.456830e+001
5.437349e+002,1.554553e+001
5.446992e+002,1.451514e+001
5.456634e+002,1.217047e+001
5.466276e+002,1.116113e+001
5.475919e+002,1.411084e+001
5.485561e+002,1.546497e+001
5.495203e+002,1.352429e+001
5.504846e+002,1.001892e+001
5.514488e+002,7.615234e+000
5.524130e+002,7.748413e+000
5.533773e+002,8.685608e+000
5.543415e+002,9.518860e+000
5.553057e+002,1.041534e+001
5.562700e+002,1.187109e+001
5.572342e+002,1.410095e+001
5.581984e+002,1.581500e+001
5.591627e+002,1.299323e+001
5.601269e+002,7.840271e+000
5.610911e+002,4.744324e+000
5.620554e+002,5.993286e+000
5.630196e+002,1.072083e+001
5.639838e+002,1.260413e+001
5.649481e+002,9.354492e+000
5.659123e+002,6.680054e+000
5.668765e+002,6.995300e+000
5.678408e+002,9.213257e+000
5.688050e+002,9.262451e+000
5.697692e+002,2.581299e+000
5.707335e+002,-2.719910e+000
5.716977e+002,-3.199707e+000
5.726619e+002,-9.159546e-001
5.736262e+002,1.434570e+000
5.745904e+002,2.190857e+000
5.755546e+002,2.087463e+000
5.765189e+002,1.831909e+000
5.774831e+002,1.177246e+000
5.784473e+002,2.661133e-002
5.794116e+002,-1.488159e+000
5.803758e+002,-2.906433e+000
5.813400e+002,-1.731567e+000
5.823043e+002,2.592468e+000
5.832685e+002,5.536316e+000
5.842327e+002,5.504944e+000
5.851970e+002,3.206970e+000
5.861612e+002,1.393555e+000
5.871254e+002,2.191772e-001
5.880897e+002,-9.001465e-001
5.890539e+002,-2.975708e+000
5.900181e+002,-5.147339e+000
5.909824e+002,-5.638000e+000
5.919466e+002,-2.525452e+000
5.929108e+002,1.292786e+000
5.938751e+002,2.774231e+000
5.948393e+002,2.674927e+000
5.958035e+002,1.950684e+000
5.967678e+002,1.399292e+000
5.977320e+002,1.286072e+000
5.986962e+002,2.965149e+000
5.996605e+002,6.138550e+000
6.006247e+002,7.924805e+000
6.015889e+002,6.325562e+000
6.025532e+002,1.698120e+000
6.035174e+002,-1.405090e+000
6.044816e+002,-2.373840e+000
6.054459e+002,-2.004395e+000
6.064101e+002,8.654175e-001
6.073743e+002,4.778442e+000
6.083386e+002,7.184753e+000
6.093028e+002,6.243103e+000
6.102670e+002,4.804504e+000
6.112313e+002,5.199585e+000
6.121955e+002,6.441895e+000
6.131597e+002,7.174683e+000
6.141240e+002,6.465515e+000
6.150882e+002,4.713196e+000
6.160524e+002,3.987122e+000
6.170167e+002,4.315063e+000
6.179809e+002,4.708130e+000
6.189451e+002,4.413574e+000
6.199094e+002,3.361145e+000
6.208736e+002,2.661438e+000
6.218378e+002,3.651428e+000
6.228021e+002,4.395447e+000
6.237663e+002,4.996643e+000
6.247305e+002,5.332764e+000
6.256948e+002,4.803589e+000
6.266590e+002,2.094482e+000
6.276232e+002,-5.877686e-002
6.285875e+002,8.746338e-001
6.295517e+002,3.237122e+000
6.305159e+002,5.407715e+000
6.314802e+002,6.308167e+000
6.324444e+002,5.864380e+000
6.334086e+002,3.296570e+000
6.343729e+002,-1.800537e-001
6.353371e+002,-1.481750e+000
6.363013e+002,8.606567e-001
6.372656e+002,5.231384e+000
6.382298e+002,6.150879e+000
6.391940e+002,-1.244080e+000
6.401583e+002,-6.177490e+000
6.411225e+002,-6.816284e+000
6.420867e+002,-4.927795e+000
6.430510e+002,-2.779480e+000
6.440152e+002,-1.226379e+000
6.449794e+002,1.409912e-002
6.459437e+002,1.713806e+000
6.469079e+002,2.901855e+000
6.478721e+002,2.610657e+000
6.488364e+002,7.706909e-001
6.498006e+002,-1.429321e+000
6.507648e+002,-2.237976e+000
6.517291e+002,-2.035278e+000
6.526933e+002,-9.259033e-001
6.536575e+002,1.146423e+000
6.546218e+002,3.066406e+000
6.555860e+002,2.605530e+000
6.565502e+002,-2.203491e+000
6.575145e+002,-5.381592e+000
6.584787e+002,-6.756287e+000
6.594429e+002,-6.847961e+000
6.604072e+002,-5.750427e+000
6.613714e+002,-3.335022e+000
6.623356e+002,-8.409424e-001
6.632999e+002,1.338623e+000
6.642641e+002,2.711792e+000
6.652283e+002,2.953064e+000
6.661926e+002,2.472595e+000
6.671568e+002,2.222900e+000
6.681210e+002,3.310974e+000
6.690853e+002,4.832581e+000
6.700495e+002,4.884155e+000
6.710137e+002,3.531128e+000
6.719780e+002,1.936890e+000
6.729422e+002,1.299500e+000
6.739064e+002,1.726746e+000
6.748707e+002,1.492126e+000
6.758349e+002,5.189819e-001
6.767991e+002,-9.696655e-001
6.777634e+002,-3.032288e+000
6.787276e+002,-5.168701e+000
6.796918e+002,-5.942749e+000
6.806561e+002,-4.640015e+000
6.816203e+002,-2.750061e+000
6.825845e+002,5.627441e-002
6.835488e+002,2.892456e+000
6.845130e+002,4.266724e+000
6.854772e+002,2.968018e+000
6.864415e+002,9.331665e-001
6.874057e+002,2.455688e+000
6.883699e+002,5.825317e+000
6.893342e+002,7.611511e+000
6.902984e+002,5.887512e+000
6.912626e+002,1.472778e+000
6.922269e+002,-8.885498e-001
6.931911e+002,1.132324e+000
6.941553e+002,3.389099e+000
6.951196e+002,5.566040e+000
6.960838e+002,7.056885e+000
6.970480e+002,6.948425e+000
6.980123e+002,4.330811e+000
6.989765e+002,2.622803e+000
6.999407e+002,3.816589e+000
7.009050e+002,5.697327e+000
7.018692e+002,6.457031e+000
7.028334e+002,5.465820e+000
7.037977e+002,3.570923e+000
7.047619e+002,1.747498e+000
7.057261e+002,7.858887e-001
7.066904e+002,2.338989e+000
7.076546e+002,6.632568e+000
7.086188e+002,1.125372e+001
7.095831e+002,1.215411e+001
7.105473e+002,7.111023e+000
7.115115e+002,4.561096e+000
7.124758e+002,6.083740e+000
7.134400e+002,7.696350e+000
7.144042e+002,6.850830e+000
7.153685e+002,3.685913e+000
7.163327e+002,1.377563e+000
7.172969e+002,2.393921e+000
7.182612e+002,3.778809e+000
7.192254e+002,4.141113e+000
7.201896e+002,3.687317e+000
7.211539e+002,3.319031e+000
7.221181e+002,3.883179e+000
7.230823e+002,4.912842e+000
7.240466e+002,5.070007e+000
7.250108e+002,4.909058e+000
7.259750e+002,5.197754e+000
7.269393e+002,6.054260e+000
7.279035e+002,6.910828e+000
7.288677e+002,6.897888e+000
7.298320e+002,7.718262e+000
7.307962e+002,7.194397e+000
7.317604e+002,2.809753e+000
7.327247e+002,-1.962036e+000
7.336889e+002,-1.889832e+000
7.346531e+002,5.325500e+000
7.356174e+002,1.115564e+001
7.365816e+002,1.147345e+001
7.375458e+002,9.945435e+000
7.385101e+002,8.610107e+000
7.394743e+002,8.355774e+000
7.404385e+002,9.328064e+000
7.414028e+002,1.225885e+001
7.423670e+002,1.536078e+001
7.433312e+002,1.476379e+001
7.442955e+002,1.058698e+001
7.452597e+002,6.105164e+000
7.462239e+002,4.893616e+000
7.471882e+002,7.883362e+000
7.481524e+002,9.200928e+000
7.491166e+002,5.587097e+000
7.500809e+002,2.976807e+000
7.510451e+002,4.749268e+000
7.520093e+002,9.659363e+000
7.529736e+002,1.297247e+001
7.539378e+002,1.241998e+001
7.549020e+002,1.089240e+001
7.558663e+002,9.195007e+000
7.568306e+002,8.080505e+000
7.577948e+002,8.636536e+000
7.587590e+002,1.126526e+001
7.597233e+002,1.480115e+001
7.606875e+002,1.707068e+001
7.616517e+002,1.845563e+001
7.626160e+002,1.769666e+001
7.635802e+002,1.356799e+001
7.645444e+002,8.201721e+000
7.655087e+002,6.226196e+000
7.664729e+002,9.852661e+000
7.674371e+002,1.179700e+001
7.684014e+002,1.029761e+001
7.693656e+002,8.377136e+000
7.703298e+002,8.338562e+000
7.712941e+002,1.033722e+001
7.722583e+002,1.201013e+001
7.732225e+002,1.097815e+001
7.741868e+002,9.485901e+000
7.751510e+002,9.246094e+000
7.761152e+002,1.013019e+001
7.770795e+002,1.152612e+001
7.780437e+002,1.284784e+001
7.790079e+002,1.385175e+001
7.799722e+002,1.291534e+001
7.809364e+002,9.651917e+000
7.819006e+002,7.619629e+000
7.828649e+002,9.240906e+000
7.838291e+002,1.361676e+001
7.847933e+002,1.708685e+001
7.857576e+002,1.921179e+001
7.867218e+002,1.924084e+001
7.876860e+002,1.669745e+001
7.886503e+002,1.351477e+001
7.896145e+002,1.084729e+001
7.905787e+002,9.122192e+000
7.915430e+002,8.636658e+000
7.925072e+002,1.065997e+001
7.934714e+002,1.273230e+001
7.944357e+002,1.225995e+001
7.953999e+002,9.702087e+000
7.963641e+002,7.238037e+000
7.973284e+002,7.163025e+000
7.982926e+002,9.666504e+000
7.992568e+002,1.124158e+001
8.002211e+002,1.071210e+001
8.011853e+002,9.498230e+000
8.021495e+002,8.752686e+000
8.031138e+002,9.005005e+000
8.040780e+002,1.002948e+001
8.050422e+002,1.112482e+001
8.060065e+002,1.282874e+001
8.069707e+002,1.595178e+001
8.079349e+002,1.875171e+001
8.088992e+002,1.941754e+001
8.098634e+002,1.766406e+001
8.108276e+002,1.544550e+001
8.117919e+002,1.519366e+001
8.127561e+002,1.548694e+001
8.137203e+002,1.502667e+001
8.146846e+002,1.415094e+001
8.156488e+002,1.337268e+001
8.166130e+002,1.290497e+001
8.175773e+002,1.249078e+001
8.185415e+002,1.321710e+001
8.195057e+002,1.525726e+001
8.204700e+002,1.710693e+001
8.214342e+002,1.818939e+001
8.223984e+002,1.872223e+001
8.233627e+002,1.944507e+001
8.243269e+002,2.113062e+001
8.252911e+002,2.231152e+001
8.262554e+002,2.274792e+001
8.272196e+002,2.202081e+001
8.281838e+002,1.863135e+001
8.291481e+002,1.264044e+001
8.301123e+002,6.738708e+000
8.310765e+002,6.115051e+000
8.320408e+002,1.031879e+001
8.330050e+002,1.284106e+001
8.339692e+002,1.302576e+001
8.349335e+002,1.291901e+001
8.358977e+002,1.511420e+001
8.368619e+002,2.042822e+001
8.378262e+002,2.403070e+001
8.387904e+002,2.459137e+001
8.397546e+002,2.402094e+001
8.407189e+002,2.121564e+001
8.416831e+002,1.804803e+001
8.426473e+002,1.787439e+001
8.436116e+002,2.277618e+001
8.445758e+002,2.879565e+001
8.455400e+002,3.151831e+001
8.465043e+002,3.201556e+001
8.474685e+002,3.184918e+001
8.484327e+002,3.186682e+001
8.493970e+002,3.197284e+001
8.503612e+002,3.138171e+001
8.513254e+002,2.968707e+001
8.522897e+002,2.855499e+001
8.532539e+002,2.804382e+001
8.542181e+002,2.733118e+001
8.551824e+002,2.597614e+001
8.561466e+002,2.464825e+001
8.571108e+002,2.515656e+001
8.580751e+002,2.759985e+001
8.590393e+002,3.009863e+001
8.600035e+002,3.373822e+001
8.609678e+002,3.708221e+001
8.619320e+002,3.773444e+001
8.628962e+002,3.493994e+001
8.638605e+002,3.178870e+001
8.648247e+002,3.428973e+001
8.657889e+002,3.948126e+001
8.667532e+002,4.076904e+001
8.677174e+002,3.730414e+001
8.686816e+002,3.258069e+001
8.696459e+002,3.075555e+001
8.706101e+002,3.258429e+001
8.715743e+002,3.364355e+001
8.725386e+002,3.322583e+001
8.735028e+002,3.311932e+001
8.744670e+002,3.287097e+001
8.754313e+002,3.277893e+001
8.763955e+002,3.413733e+001
8.773597e+002,3.822021e+001
8.783240e+002,4.174530e+001
8.792882e+002,4.162073e+001
8.802524e+002,4.002216e+001
8.812167e+002,3.885712e+001
8.821809e+002,3.850488e+001
8.831451e+002,3.794965e+001
8.841094e+002,3.577893e+001
8.850736e+002,3.261682e+001
8.860378e+002,3.382001e+001
8.870021e+002,4.052789e+001
8.879663e+002,4.607300e+001
8.889305e+002,4.504919e+001
8.898948e+002,3.904120e+001
8.908590e+002,3.733862e+001
8.918232e+002,4.499054e+001
8.927875e+002,5.037994e+001
8.937517e+002,4.951581e+001
8.947159e+002,4.684814e+001
8.956802e+002,4.598218e+001
8.966444e+002,4.735181e+001
8.976086e+002,4.838611e+001
8.985729e+002,4.676935e+001
8.995371e+002,4.392950e+001
9.005013e+002,4.130981e+001
9.014656e+002,3.938690e+001
9.024298e+002,3.916730e+001
9.033940e+002,4.131921e+001
9.043583e+002,4.510266e+001
9.053225e+002,4.743909e+001
9.062867e+002,4.645441e+001
9.072510e+002,4.567877e+001
9.082152e+002,4.628125e+001
9.091794e+002,4.740558e+001
9.101437e+002,4.765613e+001
9.111079e+002,4.674188e+001
9.120721e+002,4.699084e+001
9.130364e+002,5.109552e+001
9.140006e+002,5.484564e+001
9.149648e+002,5.598340e+001
9.159291e+002,5.539240e+001
9.168933e+002,5.470013e+001
9.178575e+002,5.485339e+001
9.188218e+002,5.547107e+001
9.197860e+002,5.615625e+001
9.207502e+002,5.673486e+001
9.217145e+002,5.662140e+001
9.226787e+002,5.619330e+001
9.236429e+002,5.565533e+001
9.246072e+002,5.463336e+001
9.255714e+002,5.253986e+001
9.265356e+002,5.122882e+001
9.274999e+002,5.156384e+001
9.284641e+002,5.170538e+001
9.294283e+002,5.142627e+001
9.303926e+002,5.076245e+001
9.313568e+002,4.983875e+001
9.323210e+002,4.869720e+001
9.332853e+002,4.704791e+001
9.342495e+002,4.313129e+001
9.352137e+002,3.857257e+001
9.361780e+002,3.710364e+001
9.371422e+002,3.978833e+001
9.381064e+002,4.383301e+001
9.390707e+002,4.492810e+001
9.400349e+002,4.195966e+001
9.409991e+002,4.032135e+001
9.419634e+002,3.955481e+001
9.429276e+002,4.021326e+001
9.438918e+002,4.353876e+001
9.448561e+002,4.822522e+001
9.458203e+002,5.238501e+001
9.467845e+002,5.580255e+001
9.477488e+002,5.800958e+001
9.487130e+002,5.718671e+001
9.496772e+002,5.585547e+001
9.506415e+002,5.618323e+001
9.516057e+002,5.810413e+001
9.525699e+002,6.006104e+001
9.535342e+002,6.046985e+001
9.544984e+002,5.935480e+001
9.554626e+002,5.835071e+001
9.564269e+002,5.774902e+001
9.573911e+002,5.869043e+001
9.583553e+002,6.317432e+001
9.593196e+002,6.835352e+001
9.602838e+002,6.890363e+001
9.612480e+002,6.302850e+001
9.622123e+002,5.860443e+001
9.631765e+002,5.920410e+001
9.641407e+002,6.072955e+001
9.651050e+002,6.164526e+001
9.660692e+002,6.159491e+001
9.670334e+002,6.064252e+001
9.679977e+002,5.905273e+001
9.689619e+002,5.786151e+001
9.699261e+002,5.890106e+001
9.708904e+002,6.107904e+001
9.718546e+002,6.254779e+001
9.728188e+002,6.277338e+001
9.737831e+002,6.180750e+001
9.747473e+002,5.908875e+001
9.757115e+002,5.373169e+001
9.766758e+002,5.250513e+001
9.776400e+002,6.115546e+001
9.786042e+002,6.770148e+001
9.795685e+002,6.825275e+001
9.805327e+002,6.489307e+001
9.814969e+002,6.030823e+001
9.824612e+002,5.565808e+001
9.834254e+002,5.260449e+001
9.843896e+002,5.318219e+001
9.853539e+002,5.529474e+001
9.863181e+002,5.689832e+001
9.872823e+002,5.767804e+001
9.882466e+002,5.845386e+001
9.892108e+002,6.034686e+001
9.901750e+002,6.395288e+001
9.911393e+002,6.877081e+001
9.921035e+002,7.462103e+001
9.930677e+002,7.924341e+001
9.940320e+002,8.222968e+001
9.949962e+002,8.515265e+001
9.959604e+002,8.937622e+001
9.969247e+002,9.507172e+001
9.978889e+002,1.015286e+002
9.988531e+002,1.093918e+002
9.998174e+002,1.150277e+002
1.000782e+003,1.153677e+002
1.001746e+003,1.134146e+002
1.002710e+003,1.135100e+002
1.003674e+003,1.173263e+002
1.004639e+003,1.226117e+002
1.005603e+003,1.254814e+002
1.006567e+003,1.254672e+002
1.007531e+003,1.248126e+002
1.008495e+003,1.230732e+002
1.009460e+003,1.217616e+002
1.010424e+003,1.223713e+002
1.011388e+003,1.244329e+002
1.012352e+003,1.256932e+002
1.013317e+003,1.260627e+002
1.014281e+003,1.244041e+002
1.015245e+003,1.195344e+002
1.016209e+003,1.133420e+002
1.017174e+003,1.075028e+002
1.018138e+003,1.020172e+002
1.019102e+003,9.517145e+001
1.020066e+003,8.529138e+001
1.021031e+003,7.476233e+001
1.021995e+003,7.042828e+001
1.022959e+003,7.053613e+001
1.023923e+003,6.988556e+001
1.024887e+003,6.670557e+001
1.025852e+003,6.192816e+001
1.026816e+003,5.711816e+001
1.027780e+003,5.263629e+001
1.028744e+003,4.826398e+001
1.029709e+003,4.160443e+001
1.030673e+003,3.760065e+001
1.031637e+003,3.936102e+001
1.032601e+003,4.373022e+001
1.033566e+003,4.666925e+001
1.034530e+003,4.688403e+001
1.035494e+003,4.591107e+001
1.036458e+003,4.470624e+001
1.037422e+003,4.342773e+001
1.038387e+003,4.280109e+001
1.039351e+003,4.257861e+001
1.040315e+003,4.143347e+001
1.041279e+003,3.822125e+001
1.042244e+003,3.403949e+001
1.043208e+003,3.360925e+001
1.044172e+003,4.017999e+001
1.045136e+003,4.400684e+001
1.046101e+003,4.382538e+001
1.047065e+003,4.258282e+001
1.048029e+003,4.153094e+001
1.048993e+003,4.083118e+001
1.049958e+003,4.069019e+001
1.050922e+003,4.159436e+001
1.051886e+003,4.294495e+001
1.052850e+003,4.397076e+001
1.053814e+003,4.490430e+001
1.054779e+003,4.619360e+001
1.055743e+003,4.777844e+001
1.056707e+003,4.909735e+001
1.057671e+003,4.955548e+001
1.058636e+003,4.904993e+001
1.059600e+003,4.698346e+001
1.060564e+003,4.214172e+001
1.061528e+003,3.878534e+001
1.062493e+003,3.664154e+001
1.063457e+003,3.587927e+001
1.064421e+003,3.795953e+001
1.065385e+003,4.309247e+001
1.066349e+003,4.698163e+001
1.067314e+003,4.675323e+001
1.068278e+003,4.541785e+001
1.069242e+003,4.532593e+001
1.070206e+003,4.588428e+001
1.071171e+003,4.545673e+001
1.072135e+003,4.334509e+001
1.073099e+003,4.082007e+001
1.074063e+003,4.047034e+001
1.075028e+003,4.275653e+001
1.075992e+003,4.405566e+001
1.076956e+003,4.431671e+001
1.077920e+003,4.319458e+001
1.078885e+003,3.975696e+001
1.079849e+003,3.579102e+001
1.080813e+003,3.456439e+001
1.081777e+003,3.704883e+001
1.082741e+003,3.970331e+001
1.083706e+003,3.976428e+001
1.084670e+003,3.938379e+001
1.085634e+003,3.971710e+001
1.086598e+003,4.055640e+001
1.087563e+003,4.177075e+001
1.088527e+003,4.335291e+001
1.089491e+003,4.454572e+001
1.090455e+003,4.277795e+001
1.091420e+003,3.724011e+001
1.092384e+003,3.515424e+001
1.093348e+003,3.794037e+001
1.094312e+003,4.075928e+001
1.095276e+003,4.101227e+001
1.096241e+003,3.971783e+001
1.097205e+003,3.913129e+001
1.098169e+003,3.941077e+001
1.099133e+003,3.955798e+001
1.100098e+003,3.893439e+001
1.101062e+003,3.873669e+001
1.102026e+003,3.995856e+001
1.102990e+003,4.229272e+001
1.103955e+003,4.479047e+001
1.104919e+003,4.678790e+001
1.105883e+003,4.834467e+001
1.106847e+003,4.993536e+001
1.107812e+003,5.144598e+001
1.108776e+003,5.223212e+001
1.109740e+003,5.239484e+001
1.110704e+003,5.158978e+001
1.111668e+003,4.859637e+001
1.112633e+003,4.477966e+001
1.113597e+003,4.523401e+001
1.114561e+003,5.184106e+001
1.115525e+003,5.853534e+001
1.116490e+003,6.414044e+001
1.117454e+003,6.839703e+001
1.118418e+003,7.108447e+001
1.119382e+003,7.284265e+001
1.120347e+003,7.453400e+001
1.121311e+003,7.629956e+001
1.122275e+003,7.711780e+001
1.123239e+003,7.568127e+001
1.124203e+003,7.295703e+001
1.125168e+003,7.294012e+001
1.126132e+003,7.677148e+001
1.127096e+003,8.153375e+001
1.128060e+003,8.497992e+001
1.129025e+003,8.714447e+001
1.129989e+003,8.884576e+001
1.130953e+003,8.943945e+001
1.131917e+003,9.067584e+001
1.132882e+003,9.304785e+001
1.133846e+003,9.644897e+001
1.134810e+003,1.011261e+002
1.135774e+003,1.068323e+002
1.136739e+003,1.131915e+002
1.137703e+003,1.199260e+002
1.138667e+003,1.263974e+002
1.139631e+003,1.306950e+002
1.140595e+003,1.336036e+002
1.141560e+003,1.423272e+002
1.142524e+003,1.589218e+002
1.143488e+003,1.766221e+002
1.144452e+003,1.887079e+002
1.145417e+003,1.979853e+002
1.146381e+003,2.157469e+002
1.147345e+003,2.461290e+002
1.148309e+003,2.742042e+002
1.149274e+003,2.940575e+002
1.150238e+003,3.136991e+002
1.151202e+003,3.389634e+002
1.152166e+003,3.672378e+002
1.153130e+003,3.932240e+002
1.154095e+003,4.138437e+002
1.155059e+003,4.291266e+002
1.156023e+003,4.405033e+002
1.156987e+003,4.470715e+002
1.157952e+003,4.441871e+002
1.158916e+003,4.317780e+002
1.159880e+003,4.165745e+002
1.160844e+003,4.015585e+002
1.161809e+003,3.844891e+002
1.162773e+003,3.613903e+002
1.163737e+003,3.311381e+002
1.164701e+003,3.001082e+002
1.165666e+003,2.646733e+002
1.166630e+003,2.351680e+002
1.167594e+003,2.168801e+002
1.168558e+003,2.061893e+002
1.169522e+003,1.983108e+002
1.170487e+003,1.916132e+002
1.171451e+003,1.882263e+002
1.172415e+003,1.909740e+002
1.173379e+003,1.982149e+002
1.174344e+003,2.024685e+002
1.175308e+003,2.042362e+002
1.176272e+003,2.029100e+002
1.177236e+003,1.970721e+002
1.178201e+003,1.893271e+002
1.179165e+003,1.827093e+002
1.180129e+003,1.768420e+002
1.181093e+003,1.695692e+002
1.182057e+003,1.581302e+002
1.183022e+003,1.494194e+002
1.183986e+003,1.463635e+002
1.184950e+003,1.466109e+002
1.185914e+003,1.492532e+002
1.186879e+003,1.531763e+002
1.187843e+003,1.560719e+002
1.188807e+003,1.558550e+002
1.189771e+003,1.538130e+002
1.190736e+003,1.548203e+002
1.191700e+003,1.593303e+002
1.192664e+003,1.614141e+002
1.193628e+003,1.602092e+002
1.194593e+003,1.576093e+002
1.195557e+003,1.545776e+002
1.196521e+003,1.510423e+002
1.197485e+003,1.469053e+002
1.198449e+003,1.420056e+002
1.199414e+003,1.372982e+002
1.200378e+003,1.331426e+002
1.201342e+003,1.294616e+002
1.202306e+003,1.265267e+002
1.203271e+003,1.236813e+002
1.204235e+003,1.195460e+002
1.205199e+003,1.137291e+002
1.206163e+003,1.080275e+002
1.207128e+003,1.055818e+002
1.208092e+003,1.067305e+002
1.209056e+003,1.038872e+002
1.210020e+003,9.523376e+001
1.210984e+003,8.710590e+001
1.211949e+003,8.147186e+001
1.212913e+003,7.698181e+001
1.213877e+003,7.208691e+001
1.214841e+003,6.681934e+001
1.215806e+003,6.221606e+001
1.216770e+003,5.918701e+001
1.217734e+003,5.583142e+001
1.218698e+003,4.941132e+001
1.219663e+003,4.237195e+001
1.220627e+003,3.762506e+001
1.221591e+003,3.580286e+001
1.222555e+003,3.635162e+001
1.223520e+003,3.897748e+001
1.224484e+003,4.299829e+001
1.225448e+003,4.424121e+001
1.226412e+003,4.148627e+001
1.227376e+003,3.801685e+001
1.228341e+003,3.128973e+001
1.229305e+003,2.637048e+001
1.230269e+003,2.764417e+001
1.231233e+003,3.218060e+001
1.232198e+003,3.357825e+001
1.233162e+003,3.020667e+001
1.234126e+003,2.797070e+001
1.235090e+003,3.286932e+001
1.236055e+003,3.856561e+001
1.237019e+003,3.734570e+001
1.237983e+003,3.128851e+001
1.238947e+003,2.660376e+001
1.239911e+003,2.611530e+001
1.240876e+003,2.803088e+001
1.241840e+003,2.965546e+001
1.242804e+003,3.104529e+001
1.243768e+003,3.163556e+001
1.244733e+003,2.954889e+001
1.245697e+003,2.929163e+001
1.246661e+003,3.174945e+001
1.247625e+003,3.477814e+001
1.248590e+003,3.752795e+001
1.249554e+003,3.997064e+001
1.250518e+003,4.180334e+001
1.251482e+003,4.259698e+001
1.252447e+003,4.295618e+001
1.253411e+003,4.434277e+001
1.254375e+003,4.614484e+001
1.255339e+003,4.614850e+001
1.256303e+003,4.460474e+001
1.257268e+003,4.440479e+001
1.258232e+003,4.718158e+001
1.259196e+003,5.115021e+001
1.260160e+003,5.295514e+001
1.261125e+003,5.222723e+001
1.262089e+003,5.427161e+001
1.263053e+003,6.344373e+001
1.264017e+003,6.965198e+001
1.264982e+003,6.867102e+001
1.265946e+003,6.545935e+001
1.266910e+003,6.435638e+001
1.267874e+003,6.582813e+001
1.268839e+003,6.878333e+001
1.269803e+003,7.261121e+001
1.270767e+003,7.507990e+001
1.271731e+003,7.089410e+001
1.272695e+003,6.054364e+001
1.273660e+003,5.415338e+001
1.274624e+003,5.256805e+001
1.275588e+003,5.134760e+001
1.276552e+003,4.835254e+001
1.277517e+003,4.488477e+001
1.278481e+003,4.283966e+001
1.279445e+003,4.222150e+001
1.280409e+003,4.218939e+001
1.281374e+003,4.296277e+001
1.282338e+003,4.379071e+001
1.283302e+003,4.499829e+001
1.284266e+003,4.550378e+001
1.285230e+003,4.344940e+001
1.286195e+003,3.912079e+001
1.287159e+003,3.489825e+001
1.288123e+003,3.293286e+001
1.289087e+003,3.306403e+001
1.290052e+003,3.404303e+001
1.291016e+003,3.623572e+001
1.291980e+003,3.647308e+001
1.292944e+003,3.257349e+001
1.293909e+003,2.891730e+001
1.294873e+003,2.767493e+001
1.295837e+003,2.806854e+001
1.296801e+003,2.931110e+001
1.297766e+003,3.109558e+001
1.298730e+003,3.167645e+001
1.299694e+003,2.893768e+001
1.300658e+003,2.621478e+001
1.301622e+003,2.881757e+001
1.302587e+003,3.367529e+001
1.303551e+003,3.513202e+001
1.304515e+003,3.265308e+001
1.305479e+003,3.071967e+001
1.306444e+003,3.293042e+001
1.307408e+003,3.767096e+001
1.308372e+003,4.015076e+001
1.309336e+003,3.988617e+001
1.310301e+003,3.865155e+001
1.311265e+003,3.584668e+001
1.312229e+003,3.348846e+001
1.313193e+003,3.181531e+001
1.314157e+003,3.092224e+001
1.315122e+003,3.124298e+001
1.316086e+003,3.234454e+001
1.317050e+003,3.290784e+001
1.318014e+003,3.222278e+001
1.318979e+003,3.122424e+001
1.319943e+003,3.149298e+001
1.320907e+003,3.296649e+001
1.321871e+003,3.300848e+001
1.322836e+003,3.018469e+001
1.323800e+003,2.855011e+001
1.324764e+003,3.177692e+001
1.325728e+003,3.692902e+001
1.326693e+003,3.857166e+001
1.327657e+003,3.625641e+001
1.328621e+003,3.355438e+001
1.329585e+003,3.144086e+001
1.330549e+003,3.162292e+001
1.331514e+003,3.564343e+001
1.332478e+003,3.958929e+001
1.333442e+003,3.997058e+001
1.334406e+003,3.716803e+001
1.335371e+003,3.333685e+001
1.336335e+003,2.984253e+001
1.337299e+003,2.674689e+001
1.338263e+003,2.382074e+001
1.339228e+003,2.068842e+001
1.340192e+003,2.160364e+001
1.341156e+003,3.210730e+001
1.342120e+003,3.822961e+001
1.343084e+003,3.417682e+001
1.344049e+003,2.765607e+001
1.345013e+003,2.480542e+001
1.345977e+003,2.569183e+001
1.346941e+003,2.818994e+001
1.347906e+003,3.161072e+001
1.348870e+003,3.487268e+001
1.349834e+003,3.735492e+001
1.350798e+003,3.825043e+001
1.351763e+003,3.647516e+001
1.352727e+003,3.252985e+001
1.353691e+003,2.839636e+001
1.354655e+003,2.450354e+001
1.355620e+003,2.182288e+001
1.356584e+003,2.243896e+001
1.357548e+003,2.593762e+001
1.358512e+003,2.673718e+001
1.359476e+003,2.212689e+001
1.360441e+003,1.990710e+001
1.361405e+003,2.559515e+001
1.362369e+003,3.071863e+001
1.363333e+003,3.043506e+001
1.364298e+003,2.734857e+001
1.365262e+003,2.536792e+001
1.366226e+003,2.551923e+001
1.367190e+003,2.621014e+001
1.368155e+003,2.600281e+001
1.369119e+003,2.548389e+001
1.370083e+003,2.671442e+001
1.371047e+003,3.073236e+001
1.372011e+003,3.300818e+001
1.372976e+003,3.151147e+001
1.373940e+003,3.005316e+001
1.374904e+003,3.065509e+001
1.375868e+003,3.204767e+001
1.376833e+003,3.272791e+001
1.377797e+003,3.234357e+001
1.378761e+003,3.032458e+001
1.379725e+003,2.578314e+001
1.380690e+003,2.206116e+001
1.381654e+003,2.403235e+001
1.382618e+003,2.849786e+001
1.383582e+003,3.059064e+001
1.384547e+003,3.045831e+001
1.385511e+003,3.192181e+001
1.386475e+003,3.722522e+001
1.387439e+003,4.306116e+001
1.388403e+003,4.386639e+001
1.389368e+003,3.961261e+001
1.390332e+003,3.743085e+001
1.391296e+003,3.969824e+001
1.392260e+003,4.017871e+001
1.393225e+003,3.523767e+001
1.394189e+003,3.049561e+001
1.395153e+003,2.951501e+001
1.396117e+003,3.073193e+001
1.397082e+003,3.134021e+001
1.398046e+003,3.075067e+001
1.399010e+003,3.058923e+001
1.399974e+003,3.209467e+001
1.400938e+003,3.419513e+001
1.401903e+003,3.494891e+001
1.402867e+003,3.512231e+001
1.403831e+003,3.611432e+001
1.404795e+003,3.670795e+001
1.405760e+003,3.852893e+001
1.406724e+003,4.345673e+001
1.407688e+003,4.744916e+001
1.408652e+003,4.589355e+001
1.409617e+003,3.986877e+001
1.410581e+003,3.416034e+001
1.411545e+003,3.036261e+001
1.412509e+003,2.874048e+001
1.413474e+003,3.057129e+001
1.414438e+003,3.343121e+001
1.415402e+003,3.377405e+001
1.416366e+003,3.240112e+001
1.417330e+003,3.246814e+001
1.418295e+003,3.548950e+001
1.419259e+003,3.928101e+001
1.420223e+003,4.100696e+001
1.421187e+003,4.072430e+001
1.422152e+003,4.054230e+001
1.423116e+003,4.091425e+001
1.424080e+003,4.181207e+001
1.425044e+003,4.288086e+001
1.426009e+003,4.393628e+001
1.426973e+003,4.568140e+001
1.427937e+003,4.685370e+001
1.428901e+003,4.523346e+001
1.429865e+003,4.168018e+001
1.430830e+003,3.999579e+001
1.431794e+003,4.241711e+001
1.432758e+003,4.620953e+001
1.433722e+003,4.632373e+001
1.434687e+003,4.287738e+001
1.435651e+003,4.337103e+001
1.436615e+003,4.980249e+001
1.437579e+003,5.400336e+001
1.438544e+003,5.443182e+001
1.439508e+003,5.370074e+001
1.440472e+003,5.318146e+001
1.441436e+003,5.352344e+001
1.442401e+003,5.597321e+001
1.443365e+003,6.025354e+001
1.444329e+003,6.254810e+001
1.445293e+003,5.980280e+001
1.446257e+003,5.473889e+001
1.447222e+003,5.196765e+001
1.448186e+003,5.111340e+001
1.449150e+003,5.091913e+001
1.450114e+003,5.139203e+001
1.451079e+003,5.142365e+001
1.452043e+003,5.083905e+001
1.453007e+003,4.986176e+001
1.453971e+003,4.798145e+001
1.454936e+003,4.527625e+001
1.455900e+003,4.378174e+001
1.456864e+003,4.432434e+001
1.457828e+003,4.559717e+001
1.458792e+003,4.744507e+001
1.459757e+003,4.855249e+001
1.460721e+003,4.714325e+001
1.461685e+003,4.437262e+001
1.462649e+003,4.270239e+001
1.463614e+003,4.295764e+001
1.464578e+003,4.429413e+001
1.465542e+003,4.591656e+001
1.466506e+003,4.751489e+001
1.467471e+003,4.907294e+001
1.468435e+003,5.165027e+001
1.469399e+003,5.155743e+001
1.470363e+003,4.380389e+001
1.471328e+003,3.911798e+001
1.472292e+003,4.148669e+001
1.473256e+003,4.513324e+001
1.474220e+003,4.639648e+001
1.475184e+003,4.651117e+001
1.476149e+003,4.863727e+001
1.477113e+003,5.311053e+001
1.478077e+003,5.668115e+001
1.479041e+003,5.652307e+001
1.480006e+003,5.398322e+001
1.480970e+003,5.240759e+001
1.481934e+003,5.109607e+001
1.482898e+003,5.185498e+001
1.483863e+003,5.613806e+001
1.484827e+003,5.996539e+001
1.485791e+003,6.248370e+001
1.486755e+003,6.474323e+001
1.487719e+003,6.768182e+001
1.488684e+003,7.067456e+001
1.489648e+003,7.198578e+001
1.490612e+003,7.139075e+001
1.491576e+003,7.186438e+001
1.492541e+003,7.587964e+001
1.493505e+003,8.181085e+001
1.494469e+003,8.617328e+001
1.495433e+003,8.881097e+001
1.496398e+003,9.206360e+001
1.497362e+003,9.718237e+001
1.498326e+003,1.023723e+002
1.499290e+003,1.050821e+002
1.500255e+003,1.083087e+002
1.501219e+003,1.168063e+002
1.502183e+003,1.295760e+002
1.503147e+003,1.408513e+002
1.504111e+003,1.489191e+002
1.505076e+003,1.576819e+002
1.506040e+003,1.683556e+002
1.507004e+003,1.822740e+002
1.507968e+003,2.008624e+002
1.508933e+003,2.231742e+002
1.509897e+003,2.478228e+002
1.510861e+003,2.751073e+002
1.511825e+003,3.039949e+002
1.512790e+003,3.329599e+002
1.513754e+003,3.629393e+002
1.514718e+003,3.972117e+002
1.515682e+003,4.352642e+002
1.516646e+003,4.716293e+002
1.517611e+003,5.065557e+002
1.518575e+003,5.395933e+002
1.519539e+003,5.744225e+002
1.520503e+003,6.043396e+002
1.521468e+003,6.267664e+002
1.522432e+003,6.410275e+002
1.523396e+003,6.461988e+002
1.524360e+003,6.425966e+002
1.525325e+003,6.315848e+002
1.526289e+003,6.142324e+002
1.527253e+003,5.926356e+002
1.528217e+003,5.703826e+002
1.529182e+003,5.479367e+002
1.530146e+003,5.207467e+002
1.531110e+003,4.883781e+002
1.532074e+003,4.507121e+002
1.533039e+003,4.030215e+002
1.534003e+003,3.541782e+002
1.534967e+003,3.068906e+002
1.535931e+003,2.633282e+002
1.536896e+003,2.246896e+002
1.537860e+003,1.916122e+002
1.538824e+003,1.650251e+002
1.539788e+003,1.449113e+002
1.540752e+003,1.283709e+002
1.541717e+003,1.117728e+002
1.542681e+003,9.610693e+001
1.543645e+003,8.583405e+001
1.544609e+003,8.437976e+001
1.545573e+003,8.112512e+001
1.546538e+003,7.272906e+001
1.547502e+003,6.557452e+001
1.548466e+003,6.300153e+001
1.549430e+003,6.313904e+001
1.550395e+003,6.469836e+001
1.551359e+003,6.641626e+001
1.552323e+003,6.631342e+001
1.553287e+003,6.382306e+001
1.554252e+003,6.009192e+001
1.555216e+003,5.576971e+001
1.556180e+003,5.160376e+001
1.557144e+003,4.965924e+001
1.558109e+003,5.022113e+001
1.559073e+003,5.037646e+001
1.560037e+003,4.915344e+001
1.561001e+003,4.786664e+001
1.561966e+003,4.792517e+001
1.562930e+003,4.851801e+001
1.563894e+003,4.845636e+001
1.564858e+003,4.781726e+001
1.565823e+003,4.720160e+001
1.566787e+003,4.667944e+001
1.567751e+003,4.619904e+001
1.568715e+003,4.595239e+001
1.569679e+003,4.571411e+001
1.570644e+003,4.485913e+001
1.571608e+003,4.332477e+001
1.572572e+003,4.170258e+001
1.573536e+003,4.030475e+001
1.574500e+003,3.985944e+001
1.575465e+003,4.044708e+001
1.576429e+003,4.191669e+001
1.577393e+003,4.474878e+001
1.578357e+003,4.780243e+001
1.579322e+003,4.896960e+001
1.580286e+003,4.839014e+001
1.581250e+003,4.787463e+001
1.582214e+003,4.775854e+001
1.583179e+003,4.865240e+001
1.584143e+003,5.239313e+001
1.585107e+003,5.558582e+001
1.586071e+003,5.331110e+001
1.587036e+003,4.787360e+001
1.588000e+003,4.486780e+001
1.588964e+003,4.518701e+001
1.589928e+003,4.673816e+001
1.590893e+003,4.897906e+001
1.591857e+003,5.105505e+001
1.592821e+003,5.127905e+001
1.593785e+003,5.014575e+001
1.594750e+003,5.022449e+001
1.595714e+003,5.185168e+001
1.596678e+003,5.301514e+001
1.597642e+003,5.279700e+001
1.598606e+003,5.215759e+001
1.599571e+003,5.088330e+001
1.600535e+003,5.052063e+001
1.601499e+003,5.396893e+001
1.602463e+003,6.036151e+001
1.603427e+003,6.546271e+001
1.604392e+003,6.772260e+001
1.605356e+003,6.742450e+001
1.606320e+003,6.414813e+001
1.607284e+003,5.883618e+001
1.608249e+003,5.330713e+001
1.609213e+003,4.748029e+001
1.610177e+003,4.525293e+001
1.611141e+003,4.860327e+001
1.612106e+003,5.228754e+001
1.613070e+003,5.497815e+001
1.614034e+003,5.580597e+001
1.614998e+003,5.272461e+001
1.615963e+003,4.791876e+001
1.616927e+003,4.474146e+001
1.617891e+003,4.367731e+001
1.618855e+003,4.397827e+001
1.619820e+003,4.540106e+001
1.620784e+003,4.557324e+001
1.621748e+003,4.052997e+001
1.622712e+003,3.219385e+001
1.623677e+003,2.924475e+001
1.624641e+003,3.280975e+001
1.625605e+003,3.571252e+001
1.626569e+003,3.447723e+001
1.627533e+003,3.334528e+001
1.628498e+003,3.591711e+001
1.629462e+003,3.917163e+001
1.630426e+003,4.052112e+001
1.631390e+003,4.025897e+001
1.632354e+003,3.928436e+001
1.633319e+003,3.795227e+001
1.634283e+003,3.694196e+001
1.635247e+003,3.665283e+001
1.636211e+003,3.698798e+001
1.637176e+003,3.883264e+001
1.638140e+003,4.209485e+001
1.639104e+003,4.157544e+001
1.640068e+003,3.542310e+001
1.641033e+003,3.123456e+001
1.641997e+003,3.219965e+001
1.642961e+003,3.410980e+001
1.643925e+003,3.601178e+001
1.644890e+003,3.677765e+001
1.645854e+003,3.342236e+001
1.646818e+003,2.813782e+001
1.647782e+003,2.735724e+001
1.648747e+003,3.267072e+001
1.649711e+003,3.780896e+001
1.650675e+003,3.760016e+001
1.651639e+003,3.486279e+001
1.652604e+003,3.476294e+001
1.653568e+003,3.696558e+001
1.654532e+003,3.945569e+001
1.655496e+003,4.276721e+001
1.656460e+003,4.408569e+001
1.657425e+003,4.187268e+001
1.658389e+003,3.879144e+001
1.659353e+003,3.570770e+001
1.660317e+003,3.292279e+001
1.661281e+003,3.052069e+001
1.662246e+003,2.855560e+001
1.663210e+003,2.774054e+001
1.664174e+003,2.837592e+001
1.665138e+003,2.857733e+001
1.666103e+003,2.615479e+001
1.667067e+003,2.263275e+001
1.668031e+003,2.148871e+001
1.668995e+003,2.268561e+001
1.669960e+003,2.413806e+001
1.670924e+003,2.590509e+001
1.671888e+003,2.766992e+001
1.672852e+003,2.971667e+001
1.673817e+003,3.065356e+001
1.674781e+003,2.829309e+001
1.675745e+003,2.532745e+001
1.676709e+003,2.495227e+001
1.677674e+003,2.659790e+001
1.678638e+003,2.798859e+001
1.679602e+003,2.841083e+001
1.680566e+003,2.784406e+001
1.681531e+003,2.604559e+001
1.682495e+003,2.414996e+001
1.683459e+003,2.404504e+001
1.684423e+003,2.505255e+001
1.685387e+003,2.419629e+001
1.686352e+003,2.106262e+001
1.687316e+003,1.867279e+001
1.688280e+003,1.831476e+001
1.689244e+003,1.824536e+001
1.690208e+003,1.647607e+001
1.691173e+003,1.457690e+001
1.692137e+003,1.476593e+001
1.693101e+003,1.682837e+001
1.694065e+003,1.895557e+001
1.695030e+003,2.033441e+001
1.695994e+003,2.088257e+001
1.696958e+003,2.013922e+001
1.697922e+003,1.953265e+001
1.698887e+003,2.192932e+001
1.699851e+003,2.587482e+001
1.700815e+003,2.567816e+001
1.701779e+003,2.078796e+001
1.702744e+003,1.786469e+001
1.703708e+003,2.002411e+001
1.704672e+003,2.244611e+001
1.705636e+003,2.061469e+001
1.706601e+003,1.690198e+001
1.707565e+003,1.587341e+001
1.708529e+003,1.688885e+001
1.709493e+003,1.673218e+001
1.710458e+003,1.478314e+001
1.711422e+003,1.338354e+001
1.712386e+003,1.380219e+001
1.713350e+003,1.543677e+001
1.714314e+003,1.829999e+001
1.715279e+003,2.097980e+001
1.716243e+003,2.155377e+001
1.717207e+003,2.011914e+001
1.718171e+003,1.733783e+001
1.719135e+003,1.350104e+001
1.720100e+003,1.052655e+001
1.721064e+003,9.632629e+000
1.722028e+003,9.778931e+000
1.722992e+003,1.009882e+001
1.723957e+003,1.093323e+001
1.724921e+003,1.179468e+001
1.725885e+003,1.225049e+001
1.726849e+003,1.075256e+001
1.727814e+003,5.121399e+000
1.728778e+003,1.769104e+000
1.729742e+003,5.018616e+000
1.730706e+003,1.002887e+001
1.731671e+003,1.212860e+001
1.732635e+003,1.138519e+001
1.733599e+003,9.081543e+000
1.734563e+003,6.466003e+000
1.735528e+003,5.901550e+000
1.736492e+003,8.414001e+000
1.737456e+003,1.122345e+001
1.738420e+003,1.089923e+001
1.739385e+003,8.333679e+000
1.740349e+003,8.396362e+000
1.741313e+003,1.272357e+001
1.742277e+003,1.300311e+001
1.743241e+003,4.307922e+000
1.744206e+003,2.453613e-001
1.745170e+003,6.938232e+000
1.746134e+003,1.306097e+001
1.747098e+003,1.100232e+001
1.748063e+003,5.952942e+000
1.749027e+003,4.163635e+000
1.749991e+003,5.472778e+000
1.750955e+003,6.882690e+000
1.751919e+003,7.048706e+000
1.752884e+003,5.725220e+000
1.753848e+003,2.641113e+000
1.754812e+003,-3.700562e-001
1.755776e+003,1.197449e+000
1.756741e+003,7.485229e+000
1.757705e+003,9.772766e+000
1.758669e+003,5.554626e+000
1.759633e+003,3.658997e+000
1.760598e+003,7.128235e+000
1.761562e+003,9.159424e+000
1.762526e+003,6.637390e+000
1.763490e+003,3.979797e+000
1.764455e+003,4.890381e+000
1.765419e+003,7.590637e+000
1.766383e+003,8.838257e+000
1.767347e+003,8.088928e+000
1.768312e+003,6.666687e+000
1.769276e+003,5.053955e+000
1.770240e+003,3.346985e+000
1.771204e+003,1.933105e+000
1.772168e+003,1.535278e+000
1.773133e+003,3.400513e+000
1.774097e+003,7.190918e+000
1.775061e+003,9.691650e+000
1.776025e+003,1.013354e+001
1.776990e+003,9.072205e+000
1.777954e+003,6.370483e+000
1.778918e+003,4.446289e+000
1.779882e+003,5.237488e+000
1.780846e+003,6.791077e+000
1.781811e+003,6.825745e+000
1.782775e+003,5.904663e+000
1.783739e+003,5.581482e+000
1.784703e+003,6.264587e+000
1.785668e+003,7.088135e+000
1.786632e+003,7.301697e+000
1.787596e+003,6.974609e+000
1.788560e+003,6.406799e+000
1.789525e+003,6.331665e+000
1.790489e+003,7.508057e+000
1.791453e+003,9.266785e+000
1.792417e+003,1.014520e+001
1.793382e+003,9.900085e+000
1.794346e+003,9.256531e+000
1.795310e+003,8.512695e+000
1.796274e+003,7.734009e+000
1.797239e+003,7.371826e+000
1.798203e+003,7.522705e+000
1.799167e+003,6.479736e+000
1.800131e+003,2.653870e+000
1.801095e+003,2.019531e+000
1.802060e+003,9.801147e+000
1.803024e+003,1.386469e+001
1.803988e+003,9.805664e+000
1.804952e+003,5.169739e+000
1.805917e+003,3.271729e+000
1.806881e+003,2.693298e+000
1.807845e+003,2.032715e+000
1.808809e+003,1.542725e+000
1.809773e+003,2.119080e+000
1.810738e+003,3.793091e+000
1.811702e+003,5.785034e+000
1.812666e+003,7.539795e+000
1.813630e+003,8.704834e+000
1.814595e+003,8.725708e+000
1.815559e+003,7.752747e+000
1.816523e+003,6.979126e+000
1.817487e+003,6.578674e+000
1.818452e+003,5.569214e+000
1.819416e+003,3.830505e+000
1.820380e+003,2.939392e+000
1.821344e+003,2.935852e+000
1.822309e+003,3.525452e+000
1.823273e+003,5.782898e+000
1.824237e+003,8.193970e+000
1.825201e+003,8.694153e+000
1.826166e+003,7.706970e+000
1.827130e+003,6.558655e+000
1.828094e+003,5.375061e+000
1.829058e+003,4.965332e+000
1.830022e+003,6.270752e+000
1.830987e+003,8.029175e+000
1.831951e+003,1.011365e+001
1.832915e+003,1.137085e+001
1.833879e+003,9.133728e+000
1.834844e+003,4.690918e+000
1.835808e+003,1.804810e+000
1.836772e+003,1.212402e+000
1.837736e+003,3.054321e+000
1.838700e+003,7.354919e+000
1.839665e+003,9.435730e+000
1.840629e+003,4.494446e+000
1.841593e+003,-3.163452e+000
1.842557e+003,-4.487122e+000
1.843522e+003,3.965454e-001
1.844486e+003,3.366089e+000
1.845450e+003,4.368958e+000
1.846414e+003,4.565491e+000
1.847379e+003,2.360962e+000
1.848343e+003,7.135010e-002
1.849307e+003,-1.867554e+000
1.850271e+003,-2.908081e+000
1.851236e+003,-1.481201e+000
1.852200e+003,7.230835e-001
1.853164e+003,5.265503e-001
1.854128e+003,-1.971191e+000
1.855093e+003,-4.108582e+000
1.856057e+003,-4.409180e+000
1.857021e+003,-2.988037e+000
1.857985e+003,1.393433e-001
1.858949e+003,3.047729e+000
1.859914e+003,1.768799e+000
1.860878e+003,-2.558838e+000
1.861842e+003,-3.831543e+000
1.862806e+003,-2.083679e+000
1.863771e+003,-1.223206e+000
1.864735e+003,-2.203369e+000
1.865699e+003,-3.742371e+000
1.866663e+003,-5.907410e+000
1.867627e+003,-6.384705e+000
1.868592e+003,-1.669312e+000
1.869556e+003,4.317627e+000
1.870520e+003,3.856384e+000
1.871484e+003,-1.864868e+000
1.872449e+003,-4.162476e+000
1.873413e+003,1.790771e-001
1.874377e+003,3.766907e+000
1.875341e+003,1.660706e+000
1.876306e+003,-2.215576e-001
1.877270e+003,2.180603e+000
1.878234e+003,5.192932e+000
1.879198e+003,5.204712e+000
1.880163e+003,3.262024e+000
1.881127e+003,1.258484e+000
1.882091e+003,-3.552246e-002
1.883055e+003,1.349487e-001
1.884020e+003,1.903015e+000
1.884984e+003,4.197998e+000
1.885948e+003,6.146790e+000
1.886912e+003,7.044312e+000
1.887876e+003,5.092834e+000
1.888841e+003,7.525024e-001
1.889805e+003,-5.090942e-001
1.890769e+003,2.044739e+000
1.891733e+003,3.678894e+000
1.892698e+003,3.314758e+000
1.893662e+003,2.713806e+000
1.894626e+003,2.673584e+000
1.895590e+003,2.619202e+000
1.896554e+003,1.906921e+000
1.897519e+003,1.583923e+000
1.898483e+003,2.953918e+000
1.899447e+003,5.112793e+000
1.900411e+003,6.173889e+000
1.901376e+003,5.957092e+000
1.902340e+003,5.307434e+000
1.903304e+003,3.938416e+000
1.904268e+003,2.985596e+000
1.905233e+003,3.657104e+000
1.906197e+003,4.927307e+000
1.907161e+003,6.285645e+000
1.908125e+003,7.364197e+000
1.909090e+003,7.270935e+000
1.910054e+003,5.767578e+000
1.911018e+003,2.879089e+000
1.911982e+003,-8.616333e-001
1.912947e+003,-3.394470e+000
1.913911e+003,-3.345215e+000
1.914875e+003,-2.109558e+000
1.915839e+003,-2.025208e+000
1.916803e+003,-3.065491e+000
1.917768e+003,-3.476685e+000
1.918732e+003,-3.042603e+000
1.919696e+003,-1.103210e+000
1.920660e+003,3.720398e+000
1.921625e+003,6.781372e+000
1.922589e+003,5.418213e+000
1.923553e+003,4.202271e+000
1.924517e+003,7.012817e+000
1.925481e+003,9.788086e+000
1.926446e+003,8.096497e+000
1.927410e+003,4.156616e+000
1.928374e+003,2.099854e+000
1.929338e+003,1.969543e+000
1.930303e+003,2.717712e+000
1.931267e+003,5.521484e+000
1.932231e+003,6.808289e+000
1.933195e+003,2.568604e+000
1.934160e+003,-1.885132e+000
1.935124e+003,-2.437500e+000
1.936088e+003,-1.471741e+000
1.937052e+003,-1.083252e+000
1.938017e+003,-1.287476e+000
1.938981e+003,-2.139832e+000
1.939945e+003,-3.491394e+000
1.940909e+003,-4.953003e+000
1.941874e+003,-6.302917e+000
1.942838e+003,-6.405151e+000
1.943802e+003,-3.702332e+000
1.944766e+003,3.007202e-001
1.945730e+003,1.353149e+000
1.946695e+003,-2.364502e-001
1.947659e+003,1.209167e+000
1.948623e+003,6.100891e+000
1.949587e+003,7.753784e+000
1.950552e+003,4.879456e+000
1.951516e+003,2.123169e+000
1.952480e+003,7.564697e-001
1.953444e+003,3.725586e-001
1.954408e+003,1.078613e+000
1.955373e+003,1.692871e+000
1.956337e+003,1.091064e+000
1.957301e+003,-1.188354e-001
1.958265e+003,-1.649109e+000
1.959230e+003,-3.580261e+000
1.960194e+003,-4.498047e+000
1.961158e+003,-5.493408e+000
1.962122e+003,-4.973999e+000
1.963087e+003,-6.904907e-001
1.964051e+003,3.208923e+000
1.965015e+003,5.029907e+000
1.965979e+003,5.547363e+000
1.966944e+003,4.357056e+000
1.967908e+003,2.349854e+000
1.968872e+003,1.331726e+000
1.969836e+003,1.502258e+000
1.970801e+003,1.662048e+000
1.971765e+003,1.363953e+000
1.972729e+003,1.444885e+000
1.973693e+003,2.653625e+000
1.974657e+003,4.341797e+000
1.975622e+003,5.950012e+000
1.976586e+003,6.828674e+000
1.977550e+003,4.841553e+000
1.978514e+003,9.199829e-001
1.979479e+003,-3.557129e-001
1.980443e+003,1.490662e+000
1.981407e+003,4.030762e+000
1.982371e+003,6.611389e+000
1.983335e+003,8.739807e+000
1.984300e+003,9.889832e+000
1.985264e+003,9.407898e+000
1.986228e+003,6.180969e+000
1.987192e+003,1.159363e+000
1.988157e+003,-4.233398e-001
1.989121e+003,2.689514e+000
1.990085e+003,3.619263e+000
1.991049e+003,1.240662e+000
1.992014e+003,-5.329590e-001
1.992978e+003,-1.956726e+000
1.993942e+003,-2.219727e+000
1.994906e+003,1.729126e-001
1.995871e+003,2.596863e+000
1.996835e+003,3.082886e+000
1.997799e+003,2.693542e+000
1.998763e+003,2.518127e+000
1.999728e+003,2.576843e+000
