5.003444e+002,1.847498e+001
5.013087e+002,2.278687e+001
5.022729e+002,2.293958e+001
5.032371e+002,2.049060e+001
5.042014e+002,1.847705e+001
5.051656e+002,1.703674e+001
5.061298e+002,1.617883e+001
5.070941e+002,1.576111e+001
5.080583e+002,1.543823e+001
5.090225e+002,1.517212e+001
5.099868e+002,1.562244e+001
5.109510e+002,1.542395e+001
5.119152e+002,1.298010e+001
5.128795e+002,8.037476e+000
5.138437e+002,5.853516e+000
5.148079e+002,1.134778e+001
5.157722e+002,1.744727e+001
5.167364e+002,2.162732e+001
5.177006e+002,2.298840e+001
5.186649e+002,2.186011e+001
5.196291e+002,1.773779e+001
5.205933e+002,1.338379e+001
5.215576e+002,1.024268e+001
5.225218e+002,8.196045e+000
5.234860e+002,7.649170e+000
5.244503e+002,1.042700e+001
5.254145e+002,1.934631e+001
5.263787e+002,2.170154e+001
5.273430e+002,1.277832e+001
5.283072e+002,5.058594e-001
5.292714e+002,-4.135132e+000
5.302357e+002,2.186279e+000
5.311999e+002,7.210693e+000
5.321641e+002,1.113086e+001
5.331284e+002,1.396826e+001
5.340926e+002,1.495654e+001
5.350568e+002,1.329749e+001
5.360211e+002,1.056299e+001
5.369853e+002,9.045044e+000
5.379495e+002,8.343994e+000
5.389138e+002,7.944092e+000
5.398780e+002,7.476440e+000
5.408422e+002,6.819946e+000
5.418065e+002,5.925903e+000
5.427707e+002,4.823364e+000
5.437349e+002,3.651001e+000
5.446992e+002,1.959106e+000
5.456634e+002,2.849121e-001
5.466276e+002,8.660889e-001
5.475919e+002,7.199097e+000
5.485561e+002,1.223792e+001
5.495203e+002,1.481067e+001
5.504846e+002,1.562219e+001
5.514488e+002,1.597620e+001
5.524130e+002,1.665759e+001
5.533773e+002,1.726001e+001
5.543415e+002,1.811487e+001
5.553057e+002,1.858472e+001
5.562700e+002,1.760181e+001
5.572342e+002,1.442615e+001
5.581984e+002,1.002014e+001
5.591627e+002,6.786255e+000
5.601269e+002,5.028198e+000
5.610911e+002,5.232788e+000
5.620554e+002,7.608521e+000
5.630196e+002,1.138574e+001
5.639838e+002,1.222949e+001
5.649481e+002,8.044312e+000
5.659123e+002,4.115967e+000
5.668765e+002,2.223755e+000
5.678408e+002,2.260132e+000
5.688050e+002,2.718262e+000
5.697692e+002,2.405029e+000
5.707335e+002,1.197388e+000
5.716977e+002,-1.783691e+000
5.726619e+002,-4.759399e+000
5.736262e+002,-4.862915e+000
5.745904e+002,5.350342e-001
5.755546e+002,7.278564e+000
5.765189e+002,6.880737e+000
5.774831e+002,2.069580e+000
5.784473e+002,-1.071411e+000
5.794116e+002,1.889648e+000
5.803758e+002,1.065271e+001
5.813400e+002,1.439783e+001
5.823043e+002,1.127759e+001
5.832685e+002,6.894775e+000
5.842327e+002,3.118652e+000
5.851970e+002,5.042725e-001
5.861612e+002,-6.262207e-001
5.871254e+002,-9.719238e-001
5.880897e+002,2.093506e-001
5.890539e+002,4.294800e+000
5.900181e+002,9.333008e+000
5.909824e+002,1.219214e+001
5.919466e+002,1.033142e+001
5.929108e+002,7.832520e+000
5.938751e+002,9.990479e+000
5.948393e+002,1.430688e+001
5.958035e+002,1.689148e+001
5.967678e+002,1.505005e+001
5.977320e+002,9.862915e+000
5.986962e+002,6.552490e+000
5.996605e+002,3.609741e+000
6.006247e+002,3.361206e+000
6.015889e+002,9.171021e+000
6.025532e+002,2.040271e+001
6.035174e+002,2.639087e+001
6.044816e+002,2.135022e+001
6.054459e+002,1.709375e+001
6.064101e+002,1.539368e+001
6.073743e+002,1.548584e+001
6.083386e+002,1.548633e+001
6.093028e+002,1.392200e+001
6.102670e+002,1.391650e+001
6.112313e+002,1.848926e+001
6.121955e+002,2.515063e+001
6.131597e+002,3.112280e+001
6.141240e+002,3.441028e+001
6.150882e+002,3.493054e+001
6.160524e+002,3.149390e+001
6.170167e+002,2.522864e+001
6.179809e+002,2.018286e+001
6.189451e+002,1.780054e+001
6.199094e+002,1.748010e+001
6.208736e+002,1.749854e+001
6.218378e+002,2.044385e+001
6.228021e+002,2.232556e+001
6.237663e+002,2.216650e+001
6.247305e+002,2.115881e+001
6.256948e+002,2.110913e+001
6.266590e+002,2.273572e+001
6.276232e+002,2.323462e+001
6.285875e+002,2.134644e+001
6.295517e+002,1.869080e+001
6.305159e+002,1.629114e+001
6.314802e+002,1.459387e+001
6.324444e+002,1.353552e+001
6.334086e+002,1.540393e+001
6.343729e+002,1.956128e+001
6.353371e+002,2.193323e+001
6.363013e+002,2.043665e+001
6.372656e+002,1.635095e+001
6.382298e+002,1.502454e+001
6.391940e+002,2.087695e+001
6.401583e+002,2.300964e+001
6.411225e+002,2.008484e+001
6.420867e+002,1.568420e+001
6.430510e+002,1.325293e+001
6.440152e+002,1.306799e+001
6.449794e+002,1.410168e+001
6.459437e+002,1.771741e+001
6.469079e+002,2.086353e+001
6.478721e+002,2.075159e+001
6.488364e+002,1.692078e+001
6.498006e+002,1.211133e+001
6.507648e+002,1.055212e+001
6.517291e+002,1.132910e+001
6.526933e+002,1.341370e+001
6.536575e+002,1.667969e+001
6.546218e+002,2.013208e+001
6.555860e+002,2.183228e+001
6.565502e+002,2.012012e+001
6.575145e+002,2.002209e+001
6.584787e+002,2.340515e+001
6.594429e+002,2.683374e+001
6.604072e+002,2.695728e+001
6.613714e+002,2.291052e+001
6.623356e+002,2.027563e+001
6.632999e+002,2.216211e+001
6.642641e+002,2.466614e+001
6.652283e+002,2.670728e+001
6.661926e+002,2.827893e+001
6.671568e+002,2.997449e+001
6.681210e+002,3.224780e+001
6.690853e+002,3.415735e+001
6.700495e+002,3.421729e+001
6.710137e+002,3.256067e+001
6.719780e+002,3.078906e+001
6.729422e+002,3.059961e+001
6.739064e+002,3.225525e+001
6.748707e+002,3.201575e+001
6.758349e+002,2.803894e+001
6.767991e+002,2.451184e+001
6.777634e+002,2.428003e+001
6.787276e+002,2.742041e+001
6.796918e+002,3.058960e+001
6.806561e+002,3.112683e+001
6.816203e+002,3.155249e+001
6.825845e+002,3.318872e+001
6.835488e+002,3.539087e+001
6.845130e+002,3.703979e+001
6.854772e+002,3.741882e+001
6.864415e+002,3.758801e+001
6.874057e+002,3.915100e+001
6.883699e+002,4.069189e+001
6.893342e+002,4.023950e+001
6.902984e+002,3.675220e+001
6.912626e+002,3.109570e+001
6.922269e+002,2.755017e+001
6.931911e+002,2.856250e+001
6.941553e+002,3.077173e+001
6.951196e+002,3.430811e+001
6.960838e+002,3.741541e+001
6.970480e+002,3.757373e+001
6.980123e+002,3.332349e+001
6.989765e+002,2.959509e+001
6.999407e+002,2.799426e+001
7.009050e+002,2.760327e+001
7.018692e+002,2.796899e+001
7.028334e+002,2.869690e+001
7.037977e+002,2.927686e+001
7.047619e+002,2.911926e+001
7.057261e+002,2.920093e+001
7.066904e+002,3.054260e+001
7.076546e+002,3.324146e+001
7.086188e+002,3.628296e+001
7.095831e+002,3.803870e+001
7.105473e+002,3.780347e+001
7.115115e+002,3.679761e+001
7.124758e+002,3.347253e+001
7.134400e+002,3.051477e+001
7.144042e+002,3.071753e+001
7.153685e+002,3.429736e+001
7.163327e+002,3.645325e+001
7.172969e+002,3.212402e+001
7.182612e+002,2.878784e+001
7.192254e+002,3.043677e+001
7.201896e+002,3.508777e+001
7.211539e+002,3.826062e+001
7.221181e+002,3.608337e+001
7.230823e+002,3.111633e+001
7.240466e+002,3.072241e+001
7.250108e+002,3.452905e+001
7.259750e+002,3.909277e+001
7.269393e+002,4.188281e+001
7.279035e+002,4.215259e+001
7.288677e+002,4.070154e+001
7.298320e+002,3.689722e+001
7.307962e+002,3.553149e+001
7.317604e+002,3.841931e+001
7.327247e+002,4.353992e+001
7.336889e+002,4.733997e+001
7.346531e+002,4.730115e+001
7.356174e+002,4.629016e+001
7.365816e+002,4.854871e+001
7.375458e+002,5.162476e+001
7.385101e+002,5.349121e+001
7.394743e+002,5.361938e+001
7.404385e+002,5.282214e+001
7.414028e+002,5.152527e+001
7.423670e+002,4.866931e+001
7.433312e+002,4.731982e+001
7.442955e+002,4.910803e+001
7.452597e+002,5.201477e+001
7.462239e+002,5.258997e+001
7.471882e+002,4.893103e+001
7.481524e+002,4.980591e+001
7.491166e+002,5.706177e+001
7.500809e+002,6.348352e+001
7.510451e+002,6.646655e+001
7.520093e+002,6.641602e+001
7.529736e+002,6.570813e+001
7.539378e+002,6.668896e+001
7.549020e+002,6.729163e+001
7.558663e+002,6.550623e+001
7.568306e+002,6.258325e+001
7.577948e+002,5.969080e+001
7.587590e+002,5.736182e+001
7.597233e+002,5.538879e+001
7.606875e+002,5.572107e+001
7.616517e+002,5.856836e+001
7.626160e+002,5.990991e+001
7.635802e+002,5.832544e+001
7.645444e+002,5.547888e+001
7.655087e+002,5.483289e+001
7.664729e+002,5.793054e+001
7.674371e+002,5.922144e+001
7.684014e+002,5.667639e+001
7.693656e+002,5.391309e+001
7.703298e+002,5.365796e+001
7.712941e+002,5.616016e+001
7.722583e+002,5.886316e+001
7.732225e+002,5.980664e+001
7.741868e+002,6.018262e+001
7.751510e+002,6.048010e+001
7.761152e+002,6.108911e+001
7.770795e+002,6.288196e+001
7.780437e+002,6.655823e+001
7.790079e+002,7.127661e+001
7.799722e+002,7.070935e+001
7.809364e+002,6.443811e+001
7.819006e+002,5.900671e+001
7.828649e+002,5.780579e+001
7.838291e+002,6.018335e+001
7.847933e+002,6.272339e+001
7.857576e+002,6.495923e+001
7.867218e+002,6.524231e+001
7.876860e+002,6.380554e+001
7.886503e+002,6.187134e+001
7.896145e+002,6.012097e+001
7.905787e+002,5.880115e+001
7.915430e+002,5.806860e+001
7.925072e+002,5.771997e+001
7.934714e+002,5.685327e+001
7.944357e+002,5.519080e+001
7.953999e+002,5.345239e+001
7.963641e+002,5.280542e+001
7.973284e+002,5.430347e+001
7.982926e+002,5.812524e+001
7.992568e+002,6.085925e+001
8.002211e+002,6.024414e+001
8.011853e+002,5.891565e+001
8.021495e+002,5.947107e+001
8.031138e+002,6.245764e+001
8.040780e+002,6.609229e+001
8.050422e+002,6.928076e+001
8.060065e+002,7.178271e+001
8.069707e+002,7.308423e+001
8.079349e+002,7.306299e+001
8.088992e+002,7.141260e+001
8.098634e+002,6.862280e+001
8.108276e+002,6.668311e+001
8.117919e+002,6.861206e+001
8.127561e+002,7.127686e+001
8.137203e+002,7.081848e+001
8.146846e+002,6.773364e+001
8.156488e+002,6.459253e+001
8.166130e+002,6.385095e+001
8.175773e+002,6.545313e+001
8.185415e+002,6.852454e+001
8.195057e+002,7.451563e+001
8.204700e+002,7.839600e+001
8.214342e+002,7.745532e+001
8.223984e+002,7.315308e+001
8.233627e+002,6.926990e+001
8.243269e+002,6.682910e+001
8.252911e+002,6.637500e+001
8.262554e+002,6.836047e+001
8.272196e+002,7.154919e+001
8.281838e+002,7.499976e+001
8.291481e+002,7.809216e+001
8.301123e+002,8.032849e+001
8.310765e+002,8.052991e+001
8.320408e+002,7.866443e+001
8.330050e+002,7.799683e+001
8.339692e+002,7.940198e+001
8.349335e+002,8.052722e+001
8.358977e+002,7.827124e+001
8.368619e+002,7.208301e+001
8.378262e+002,7.035498e+001
8.387904e+002,7.620605e+001
8.397546e+002,8.181824e+001
8.407189e+002,8.607068e+001
8.416831e+002,8.878369e+001
8.426473e+002,8.983899e+001
8.436116e+002,8.899109e+001
8.445758e+002,8.787793e+001
8.455400e+002,8.687732e+001
8.465043e+002,8.548010e+001
8.474685e+002,8.422876e+001
8.484327e+002,8.394702e+001
8.493970e+002,8.530554e+001
8.503612e+002,8.851172e+001
8.513254e+002,9.378638e+001
8.522897e+002,9.536255e+001
8.532539e+002,9.025708e+001
8.542181e+002,8.470325e+001
8.551824e+002,8.338721e+001
8.561466e+002,8.668372e+001
8.571108e+002,9.067078e+001
8.580751e+002,9.180542e+001
8.590393e+002,9.305359e+001
8.600035e+002,9.769775e+001
8.609678e+002,1.032615e+002
8.619320e+002,1.064116e+002
8.628962e+002,1.058138e+002
8.638605e+002,1.037518e+002
8.648247e+002,1.036099e+002
8.657889e+002,1.045865e+002
8.667532e+002,1.058584e+002
8.677174e+002,1.073002e+002
8.686816e+002,1.076042e+002
8.696459e+002,1.050197e+002
8.706101e+002,9.922839e+001
8.715743e+002,9.661304e+001
8.725386e+002,9.731738e+001
8.735028e+002,1.007251e+002
8.744670e+002,1.080844e+002
8.754313e+002,1.165706e+002
8.763955e+002,1.218254e+002
8.773597e+002,1.224312e+002
8.783240e+002,1.213536e+002
8.792882e+002,1.192104e+002
8.802524e+002,1.168633e+002
8.812167e+002,1.154681e+002
8.821809e+002,1.151155e+002
8.831451e+002,1.148995e+002
8.841094e+002,1.136975e+002
8.850736e+002,1.122906e+002
8.860378e+002,1.138853e+002
8.870021e+002,1.189420e+002
8.879663e+002,1.231887e+002
8.889305e+002,1.232979e+002
8.898948e+002,1.199083e+002
8.908590e+002,1.177959e+002
8.918232e+002,1.193588e+002
8.927875e+002,1.201290e+002
8.937517e+002,1.177322e+002
8.947159e+002,1.153315e+002
8.956802e+002,1.154138e+002
8.966444e+002,1.178732e+002
8.976086e+002,1.200814e+002
8.985729e+002,1.196708e+002
8.995371e+002,1.190538e+002
9.005013e+002,1.221442e+002
9.014656e+002,1.284995e+002
9.024298e+002,1.339436e+002
9.033940e+002,1.346653e+002
9.043583e+002,1.307257e+002
9.053225e+002,1.279122e+002
9.062867e+002,1.261455e+002
9.072510e+002,1.246305e+002
9.082152e+002,1.242063e+002
9.091794e+002,1.253209e+002
9.101437e+002,1.290468e+002
9.111079e+002,1.355153e+002
9.120721e+002,1.403877e+002
9.130364e+002,1.384203e+002
9.140006e+002,1.348040e+002
9.149648e+002,1.330065e+002
9.159291e+002,1.331196e+002
9.168933e+002,1.331700e+002
9.178575e+002,1.314639e+002
9.188218e+002,1.292753e+002
9.197860e+002,1.335488e+002
9.207502e+002,1.441685e+002
9.217145e+002,1.510811e+002
9.226787e+002,1.533304e+002
9.236429e+002,1.522494e+002
9.246072e+002,1.474443e+002
9.255714e+002,1.368599e+002
9.265356e+002,1.300409e+002
9.274999e+002,1.324147e+002
9.284641e+002,1.338282e+002
9.294283e+002,1.303119e+002
9.303926e+002,1.240719e+002
9.313568e+002,1.188881e+002
9.323210e+002,1.165411e+002
9.332853e+002,1.166165e+002
9.342495e+002,1.206859e+002
9.352137e+002,1.261180e+002
9.361780e+002,1.294974e+002
9.371422e+002,1.307097e+002
9.381064e+002,1.310940e+002
9.390707e+002,1.314694e+002
9.400349e+002,1.308048e+002
9.409991e+002,1.310966e+002
9.419634e+002,1.327325e+002
9.429276e+002,1.342443e+002
9.438918e+002,1.355364e+002
9.448561e+002,1.367191e+002
9.458203e+002,1.379297e+002
9.467845e+002,1.393757e+002
9.477488e+002,1.414629e+002
9.487130e+002,1.448926e+002
9.496772e+002,1.484060e+002
9.506415e+002,1.511125e+002
9.516057e+002,1.528726e+002
9.525699e+002,1.536870e+002
9.535342e+002,1.534261e+002
9.544984e+002,1.519780e+002
9.554626e+002,1.512694e+002
9.564269e+002,1.521838e+002
9.573911e+002,1.549366e+002
9.583553e+002,1.608590e+002
9.593196e+002,1.675681e+002
9.602838e+002,1.711593e+002
9.612480e+002,1.707610e+002
9.622123e+002,1.689304e+002
9.631765e+002,1.643929e+002
9.641407e+002,1.612261e+002
9.651050e+002,1.627810e+002
9.660692e+002,1.664948e+002
9.670334e+002,1.671989e+002
9.679977e+002,1.620885e+002
9.689619e+002,1.551768e+002
9.699261e+002,1.531556e+002
9.708904e+002,1.542998e+002
9.718546e+002,1.570732e+002
9.728188e+002,1.612605e+002
9.737831e+002,1.648684e+002
9.747473e+002,1.647380e+002
9.757115e+002,1.597113e+002
9.766758e+002,1.590070e+002
9.776400e+002,1.700114e+002
9.786042e+002,1.777535e+002
9.795685e+002,1.762087e+002
9.805327e+002,1.692550e+002
9.814969e+002,1.619581e+002
9.824612e+002,1.565079e+002
9.834254e+002,1.547897e+002
9.843896e+002,1.607031e+002
9.853539e+002,1.687842e+002
9.863181e+002,1.732936e+002
9.872823e+002,1.737251e+002
9.882466e+002,1.727059e+002
9.892108e+002,1.732263e+002
9.901750e+002,1.764225e+002
9.911393e+002,1.817266e+002
9.921035e+002,1.884587e+002
9.930677e+002,1.934232e+002
9.940320e+002,1.955662e+002
9.949962e+002,1.983625e+002
9.959604e+002,2.053058e+002
9.969247e+002,2.166591e+002
9.978889e+002,2.288712e+002
9.988531e+002,2.400514e+002
9.998174e+002,2.491096e+002
1.000782e+003,2.565526e+002
1.001746e+003,2.627819e+002
1.002710e+003,2.677964e+002
1.003674e+003,2.715337e+002
1.004639e+003,2.741050e+002
1.005603e+003,2.756564e+002
1.006567e+003,2.757460e+002
1.007531e+003,2.767507e+002
1.008495e+003,2.796757e+002
1.009460e+003,2.818590e+002
1.010424e+003,2.808215e+002
1.011388e+003,2.779575e+002
1.012352e+003,2.788722e+002
1.013317e+003,2.878761e+002
1.014281e+003,2.916926e+002
1.015245e+003,2.852146e+002
1.016209e+003,2.735521e+002
1.017174e+003,2.581422e+002
1.018138e+003,2.413866e+002
1.019102e+003,2.276289e+002
1.020066e+003,2.210396e+002
1.021031e+003,2.191138e+002
1.021995e+003,2.120347e+002
1.022959e+003,2.002212e+002
1.023923e+003,1.906696e+002
1.024887e+003,1.860974e+002
1.025852e+003,1.836301e+002
1.026816e+003,1.789677e+002
1.027780e+003,1.721527e+002
1.028744e+003,1.663677e+002
1.029709e+003,1.620186e+002
1.030673e+003,1.580940e+002
1.031637e+003,1.530781e+002
1.032601e+003,1.482709e+002
1.033566e+003,1.461995e+002
1.034530e+003,1.479304e+002
1.035494e+003,1.512419e+002
1.036458e+003,1.540491e+002
1.037422e+003,1.558403e+002
1.038387e+003,1.557260e+002
1.039351e+003,1.537095e+002
1.040315e+003,1.515394e+002
1.041279e+003,1.508259e+002
1.042244e+003,1.516555e+002
1.043208e+003,1.526625e+002
1.044172e+003,1.528008e+002
1.045136e+003,1.531400e+002
1.046101e+003,1.544824e+002
1.047065e+003,1.561088e+002
1.048029e+003,1.576743e+002
1.048993e+003,1.587345e+002
1.049958e+003,1.585059e+002
1.050922e+003,1.565444e+002
1.051886e+003,1.549902e+002
1.052850e+003,1.558214e+002
1.053814e+003,1.580332e+002
1.054779e+003,1.607148e+002
1.055743e+003,1.633671e+002
1.056707e+003,1.655031e+002
1.057671e+003,1.665920e+002
1.058636e+003,1.664436e+002
1.059600e+003,1.657233e+002
1.060564e+003,1.652181e+002
1.061528e+003,1.653248e+002
1.062493e+003,1.655798e+002
1.063457e+003,1.650748e+002
1.064421e+003,1.635592e+002
1.065385e+003,1.613480e+002
1.066349e+003,1.580652e+002
1.067314e+003,1.510927e+002
1.068278e+003,1.461724e+002
1.069242e+003,1.494254e+002
1.070206e+003,1.569999e+002
1.071171e+003,1.621555e+002
1.072135e+003,1.618152e+002
1.073099e+003,1.585907e+002
1.074063e+003,1.575664e+002
1.075028e+003,1.593480e+002
1.075992e+003,1.606227e+002
1.076956e+003,1.614507e+002
1.077920e+003,1.604242e+002
1.078885e+003,1.557946e+002
1.079849e+003,1.506284e+002
1.080813e+003,1.506947e+002
1.081777e+003,1.578696e+002
1.082741e+003,1.648618e+002
1.083706e+003,1.669181e+002
1.084670e+003,1.667843e+002
1.085634e+003,1.652184e+002
1.086598e+003,1.627192e+002
1.087563e+003,1.601384e+002
1.088527e+003,1.583195e+002
1.089491e+003,1.571981e+002
1.090455e+003,1.550929e+002
1.091420e+003,1.511289e+002
1.092384e+003,1.499978e+002
1.093348e+003,1.523875e+002
1.094312e+003,1.549050e+002
1.095276e+003,1.568152e+002
1.096241e+003,1.583928e+002
1.097205e+003,1.585574e+002
1.098169e+003,1.558932e+002
1.099133e+003,1.534545e+002
1.100098e+003,1.520419e+002
1.101062e+003,1.522889e+002
1.102026e+003,1.553796e+002
1.102990e+003,1.605450e+002
1.103955e+003,1.659456e+002
1.104919e+003,1.703121e+002
1.105883e+003,1.738712e+002
1.106847e+003,1.778630e+002
1.107812e+003,1.820541e+002
1.108776e+003,1.840970e+002
1.109740e+003,1.834716e+002
1.110704e+003,1.816200e+002
1.111668e+003,1.794585e+002
1.112633e+003,1.779033e+002
1.113597e+003,1.787421e+002
1.114561e+003,1.826035e+002
1.115525e+003,1.859661e+002
1.116490e+003,1.864263e+002
1.117454e+003,1.870426e+002
1.118418e+003,1.908833e+002
1.119382e+003,1.975977e+002
1.120347e+003,2.050071e+002
1.121311e+003,2.110474e+002
1.122275e+003,2.139944e+002
1.123239e+003,2.117427e+002
1.124203e+003,2.060059e+002
1.125168e+003,2.036370e+002
1.126132e+003,2.058495e+002
1.127096e+003,2.103549e+002
1.128060e+003,2.145564e+002
1.129025e+003,2.187778e+002
1.129989e+003,2.270344e+002
1.130953e+003,2.433350e+002
1.131917e+003,2.538475e+002
1.132882e+003,2.514089e+002
1.133846e+003,2.472113e+002
1.134810e+003,2.470348e+002
1.135774e+003,2.511660e+002
1.136739e+003,2.573099e+002
1.137703e+003,2.641211e+002
1.138667e+003,2.732703e+002
1.139631e+003,2.889156e+002
1.140595e+003,3.101594e+002
1.141560e+003,3.297761e+002
1.142524e+003,3.474412e+002
1.143488e+003,3.662273e+002
1.144452e+003,3.872172e+002
1.145417e+003,4.105920e+002
1.146381e+003,4.370677e+002
1.147345e+003,4.662495e+002
1.148309e+003,4.989318e+002
1.149274e+003,5.389949e+002
1.150238e+003,5.794652e+002
1.151202e+003,6.177830e+002
1.152166e+003,6.544850e+002
1.153130e+003,6.918828e+002
1.154095e+003,7.297965e+002
1.155059e+003,7.623584e+002
1.156023e+003,7.834172e+002
1.156987e+003,7.923331e+002
1.157952e+003,7.886460e+002
1.158916e+003,7.727499e+002
1.159880e+003,7.529448e+002
1.160844e+003,7.326156e+002
1.161809e+003,7.083972e+002
1.162773e+003,6.743062e+002
1.163737e+003,6.281605e+002
1.164701e+003,5.825603e+002
1.165666e+003,5.368199e+002
1.166630e+003,4.977588e+002
1.167594e+003,4.689969e+002
1.168558e+003,4.478623e+002
1.169522e+003,4.307472e+002
1.170487e+003,4.165798e+002
1.171451e+003,4.078408e+002
1.172415e+003,4.077483e+002
1.173379e+003,4.143218e+002
1.174344e+003,4.193676e+002
1.175308e+003,4.237360e+002
1.176272e+003,4.236309e+002
1.177236e+003,4.161615e+002
1.178201e+003,4.055483e+002
1.179165e+003,3.967203e+002
1.180129e+003,3.890004e+002
1.181093e+003,3.785453e+002
1.182057e+003,3.611941e+002
1.183022e+003,3.472528e+002
1.183986e+003,3.415282e+002
1.184950e+003,3.399265e+002
1.185914e+003,3.391959e+002
1.186879e+003,3.387601e+002
1.187843e+003,3.396282e+002
1.188807e+003,3.423693e+002
1.189771e+003,3.459919e+002
1.190736e+003,3.486517e+002
1.191700e+003,3.501298e+002
1.192664e+003,3.519224e+002
1.193628e+003,3.573405e+002
1.194593e+003,3.601420e+002
1.195557e+003,3.533170e+002
1.196521e+003,3.398048e+002
1.197485e+003,3.310927e+002
1.198449e+003,3.308197e+002
1.199414e+003,3.297588e+002
1.200378e+003,3.230050e+002
1.201342e+003,3.149153e+002
1.202306e+003,3.075710e+002
1.203271e+003,3.005736e+002
1.204235e+003,2.923065e+002
1.205199e+003,2.824192e+002
1.206163e+003,2.733025e+002
1.207128e+003,2.690438e+002
1.208092e+003,2.701226e+002
1.209056e+003,2.671982e+002
1.210020e+003,2.597399e+002
1.210984e+003,2.504784e+002
1.211949e+003,2.386731e+002
1.212913e+003,2.259796e+002
1.213877e+003,2.147240e+002
1.214841e+003,2.053248e+002
1.215806e+003,1.971926e+002
1.216770e+003,1.897849e+002
1.217734e+003,1.837819e+002
1.218698e+003,1.796044e+002
1.219663e+003,1.760509e+002
1.220627e+003,1.710146e+002
1.221591e+003,1.648370e+002
1.222555e+003,1.609343e+002
1.223520e+003,1.627756e+002
1.224484e+003,1.690985e+002
1.225448e+003,1.721450e+002
1.226412e+003,1.708723e+002
1.227376e+003,1.674967e+002
1.228341e+003,1.583351e+002
1.229305e+003,1.506393e+002
1.230269e+003,1.496206e+002
1.231233e+003,1.524155e+002
1.232198e+003,1.531906e+002
1.233162e+003,1.507601e+002
1.234126e+003,1.487147e+002
1.235090e+003,1.492456e+002
1.236055e+003,1.505746e+002
1.237019e+003,1.509901e+002
1.237983e+003,1.504592e+002
1.238947e+003,1.498865e+002
1.239911e+003,1.500691e+002
1.240876e+003,1.505726e+002
1.241840e+003,1.501583e+002
1.242804e+003,1.487617e+002
1.243768e+003,1.485594e+002
1.244733e+003,1.504579e+002
1.245697e+003,1.525394e+002
1.246661e+003,1.529166e+002
1.247625e+003,1.533646e+002
1.248590e+003,1.563153e+002
1.249554e+003,1.616163e+002
1.250518e+003,1.673534e+002
1.251482e+003,1.723602e+002
1.252447e+003,1.753748e+002
1.253411e+003,1.748203e+002
1.254375e+003,1.724885e+002
1.255339e+003,1.711808e+002
1.256303e+003,1.714338e+002
1.257268e+003,1.729858e+002
1.258232e+003,1.748969e+002
1.259196e+003,1.769983e+002
1.260160e+003,1.804874e+002
1.261125e+003,1.862904e+002
1.262089e+003,1.925677e+002
1.263053e+003,1.988082e+002
1.264017e+003,2.041483e+002
1.264982e+003,2.089983e+002
1.265946e+003,2.131163e+002
1.266910e+003,2.166693e+002
1.267874e+003,2.192854e+002
1.268839e+003,2.200442e+002
1.269803e+003,2.183740e+002
1.270767e+003,2.147172e+002
1.271731e+003,2.094882e+002
1.272695e+003,2.032177e+002
1.273660e+003,1.990887e+002
1.274624e+003,1.971941e+002
1.275588e+003,1.936211e+002
1.276552e+003,1.861196e+002
1.277517e+003,1.771538e+002
1.278481e+003,1.698477e+002
1.279445e+003,1.640179e+002
1.280409e+003,1.607408e+002
1.281374e+003,1.624332e+002
1.282338e+003,1.643920e+002
1.283302e+003,1.644954e+002
1.284266e+003,1.631025e+002
1.285230e+003,1.605079e+002
1.286195e+003,1.568127e+002
1.287159e+003,1.518335e+002
1.288123e+003,1.457600e+002
1.289087e+003,1.404746e+002
1.290052e+003,1.403402e+002
1.291016e+003,1.470945e+002
1.291980e+003,1.503519e+002
1.292944e+003,1.457087e+002
1.293909e+003,1.420544e+002
1.294873e+003,1.465754e+002
1.295837e+003,1.532792e+002
1.296801e+003,1.516725e+002
1.297766e+003,1.412273e+002
1.298730e+003,1.338228e+002
1.299694e+003,1.360999e+002
1.300658e+003,1.416787e+002
1.301622e+003,1.445813e+002
1.302587e+003,1.461221e+002
1.303551e+003,1.482037e+002
1.304515e+003,1.513064e+002
1.305479e+003,1.536093e+002
1.306444e+003,1.528268e+002
1.307408e+003,1.500066e+002
1.308372e+003,1.504534e+002
1.309336e+003,1.562607e+002
1.310301e+003,1.585786e+002
1.311265e+003,1.554723e+002
1.312229e+003,1.517511e+002
1.313193e+003,1.470125e+002
1.314157e+003,1.431355e+002
1.315122e+003,1.429785e+002
1.316086e+003,1.456184e+002
1.317050e+003,1.461628e+002
1.318014e+003,1.414877e+002
1.318979e+003,1.362030e+002
1.319943e+003,1.389529e+002
1.320907e+003,1.490153e+002
1.321871e+003,1.557085e+002
1.322836e+003,1.571774e+002
1.323800e+003,1.564312e+002
1.324764e+003,1.540483e+002
1.325728e+003,1.512919e+002
1.326693e+003,1.503899e+002
1.327657e+003,1.509902e+002
1.328621e+003,1.496779e+002
1.329585e+003,1.459232e+002
1.330549e+003,1.443666e+002
1.331514e+003,1.464852e+002
1.332478e+003,1.486991e+002
1.333442e+003,1.484227e+002
1.334406e+003,1.460133e+002
1.335371e+003,1.426348e+002
1.336335e+003,1.390763e+002
1.337299e+003,1.364551e+002
1.338263e+003,1.367762e+002
1.339228e+003,1.405367e+002
1.340192e+003,1.429189e+002
1.341156e+003,1.416855e+002
1.342120e+003,1.423759e+002
1.343084e+003,1.479586e+002
1.344049e+003,1.522723e+002
1.345013e+003,1.498787e+002
1.345977e+003,1.429683e+002
1.346941e+003,1.376744e+002
1.347906e+003,1.361056e+002
1.348870e+003,1.362506e+002
1.349834e+003,1.363605e+002
1.350798e+003,1.362339e+002
1.351763e+003,1.368826e+002
1.352727e+003,1.381591e+002
1.353691e+003,1.375973e+002
1.354655e+003,1.338995e+002
1.355620e+003,1.299132e+002
1.356584e+003,1.295193e+002
1.357548e+003,1.325055e+002
1.358512e+003,1.342928e+002
1.359476e+003,1.329520e+002
1.360441e+003,1.321356e+002
1.361405e+003,1.342396e+002
1.362369e+003,1.363806e+002
1.363333e+003,1.375372e+002
1.364298e+003,1.377412e+002
1.365262e+003,1.371416e+002
1.366226e+003,1.358724e+002
1.367190e+003,1.338774e+002
1.368155e+003,1.310403e+002
1.369119e+003,1.283267e+002
1.370083e+003,1.292816e+002
1.371047e+003,1.361162e+002
1.372011e+003,1.387682e+002
1.372976e+003,1.313624e+002
1.373940e+003,1.258597e+002
1.374904e+003,1.298348e+002
1.375868e+003,1.367805e+002
1.376833e+003,1.373540e+002
1.377797e+003,1.314336e+002
1.378761e+003,1.264988e+002
1.379725e+003,1.259189e+002
1.380690e+003,1.272825e+002
1.381654e+003,1.292460e+002
1.382618e+003,1.314319e+002
1.383582e+003,1.327584e+002
1.384547e+003,1.333987e+002
1.385511e+003,1.349893e+002
1.386475e+003,1.382043e+002
1.387439e+003,1.417969e+002
1.388403e+003,1.444220e+002
1.389368e+003,1.459862e+002
1.390332e+003,1.453551e+002
1.391296e+003,1.407999e+002
1.392260e+003,1.387386e+002
1.393225e+003,1.436355e+002
1.394189e+003,1.475106e+002
1.395153e+003,1.442047e+002
1.396117e+003,1.376266e+002
1.397082e+003,1.344403e+002
1.398046e+003,1.363898e+002
1.399010e+003,1.400558e+002
1.399974e+003,1.418715e+002
1.400938e+003,1.410901e+002
1.401903e+003,1.379066e+002
1.402867e+003,1.336294e+002
1.403831e+003,1.318171e+002
1.404795e+003,1.316993e+002
1.405760e+003,1.327432e+002
1.406724e+003,1.338300e+002
1.407688e+003,1.337926e+002
1.408652e+003,1.330889e+002
1.409617e+003,1.324901e+002
1.410581e+003,1.312516e+002
1.411545e+003,1.287354e+002
1.412509e+003,1.271964e+002
1.413474e+003,1.296406e+002
1.414438e+003,1.324492e+002
1.415402e+003,1.303804e+002
1.416366e+003,1.250111e+002
1.417330e+003,1.221287e+002
1.418295e+003,1.241721e+002
1.419259e+003,1.287678e+002
1.420223e+003,1.337421e+002
1.421187e+003,1.382080e+002
1.422152e+003,1.394119e+002
1.423116e+003,1.367916e+002
1.424080e+003,1.358801e+002
1.425044e+003,1.376776e+002
1.426009e+003,1.403708e+002
1.426973e+003,1.450750e+002
1.427937e+003,1.490830e+002
1.428901e+003,1.487222e+002
1.429865e+003,1.448621e+002
1.430830e+003,1.418212e+002
1.431794e+003,1.420482e+002
1.432758e+003,1.434370e+002
1.433722e+003,1.427174e+002
1.434687e+003,1.406799e+002
1.435651e+003,1.430409e+002
1.436615e+003,1.501876e+002
1.437579e+003,1.552703e+002
1.438544e+003,1.580469e+002
1.439508e+003,1.590093e+002
1.440472e+003,1.583300e+002
1.441436e+003,1.572517e+002
1.442401e+003,1.573552e+002
1.443365e+003,1.586134e+002
1.444329e+003,1.590782e+002
1.445293e+003,1.572639e+002
1.446257e+003,1.551284e+002
1.447222e+003,1.569410e+002
1.448186e+003,1.614242e+002
1.449150e+003,1.616071e+002
1.450114e+003,1.555848e+002
1.451079e+003,1.494264e+002
1.452043e+003,1.466542e+002
1.453007e+003,1.463206e+002
1.453971e+003,1.471661e+002
1.454936e+003,1.485427e+002
1.455900e+003,1.483799e+002
1.456864e+003,1.460791e+002
1.457828e+003,1.445045e+002
1.458792e+003,1.457522e+002
1.459757e+003,1.468577e+002
1.460721e+003,1.451073e+002
1.461685e+003,1.414706e+002
1.462649e+003,1.380726e+002
1.463614e+003,1.359169e+002
1.464578e+003,1.350977e+002
1.465542e+003,1.354147e+002
1.466506e+003,1.364745e+002
1.467471e+003,1.386018e+002
1.468435e+003,1.434937e+002
1.469399e+003,1.460100e+002
1.470363e+003,1.419368e+002
1.471328e+003,1.389058e+002
1.472292e+003,1.382998e+002
1.473256e+003,1.378518e+002
1.474220e+003,1.373531e+002
1.475184e+003,1.371787e+002
1.476149e+003,1.366290e+002
1.477113e+003,1.353895e+002
1.478077e+003,1.356022e+002
1.479041e+003,1.401858e+002
1.480006e+003,1.475842e+002
1.480970e+003,1.504448e+002
1.481934e+003,1.457001e+002
1.482898e+003,1.456545e+002
1.483863e+003,1.543733e+002
1.484827e+003,1.611074e+002
1.485791e+003,1.626206e+002
1.486755e+003,1.628114e+002
1.487719e+003,1.641508e+002
1.488684e+003,1.664523e+002
1.489648e+003,1.695100e+002
1.490612e+003,1.736143e+002
1.491576e+003,1.779271e+002
1.492541e+003,1.812167e+002
1.493505e+003,1.840490e+002
1.494469e+003,1.873649e+002
1.495433e+003,1.904634e+002
1.496398e+003,1.956125e+002
1.497362e+003,2.048208e+002
1.498326e+003,2.152549e+002
1.499290e+003,2.248580e+002
1.500255e+003,2.349542e+002
1.501219e+003,2.471371e+002
1.502183e+003,2.609982e+002
1.503147e+003,2.747699e+002
1.504111e+003,2.873477e+002
1.505076e+003,3.035842e+002
1.506040e+003,3.276510e+002
1.507004e+003,3.558142e+002
1.507968e+003,3.840770e+002
1.508933e+003,4.132458e+002
1.509897e+003,4.448705e+002
1.510861e+003,4.805828e+002
1.511825e+003,5.218250e+002
1.512790e+003,5.690690e+002
1.513754e+003,6.203647e+002
1.514718e+003,6.739020e+002
1.515682e+003,7.288589e+002
1.516646e+003,7.834904e+002
1.517611e+003,8.396238e+002
1.518575e+003,8.932666e+002
1.519539e+003,9.501838e+002
1.520503e+003,9.986929e+002
1.521468e+003,1.031213e+003
1.522432e+003,1.051262e+003
1.523396e+003,1.065510e+003
1.524360e+003,1.073606e+003
1.525325e+003,1.068663e+003
1.526289e+003,1.046360e+003
1.527253e+003,1.012512e+003
1.528217e+003,9.771224e+002
1.529182e+003,9.409854e+002
1.530146e+003,8.968427e+002
1.531110e+003,8.436887e+002
1.532074e+003,7.821099e+002
1.533039e+003,7.044775e+002
1.534003e+003,6.247825e+002
1.534967e+003,5.473531e+002
1.535931e+003,4.759060e+002
1.536896e+003,4.122450e+002
1.537860e+003,3.577246e+002
1.538824e+003,3.148485e+002
1.539788e+003,2.839703e+002
1.540752e+003,2.591498e+002
1.541717e+003,2.330055e+002
1.542681e+003,2.072734e+002
1.543645e+003,1.897604e+002
1.544609e+003,1.847491e+002
1.545573e+003,1.800955e+002
1.546538e+003,1.755374e+002
1.547502e+003,1.691176e+002
1.548466e+003,1.596462e+002
1.549430e+003,1.506377e+002
1.550395e+003,1.446995e+002
1.551359e+003,1.413137e+002
1.552323e+003,1.394381e+002
1.553287e+003,1.386921e+002
1.554252e+003,1.381859e+002
1.555216e+003,1.372719e+002
1.556180e+003,1.352235e+002
1.557144e+003,1.294626e+002
1.558109e+003,1.202162e+002
1.559073e+003,1.163351e+002
1.560037e+003,1.195035e+002
1.561001e+003,1.219525e+002
1.561966e+003,1.227583e+002
1.562930e+003,1.227194e+002
1.563894e+003,1.209833e+002
1.564858e+003,1.182533e+002
1.565823e+003,1.173547e+002
1.566787e+003,1.185078e+002
1.567751e+003,1.173943e+002
1.568715e+003,1.110494e+002
1.569679e+003,1.042695e+002
1.570644e+003,1.027648e+002
1.571608e+003,1.047324e+002
1.572572e+003,1.065886e+002
1.573536e+003,1.088099e+002
1.574500e+003,1.112634e+002
1.575465e+003,1.133975e+002
1.576429e+003,1.158260e+002
1.577393e+003,1.200875e+002
1.578357e+003,1.239382e+002
1.579322e+003,1.226838e+002
1.580286e+003,1.167526e+002
1.581250e+003,1.122755e+002
1.582214e+003,1.112695e+002
1.583179e+003,1.112328e+002
1.584143e+003,1.098217e+002
1.585107e+003,1.079885e+002
1.586071e+003,1.086669e+002
1.587036e+003,1.117087e+002
1.588000e+003,1.134154e+002
1.588964e+003,1.122609e+002
1.589928e+003,1.112040e+002
1.590893e+003,1.128683e+002
1.591857e+003,1.154010e+002
1.592821e+003,1.155057e+002
1.593785e+003,1.139714e+002
1.594750e+003,1.148661e+002
1.595714e+003,1.187660e+002
1.596678e+003,1.218864e+002
1.597642e+003,1.229847e+002
1.598606e+003,1.226382e+002
1.599571e+003,1.203275e+002
1.600535e+003,1.180742e+002
1.601499e+003,1.188231e+002
1.602463e+003,1.219174e+002
1.603427e+003,1.240466e+002
1.604392e+003,1.238873e+002
1.605356e+003,1.229063e+002
1.606320e+003,1.233562e+002
1.607284e+003,1.239861e+002
1.608249e+003,1.203876e+002
1.609213e+003,1.124048e+002
1.610177e+003,1.052771e+002
1.611141e+003,9.927417e+001
1.612106e+003,9.572778e+001
1.613070e+003,9.818555e+001
1.614034e+003,1.005146e+002
1.614998e+003,9.586829e+001
1.615963e+003,8.907483e+001
1.616927e+003,9.003418e+001
1.617891e+003,9.875232e+001
1.618855e+003,1.041145e+002
1.619820e+003,9.877747e+001
1.620784e+003,8.841260e+001
1.621748e+003,8.185168e+001
1.622712e+003,7.978149e+001
1.623677e+003,7.946411e+001
1.624641e+003,8.105518e+001
1.625605e+003,8.413940e+001
1.626569e+003,8.827502e+001
1.627533e+003,9.018469e+001
1.628498e+003,8.817603e+001
1.629462e+003,8.544519e+001
1.630426e+003,8.386548e+001
1.631390e+003,8.351868e+001
1.632354e+003,8.480481e+001
1.633319e+003,8.744360e+001
1.634283e+003,8.928369e+001
1.635247e+003,8.863062e+001
1.636211e+003,8.606970e+001
1.637176e+003,8.260291e+001
1.638140e+003,7.872888e+001
1.639104e+003,7.639954e+001
1.640068e+003,7.566711e+001
1.641033e+003,7.492407e+001
1.641997e+003,7.419629e+001
1.642961e+003,7.365552e+001
1.643925e+003,7.217114e+001
1.644890e+003,7.166455e+001
1.645854e+003,7.492688e+001
1.646818e+003,8.039844e+001
1.647782e+003,8.418372e+001
1.648747e+003,8.501416e+001
1.649711e+003,8.443591e+001
1.650675e+003,8.408398e+001
1.651639e+003,8.407117e+001
1.652604e+003,8.343872e+001
1.653568e+003,8.177673e+001
1.654532e+003,8.052026e+001
1.655496e+003,8.025220e+001
1.656460e+003,7.858850e+001
1.657425e+003,7.411938e+001
1.658389e+003,6.977209e+001
1.659353e+003,6.576770e+001
1.660317e+003,6.350464e+001
1.661281e+003,6.609680e+001
1.662246e+003,7.133557e+001
1.663210e+003,7.298328e+001
1.664174e+003,6.940796e+001
1.665138e+003,6.538782e+001
1.666103e+003,6.473999e+001
1.667067e+003,6.549854e+001
1.668031e+003,6.400891e+001
1.668995e+003,6.067542e+001
1.669960e+003,5.853357e+001
1.670924e+003,5.815222e+001
1.671888e+003,5.856152e+001
1.672852e+003,6.010938e+001
1.673817e+003,6.050891e+001
1.674781e+003,5.633032e+001
1.675745e+003,5.163696e+001
1.676709e+003,5.192517e+001
1.677674e+003,5.562512e+001
1.678638e+003,5.671118e+001
1.679602e+003,5.335193e+001
1.680566e+003,4.931702e+001
1.681531e+003,4.754663e+001
1.682495e+003,4.785608e+001
1.683459e+003,4.977649e+001
1.684423e+003,5.245276e+001
1.685387e+003,5.311255e+001
1.686352e+003,5.147754e+001
1.687316e+003,5.053088e+001
1.688280e+003,5.196765e+001
1.689244e+003,5.282336e+001
1.690208e+003,4.874072e+001
1.691173e+003,4.397546e+001
1.692137e+003,4.409558e+001
1.693101e+003,4.851257e+001
1.694065e+003,5.339893e+001
1.695030e+003,5.720862e+001
1.695994e+003,5.831702e+001
1.696958e+003,5.440906e+001
1.697922e+003,4.978857e+001
1.698887e+003,5.140039e+001
1.699851e+003,5.665588e+001
1.700815e+003,5.592505e+001
1.701779e+003,4.818555e+001
1.702744e+003,4.206091e+001
1.703708e+003,4.114404e+001
1.704672e+003,4.253638e+001
1.705636e+003,4.353210e+001
1.706601e+003,4.405505e+001
1.707565e+003,4.662268e+001
1.708529e+003,5.032458e+001
1.709493e+003,4.933057e+001
1.710458e+003,4.215662e+001
1.711422e+003,3.685291e+001
1.712386e+003,3.820093e+001
1.713350e+003,4.205347e+001
1.714314e+003,4.587292e+001
1.715279e+003,4.813123e+001
1.716243e+003,4.610413e+001
1.717207e+003,4.074036e+001
1.718171e+003,3.670667e+001
1.719135e+003,3.546936e+001
1.720100e+003,3.509241e+001
1.721064e+003,3.391040e+001
1.722028e+003,3.294775e+001
1.722992e+003,3.509106e+001
1.723957e+003,4.017090e+001
1.724921e+003,4.208252e+001
1.725885e+003,3.895569e+001
1.726849e+003,3.598413e+001
1.727814e+003,3.584082e+001
1.728778e+003,3.644861e+001
1.729742e+003,3.697498e+001
1.730706e+003,3.721497e+001
1.731671e+003,3.586914e+001
1.732635e+003,3.297107e+001
1.733599e+003,3.074841e+001
1.734563e+003,3.002747e+001
1.735528e+003,2.841052e+001
1.736492e+003,2.427295e+001
1.737456e+003,2.052539e+001
1.738420e+003,2.072803e+001
1.739385e+003,2.334009e+001
1.740349e+003,2.513184e+001
1.741313e+003,2.666211e+001
1.742277e+003,2.756580e+001
1.743241e+003,2.839832e+001
1.744206e+003,2.911804e+001
1.745170e+003,2.991223e+001
1.746134e+003,2.949207e+001
1.747098e+003,2.545715e+001
1.748063e+003,2.094849e+001
1.749027e+003,2.007324e+001
1.749991e+003,2.218896e+001
1.750955e+003,2.391406e+001
1.751919e+003,2.399036e+001
1.752884e+003,2.401855e+001
1.753848e+003,2.533801e+001
1.754812e+003,2.692383e+001
1.755776e+003,2.732605e+001
1.756741e+003,2.725317e+001
1.757705e+003,2.642151e+001
1.758669e+003,2.355762e+001
1.759633e+003,2.179163e+001
1.760598e+003,2.282507e+001
1.761562e+003,2.170007e+001
1.762526e+003,1.506128e+001
1.763490e+003,9.256104e+000
1.764455e+003,8.847900e+000
1.765419e+003,1.242700e+001
1.766383e+003,1.809961e+001
1.767347e+003,2.419165e+001
1.768312e+003,2.760498e+001
1.769276e+003,2.661987e+001
1.770240e+003,2.439136e+001
1.771204e+003,2.592932e+001
1.772168e+003,2.928687e+001
1.773133e+003,2.702991e+001
1.774097e+003,1.997961e+001
1.775061e+003,1.717969e+001
1.776025e+003,1.917773e+001
1.776990e+003,2.184656e+001
1.777954e+003,2.576245e+001
1.778918e+003,2.846973e+001
1.779882e+003,2.634546e+001
1.780846e+003,2.194690e+001
1.781811e+003,1.919006e+001
1.782775e+003,1.812085e+001
1.783739e+003,1.865112e+001
1.784703e+003,2.127551e+001
1.785668e+003,2.277417e+001
1.786632e+003,1.947546e+001
1.787596e+003,1.580957e+001
1.788560e+003,1.683533e+001
1.789525e+003,2.027917e+001
1.790489e+003,2.245715e+001
1.791453e+003,2.269214e+001
1.792417e+003,2.045837e+001
1.793382e+003,1.611731e+001
1.794346e+003,1.316870e+001
1.795310e+003,1.346802e+001
1.796274e+003,1.397656e+001
1.797239e+003,1.143359e+001
1.798203e+003,8.173706e+000
1.799167e+003,8.840332e+000
1.800131e+003,1.266663e+001
1.801095e+003,1.410303e+001
1.802060e+003,1.189185e+001
1.803024e+003,1.266333e+001
1.803988e+003,2.099573e+001
1.804952e+003,2.641968e+001
1.805917e+003,2.066724e+001
1.806881e+003,1.239063e+001
1.807845e+003,1.104053e+001
1.808809e+003,1.470947e+001
1.809773e+003,1.756250e+001
1.810738e+003,1.783972e+001
1.811702e+003,1.617969e+001
1.812666e+003,1.301624e+001
1.813630e+003,1.079907e+001
1.814595e+003,1.319641e+001
1.815559e+003,1.860999e+001
1.816523e+003,2.166980e+001
1.817487e+003,2.254529e+001
1.818452e+003,2.089124e+001
1.819416e+003,1.602710e+001
1.820380e+003,1.292078e+001
1.821344e+003,1.332190e+001
1.822309e+003,1.355200e+001
1.823273e+003,1.132361e+001
1.824237e+003,9.134399e+000
1.825201e+003,9.402832e+000
1.826166e+003,1.109143e+001
1.827130e+003,1.160693e+001
1.828094e+003,1.024915e+001
1.829058e+003,8.869507e+000
1.830022e+003,9.003784e+000
1.830987e+003,9.325806e+000
1.831951e+003,8.382202e+000
1.832915e+003,7.244507e+000
1.833879e+003,8.006836e+000
1.834844e+003,9.760376e+000
1.835808e+003,8.885986e+000
1.836772e+003,5.417969e+000
1.837736e+003,4.329102e+000
1.838700e+003,7.477539e+000
1.839665e+003,1.129175e+001
1.840629e+003,1.306421e+001
1.841593e+003,1.325696e+001
1.842557e+003,1.197314e+001
1.843522e+003,9.208130e+000
1.844486e+003,7.830933e+000
1.845450e+003,9.318359e+000
1.846414e+003,1.144092e+001
1.847379e+003,1.548474e+001
1.848343e+003,1.568250e+001
1.849307e+003,7.130859e+000
1.850271e+003,-1.544067e+000
1.851236e+003,-4.036133e+000
1.852200e+003,-2.076660e+000
1.853164e+003,1.737427e+000
1.854128e+003,5.208862e+000
1.855093e+003,6.176147e+000
1.856057e+003,4.633545e+000
1.857021e+003,2.161865e+000
1.857985e+003,-6.824951e-001
1.858949e+003,-2.728638e+000
1.859914e+003,-5.289307e-001
1.860878e+003,4.945068e+000
1.861842e+003,6.046753e+000
1.862806e+003,2.300293e+000
1.863771e+003,2.184204e+000
1.864735e+003,8.030273e+000
1.865699e+003,1.113147e+001
1.866663e+003,6.042480e+000
1.867627e+003,1.870728e+000
1.868592e+003,8.923096e+000
1.869556e+003,1.922607e+001
1.870520e+003,1.779309e+001
1.871484e+003,6.492432e+000
1.872449e+003,-1.873413e+000
1.873413e+003,-4.058350e+000
1.874377e+003,-2.182251e+000
1.875341e+003,2.551025e+000
1.876306e+003,8.049194e+000
1.877270e+003,1.523853e+001
1.878234e+003,2.031128e+001
1.879198e+003,1.856177e+001
1.880163e+003,1.284937e+001
1.881127e+003,8.039673e+000
1.882091e+003,5.289185e+000
1.883055e+003,4.144531e+000
1.884020e+003,4.153931e+000
1.884984e+003,4.231079e+000
1.885948e+003,3.394897e+000
1.886912e+003,2.656860e+000
1.887876e+003,4.505981e+000
1.888841e+003,8.642944e+000
1.889805e+003,9.771362e+000
1.890769e+003,7.031006e+000
1.891733e+003,5.985840e+000
1.892698e+003,7.011719e+000
1.893662e+003,8.627563e+000
1.894626e+003,1.213818e+001
1.895590e+003,1.431238e+001
1.896554e+003,1.296533e+001
1.897519e+003,9.909912e+000
1.898483e+003,4.696045e+000
1.899447e+003,-1.569580e+000
1.900411e+003,-2.387573e+000
1.901376e+003,3.983765e+000
1.902340e+003,8.617554e+000
1.903304e+003,7.287598e+000
1.904268e+003,4.501465e+000
1.905233e+003,2.215698e+000
1.906197e+003,1.145996e+000
1.907161e+003,3.539673e+000
1.908125e+003,7.248535e+000
1.909090e+003,7.275146e+000
1.910054e+003,3.611816e+000
1.911018e+003,2.276611e-001
1.911982e+003,-1.099854e+000
1.912947e+003,-1.453735e+000
1.913911e+003,-1.869385e+000
1.914875e+003,-1.687866e+000
1.915839e+003,-9.045410e-002
1.916803e+003,2.114868e+000
1.917768e+003,3.877441e+000
1.918732e+003,5.588989e+000
1.919696e+003,8.216431e+000
1.920660e+003,1.316333e+001
1.921625e+003,1.635510e+001
1.922589e+003,1.529297e+001
1.923553e+003,1.382922e+001
1.924517e+003,1.407507e+001
1.925481e+003,1.492383e+001
1.926446e+003,1.621643e+001
1.927410e+003,1.718408e+001
1.928374e+003,1.566614e+001
1.929338e+003,1.132141e+001
1.930303e+003,6.961914e+000
1.931267e+003,3.366455e+000
1.932231e+003,3.469727e+000
1.933195e+003,1.177246e+001
1.934160e+003,1.874548e+001
1.935124e+003,1.542651e+001
1.936088e+003,8.040283e+000
1.937052e+003,4.464966e+000
1.938017e+003,4.556030e+000
1.938981e+003,6.108765e+000
1.939945e+003,7.813599e+000
1.940909e+003,7.720703e+000
1.941874e+003,4.919800e+000
1.942838e+003,1.117065e+000
1.943802e+003,-1.555908e+000
1.944766e+003,-2.130981e+000
1.945730e+003,1.887207e-001
1.946695e+003,4.385742e+000
1.947659e+003,6.534546e+000
1.948623e+003,6.332886e+000
1.949587e+003,4.799194e+000
1.950552e+003,1.542114e+000
1.951516e+003,1.077271e+000
1.952480e+003,6.495728e+000
1.953444e+003,1.150500e+001
1.954408e+003,1.100781e+001
1.955373e+003,7.421631e+000
1.956337e+003,4.576538e+000
1.957301e+003,3.102783e+000
1.958265e+003,2.361450e+000
1.959230e+003,2.529785e+000
1.960194e+003,2.785645e+000
1.961158e+003,1.036743e+000
1.962122e+003,-2.792969e-001
1.963087e+003,4.273682e-001
1.964051e+003,9.793701e-001
1.965015e+003,3.778076e-001
1.965979e+003,2.766113e-001
1.966944e+003,2.193237e+000
1.967908e+003,4.508545e+000
1.968872e+003,4.205688e+000
1.969836e+003,1.902466e+000
1.970801e+003,1.849731e+000
1.971765e+003,5.732178e+000
1.972729e+003,9.418579e+000
1.973693e+003,9.178467e+000
1.974657e+003,7.305664e+000
1.975622e+003,6.796265e+000
1.976586e+003,6.968750e+000
1.977550e+003,6.487427e+000
1.978514e+003,5.977295e+000
1.979479e+003,8.451172e+000
1.980443e+003,1.381470e+001
1.981407e+003,1.559045e+001
1.982371e+003,1.150439e+001
1.983335e+003,7.124268e+000
1.984300e+003,6.103882e+000
1.985264e+003,6.772827e+000
1.986228e+003,7.220581e+000
1.987192e+003,7.537964e+000
1.988157e+003,8.503418e+000
1.989121e+003,1.122668e+001
1.990085e+003,1.021484e+001
1.991049e+003,2.171143e+000
1.992014e+003,-1.982544e+000
1.992978e+003,1.471558e+000
1.993942e+003,4.785522e+000
1.994906e+003,5.362061e+000
1.995871e+003,4.904663e+000
1.996835e+003,3.816772e+000
1.997799e+003,3.502563e+000
1.998763e+003,5.959473e+000
1.999728e+003,1.025928e+001
