5.003444e+002,4.722986e+001
5.013087e+002,4.768703e+001
5.022729e+002,4.784108e+001
5.032371e+002,4.745143e+001
5.042014e+002,4.513330e+001
5.051656e+002,4.129584e+001
5.061298e+002,3.800748e+001
5.070941e+002,3.719421e+001
5.080583e+002,3.936693e+001
5.090225e+002,4.089766e+001
5.099868e+002,4.189714e+001
5.109510e+002,4.239778e+001
5.119152e+002,4.221120e+001
5.128795e+002,4.129399e+001
5.138437e+002,4.063835e+001
5.148079e+002,4.139484e+001
5.157722e+002,4.181384e+001
5.167364e+002,4.073039e+001
5.177006e+002,3.823627e+001
5.186649e+002,3.566373e+001
5.196291e+002,3.491153e+001
5.205933e+002,3.509303e+001
5.215576e+002,3.512514e+001
5.225218e+002,3.476376e+001
5.234860e+002,3.411140e+001
5.244503e+002,3.347066e+001
5.254145e+002,3.300618e+001
5.263787e+002,3.258640e+001
5.273430e+002,3.236774e+001
5.283072e+002,3.209190e+001
5.292714e+002,3.115900e+001
5.302357e+002,2.848199e+001
5.311999e+002,2.731465e+001
5.321641e+002,2.912447e+001
5.331284e+002,3.171910e+001
5.340926e+002,3.329022e+001
5.350568e+002,3.306108e+001
5.360211e+002,3.250279e+001
5.369853e+002,3.358694e+001
5.379495e+002,3.494069e+001
5.389138e+002,3.537958e+001
5.398780e+002,3.441943e+001
5.408422e+002,3.240326e+001
5.418065e+002,2.986136e+001
5.427707e+002,2.695726e+001
5.437349e+002,2.513029e+001
5.446992e+002,2.494756e+001
5.456634e+002,2.596477e+001
5.466276e+002,2.666409e+001
5.475919e+002,2.705705e+001
5.485561e+002,2.709831e+001
5.495203e+002,2.645631e+001
5.504846e+002,2.548251e+001
5.514488e+002,2.464853e+001
5.524130e+002,2.403423e+001
5.533773e+002,2.402510e+001
5.543415e+002,2.549446e+001
5.553057e+002,2.717741e+001
5.562700e+002,2.757693e+001
5.572342e+002,2.577525e+001
5.581984e+002,2.287158e+001
5.591627e+002,2.156131e+001
5.601269e+002,2.138771e+001
5.610911e+002,2.145107e+001
5.620554e+002,2.127498e+001
5.630196e+002,2.084637e+001
5.639838e+002,2.043510e+001
5.649481e+002,2.038844e+001
5.659123e+002,1.988174e+001
5.668765e+002,1.822676e+001
5.678408e+002,1.612442e+001
5.688050e+002,1.557568e+001
5.697692e+002,1.889757e+001
5.707335e+002,2.086266e+001
5.716977e+002,1.894606e+001
5.726619e+002,1.522589e+001
5.736262e+002,1.245752e+001
5.745904e+002,1.254460e+001
5.755546e+002,1.424582e+001
5.765189e+002,1.575279e+001
5.774831e+002,1.690753e+001
5.784473e+002,1.752092e+001
5.794116e+002,1.750723e+001
5.803758e+002,1.696925e+001
5.813400e+002,1.615944e+001
5.823043e+002,1.466129e+001
5.832685e+002,1.355632e+001
5.842327e+002,1.359081e+001
5.851970e+002,1.462431e+001
5.861612e+002,1.526172e+001
5.871254e+002,1.449875e+001
5.880897e+002,1.408940e+001
5.890539e+002,1.493011e+001
5.900181e+002,1.617834e+001
5.909824e+002,1.637520e+001
5.919466e+002,1.435248e+001
5.929108e+002,1.162788e+001
5.938751e+002,9.152237e+000
5.948393e+002,7.363342e+000
5.958035e+002,7.354477e+000
5.967678e+002,9.884781e+000
5.977320e+002,1.439026e+001
5.986962e+002,1.584949e+001
5.996605e+002,1.423981e+001
6.006247e+002,1.242981e+001
6.015889e+002,1.186288e+001
6.025532e+002,1.242760e+001
6.035174e+002,1.223021e+001
6.044816e+002,9.853958e+000
6.054459e+002,8.281418e+000
6.064101e+002,8.298203e+000
6.073743e+002,9.345001e+000
6.083386e+002,1.045709e+001
6.093028e+002,1.136745e+001
6.102670e+002,1.179974e+001
6.112313e+002,1.124861e+001
6.121955e+002,1.030130e+001
6.131597e+002,9.766129e+000
6.141240e+002,1.018307e+001
6.150882e+002,1.123682e+001
6.160524e+002,1.156136e+001
6.170167e+002,1.134032e+001
6.179809e+002,1.136125e+001
6.189451e+002,1.205592e+001
6.199094e+002,1.322679e+001
6.208736e+002,1.374150e+001
6.218378e+002,1.353676e+001
6.228021e+002,1.284259e+001
6.237663e+002,1.101071e+001
6.247305e+002,8.897034e+000
6.256948e+002,7.929779e+000
6.266590e+002,9.047424e+000
6.276232e+002,1.025252e+001
6.285875e+002,1.034207e+001
6.295517e+002,9.971695e+000
6.305159e+002,9.830490e+000
6.314802e+002,1.024887e+001
6.324444e+002,1.082664e+001
6.334086e+002,1.056863e+001
6.343729e+002,9.762726e+000
6.353371e+002,8.515533e+000
6.363013e+002,6.582779e+000
6.372656e+002,4.525177e+000
6.382298e+002,4.514603e+000
6.391940e+002,9.929123e+000
6.401583e+002,1.282098e+001
6.411225e+002,1.199831e+001
6.420867e+002,9.433441e+000
6.430510e+002,7.057251e+000
6.440152e+002,4.946671e+000
6.449794e+002,4.089127e+000
6.459437e+002,6.034180e+000
6.469079e+002,8.434113e+000
6.478721e+002,9.422684e+000
6.488364e+002,8.427185e+000
6.498006e+002,6.552063e+000
6.507648e+002,5.548828e+000
6.517291e+002,5.128860e+000
6.526933e+002,4.690002e+000
6.536575e+002,4.104431e+000
6.546218e+002,3.541168e+000
6.555860e+002,3.343018e+000
6.565502e+002,3.761108e+000
6.575145e+002,3.999817e+000
6.584787e+002,3.858948e+000
6.594429e+002,3.735855e+000
6.604072e+002,4.176987e+000
6.613714e+002,5.382797e+000
6.623356e+002,5.879105e+000
6.632999e+002,3.417084e+000
6.642641e+002,1.258102e+000
6.652283e+002,1.914764e+000
6.661926e+002,5.023804e+000
6.671568e+002,7.900604e+000
6.681210e+002,6.842911e+000
6.690853e+002,3.530182e+000
6.700495e+002,2.963287e+000
6.710137e+002,5.086472e+000
6.719780e+002,7.568863e+000
6.729422e+002,7.887802e+000
6.739064e+002,5.528412e+000
6.748707e+002,3.710815e+000
6.758349e+002,1.853088e+000
6.767991e+002,9.306488e-001
6.777634e+002,2.246170e+000
6.787276e+002,5.410172e+000
6.796918e+002,7.244156e+000
6.806561e+002,4.659470e+000
6.816203e+002,2.431137e+000
6.825845e+002,2.758652e+000
6.835488e+002,4.658600e+000
6.845130e+002,6.364197e+000
6.854772e+002,6.582977e+000
6.864415e+002,5.994720e+000
6.874057e+002,6.302933e+000
6.883699e+002,6.980011e+000
6.893342e+002,6.597183e+000
6.902984e+002,4.246872e+000
6.912626e+002,4.709473e-001
6.922269e+002,-1.199844e+000
6.931911e+002,1.611526e+000
6.941553e+002,3.601181e+000
6.951196e+002,3.787064e+000
6.960838e+002,2.962585e+000
6.970480e+002,2.497787e+000
6.980123e+002,2.946609e+000
6.989765e+002,3.171097e+000
6.999407e+002,2.381531e+000
7.009050e+002,1.411774e+000
7.018692e+002,9.393768e-001
7.028334e+002,1.165710e+000
7.037977e+002,1.694885e+000
7.047619e+002,2.052017e+000
7.057261e+002,2.327698e+000
7.066904e+002,2.480545e+000
7.076546e+002,2.496323e+000
7.086188e+002,2.559143e+000
7.095831e+002,2.942642e+000
7.105473e+002,3.597641e+000
7.115115e+002,4.675659e+000
7.124758e+002,7.278870e+000
7.134400e+002,9.110413e+000
7.144042e+002,8.205475e+000
7.153685e+002,4.658875e+000
7.163327e+002,2.019287e+000
7.172969e+002,3.165497e+000
7.182612e+002,4.447342e+000
7.192254e+002,4.265579e+000
7.201896e+002,2.979614e+000
7.211539e+002,1.640808e+000
7.221181e+002,1.100739e+000
7.230823e+002,1.223618e+000
7.240466e+002,1.725769e+000
7.250108e+002,2.564453e+000
7.259750e+002,3.202286e+000
7.269393e+002,3.223419e+000
7.279035e+002,2.594925e+000
7.288677e+002,1.910721e+000
7.298320e+002,1.351669e+000
7.307962e+002,9.158630e-001
7.317604e+002,2.428436e-001
7.327247e+002,-1.397247e-001
7.336889e+002,7.515106e-001
7.346531e+002,3.611755e+000
7.356174e+002,5.533554e+000
7.365816e+002,4.721298e+000
7.375458e+002,3.015991e+000
7.385101e+002,1.490387e+000
7.394743e+002,5.900726e-001
7.404385e+002,2.982330e-001
7.414028e+002,7.615967e-001
7.423670e+002,1.572403e+000
7.433312e+002,1.626694e+000
7.442955e+002,9.143982e-001
7.452597e+002,3.748322e-001
7.462239e+002,1.271301e+000
7.471882e+002,4.305939e+000
7.481524e+002,5.382339e+000
7.491166e+002,2.335587e+000
7.500809e+002,-1.334839e-001
7.510451e+002,4.045105e-001
7.520093e+002,3.139648e+000
7.529736e+002,4.801117e+000
7.539378e+002,3.282471e+000
7.549020e+002,1.473053e+000
7.558663e+002,1.120300e+000
7.568306e+002,1.692642e+000
7.577948e+002,2.364532e+000
7.587590e+002,2.614685e+000
7.597233e+002,2.701172e+000
7.606875e+002,4.073578e+000
7.616517e+002,6.560364e+000
7.626160e+002,7.362839e+000
7.635802e+002,5.281097e+000
7.645444e+002,1.670181e+000
7.655087e+002,-7.120819e-001
7.664729e+002,-1.522217e+000
7.674371e+002,-1.720871e+000
7.684014e+002,-1.522385e+000
7.693656e+002,-8.049011e-001
7.703298e+002,9.869843e-001
7.712941e+002,3.706421e+000
7.722583e+002,5.815811e+000
7.732225e+002,5.756210e+000
7.741868e+002,4.954346e+000
7.751510e+002,4.380829e+000
7.761152e+002,4.068695e+000
7.770795e+002,3.792175e+000
7.780437e+002,3.337875e+000
7.790079e+002,2.718613e+000
7.799722e+002,2.106827e+000
7.809364e+002,1.291504e+000
7.819006e+002,1.323990e+000
7.828649e+002,3.496185e+000
7.838291e+002,6.963547e+000
7.847933e+002,8.631088e+000
7.857576e+002,7.125305e+000
7.867218e+002,5.518265e+000
7.876860e+002,4.088409e+000
7.886503e+002,3.167419e+000
7.896145e+002,3.160645e+000
7.905787e+002,4.106216e+000
7.915430e+002,5.315536e+000
7.925072e+002,5.866547e+000
7.934714e+002,6.235199e+000
7.944357e+002,7.580124e+000
7.953999e+002,9.684830e+000
7.963641e+002,1.092703e+001
7.973284e+002,9.332901e+000
7.982926e+002,4.636642e+000
7.992568e+002,2.413330e+000
8.002211e+002,3.231522e+000
8.011853e+002,4.278976e+000
8.021495e+002,4.904327e+000
8.031138e+002,5.253830e+000
8.040780e+002,5.315842e+000
8.050422e+002,4.351166e+000
8.060065e+002,4.089050e+000
8.069707e+002,5.667648e+000
8.079349e+002,7.640976e+000
8.088992e+002,8.525650e+000
8.098634e+002,7.902817e+000
8.108276e+002,6.867737e+000
8.117919e+002,6.920074e+000
8.127561e+002,7.472931e+000
8.137203e+002,7.679916e+000
8.146846e+002,7.551117e+000
8.156488e+002,7.389786e+000
8.166130e+002,7.552414e+000
8.175773e+002,8.193420e+000
8.185415e+002,7.992615e+000
8.195057e+002,5.502014e+000
8.204700e+002,3.884537e+000
8.214342e+002,4.867630e+000
8.223984e+002,7.538467e+000
8.233627e+002,9.397476e+000
8.243269e+002,9.394073e+000
8.252911e+002,8.925400e+000
8.262554e+002,8.660172e+000
8.272196e+002,8.555313e+000
8.281838e+002,8.618057e+000
8.291481e+002,8.809479e+000
8.301123e+002,9.022339e+000
8.310765e+002,9.143906e+000
8.320408e+002,9.059982e+000
8.330050e+002,8.251556e+000
8.339692e+002,6.523605e+000
8.349335e+002,4.682587e+000
8.358977e+002,3.696838e+000
8.368619e+002,3.787674e+000
8.378262e+002,3.481674e+000
8.387904e+002,2.203751e+000
8.397546e+002,9.768066e-001
8.407189e+002,-4.907379e-001
8.416831e+002,-1.587509e+000
8.426473e+002,-1.029648e+000
8.436116e+002,2.160614e+000
8.445758e+002,5.437469e+000
8.455400e+002,5.650421e+000
8.465043e+002,4.440414e+000
8.474685e+002,3.780914e+000
8.484327e+002,4.247757e+000
8.493970e+002,4.884476e+000
8.503612e+002,3.851563e+000
8.513254e+002,5.524597e-001
8.522897e+002,3.344421e-001
8.532539e+002,5.152191e+000
8.542181e+002,9.967224e+000
8.551824e+002,1.192216e+001
8.561466e+002,1.137912e+001
8.571108e+002,1.051277e+001
8.580751e+002,8.759476e+000
8.590393e+002,7.573349e+000
8.600035e+002,8.055115e+000
8.609678e+002,9.167633e+000
8.619320e+002,9.403534e+000
8.628962e+002,8.253799e+000
8.638605e+002,7.279129e+000
8.648247e+002,9.642593e+000
8.657889e+002,1.369476e+001
8.667532e+002,1.596230e+001
8.677174e+002,1.598456e+001
8.686816e+002,1.467601e+001
8.696459e+002,1.283226e+001
8.706101e+002,1.023386e+001
8.715743e+002,9.351440e+000
8.725386e+002,1.123035e+001
8.735028e+002,1.331316e+001
8.744670e+002,1.504094e+001
8.754313e+002,1.639706e+001
8.763955e+002,1.755318e+001
8.773597e+002,1.862222e+001
8.783240e+002,1.947519e+001
8.792882e+002,1.964008e+001
8.802524e+002,1.973018e+001
8.812167e+002,2.062547e+001
8.821809e+002,2.225438e+001
8.831451e+002,2.353421e+001
8.841094e+002,2.299126e+001
8.850736e+002,2.081651e+001
8.860378e+002,2.008737e+001
8.870021e+002,2.100661e+001
8.879663e+002,2.214336e+001
8.889305e+002,2.269713e+001
8.898948e+002,2.275272e+001
8.908590e+002,2.289978e+001
8.918232e+002,2.328244e+001
8.927875e+002,2.377588e+001
8.937517e+002,2.430565e+001
8.947159e+002,2.495616e+001
8.956802e+002,2.596654e+001
8.966444e+002,2.719638e+001
8.976086e+002,2.790077e+001
8.985729e+002,2.718286e+001
8.995371e+002,2.578758e+001
9.005013e+002,2.479417e+001
9.014656e+002,2.427715e+001
9.024298e+002,2.414787e+001
9.033940e+002,2.429967e+001
9.043583e+002,2.463676e+001
9.053225e+002,2.503732e+001
9.062867e+002,2.533475e+001
9.072510e+002,2.578912e+001
9.082152e+002,2.653043e+001
9.091794e+002,2.757376e+001
9.101437e+002,2.931903e+001
9.111079e+002,3.183926e+001
9.120721e+002,3.326393e+001
9.130364e+002,3.123088e+001
9.140006e+002,2.858205e+001
9.149648e+002,2.652066e+001
9.159291e+002,2.536758e+001
9.168933e+002,2.539305e+001
9.178575e+002,2.670784e+001
9.188218e+002,2.878627e+001
9.197860e+002,3.009789e+001
9.207502e+002,3.065054e+001
9.217145e+002,3.005435e+001
9.226787e+002,2.777461e+001
9.236429e+002,2.497762e+001
9.246072e+002,2.312135e+001
9.255714e+002,2.223943e+001
9.265356e+002,2.168007e+001
9.274999e+002,2.146126e+001
9.284641e+002,2.132198e+001
9.294283e+002,2.135881e+001
9.303926e+002,2.144818e+001
9.313568e+002,2.120171e+001
9.323210e+002,2.035590e+001
9.332853e+002,1.969942e+001
9.342495e+002,2.162338e+001
9.352137e+002,2.434441e+001
9.361780e+002,2.466335e+001
9.371422e+002,2.201448e+001
9.381064e+002,1.867770e+001
9.390707e+002,1.769905e+001
9.400349e+002,1.944363e+001
9.409991e+002,2.031282e+001
9.419634e+002,1.956496e+001
9.429276e+002,1.896854e+001
9.438918e+002,1.936971e+001
9.448561e+002,2.012662e+001
9.458203e+002,1.999753e+001
9.467845e+002,1.848500e+001
9.477488e+002,1.704146e+001
9.487130e+002,1.698595e+001
9.496772e+002,1.724860e+001
9.506415e+002,1.678494e+001
9.516057e+002,1.572035e+001
9.525699e+002,1.511794e+001
9.535342e+002,1.603481e+001
9.544984e+002,1.813342e+001
9.554626e+002,1.870032e+001
9.564269e+002,1.771848e+001
9.573911e+002,1.660072e+001
9.583553e+002,1.534810e+001
9.593196e+002,1.426431e+001
9.602838e+002,1.402180e+001
9.612480e+002,1.488187e+001
9.622123e+002,1.542455e+001
9.631765e+002,1.506407e+001
9.641407e+002,1.455347e+001
9.651050e+002,1.423970e+001
9.660692e+002,1.398457e+001
9.670334e+002,1.351497e+001
9.679977e+002,1.272021e+001
9.689619e+002,1.168880e+001
9.699261e+002,9.504501e+000
9.708904e+002,6.919266e+000
9.718546e+002,7.164749e+000
9.728188e+002,1.131454e+001
9.737831e+002,1.680472e+001
9.747473e+002,2.054720e+001
9.757115e+002,2.249120e+001
9.766758e+002,2.302051e+001
9.776400e+002,2.097989e+001
9.786042e+002,1.910301e+001
9.795685e+002,1.833855e+001
9.805327e+002,1.783438e+001
9.814969e+002,1.623508e+001
9.824612e+002,1.314836e+001
9.834254e+002,1.017738e+001
9.843896e+002,8.870850e+000
9.853539e+002,8.407867e+000
9.863181e+002,8.001785e+000
9.872823e+002,7.568039e+000
9.882466e+002,7.539795e+000
9.892108e+002,8.433289e+000
9.901750e+002,1.005959e+001
9.911393e+002,1.001163e+001
9.921035e+002,5.899200e+000
9.930677e+002,3.485245e+000
9.940320e+002,4.316086e+000
9.949962e+002,6.086441e+000
9.959604e+002,6.627869e+000
9.969247e+002,5.837479e+000
9.978889e+002,5.375946e+000
9.988531e+002,6.356308e+000
9.998174e+002,7.137878e+000
1.000782e+003,6.633652e+000
1.001746e+003,5.482956e+000
1.002710e+003,4.607086e+000
1.003674e+003,4.390976e+000
1.004639e+003,4.475891e+000
1.005603e+003,4.243668e+000
1.006567e+003,3.620773e+000
1.007531e+003,2.940796e+000
1.008495e+003,1.818649e+000
1.009460e+003,1.385574e+000
1.010424e+003,2.855652e+000
1.011388e+003,5.685638e+000
1.012352e+003,7.584473e+000
1.013317e+003,8.111511e+000
1.014281e+003,7.827988e+000
1.015245e+003,6.732330e+000
1.016209e+003,5.205002e+000
1.017174e+003,2.900726e+000
1.018138e+003,3.791656e-001
1.019102e+003,-6.887817e-001
1.020066e+003,1.322678e+000
1.021031e+003,4.971832e+000
1.021995e+003,5.765808e+000
1.022959e+003,4.192123e+000
1.023923e+003,2.330658e+000
1.024887e+003,6.487427e-001
1.025852e+003,-6.972046e-001
1.026816e+003,-1.361099e+000
1.027780e+003,-1.141266e+000
1.028744e+003,-8.412476e-001
1.029709e+003,-5.659027e-001
1.030673e+003,-2.018127e-001
1.031637e+003,7.542267e-001
1.032601e+003,1.568573e+000
1.033566e+003,1.044250e+000
1.034530e+003,-1.165833e+000
1.035494e+003,-3.624725e+000
1.036458e+003,-4.983566e+000
1.037422e+003,-5.448883e+000
1.038387e+003,-5.255875e+000
1.039351e+003,-4.500748e+000
1.040315e+003,-3.486771e+000
1.041279e+003,-2.353729e+000
1.042244e+003,-1.148758e+000
1.043208e+003,-2.765198e-001
1.044172e+003,3.495178e-001
1.045136e+003,1.748810e-001
1.046101e+003,-1.946762e+000
1.047065e+003,-3.617294e+000
1.048029e+003,-2.777817e+000
1.048993e+003,-7.012939e-002
1.049958e+003,1.852859e+000
1.050922e+003,1.647034e+000
1.051886e+003,7.582550e-001
1.052850e+003,3.348694e-001
1.053814e+003,3.137970e-001
1.054779e+003,9.506683e-001
1.055743e+003,2.118881e+000
1.056707e+003,2.897644e+000
1.057671e+003,2.121506e+000
1.058636e+003,-2.419739e-001
1.059600e+003,-1.676758e+000
1.060564e+003,-1.683014e+000
1.061528e+003,-1.329071e+000
1.062493e+003,-6.999207e-001
1.063457e+003,3.251648e-002
1.064421e+003,9.707031e-001
1.065385e+003,2.127777e+000
1.066349e+003,2.510040e+000
1.067314e+003,6.671906e-001
1.068278e+003,-9.444122e-001
1.069242e+003,-9.507751e-002
1.070206e+003,2.014282e+000
1.071171e+003,3.437225e+000
1.072135e+003,3.303497e+000
1.073099e+003,2.148300e+000
1.074063e+003,8.727264e-001
1.075028e+003,-5.577240e-001
1.075992e+003,-8.183594e-001
1.076956e+003,9.321747e-001
1.077920e+003,2.099014e+000
1.078885e+003,1.258621e+000
1.079849e+003,-4.879456e-001
1.080813e+003,-1.149307e+000
1.081777e+003,-3.207092e-001
1.082741e+003,8.703918e-001
1.083706e+003,2.617111e+000
1.084670e+003,3.711197e+000
1.085634e+003,3.007462e+000
1.086598e+003,1.176102e+000
1.087563e+003,-5.220642e-001
1.088527e+003,-1.310471e+000
1.089491e+003,-1.299118e+000
1.090455e+003,-7.130127e-001
1.091420e+003,4.587555e-001
1.092384e+003,7.244720e-001
1.093348e+003,-2.375031e-001
1.094312e+003,-1.611206e+000
1.095276e+003,-3.227966e+000
1.096241e+003,-4.780197e+000
1.097205e+003,-5.324310e+000
1.098169e+003,-4.408569e+000
1.099133e+003,-3.687408e+000
1.100098e+003,-3.946167e+000
1.101062e+003,-4.346329e+000
1.102026e+003,-4.526306e+000
1.102990e+003,-4.374054e+000
1.103955e+003,-3.745392e+000
1.104919e+003,-2.585251e+000
1.105883e+003,-1.337296e+000
1.106847e+003,-9.442139e-001
1.107812e+003,-1.451309e+000
1.108776e+003,-1.885910e+000
1.109740e+003,-2.256058e+000
1.110704e+003,-2.451202e+000
1.111668e+003,-2.418701e+000
1.112633e+003,-2.057022e+000
1.113597e+003,-8.836060e-001
1.114561e+003,2.117111e+000
1.115525e+003,3.378372e+000
1.116490e+003,6.120300e-002
1.117454e+003,-3.465820e+000
1.118418e+003,-4.027023e+000
1.119382e+003,-2.236023e+000
1.120347e+003,-5.515289e-001
1.121311e+003,-5.552979e-001
1.122275e+003,-1.737961e+000
1.123239e+003,-3.035889e+000
1.124203e+003,-4.288101e+000
1.125168e+003,-5.202744e+000
1.126132e+003,-6.009003e+000
1.127096e+003,-5.737183e+000
1.128060e+003,-2.515030e+000
1.129025e+003,2.592346e+000
1.129989e+003,4.142227e+000
1.130953e+003,-5.093536e-001
1.131917e+003,-3.560944e+000
1.132882e+003,-1.374451e+000
1.133846e+003,1.378723e+000
1.134810e+003,1.869583e+000
1.135774e+003,5.082245e-001
1.136739e+003,-1.018631e+000
1.137703e+003,-1.749115e+000
1.138667e+003,-1.908798e+000
1.139631e+003,-1.732956e+000
1.140595e+003,-1.301468e+000
1.141560e+003,-1.210373e+000
1.142524e+003,-1.528076e+000
1.143488e+003,-1.784607e+000
1.144452e+003,-2.144592e+000
1.145417e+003,-2.244080e+000
1.146381e+003,-4.853058e-001
1.147345e+003,3.991531e+000
1.148309e+003,8.027863e+000
1.149274e+003,1.119620e+001
1.150238e+003,1.351186e+001
1.151202e+003,1.452361e+001
1.152166e+003,1.485672e+001
1.153130e+003,1.562032e+001
1.154095e+003,1.721382e+001
1.155059e+003,1.863000e+001
1.156023e+003,1.834790e+001
1.156987e+003,1.674792e+001
1.157952e+003,1.671272e+001
1.158916e+003,1.885812e+001
1.159880e+003,1.998743e+001
1.160844e+003,1.769830e+001
1.161809e+003,1.320456e+001
1.162773e+003,9.255478e+000
1.163737e+003,5.776062e+000
1.164701e+003,3.324020e+000
1.165666e+003,3.270828e+000
1.166630e+003,3.108414e+000
1.167594e+003,1.726257e+000
1.168558e+003,-2.664642e-001
1.169522e+003,-2.113831e+000
1.170487e+003,-3.475494e+000
1.171451e+003,-4.226944e+000
1.172415e+003,-4.164719e+000
1.173379e+003,-3.500015e+000
1.174344e+003,-3.281296e+000
1.175308e+003,-3.502289e+000
1.176272e+003,-3.622101e+000
1.177236e+003,-3.144257e+000
1.178201e+003,-2.673462e+000
1.179165e+003,-3.203217e+000
1.180129e+003,-4.806152e+000
1.181093e+003,-6.176804e+000
1.182057e+003,-7.488052e+000
1.183022e+003,-7.700272e+000
1.183986e+003,-5.266708e+000
1.184950e+003,-2.502975e+000
1.185914e+003,-2.042908e+000
1.186879e+003,-3.685928e+000
1.187843e+003,-4.837738e+000
1.188807e+003,-3.370697e+000
1.189771e+003,-5.249786e-001
1.190736e+003,-3.991699e-002
1.191700e+003,-2.185669e+000
1.192664e+003,-4.228058e+000
1.193628e+003,-6.332825e+000
1.194593e+003,-7.685394e+000
1.195557e+003,-7.118652e+000
1.196521e+003,-5.323227e+000
1.197485e+003,-4.868423e+000
1.198449e+003,-6.594437e+000
1.199414e+003,-8.154266e+000
1.200378e+003,-8.558472e+000
1.201342e+003,-8.378616e+000
1.202306e+003,-7.372711e+000
1.203271e+003,-6.202042e+000
1.204235e+003,-6.170456e+000
1.205199e+003,-7.800766e+000
1.206163e+003,-1.003429e+001
1.207128e+003,-1.112100e+001
1.208092e+003,-1.098323e+001
1.209056e+003,-1.085516e+001
1.210020e+003,-1.064117e+001
1.210984e+003,-1.060379e+001
1.211949e+003,-1.119707e+001
1.212913e+003,-1.180505e+001
1.213877e+003,-1.125757e+001
1.214841e+003,-9.531998e+000
1.215806e+003,-8.688934e+000
1.216770e+003,-9.813095e+000
1.217734e+003,-1.165340e+001
1.218698e+003,-1.391771e+001
1.219663e+003,-1.599422e+001
1.220627e+003,-1.708536e+001
1.221591e+003,-1.708855e+001
1.222555e+003,-1.635779e+001
1.223520e+003,-1.516841e+001
1.224484e+003,-1.370461e+001
1.225448e+003,-1.299316e+001
1.226412e+003,-1.342943e+001
1.227376e+003,-1.386247e+001
1.228341e+003,-1.472952e+001
1.229305e+003,-1.516536e+001
1.230269e+003,-1.418970e+001
1.231233e+003,-1.259825e+001
1.232198e+003,-1.214505e+001
1.233162e+003,-1.330594e+001
1.234126e+003,-1.436145e+001
1.235090e+003,-1.374890e+001
1.236055e+003,-1.286942e+001
1.237019e+003,-1.377798e+001
1.237983e+003,-1.565630e+001
1.238947e+003,-1.572771e+001
1.239911e+003,-1.284256e+001
1.240876e+003,-9.834396e+000
1.241840e+003,-1.138852e+001
1.242804e+003,-1.792464e+001
1.243768e+003,-2.117853e+001
1.244733e+003,-1.791864e+001
1.245697e+003,-1.544801e+001
1.246661e+003,-1.472533e+001
1.247625e+003,-1.471355e+001
1.248590e+003,-1.469481e+001
1.249554e+003,-1.456546e+001
1.250518e+003,-1.446092e+001
1.251482e+003,-1.447017e+001
1.252447e+003,-1.472983e+001
1.253411e+003,-1.551128e+001
1.254375e+003,-1.649585e+001
1.255339e+003,-1.716354e+001
1.256303e+003,-1.744334e+001
1.257268e+003,-1.719392e+001
1.258232e+003,-1.623763e+001
1.259196e+003,-1.501689e+001
1.260160e+003,-1.438574e+001
1.261125e+003,-1.442923e+001
1.262089e+003,-1.413026e+001
1.263053e+003,-1.305325e+001
1.264017e+003,-1.218924e+001
1.264982e+003,-1.202040e+001
1.265946e+003,-1.192302e+001
1.266910e+003,-1.110864e+001
1.267874e+003,-9.743210e+000
1.268839e+003,-8.788040e+000
1.269803e+003,-8.889206e+000
1.270767e+003,-9.377899e+000
1.271731e+003,-8.704391e+000
1.272695e+003,-6.968201e+000
1.273660e+003,-7.065338e+000
1.274624e+003,-9.890228e+000
1.275588e+003,-1.266205e+001
1.276552e+003,-1.382314e+001
1.277517e+003,-1.385378e+001
1.278481e+003,-1.365300e+001
1.279445e+003,-1.327773e+001
1.280409e+003,-1.286713e+001
1.281374e+003,-1.230898e+001
1.282338e+003,-1.193044e+001
1.283302e+003,-1.218353e+001
1.284266e+003,-1.254004e+001
1.285230e+003,-1.216621e+001
1.286195e+003,-1.117372e+001
1.287159e+003,-1.060587e+001
1.288123e+003,-1.129526e+001
1.289087e+003,-1.270097e+001
1.290052e+003,-1.330362e+001
1.291016e+003,-1.291077e+001
1.291980e+003,-1.254491e+001
1.292944e+003,-1.205267e+001
1.293909e+003,-1.190590e+001
1.294873e+003,-1.240726e+001
1.295837e+003,-1.317273e+001
1.296801e+003,-1.370880e+001
1.297766e+003,-1.395268e+001
1.298730e+003,-1.422946e+001
1.299694e+003,-1.493724e+001
1.300658e+003,-1.540974e+001
1.301622e+003,-1.450993e+001
1.302587e+003,-1.299797e+001
1.303551e+003,-1.208252e+001
1.304515e+003,-1.194913e+001
1.305479e+003,-1.217612e+001
1.306444e+003,-1.250951e+001
1.307408e+003,-1.294392e+001
1.308372e+003,-1.343445e+001
1.309336e+003,-1.425270e+001
1.310301e+003,-1.427539e+001
1.311265e+003,-1.216675e+001
1.312229e+003,-1.077975e+001
1.313193e+003,-1.163295e+001
1.314157e+003,-1.320006e+001
1.315122e+003,-1.385925e+001
1.316086e+003,-1.347368e+001
1.317050e+003,-1.285286e+001
1.318014e+003,-1.246124e+001
1.318979e+003,-1.235425e+001
1.319943e+003,-1.281827e+001
1.320907e+003,-1.373051e+001
1.321871e+003,-1.424385e+001
1.322836e+003,-1.435367e+001
1.323800e+003,-1.431947e+001
1.324764e+003,-1.437811e+001
1.325728e+003,-1.429913e+001
1.326693e+003,-1.354561e+001
1.327657e+003,-1.212840e+001
1.328621e+003,-1.119504e+001
1.329585e+003,-1.114325e+001
1.330549e+003,-1.104332e+001
1.331514e+003,-1.021014e+001
1.332478e+003,-9.552109e+000
1.333442e+003,-1.028061e+001
1.334406e+003,-1.196558e+001
1.335371e+003,-1.289876e+001
1.336335e+003,-1.208626e+001
1.337299e+003,-1.061845e+001
1.338263e+003,-1.066528e+001
1.339228e+003,-1.250468e+001
1.340192e+003,-1.319513e+001
1.341156e+003,-1.180054e+001
1.342120e+003,-1.072942e+001
1.343084e+003,-1.043433e+001
1.344049e+003,-1.060745e+001
1.345013e+003,-1.142764e+001
1.345977e+003,-1.236955e+001
1.346941e+003,-1.184499e+001
1.347906e+003,-9.176514e+000
1.348870e+003,-6.796158e+000
1.349834e+003,-7.320801e+000
1.350798e+003,-9.405273e+000
1.351763e+003,-1.036662e+001
1.352727e+003,-1.030232e+001
1.353691e+003,-1.001563e+001
1.354655e+003,-9.787628e+000
1.355620e+003,-9.429993e+000
1.356584e+003,-8.288513e+000
1.357548e+003,-6.575394e+000
1.358512e+003,-6.808624e+000
1.359476e+003,-1.053279e+001
1.360441e+003,-1.262219e+001
1.361405e+003,-9.925629e+000
1.362369e+003,-7.266083e+000
1.363333e+003,-7.217850e+000
1.364298e+003,-8.581863e+000
1.365262e+003,-9.341721e+000
1.366226e+003,-9.099640e+000
1.367190e+003,-9.214828e+000
1.368155e+003,-1.093678e+001
1.369119e+003,-1.341016e+001
1.370083e+003,-1.381346e+001
1.371047e+003,-1.133409e+001
1.372011e+003,-1.003857e+001
1.372976e+003,-1.070995e+001
1.373940e+003,-1.162267e+001
1.374904e+003,-1.279877e+001
1.375868e+003,-1.339185e+001
1.376833e+003,-1.147664e+001
1.377797e+003,-7.549850e+000
1.378761e+003,-5.773727e+000
1.379725e+003,-8.437332e+000
1.380690e+003,-1.194154e+001
1.381654e+003,-1.265952e+001
1.382618e+003,-1.181769e+001
1.383582e+003,-1.079689e+001
1.384547e+003,-9.772018e+000
1.385511e+003,-8.923035e+000
1.386475e+003,-8.355667e+000
1.387439e+003,-8.091660e+000
1.388403e+003,-8.178024e+000
1.389368e+003,-8.621994e+000
1.390332e+003,-9.291824e+000
1.391296e+003,-1.059392e+001
1.392260e+003,-1.116122e+001
1.393225e+003,-1.001273e+001
1.394189e+003,-8.893204e+000
1.395153e+003,-9.030411e+000
1.396117e+003,-9.746964e+000
1.397082e+003,-9.801849e+000
1.398046e+003,-8.931259e+000
1.399010e+003,-7.960861e+000
1.399974e+003,-7.693253e+000
1.400938e+003,-8.000656e+000
1.401903e+003,-8.266190e+000
1.402867e+003,-8.332794e+000
1.403831e+003,-8.060165e+000
1.404795e+003,-7.304962e+000
1.405760e+003,-6.608475e+000
1.406724e+003,-6.238556e+000
1.407688e+003,-6.217285e+000
1.408652e+003,-6.372665e+000
1.409617e+003,-6.658569e+000
1.410581e+003,-7.443832e+000
1.411545e+003,-9.031021e+000
1.412509e+003,-1.033437e+001
1.413474e+003,-1.030560e+001
1.414438e+003,-9.389389e+000
1.415402e+003,-7.751175e+000
1.416366e+003,-5.615448e+000
1.417330e+003,-4.599228e+000
1.418295e+003,-5.517853e+000
1.419259e+003,-7.045639e+000
1.420223e+003,-7.920624e+000
1.421187e+003,-8.180115e+000
1.422152e+003,-7.558792e+000
1.423116e+003,-5.475830e+000
1.424080e+003,-4.143433e+000
1.425044e+003,-4.722244e+000
1.426009e+003,-5.764450e+000
1.426973e+003,-7.352600e+000
1.427937e+003,-8.684128e+000
1.428901e+003,-8.535446e+000
1.429865e+003,-7.073273e+000
1.430830e+003,-5.639236e+000
1.431794e+003,-5.160645e+000
1.432758e+003,-5.334549e+000
1.433722e+003,-5.488113e+000
1.434687e+003,-5.516342e+000
1.435651e+003,-5.433472e+000
1.436615e+003,-5.225098e+000
1.437579e+003,-5.445206e+000
1.438544e+003,-6.748215e+000
1.439508e+003,-7.804993e+000
1.440472e+003,-7.569794e+000
1.441436e+003,-6.401642e+000
1.442401e+003,-4.867783e+000
1.443365e+003,-3.269730e+000
1.444329e+003,-2.450760e+000
1.445293e+003,-3.161285e+000
1.446257e+003,-4.558731e+000
1.447222e+003,-5.181747e+000
1.448186e+003,-5.131805e+000
1.449150e+003,-4.611664e+000
1.450114e+003,-3.301941e+000
1.451079e+003,-2.979599e+000
1.452043e+003,-5.868851e+000
1.453007e+003,-9.229523e+000
1.453971e+003,-8.697098e+000
1.454936e+003,-4.868576e+000
1.455900e+003,-2.374161e+000
1.456864e+003,-2.250809e+000
1.457828e+003,-3.102814e+000
1.458792e+003,-5.184433e+000
1.459757e+003,-7.074356e+000
1.460721e+003,-7.920044e+000
1.461685e+003,-7.592850e+000
1.462649e+003,-5.237778e+000
1.463614e+003,-9.496155e-001
1.464578e+003,2.344894e+000
1.465542e+003,1.820618e+000
1.466506e+003,-1.233444e+000
1.467471e+003,-2.937790e+000
1.468435e+003,-2.921890e+000
1.469399e+003,-3.001221e+000
1.470363e+003,-3.464355e+000
1.471328e+003,-3.936066e+000
1.472292e+003,-4.778534e+000
1.473256e+003,-5.332870e+000
1.474220e+003,-4.501816e+000
1.475184e+003,-3.051224e+000
1.476149e+003,-2.697647e+000
1.477113e+003,-3.914337e+000
1.478077e+003,-5.529556e+000
1.479041e+003,-6.370316e+000
1.480006e+003,-6.410309e+000
1.480970e+003,-5.613525e+000
1.481934e+003,-3.623840e+000
1.482898e+003,-2.711197e+000
1.483863e+003,-3.840439e+000
1.484827e+003,-4.602631e+000
1.485791e+003,-3.919296e+000
1.486755e+003,-2.870361e+000
1.487719e+003,-2.407120e+000
1.488684e+003,-2.533096e+000
1.489648e+003,-3.027954e+000
1.490612e+003,-3.753601e+000
1.491576e+003,-4.098404e+000
1.492541e+003,-3.508820e+000
1.493505e+003,-2.419006e+000
1.494469e+003,-1.654694e+000
1.495433e+003,-1.273254e+000
1.496398e+003,-1.308594e+000
1.497362e+003,-1.842712e+000
1.498326e+003,-2.138290e+000
1.499290e+003,-2.002274e+000
1.500255e+003,-1.305878e+000
1.501219e+003,4.963226e-001
1.502183e+003,3.096252e+000
1.503147e+003,4.794067e+000
1.504111e+003,5.070328e+000
1.505076e+003,5.218613e+000
1.506040e+003,6.187912e+000
1.507004e+003,7.150925e+000
1.507968e+003,6.807037e+000
1.508933e+003,5.977646e+000
1.509897e+003,6.556503e+000
1.510861e+003,8.915604e+000
1.511825e+003,1.158229e+001
1.512790e+003,1.336165e+001
1.513754e+003,1.486295e+001
1.514718e+003,1.749388e+001
1.515682e+003,2.119220e+001
1.516646e+003,2.454565e+001
1.517611e+003,2.779898e+001
1.518575e+003,3.008432e+001
1.519539e+003,3.060582e+001
1.520503e+003,3.076392e+001
1.521468e+003,3.132195e+001
1.522432e+003,3.186388e+001
1.523396e+003,3.168652e+001
1.524360e+003,3.077505e+001
1.525325e+003,2.972701e+001
1.526289e+003,2.896106e+001
1.527253e+003,2.825417e+001
1.528217e+003,2.716858e+001
1.529182e+003,2.574748e+001
1.530146e+003,2.433144e+001
1.531110e+003,2.321922e+001
1.532074e+003,2.143329e+001
1.533039e+003,1.804951e+001
1.534003e+003,1.476128e+001
1.534967e+003,1.250639e+001
1.535931e+003,1.086435e+001
1.536896e+003,9.342834e+000
1.537860e+003,7.848663e+000
1.538824e+003,6.405273e+000
1.539788e+003,5.008102e+000
1.540752e+003,3.856537e+000
1.541717e+003,3.328995e+000
1.542681e+003,3.268219e+000
1.543645e+003,2.393768e+000
1.544609e+003,-1.119995e-001
1.545573e+003,-1.028519e+000
1.546538e+003,7.952118e-001
1.547502e+003,2.416428e+000
1.548466e+003,2.647079e+000
1.549430e+003,2.476227e+000
1.550395e+003,3.018524e+000
1.551359e+003,3.994003e+000
1.552323e+003,4.331787e+000
1.553287e+003,3.693573e+000
1.554252e+003,2.739990e+000
1.555216e+003,1.992340e+000
1.556180e+003,1.431305e+000
1.557144e+003,1.035645e+000
1.558109e+003,8.453369e-001
1.559073e+003,8.847351e-001
1.560037e+003,1.637955e+000
1.561001e+003,1.329529e+000
1.561966e+003,-2.188660e+000
1.562930e+003,-5.340576e+000
1.563894e+003,-4.275803e+000
1.564858e+003,-4.447021e-001
1.565823e+003,2.773819e+000
1.566787e+003,4.609085e+000
1.567751e+003,4.744949e+000
1.568715e+003,2.442566e+000
1.569679e+003,1.645203e-001
1.570644e+003,1.773422e+000
1.571608e+003,5.532303e+000
1.572572e+003,6.199844e+000
1.573536e+003,3.606232e+000
1.574500e+003,1.763092e+000
1.575465e+003,2.362518e+000
1.576429e+003,3.406448e+000
1.577393e+003,3.140198e+000
1.578357e+003,2.215988e+000
1.579322e+003,1.901321e+000
1.580286e+003,2.307404e+000
1.581250e+003,3.307861e+000
1.582214e+003,5.137741e+000
1.583179e+003,6.512619e+000
1.584143e+003,6.177856e+000
1.585107e+003,5.045868e+000
1.586071e+003,4.434784e+000
1.587036e+003,4.271759e+000
1.588000e+003,3.962234e+000
1.588964e+003,3.285034e+000
1.589928e+003,2.975571e+000
1.590893e+003,3.578766e+000
1.591857e+003,4.792969e+000
1.592821e+003,6.530304e+000
1.593785e+003,8.580841e+000
1.594750e+003,9.483459e+000
1.595714e+003,8.828384e+000
1.596678e+003,8.348450e+000
1.597642e+003,9.193756e+000
1.598606e+003,9.745880e+000
1.599571e+003,8.125275e+000
1.600535e+003,5.865311e+000
1.601499e+003,4.938843e+000
1.602463e+003,5.319366e+000
1.603427e+003,6.017441e+000
1.604392e+003,6.665009e+000
1.605356e+003,7.312195e+000
1.606320e+003,8.098145e+000
1.607284e+003,8.905258e+000
1.608249e+003,9.322983e+000
1.609213e+003,9.332108e+000
1.610177e+003,9.527725e+000
1.611141e+003,1.004855e+001
1.612106e+003,1.066292e+001
1.613070e+003,1.138200e+001
1.614034e+003,1.202441e+001
1.614998e+003,1.265964e+001
1.615963e+003,1.304883e+001
1.616927e+003,1.251810e+001
1.617891e+003,1.113730e+001
1.618855e+003,1.011697e+001
1.619820e+003,1.018646e+001
1.620784e+003,1.063571e+001
1.621748e+003,1.055457e+001
1.622712e+003,1.016550e+001
1.623677e+003,1.018661e+001
1.624641e+003,1.067267e+001
1.625605e+003,1.138078e+001
1.626569e+003,1.246320e+001
1.627533e+003,1.299980e+001
1.628498e+003,1.219266e+001
1.629462e+003,1.118123e+001
1.630426e+003,1.090987e+001
1.631390e+003,1.117429e+001
1.632354e+003,1.137013e+001
1.633319e+003,1.135674e+001
1.634283e+003,1.153908e+001
1.635247e+003,1.229793e+001
1.636211e+003,1.312064e+001
1.637176e+003,1.284999e+001
1.638140e+003,1.165282e+001
1.639104e+003,1.177806e+001
1.640068e+003,1.378264e+001
1.641033e+003,1.504266e+001
1.641997e+003,1.459096e+001
1.642961e+003,1.379912e+001
1.643925e+003,1.355038e+001
1.644890e+003,1.316133e+001
1.645854e+003,1.122980e+001
1.646818e+003,8.659058e+000
1.647782e+003,8.149933e+000
1.648747e+003,1.037459e+001
1.649711e+003,1.271230e+001
1.650675e+003,1.305301e+001
1.651639e+003,1.218057e+001
1.652604e+003,1.127203e+001
1.653568e+003,1.032265e+001
1.654532e+003,1.073207e+001
1.655496e+003,1.307480e+001
1.656460e+003,1.500105e+001
1.657425e+003,1.611844e+001
1.658389e+003,1.633070e+001
1.659353e+003,1.495242e+001
1.660317e+003,1.319984e+001
1.661281e+003,1.264641e+001
1.662246e+003,1.284412e+001
1.663210e+003,1.199667e+001
1.664174e+003,9.593521e+000
1.665138e+003,7.388321e+000
1.666103e+003,6.837738e+000
1.667067e+003,7.351685e+000
1.668031e+003,8.013840e+000
1.668995e+003,8.795517e+000
1.669960e+003,8.934341e+000
1.670924e+003,8.189987e+000
1.671888e+003,7.701889e+000
1.672852e+003,8.025894e+000
1.673817e+003,8.298843e+000
1.674781e+003,7.597672e+000
1.675745e+003,6.821671e+000
1.676709e+003,7.332275e+000
1.677674e+003,8.638489e+000
1.678638e+003,8.946060e+000
1.679602e+003,7.707626e+000
1.680566e+003,6.158264e+000
1.681531e+003,5.183060e+000
1.682495e+003,4.650742e+000
1.683459e+003,4.276474e+000
1.684423e+003,4.025864e+000
1.685387e+003,3.898972e+000
1.686352e+003,3.875397e+000
1.687316e+003,4.425659e+000
1.688280e+003,6.072632e+000
1.689244e+003,7.624039e+000
1.690208e+003,8.084167e+000
1.691173e+003,8.004364e+000
1.692137e+003,8.038773e+000
1.693101e+003,8.126251e+000
1.694065e+003,7.724518e+000
1.695030e+003,6.618408e+000
1.695994e+003,5.471451e+000
1.696958e+003,4.688400e+000
1.697922e+003,4.164169e+000
1.698887e+003,3.663406e+000
1.699851e+003,3.339905e+000
1.700815e+003,3.971115e+000
1.701779e+003,5.527771e+000
1.702744e+003,5.656006e+000
1.703708e+003,3.279282e+000
1.704672e+003,1.038605e+000
1.705636e+003,7.033234e-001
1.706601e+003,1.519775e+000
1.707565e+003,3.018585e+000
1.708529e+003,4.831284e+000
1.709493e+003,5.420654e+000
1.710458e+003,4.468292e+000
1.711422e+003,3.557999e+000
1.712386e+003,3.654861e+000
1.713350e+003,3.756256e+000
1.714314e+003,2.788025e+000
1.715279e+003,1.315796e+000
1.716243e+003,1.479034e-001
1.717207e+003,-5.511322e-001
1.718171e+003,-3.573914e-001
1.719135e+003,8.570404e-001
1.720100e+003,1.992783e+000
1.721064e+003,2.264587e+000
1.722028e+003,2.144348e+000
1.722992e+003,2.439331e+000
1.723957e+003,3.062729e+000
1.724921e+003,3.022446e+000
1.725885e+003,2.071030e+000
1.726849e+003,1.290619e+000
1.727814e+003,5.936737e-001
1.728778e+003,7.017517e-001
1.729742e+003,3.115921e+000
1.730706e+003,5.351730e+000
1.731671e+003,4.114838e+000
1.732635e+003,9.715424e-001
1.733599e+003,-2.727814e-001
1.734563e+003,9.337463e-001
1.735528e+003,2.538544e+000
1.736492e+003,3.416977e+000
1.737456e+003,3.443314e+000
1.738420e+003,2.322159e+000
1.739385e+003,5.151978e-001
1.740349e+003,-3.295898e-003
1.741313e+003,1.175278e+000
1.742277e+003,1.843948e+000
1.743241e+003,2.333084e+000
1.744206e+003,1.975739e+000
1.745170e+003,-8.443909e-001
1.746134e+003,-2.841675e+000
1.747098e+003,-1.306198e+000
1.748063e+003,1.339691e+000
1.749027e+003,2.410904e+000
1.749991e+003,1.906525e+000
1.750955e+003,8.448639e-001
1.751919e+003,-2.840424e-001
1.752884e+003,-1.242554e+000
1.753848e+003,-1.832886e+000
1.754812e+003,-2.126038e+000
1.755776e+003,-2.186020e+000
1.756741e+003,-1.959564e+000
1.757705e+003,-1.732849e+000
1.758669e+003,-1.625717e+000
1.759633e+003,-1.330017e+000
1.760598e+003,-5.951233e-001
1.761562e+003,-1.026611e-001
1.762526e+003,-7.099915e-002
1.763490e+003,-1.920624e-001
1.764455e+003,-3.512878e-001
1.765419e+003,-4.431610e-001
1.766383e+003,-3.624725e-001
1.767347e+003,-1.512909e-001
1.768312e+003,1.209869e-001
1.769276e+003,4.090881e-001
1.770240e+003,4.225311e-001
1.771204e+003,-2.605438e-001
1.772168e+003,-1.103592e+000
1.773133e+003,-8.869171e-001
1.774097e+003,2.649078e-001
1.775061e+003,1.271790e+000
1.776025e+003,2.072510e+000
1.776990e+003,1.680450e+000
1.777954e+003,-8.914185e-001
1.778918e+003,-3.002899e+000
1.779882e+003,-2.153183e+000
1.780846e+003,-3.898773e-001
1.781811e+003,-6.693115e-001
1.782775e+003,-2.301865e+000
1.783739e+003,-2.986923e+000
1.784703e+003,-2.319626e+000
1.785668e+003,-1.435776e+000
1.786632e+003,-5.023499e-001
1.787596e+003,-6.588745e-002
1.788560e+003,-1.024261e+000
1.789525e+003,-2.182297e+000
1.790489e+003,-1.805756e+000
1.791453e+003,-2.666626e-001
1.792417e+003,1.196136e+000
1.793382e+003,2.262802e+000
1.794346e+003,2.962738e+000
1.795310e+003,3.315399e+000
1.796274e+003,3.154572e+000
1.797239e+003,2.305374e+000
1.798203e+003,9.377289e-001
1.799167e+003,-8.618011e-001
1.800131e+003,-3.597092e+000
1.801095e+003,-4.353226e+000
1.802060e+003,-8.881836e-001
1.803024e+003,1.048996e+000
1.803988e+003,-8.311005e-001
1.804952e+003,-2.296799e+000
1.805917e+003,-7.030182e-001
1.806881e+003,1.713654e+000
1.807845e+003,2.866104e+000
1.808809e+003,2.891113e+000
1.809773e+003,2.469467e+000
1.810738e+003,1.937988e+000
1.811702e+003,1.636292e+000
1.812666e+003,1.762863e+000
1.813630e+003,2.002792e+000
1.814595e+003,1.869141e+000
1.815559e+003,1.559036e+000
1.816523e+003,2.111389e+000
1.817487e+003,3.665131e+000
1.818452e+003,4.695877e+000
1.819416e+003,5.197174e+000
1.820380e+003,5.168961e+000
1.821344e+003,4.226334e+000
1.822309e+003,3.151428e+000
1.823273e+003,2.362061e+000
1.824237e+003,1.799911e+000
1.825201e+003,1.201706e+000
1.826166e+003,7.539520e-001
1.827130e+003,1.191330e+000
1.828094e+003,2.573090e+000
1.829058e+003,3.591919e+000
1.830022e+003,3.740768e+000
1.830987e+003,3.233276e+000
1.831951e+003,1.706665e+000
1.832915e+003,2.487183e-002
1.833879e+003,-2.807312e-001
1.834844e+003,3.073120e-001
1.835808e+003,-1.820679e-001
1.836772e+003,-1.816040e+000
1.837736e+003,-2.056107e+000
1.838700e+003,2.275696e-001
1.839665e+003,2.587494e+000
1.840629e+003,2.757767e+000
1.841593e+003,1.766235e+000
1.842557e+003,1.792648e+000
1.843522e+003,2.809982e+000
1.844486e+003,2.999481e+000
1.845450e+003,1.535873e+000
1.846414e+003,1.028519e+000
1.847379e+003,2.148529e+000
1.848343e+003,3.061615e+000
1.849307e+003,3.556198e+000
1.850271e+003,3.413788e+000
1.851236e+003,1.821838e+000
1.852200e+003,4.989624e-003
1.853164e+003,-2.867126e-001
1.854128e+003,6.764832e-001
1.855093e+003,1.242249e+000
1.856057e+003,9.385223e-001
1.857021e+003,1.292313e+000
1.857985e+003,3.765121e+000
1.858949e+003,6.480820e+000
1.859914e+003,5.734787e+000
1.860878e+003,2.294403e+000
1.861842e+003,2.800140e-001
1.862806e+003,-2.945404e-001
1.863771e+003,4.073181e-001
1.864735e+003,2.783615e+000
1.865699e+003,4.339096e+000
1.866663e+003,3.766785e+000
1.867627e+003,2.600723e+000
1.868592e+003,1.927811e+000
1.869556e+003,1.587875e+000
1.870520e+003,1.284790e+000
1.871484e+003,1.086075e+000
1.872449e+003,1.739426e+000
1.873413e+003,4.043854e+000
1.874377e+003,5.210709e+000
1.875341e+003,2.710861e+000
1.876306e+003,7.771606e-001
1.877270e+003,2.617340e+000
1.878234e+003,5.183914e+000
1.879198e+003,5.335785e+000
1.880163e+003,3.940445e+000
1.881127e+003,2.836563e+000
1.882091e+003,2.389465e+000
1.883055e+003,2.206924e+000
1.884020e+003,2.106750e+000
1.884984e+003,2.215881e+000
1.885948e+003,2.656342e+000
1.886912e+003,3.371964e+000
1.887876e+003,4.407547e+000
1.888841e+003,5.656296e+000
1.889805e+003,5.421021e+000
1.890769e+003,3.250122e+000
1.891733e+003,2.068558e+000
1.892698e+003,2.381943e+000
1.893662e+003,3.026810e+000
1.894626e+003,4.261475e+000
1.895590e+003,4.917007e+000
1.896554e+003,3.692429e+000
1.897519e+003,1.888000e+000
1.898483e+003,8.841553e-001
1.899447e+003,5.590973e-001
1.900411e+003,4.305573e-001
1.901376e+003,4.386139e-001
1.902340e+003,8.474426e-001
1.903304e+003,2.104767e+000
1.904268e+003,3.210632e+000
1.905233e+003,3.421982e+000
1.906197e+003,3.370087e+000
1.907161e+003,3.825211e+000
1.908125e+003,4.466949e+000
1.909090e+003,4.342743e+000
1.910054e+003,3.655075e+000
1.911018e+003,3.895248e+000
1.911982e+003,5.413803e+000
1.912947e+003,6.438568e+000
1.913911e+003,5.648087e+000
1.914875e+003,4.292679e+000
1.915839e+003,4.345444e+000
1.916803e+003,5.395615e+000
1.917768e+003,5.548279e+000
1.918732e+003,4.649307e+000
1.919696e+003,4.223557e+000
1.920660e+003,4.546997e+000
1.921625e+003,4.732773e+000
1.922589e+003,4.417236e+000
1.923553e+003,4.117508e+000
1.924517e+003,4.120697e+000
1.925481e+003,4.264435e+000
1.926446e+003,4.265549e+000
1.927410e+003,4.363724e+000
1.928374e+003,5.255280e+000
1.929338e+003,6.824554e+000
1.930303e+003,7.650513e+000
1.931267e+003,7.269409e+000
1.932231e+003,6.842789e+000
1.933195e+003,7.164383e+000
1.934160e+003,7.141357e+000
1.935124e+003,5.109573e+000
1.936088e+003,2.942047e+000
1.937052e+003,3.587021e+000
1.938017e+003,5.856628e+000
1.938981e+003,6.490585e+000
1.939945e+003,5.280533e+000
1.940909e+003,4.654999e+000
1.941874e+003,5.646576e+000
1.942838e+003,6.743195e+000
1.943802e+003,6.575455e+000
1.944766e+003,5.924698e+000
1.945730e+003,6.330536e+000
1.946695e+003,7.544510e+000
1.947659e+003,7.721420e+000
1.948623e+003,6.682220e+000
1.949587e+003,6.596893e+000
1.950552e+003,8.078857e+000
1.951516e+003,9.080170e+000
1.952480e+003,8.846344e+000
1.953444e+003,8.108902e+000
1.954408e+003,6.950424e+000
1.955373e+003,5.898788e+000
1.956337e+003,5.944748e+000
1.957301e+003,6.852768e+000
1.958265e+003,7.595764e+000
1.959230e+003,8.172226e+000
1.960194e+003,8.473633e+000
1.961158e+003,8.220657e+000
1.962122e+003,7.859009e+000
1.963087e+003,7.497879e+000
1.964051e+003,7.100876e+000
1.965015e+003,6.423859e+000
1.965979e+003,6.026108e+000
1.966944e+003,6.538071e+000
1.967908e+003,7.591400e+000
1.968872e+003,8.730850e+000
1.969836e+003,9.697861e+000
1.970801e+003,1.014427e+001
1.971765e+003,9.927490e+000
1.972729e+003,9.019485e+000
1.973693e+003,7.096436e+000
1.974657e+003,5.337173e+000
1.975622e+003,5.778854e+000
1.976586e+003,7.629227e+000
1.977550e+003,8.957016e+000
1.978514e+003,9.765900e+000
1.979479e+003,1.022789e+001
1.980443e+003,1.037535e+001
1.981407e+003,1.057196e+001
1.982371e+003,1.099751e+001
1.983335e+003,1.117917e+001
1.984300e+003,1.069632e+001
1.985264e+003,9.822693e+000
1.986228e+003,8.973282e+000
1.987192e+003,8.209427e+000
1.988157e+003,7.881989e+000
1.989121e+003,8.096146e+000
1.990085e+003,8.345673e+000
1.991049e+003,8.516190e+000
1.992014e+003,9.042618e+000
1.992978e+003,1.057893e+001
1.993942e+003,1.156744e+001
1.994906e+003,1.112936e+001
1.995871e+003,1.033101e+001
1.996835e+003,9.856079e+000
1.997799e+003,9.618622e+000
1.998763e+003,9.401718e+000
1.999728e+003,9.179657e+000
