5.003444e+002,3.269232e+001
5.013087e+002,3.303632e+001
5.022729e+002,3.393793e+001
5.032371e+002,3.502600e+001
5.042014e+002,3.332111e+001
5.051656e+002,2.942078e+001
5.061298e+002,2.598279e+001
5.070941e+002,2.542950e+001
5.080583e+002,2.830109e+001
5.090225e+002,2.976459e+001
5.099868e+002,2.957764e+001
5.109510e+002,2.874768e+001
5.119152e+002,2.740985e+001
5.128795e+002,2.553918e+001
5.138437e+002,2.464630e+001
5.148079e+002,2.674548e+001
5.157722e+002,2.875940e+001
5.167364e+002,2.901385e+001
5.177006e+002,2.738379e+001
5.186649e+002,2.523553e+001
5.196291e+002,2.457880e+001
5.205933e+002,2.496985e+001
5.215576e+002,2.539740e+001
5.225218e+002,2.540991e+001
5.234860e+002,2.492303e+001
5.244503e+002,2.423535e+001
5.254145e+002,2.385345e+001
5.263787e+002,2.316339e+001
5.273430e+002,2.146161e+001
5.283072e+002,1.991602e+001
5.292714e+002,2.027594e+001
5.302357e+002,2.358795e+001
5.311999e+002,2.515924e+001
5.321641e+002,2.479016e+001
5.331284e+002,2.357062e+001
5.340926e+002,2.174658e+001
5.350568e+002,1.910150e+001
5.360211e+002,1.663562e+001
5.369853e+002,1.632257e+001
5.379495e+002,1.682666e+001
5.389138e+002,1.693585e+001
5.398780e+002,1.610327e+001
5.408422e+002,1.461243e+001
5.418065e+002,1.314703e+001
5.427707e+002,1.177924e+001
5.437349e+002,1.150598e+001
5.446992e+002,1.284747e+001
5.456634e+002,1.518530e+001
5.466276e+002,1.651776e+001
5.475919e+002,1.687427e+001
5.485561e+002,1.616895e+001
5.495203e+002,1.245721e+001
5.504846e+002,7.997986e+000
5.514488e+002,6.481506e+000
5.524130e+002,1.075867e+001
5.533773e+002,1.529797e+001
5.543415e+002,1.818555e+001
5.553057e+002,1.936127e+001
5.562700e+002,1.790619e+001
5.572342e+002,1.325800e+001
5.581984e+002,7.636108e+000
5.591627e+002,7.305481e+000
5.601269e+002,1.059210e+001
5.610911e+002,1.405157e+001
5.620554e+002,1.584894e+001
5.630196e+002,1.592780e+001
5.639838e+002,1.515723e+001
5.649481e+002,1.236945e+001
5.659123e+002,1.046979e+001
5.668765e+002,1.150287e+001
5.678408e+002,1.440912e+001
5.688050e+002,1.526508e+001
5.697692e+002,9.820862e+000
5.707335e+002,5.564941e+000
5.716977e+002,6.143677e+000
5.726619e+002,9.062012e+000
5.736262e+002,1.093799e+001
5.745904e+002,9.498840e+000
5.755546e+002,6.476440e+000
5.765189e+002,3.858948e+000
5.774831e+002,1.446289e+000
5.784473e+002,-5.424805e-001
5.794116e+002,-1.774963e+000
5.803758e+002,-2.013733e+000
5.813400e+002,-1.540771e+000
5.823043e+002,-6.278687e-001
5.832685e+002,-1.496582e-001
5.842327e+002,-8.410645e-002
5.851970e+002,-1.341553e-001
5.861612e+002,-1.015625e-001
5.871254e+002,-5.471802e-001
5.880897e+002,-8.632202e-001
5.890539e+002,-1.694580e+000
5.900181e+002,-2.408936e+000
5.909824e+002,-1.551025e+000
5.919466e+002,2.778381e+000
5.929108e+002,7.098694e+000
5.938751e+002,7.680847e+000
5.948393e+002,5.864502e+000
5.958035e+002,3.331177e+000
5.967678e+002,1.417175e+000
5.977320e+002,4.452515e-001
5.986962e+002,2.752258e+000
5.996605e+002,8.123718e+000
6.006247e+002,1.169104e+001
6.015889e+002,1.020935e+001
6.025532e+002,4.191956e+000
6.035174e+002,6.016235e-001
6.044816e+002,2.267944e+000
6.054459e+002,3.695190e+000
6.064101e+002,4.297607e+000
6.073743e+002,4.069092e+000
6.083386e+002,3.107544e+000
6.093028e+002,1.087341e+000
6.102670e+002,-6.256714e-001
6.112313e+002,-1.628418e+000
6.121955e+002,-1.726563e+000
6.131597e+002,-2.658691e-001
6.141240e+002,3.123108e+000
6.150882e+002,7.502991e+000
6.160524e+002,9.151611e+000
6.170167e+002,8.756775e+000
6.179809e+002,7.167236e+000
6.189451e+002,3.941467e+000
6.199094e+002,-6.873169e-001
6.208736e+002,-3.363831e+000
6.218378e+002,-9.550171e-001
6.228021e+002,8.033447e-001
6.237663e+002,1.247131e+000
6.247305e+002,9.315186e-001
6.256948e+002,6.093750e-001
6.266590e+002,1.614990e-001
6.276232e+002,-3.782349e-001
6.285875e+002,-7.126465e-001
6.295517e+002,-6.802368e-001
6.305159e+002,-2.191162e-001
6.314802e+002,5.795288e-001
6.324444e+002,1.414307e+000
6.334086e+002,2.097168e+000
6.343729e+002,2.942444e+000
6.353371e+002,4.008423e+000
6.363013e+002,5.356628e+000
6.372656e+002,6.518677e+000
6.382298e+002,6.122009e+000
6.391940e+002,1.574341e+000
6.401583e+002,-1.421631e+000
6.411225e+002,-9.708252e-001
6.420867e+002,9.817505e-001
6.430510e+002,1.568359e+000
6.440152e+002,-9.154053e-001
6.449794e+002,-2.901367e+000
6.459437e+002,-1.689148e+000
6.469079e+002,1.310425e-001
6.478721e+002,5.944214e-001
6.488364e+002,-8.396606e-001
6.498006e+002,-2.942871e+000
6.507648e+002,-4.129761e+000
6.517291e+002,-4.487671e+000
6.526933e+002,-3.524536e+000
6.536575e+002,-1.087036e+000
6.546218e+002,1.935242e+000
6.555860e+002,3.914856e+000
6.565502e+002,4.623779e+000
6.575145e+002,4.263855e+000
6.584787e+002,2.169434e+000
6.594429e+002,-2.421875e-001
6.604072e+002,-2.092224e+000
6.613714e+002,-3.303955e+000
6.623356e+002,-3.403015e+000
6.632999e+002,-5.147095e-001
6.642641e+002,1.589111e+000
6.652283e+002,1.946411e-001
6.661926e+002,-3.933838e+000
6.671568e+002,-7.374329e+000
6.681210e+002,-5.835205e+000
6.690853e+002,-1.256165e+000
6.700495e+002,1.609131e+000
6.710137e+002,2.667297e+000
6.719780e+002,2.275696e+000
6.729422e+002,5.023193e-001
6.739064e+002,-3.470581e+000
6.748707e+002,-4.512573e+000
6.758349e+002,-2.980347e-001
6.767991e+002,3.109863e+000
6.777634e+002,2.769287e+000
6.787276e+002,-5.012207e-001
6.796918e+002,-2.161011e+000
6.806561e+002,1.081604e+000
6.816203e+002,3.611572e+000
6.825845e+002,2.937561e+000
6.835488e+002,1.550903e-001
6.845130e+002,-2.944092e+000
6.854772e+002,-5.098511e+000
6.864415e+002,-5.783447e+000
6.874057e+002,-3.843445e+000
6.883699e+002,-6.786499e-001
6.893342e+002,9.199829e-001
6.902984e+002,-6.381836e-001
6.912626e+002,-4.581787e+000
6.922269e+002,-6.425354e+000
6.931911e+002,-3.279358e+000
6.941553e+002,-7.573853e-001
6.951196e+002,-1.518555e-001
6.960838e+002,-8.195190e-001
6.970480e+002,-1.695068e+000
6.980123e+002,-2.994385e+000
6.989765e+002,-2.634338e+000
6.999407e+002,1.718140e+000
7.009050e+002,6.471680e+000
7.018692e+002,8.426697e+000
7.028334e+002,6.647583e+000
7.037977e+002,3.291992e+000
7.047619e+002,1.778442e+000
7.057261e+002,1.764771e+000
7.066904e+002,2.132507e+000
7.076546e+002,2.679871e+000
7.086188e+002,3.013062e+000
7.095831e+002,2.406494e+000
7.105473e+002,1.812744e-002
7.115115e+002,-1.287537e+000
7.124758e+002,-9.380493e-001
7.134400e+002,-5.805054e-001
7.144042e+002,-9.180908e-001
7.153685e+002,-1.849670e+000
7.163327e+002,-3.127563e+000
7.172969e+002,-6.267578e+000
7.182612e+002,-8.028076e+000
7.192254e+002,-6.376465e+000
7.201896e+002,-2.476807e+000
7.211539e+002,1.609680e+000
7.221181e+002,4.415955e+000
7.230823e+002,5.564697e+000
7.240466e+002,3.627441e+000
7.250108e+002,-2.562256e-001
7.259750e+002,-2.729492e+000
7.269393e+002,-1.996582e+000
7.279035e+002,1.020569e+000
7.288677e+002,2.161865e+000
7.298320e+002,7.938843e-001
7.307962e+002,-6.323242e-002
7.317604e+002,-1.878662e-001
7.327247e+002,3.931274e-001
7.336889e+002,1.532227e+000
7.346531e+002,2.934692e+000
7.356174e+002,3.048950e+000
7.365816e+002,1.960815e+000
7.375458e+002,3.257446e-001
7.385101e+002,-2.305786e+000
7.394743e+002,-5.510681e+000
7.404385e+002,-7.541260e+000
7.414028e+002,-5.413818e+000
7.423670e+002,-6.784058e-001
7.433312e+002,3.037537e+000
7.442955e+002,6.228333e+000
7.452597e+002,8.514282e+000
7.462239e+002,8.765991e+000
7.471882e+002,5.858398e+000
7.481524e+002,4.989624e+000
7.491166e+002,6.864990e+000
7.500809e+002,8.364075e+000
7.510451e+002,8.523254e+000
7.520093e+002,7.390015e+000
7.529736e+002,5.392517e+000
7.539378e+002,2.353149e+000
7.549020e+002,2.355957e-001
7.558663e+002,4.110718e-001
7.568306e+002,1.920837e+000
7.577948e+002,3.152161e+000
7.587590e+002,3.064209e+000
7.597233e+002,2.342468e+000
7.606875e+002,4.796753e+000
7.616517e+002,1.019476e+001
7.626160e+002,1.307397e+001
7.635802e+002,1.120337e+001
7.645444e+002,7.116577e+000
7.655087e+002,6.270447e+000
7.664729e+002,1.109283e+001
7.674371e+002,1.351550e+001
7.684014e+002,1.147241e+001
7.693656e+002,8.690613e+000
7.703298e+002,8.073425e+000
7.712941e+002,9.763489e+000
7.722583e+002,1.049420e+001
7.732225e+002,6.021362e+000
7.741868e+002,1.402771e+000
7.751510e+002,1.010376e+000
7.761152e+002,3.983948e+000
7.770795e+002,7.609497e+000
7.780437e+002,9.448547e+000
7.790079e+002,9.563477e+000
7.799722e+002,9.397827e+000
7.809364e+002,8.973755e+000
7.819006e+002,8.309448e+000
7.828649e+002,7.143250e+000
7.838291e+002,6.146179e+000
7.847933e+002,7.267456e+000
7.857576e+002,1.313513e+001
7.867218e+002,1.510358e+001
7.876860e+002,8.537048e+000
7.886503e+002,1.096680e+000
7.896145e+002,2.965698e-001
7.905787e+002,7.615845e+000
7.915430e+002,1.526825e+001
7.925072e+002,1.281073e+001
7.934714e+002,6.551208e+000
7.944357e+002,4.258423e+000
7.953999e+002,6.319519e+000
7.963641e+002,8.788574e+000
7.973284e+002,6.928284e+000
7.982926e+002,2.926025e-001
7.992568e+002,-1.508667e+000
8.002211e+002,3.278320e+000
8.011853e+002,6.616516e+000
8.021495e+002,5.128601e+000
8.031138e+002,9.028931e-001
8.040780e+002,-3.311768e-001
8.050422e+002,3.467590e+000
8.060065e+002,7.570190e+000
8.069707e+002,1.042578e+001
8.079349e+002,1.228113e+001
8.088992e+002,1.365137e+001
8.098634e+002,1.488245e+001
8.108276e+002,1.578394e+001
8.117919e+002,1.515857e+001
8.127561e+002,1.324359e+001
8.137203e+002,1.243201e+001
8.146846e+002,1.338867e+001
8.156488e+002,1.420776e+001
8.166130e+002,1.187311e+001
8.175773e+002,5.053528e+000
8.185415e+002,2.494629e+000
8.195057e+002,6.675049e+000
8.204700e+002,1.036835e+001
8.214342e+002,1.049805e+001
8.223984e+002,8.336487e+000
8.233627e+002,7.772400e+000
8.243269e+002,1.146075e+001
8.252911e+002,1.449963e+001
8.262554e+002,1.308417e+001
8.272196e+002,1.019165e+001
8.281838e+002,8.603699e+000
8.291481e+002,9.431274e+000
8.301123e+002,1.211353e+001
8.310765e+002,1.635236e+001
8.320408e+002,2.150201e+001
8.330050e+002,2.284784e+001
8.339692e+002,1.952625e+001
8.349335e+002,1.463959e+001
8.358977e+002,1.129932e+001
8.368619e+002,9.900574e+000
8.378262e+002,8.913879e+000
8.387904e+002,7.366211e+000
8.397546e+002,6.593323e+000
8.407189e+002,7.268860e+000
8.416831e+002,8.958984e+000
8.426473e+002,1.109375e+001
8.436116e+002,1.366669e+001
8.445758e+002,1.588519e+001
8.455400e+002,1.621783e+001
8.465043e+002,1.521594e+001
8.474685e+002,1.355347e+001
8.484327e+002,1.198981e+001
8.493970e+002,1.161713e+001
8.503612e+002,1.386713e+001
8.513254e+002,1.926251e+001
8.522897e+002,2.152826e+001
8.532539e+002,1.811096e+001
8.542181e+002,1.470813e+001
8.551824e+002,1.596832e+001
8.561466e+002,2.159235e+001
8.571108e+002,2.528851e+001
8.580751e+002,2.159790e+001
8.590393e+002,1.928223e+001
8.600035e+002,2.358527e+001
8.609678e+002,3.018036e+001
8.619320e+002,3.372888e+001
8.628962e+002,3.213647e+001
8.638605e+002,2.864301e+001
8.648247e+002,2.821051e+001
8.657889e+002,2.948193e+001
8.667532e+002,2.983832e+001
8.677174e+002,2.893872e+001
8.686816e+002,2.723871e+001
8.696459e+002,2.482336e+001
8.706101e+002,2.120703e+001
8.715743e+002,2.271820e+001
8.725386e+002,3.268799e+001
8.735028e+002,4.304449e+001
8.744670e+002,5.344159e+001
8.754313e+002,6.191785e+001
8.763955e+002,6.534650e+001
8.773597e+002,6.217932e+001
8.783240e+002,5.638300e+001
8.792882e+002,4.665515e+001
8.802524e+002,3.819189e+001
8.812167e+002,3.794501e+001
8.821809e+002,4.566675e+001
8.831451e+002,5.423553e+001
8.841094e+002,5.435266e+001
8.850736e+002,4.658685e+001
8.860378e+002,4.164539e+001
8.870021e+002,3.962238e+001
8.879663e+002,3.852539e+001
8.889305e+002,3.735760e+001
8.898948e+002,3.601416e+001
8.908590e+002,3.463239e+001
8.918232e+002,3.317664e+001
8.927875e+002,3.258728e+001
8.937517e+002,3.317554e+001
8.947159e+002,3.451563e+001
8.956802e+002,3.608582e+001
8.966444e+002,3.751746e+001
8.976086e+002,3.881897e+001
8.985729e+002,4.072137e+001
8.995371e+002,4.268921e+001
9.005013e+002,4.306433e+001
9.014656e+002,4.232367e+001
9.024298e+002,4.209912e+001
9.033940e+002,4.345660e+001
9.043583e+002,4.575983e+001
9.053225e+002,4.657227e+001
9.062867e+002,4.483478e+001
9.072510e+002,4.212939e+001
9.082152e+002,3.716095e+001
9.091794e+002,3.307422e+001
9.101437e+002,3.359277e+001
9.111079e+002,3.931360e+001
9.120721e+002,4.484235e+001
9.130364e+002,4.723785e+001
9.140006e+002,4.740375e+001
9.149648e+002,4.517664e+001
9.159291e+002,4.174426e+001
9.168933e+002,3.847870e+001
9.178575e+002,3.618134e+001
9.188218e+002,3.481415e+001
9.197860e+002,3.544482e+001
9.207502e+002,3.794409e+001
9.217145e+002,3.960773e+001
9.226787e+002,4.042572e+001
9.236429e+002,4.074304e+001
9.246072e+002,4.026550e+001
9.255714e+002,3.831256e+001
9.265356e+002,3.750146e+001
9.274999e+002,4.013153e+001
9.284641e+002,4.155255e+001
9.294283e+002,3.943878e+001
9.303926e+002,3.544202e+001
9.313568e+002,3.259473e+001
9.323210e+002,3.246796e+001
9.332853e+002,3.331763e+001
9.342495e+002,3.230005e+001
9.352137e+002,3.027362e+001
9.361780e+002,2.876111e+001
9.371422e+002,2.841840e+001
9.381064e+002,2.922375e+001
9.390707e+002,3.090466e+001
9.400349e+002,3.333795e+001
9.409991e+002,3.438916e+001
9.419634e+002,3.270319e+001
9.429276e+002,3.135095e+001
9.438918e+002,3.115723e+001
9.448561e+002,3.195959e+001
9.458203e+002,3.380804e+001
9.467845e+002,3.721790e+001
9.477488e+002,3.989197e+001
9.487130e+002,3.885608e+001
9.496772e+002,3.706604e+001
9.506415e+002,3.654535e+001
9.516057e+002,3.760059e+001
9.525699e+002,3.990936e+001
9.535342e+002,4.317603e+001
9.544984e+002,4.686005e+001
9.554626e+002,4.718298e+001
9.564269e+002,4.394281e+001
9.573911e+002,4.211407e+001
9.583553e+002,4.409131e+001
9.593196e+002,4.748944e+001
9.602838e+002,4.812213e+001
9.612480e+002,4.484534e+001
9.622123e+002,4.234070e+001
9.631765e+002,4.300000e+001
9.641407e+002,4.397333e+001
9.651050e+002,4.388940e+001
9.660692e+002,4.275708e+001
9.670334e+002,4.114471e+001
9.679977e+002,3.961670e+001
9.689619e+002,3.882910e+001
9.699261e+002,3.970166e+001
9.708904e+002,4.146558e+001
9.718546e+002,4.326697e+001
9.728188e+002,4.487537e+001
9.737831e+002,4.583344e+001
9.747473e+002,4.543024e+001
9.757115e+002,4.336871e+001
9.766758e+002,4.239642e+001
9.776400e+002,4.404279e+001
9.786042e+002,4.562543e+001
9.795685e+002,4.622089e+001
9.805327e+002,4.594208e+001
9.814969e+002,4.552527e+001
9.824612e+002,4.549268e+001
9.834254e+002,4.505377e+001
9.843896e+002,4.149121e+001
9.853539e+002,3.755054e+001
9.863181e+002,3.694067e+001
9.872823e+002,3.907813e+001
9.882466e+002,4.088916e+001
9.892108e+002,4.010516e+001
9.901750e+002,3.800739e+001
9.911393e+002,3.967639e+001
9.921035e+002,4.688629e+001
9.930677e+002,5.271326e+001
9.940320e+002,5.606451e+001
9.949962e+002,5.945160e+001
9.959604e+002,6.583972e+001
9.969247e+002,7.530280e+001
9.978889e+002,8.335809e+001
9.988531e+002,8.649554e+001
9.998174e+002,8.785016e+001
1.000782e+003,8.984064e+001
1.001746e+003,9.208398e+001
1.002710e+003,9.335620e+001
1.003674e+003,9.320532e+001
1.004639e+003,9.270313e+001
1.005603e+003,9.386774e+001
1.006567e+003,9.673596e+001
1.007531e+003,9.852368e+001
1.008495e+003,9.912469e+001
1.009460e+003,9.914056e+001
1.010424e+003,9.895642e+001
1.011388e+003,9.866107e+001
1.012352e+003,9.813489e+001
1.013317e+003,9.692389e+001
1.014281e+003,9.579828e+001
1.015245e+003,9.682678e+001
1.016209e+003,9.614148e+001
1.017174e+003,8.968689e+001
1.018138e+003,7.857068e+001
1.019102e+003,6.792273e+001
1.020066e+003,6.209363e+001
1.021031e+003,5.968915e+001
1.021995e+003,5.559393e+001
1.022959e+003,4.986615e+001
1.023923e+003,4.567157e+001
1.024887e+003,4.451007e+001
1.025852e+003,4.432819e+001
1.026816e+003,4.162189e+001
1.027780e+003,3.573077e+001
1.028744e+003,3.217426e+001
1.029709e+003,3.272632e+001
1.030673e+003,3.383148e+001
1.031637e+003,3.493372e+001
1.032601e+003,3.550079e+001
1.033566e+003,3.515125e+001
1.034530e+003,3.388599e+001
1.035494e+003,3.201593e+001
1.036458e+003,2.907910e+001
1.037422e+003,2.588196e+001
1.038387e+003,2.385175e+001
1.039351e+003,2.292609e+001
1.040315e+003,2.282898e+001
1.041279e+003,2.361469e+001
1.042244e+003,2.525037e+001
1.043208e+003,2.671191e+001
1.044172e+003,2.775238e+001
1.045136e+003,2.803088e+001
1.046101e+003,2.713190e+001
1.047065e+003,2.636060e+001
1.048029e+003,2.620819e+001
1.048993e+003,2.670349e+001
1.049958e+003,2.826025e+001
1.050922e+003,3.193640e+001
1.051886e+003,3.527301e+001
1.052850e+003,3.497791e+001
1.053814e+003,3.309656e+001
1.054779e+003,3.246490e+001
1.055743e+003,3.347229e+001
1.056707e+003,3.411182e+001
1.057671e+003,3.187799e+001
1.058636e+003,2.665344e+001
1.059600e+003,2.341364e+001
1.060564e+003,2.245831e+001
1.061528e+003,2.399316e+001
1.062493e+003,3.085712e+001
1.063457e+003,3.759747e+001
1.064421e+003,3.752533e+001
1.065385e+003,3.023596e+001
1.066349e+003,2.342450e+001
1.067314e+003,2.071399e+001
1.068278e+003,2.014850e+001
1.069242e+003,2.099799e+001
1.070206e+003,2.279559e+001
1.071171e+003,2.501422e+001
1.072135e+003,2.710791e+001
1.073099e+003,2.836938e+001
1.074063e+003,2.787482e+001
1.075028e+003,2.557458e+001
1.075992e+003,2.422083e+001
1.076956e+003,2.358557e+001
1.077920e+003,2.330255e+001
1.078885e+003,2.400989e+001
1.079849e+003,2.531598e+001
1.080813e+003,2.605511e+001
1.081777e+003,2.593378e+001
1.082741e+003,2.641943e+001
1.083706e+003,2.958228e+001
1.084670e+003,3.143750e+001
1.085634e+003,2.843555e+001
1.086598e+003,2.259070e+001
1.087563e+003,1.801892e+001
1.088527e+003,1.721637e+001
1.089491e+003,1.920001e+001
1.090455e+003,2.165509e+001
1.091420e+003,2.429736e+001
1.092384e+003,2.535266e+001
1.093348e+003,2.361713e+001
1.094312e+003,2.186584e+001
1.095276e+003,2.230084e+001
1.096241e+003,2.446509e+001
1.097205e+003,2.615808e+001
1.098169e+003,2.668005e+001
1.099133e+003,2.701483e+001
1.100098e+003,2.784485e+001
1.101062e+003,2.874786e+001
1.102026e+003,2.947247e+001
1.102990e+003,3.009302e+001
1.103955e+003,3.073944e+001
1.104919e+003,3.140869e+001
1.105883e+003,3.193213e+001
1.106847e+003,3.209979e+001
1.107812e+003,3.186121e+001
1.108776e+003,3.228406e+001
1.109740e+003,3.359235e+001
1.110704e+003,3.521307e+001
1.111668e+003,3.715643e+001
1.112633e+003,3.962653e+001
1.113597e+003,4.246008e+001
1.114561e+003,4.605505e+001
1.115525e+003,4.803259e+001
1.116490e+003,4.682153e+001
1.117454e+003,4.472217e+001
1.118418e+003,4.280115e+001
1.119382e+003,4.183282e+001
1.120347e+003,4.229285e+001
1.121311e+003,4.412170e+001
1.122275e+003,4.669958e+001
1.123239e+003,5.036743e+001
1.124203e+003,5.548846e+001
1.125168e+003,5.952893e+001
1.126132e+003,6.226825e+001
1.127096e+003,6.439282e+001
1.128060e+003,6.607727e+001
1.129025e+003,6.719507e+001
1.129989e+003,6.773505e+001
1.130953e+003,6.687622e+001
1.131917e+003,6.689227e+001
1.132882e+003,6.861621e+001
1.133846e+003,7.138269e+001
1.134810e+003,7.496893e+001
1.135774e+003,7.931262e+001
1.136739e+003,8.413879e+001
1.137703e+003,8.928210e+001
1.138667e+003,9.548138e+001
1.139631e+003,1.047214e+002
1.140595e+003,1.164683e+002
1.141560e+003,1.269357e+002
1.142524e+003,1.361458e+002
1.143488e+003,1.447485e+002
1.144452e+003,1.507704e+002
1.145417e+003,1.562581e+002
1.146381e+003,1.694124e+002
1.147345e+003,1.929235e+002
1.148309e+003,2.171682e+002
1.149274e+003,2.412393e+002
1.150238e+003,2.643656e+002
1.151202e+003,2.860882e+002
1.152166e+003,3.070699e+002
1.153130e+003,3.294562e+002
1.154095e+003,3.533466e+002
1.155059e+003,3.731947e+002
1.156023e+003,3.816344e+002
1.156987e+003,3.790755e+002
1.157952e+003,3.725010e+002
1.158916e+003,3.625504e+002
1.159880e+003,3.505101e+002
1.160844e+003,3.359993e+002
1.161809e+003,3.185242e+002
1.162773e+003,2.978762e+002
1.163737e+003,2.732437e+002
1.164701e+003,2.493938e+002
1.165666e+003,2.275167e+002
1.166630e+003,2.073701e+002
1.167594e+003,1.867511e+002
1.168558e+003,1.686564e+002
1.169522e+003,1.579691e+002
1.170487e+003,1.555309e+002
1.171451e+003,1.569802e+002
1.172415e+003,1.576481e+002
1.173379e+003,1.574767e+002
1.174344e+003,1.570798e+002
1.175308e+003,1.567004e+002
1.176272e+003,1.556676e+002
1.177236e+003,1.538455e+002
1.178201e+003,1.515196e+002
1.179165e+003,1.490532e+002
1.180129e+003,1.461195e+002
1.181093e+003,1.408370e+002
1.182057e+003,1.302861e+002
1.183022e+003,1.216834e+002
1.183986e+003,1.188417e+002
1.184950e+003,1.181906e+002
1.185914e+003,1.163026e+002
1.186879e+003,1.130397e+002
1.187843e+003,1.104015e+002
1.188807e+003,1.098469e+002
1.189771e+003,1.112066e+002
1.190736e+003,1.152943e+002
1.191700e+003,1.226104e+002
1.192664e+003,1.263878e+002
1.193628e+003,1.249476e+002
1.194593e+003,1.218948e+002
1.195557e+003,1.196674e+002
1.196521e+003,1.177356e+002
1.197485e+003,1.141645e+002
1.198449e+003,1.080285e+002
1.199414e+003,1.025911e+002
1.200378e+003,9.992474e+001
1.201342e+003,9.796228e+001
1.202306e+003,9.529889e+001
1.203271e+003,9.205786e+001
1.204235e+003,8.912921e+001
1.205199e+003,8.698621e+001
1.206163e+003,8.512592e+001
1.207128e+003,8.265613e+001
1.208092e+003,7.962775e+001
1.209056e+003,7.489679e+001
1.210020e+003,6.721265e+001
1.210984e+003,6.067334e+001
1.211949e+003,5.763715e+001
1.212913e+003,5.541510e+001
1.213877e+003,5.046924e+001
1.214841e+003,4.275037e+001
1.215806e+003,3.514294e+001
1.216770e+003,2.769733e+001
1.217734e+003,2.221173e+001
1.218698e+003,1.988788e+001
1.219663e+003,1.939276e+001
1.220627e+003,1.977911e+001
1.221591e+003,2.044250e+001
1.222555e+003,2.019208e+001
1.223520e+003,1.791101e+001
1.224484e+003,1.465735e+001
1.225448e+003,1.474548e+001
1.226412e+003,2.141650e+001
1.227376e+003,2.368793e+001
1.228341e+003,1.781848e+001
1.229305e+003,1.162482e+001
1.230269e+003,9.276001e+000
1.231233e+003,9.578613e+000
1.232198e+003,9.826904e+000
1.233162e+003,9.482849e+000
1.234126e+003,1.022760e+001
1.235090e+003,1.433746e+001
1.236055e+003,1.847107e+001
1.237019e+003,1.868921e+001
1.237983e+003,1.597406e+001
1.238947e+003,1.324463e+001
1.239911e+003,1.194983e+001
1.240876e+003,1.203998e+001
1.241840e+003,1.333752e+001
1.242804e+003,1.593011e+001
1.243768e+003,1.849207e+001
1.244733e+003,2.179474e+001
1.245697e+003,2.396991e+001
1.246661e+003,2.477661e+001
1.247625e+003,2.371814e+001
1.248590e+003,1.893433e+001
1.249554e+003,1.253467e+001
1.250518e+003,1.008838e+001
1.251482e+003,1.413275e+001
1.252447e+003,1.951434e+001
1.253411e+003,1.982550e+001
1.254375e+003,1.786340e+001
1.255339e+003,1.975189e+001
1.256303e+003,2.574310e+001
1.257268e+003,3.121191e+001
1.258232e+003,3.312018e+001
1.259196e+003,3.251678e+001
1.260160e+003,3.176727e+001
1.261125e+003,3.095544e+001
1.262089e+003,3.196069e+001
1.263053e+003,3.595465e+001
1.264017e+003,3.981293e+001
1.264982e+003,4.389124e+001
1.265946e+003,4.705280e+001
1.266910e+003,4.798035e+001
1.267874e+003,4.692932e+001
1.268839e+003,4.537579e+001
1.269803e+003,4.432825e+001
1.270767e+003,4.311365e+001
1.271731e+003,4.013293e+001
1.272695e+003,3.571082e+001
1.273660e+003,3.316516e+001
1.274624e+003,3.264764e+001
1.275588e+003,3.198871e+001
1.276552e+003,3.041046e+001
1.277517e+003,2.850720e+001
1.278481e+003,2.680383e+001
1.279445e+003,2.517841e+001
1.280409e+003,2.392450e+001
1.281374e+003,2.376135e+001
1.282338e+003,2.327356e+001
1.283302e+003,2.130200e+001
1.284266e+003,1.879736e+001
1.285230e+003,1.667847e+001
1.286195e+003,1.516028e+001
1.287159e+003,1.425970e+001
1.288123e+003,1.417322e+001
1.289087e+003,1.477899e+001
1.290052e+003,1.490320e+001
1.291016e+003,1.408722e+001
1.291980e+003,1.319592e+001
1.292944e+003,1.140436e+001
1.293909e+003,9.859558e+000
1.294873e+003,9.939453e+000
1.295837e+003,1.064984e+001
1.296801e+003,1.002136e+001
1.297766e+003,7.989075e+000
1.298730e+003,7.204285e+000
1.299694e+003,9.620422e+000
1.300658e+003,1.208954e+001
1.301622e+003,1.051996e+001
1.302587e+003,7.290527e+000
1.303551e+003,6.074402e+000
1.304515e+003,7.572449e+000
1.305479e+003,9.995361e+000
1.306444e+003,1.178461e+001
1.307408e+003,1.295667e+001
1.308372e+003,1.420929e+001
1.309336e+003,1.579364e+001
1.310301e+003,1.654480e+001
1.311265e+003,1.686670e+001
1.312229e+003,1.627863e+001
1.313193e+003,1.297961e+001
1.314157e+003,9.603455e+000
1.315122e+003,9.566833e+000
1.316086e+003,1.243250e+001
1.317050e+003,1.443524e+001
1.318014e+003,1.322198e+001
1.318979e+003,1.070892e+001
1.319943e+003,9.910278e+000
1.320907e+003,1.090637e+001
1.321871e+003,1.236169e+001
1.322836e+003,1.386298e+001
1.323800e+003,1.516083e+001
1.324764e+003,1.692987e+001
1.325728e+003,1.817084e+001
1.326693e+003,1.603473e+001
1.327657e+003,1.014252e+001
1.328621e+003,6.831665e+000
1.329585e+003,1.053040e+001
1.330549e+003,1.473767e+001
1.331514e+003,1.443170e+001
1.332478e+003,1.250586e+001
1.333442e+003,1.222467e+001
1.334406e+003,1.363068e+001
1.335371e+003,1.468756e+001
1.336335e+003,1.415436e+001
1.337299e+003,1.279688e+001
1.338263e+003,1.182129e+001
1.339228e+003,1.108435e+001
1.340192e+003,1.234491e+001
1.341156e+003,1.859741e+001
1.342120e+003,2.229883e+001
1.343084e+003,2.019122e+001
1.344049e+003,1.637115e+001
1.345013e+003,1.442792e+001
1.345977e+003,1.430170e+001
1.346941e+003,1.400928e+001
1.347906e+003,1.275623e+001
1.348870e+003,1.185144e+001
1.349834e+003,1.252887e+001
1.350798e+003,1.402393e+001
1.351763e+003,1.575983e+001
1.352727e+003,1.755658e+001
1.353691e+003,1.752972e+001
1.354655e+003,1.459943e+001
1.355620e+003,1.124066e+001
1.356584e+003,1.088324e+001
1.357548e+003,1.319440e+001
1.358512e+003,1.376758e+001
1.359476e+003,1.118042e+001
1.360441e+003,8.762329e+000
1.361405e+003,7.473938e+000
1.362369e+003,6.855103e+000
1.363333e+003,7.108398e+000
1.364298e+003,7.731873e+000
1.365262e+003,8.103271e+000
1.366226e+003,8.081665e+000
1.367190e+003,7.928711e+000
1.368155e+003,7.866089e+000
1.369119e+003,7.959656e+000
1.370083e+003,8.487244e+000
1.371047e+003,9.674927e+000
1.372011e+003,1.146045e+001
1.372976e+003,1.436591e+001
1.373940e+003,1.625519e+001
1.374904e+003,1.641534e+001
1.375868e+003,1.545819e+001
1.376833e+003,1.348077e+001
1.377797e+003,1.071429e+001
1.378761e+003,8.657654e+000
1.379725e+003,8.088501e+000
1.380690e+003,8.331909e+000
1.381654e+003,9.104370e+000
1.382618e+003,1.025226e+001
1.383582e+003,1.184717e+001
1.384547e+003,1.367365e+001
1.385511e+003,1.410632e+001
1.386475e+003,1.159314e+001
1.387439e+003,9.139282e+000
1.388403e+003,1.291656e+001
1.389368e+003,2.284387e+001
1.390332e+003,2.694312e+001
1.391296e+003,2.214441e+001
1.392260e+003,1.754547e+001
1.393225e+003,1.475403e+001
1.394189e+003,1.295624e+001
1.395153e+003,1.201605e+001
1.396117e+003,1.166998e+001
1.397082e+003,1.165698e+001
1.398046e+003,1.200342e+001
1.399010e+003,1.309302e+001
1.399974e+003,1.507922e+001
1.400938e+003,1.686829e+001
1.401903e+003,1.618854e+001
1.402867e+003,1.314349e+001
1.403831e+003,1.240759e+001
1.404795e+003,1.435394e+001
1.405760e+003,1.690198e+001
1.406724e+003,1.914301e+001
1.407688e+003,2.035406e+001
1.408652e+003,2.050708e+001
1.409617e+003,2.005908e+001
1.410581e+003,1.909662e+001
1.411545e+003,1.750427e+001
1.412509e+003,1.606451e+001
1.413474e+003,1.495679e+001
1.414438e+003,1.420294e+001
1.415402e+003,1.535608e+001
1.416366e+003,1.825787e+001
1.417330e+003,1.961407e+001
1.418295e+003,1.776770e+001
1.419259e+003,1.543689e+001
1.420223e+003,1.570819e+001
1.421187e+003,1.791260e+001
1.422152e+003,1.955878e+001
1.423116e+003,2.105731e+001
1.424080e+003,2.205780e+001
1.425044e+003,2.090790e+001
1.426009e+003,2.006030e+001
1.426973e+003,2.080151e+001
1.427937e+003,2.220880e+001
1.428901e+003,2.372015e+001
1.429865e+003,2.504688e+001
1.430830e+003,2.534027e+001
1.431794e+003,2.389093e+001
1.432758e+003,2.160425e+001
1.433722e+003,2.076599e+001
1.434687e+003,2.200214e+001
1.435651e+003,2.475598e+001
1.436615e+003,2.835791e+001
1.437579e+003,3.158093e+001
1.438544e+003,3.548804e+001
1.439508e+003,3.816473e+001
1.440472e+003,3.792010e+001
1.441436e+003,3.621185e+001
1.442401e+003,3.564978e+001
1.443365e+003,3.661023e+001
1.444329e+003,3.709314e+001
1.445293e+003,3.576111e+001
1.446257e+003,3.327899e+001
1.447222e+003,2.983319e+001
1.448186e+003,2.586926e+001
1.449150e+003,2.491138e+001
1.450114e+003,2.803156e+001
1.451079e+003,3.039850e+001
1.452043e+003,2.860535e+001
1.453007e+003,2.593225e+001
1.453971e+003,2.726086e+001
1.454936e+003,3.179303e+001
1.455900e+003,3.420300e+001
1.456864e+003,3.304626e+001
1.457828e+003,3.176611e+001
1.458792e+003,3.265619e+001
1.459757e+003,3.334778e+001
1.460721e+003,3.124426e+001
1.461685e+003,2.765112e+001
1.462649e+003,2.536157e+001
1.463614e+003,2.528827e+001
1.464578e+003,2.657721e+001
1.465542e+003,2.848584e+001
1.466506e+003,3.058032e+001
1.467471e+003,3.232941e+001
1.468435e+003,3.454553e+001
1.469399e+003,3.486505e+001
1.470363e+003,3.012079e+001
1.471328e+003,2.672900e+001
1.472292e+003,2.613904e+001
1.473256e+003,2.643964e+001
1.474220e+003,2.700140e+001
1.475184e+003,2.805396e+001
1.476149e+003,3.012823e+001
1.477113e+003,3.288159e+001
1.478077e+003,3.483807e+001
1.479041e+003,3.485919e+001
1.480006e+003,3.392059e+001
1.480970e+003,3.435938e+001
1.481934e+003,3.612830e+001
1.482898e+003,3.754639e+001
1.483863e+003,3.774567e+001
1.484827e+003,3.863324e+001
1.485791e+003,4.190674e+001
1.486755e+003,4.576703e+001
1.487719e+003,4.835034e+001
1.488684e+003,4.962823e+001
1.489648e+003,5.003516e+001
1.490612e+003,5.002844e+001
1.491576e+003,5.179834e+001
1.492541e+003,5.744391e+001
1.493505e+003,6.491528e+001
1.494469e+003,6.972900e+001
1.495433e+003,7.189453e+001
1.496398e+003,7.424091e+001
1.497362e+003,7.783539e+001
1.498326e+003,8.163043e+001
1.499290e+003,8.434601e+001
1.500255e+003,8.731525e+001
1.501219e+003,9.148810e+001
1.502183e+003,9.714630e+001
1.503147e+003,1.068912e+002
1.504111e+003,1.221230e+002
1.505076e+003,1.370881e+002
1.506040e+003,1.479630e+002
1.507004e+003,1.578074e+002
1.507968e+003,1.679980e+002
1.508933e+003,1.799974e+002
1.509897e+003,1.970560e+002
1.510861e+003,2.203115e+002
1.511825e+003,2.480781e+002
1.512790e+003,2.798859e+002
1.513754e+003,3.127565e+002
1.514718e+003,3.405256e+002
1.515682e+003,3.628240e+002
1.516646e+003,3.901565e+002
1.517611e+003,4.275513e+002
1.518575e+003,4.610612e+002
1.519539e+003,4.875333e+002
1.520503e+003,5.086429e+002
1.521468e+003,5.249225e+002
1.522432e+003,5.360065e+002
1.523396e+003,5.416273e+002
1.524360e+003,5.415081e+002
1.525325e+003,5.352085e+002
1.526289e+003,5.225675e+002
1.527253e+003,5.046144e+002
1.528217e+003,4.826176e+002
1.529182e+003,4.569169e+002
1.530146e+003,4.300777e+002
1.531110e+003,4.029042e+002
1.532074e+003,3.720106e+002
1.533039e+003,3.354633e+002
1.534003e+003,2.956596e+002
1.534967e+003,2.498040e+002
1.535931e+003,2.057061e+002
1.536896e+003,1.718088e+002
1.537860e+003,1.481370e+002
1.538824e+003,1.297748e+002
1.539788e+003,1.137598e+002
1.540752e+003,9.988483e+001
1.541717e+003,8.821729e+001
1.542681e+003,7.885205e+001
1.543645e+003,7.068744e+001
1.544609e+003,6.430896e+001
1.545573e+003,5.908868e+001
1.546538e+003,5.440314e+001
1.547502e+003,5.035065e+001
1.548466e+003,4.740558e+001
1.549430e+003,4.588446e+001
1.550395e+003,4.656042e+001
1.551359e+003,4.827942e+001
1.552323e+003,4.824377e+001
1.553287e+003,4.566095e+001
1.554252e+003,4.296576e+001
1.555216e+003,4.226514e+001
1.556180e+003,4.274359e+001
1.557144e+003,4.288690e+001
1.558109e+003,4.283051e+001
1.559073e+003,4.108429e+001
1.560037e+003,3.570062e+001
1.561001e+003,3.124127e+001
1.561966e+003,3.032220e+001
1.562930e+003,3.110333e+001
1.563894e+003,3.202911e+001
1.564858e+003,3.268274e+001
1.565823e+003,3.264032e+001
1.566787e+003,3.178119e+001
1.567751e+003,3.033032e+001
1.568715e+003,2.836603e+001
1.569679e+003,2.658630e+001
1.570644e+003,2.562164e+001
1.571608e+003,2.511676e+001
1.572572e+003,2.488159e+001
1.573536e+003,2.520502e+001
1.574500e+003,2.582880e+001
1.575465e+003,2.676080e+001
1.576429e+003,2.746362e+001
1.577393e+003,2.658752e+001
1.578357e+003,2.527380e+001
1.579322e+003,2.653790e+001
1.580286e+003,3.047626e+001
1.581250e+003,3.403125e+001
1.582214e+003,3.645392e+001
1.583179e+003,3.758148e+001
1.584143e+003,3.641998e+001
1.585107e+003,3.416791e+001
1.586071e+003,3.283618e+001
1.587036e+003,3.272052e+001
1.588000e+003,3.351709e+001
1.588964e+003,3.493884e+001
1.589928e+003,3.550024e+001
1.590893e+003,3.348932e+001
1.591857e+003,3.094049e+001
1.592821e+003,3.110938e+001
1.593785e+003,3.367145e+001
1.594750e+003,3.640558e+001
1.595714e+003,3.895795e+001
1.596678e+003,4.093732e+001
1.597642e+003,4.248688e+001
1.598606e+003,4.305225e+001
1.599571e+003,4.177765e+001
1.600535e+003,3.986835e+001
1.601499e+003,3.842889e+001
1.602463e+003,3.757751e+001
1.603427e+003,3.782593e+001
1.604392e+003,3.955463e+001
1.605356e+003,4.130835e+001
1.606320e+003,4.211090e+001
1.607284e+003,4.169476e+001
1.608249e+003,3.821985e+001
1.609213e+003,3.150525e+001
1.610177e+003,2.831628e+001
1.611141e+003,3.111359e+001
1.612106e+003,3.415802e+001
1.613070e+003,3.539539e+001
1.614034e+003,3.507001e+001
1.614998e+003,3.249933e+001
1.615963e+003,2.884290e+001
1.616927e+003,2.547302e+001
1.617891e+003,2.276569e+001
1.618855e+003,2.138940e+001
1.619820e+003,2.165002e+001
1.620784e+003,2.255963e+001
1.621748e+003,2.401831e+001
1.622712e+003,2.624579e+001
1.623677e+003,2.631439e+001
1.624641e+003,2.354401e+001
1.625605e+003,2.307874e+001
1.626569e+003,2.725403e+001
1.627533e+003,2.957397e+001
1.628498e+003,2.494427e+001
1.629462e+003,1.991058e+001
1.630426e+003,2.080206e+001
1.631390e+003,2.533417e+001
1.632354e+003,2.789514e+001
1.633319e+003,2.711505e+001
1.634283e+003,2.542914e+001
1.635247e+003,2.438678e+001
1.636211e+003,2.397778e+001
1.637176e+003,2.475604e+001
1.638140e+003,2.677454e+001
1.639104e+003,2.792542e+001
1.640068e+003,2.785297e+001
1.641033e+003,2.724591e+001
1.641997e+003,2.617206e+001
1.642961e+003,2.516608e+001
1.643925e+003,2.383191e+001
1.644890e+003,2.310486e+001
1.645854e+003,2.428021e+001
1.646818e+003,2.666174e+001
1.647782e+003,2.848932e+001
1.648747e+003,2.919373e+001
1.649711e+003,2.966656e+001
1.650675e+003,3.112335e+001
1.651639e+003,3.265381e+001
1.652604e+003,3.104053e+001
1.653568e+003,2.625317e+001
1.654532e+003,2.459406e+001
1.655496e+003,2.756390e+001
1.656460e+003,2.946887e+001
1.657425e+003,2.859924e+001
1.658389e+003,2.676355e+001
1.659353e+003,2.500879e+001
1.660317e+003,2.278302e+001
1.661281e+003,1.875824e+001
1.662246e+003,1.363867e+001
1.663210e+003,9.423401e+000
1.664174e+003,6.989624e+000
1.665138e+003,7.328613e+000
1.666103e+003,1.232635e+001
1.667067e+003,1.834320e+001
1.668031e+003,1.702124e+001
1.668995e+003,9.180176e+000
1.669960e+003,5.926331e+000
1.670924e+003,9.369019e+000
1.671888e+003,1.214508e+001
1.672852e+003,1.037927e+001
1.673817e+003,9.353943e+000
1.674781e+003,1.497614e+001
1.675745e+003,2.110394e+001
1.676709e+003,1.937781e+001
1.677674e+003,1.209607e+001
1.678638e+003,8.281921e+000
1.679602e+003,1.072363e+001
1.680566e+003,1.349225e+001
1.681531e+003,1.183209e+001
1.682495e+003,8.595154e+000
1.683459e+003,8.599731e+000
1.684423e+003,1.097443e+001
1.685387e+003,1.148474e+001
1.686352e+003,9.656372e+000
1.687316e+003,8.041748e+000
1.688280e+003,7.542603e+000
1.689244e+003,7.228455e+000
1.690208e+003,6.526672e+000
1.691173e+003,5.338928e+000
1.692137e+003,2.347412e+000
1.693101e+003,-7.610474e-001
1.694065e+003,1.415588e+000
1.695030e+003,1.007294e+001
1.695994e+003,1.680762e+001
1.696958e+003,1.525488e+001
1.697922e+003,1.104456e+001
1.698887e+003,1.164471e+001
1.699851e+003,1.539545e+001
1.700815e+003,1.698181e+001
1.701779e+003,1.574304e+001
1.702744e+003,1.247900e+001
1.703708e+003,6.793579e+000
1.704672e+003,3.818848e+000
1.705636e+003,8.558655e+000
1.706601e+003,1.560468e+001
1.707565e+003,1.792975e+001
1.708529e+003,1.670587e+001
1.709493e+003,1.381885e+001
1.710458e+003,9.060608e+000
1.711422e+003,6.008606e+000
1.712386e+003,7.721191e+000
1.713350e+003,1.039355e+001
1.714314e+003,1.008905e+001
1.715279e+003,8.507141e+000
1.716243e+003,9.671448e+000
1.717207e+003,1.294922e+001
1.718171e+003,1.363892e+001
1.719135e+003,1.054236e+001
1.720100e+003,6.260986e+000
1.721064e+003,1.791321e+000
1.722028e+003,-1.487305e+000
1.722992e+003,-5.103760e-001
1.723957e+003,4.144409e+000
1.724921e+003,6.558350e+000
1.725885e+003,5.809937e+000
1.726849e+003,4.464478e+000
1.727814e+003,3.802551e+000
1.728778e+003,2.958984e+000
1.729742e+003,8.799438e-001
1.730706e+003,-1.240234e+000
1.731671e+003,-2.902527e+000
1.732635e+003,-4.224548e+000
1.733599e+003,-4.872314e+000
1.734563e+003,-4.328735e+000
1.735528e+003,-1.835571e+000
1.736492e+003,2.811218e+000
1.737456e+003,7.046997e+000
1.738420e+003,7.736511e+000
1.739385e+003,5.557251e+000
1.740349e+003,4.251038e+000
1.741313e+003,4.441650e+000
1.742277e+003,3.923950e+000
1.743241e+003,2.464600e+000
1.744206e+003,1.402039e+000
1.745170e+003,1.091309e-001
1.746134e+003,-2.777710e-001
1.747098e+003,1.476746e+000
1.748063e+003,3.943970e+000
1.749027e+003,5.941528e+000
1.749991e+003,7.149597e+000
1.750955e+003,7.181763e+000
1.751919e+003,6.004089e+000
1.752884e+003,4.432007e+000
1.753848e+003,3.133362e+000
1.754812e+003,2.013672e+000
1.755776e+003,1.230896e+000
1.756741e+003,1.126892e+000
1.757705e+003,8.948364e-001
1.758669e+003,6.835938e-002
1.759633e+003,-5.176392e-001
1.760598e+003,-9.582520e-001
1.761562e+003,-1.526550e+000
1.762526e+003,-2.002625e+000
1.763490e+003,-2.166199e+000
1.764455e+003,-1.012573e+000
1.765419e+003,2.321167e-001
1.766383e+003,-1.927063e+000
1.767347e+003,-6.688721e+000
1.768312e+003,-7.391296e+000
1.769276e+003,-9.052734e-001
1.770240e+003,5.843933e+000
1.771204e+003,5.956177e+000
1.772168e+003,2.226563e+000
1.773133e+003,-4.161377e-001
1.774097e+003,-1.945007e+000
1.775061e+003,-1.295044e+000
1.776025e+003,1.741760e+000
1.776990e+003,2.712463e+000
1.777954e+003,-4.904785e-001
1.778918e+003,-3.228943e+000
1.779882e+003,-1.743347e+000
1.780846e+003,9.654541e-001
1.781811e+003,1.001831e+000
1.782775e+003,-6.929321e-001
1.783739e+003,-1.275208e+000
1.784703e+003,-1.455078e-001
1.785668e+003,1.389709e+000
1.786632e+003,3.191589e+000
1.787596e+003,3.675476e+000
1.788560e+003,1.033081e+000
1.789525e+003,-2.064148e+000
1.790489e+003,-1.927673e+000
1.791453e+003,3.180542e-001
1.792417e+003,9.411621e-001
1.793382e+003,-6.552124e-001
1.794346e+003,-2.028381e+000
1.795310e+003,-1.972900e+000
1.796274e+003,-7.639160e-001
1.797239e+003,1.895264e+000
1.798203e+003,5.517761e+000
1.799167e+003,6.864075e+000
1.800131e+003,4.745178e+000
1.801095e+003,2.331909e+000
1.802060e+003,1.095581e-001
1.803024e+003,-1.500793e+000
1.803988e+003,-3.531372e+000
1.804952e+003,-4.223755e+000
1.805917e+003,-7.559814e-001
1.806881e+003,2.737793e+000
1.807845e+003,1.490845e+000
1.808809e+003,-2.552002e+000
1.809773e+003,-5.117798e+000
1.810738e+003,-5.080383e+000
1.811702e+003,-3.446045e+000
1.812666e+003,-9.465332e-001
1.813630e+003,1.336182e+000
1.814595e+003,1.899170e+000
1.815559e+003,9.874268e-001
1.816523e+003,-2.059326e-001
1.817487e+003,-1.733704e+000
1.818452e+003,-1.552124e+000
1.819416e+003,1.647461e+000
1.820380e+003,4.186035e+000
1.821344e+003,4.383118e+000
1.822309e+003,3.820007e+000
1.823273e+003,3.654541e+000
1.824237e+003,3.651917e+000
1.825201e+003,3.522461e+000
1.826166e+003,2.957214e+000
1.827130e+003,9.790649e-001
1.828094e+003,-2.623230e+000
1.829058e+003,-4.850342e+000
1.830022e+003,-3.726624e+000
1.830987e+003,-1.293152e+000
1.831951e+003,1.807678e+000
1.832915e+003,4.449036e+000
1.833879e+003,4.734070e+000
1.834844e+003,3.113342e+000
1.835808e+003,7.627563e-001
1.836772e+003,-1.847412e+000
1.837736e+003,-3.452881e+000
1.838700e+003,-3.672119e+000
1.839665e+003,-3.535461e+000
1.840629e+003,-3.873535e+000
1.841593e+003,-3.904419e+000
1.842557e+003,-1.831055e+000
1.843522e+003,2.249023e+000
1.844486e+003,2.419006e+000
1.845450e+003,-4.720337e+000
1.846414e+003,-8.137024e+000
1.847379e+003,-5.774170e+000
1.848343e+003,-3.908630e+000
1.849307e+003,-4.358276e+000
1.850271e+003,-5.445618e+000
1.851236e+003,-5.953064e+000
1.852200e+003,-5.871582e+000
1.853164e+003,-5.735596e+000
1.854128e+003,-5.969604e+000
1.855093e+003,-6.773865e+000
1.856057e+003,-7.704834e+000
1.857021e+003,-7.297180e+000
1.857985e+003,-4.330811e+000
1.858949e+003,-7.271729e-001
1.859914e+003,-9.582520e-002
1.860878e+003,-1.609131e+000
1.861842e+003,-1.052734e+000
1.862806e+003,1.498718e+000
1.863771e+003,4.077332e+000
1.864735e+003,6.516907e+000
1.865699e+003,7.429199e+000
1.866663e+003,6.325989e+000
1.867627e+003,4.020020e+000
1.868592e+003,-4.296875e-002
1.869556e+003,-4.847473e+000
1.870520e+003,-8.182190e+000
1.871484e+003,-1.000726e+001
1.872449e+003,-9.236328e+000
1.873413e+003,-3.615051e+000
1.874377e+003,1.035828e+000
1.875341e+003,8.601685e-001
1.876306e+003,1.229858e-001
1.877270e+003,1.488342e+000
1.878234e+003,2.740417e+000
1.879198e+003,7.958984e-001
1.880163e+003,-2.269165e+000
1.881127e+003,-1.984619e+000
1.882091e+003,1.512207e+000
1.883055e+003,4.794128e+000
1.884020e+003,6.178589e+000
1.884984e+003,5.179932e+000
1.885948e+003,1.235779e+000
1.886912e+003,-3.218079e+000
1.887876e+003,-2.855896e+000
1.888841e+003,1.830383e+000
1.889805e+003,4.076904e+000
1.890769e+003,3.465759e+000
1.891733e+003,2.645691e+000
1.892698e+003,1.511108e+000
1.893662e+003,1.737061e-001
1.894626e+003,-1.822693e+000
1.895590e+003,-3.030518e+000
1.896554e+003,-1.328003e+000
1.897519e+003,1.318237e+000
1.898483e+003,1.888916e+000
1.899447e+003,6.852417e-001
1.900411e+003,6.878662e-001
1.901376e+003,2.684387e+000
1.902340e+003,2.907227e+000
1.903304e+003,-2.310913e+000
1.904268e+003,-6.253906e+000
1.905233e+003,-2.627563e+000
1.906197e+003,2.475037e+000
1.907161e+003,2.457092e+000
1.908125e+003,-3.968506e-001
1.909090e+003,-2.158142e+000
1.910054e+003,-2.466492e+000
1.911018e+003,-1.772949e+000
1.911982e+003,-2.790527e-001
1.912947e+003,8.717651e-001
1.913911e+003,7.246704e-001
1.914875e+003,-2.890625e-001
1.915839e+003,-1.958679e+000
1.916803e+003,-3.814636e+000
1.917768e+003,-7.723999e-001
1.918732e+003,9.158875e+000
1.919696e+003,1.235205e+001
1.920660e+003,5.893433e+000
1.921625e+003,1.165161e+000
1.922589e+003,4.045410e-001
1.923553e+003,1.493530e+000
1.924517e+003,5.583313e+000
1.925481e+003,9.170349e+000
1.926446e+003,8.349243e+000
1.927410e+003,5.155762e+000
1.928374e+003,3.581421e+000
1.929338e+003,3.576111e+000
1.930303e+003,2.840698e+000
1.931267e+003,9.113770e-001
1.932231e+003,-4.510498e-002
1.933195e+003,6.538086e-001
1.934160e+003,2.075500e+000
1.935124e+003,3.933777e+000
1.936088e+003,5.576111e+000
1.937052e+003,7.143677e+000
1.938017e+003,8.236572e+000
1.938981e+003,7.236328e+000
1.939945e+003,4.335938e+000
1.940909e+003,1.261902e+000
1.941874e+003,-1.053833e+000
1.942838e+003,-1.212219e+000
1.943802e+003,2.612549e+000
1.944766e+003,8.408997e+000
1.945730e+003,1.149042e+001
1.946695e+003,1.173889e+001
1.947659e+003,9.978027e+000
1.948623e+003,5.751099e+000
1.949587e+003,3.659607e+000
1.950552e+003,4.939636e+000
1.951516e+003,6.236389e+000
1.952480e+003,6.546204e+000
1.953444e+003,6.353027e+000
1.954408e+003,5.770874e+000
1.955373e+003,4.573364e+000
1.956337e+003,2.720703e+000
1.957301e+003,8.206177e-001
1.958265e+003,-7.714844e-001
1.959230e+003,-2.139709e+000
1.960194e+003,-1.811035e+000
1.961158e+003,8.396606e-001
1.962122e+003,3.159729e+000
1.963087e+003,5.188965e+000
1.964051e+003,6.058838e+000
1.965015e+003,4.421387e+000
1.965979e+003,2.910767e+000
1.966944e+003,4.122620e+000
1.967908e+003,6.729614e+000
1.968872e+003,8.858032e+000
1.969836e+003,9.847412e+000
1.970801e+003,8.763306e+000
1.971765e+003,5.441650e+000
1.972729e+003,2.402344e+000
1.973693e+003,1.675232e+000
1.974657e+003,2.500977e+000
1.975622e+003,4.327393e+000
1.976586e+003,6.320557e+000
1.977550e+003,6.196228e+000
1.978514e+003,4.590149e+000
1.979479e+003,4.699402e+000
1.980443e+003,6.792297e+000
1.981407e+003,8.498230e+000
1.982371e+003,9.109375e+000
1.983335e+003,9.205200e+000
1.984300e+003,8.915955e+000
1.985264e+003,8.316711e+000
1.986228e+003,7.797974e+000
1.987192e+003,7.355042e+000
1.988157e+003,7.109375e+000
1.989121e+003,7.549377e+000
1.990085e+003,6.365601e+000
1.991049e+003,1.658142e+000
1.992014e+003,-3.294067e-001
1.992978e+003,2.896423e+000
1.993942e+003,6.086609e+000
1.994906e+003,8.298767e+000
1.995871e+003,9.032776e+000
1.996835e+003,6.967712e+000
1.997799e+003,4.023987e+000
1.998763e+003,2.486389e+000
1.999728e+003,2.278564e+000
