5.003444e+002,4.539978e+001
5.013087e+002,4.443478e+001
5.022729e+002,4.391391e+001
5.032371e+002,4.364684e+001
5.042014e+002,4.224057e+001
5.051656e+002,3.995261e+001
5.061298e+002,3.802214e+001
5.070941e+002,3.758969e+001
5.080583e+002,3.893021e+001
5.090225e+002,3.988240e+001
5.099868e+002,4.082005e+001
5.109510e+002,4.116035e+001
5.119152e+002,4.042915e+001
5.128795e+002,3.855893e+001
5.138437e+002,3.668579e+001
5.148079e+002,3.449428e+001
5.157722e+002,3.306084e+001
5.167364e+002,3.345758e+001
5.177006e+002,3.534998e+001
5.186649e+002,3.696252e+001
5.196291e+002,3.566020e+001
5.205933e+002,3.343050e+001
5.215576e+002,3.250307e+001
5.225218e+002,3.290385e+001
5.234860e+002,3.353432e+001
5.244503e+002,3.250954e+001
5.254145e+002,2.930273e+001
5.263787e+002,2.723076e+001
5.273430e+002,2.642053e+001
5.283072e+002,2.662914e+001
5.292714e+002,2.776993e+001
5.302357e+002,3.073956e+001
5.311999e+002,3.212743e+001
5.321641e+002,3.099734e+001
5.331284e+002,2.918404e+001
5.340926e+002,2.802147e+001
5.350568e+002,2.795731e+001
5.360211e+002,2.797694e+001
5.369853e+002,2.708760e+001
5.379495e+002,2.611029e+001
5.389138e+002,2.582840e+001
5.398780e+002,2.644293e+001
5.408422e+002,2.740369e+001
5.418065e+002,2.705151e+001
5.427707e+002,2.560983e+001
5.437349e+002,2.472926e+001
5.446992e+002,2.500169e+001
5.456634e+002,2.598120e+001
5.466276e+002,2.612546e+001
5.475919e+002,2.428009e+001
5.485561e+002,2.308859e+001
5.495203e+002,2.273497e+001
5.504846e+002,2.295195e+001
5.514488e+002,2.356348e+001
5.524130e+002,2.504449e+001
5.533773e+002,2.585405e+001
5.543415e+002,2.516245e+001
5.553057e+002,2.363913e+001
5.562700e+002,2.162738e+001
5.572342e+002,1.934059e+001
5.581984e+002,1.735992e+001
5.591627e+002,1.763141e+001
5.601269e+002,1.936107e+001
5.610911e+002,2.085986e+001
5.620554e+002,2.122018e+001
5.630196e+002,2.051869e+001
5.639838e+002,1.986093e+001
5.649481e+002,1.923036e+001
5.659123e+002,1.867967e+001
5.668765e+002,1.854314e+001
5.678408e+002,1.867845e+001
5.688050e+002,1.845813e+001
5.697692e+002,1.726204e+001
5.707335e+002,1.590717e+001
5.716977e+002,1.427618e+001
5.726619e+002,1.286147e+001
5.736262e+002,1.235213e+001
5.745904e+002,1.333493e+001
5.755546e+002,1.505003e+001
5.765189e+002,1.662318e+001
5.774831e+002,1.771973e+001
5.784473e+002,1.761385e+001
5.794116e+002,1.587381e+001
5.803758e+002,1.280867e+001
5.813400e+002,1.149399e+001
5.823043e+002,1.224390e+001
5.832685e+002,1.279767e+001
5.842327e+002,1.232686e+001
5.851970e+002,1.110168e+001
5.861612e+002,1.038181e+001
5.871254e+002,1.051405e+001
5.880897e+002,1.084460e+001
5.890539e+002,1.136850e+001
5.900181e+002,1.191960e+001
5.909824e+002,1.241708e+001
5.919466e+002,1.306467e+001
5.929108e+002,1.308501e+001
5.938751e+002,1.112469e+001
5.948393e+002,8.320663e+000
5.958035e+002,6.626053e+000
5.967678e+002,7.450256e+000
5.977320e+002,1.032051e+001
5.986962e+002,1.102074e+001
5.996605e+002,9.502747e+000
6.006247e+002,7.766571e+000
6.015889e+002,6.456375e+000
6.025532e+002,5.611191e+000
6.035174e+002,5.499786e+000
6.044816e+002,7.339798e+000
6.054459e+002,8.669846e+000
6.064101e+002,8.838516e+000
6.073743e+002,8.292450e+000
6.083386e+002,7.872452e+000
6.093028e+002,7.997772e+000
6.102670e+002,8.469315e+000
6.112313e+002,9.422012e+000
6.121955e+002,1.039569e+001
6.131597e+002,1.063000e+001
6.141240e+002,9.629425e+000
6.150882e+002,7.880112e+000
6.160524e+002,7.887283e+000
6.170167e+002,9.383652e+000
6.179809e+002,1.043120e+001
6.189451e+002,9.998260e+000
6.199094e+002,8.228027e+000
6.208736e+002,6.671585e+000
6.218378e+002,5.015717e+000
6.228021e+002,4.291946e+000
6.237663e+002,5.248535e+000
6.247305e+002,7.069962e+000
6.256948e+002,8.372437e+000
6.266590e+002,8.318970e+000
6.276232e+002,8.105988e+000
6.285875e+002,8.974014e+000
6.295517e+002,1.005695e+001
6.305159e+002,1.035446e+001
6.314802e+002,9.307114e+000
6.324444e+002,7.354736e+000
6.334086e+002,5.360123e+000
6.343729e+002,3.561844e+000
6.353371e+002,2.864227e+000
6.363013e+002,3.775024e+000
6.372656e+002,5.662643e+000
6.382298e+002,6.342010e+000
6.391940e+002,4.216629e+000
6.401583e+002,2.821869e+000
6.411225e+002,2.656219e+000
6.420867e+002,3.231339e+000
6.430510e+002,3.967300e+000
6.440152e+002,4.715729e+000
6.449794e+002,5.231415e+000
6.459437e+002,5.851151e+000
6.469079e+002,5.982330e+000
6.478721e+002,4.740555e+000
6.488364e+002,2.078171e+000
6.498006e+002,-6.980286e-001
6.507648e+002,-9.779816e-001
6.517291e+002,3.116302e-001
6.526933e+002,9.047852e-001
6.536575e+002,3.246460e-001
6.546218e+002,-5.751801e-001
6.555860e+002,-6.538391e-002
6.565502e+002,3.116196e+000
6.575145e+002,4.927811e+000
6.584787e+002,4.991989e+000
6.594429e+002,4.226456e+000
6.604072e+002,3.006378e+000
6.613714e+002,1.261581e+000
6.623356e+002,2.691650e-001
6.632999e+002,1.571472e+000
6.642641e+002,2.822464e+000
6.652283e+002,2.363098e+000
6.661926e+002,5.343323e-001
6.671568e+002,-6.755066e-001
6.681210e+002,1.571213e+000
6.690853e+002,5.580002e+000
6.700495e+002,6.861862e+000
6.710137e+002,5.449677e+000
6.719780e+002,3.153778e+000
6.729422e+002,1.832001e+000
6.739064e+002,1.621094e+000
6.748707e+002,1.474228e+000
6.758349e+002,1.488495e+000
6.767991e+002,1.395401e+000
6.777634e+002,1.077271e+000
6.787276e+002,6.535492e-001
6.796918e+002,4.933624e-001
6.806561e+002,8.292542e-001
6.816203e+002,1.148605e+000
6.825845e+002,1.283966e+000
6.835488e+002,1.268250e+000
6.845130e+002,1.190201e+000
6.854772e+002,1.132294e+000
6.864415e+002,1.143387e+000
6.874057e+002,1.172470e+000
6.883699e+002,1.100540e+000
6.893342e+002,8.093719e-001
6.902984e+002,2.157288e-001
6.912626e+002,-5.033264e-001
6.922269e+002,-3.498840e-001
6.931911e+002,1.925293e+000
6.941553e+002,3.692825e+000
6.951196e+002,4.330276e+000
6.960838e+002,4.305786e+000
6.970480e+002,4.583237e+000
6.980123e+002,5.843903e+000
6.989765e+002,6.220978e+000
6.999407e+002,4.317902e+000
7.009050e+002,1.865814e+000
7.018692e+002,1.060791e-001
7.028334e+002,-4.972687e-001
7.037977e+002,-3.089142e-001
7.047619e+002,5.872498e-001
7.057261e+002,1.844177e+000
7.066904e+002,2.534363e+000
7.076546e+002,2.498016e+000
7.086188e+002,2.076569e+000
7.095831e+002,1.801514e+000
7.105473e+002,1.715805e+000
7.115115e+002,1.436249e+000
7.124758e+002,9.031982e-001
7.134400e+002,2.167358e-001
7.144042e+002,-7.815857e-001
7.153685e+002,-2.005905e+000
7.163327e+002,-2.501892e+000
7.172969e+002,-8.859100e-001
7.182612e+002,7.457275e-001
7.192254e+002,1.259537e+000
7.201896e+002,1.058472e+000
7.211539e+002,1.279388e+000
7.221181e+002,2.990799e+000
7.230823e+002,5.309372e+000
7.240466e+002,6.038696e+000
7.250108e+002,5.502701e+000
7.259750e+002,4.023422e+000
7.269393e+002,1.391251e+000
7.279035e+002,-2.125015e+000
7.288677e+002,-3.366089e+000
7.298320e+002,1.208054e+000
7.307962e+002,4.123520e+000
7.317604e+002,3.828690e+000
7.327247e+002,2.066818e+000
7.336889e+002,1.222336e+000
7.346531e+002,1.982025e+000
7.356174e+002,2.634293e+000
7.365816e+002,2.289429e+000
7.375458e+002,1.806458e+000
7.385101e+002,1.801941e+000
7.394743e+002,2.434692e+000
7.404385e+002,3.429077e+000
7.414028e+002,4.418900e+000
7.423670e+002,5.139008e+000
7.433312e+002,5.671371e+000
7.442955e+002,6.246384e+000
7.452597e+002,6.314911e+000
7.462239e+002,4.815140e+000
7.471882e+002,8.684235e-001
7.481524e+002,-9.020386e-001
7.491166e+002,9.394073e-001
7.500809e+002,2.587357e+000
7.510451e+002,2.509491e+000
7.520093e+002,1.021866e+000
7.529736e+002,-4.347839e-001
7.539378e+002,-1.311066e+000
7.549020e+002,-1.461380e+000
7.558663e+002,-5.074615e-001
7.568306e+002,9.481659e-001
7.577948e+002,2.012405e+000
7.587590e+002,2.138000e+000
7.597233e+002,1.689926e+000
7.606875e+002,2.072876e+000
7.616517e+002,3.244766e+000
7.626160e+002,4.280716e+000
7.635802e+002,5.099045e+000
7.645444e+002,5.554749e+000
7.655087e+002,5.141312e+000
7.664729e+002,2.943115e+000
7.674371e+002,1.877304e+000
7.684014e+002,2.977325e+000
7.693656e+002,4.241898e+000
7.703298e+002,4.298187e+000
7.712941e+002,3.070007e+000
7.722583e+002,1.805588e+000
7.732225e+002,1.301910e+000
7.741868e+002,1.249985e+000
7.751510e+002,1.417191e+000
7.761152e+002,1.819839e+000
7.770795e+002,2.629700e+000
7.780437e+002,3.995346e+000
7.790079e+002,5.738235e+000
7.799722e+002,6.546814e+000
7.809364e+002,6.496948e+000
7.819006e+002,5.972473e+000
7.828649e+002,4.843277e+000
7.838291e+002,3.442734e+000
7.847933e+002,2.722794e+000
7.857576e+002,2.875031e+000
7.867218e+002,3.193497e+000
7.876860e+002,3.942703e+000
7.886503e+002,4.707306e+000
7.896145e+002,5.140137e+000
7.905787e+002,5.150497e+000
7.915430e+002,4.931427e+000
7.925072e+002,4.283951e+000
7.934714e+002,3.590363e+000
7.944357e+002,3.569168e+000
7.953999e+002,4.222321e+000
7.963641e+002,4.932373e+000
7.973284e+002,4.934341e+000
7.982926e+002,4.142471e+000
7.992568e+002,4.444061e+000
8.002211e+002,6.277328e+000
8.011853e+002,7.658737e+000
8.021495e+002,8.080872e+000
8.031138e+002,7.794922e+000
8.040780e+002,7.091064e+000
8.050422e+002,5.112610e+000
8.060065e+002,3.958038e+000
8.069707e+002,4.327545e+000
8.079349e+002,5.544434e+000
8.088992e+002,7.341171e+000
8.098634e+002,9.509781e+000
8.108276e+002,1.139941e+001
8.117919e+002,1.173267e+001
8.127561e+002,1.089488e+001
8.137203e+002,9.991470e+000
8.146846e+002,9.275253e+000
8.156488e+002,8.696075e+000
8.166130e+002,8.106506e+000
8.175773e+002,7.439529e+000
8.185415e+002,6.965714e+000
8.195057e+002,6.534836e+000
8.204700e+002,6.223602e+000
8.214342e+002,6.242477e+000
8.223984e+002,6.408371e+000
8.233627e+002,6.184479e+000
8.243269e+002,5.127502e+000
8.252911e+002,4.290878e+000
8.262554e+002,4.282654e+000
8.272196e+002,4.706528e+000
8.281838e+002,5.207809e+000
8.291481e+002,5.617386e+000
8.301123e+002,5.982956e+000
8.310765e+002,6.455276e+000
8.320408e+002,6.918839e+000
8.330050e+002,6.632950e+000
8.339692e+002,5.311142e+000
8.349335e+002,4.093918e+000
8.358977e+002,4.535110e+000
8.368619e+002,7.110046e+000
8.378262e+002,8.259109e+000
8.387904e+002,6.356186e+000
8.397546e+002,4.600082e+000
8.407189e+002,3.688980e+000
8.416831e+002,3.492859e+000
8.426473e+002,3.720230e+000
8.436116e+002,4.352814e+000
8.445758e+002,4.996170e+000
8.455400e+002,4.971985e+000
8.465043e+002,4.621460e+000
8.474685e+002,4.485062e+000
8.484327e+002,4.779587e+000
8.493970e+002,5.340912e+000
8.503612e+002,5.768066e+000
8.513254e+002,6.000107e+000
8.522897e+002,6.019592e+000
8.532539e+002,5.309647e+000
8.542181e+002,4.918045e+000
8.551824e+002,5.682877e+000
8.561466e+002,7.594940e+000
8.571108e+002,9.738373e+000
8.580751e+002,1.220667e+001
8.590393e+002,1.391284e+001
8.600035e+002,1.443884e+001
8.609678e+002,1.430522e+001
8.619320e+002,1.392346e+001
8.628962e+002,1.349652e+001
8.638605e+002,1.318259e+001
8.648247e+002,1.328455e+001
8.657889e+002,1.368201e+001
8.667532e+002,1.430051e+001
8.677174e+002,1.512552e+001
8.686816e+002,1.577307e+001
8.696459e+002,1.578412e+001
8.706101e+002,1.511047e+001
8.715743e+002,1.460165e+001
8.725386e+002,1.378490e+001
8.735028e+002,1.370830e+001
8.744670e+002,1.521603e+001
8.754313e+002,1.735928e+001
8.763955e+002,1.834001e+001
8.773597e+002,1.730496e+001
8.783240e+002,1.623746e+001
8.792882e+002,1.628603e+001
8.802524e+002,1.703143e+001
8.812167e+002,1.857199e+001
8.821809e+002,2.063689e+001
8.831451e+002,2.246095e+001
8.841094e+002,2.304984e+001
8.850736e+002,2.248717e+001
8.860378e+002,2.178613e+001
8.870021e+002,2.057051e+001
8.879663e+002,2.015508e+001
8.889305e+002,2.209453e+001
8.898948e+002,2.562871e+001
8.908590e+002,2.681068e+001
8.918232e+002,2.348405e+001
8.927875e+002,2.108595e+001
8.937517e+002,2.114172e+001
8.947159e+002,2.219434e+001
8.956802e+002,2.306119e+001
8.966444e+002,2.337289e+001
8.976086e+002,2.347444e+001
8.985729e+002,2.375575e+001
8.995371e+002,2.424637e+001
9.005013e+002,2.484149e+001
9.014656e+002,2.557822e+001
9.024298e+002,2.646928e+001
9.033940e+002,2.747980e+001
9.043583e+002,2.847971e+001
9.053225e+002,2.914085e+001
9.062867e+002,2.883791e+001
9.072510e+002,2.884703e+001
9.082152e+002,2.979974e+001
9.091794e+002,3.092256e+001
9.101437e+002,3.149554e+001
9.111079e+002,3.139468e+001
9.120721e+002,3.073087e+001
9.130364e+002,2.856119e+001
9.140006e+002,2.650404e+001
9.149648e+002,2.561984e+001
9.159291e+002,2.577054e+001
9.168933e+002,2.644029e+001
9.178575e+002,2.720284e+001
9.188218e+002,2.795818e+001
9.197860e+002,2.861197e+001
9.207502e+002,2.915451e+001
9.217145e+002,2.890524e+001
9.226787e+002,2.740710e+001
9.236429e+002,2.562634e+001
9.246072e+002,2.480194e+001
9.255714e+002,2.501561e+001
9.265356e+002,2.530212e+001
9.274999e+002,2.565552e+001
9.284641e+002,2.579500e+001
9.294283e+002,2.577214e+001
9.303926e+002,2.551161e+001
9.313568e+002,2.466170e+001
9.323210e+002,2.296396e+001
9.332853e+002,2.134679e+001
9.342495e+002,2.208588e+001
9.352137e+002,2.374017e+001
9.361780e+002,2.397420e+001
9.371422e+002,2.238464e+001
9.381064e+002,2.034401e+001
9.390707e+002,1.955771e+001
9.400349e+002,2.002719e+001
9.409991e+002,2.100294e+001
9.419634e+002,2.380281e+001
9.429276e+002,2.532790e+001
9.438918e+002,2.385275e+001
9.448561e+002,2.093123e+001
9.458203e+002,1.929036e+001
9.467845e+002,1.991106e+001
9.477488e+002,2.079861e+001
9.487130e+002,2.063495e+001
9.496772e+002,1.993559e+001
9.506415e+002,1.853012e+001
9.516057e+002,1.683372e+001
9.525699e+002,1.606490e+001
9.535342e+002,1.743930e+001
9.544984e+002,2.052711e+001
9.554626e+002,2.186143e+001
9.564269e+002,2.144249e+001
9.573911e+002,2.075543e+001
9.583553e+002,1.992552e+001
9.593196e+002,1.908705e+001
9.602838e+002,1.849559e+001
9.612480e+002,1.816714e+001
9.622123e+002,1.789803e+001
9.631765e+002,1.763094e+001
9.641407e+002,1.747694e+001
9.651050e+002,1.752582e+001
9.660692e+002,1.765489e+001
9.670334e+002,1.785808e+001
9.679977e+002,1.821623e+001
9.689619e+002,1.830661e+001
9.699261e+002,1.580968e+001
9.708904e+002,1.191905e+001
9.718546e+002,1.099588e+001
9.728188e+002,1.432892e+001
9.737831e+002,1.929346e+001
9.747473e+002,2.241743e+001
9.757115e+002,2.326462e+001
9.766758e+002,2.483270e+001
9.776400e+002,2.917691e+001
9.786042e+002,3.191870e+001
9.795685e+002,3.145776e+001
9.805327e+002,2.886081e+001
9.814969e+002,2.519804e+001
9.824612e+002,2.087794e+001
9.834254e+002,1.736179e+001
9.843896e+002,1.690977e+001
9.853539e+002,1.736209e+001
9.863181e+002,1.599840e+001
9.872823e+002,1.302843e+001
9.882466e+002,1.081345e+001
9.892108e+002,1.153130e+001
9.901750e+002,1.470021e+001
9.911393e+002,1.569580e+001
9.921035e+002,1.198419e+001
9.930677e+002,9.570633e+000
9.940320e+002,9.752670e+000
9.949962e+002,1.068820e+001
9.959604e+002,1.048927e+001
9.969247e+002,9.108246e+000
9.978889e+002,8.557922e+000
9.988531e+002,1.061581e+001
9.998174e+002,1.239478e+001
1.000782e+003,1.196107e+001
1.001746e+003,1.035892e+001
1.002710e+003,9.014221e+000
1.003674e+003,8.592300e+000
1.004639e+003,8.852844e+000
1.005603e+003,9.463348e+000
1.006567e+003,1.042784e+001
1.007531e+003,1.065808e+001
1.008495e+003,9.813812e+000
1.009460e+003,8.991562e+000
1.010424e+003,9.174438e+000
1.011388e+003,1.000430e+001
1.012352e+003,9.746338e+000
1.013317e+003,7.169632e+000
1.014281e+003,5.521317e+000
1.015245e+003,6.499924e+000
1.016209e+003,7.861572e+000
1.017174e+003,7.912796e+000
1.018138e+003,6.681427e+000
1.019102e+003,5.508270e+000
1.020066e+003,5.599197e+000
1.021031e+003,6.257706e+000
1.021995e+003,4.615128e+000
1.022959e+003,1.175797e+000
1.023923e+003,-5.492249e-001
1.024887e+003,1.093506e+000
1.025852e+003,4.031296e+000
1.026816e+003,4.931839e+000
1.027780e+003,3.374329e+000
1.028744e+003,2.129074e+000
1.029709e+003,1.478180e+000
1.030673e+003,1.020660e+000
1.031637e+003,5.493164e-001
1.032601e+003,1.827850e-001
1.033566e+003,3.247223e-001
1.034530e+003,1.111115e+000
1.035494e+003,1.740295e+000
1.036458e+003,1.029007e+000
1.037422e+003,-3.272400e-001
1.038387e+003,-1.285965e+000
1.039351e+003,-1.774033e+000
1.040315e+003,-1.601990e+000
1.041279e+003,-4.902039e-001
1.042244e+003,1.333084e+000
1.043208e+003,2.531723e+000
1.044172e+003,2.680542e+000
1.045136e+003,2.643585e+000
1.046101e+003,2.321411e+000
1.047065e+003,2.048279e+000
1.048029e+003,2.164215e+000
1.048993e+003,2.496216e+000
1.049958e+003,2.416229e+000
1.050922e+003,1.524643e+000
1.051886e+003,5.841370e-001
1.052850e+003,1.981964e-001
1.053814e+003,2.634583e-001
1.054779e+003,9.099579e-001
1.055743e+003,2.026642e+000
1.056707e+003,2.941132e+000
1.057671e+003,2.796539e+000
1.058636e+003,1.563599e+000
1.059600e+003,1.277420e+000
1.060564e+003,3.246765e+000
1.061528e+003,4.465027e+000
1.062493e+003,3.732513e+000
1.063457e+003,2.401398e+000
1.064421e+003,2.392883e+000
1.065385e+003,3.900955e+000
1.066349e+003,4.272614e+000
1.067314e+003,5.356140e-001
1.068278e+003,-2.732452e+000
1.069242e+003,-1.354263e+000
1.070206e+003,2.359848e+000
1.071171e+003,4.513092e+000
1.072135e+003,3.505646e+000
1.073099e+003,1.020203e+000
1.074063e+003,-7.888794e-002
1.075028e+003,3.560181e-001
1.075992e+003,1.407959e+000
1.076956e+003,4.045242e+000
1.077920e+003,5.495743e+000
1.078885e+003,4.079865e+000
1.079849e+003,1.195786e+000
1.080813e+003,-8.108368e-001
1.081777e+003,-1.631302e+000
1.082741e+003,-1.489548e+000
1.083706e+003,6.995544e-001
1.084670e+003,2.620651e+000
1.085634e+003,2.740585e+000
1.086598e+003,1.617218e+000
1.087563e+003,5.355682e-001
1.088527e+003,2.589569e-001
1.089491e+003,4.166107e-001
1.090455e+003,6.419373e-002
1.091420e+003,-9.506378e-001
1.092384e+003,-8.302460e-001
1.093348e+003,1.152893e+000
1.094312e+003,2.789902e+000
1.095276e+003,2.730179e+000
1.096241e+003,1.460892e+000
1.097205e+003,1.308441e-001
1.098169e+003,-1.514053e+000
1.099133e+003,-2.310013e+000
1.100098e+003,-1.322586e+000
1.101062e+003,1.811981e-001
1.102026e+003,1.979111e+000
1.102990e+003,3.580917e+000
1.103955e+003,4.118790e+000
1.104919e+003,3.068604e+000
1.105883e+003,1.103348e+000
1.106847e+003,-4.172821e-001
1.107812e+003,-1.452698e+000
1.108776e+003,-1.850967e+000
1.109740e+003,-1.491333e+000
1.110704e+003,-7.301636e-001
1.111668e+003,8.122559e-001
1.112633e+003,2.759521e+000
1.113597e+003,2.902985e+000
1.114561e+003,-1.342010e-001
1.115525e+003,-2.405991e+000
1.116490e+003,-2.074371e+000
1.117454e+003,-1.297607e+000
1.118418e+003,-1.443924e+000
1.119382e+003,-2.274048e+000
1.120347e+003,-2.889420e+000
1.121311e+003,-2.809372e+000
1.122275e+003,-2.272659e+000
1.123239e+003,-1.414734e+000
1.124203e+003,-1.531067e-001
1.125168e+003,1.078903e+000
1.126132e+003,2.385574e+000
1.127096e+003,3.386353e+000
1.128060e+003,3.707031e+000
1.129025e+003,3.394714e+000
1.129989e+003,2.672546e+000
1.130953e+003,9.154510e-001
1.131917e+003,1.762085e-001
1.132882e+003,2.158920e+000
1.133846e+003,4.128815e+000
1.134810e+003,4.123230e+000
1.135774e+003,2.729736e+000
1.136739e+003,1.771973e+000
1.137703e+003,2.259567e+000
1.138667e+003,3.238220e+000
1.139631e+003,2.914246e+000
1.140595e+003,1.485703e+000
1.141560e+003,9.162750e-001
1.142524e+003,1.435059e+000
1.143488e+003,2.569443e+000
1.144452e+003,3.856674e+000
1.145417e+003,5.465652e+000
1.146381e+003,8.329071e+000
1.147345e+003,1.341081e+001
1.148309e+003,1.703185e+001
1.149274e+003,1.703247e+001
1.150238e+003,1.685329e+001
1.151202e+003,1.857234e+001
1.152166e+003,2.143529e+001
1.153130e+003,2.353481e+001
1.154095e+003,2.397305e+001
1.155059e+003,2.385977e+001
1.156023e+003,2.500128e+001
1.156987e+003,2.726402e+001
1.157952e+003,2.915399e+001
1.158916e+003,3.111407e+001
1.159880e+003,3.128740e+001
1.160844e+003,2.713939e+001
1.161809e+003,2.070856e+001
1.162773e+003,1.715442e+001
1.163737e+003,1.730231e+001
1.164701e+003,1.673932e+001
1.165666e+003,1.315321e+001
1.166630e+003,1.003589e+001
1.167594e+003,9.281662e+000
1.168558e+003,9.497635e+000
1.169522e+003,8.414368e+000
1.170487e+003,5.560333e+000
1.171451e+003,2.933365e+000
1.172415e+003,2.875671e+000
1.173379e+003,4.771484e+000
1.174344e+003,5.534119e+000
1.175308e+003,5.265793e+000
1.176272e+003,4.228333e+000
1.177236e+003,1.605011e+000
1.178201e+003,-1.007065e+000
1.179165e+003,-1.222595e+000
1.180129e+003,9.332275e-001
1.181093e+003,2.138229e+000
1.182057e+003,9.033813e-001
1.183022e+003,-4.975891e-002
1.183986e+003,1.108902e+000
1.184950e+003,2.448364e+000
1.185914e+003,1.668167e+000
1.186879e+003,-9.959106e-001
1.187843e+003,-3.267746e+000
1.188807e+003,-3.314301e+000
1.189771e+003,-1.811111e+000
1.190736e+003,-4.764252e-001
1.191700e+003,7.349701e-001
1.192664e+003,9.412079e-001
1.193628e+003,-5.369568e-001
1.194593e+003,-2.142395e+000
1.195557e+003,-2.780960e+000
1.196521e+003,-2.681915e+000
1.197485e+003,-2.575439e+000
1.198449e+003,-2.523636e+000
1.199414e+003,-2.557068e+000
1.200378e+003,-3.093948e+000
1.201342e+003,-3.346512e+000
1.202306e+003,-2.149017e+000
1.203271e+003,-4.260559e-001
1.204235e+003,-2.451782e-001
1.205199e+003,-2.479080e+000
1.206163e+003,-5.692795e+000
1.207128e+003,-7.565628e+000
1.208092e+003,-8.028244e+000
1.209056e+003,-7.535492e+000
1.210020e+003,-5.211060e+000
1.210984e+003,-3.801529e+000
1.211949e+003,-4.549881e+000
1.212913e+003,-6.377655e+000
1.213877e+003,-7.920029e+000
1.214841e+003,-9.058197e+000
1.215806e+003,-1.037912e+001
1.216770e+003,-1.247253e+001
1.217734e+003,-1.424818e+001
1.218698e+003,-1.519128e+001
1.219663e+003,-1.541734e+001
1.220627e+003,-1.472475e+001
1.221591e+003,-1.333720e+001
1.222555e+003,-1.217180e+001
1.223520e+003,-1.208234e+001
1.224484e+003,-1.274866e+001
1.225448e+003,-1.277875e+001
1.226412e+003,-1.171558e+001
1.227376e+003,-1.107419e+001
1.228341e+003,-1.134149e+001
1.229305e+003,-1.152771e+001
1.230269e+003,-1.067615e+001
1.231233e+003,-9.488083e+000
1.232198e+003,-9.752533e+000
1.233162e+003,-1.200618e+001
1.234126e+003,-1.349088e+001
1.235090e+003,-1.110515e+001
1.236055e+003,-8.186874e+000
1.237019e+003,-8.841919e+000
1.237983e+003,-1.192401e+001
1.238947e+003,-1.403806e+001
1.239911e+003,-1.373547e+001
1.240876e+003,-1.252347e+001
1.241840e+003,-1.276692e+001
1.242804e+003,-1.459616e+001
1.243768e+003,-1.538686e+001
1.244733e+003,-1.359570e+001
1.245697e+003,-1.281163e+001
1.246661e+003,-1.460039e+001
1.247625e+003,-1.646237e+001
1.248590e+003,-1.626988e+001
1.249554e+003,-1.437317e+001
1.250518e+003,-1.238301e+001
1.251482e+003,-1.100494e+001
1.252447e+003,-1.036867e+001
1.253411e+003,-1.101091e+001
1.254375e+003,-1.222260e+001
1.255339e+003,-1.245746e+001
1.256303e+003,-1.165628e+001
1.257268e+003,-1.087839e+001
1.258232e+003,-1.080417e+001
1.259196e+003,-1.118417e+001
1.260160e+003,-1.158017e+001
1.261125e+003,-1.208707e+001
1.262089e+003,-1.152191e+001
1.263053e+003,-7.976059e+000
1.264017e+003,-5.781906e+000
1.264982e+003,-7.100967e+000
1.265946e+003,-9.295425e+000
1.266910e+003,-9.731186e+000
1.267874e+003,-8.462479e+000
1.268839e+003,-7.396851e+000
1.269803e+003,-7.797852e+000
1.270767e+003,-8.793793e+000
1.271731e+003,-8.476685e+000
1.272695e+003,-6.932007e+000
1.273660e+003,-7.117981e+000
1.274624e+003,-1.006535e+001
1.275588e+003,-1.250435e+001
1.276552e+003,-1.207399e+001
1.277517e+003,-1.010721e+001
1.278481e+003,-9.281128e+000
1.279445e+003,-9.856918e+000
1.280409e+003,-1.015836e+001
1.281374e+003,-9.164719e+000
1.282338e+003,-8.446884e+000
1.283302e+003,-9.086014e+000
1.284266e+003,-1.026828e+001
1.285230e+003,-1.106561e+001
1.286195e+003,-1.136185e+001
1.287159e+003,-1.162242e+001
1.288123e+003,-1.219493e+001
1.289087e+003,-1.295609e+001
1.290052e+003,-1.371924e+001
1.291016e+003,-1.482387e+001
1.291980e+003,-1.475270e+001
1.292944e+003,-1.240941e+001
1.293909e+003,-1.055032e+001
1.294873e+003,-1.048160e+001
1.295837e+003,-1.124344e+001
1.296801e+003,-1.156569e+001
1.297766e+003,-1.127789e+001
1.298730e+003,-1.094559e+001
1.299694e+003,-1.092184e+001
1.300658e+003,-1.096954e+001
1.301622e+003,-1.078909e+001
1.302587e+003,-1.044569e+001
1.303551e+003,-9.930466e+000
1.304515e+003,-9.275558e+000
1.305479e+003,-8.979691e+000
1.306444e+003,-9.592590e+000
1.307408e+003,-1.076930e+001
1.308372e+003,-1.116808e+001
1.309336e+003,-1.047821e+001
1.310301e+003,-9.980530e+000
1.311265e+003,-9.321884e+000
1.312229e+003,-9.287277e+000
1.313193e+003,-1.084097e+001
1.314157e+003,-1.268721e+001
1.315122e+003,-1.345535e+001
1.316086e+003,-1.306493e+001
1.317050e+003,-1.226778e+001
1.318014e+003,-1.148558e+001
1.318979e+003,-1.082243e+001
1.319943e+003,-1.060503e+001
1.320907e+003,-1.072754e+001
1.321871e+003,-1.041263e+001
1.322836e+003,-9.459534e+000
1.323800e+003,-9.047775e+000
1.324764e+003,-1.075275e+001
1.325728e+003,-1.287445e+001
1.326693e+003,-1.197836e+001
1.327657e+003,-7.952637e+000
1.328621e+003,-5.277344e+000
1.329585e+003,-5.509918e+000
1.330549e+003,-6.205994e+000
1.331514e+003,-5.994553e+000
1.332478e+003,-5.936874e+000
1.333442e+003,-7.414032e+000
1.334406e+003,-9.964691e+000
1.335371e+003,-1.181804e+001
1.336335e+003,-1.191946e+001
1.337299e+003,-1.104132e+001
1.338263e+003,-1.067957e+001
1.339228e+003,-1.092509e+001
1.340192e+003,-1.079016e+001
1.341156e+003,-9.846283e+000
1.342120e+003,-9.183899e+000
1.343084e+003,-9.110611e+000
1.344049e+003,-9.369995e+000
1.345013e+003,-9.930969e+000
1.345977e+003,-1.052524e+001
1.346941e+003,-1.062440e+001
1.347906e+003,-1.004514e+001
1.348870e+003,-8.902161e+000
1.349834e+003,-6.691360e+000
1.350798e+003,-4.556107e+000
1.351763e+003,-4.871201e+000
1.352727e+003,-7.167511e+000
1.353691e+003,-8.705231e+000
1.354655e+003,-8.357361e+000
1.355620e+003,-7.398407e+000
1.356584e+003,-7.334305e+000
1.357548e+003,-8.022598e+000
1.358512e+003,-8.333664e+000
1.359476e+003,-8.004166e+000
1.360441e+003,-8.168915e+000
1.361405e+003,-9.774078e+000
1.362369e+003,-1.113223e+001
1.363333e+003,-1.149181e+001
1.364298e+003,-1.104051e+001
1.365262e+003,-9.784927e+000
1.366226e+003,-8.018127e+000
1.367190e+003,-6.650467e+000
1.368155e+003,-6.494598e+000
1.369119e+003,-7.310150e+000
1.370083e+003,-8.389603e+000
1.371047e+003,-9.904770e+000
1.372011e+003,-1.069247e+001
1.372976e+003,-1.058554e+001
1.373940e+003,-1.018146e+001
1.374904e+003,-9.505936e+000
1.375868e+003,-8.711243e+000
1.376833e+003,-7.943588e+000
1.377797e+003,-7.273346e+000
1.378761e+003,-6.913239e+000
1.379725e+003,-7.047760e+000
1.380690e+003,-7.131912e+000
1.381654e+003,-5.928879e+000
1.382618e+003,-4.648407e+000
1.383582e+003,-5.513824e+000
1.384547e+003,-8.278320e+000
1.385511e+003,-1.045886e+001
1.386475e+003,-1.088158e+001
1.387439e+003,-1.001698e+001
1.388403e+003,-8.017914e+000
1.389368e+003,-4.902039e+000
1.390332e+003,-3.503281e+000
1.391296e+003,-4.640442e+000
1.392260e+003,-5.932037e+000
1.393225e+003,-7.232162e+000
1.394189e+003,-8.145889e+000
1.395153e+003,-8.400192e+000
1.396117e+003,-8.127747e+000
1.397082e+003,-7.341263e+000
1.398046e+003,-6.194229e+000
1.399010e+003,-5.271698e+000
1.399974e+003,-5.180054e+000
1.400938e+003,-5.628510e+000
1.401903e+003,-5.433624e+000
1.402867e+003,-4.191849e+000
1.403831e+003,-3.083420e+000
1.404795e+003,-2.269455e+000
1.405760e+003,-1.552948e+000
1.406724e+003,-4.527740e-001
1.407688e+003,3.378296e-002
1.408652e+003,-1.673767e+000
1.409617e+003,-5.064102e+000
1.410581e+003,-7.539917e+000
1.411545e+003,-8.045212e+000
1.412509e+003,-7.605469e+000
1.413474e+003,-6.836700e+000
1.414438e+003,-6.080215e+000
1.415402e+003,-5.780014e+000
1.416366e+003,-5.828644e+000
1.417330e+003,-5.862762e+000
1.418295e+003,-5.682007e+000
1.419259e+003,-5.657593e+000
1.420223e+003,-6.551132e+000
1.421187e+003,-8.152557e+000
1.422152e+003,-8.739822e+000
1.423116e+003,-7.882614e+000
1.424080e+003,-7.033203e+000
1.425044e+003,-6.669098e+000
1.426009e+003,-6.449661e+000
1.426973e+003,-6.384628e+000
1.427937e+003,-6.309113e+000
1.428901e+003,-6.418030e+000
1.429865e+003,-6.329208e+000
1.430830e+003,-4.507446e+000
1.431794e+003,-5.804443e-002
1.432758e+003,4.751434e+000
1.433722e+003,5.386612e+000
1.434687e+003,1.572952e+000
1.435651e+003,-1.178284e+000
1.436615e+003,-3.116058e+000
1.437579e+003,-4.159988e+000
1.438544e+003,-3.394348e+000
1.439508e+003,-2.565292e+000
1.440472e+003,-3.123383e+000
1.441436e+003,-4.275543e+000
1.442401e+003,-4.271912e+000
1.443365e+003,-2.827225e+000
1.444329e+003,-1.544724e+000
1.445293e+003,-1.680145e+000
1.446257e+003,-2.337906e+000
1.447222e+003,-1.586472e+000
1.448186e+003,1.786499e-001
1.449150e+003,7.201691e-001
1.450114e+003,-3.912201e-001
1.451079e+003,-1.839874e+000
1.452043e+003,-3.506012e+000
1.453007e+003,-4.654358e+000
1.453971e+003,-3.764084e+000
1.454936e+003,-1.239822e+000
1.455900e+003,-7.711792e-002
1.456864e+003,-1.247330e+000
1.457828e+003,-2.416458e+000
1.458792e+003,-1.872711e+000
1.459757e+003,-1.227097e+000
1.460721e+003,-2.203201e+000
1.461685e+003,-3.977615e+000
1.462649e+003,-4.602707e+000
1.463614e+003,-3.637741e+000
1.464578e+003,-2.616302e+000
1.465542e+003,-3.011520e+000
1.466506e+003,-4.210968e+000
1.467471e+003,-4.185562e+000
1.468435e+003,-2.483170e+000
1.469399e+003,-1.400040e+000
1.470363e+003,-1.827148e+000
1.471328e+003,-1.969925e+000
1.472292e+003,-1.388916e+000
1.473256e+003,-6.012268e-001
1.474220e+003,4.203033e-001
1.475184e+003,1.394455e+000
1.476149e+003,1.786880e+000
1.477113e+003,1.414673e+000
1.478077e+003,5.665436e-001
1.479041e+003,-4.365234e-001
1.480006e+003,-1.393997e+000
1.480970e+003,-1.752487e+000
1.481934e+003,-1.403198e+000
1.482898e+003,-1.246567e+000
1.483863e+003,-1.894577e+000
1.484827e+003,-1.896927e+000
1.485791e+003,2.401276e-001
1.486755e+003,2.348465e+000
1.487719e+003,2.016098e+000
1.488684e+003,-8.561707e-002
1.489648e+003,-1.806320e+000
1.490612e+003,-2.391495e+000
1.491576e+003,-2.019119e+000
1.492541e+003,-6.633759e-001
1.493505e+003,1.151352e+000
1.494469e+003,2.298904e+000
1.495433e+003,2.802002e+000
1.496398e+003,3.238419e+000
1.497362e+003,3.823181e+000
1.498326e+003,4.279480e+000
1.499290e+003,4.203857e+000
1.500255e+003,4.074783e+000
1.501219e+003,4.530823e+000
1.502183e+003,5.501282e+000
1.503147e+003,6.615387e+000
1.504111e+003,7.804840e+000
1.505076e+003,9.071091e+000
1.506040e+003,1.042093e+001
1.507004e+003,1.187740e+001
1.507968e+003,1.356696e+001
1.508933e+003,1.533784e+001
1.509897e+003,1.669641e+001
1.510861e+003,1.771269e+001
1.511825e+003,1.947832e+001
1.512790e+003,2.272818e+001
1.513754e+003,2.695956e+001
1.514718e+003,3.161334e+001
1.515682e+003,3.661792e+001
1.516646e+003,4.071036e+001
1.517611e+003,4.394853e+001
1.518575e+003,4.611769e+001
1.519539e+003,4.625778e+001
1.520503e+003,4.638271e+001
1.521468e+003,4.807027e+001
1.522432e+003,5.003574e+001
1.523396e+003,5.027834e+001
1.524360e+003,4.872746e+001
1.525325e+003,4.700775e+001
1.526289e+003,4.621898e+001
1.527253e+003,4.558690e+001
1.528217e+003,4.363583e+001
1.529182e+003,4.040091e+001
1.530146e+003,3.731718e+001
1.531110e+003,3.457339e+001
1.532074e+003,3.150450e+001
1.533039e+003,2.772844e+001
1.534003e+003,2.373557e+001
1.534967e+003,1.936409e+001
1.535931e+003,1.542007e+001
1.536896e+003,1.302745e+001
1.537860e+003,1.191061e+001
1.538824e+003,1.060722e+001
1.539788e+003,8.380829e+000
1.540752e+003,6.325287e+000
1.541717e+003,6.018768e+000
1.542681e+003,7.095810e+000
1.543645e+003,6.962585e+000
1.544609e+003,5.079132e+000
1.545573e+003,3.522568e+000
1.546538e+003,1.381302e+000
1.547502e+003,5.178223e-001
1.548466e+003,2.589157e+000
1.549430e+003,5.650620e+000
1.550395e+003,8.313629e+000
1.551359e+003,9.999725e+000
1.552323e+003,9.381592e+000
1.553287e+003,6.250031e+000
1.554252e+003,3.987930e+000
1.555216e+003,5.955505e+000
1.556180e+003,9.652344e+000
1.557144e+003,8.666199e+000
1.558109e+003,2.843826e+000
1.559073e+003,2.781982e-001
1.560037e+003,2.916428e+000
1.561001e+003,4.776459e+000
1.561966e+003,3.032501e+000
1.562930e+003,7.181091e-001
1.563894e+003,5.841980e-001
1.564858e+003,2.030045e+000
1.565823e+003,3.665573e+000
1.566787e+003,5.110306e+000
1.567751e+003,5.386978e+000
1.568715e+003,3.492538e+000
1.569679e+003,1.706100e+000
1.570644e+003,3.694916e+000
1.571608e+003,7.723282e+000
1.572572e+003,8.577301e+000
1.573536e+003,6.086456e+000
1.574500e+003,4.219055e+000
1.575465e+003,4.403259e+000
1.576429e+003,5.294281e+000
1.577393e+003,5.945709e+000
1.578357e+003,6.448975e+000
1.579322e+003,7.075989e+000
1.580286e+003,7.850098e+000
1.581250e+003,8.625671e+000
1.582214e+003,9.515961e+000
1.583179e+003,9.748672e+000
1.584143e+003,7.993515e+000
1.585107e+003,5.876038e+000
1.586071e+003,5.915680e+000
1.587036e+003,7.538635e+000
1.588000e+003,8.710022e+000
1.588964e+003,8.935242e+000
1.589928e+003,8.774231e+000
1.590893e+003,8.134003e+000
1.591857e+003,7.785568e+000
1.592821e+003,9.446289e+000
1.593785e+003,1.262517e+001
1.594750e+003,1.422849e+001
1.595714e+003,1.362846e+001
1.596678e+003,1.284003e+001
1.597642e+003,1.252153e+001
1.598606e+003,1.249348e+001
1.599571e+003,1.298849e+001
1.600535e+003,1.349602e+001
1.601499e+003,1.290683e+001
1.602463e+003,1.151205e+001
1.603427e+003,1.133836e+001
1.604392e+003,1.339258e+001
1.605356e+003,1.540666e+001
1.606320e+003,1.443939e+001
1.607284e+003,1.187230e+001
1.608249e+003,1.206232e+001
1.609213e+003,1.513484e+001
1.610177e+003,1.701505e+001
1.611141e+003,1.675597e+001
1.612106e+003,1.597316e+001
1.613070e+003,1.483820e+001
1.614034e+003,1.400256e+001
1.614998e+003,1.381783e+001
1.615963e+003,1.432599e+001
1.616927e+003,1.607590e+001
1.617891e+003,1.877171e+001
1.618855e+003,2.022588e+001
1.619820e+003,1.892036e+001
1.620784e+003,1.665955e+001
1.621748e+003,1.617970e+001
1.622712e+003,1.729527e+001
1.623677e+003,1.829150e+001
1.624641e+003,1.926312e+001
1.625605e+003,1.943214e+001
1.626569e+003,1.750192e+001
1.627533e+003,1.623625e+001
1.628498e+003,1.816959e+001
1.629462e+003,2.043826e+001
1.630426e+003,2.044511e+001
1.631390e+003,1.883113e+001
1.632354e+003,1.712836e+001
1.633319e+003,1.584033e+001
1.634283e+003,1.527206e+001
1.635247e+003,1.572162e+001
1.636211e+003,1.673396e+001
1.637176e+003,1.771487e+001
1.638140e+003,1.866110e+001
1.639104e+003,1.888556e+001
1.640068e+003,1.805780e+001
1.641033e+003,1.755646e+001
1.641997e+003,1.785243e+001
1.642961e+003,1.844400e+001
1.643925e+003,1.967865e+001
1.644890e+003,2.057834e+001
1.645854e+003,1.966212e+001
1.646818e+003,1.763406e+001
1.647782e+003,1.648158e+001
1.648747e+003,1.678822e+001
1.649711e+003,1.756755e+001
1.650675e+003,1.815692e+001
1.651639e+003,1.851482e+001
1.652604e+003,1.840392e+001
1.653568e+003,1.779475e+001
1.654532e+003,1.698341e+001
1.655496e+003,1.579623e+001
1.656460e+003,1.513908e+001
1.657425e+003,1.613089e+001
1.658389e+003,1.659930e+001
1.659353e+003,1.427100e+001
1.660317e+003,1.166716e+001
1.661281e+003,1.193347e+001
1.662246e+003,1.430602e+001
1.663210e+003,1.603389e+001
1.664174e+003,1.621385e+001
1.665138e+003,1.540642e+001
1.666103e+003,1.367905e+001
1.667067e+003,1.183414e+001
1.668031e+003,1.200923e+001
1.668995e+003,1.399638e+001
1.669960e+003,1.410799e+001
1.670924e+003,1.143523e+001
1.671888e+003,9.818192e+000
1.672852e+003,1.126994e+001
1.673817e+003,1.275655e+001
1.674781e+003,1.183890e+001
1.675745e+003,1.031503e+001
1.676709e+003,1.041916e+001
1.677674e+003,1.168158e+001
1.678638e+003,1.195277e+001
1.679602e+003,1.058537e+001
1.680566e+003,9.607193e+000
1.681531e+003,1.107654e+001
1.682495e+003,1.329860e+001
1.683459e+003,1.303522e+001
1.684423e+003,1.067966e+001
1.685387e+003,8.899521e+000
1.686352e+003,7.903641e+000
1.687316e+003,8.015137e+000
1.688280e+003,1.010138e+001
1.689244e+003,1.186957e+001
1.690208e+003,1.120656e+001
1.691173e+003,9.552673e+000
1.692137e+003,8.108566e+000
1.693101e+003,7.115265e+000
1.694065e+003,7.073715e+000
1.695030e+003,8.086365e+000
1.695994e+003,8.944839e+000
1.696958e+003,8.790909e+000
1.697922e+003,8.323135e+000
1.698887e+003,8.509613e+000
1.699851e+003,9.101883e+000
1.700815e+003,9.315125e+000
1.701779e+003,9.043381e+000
1.702744e+003,8.316055e+000
1.703708e+003,7.078354e+000
1.704672e+003,5.975418e+000
1.705636e+003,5.318771e+000
1.706601e+003,5.027939e+000
1.707565e+003,5.256226e+000
1.708529e+003,5.876572e+000
1.709493e+003,6.505951e+000
1.710458e+003,7.193268e+000
1.711422e+003,6.893265e+000
1.712386e+003,4.052521e+000
1.713350e+003,1.538574e+000
1.714314e+003,2.275482e+000
1.715279e+003,4.335556e+000
1.716243e+003,4.248108e+000
1.717207e+003,2.322342e+000
1.718171e+003,1.503723e+000
1.719135e+003,2.619827e+000
1.720100e+003,3.721237e+000
1.721064e+003,3.509827e+000
1.722028e+003,2.547592e+000
1.722992e+003,1.519470e+000
1.723957e+003,5.777740e-001
1.724921e+003,1.313934e-001
1.725885e+003,3.147888e-002
1.726849e+003,4.725952e-001
1.727814e+003,2.396835e+000
1.728778e+003,3.889465e+000
1.729742e+003,3.711823e+000
1.730706e+003,3.065430e+000
1.731671e+003,2.921951e+000
1.732635e+003,3.184677e+000
1.733599e+003,3.841446e+000
1.734563e+003,4.750610e+000
1.735528e+003,5.079071e+000
1.736492e+003,4.358215e+000
1.737456e+003,2.998367e+000
1.738420e+003,1.317429e+000
1.739385e+003,-2.641907e-001
1.740349e+003,1.565399e-001
1.741313e+003,3.305664e+000
1.742277e+003,5.013626e+000
1.743241e+003,4.809570e+000
1.744206e+003,4.143753e+000
1.745170e+003,2.651031e+000
1.746134e+003,1.282364e+000
1.747098e+003,3.778992e-001
1.748063e+003,-4.165649e-003
1.749027e+003,5.456543e-001
1.749991e+003,1.583115e+000
1.750955e+003,1.970016e+000
1.751919e+003,1.380295e+000
1.752884e+003,5.567169e-001
1.753848e+003,1.061249e-001
1.754812e+003,2.380371e-002
1.755776e+003,4.362030e-001
1.756741e+003,1.371216e+000
1.757705e+003,1.668076e+000
1.758669e+003,8.229370e-001
1.759633e+003,6.728973e-001
1.760598e+003,2.138702e+000
1.761562e+003,3.138260e+000
1.762526e+003,2.776566e+000
1.763490e+003,2.165359e+000
1.764455e+003,2.243423e+000
1.765419e+003,2.542740e+000
1.766383e+003,2.030670e+000
1.767347e+003,7.615051e-001
1.768312e+003,-1.715393e-001
1.769276e+003,-2.722626e-001
1.770240e+003,-2.619934e-002
1.771204e+003,1.108551e-001
1.772168e+003,3.876038e-001
1.773133e+003,1.585312e+000
1.774097e+003,3.505997e+000
1.775061e+003,3.990021e+000
1.776025e+003,2.575745e+000
1.776990e+003,9.751892e-001
1.777954e+003,-5.823822e-001
1.778918e+003,-1.199036e+000
1.779882e+003,6.795197e-001
1.780846e+003,3.008850e+000
1.781811e+003,2.821320e+000
1.782775e+003,8.581696e-001
1.783739e+003,-5.097656e-001
1.784703e+003,-9.172668e-001
1.785668e+003,-9.076996e-001
1.786632e+003,-5.036926e-001
1.787596e+003,-1.801758e-001
1.788560e+003,-1.522675e-001
1.789525e+003,-3.313904e-001
1.790489e+003,-1.161713e+000
1.791453e+003,-2.146942e+000
1.792417e+003,-1.311203e+000
1.793382e+003,1.496460e+000
1.794346e+003,3.461319e+000
1.795310e+003,3.041855e+000
1.796274e+003,1.830231e+000
1.797239e+003,1.728409e+000
1.798203e+003,2.272537e+000
1.799167e+003,1.536972e+000
1.800131e+003,-1.110443e+000
1.801095e+003,-1.701385e+000
1.802060e+003,1.914063e+000
1.803024e+003,4.203629e+000
1.803988e+003,3.650772e+000
1.804952e+003,2.796555e+000
1.805917e+003,2.923264e+000
1.806881e+003,3.252472e+000
1.807845e+003,2.803177e+000
1.808809e+003,1.955658e+000
1.809773e+003,1.615509e+000
1.810738e+003,1.970886e+000
1.811702e+003,2.740067e+000
1.812666e+003,3.709595e+000
1.813630e+003,4.175110e+000
1.814595e+003,2.973297e+000
1.815559e+003,7.398224e-001
1.816523e+003,3.157196e-001
1.817487e+003,1.895935e+000
1.818452e+003,3.394516e+000
1.819416e+003,5.120529e+000
1.820380e+003,5.708420e+000
1.821344e+003,3.903290e+000
1.822309e+003,1.997467e+000
1.823273e+003,1.125168e+000
1.824237e+003,1.062042e+000
1.825201e+003,2.088364e+000
1.826166e+003,3.593796e+000
1.827130e+003,3.981079e+000
1.828094e+003,2.984314e+000
1.829058e+003,2.048538e+000
1.830022e+003,1.882156e+000
1.830987e+003,2.032654e+000
1.831951e+003,2.435577e+000
1.832915e+003,2.707214e+000
1.833879e+003,2.004501e+000
1.834844e+003,7.151489e-001
1.835808e+003,7.809448e-002
1.836772e+003,2.624664e-001
1.837736e+003,6.017609e-001
1.838700e+003,7.734222e-001
1.839665e+003,1.181824e+000
1.840629e+003,2.377594e+000
1.841593e+003,3.618301e+000
1.842557e+003,3.035599e+000
1.843522e+003,6.737061e-001
1.844486e+003,2.731018e-001
1.845450e+003,3.695969e+000
1.846414e+003,5.656128e+000
1.847379e+003,5.083923e+000
1.848343e+003,4.298416e+000
1.849307e+003,4.178543e+000
1.850271e+003,3.936981e+000
1.851236e+003,2.520660e+000
1.852200e+003,9.653778e-001
1.853164e+003,1.005463e+000
1.854128e+003,2.198242e+000
1.855093e+003,2.528900e+000
1.856057e+003,1.378769e+000
1.857021e+003,1.724243e-001
1.857985e+003,5.072021e-002
1.858949e+003,5.466766e-001
1.859914e+003,9.753418e-001
1.860878e+003,1.353027e+000
1.861842e+003,1.459808e+000
1.862806e+003,1.244186e+000
1.863771e+003,2.459595e+000
1.864735e+003,5.997604e+000
1.865699e+003,7.957016e+000
1.866663e+003,5.946289e+000
1.867627e+003,3.311676e+000
1.868592e+003,2.968414e+000
1.869556e+003,3.846054e+000
1.870520e+003,4.022705e+000
1.871484e+003,3.618698e+000
1.872449e+003,3.525528e+000
1.873413e+003,4.115723e+000
1.874377e+003,4.659027e+000
1.875341e+003,4.717178e+000
1.876306e+003,4.651245e+000
1.877270e+003,4.682220e+000
1.878234e+003,4.611435e+000
1.879198e+003,3.934677e+000
1.880163e+003,3.199829e+000
1.881127e+003,3.590668e+000
1.882091e+003,4.990158e+000
1.883055e+003,6.243622e+000
1.884020e+003,6.835205e+000
1.884984e+003,7.083679e+000
1.885948e+003,7.302536e+000
1.886912e+003,7.122009e+000
1.887876e+003,5.573349e+000
1.888841e+003,2.884079e+000
1.889805e+003,1.982468e+000
1.890769e+003,3.209885e+000
1.891733e+003,4.414825e+000
1.892698e+003,5.409073e+000
1.893662e+003,6.240250e+000
1.894626e+003,7.209839e+000
1.895590e+003,7.676788e+000
1.896554e+003,6.664078e+000
1.897519e+003,5.364456e+000
1.898483e+003,5.358109e+000
1.899447e+003,6.212418e+000
1.900411e+003,6.354630e+000
1.901376e+003,5.500916e+000
1.902340e+003,4.966110e+000
1.903304e+003,5.402039e+000
1.904268e+003,5.996307e+000
1.905233e+003,6.313614e+000
1.906197e+003,6.545105e+000
1.907161e+003,7.049805e+000
1.908125e+003,7.559586e+000
1.909090e+003,7.362411e+000
1.910054e+003,6.576324e+000
1.911018e+003,6.042206e+000
1.911982e+003,6.069901e+000
1.912947e+003,6.372940e+000
1.913911e+003,6.722656e+000
1.914875e+003,6.924057e+000
1.915839e+003,6.591385e+000
1.916803e+003,5.871399e+000
1.917768e+003,5.835266e+000
1.918732e+003,6.669464e+000
1.919696e+003,7.340210e+000
1.920660e+003,8.122971e+000
1.921625e+003,7.929352e+000
1.922589e+003,5.477051e+000
1.923553e+003,3.620239e+000
1.924517e+003,4.611679e+000
1.925481e+003,6.208740e+000
1.926446e+003,6.338943e+000
1.927410e+003,5.693481e+000
1.928374e+003,5.843826e+000
1.929338e+003,6.758148e+000
1.930303e+003,6.802536e+000
1.931267e+003,5.099777e+000
1.932231e+003,4.339813e+000
1.933195e+003,6.807724e+000
1.934160e+003,9.221146e+000
1.935124e+003,8.972137e+000
1.936088e+003,7.460129e+000
1.937052e+003,6.080475e+000
1.938017e+003,5.164658e+000
1.938981e+003,5.160431e+000
1.939945e+003,5.836014e+000
1.940909e+003,5.867065e+000
1.941874e+003,4.773331e+000
1.942838e+003,4.289871e+000
1.943802e+003,6.169785e+000
1.944766e+003,9.035797e+000
1.945730e+003,9.984497e+000
1.946695e+003,9.181702e+000
1.947659e+003,8.105652e+000
1.948623e+003,6.605072e+000
1.949587e+003,6.545578e+000
1.950552e+003,8.623505e+000
1.951516e+003,1.020621e+001
1.952480e+003,1.022643e+001
1.953444e+003,9.974930e+000
1.954408e+003,1.031551e+001
1.955373e+003,1.082928e+001
1.956337e+003,1.122372e+001
1.957301e+003,1.142105e+001
1.958265e+003,1.061299e+001
1.959230e+003,8.547318e+000
1.960194e+003,7.621552e+000
1.961158e+003,9.177383e+000
1.962122e+003,1.012518e+001
1.963087e+003,8.986801e+000
1.964051e+003,7.915527e+000
1.965015e+003,8.381699e+000
1.965979e+003,9.421829e+000
1.966944e+003,1.038145e+001
1.967908e+003,1.080782e+001
1.968872e+003,9.734634e+000
1.969836e+003,7.622879e+000
1.970801e+003,6.643921e+000
1.971765e+003,7.653397e+000
1.972729e+003,8.941788e+000
1.973693e+003,9.005371e+000
1.974657e+003,8.713196e+000
1.975622e+003,9.579025e+000
1.976586e+003,1.099629e+001
1.977550e+003,1.130998e+001
1.978514e+003,1.068484e+001
1.979479e+003,1.004884e+001
1.980443e+003,9.554031e+000
1.981407e+003,9.436264e+000
1.982371e+003,9.830429e+000
1.983335e+003,1.020540e+001
1.984300e+003,1.011522e+001
1.985264e+003,9.784546e+000
1.986228e+003,9.585510e+000
1.987192e+003,9.503906e+000
1.988157e+003,9.458969e+000
1.989121e+003,9.399231e+000
1.990085e+003,9.807770e+000
1.991049e+003,1.113219e+001
1.992014e+003,1.209781e+001
1.992978e+003,1.250346e+001
1.993942e+003,1.251640e+001
1.994906e+003,1.181912e+001
1.995871e+003,1.114381e+001
1.996835e+003,1.125421e+001
1.997799e+003,1.163437e+001
1.998763e+003,1.130029e+001
1.999728e+003,1.041251e+001
