5.003444e+002,2.043579e+001
5.013087e+002,2.181915e+001
5.022729e+002,1.822406e+001
5.032371e+002,1.213672e+001
5.042014e+002,1.043292e+001
5.051656e+002,1.259241e+001
5.061298e+002,1.611145e+001
5.070941e+002,1.880560e+001
5.080583e+002,2.050543e+001
5.090225e+002,2.046747e+001
5.099868e+002,1.798883e+001
5.109510e+002,1.510510e+001
5.119152e+002,1.245227e+001
5.128795e+002,1.004584e+001
5.138437e+002,9.106689e+000
5.148079e+002,1.213275e+001
5.157722e+002,1.502173e+001
5.167364e+002,1.555988e+001
5.177006e+002,1.361615e+001
5.186649e+002,1.102454e+001
5.196291e+002,1.012225e+001
5.205933e+002,1.077295e+001
5.215576e+002,1.291425e+001
5.225218e+002,1.581024e+001
5.234860e+002,1.781067e+001
5.244503e+002,1.636011e+001
5.254145e+002,1.065002e+001
5.263787e+002,6.785095e+000
5.273430e+002,4.660461e+000
5.283072e+002,4.394775e+000
5.292714e+002,6.625000e+000
5.302357e+002,1.331531e+001
5.311999e+002,1.649310e+001
5.321641e+002,1.462836e+001
5.331284e+002,1.119330e+001
5.340926e+002,8.370178e+000
5.350568e+002,6.703613e+000
5.360211e+002,5.268005e+000
5.369853e+002,3.671997e+000
5.379495e+002,2.505859e+000
5.389138e+002,2.343018e+000
5.398780e+002,3.210876e+000
5.408422e+002,4.453247e+000
5.418065e+002,4.383728e+000
5.427707e+002,3.175232e+000
5.437349e+002,1.836426e+000
5.446992e+002,3.560791e-001
5.456634e+002,-1.062683e+000
5.466276e+002,-1.526611e+000
5.475919e+002,4.071045e-002
5.485561e+002,1.776428e+000
5.495203e+002,3.925903e+000
5.504846e+002,5.725037e+000
5.514488e+002,6.124451e+000
5.524130e+002,4.387390e+000
5.533773e+002,2.730286e+000
5.543415e+002,2.107056e+000
5.553057e+002,2.212036e+000
5.562700e+002,2.868103e+000
5.572342e+002,3.889771e+000
5.581984e+002,4.726135e+000
5.591627e+002,4.220093e+000
5.601269e+002,3.101196e+000
5.610911e+002,2.335022e+000
5.620554e+002,2.332764e+000
5.630196e+002,2.720032e+000
5.639838e+002,1.663452e+000
5.649481e+002,-2.561523e+000
5.659123e+002,-5.671204e+000
5.668765e+002,-6.162415e+000
5.678408e+002,-4.394226e+000
5.688050e+002,-2.038757e+000
5.697692e+002,4.338379e-001
5.707335e+002,2.143250e+000
5.716977e+002,3.602844e+000
5.726619e+002,4.325012e+000
5.736262e+002,3.555054e+000
5.745904e+002,6.908569e-001
5.755546e+002,-3.139221e+000
5.765189e+002,-7.589172e+000
5.774831e+002,-1.207581e+001
5.784473e+002,-1.471954e+001
5.794116e+002,-1.404846e+001
5.803758e+002,-1.005286e+001
5.813400e+002,-6.299438e+000
5.823043e+002,-2.933960e+000
5.832685e+002,-9.399414e-001
5.842327e+002,-3.900757e-001
5.851970e+002,-9.058228e-001
5.861612e+002,-2.031128e+000
5.871254e+002,-7.060608e+000
5.880897e+002,-9.482666e+000
5.890539e+002,-6.227356e+000
5.900181e+002,-1.360474e-001
5.909824e+002,4.228882e+000
5.919466e+002,3.971985e+000
5.929108e+002,1.519775e+000
5.938751e+002,-8.292236e-001
5.948393e+002,-2.876770e+000
5.958035e+002,-4.265747e+000
5.967678e+002,-4.675476e+000
5.977320e+002,-3.972351e+000
5.986962e+002,-1.979065e+000
5.996605e+002,9.187012e-001
6.006247e+002,2.813293e+000
6.015889e+002,2.621033e+000
6.025532e+002,5.306396e-001
6.035174e+002,-1.388733e+000
6.044816e+002,-4.374451e+000
6.054459e+002,-5.465027e+000
6.064101e+002,-2.516907e+000
6.073743e+002,2.317261e+000
6.083386e+002,5.151306e+000
6.093028e+002,3.357849e+000
6.102670e+002,5.925293e-001
6.112313e+002,-3.610840e-001
6.121955e+002,-3.563843e-001
6.131597e+002,-4.726563e-001
6.141240e+002,-1.473694e+000
6.150882e+002,-3.243164e+000
6.160524e+002,-5.488220e+000
6.170167e+002,-7.887390e+000
6.179809e+002,-9.035522e+000
6.189451e+002,-8.245178e+000
6.199094e+002,-6.017944e+000
6.208736e+002,-4.541687e+000
6.218378e+002,-3.777832e+000
6.228021e+002,-2.911621e+000
6.237663e+002,-1.656189e+000
6.247305e+002,-1.571655e-001
6.256948e+002,1.281860e+000
6.266590e+002,2.500183e+000
6.276232e+002,2.439209e+000
6.285875e+002,8.615723e-001
6.295517e+002,-1.419800e+000
6.305159e+002,-4.001831e+000
6.314802e+002,-6.717163e+000
6.324444e+002,-9.426575e+000
6.334086e+002,-1.175671e+001
6.343729e+002,-1.309705e+001
6.353371e+002,-1.094458e+001
6.363013e+002,-3.671021e+000
6.372656e+002,6.302429e+000
6.382298e+002,1.064014e+001
6.391940e+002,3.356201e+000
6.401583e+002,-2.727417e+000
6.411225e+002,-6.833069e+000
6.420867e+002,-9.042969e+000
6.430510e+002,-9.776001e+000
6.440152e+002,-9.411499e+000
6.449794e+002,-8.074219e+000
6.459437e+002,-4.184753e+000
6.469079e+002,-6.185303e-001
6.478721e+002,7.934570e-003
6.488364e+002,-2.841003e+000
6.498006e+002,-6.834351e+000
6.507648e+002,-8.299805e+000
6.517291e+002,-7.949280e+000
6.526933e+002,-6.654785e+000
6.536575e+002,-4.507874e+000
6.546218e+002,-2.441711e+000
6.555860e+002,-2.322693e+000
6.565502e+002,-5.895569e+000
6.575145e+002,-7.799255e+000
6.584787e+002,-7.936646e+000
6.594429e+002,-6.701294e+000
6.604072e+002,-3.776184e+000
6.613714e+002,1.177612e+000
6.623356e+002,5.174438e+000
6.632999e+002,6.603760e+000
6.642641e+002,6.330322e+000
6.652283e+002,3.909241e+000
6.661926e+002,3.500366e-001
6.671568e+002,-2.049194e+000
6.681210e+002,-1.600952e-001
6.690853e+002,3.986328e+000
6.700495e+002,5.385437e+000
6.710137e+002,4.063538e+000
6.719780e+002,1.791077e+000
6.729422e+002,3.096924e-001
6.739064e+002,-4.564819e-001
6.748707e+002,-8.272095e-001
6.758349e+002,-4.416504e-001
6.767991e+002,-3.821411e-001
6.777634e+002,-1.157776e+000
6.787276e+002,-2.252014e+000
6.796918e+002,-2.007935e+000
6.806561e+002,6.348267e-001
6.816203e+002,3.463318e+000
6.825845e+002,6.609680e+000
6.835488e+002,9.187317e+000
6.845130e+002,9.650696e+000
6.854772e+002,6.689148e+000
6.864415e+002,2.627258e+000
6.874057e+002,2.184509e+000
6.883699e+002,3.835632e+000
6.893342e+002,5.010498e+000
6.902984e+002,4.369080e+000
6.912626e+002,2.410645e+000
6.922269e+002,1.629761e+000
6.931911e+002,3.360535e+000
6.941553e+002,5.871765e+000
6.951196e+002,1.010046e+001
6.960838e+002,1.390601e+001
6.970480e+002,1.359601e+001
6.980123e+002,6.441772e+000
6.989765e+002,8.801270e-001
6.999407e+002,6.401978e-001
7.009050e+002,2.605469e+000
7.018692e+002,4.926392e+000
7.028334e+002,6.616211e+000
7.037977e+002,7.286255e+000
7.047619e+002,6.060608e+000
7.057261e+002,3.990234e+000
7.066904e+002,2.286621e+000
7.076546e+002,1.120117e+000
7.086188e+002,7.304688e-001
7.095831e+002,1.642700e+000
7.105473e+002,4.550903e+000
7.115115e+002,5.585266e+000
7.124758e+002,3.033081e+000
7.134400e+002,4.024048e-001
7.144042e+002,3.707275e-001
7.153685e+002,3.123413e+000
7.163327e+002,5.372864e+000
7.172969e+002,4.569824e+000
7.182612e+002,4.055481e+000
7.192254e+002,5.792908e+000
7.201896e+002,8.633850e+000
7.211539e+002,1.010748e+001
7.221181e+002,8.067322e+000
7.230823e+002,3.929443e+000
7.240466e+002,1.318359e+000
7.250108e+002,4.082031e-001
7.259750e+002,1.058289e+000
7.269393e+002,3.006470e+000
7.279035e+002,5.517700e+000
7.288677e+002,6.464172e+000
7.298320e+002,5.200256e+000
7.307962e+002,5.064331e+000
7.317604e+002,7.194824e+000
7.327247e+002,1.032910e+001
7.336889e+002,1.217676e+001
7.346531e+002,1.104602e+001
7.356174e+002,9.420532e+000
7.365816e+002,1.043024e+001
7.375458e+002,1.200775e+001
7.385101e+002,1.221979e+001
7.394743e+002,1.074548e+001
7.404385e+002,8.941589e+000
7.414028e+002,8.580933e+000
7.423670e+002,8.711853e+000
7.433312e+002,9.012817e+000
7.442955e+002,1.018994e+001
7.452597e+002,1.227429e+001
7.462239e+002,1.528986e+001
7.471882e+002,1.969110e+001
7.481524e+002,2.179944e+001
7.491166e+002,1.815991e+001
7.500809e+002,1.519635e+001
7.510451e+002,1.705591e+001
7.520093e+002,2.197284e+001
7.529736e+002,2.321320e+001
7.539378e+002,1.592499e+001
7.549020e+002,7.969360e+000
7.558663e+002,2.839600e+000
7.568306e+002,6.206055e-001
7.577948e+002,1.919617e+000
7.587590e+002,6.688782e+000
7.597233e+002,1.288971e+001
7.606875e+002,1.512512e+001
7.616517e+002,1.420435e+001
7.626160e+002,1.295844e+001
7.635802e+002,1.186554e+001
7.645444e+002,1.121924e+001
7.655087e+002,1.169647e+001
7.664729e+002,1.418787e+001
7.674371e+002,1.545209e+001
7.684014e+002,1.465247e+001
7.693656e+002,1.331256e+001
7.703298e+002,1.219061e+001
7.712941e+002,1.155963e+001
7.722583e+002,1.167902e+001
7.732225e+002,1.330627e+001
7.741868e+002,1.521436e+001
7.751510e+002,1.609186e+001
7.761152e+002,1.642273e+001
7.770795e+002,1.762305e+001
7.780437e+002,2.090588e+001
7.790079e+002,2.565790e+001
7.799722e+002,2.747424e+001
7.809364e+002,2.634863e+001
7.819006e+002,2.469830e+001
7.828649e+002,2.385321e+001
7.838291e+002,2.367572e+001
7.847933e+002,2.276788e+001
7.857576e+002,1.948395e+001
7.867218e+002,1.678131e+001
7.876860e+002,1.590771e+001
7.886503e+002,1.609772e+001
7.896145e+002,1.676483e+001
7.905787e+002,1.770197e+001
7.915430e+002,1.898474e+001
7.925072e+002,2.088416e+001
7.934714e+002,2.215637e+001
7.944357e+002,2.179810e+001
7.953999e+002,2.019904e+001
7.963641e+002,1.825024e+001
7.973284e+002,1.668701e+001
7.982926e+002,1.546344e+001
7.992568e+002,1.629626e+001
8.002211e+002,1.993079e+001
8.011853e+002,2.172229e+001
8.021495e+002,1.973846e+001
8.031138e+002,1.577716e+001
8.040780e+002,1.420349e+001
8.050422e+002,1.628796e+001
8.060065e+002,1.871759e+001
8.069707e+002,2.089093e+001
8.079349e+002,2.198700e+001
8.088992e+002,2.027039e+001
8.098634e+002,1.587128e+001
8.108276e+002,1.291272e+001
8.117919e+002,1.919757e+001
8.127561e+002,2.933118e+001
8.137203e+002,3.375867e+001
8.146846e+002,3.192578e+001
8.156488e+002,2.747339e+001
8.166130e+002,2.430444e+001
8.175773e+002,2.235480e+001
8.185415e+002,2.125146e+001
8.195057e+002,2.051166e+001
8.204700e+002,2.008960e+001
8.214342e+002,2.018134e+001
8.223984e+002,2.061420e+001
8.233627e+002,2.086475e+001
8.243269e+002,2.051636e+001
8.252911e+002,2.095715e+001
8.262554e+002,2.367798e+001
8.272196e+002,2.687854e+001
8.281838e+002,2.837036e+001
8.291481e+002,2.752533e+001
8.301123e+002,2.582983e+001
8.310765e+002,2.591833e+001
8.320408e+002,2.757654e+001
8.330050e+002,2.895563e+001
8.339692e+002,3.016931e+001
8.349335e+002,3.086804e+001
8.358977e+002,3.060754e+001
8.368619e+002,2.945215e+001
8.378262e+002,2.898657e+001
8.387904e+002,2.849286e+001
8.397546e+002,2.878723e+001
8.407189e+002,3.120886e+001
8.416831e+002,3.439136e+001
8.426473e+002,3.558313e+001
8.436116e+002,3.305347e+001
8.445758e+002,3.088971e+001
8.455400e+002,3.440869e+001
8.465043e+002,3.922980e+001
8.474685e+002,4.075317e+001
8.484327e+002,3.826440e+001
8.493970e+002,3.438245e+001
8.503612e+002,3.283344e+001
8.513254e+002,3.374988e+001
8.522897e+002,3.540735e+001
8.532539e+002,3.884521e+001
8.542181e+002,4.100787e+001
8.551824e+002,3.971912e+001
8.561466e+002,3.599542e+001
8.571108e+002,3.439410e+001
8.580751e+002,3.559033e+001
8.590393e+002,3.707867e+001
8.600035e+002,3.926447e+001
8.609678e+002,4.153326e+001
8.619320e+002,4.283295e+001
8.628962e+002,4.278632e+001
8.638605e+002,4.267047e+001
8.648247e+002,4.503168e+001
8.657889e+002,4.855206e+001
8.667532e+002,5.064392e+001
8.677174e+002,5.096057e+001
8.686816e+002,5.026343e+001
8.696459e+002,4.944537e+001
8.706101e+002,4.874084e+001
8.715743e+002,4.817627e+001
8.725386e+002,4.744397e+001
8.735028e+002,4.731201e+001
8.744670e+002,4.762933e+001
8.754313e+002,4.806268e+001
8.763955e+002,4.833972e+001
8.773597e+002,4.843860e+001
8.783240e+002,4.919269e+001
8.792882e+002,5.193085e+001
8.802524e+002,5.463422e+001
8.812167e+002,5.522650e+001
8.821809e+002,5.361536e+001
8.831451e+002,5.161475e+001
8.841094e+002,5.175171e+001
8.850736e+002,5.419592e+001
8.860378e+002,5.463647e+001
8.870021e+002,5.218610e+001
8.879663e+002,5.007715e+001
8.889305e+002,4.999713e+001
8.898948e+002,5.148419e+001
8.908590e+002,5.293982e+001
8.918232e+002,5.448181e+001
8.927875e+002,5.653143e+001
8.937517e+002,5.949097e+001
8.947159e+002,6.272803e+001
8.956802e+002,6.581946e+001
8.966444e+002,6.820941e+001
8.976086e+002,6.893927e+001
8.985729e+002,6.672522e+001
8.995371e+002,6.352808e+001
9.005013e+002,6.220679e+001
9.014656e+002,6.277637e+001
9.024298e+002,6.385828e+001
9.033940e+002,6.413635e+001
9.043583e+002,6.338776e+001
9.053225e+002,6.283746e+001
9.062867e+002,6.135669e+001
9.072510e+002,6.103290e+001
9.082152e+002,6.403754e+001
9.091794e+002,6.787201e+001
9.101437e+002,6.974811e+001
9.111079e+002,6.915790e+001
9.120721e+002,6.841077e+001
9.130364e+002,6.823743e+001
9.140006e+002,6.798499e+001
9.149648e+002,6.779205e+001
9.159291e+002,6.784662e+001
9.168933e+002,6.794824e+001
9.178575e+002,6.775519e+001
9.188218e+002,6.739240e+001
9.197860e+002,6.847198e+001
9.207502e+002,7.088879e+001
9.217145e+002,7.135907e+001
9.226787e+002,6.859949e+001
9.236429e+002,6.538959e+001
9.246072e+002,6.553125e+001
9.255714e+002,6.963385e+001
9.265356e+002,7.190259e+001
9.274999e+002,6.957922e+001
9.284641e+002,6.683997e+001
9.294283e+002,6.556976e+001
9.303926e+002,6.517261e+001
9.313568e+002,6.384094e+001
9.323210e+002,6.050006e+001
9.332853e+002,5.699951e+001
9.342495e+002,5.723560e+001
9.352137e+002,5.906104e+001
9.361780e+002,5.951221e+001
9.371422e+002,5.831665e+001
9.381064e+002,5.717285e+001
9.390707e+002,5.800677e+001
9.400349e+002,6.076361e+001
9.409991e+002,6.237988e+001
9.419634e+002,6.206335e+001
9.429276e+002,6.155042e+001
9.438918e+002,6.122412e+001
9.448561e+002,6.119824e+001
9.458203e+002,6.140167e+001
9.467845e+002,6.176062e+001
9.477488e+002,6.346936e+001
9.487130e+002,6.973676e+001
9.496772e+002,7.585974e+001
9.506415e+002,7.749567e+001
9.516057e+002,7.488470e+001
9.525699e+002,7.103357e+001
9.535342e+002,6.878058e+001
9.544984e+002,6.786926e+001
9.554626e+002,6.811212e+001
9.564269e+002,7.052563e+001
9.573911e+002,7.255566e+001
9.583553e+002,7.295001e+001
9.593196e+002,7.250885e+001
9.602838e+002,7.272046e+001
9.612480e+002,7.380231e+001
9.622123e+002,7.409210e+001
9.631765e+002,7.279944e+001
9.641407e+002,7.129846e+001
9.651050e+002,6.945776e+001
9.660692e+002,6.767938e+001
9.670334e+002,6.698206e+001
9.679977e+002,6.828925e+001
9.689619e+002,7.110559e+001
9.699261e+002,7.398468e+001
9.708904e+002,7.635712e+001
9.718546e+002,7.708588e+001
9.728188e+002,7.535046e+001
9.737831e+002,7.334631e+001
9.747473e+002,7.489191e+001
9.757115e+002,8.144934e+001
9.766758e+002,8.443365e+001
9.776400e+002,8.041919e+001
9.786042e+002,7.780688e+001
9.795685e+002,7.929852e+001
9.805327e+002,8.233350e+001
9.814969e+002,8.364404e+001
9.824612e+002,8.244952e+001
9.834254e+002,8.097003e+001
9.843896e+002,8.108832e+001
9.853539e+002,8.137842e+001
9.863181e+002,7.988800e+001
9.872823e+002,7.669818e+001
9.882466e+002,7.391473e+001
9.892108e+002,7.380066e+001
9.901750e+002,7.674316e+001
9.911393e+002,8.060382e+001
9.921035e+002,8.483478e+001
9.930677e+002,8.803912e+001
9.940320e+002,8.972546e+001
9.949962e+002,9.168512e+001
9.959604e+002,9.572363e+001
9.969247e+002,1.019824e+002
9.978889e+002,1.085196e+002
9.988531e+002,1.136478e+002
9.998174e+002,1.182507e+002
1.000782e+003,1.244939e+002
1.001746e+003,1.309046e+002
1.002710e+003,1.348608e+002
1.003674e+003,1.352931e+002
1.004639e+003,1.337123e+002
1.005603e+003,1.328120e+002
1.006567e+003,1.324724e+002
1.007531e+003,1.309659e+002
1.008495e+003,1.270550e+002
1.009460e+003,1.245800e+002
1.010424e+003,1.271707e+002
1.011388e+003,1.334780e+002
1.012352e+003,1.376450e+002
1.013317e+003,1.388488e+002
1.014281e+003,1.371685e+002
1.015245e+003,1.317877e+002
1.016209e+003,1.246379e+002
1.017174e+003,1.162078e+002
1.018138e+003,1.075112e+002
1.019102e+003,1.003667e+002
1.020066e+003,9.650122e+001
1.021031e+003,9.514862e+001
1.021995e+003,9.347644e+001
1.022959e+003,9.105560e+001
1.023923e+003,8.794885e+001
1.024887e+003,8.409540e+001
1.025852e+003,7.947870e+001
1.026816e+003,7.381055e+001
1.027780e+003,6.678229e+001
1.028744e+003,6.214722e+001
1.029709e+003,6.063049e+001
1.030673e+003,6.075140e+001
1.031637e+003,6.325610e+001
1.032601e+003,6.638086e+001
1.033566e+003,6.830048e+001
1.034530e+003,6.848883e+001
1.035494e+003,6.704846e+001
1.036458e+003,6.224005e+001
1.037422e+003,5.661786e+001
1.038387e+003,5.509064e+001
1.039351e+003,5.733917e+001
1.040315e+003,6.000366e+001
1.041279e+003,6.080524e+001
1.042244e+003,6.032007e+001
1.043208e+003,6.035736e+001
1.044172e+003,6.071887e+001
1.045136e+003,6.097241e+001
1.046101e+003,6.160663e+001
1.047065e+003,6.214063e+001
1.048029e+003,6.166998e+001
1.048993e+003,6.052747e+001
1.049958e+003,6.054871e+001
1.050922e+003,6.338177e+001
1.051886e+003,6.645111e+001
1.052850e+003,6.713013e+001
1.053814e+003,6.628448e+001
1.054779e+003,6.457843e+001
1.055743e+003,6.225610e+001
1.056707e+003,5.970520e+001
1.057671e+003,5.735114e+001
1.058636e+003,5.508984e+001
1.059600e+003,5.432770e+001
1.060564e+003,5.690283e+001
1.061528e+003,5.948743e+001
1.062493e+003,6.128979e+001
1.063457e+003,6.217926e+001
1.064421e+003,6.235779e+001
1.065385e+003,6.205115e+001
1.066349e+003,6.109290e+001
1.067314e+003,5.855499e+001
1.068278e+003,5.641846e+001
1.069242e+003,5.632996e+001
1.070206e+003,5.770355e+001
1.071171e+003,5.934692e+001
1.072135e+003,6.054358e+001
1.073099e+003,6.153210e+001
1.074063e+003,6.317377e+001
1.075028e+003,6.581628e+001
1.075992e+003,6.686841e+001
1.076956e+003,6.554474e+001
1.077920e+003,6.349365e+001
1.078885e+003,6.091028e+001
1.079849e+003,5.881006e+001
1.080813e+003,5.918445e+001
1.081777e+003,6.291052e+001
1.082741e+003,6.615320e+001
1.083706e+003,6.513226e+001
1.084670e+003,6.364600e+001
1.085634e+003,6.465417e+001
1.086598e+003,6.669379e+001
1.087563e+003,6.653455e+001
1.088527e+003,6.273877e+001
1.089491e+003,5.745471e+001
1.090455e+003,5.391870e+001
1.091420e+003,5.195227e+001
1.092384e+003,5.285834e+001
1.093348e+003,5.814081e+001
1.094312e+003,6.276306e+001
1.095276e+003,6.380774e+001
1.096241e+003,6.255688e+001
1.097205e+003,6.195874e+001
1.098169e+003,6.214026e+001
1.099133e+003,6.240668e+001
1.100098e+003,6.341040e+001
1.101062e+003,6.404724e+001
1.102026e+003,6.253015e+001
1.102990e+003,6.020789e+001
1.103955e+003,6.032745e+001
1.104919e+003,6.471191e+001
1.105883e+003,7.086975e+001
1.106847e+003,7.368854e+001
1.107812e+003,7.296948e+001
1.108776e+003,7.275781e+001
1.109740e+003,7.334521e+001
1.110704e+003,7.420880e+001
1.111668e+003,7.536780e+001
1.112633e+003,7.710822e+001
1.113597e+003,7.942236e+001
1.114561e+003,8.252332e+001
1.115525e+003,8.461346e+001
1.116490e+003,8.439514e+001
1.117454e+003,8.371832e+001
1.118418e+003,8.375574e+001
1.119382e+003,8.496906e+001
1.120347e+003,8.758838e+001
1.121311e+003,9.134039e+001
1.122275e+003,9.444635e+001
1.123239e+003,9.420911e+001
1.124203e+003,9.157794e+001
1.125168e+003,9.068115e+001
1.126132e+003,9.249274e+001
1.127096e+003,9.470514e+001
1.128060e+003,9.425214e+001
1.129025e+003,9.209265e+001
1.129989e+003,9.431360e+001
1.130953e+003,1.040766e+002
1.131917e+003,1.113207e+002
1.132882e+003,1.118811e+002
1.133846e+003,1.113826e+002
1.134810e+003,1.129026e+002
1.135774e+003,1.164034e+002
1.136739e+003,1.203394e+002
1.137703e+003,1.238139e+002
1.138667e+003,1.278463e+002
1.139631e+003,1.346797e+002
1.140595e+003,1.439495e+002
1.141560e+003,1.524417e+002
1.142524e+003,1.595073e+002
1.143488e+003,1.691342e+002
1.144452e+003,1.850978e+002
1.145417e+003,2.056314e+002
1.146381e+003,2.237247e+002
1.147345e+003,2.367795e+002
1.148309e+003,2.535728e+002
1.149274e+003,2.805019e+002
1.150238e+003,3.076020e+002
1.151202e+003,3.305090e+002
1.152166e+003,3.500552e+002
1.153130e+003,3.690487e+002
1.154095e+003,3.881470e+002
1.155059e+003,4.038062e+002
1.156023e+003,4.119661e+002
1.156987e+003,4.125991e+002
1.157952e+003,4.075985e+002
1.158916e+003,3.972589e+002
1.159880e+003,3.855711e+002
1.160844e+003,3.745333e+002
1.161809e+003,3.618176e+002
1.162773e+003,3.427817e+002
1.163737e+003,3.157334e+002
1.164701e+003,2.903273e+002
1.165666e+003,2.702751e+002
1.166630e+003,2.517330e+002
1.167594e+003,2.315900e+002
1.168558e+003,2.127334e+002
1.169522e+003,1.987554e+002
1.170487e+003,1.909935e+002
1.171451e+003,1.895418e+002
1.172415e+003,1.953823e+002
1.173379e+003,2.062521e+002
1.174344e+003,2.112410e+002
1.175308e+003,2.108438e+002
1.176272e+003,2.069738e+002
1.177236e+003,1.979552e+002
1.178201e+003,1.878525e+002
1.179165e+003,1.821420e+002
1.180129e+003,1.804918e+002
1.181093e+003,1.765242e+002
1.182057e+003,1.659807e+002
1.183022e+003,1.581108e+002
1.183986e+003,1.582982e+002
1.184950e+003,1.611066e+002
1.185914e+003,1.613267e+002
1.186879e+003,1.586955e+002
1.187843e+003,1.563196e+002
1.188807e+003,1.565632e+002
1.189771e+003,1.586686e+002
1.190736e+003,1.614830e+002
1.191700e+003,1.652255e+002
1.192664e+003,1.662148e+002
1.193628e+003,1.624464e+002
1.194593e+003,1.587227e+002
1.195557e+003,1.592404e+002
1.196521e+003,1.624347e+002
1.197485e+003,1.630724e+002
1.198449e+003,1.602687e+002
1.199414e+003,1.555229e+002
1.200378e+003,1.479482e+002
1.201342e+003,1.401861e+002
1.202306e+003,1.329507e+002
1.203271e+003,1.267327e+002
1.204235e+003,1.227730e+002
1.205199e+003,1.215023e+002
1.206163e+003,1.209279e+002
1.207128e+003,1.174741e+002
1.208092e+003,1.109938e+002
1.209056e+003,1.057310e+002
1.210020e+003,1.016055e+002
1.210984e+003,9.858722e+001
1.211949e+003,9.804523e+001
1.212913e+003,9.753131e+001
1.213877e+003,9.352917e+001
1.214841e+003,8.608112e+001
1.215806e+003,7.944464e+001
1.216770e+003,7.542609e+001
1.217734e+003,7.212622e+001
1.218698e+003,6.729156e+001
1.219663e+003,6.235065e+001
1.220627e+003,5.969714e+001
1.221591e+003,5.932104e+001
1.222555e+003,5.859021e+001
1.223520e+003,5.507147e+001
1.224484e+003,5.000964e+001
1.225448e+003,4.844934e+001
1.226412e+003,5.250928e+001
1.227376e+003,5.526440e+001
1.228341e+003,5.573975e+001
1.229305e+003,5.571747e+001
1.230269e+003,5.664801e+001
1.231233e+003,5.757147e+001
1.232198e+003,5.615344e+001
1.233162e+003,5.186035e+001
1.234126e+003,4.829486e+001
1.235090e+003,4.799976e+001
1.236055e+003,4.914429e+001
1.237019e+003,4.986914e+001
1.237983e+003,5.022498e+001
1.238947e+003,5.126172e+001
1.239911e+003,5.362262e+001
1.240876e+003,5.585571e+001
1.241840e+003,5.530560e+001
1.242804e+003,5.176709e+001
1.243768e+003,4.979041e+001
1.244733e+003,4.954858e+001
1.245697e+003,5.096741e+001
1.246661e+003,5.550378e+001
1.247625e+003,5.950482e+001
1.248590e+003,5.999841e+001
1.249554e+003,5.813562e+001
1.250518e+003,5.728027e+001
1.251482e+003,5.873004e+001
1.252447e+003,6.070258e+001
1.253411e+003,6.147357e+001
1.254375e+003,6.180151e+001
1.255339e+003,6.301959e+001
1.256303e+003,6.534052e+001
1.257268e+003,6.751227e+001
1.258232e+003,6.819836e+001
1.259196e+003,6.802271e+001
1.260160e+003,6.889404e+001
1.261125e+003,7.121838e+001
1.262089e+003,7.480829e+001
1.263053e+003,8.138153e+001
1.264017e+003,8.602789e+001
1.264982e+003,8.669861e+001
1.265946e+003,8.600403e+001
1.266910e+003,8.659387e+001
1.267874e+003,8.837341e+001
1.268839e+003,8.963049e+001
1.269803e+003,8.928741e+001
1.270767e+003,8.707471e+001
1.271731e+003,8.163135e+001
1.272695e+003,7.346979e+001
1.273660e+003,6.932355e+001
1.274624e+003,6.987408e+001
1.275588e+003,7.099573e+001
1.276552e+003,7.221802e+001
1.277517e+003,7.267963e+001
1.278481e+003,6.894318e+001
1.279445e+003,6.013989e+001
1.280409e+003,5.490851e+001
1.281374e+003,5.921753e+001
1.282338e+003,6.361810e+001
1.283302e+003,6.212360e+001
1.284266e+003,5.857129e+001
1.285230e+003,5.795508e+001
1.286195e+003,6.037781e+001
1.287159e+003,6.189172e+001
1.288123e+003,5.943787e+001
1.289087e+003,5.472614e+001
1.290052e+003,5.214777e+001
1.291016e+003,5.235010e+001
1.291980e+003,5.095013e+001
1.292944e+003,4.531018e+001
1.293909e+003,4.077148e+001
1.294873e+003,4.031342e+001
1.295837e+003,4.233368e+001
1.296801e+003,4.509912e+001
1.297766e+003,4.810803e+001
1.298730e+003,4.950323e+001
1.299694e+003,4.721191e+001
1.300658e+003,4.424768e+001
1.301622e+003,4.462012e+001
1.302587e+003,4.674713e+001
1.303551e+003,4.790552e+001
1.304515e+003,4.782404e+001
1.305479e+003,4.797461e+001
1.306444e+003,4.940546e+001
1.307408e+003,5.141925e+001
1.308372e+003,5.214667e+001
1.309336e+003,5.079486e+001
1.310301e+003,5.050110e+001
1.311265e+003,5.353973e+001
1.312229e+003,5.553973e+001
1.313193e+003,5.476019e+001
1.314157e+003,5.240515e+001
1.315122e+003,4.917340e+001
1.316086e+003,4.556403e+001
1.317050e+003,4.256207e+001
1.318014e+003,4.102618e+001
1.318979e+003,4.063190e+001
1.319943e+003,4.038019e+001
1.320907e+003,4.064203e+001
1.321871e+003,4.262177e+001
1.322836e+003,4.629333e+001
1.323800e+003,4.976624e+001
1.324764e+003,5.255005e+001
1.325728e+003,5.444397e+001
1.326693e+003,5.461829e+001
1.327657e+003,5.277521e+001
1.328621e+003,5.065277e+001
1.329585e+003,4.933130e+001
1.330549e+003,4.939581e+001
1.331514e+003,5.026294e+001
1.332478e+003,5.112408e+001
1.333442e+003,5.194189e+001
1.334406e+003,5.263745e+001
1.335371e+003,5.255981e+001
1.336335e+003,5.134424e+001
1.337299e+003,4.980164e+001
1.338263e+003,4.935388e+001
1.339228e+003,5.017920e+001
1.340192e+003,5.061157e+001
1.341156e+003,5.022583e+001
1.342120e+003,5.005792e+001
1.343084e+003,5.021338e+001
1.344049e+003,4.984924e+001
1.345013e+003,4.815790e+001
1.345977e+003,4.599457e+001
1.346941e+003,4.526898e+001
1.347906e+003,4.665747e+001
1.348870e+003,4.906458e+001
1.349834e+003,5.239130e+001
1.350798e+003,5.490454e+001
1.351763e+003,5.352881e+001
1.352727e+003,4.901874e+001
1.353691e+003,4.507526e+001
1.354655e+003,4.305682e+001
1.355620e+003,4.213000e+001
1.356584e+003,4.118079e+001
1.357548e+003,4.051819e+001
1.358512e+003,4.194135e+001
1.359476e+003,4.631195e+001
1.360441e+003,4.904083e+001
1.361405e+003,4.807935e+001
1.362369e+003,4.671765e+001
1.363333e+003,4.686444e+001
1.364298e+003,4.751929e+001
1.365262e+003,4.672003e+001
1.366226e+003,4.434863e+001
1.367190e+003,4.245447e+001
1.368155e+003,4.287451e+001
1.369119e+003,4.495575e+001
1.370083e+003,4.680957e+001
1.371047e+003,4.879700e+001
1.372011e+003,4.987085e+001
1.372976e+003,4.794128e+001
1.373940e+003,4.686932e+001
1.374904e+003,4.985144e+001
1.375868e+003,5.372394e+001
1.376833e+003,5.379639e+001
1.377797e+003,5.007458e+001
1.378761e+003,4.667346e+001
1.379725e+003,4.543909e+001
1.380690e+003,4.506384e+001
1.381654e+003,4.382446e+001
1.382618e+003,4.304395e+001
1.383582e+003,4.524249e+001
1.384547e+003,5.003638e+001
1.385511e+003,5.396704e+001
1.386475e+003,5.507324e+001
1.387439e+003,5.449017e+001
1.388403e+003,5.397943e+001
1.389368e+003,5.349066e+001
1.390332e+003,5.234717e+001
1.391296e+003,5.015302e+001
1.392260e+003,4.872888e+001
1.393225e+003,4.931055e+001
1.394189e+003,4.958185e+001
1.395153e+003,4.685883e+001
1.396117e+003,4.357904e+001
1.397082e+003,4.458496e+001
1.398046e+003,5.036377e+001
1.399010e+003,5.576996e+001
1.399974e+003,5.577637e+001
1.400938e+003,5.136963e+001
1.401903e+003,4.693970e+001
1.402867e+003,4.325098e+001
1.403831e+003,4.253198e+001
1.404795e+003,4.559479e+001
1.405760e+003,4.917639e+001
1.406724e+003,5.184644e+001
1.407688e+003,5.311755e+001
1.408652e+003,5.341827e+001
1.409617e+003,5.319684e+001
1.410581e+003,5.195111e+001
1.411545e+003,4.922357e+001
1.412509e+003,4.664856e+001
1.413474e+003,4.493768e+001
1.414438e+003,4.426880e+001
1.415402e+003,4.678467e+001
1.416366e+003,5.214636e+001
1.417330e+003,5.600287e+001
1.418295e+003,5.659235e+001
1.419259e+003,5.545581e+001
1.420223e+003,5.361401e+001
1.421187e+003,5.098096e+001
1.422152e+003,4.851892e+001
1.423116e+003,4.594165e+001
1.424080e+003,4.636920e+001
1.425044e+003,5.411908e+001
1.426009e+003,6.036859e+001
1.426973e+003,6.069379e+001
1.427937e+003,5.788458e+001
1.428901e+003,5.466119e+001
1.429865e+003,5.230444e+001
1.430830e+003,5.177490e+001
1.431794e+003,5.344220e+001
1.432758e+003,5.604321e+001
1.433722e+003,5.760510e+001
1.434687e+003,5.863251e+001
1.435651e+003,6.139630e+001
1.436615e+003,6.622357e+001
1.437579e+003,6.905487e+001
1.438544e+003,6.899658e+001
1.439508e+003,6.781567e+001
1.440472e+003,6.675421e+001
1.441436e+003,6.602637e+001
1.442401e+003,6.541968e+001
1.443365e+003,6.469562e+001
1.444329e+003,6.359235e+001
1.445293e+003,6.194061e+001
1.446257e+003,6.036560e+001
1.447222e+003,6.009198e+001
1.448186e+003,6.071289e+001
1.449150e+003,6.017975e+001
1.450114e+003,5.777039e+001
1.451079e+003,5.577832e+001
1.452043e+003,5.622528e+001
1.453007e+003,5.778058e+001
1.453971e+003,5.823016e+001
1.454936e+003,5.750848e+001
1.455900e+003,5.673389e+001
1.456864e+003,5.611053e+001
1.457828e+003,5.647363e+001
1.458792e+003,5.910950e+001
1.459757e+003,6.159265e+001
1.460721e+003,6.173279e+001
1.461685e+003,6.026733e+001
1.462649e+003,5.898907e+001
1.463614e+003,5.854474e+001
1.464578e+003,5.821973e+001
1.465542e+003,5.717847e+001
1.466506e+003,5.553290e+001
1.467471e+003,5.406329e+001
1.468435e+003,5.316620e+001
1.469399e+003,5.320190e+001
1.470363e+003,5.339655e+001
1.471328e+003,5.459503e+001
1.472292e+003,5.773273e+001
1.473256e+003,6.025372e+001
1.474220e+003,6.056146e+001
1.475184e+003,5.983820e+001
1.476149e+003,6.010284e+001
1.477113e+003,6.160864e+001
1.478077e+003,6.277722e+001
1.479041e+003,6.243848e+001
1.480006e+003,6.142163e+001
1.480970e+003,6.150281e+001
1.481934e+003,6.253235e+001
1.482898e+003,6.314117e+001
1.483863e+003,6.229388e+001
1.484827e+003,6.229437e+001
1.485791e+003,6.433417e+001
1.486755e+003,6.776172e+001
1.487719e+003,7.269037e+001
1.488684e+003,7.783942e+001
1.489648e+003,8.021881e+001
1.490612e+003,7.923859e+001
1.491576e+003,7.892804e+001
1.492541e+003,8.241736e+001
1.493505e+003,8.832971e+001
1.494469e+003,9.446240e+001
1.495433e+003,1.001624e+002
1.496398e+003,1.042199e+002
1.497362e+003,1.067562e+002
1.498326e+003,1.094280e+002
1.499290e+003,1.122560e+002
1.500255e+003,1.161091e+002
1.501219e+003,1.224810e+002
1.502183e+003,1.308422e+002
1.503147e+003,1.385077e+002
1.504111e+003,1.444459e+002
1.505076e+003,1.518976e+002
1.506040e+003,1.622148e+002
1.507004e+003,1.758730e+002
1.507968e+003,1.939171e+002
1.508933e+003,2.150156e+002
1.509897e+003,2.365967e+002
1.510861e+003,2.588625e+002
1.511825e+003,2.829736e+002
1.512790e+003,3.088977e+002
1.513754e+003,3.370233e+002
1.514718e+003,3.701408e+002
1.515682e+003,4.077402e+002
1.516646e+003,4.413486e+002
1.517611e+003,4.703951e+002
1.518575e+003,4.966828e+002
1.519539e+003,5.230229e+002
1.520503e+003,5.453700e+002
1.521468e+003,5.614652e+002
1.522432e+003,5.717281e+002
1.523396e+003,5.777045e+002
1.524360e+003,5.789355e+002
1.525325e+003,5.722247e+002
1.526289e+003,5.556088e+002
1.527253e+003,5.339421e+002
1.528217e+003,5.162395e+002
1.529182e+003,5.030471e+002
1.530146e+003,4.809748e+002
1.531110e+003,4.456920e+002
1.532074e+003,4.083463e+002
1.533039e+003,3.678318e+002
1.534003e+003,3.259360e+002
1.534967e+003,2.816862e+002
1.535931e+003,2.396215e+002
1.536896e+003,2.036858e+002
1.537860e+003,1.747396e+002
1.538824e+003,1.526647e+002
1.539788e+003,1.368599e+002
1.540752e+003,1.243724e+002
1.541717e+003,1.116110e+002
1.542681e+003,9.936444e+001
1.543645e+003,9.092938e+001
1.544609e+003,8.846716e+001
1.545573e+003,8.590411e+001
1.546538e+003,8.248114e+001
1.547502e+003,7.855005e+001
1.548466e+003,7.432532e+001
1.549430e+003,7.082800e+001
1.550395e+003,6.886432e+001
1.551359e+003,6.789227e+001
1.552323e+003,6.699603e+001
1.553287e+003,6.586035e+001
1.554252e+003,6.398206e+001
1.555216e+003,6.060083e+001
1.556180e+003,5.681244e+001
1.557144e+003,5.554352e+001
1.558109e+003,5.708618e+001
1.559073e+003,5.772906e+001
1.560037e+003,5.675592e+001
1.561001e+003,5.463031e+001
1.561966e+003,5.156256e+001
1.562930e+003,4.868262e+001
1.563894e+003,4.605109e+001
1.564858e+003,4.404041e+001
1.565823e+003,4.414313e+001
1.566787e+003,4.644690e+001
1.567751e+003,4.864459e+001
1.568715e+003,4.958252e+001
1.569679e+003,5.015002e+001
1.570644e+003,5.171393e+001
1.571608e+003,5.310309e+001
1.572572e+003,5.136975e+001
1.573536e+003,4.664856e+001
1.574500e+003,4.364551e+001
1.575465e+003,4.389648e+001
1.576429e+003,4.591071e+001
1.577393e+003,4.976135e+001
1.578357e+003,5.369250e+001
1.579322e+003,5.371454e+001
1.580286e+003,5.014941e+001
1.581250e+003,4.890277e+001
1.582214e+003,5.237860e+001
1.583179e+003,5.612646e+001
1.584143e+003,5.679987e+001
1.585107e+003,5.550256e+001
1.586071e+003,5.377252e+001
1.587036e+003,5.248309e+001
1.588000e+003,5.296094e+001
1.588964e+003,5.524219e+001
1.589928e+003,5.744403e+001
1.590893e+003,5.871362e+001
1.591857e+003,5.900922e+001
1.592821e+003,5.801453e+001
1.593785e+003,5.600562e+001
1.594750e+003,5.379669e+001
1.595714e+003,5.102423e+001
1.596678e+003,4.959882e+001
1.597642e+003,5.073553e+001
1.598606e+003,5.294757e+001
1.599571e+003,5.521411e+001
1.600535e+003,5.794592e+001
1.601499e+003,6.252771e+001
1.602463e+003,6.809747e+001
1.603427e+003,7.066504e+001
1.604392e+003,6.842639e+001
1.605356e+003,6.474365e+001
1.606320e+003,6.318317e+001
1.607284e+003,6.281238e+001
1.608249e+003,6.046167e+001
1.609213e+003,5.603802e+001
1.610177e+003,5.300299e+001
1.611141e+003,5.241223e+001
1.612106e+003,5.205939e+001
1.613070e+003,5.083826e+001
1.614034e+003,4.941022e+001
1.614998e+003,4.826923e+001
1.615963e+003,4.729260e+001
1.616927e+003,4.590411e+001
1.617891e+003,4.407593e+001
1.618855e+003,4.282233e+001
1.619820e+003,4.267950e+001
1.620784e+003,4.229083e+001
1.621748e+003,3.983179e+001
1.622712e+003,3.655383e+001
1.623677e+003,3.657056e+001
1.624641e+003,4.038483e+001
1.625605e+003,4.538110e+001
1.626569e+003,5.282678e+001
1.627533e+003,5.584753e+001
1.628498e+003,4.747595e+001
1.629462e+003,3.781720e+001
1.630426e+003,3.587286e+001
1.631390e+003,3.917444e+001
1.632354e+003,4.131024e+001
1.633319e+003,4.062122e+001
1.634283e+003,3.968262e+001
1.635247e+003,4.062073e+001
1.636211e+003,4.141669e+001
1.637176e+003,3.738123e+001
1.638140e+003,2.930908e+001
1.639104e+003,2.678461e+001
1.640068e+003,3.142657e+001
1.641033e+003,3.554938e+001
1.641997e+003,3.733429e+001
1.642961e+003,3.862817e+001
1.643925e+003,4.076337e+001
1.644890e+003,4.251971e+001
1.645854e+003,4.164020e+001
1.646818e+003,3.935687e+001
1.647782e+003,3.943347e+001
1.648747e+003,4.282935e+001
1.649711e+003,4.636450e+001
1.650675e+003,4.772479e+001
1.651639e+003,4.782458e+001
1.652604e+003,4.803168e+001
1.653568e+003,4.805804e+001
1.654532e+003,4.658850e+001
1.655496e+003,4.302313e+001
1.656460e+003,3.989563e+001
1.657425e+003,3.783282e+001
1.658389e+003,3.691534e+001
1.659353e+003,3.832263e+001
1.660317e+003,3.986450e+001
1.661281e+003,3.859161e+001
1.662246e+003,3.523077e+001
1.663210e+003,3.296472e+001
1.664174e+003,3.295184e+001
1.665138e+003,3.311725e+001
1.666103e+003,3.121692e+001
1.667067e+003,2.853723e+001
1.668031e+003,2.848230e+001
1.668995e+003,3.088477e+001
1.669960e+003,3.146625e+001
1.670924e+003,2.959851e+001
1.671888e+003,2.784106e+001
1.672852e+003,2.667017e+001
1.673817e+003,2.572418e+001
1.674781e+003,2.341510e+001
1.675745e+003,2.206714e+001
1.676709e+003,2.643469e+001
1.677674e+003,3.394537e+001
1.678638e+003,3.548486e+001
1.679602e+003,2.830585e+001
1.680566e+003,2.135980e+001
1.681531e+003,2.263965e+001
1.682495e+003,2.737854e+001
1.683459e+003,2.623975e+001
1.684423e+003,2.019135e+001
1.685387e+003,1.740186e+001
1.686352e+003,1.912128e+001
1.687316e+003,2.096930e+001
1.688280e+003,2.181604e+001
1.689244e+003,2.194611e+001
1.690208e+003,2.065894e+001
1.691173e+003,1.913550e+001
1.692137e+003,1.881445e+001
1.693101e+003,1.988507e+001
1.694065e+003,2.215002e+001
1.695030e+003,2.525543e+001
1.695994e+003,2.685370e+001
1.696958e+003,2.514343e+001
1.697922e+003,2.211084e+001
1.698887e+003,1.910425e+001
1.699851e+003,1.707935e+001
1.700815e+003,1.997870e+001
1.701779e+003,2.769525e+001
1.702744e+003,3.142450e+001
1.703708e+003,2.810309e+001
1.704672e+003,2.363928e+001
1.705636e+003,2.150195e+001
1.706601e+003,2.010059e+001
1.707565e+003,1.757251e+001
1.708529e+003,1.472223e+001
1.709493e+003,1.318097e+001
1.710458e+003,1.314557e+001
1.711422e+003,1.359723e+001
1.712386e+003,1.461145e+001
1.713350e+003,1.608118e+001
1.714314e+003,1.804236e+001
1.715279e+003,1.953815e+001
1.716243e+003,1.907117e+001
1.717207e+003,1.700018e+001
1.718171e+003,1.533594e+001
1.719135e+003,1.473370e+001
1.720100e+003,1.400323e+001
1.721064e+003,1.221082e+001
1.722028e+003,9.585999e+000
1.722992e+003,6.227112e+000
1.723957e+003,3.142151e+000
1.724921e+003,3.754639e+000
1.725885e+003,8.009155e+000
1.726849e+003,1.104675e+001
1.727814e+003,1.331488e+001
1.728778e+003,1.427747e+001
1.729742e+003,1.176520e+001
1.730706e+003,9.266357e+000
1.731671e+003,1.126044e+001
1.732635e+003,1.472009e+001
1.733599e+003,1.305145e+001
1.734563e+003,6.480225e+000
1.735528e+003,1.778931e+000
1.736492e+003,2.302917e+000
1.737456e+003,4.685730e+000
1.738420e+003,5.019592e+000
1.739385e+003,3.576843e+000
1.740349e+003,2.599976e+000
1.741313e+003,2.345215e+000
1.742277e+003,2.962524e+000
1.743241e+003,5.546753e+000
1.744206e+003,7.944092e+000
1.745170e+003,1.062317e+001
1.746134e+003,1.172455e+001
1.747098e+003,8.345337e+000
1.748063e+003,4.166260e+000
1.749027e+003,4.151001e+000
1.749991e+003,7.234314e+000
1.750955e+003,9.032104e+000
1.751919e+003,7.947876e+000
1.752884e+003,5.528931e+000
1.753848e+003,3.034729e+000
1.754812e+003,5.093994e-001
1.755776e+003,-1.785095e+000
1.756741e+003,-3.422363e+000
1.757705e+003,-2.759155e+000
1.758669e+003,7.101440e-001
1.759633e+003,3.970764e+000
1.760598e+003,7.421509e+000
1.761562e+003,8.862061e+000
1.762526e+003,7.090027e+000
1.763490e+003,4.562683e+000
1.764455e+003,2.251526e+000
1.765419e+003,8.467407e-001
1.766383e+003,1.233276e+000
1.767347e+003,2.955750e+000
1.768312e+003,4.417847e+000
1.769276e+003,4.746582e+000
1.770240e+003,4.642212e+000
1.771204e+003,5.606018e+000
1.772168e+003,7.225525e+000
1.773133e+003,7.411316e+000
1.774097e+003,6.312622e+000
1.775061e+003,5.745361e+000
1.776025e+003,5.581116e+000
1.776990e+003,4.549011e+000
1.777954e+003,1.876587e+000
1.778918e+003,5.782471e-001
1.779882e+003,4.026428e+000
1.780846e+003,8.273193e+000
1.781811e+003,7.312805e+000
1.782775e+003,3.219238e+000
1.783739e+003,3.249023e+000
1.784703e+003,9.049927e+000
1.785668e+003,1.320868e+001
1.786632e+003,1.179376e+001
1.787596e+003,7.911743e+000
1.788560e+003,2.733154e+000
1.789525e+003,-1.598083e+000
1.790489e+003,-1.993958e+000
1.791453e+003,2.971802e-001
1.792417e+003,1.942322e+000
1.793382e+003,2.144653e+000
1.794346e+003,7.717285e-001
1.795310e+003,-2.487244e+000
1.796274e+003,-5.190857e+000
1.797239e+003,-4.059875e+000
1.798203e+003,1.046143e-001
1.799167e+003,3.127441e+000
1.800131e+003,4.002136e+000
1.801095e+003,4.243286e+000
1.802060e+003,4.697327e+000
1.803024e+003,4.960693e+000
1.803988e+003,4.087952e+000
1.804952e+003,3.499573e+000
1.805917e+003,4.232605e+000
1.806881e+003,5.233643e+000
1.807845e+003,5.844177e+000
1.808809e+003,5.989624e+000
1.809773e+003,5.572876e+000
1.810738e+003,4.628296e+000
1.811702e+003,3.269836e+000
1.812666e+003,1.555359e+000
1.813630e+003,2.015991e-001
1.814595e+003,3.710327e-001
1.815559e+003,1.341248e+000
1.816523e+003,2.528076e-001
1.817487e+003,-3.149719e+000
1.818452e+003,-4.242432e+000
1.819416e+003,-1.415710e+000
1.820380e+003,8.611450e-001
1.821344e+003,3.493042e-001
1.822309e+003,-4.069824e-001
1.823273e+003,6.531982e-001
1.824237e+003,2.402466e+000
1.825201e+003,3.604431e+000
1.826166e+003,4.128052e+000
1.827130e+003,4.114929e+000
1.828094e+003,3.439880e+000
1.829058e+003,2.072449e+000
1.830022e+003,-3.454590e-002
1.830987e+003,-1.997009e+000
1.831951e+003,-3.436584e+000
1.832915e+003,-4.019165e+000
1.833879e+003,-2.327515e+000
1.834844e+003,4.516602e-001
1.835808e+003,-4.278564e-002
1.836772e+003,-3.873352e+000
1.837736e+003,-5.148193e+000
1.838700e+003,-1.395874e+000
1.839665e+003,2.227478e+000
1.840629e+003,1.048950e+000
1.841593e+003,-2.654724e+000
1.842557e+003,-4.463074e+000
1.843522e+003,-4.421570e+000
1.844486e+003,-4.336731e+000
1.845450e+003,-3.980286e+000
1.846414e+003,-2.886902e+000
1.847379e+003,-3.535767e-001
1.848343e+003,4.722290e-001
1.849307e+003,-2.602539e+000
1.850271e+003,-5.856384e+000
1.851236e+003,-5.805359e+000
1.852200e+003,-4.335754e+000
1.853164e+003,-4.994873e+000
1.854128e+003,-7.918701e+000
1.855093e+003,-1.106299e+001
1.856057e+003,-1.301367e+001
1.857021e+003,-1.228418e+001
1.857985e+003,-7.363464e+000
1.858949e+003,-1.855286e+000
1.859914e+003,-3.031616e+000
1.860878e+003,-9.113953e+000
1.861842e+003,-1.023901e+001
1.862806e+003,-6.381287e+000
1.863771e+003,-2.934387e+000
1.864735e+003,-6.327515e-001
1.865699e+003,-5.183716e-001
1.866663e+003,-3.984436e+000
1.867627e+003,-7.164429e+000
1.868592e+003,-6.659363e+000
1.869556e+003,-4.427368e+000
1.870520e+003,-3.363464e+000
1.871484e+003,-3.354309e+000
1.872449e+003,-3.225281e+000
1.873413e+003,-1.469116e+000
1.874377e+003,3.479004e-002
1.875341e+003,-1.160828e+000
1.876306e+003,-2.437866e+000
1.877270e+003,-2.606812e+000
1.878234e+003,-2.285095e+000
1.879198e+003,-1.616211e+000
1.880163e+003,-8.530884e-001
1.881127e+003,8.270264e-002
1.882091e+003,8.298950e-001
1.883055e+003,-3.258057e-001
1.884020e+003,-3.838379e+000
1.884984e+003,-6.885498e+000
1.885948e+003,-6.846313e+000
1.886912e+003,-5.115356e+000
1.887876e+003,-4.460571e+000
1.888841e+003,-4.690918e+000
1.889805e+003,-3.864014e+000
1.890769e+003,-1.544128e+000
1.891733e+003,-6.462402e-001
1.892698e+003,-2.513000e+000
1.893662e+003,-4.053284e+000
1.894626e+003,-4.074890e+000
1.895590e+003,-3.338806e+000
1.896554e+003,-1.441711e+000
1.897519e+003,6.997070e-001
1.898483e+003,1.652283e+000
1.899447e+003,1.184265e+000
1.900411e+003,-4.848022e-001
1.901376e+003,-3.325012e+000
1.902340e+003,-4.357971e+000
1.903304e+003,-1.018433e+000
1.904268e+003,1.929932e+000
1.905233e+003,1.468628e+000
1.906197e+003,-3.276367e-001
1.907161e+003,-1.873169e+000
1.908125e+003,-2.710754e+000
1.909090e+003,-2.779907e+000
1.910054e+003,-2.200439e+000
1.911018e+003,-2.707520e-001
1.911982e+003,3.145020e+000
1.912947e+003,6.093872e+000
1.913911e+003,7.029480e+000
1.914875e+003,6.661743e+000
1.915839e+003,5.922974e+000
1.916803e+003,4.442810e+000
1.917768e+003,1.648254e+000
1.918732e+003,-2.775940e+000
1.919696e+003,-4.294861e+000
1.920660e+003,-1.602600e+000
1.921625e+003,1.282349e+000
1.922589e+003,3.955505e+000
1.923553e+003,5.327087e+000
1.924517e+003,3.672302e+000
1.925481e+003,1.583801e+000
1.926446e+003,1.414673e+000
1.927410e+003,2.474426e+000
1.928374e+003,3.487061e+000
1.929338e+003,4.009277e+000
1.930303e+003,3.273071e+000
1.931267e+003,1.066101e+000
1.932231e+003,-1.652222e-001
1.933195e+003,7.412720e-001
1.934160e+003,1.954956e+000
1.935124e+003,2.597656e+000
1.936088e+003,2.184204e+000
1.937052e+003,9.350586e-002
1.938017e+003,-2.726929e+000
1.938981e+003,-4.857483e+000
1.939945e+003,-6.086609e+000
1.940909e+003,-6.840881e+000
1.941874e+003,-7.422241e+000
1.942838e+003,-7.719788e+000
1.943802e+003,-7.262451e+000
1.944766e+003,-5.912659e+000
1.945730e+003,-4.108643e+000
1.946695e+003,-2.248840e+000
1.947659e+003,-1.379822e+000
1.948623e+003,-1.763489e+000
1.949587e+003,-1.131470e+000
1.950552e+003,1.562744e+000
1.951516e+003,2.821960e+000
1.952480e+003,8.447266e-001
1.953444e+003,-1.549194e+000
1.954408e+003,-3.007935e+000
1.955373e+003,-3.733948e+000
1.956337e+003,-2.494202e+000
1.957301e+003,6.555176e-002
1.958265e+003,-5.402832e-001
1.959230e+003,-4.961365e+000
1.960194e+003,-7.204163e+000
1.961158e+003,-5.956177e+000
1.962122e+003,-4.679932e+000
1.963087e+003,-4.529907e+000
1.964051e+003,-4.010437e+000
1.965015e+003,-7.634888e-001
1.965979e+003,2.751587e+000
1.966944e+003,2.874329e+000
1.967908e+003,1.053955e+000
1.968872e+003,1.302185e+000
1.969836e+003,3.575073e+000
1.970801e+003,3.648438e+000
1.971765e+003,2.014160e-002
1.972729e+003,-2.432495e+000
1.973693e+003,8.809814e-001
1.974657e+003,6.035095e+000
1.975622e+003,7.206848e+000
1.976586e+003,5.276367e+000
1.977550e+003,2.107910e+000
1.978514e+003,-1.438416e+000
1.979479e+003,-1.248108e+000
1.980443e+003,2.885315e+000
1.981407e+003,5.086487e+000
1.982371e+003,3.209900e+000
1.983335e+003,2.202515e+000
1.984300e+003,5.901306e+000
1.985264e+003,1.023700e+001
1.986228e+003,8.993286e+000
1.987192e+003,3.414917e+000
1.988157e+003,3.906250e-003
1.989121e+003,-8.313599e-001
1.990085e+003,-5.498657e-001
1.991049e+003,2.274780e+000
1.992014e+003,3.833008e+000
1.992978e+003,2.251587e+000
1.993942e+003,7.924194e-001
1.994906e+003,7.465210e-001
1.995871e+003,1.065002e+000
1.996835e+003,1.355164e+000
1.997799e+003,1.582336e+000
1.998763e+003,1.144287e+000
1.999728e+003,1.742554e-001
