5.003444e+002,2.200784e+001
5.013087e+002,2.059875e+001
5.022729e+002,2.192532e+001
5.032371e+002,2.530997e+001
5.042014e+002,2.725803e+001
5.051656e+002,2.798080e+001
5.061298e+002,2.784360e+001
5.070941e+002,2.700485e+001
5.080583e+002,2.508975e+001
5.090225e+002,2.368973e+001
5.099868e+002,2.271692e+001
5.109510e+002,2.211395e+001
5.119152e+002,2.218234e+001
5.128795e+002,2.302515e+001
5.138437e+002,2.319373e+001
5.148079e+002,2.192804e+001
5.157722e+002,2.029810e+001
5.167364e+002,1.799045e+001
5.177006e+002,1.531564e+001
5.186649e+002,1.345190e+001
5.196291e+002,1.519577e+001
5.205933e+002,1.830942e+001
5.215576e+002,1.988370e+001
5.225218e+002,1.939352e+001
5.234860e+002,1.742313e+001
5.244503e+002,1.527280e+001
5.254145e+002,1.319702e+001
5.263787e+002,1.190274e+001
5.273430e+002,1.142270e+001
5.283072e+002,1.168292e+001
5.292714e+002,1.258582e+001
5.302357e+002,1.415585e+001
5.311999e+002,1.544604e+001
5.321641e+002,1.732269e+001
5.331284e+002,1.892059e+001
5.340926e+002,1.921811e+001
5.350568e+002,1.761569e+001
5.360211e+002,1.541705e+001
5.369853e+002,1.374704e+001
5.379495e+002,1.273676e+001
5.389138e+002,1.268851e+001
5.398780e+002,1.354526e+001
5.408422e+002,1.478003e+001
5.418065e+002,1.511682e+001
5.427707e+002,1.463651e+001
5.437349e+002,1.356625e+001
5.446992e+002,1.165250e+001
5.456634e+002,9.276276e+000
5.466276e+002,7.882172e+000
5.475919e+002,8.303558e+000
5.485561e+002,9.131256e+000
5.495203e+002,1.102155e+001
5.504846e+002,1.281583e+001
5.514488e+002,1.277347e+001
5.524130e+002,9.583954e+000
5.533773e+002,6.508148e+000
5.543415e+002,4.973724e+000
5.553057e+002,4.501465e+000
5.562700e+002,4.801239e+000
5.572342e+002,5.639526e+000
5.581984e+002,6.484711e+000
5.591627e+002,6.196625e+000
5.601269e+002,5.300873e+000
5.610911e+002,4.335571e+000
5.620554e+002,3.453613e+000
5.630196e+002,2.598938e+000
5.639838e+002,2.324066e+000
5.649481e+002,3.242493e+000
5.659123e+002,3.877777e+000
5.668765e+002,4.258423e+000
5.678408e+002,4.583710e+000
5.688050e+002,4.958099e+000
5.697692e+002,5.033569e+000
5.707335e+002,4.735016e+000
5.716977e+002,4.396423e+000
5.726619e+002,3.822784e+000
5.736262e+002,2.485016e+000
5.745904e+002,-1.762085e-001
5.755546e+002,-2.566650e+000
5.765189e+002,-2.301880e+000
5.774831e+002,-5.577087e-001
5.784473e+002,1.139130e+000
5.794116e+002,1.864349e+000
5.803758e+002,1.877777e+000
5.813400e+002,1.925507e+000
5.823043e+002,1.819519e+000
5.832685e+002,1.150665e+000
5.842327e+002,-5.242615e-001
5.851970e+002,-2.721558e+000
5.861612e+002,-3.461456e+000
5.871254e+002,-1.004150e+000
5.880897e+002,9.699707e-001
5.890539e+002,1.440796e+000
5.900181e+002,8.604431e-001
5.909824e+002,4.528809e-002
5.919466e+002,-6.960754e-001
5.929108e+002,-6.786194e-001
5.938751e+002,1.352722e+000
5.948393e+002,4.204620e+000
5.958035e+002,5.969971e+000
5.967678e+002,5.321838e+000
5.977320e+002,2.784607e+000
5.986962e+002,1.316071e+000
5.996605e+002,4.026489e-001
6.006247e+002,2.367554e-001
6.015889e+002,1.521240e+000
6.025532e+002,4.111786e+000
6.035174e+002,5.397827e+000
6.044816e+002,4.509460e+000
6.054459e+002,3.158508e+000
6.064101e+002,5.874634e-001
6.073743e+002,-2.167786e+000
6.083386e+002,-3.154327e+000
6.093028e+002,-5.200195e-001
6.102670e+002,2.654114e+000
6.112313e+002,4.515533e+000
6.121955e+002,5.055908e+000
6.131597e+002,3.830658e+000
6.141240e+002,5.995483e-001
6.150882e+002,-3.729462e+000
6.160524e+002,-4.480072e+000
6.170167e+002,-2.170563e+000
6.179809e+002,-2.893982e-001
6.189451e+002,-8.746948e-001
6.199094e+002,-3.588135e+000
6.208736e+002,-4.747528e+000
6.218378e+002,-1.993713e+000
6.228021e+002,3.268127e-001
6.237663e+002,2.223175e+000
6.247305e+002,3.468079e+000
6.256948e+002,3.396454e+000
6.266590e+002,7.569580e-001
6.276232e+002,-1.679932e+000
6.285875e+002,-1.851746e+000
6.295517e+002,-7.920837e-001
6.305159e+002,4.174500e-001
6.314802e+002,1.085388e+000
6.324444e+002,1.317749e+000
6.334086e+002,1.929810e+000
6.343729e+002,2.939301e+000
6.353371e+002,3.788910e+000
6.363013e+002,4.335938e+000
6.372656e+002,4.263489e+000
6.382298e+002,2.605804e+000
6.391940e+002,-3.722870e+000
6.401583e+002,-7.666443e+000
6.411225e+002,-7.355591e+000
6.420867e+002,-4.979950e+000
6.430510e+002,-3.433289e+000
6.440152e+002,-4.071228e+000
6.449794e+002,-4.374329e+000
6.459437e+002,-1.790436e+000
6.469079e+002,8.143921e-001
6.478721e+002,7.304382e-001
6.488364e+002,-2.612640e+000
6.498006e+002,-6.739288e+000
6.507648e+002,-7.181671e+000
6.517291e+002,-5.182983e+000
6.526933e+002,-3.109619e+000
6.536575e+002,-1.343262e+000
6.546218e+002,-4.379578e-001
6.555860e+002,-1.614960e+000
6.565502e+002,-7.083923e+000
6.575145e+002,-9.766510e+000
6.584787e+002,-8.150085e+000
6.594429e+002,-5.330292e+000
6.604072e+002,-3.689453e+000
6.613714e+002,-3.638947e+000
6.623356e+002,-3.533508e+000
6.632999e+002,-2.337738e+000
6.642641e+002,-1.464294e+000
6.652283e+002,-1.632507e+000
6.661926e+002,-2.644684e+000
6.671568e+002,-3.667633e+000
6.681210e+002,-3.766754e+000
6.690853e+002,-3.509369e+000
6.700495e+002,-4.183655e+000
6.710137e+002,-5.731323e+000
6.719780e+002,-7.223541e+000
6.729422e+002,-7.734833e+000
6.739064e+002,-7.256012e+000
6.748707e+002,-6.300385e+000
6.758349e+002,-4.115082e+000
6.767991e+002,-2.560272e+000
6.777634e+002,-2.276489e+000
6.787276e+002,-2.992828e+000
6.796918e+002,-3.902832e+000
6.806561e+002,-5.912384e+000
6.816203e+002,-7.231964e+000
6.825845e+002,-6.545532e+000
6.835488e+002,-4.803802e+000
6.845130e+002,-3.770355e+000
6.854772e+002,-4.856476e+000
6.864415e+002,-6.271942e+000
6.874057e+002,-3.800018e+000
6.883699e+002,9.347229e-001
6.893342e+002,4.644196e+000
6.902984e+002,5.581665e+000
6.912626e+002,4.091278e+000
6.922269e+002,1.972473e+000
6.931911e+002,-2.328522e+000
6.941553e+002,-4.224091e+000
6.951196e+002,-2.010010e+000
6.960838e+002,1.867523e+000
6.970480e+002,3.680145e+000
6.980123e+002,2.146240e+000
6.989765e+002,1.506653e-001
6.999407e+002,-1.136719e+000
7.009050e+002,-2.294342e+000
7.018692e+002,-4.221222e+000
7.028334e+002,-7.016663e+000
7.037977e+002,-9.352417e+000
7.047619e+002,-8.292603e+000
7.057261e+002,-5.056183e+000
7.066904e+002,-2.492065e+000
7.076546e+002,-1.078613e+000
7.086188e+002,-3.039551e-001
7.095831e+002,6.377258e-001
7.105473e+002,1.883789e+000
7.115115e+002,2.217743e+000
7.124758e+002,1.292511e+000
7.134400e+002,-1.564941e-001
7.144042e+002,-1.724670e+000
7.153685e+002,-3.262787e+000
7.163327e+002,-4.601624e+000
7.172969e+002,-6.387146e+000
7.182612e+002,-7.101166e+000
7.192254e+002,-5.294800e+000
7.201896e+002,-2.071045e+000
7.211539e+002,4.799805e-001
7.221181e+002,6.185608e-001
7.230823e+002,-8.871765e-001
7.240466e+002,-2.160980e+000
7.250108e+002,-2.910583e+000
7.259750e+002,-2.478607e+000
7.269393e+002,-5.693054e-001
7.279035e+002,2.282745e+000
7.288677e+002,4.073090e+000
7.298320e+002,5.209137e+000
7.307962e+002,5.838226e+000
7.317604e+002,5.705109e+000
7.327247e+002,5.239624e+000
7.336889e+002,4.778778e+000
7.346531e+002,3.978821e+000
7.356174e+002,2.771942e+000
7.365816e+002,1.369720e+000
7.375458e+002,4.370422e-001
7.385101e+002,8.639832e-001
7.394743e+002,2.581024e+000
7.404385e+002,4.294128e+000
7.414028e+002,3.643494e+000
7.423670e+002,6.770020e-001
7.433312e+002,-1.368164e+000
7.442955e+002,-1.846588e+000
7.452597e+002,-1.082947e+000
7.462239e+002,6.581116e-001
7.471882e+002,3.851044e+000
7.481524e+002,5.178406e+000
7.491166e+002,2.503021e+000
7.500809e+002,-7.827759e-002
7.510451e+002,-1.050964e+000
7.520093e+002,-5.957642e-001
7.529736e+002,3.575439e-001
7.539378e+002,2.507355e+000
7.549020e+002,3.982880e+000
7.558663e+002,2.954498e+000
7.568306e+002,7.760925e-001
7.577948e+002,-8.414307e-001
7.587590e+002,-9.562073e-001
7.597233e+002,-2.001038e-001
7.606875e+002,1.596680e-001
7.616517e+002,3.972168e-001
7.626160e+002,1.401642e+000
7.635802e+002,3.809937e+000
7.645444e+002,6.812653e+000
7.655087e+002,8.594971e+000
7.664729e+002,8.543640e+000
7.674371e+002,8.256042e+000
7.684014e+002,7.470337e+000
7.693656e+002,6.806305e+000
7.703298e+002,6.961151e+000
7.712941e+002,7.921844e+000
7.722583e+002,8.572754e+000
7.732225e+002,7.819092e+000
7.741868e+002,6.611511e+000
7.751510e+002,5.397186e+000
7.761152e+002,4.413208e+000
7.770795e+002,4.062378e+000
7.780437e+002,4.677490e+000
7.790079e+002,5.952881e+000
7.799722e+002,5.509277e+000
7.809364e+002,3.059326e+000
7.819006e+002,1.498871e+000
7.828649e+002,2.999786e+000
7.838291e+002,6.563599e+000
7.847933e+002,8.261597e+000
7.857576e+002,6.392975e+000
7.867218e+002,4.277374e+000
7.876860e+002,2.351593e+000
7.886503e+002,1.107910e+000
7.896145e+002,1.130707e+000
7.905787e+002,2.473755e+000
7.915430e+002,4.182587e+000
7.925072e+002,5.422394e+000
7.934714e+002,5.768921e+000
7.944357e+002,4.597656e+000
7.953999e+002,2.379822e+000
7.963641e+002,5.517883e-001
7.973284e+002,6.602173e-001
7.982926e+002,2.880432e+000
7.992568e+002,3.791595e+000
8.002211e+002,2.358337e+000
8.011853e+002,4.995728e-001
8.021495e+002,-8.955994e-001
8.031138e+002,-1.390045e+000
8.040780e+002,-7.188721e-001
8.050422e+002,1.187012e+000
8.060065e+002,3.491943e+000
8.069707e+002,6.276367e+000
8.079349e+002,8.708954e+000
8.088992e+002,1.025864e+001
8.098634e+002,1.080991e+001
8.108276e+002,1.040549e+001
8.117919e+002,7.985809e+000
8.127561e+002,4.307617e+000
8.137203e+002,2.208282e+000
8.146846e+002,2.280304e+000
8.156488e+002,2.904022e+000
8.166130e+002,1.722473e+000
8.175773e+002,-2.013519e+000
8.185415e+002,-3.476868e+000
8.195057e+002,-2.394958e+000
8.204700e+002,-4.682312e-001
8.214342e+002,2.648682e+000
8.223984e+002,6.195679e+000
8.233627e+002,8.256714e+000
8.243269e+002,7.815674e+000
8.252911e+002,6.673126e+000
8.262554e+002,5.434723e+000
8.272196e+002,4.430511e+000
8.281838e+002,3.904999e+000
8.291481e+002,3.970428e+000
8.301123e+002,4.720978e+000
8.310765e+002,6.632111e+000
8.320408e+002,9.382446e+000
8.330050e+002,1.051794e+001
8.339692e+002,9.757202e+000
8.349335e+002,8.089600e+000
8.358977e+002,6.249237e+000
8.368619e+002,4.198883e+000
8.378262e+002,3.519562e+000
8.387904e+002,4.668762e+000
8.397546e+002,6.236176e+000
8.407189e+002,8.465057e+000
8.416831e+002,1.081070e+001
8.426473e+002,1.246494e+001
8.436116e+002,1.306522e+001
8.445758e+002,1.310843e+001
8.455400e+002,1.242752e+001
8.465043e+002,1.126889e+001
8.474685e+002,1.024142e+001
8.484327e+002,9.767731e+000
8.493970e+002,9.974823e+000
8.503612e+002,1.074124e+001
8.513254e+002,1.208109e+001
8.522897e+002,1.275327e+001
8.532539e+002,1.233517e+001
8.542181e+002,1.151840e+001
8.551824e+002,1.081793e+001
8.561466e+002,1.055518e+001
8.571108e+002,1.102490e+001
8.580751e+002,1.197260e+001
8.590393e+002,1.262598e+001
8.600035e+002,1.298975e+001
8.609678e+002,1.333441e+001
8.619320e+002,1.385645e+001
8.628962e+002,1.460425e+001
8.638605e+002,1.552777e+001
8.648247e+002,1.671252e+001
8.657889e+002,1.795447e+001
8.667532e+002,1.916998e+001
8.677174e+002,2.033453e+001
8.686816e+002,2.072882e+001
8.696459e+002,1.930469e+001
8.706101e+002,1.572662e+001
8.715743e+002,1.419305e+001
8.725386e+002,1.613342e+001
8.735028e+002,1.813031e+001
8.744670e+002,1.898584e+001
8.754313e+002,1.899451e+001
8.763955e+002,1.910229e+001
8.773597e+002,1.980670e+001
8.783240e+002,2.055078e+001
8.792882e+002,2.002151e+001
8.802524e+002,1.964627e+001
8.812167e+002,2.143729e+001
8.821809e+002,2.528165e+001
8.831451e+002,2.891733e+001
8.841094e+002,2.932230e+001
8.850736e+002,2.690439e+001
8.860378e+002,2.718021e+001
8.870021e+002,3.080008e+001
8.879663e+002,3.383902e+001
8.889305e+002,3.351132e+001
8.898948e+002,3.045480e+001
8.908590e+002,2.849313e+001
8.918232e+002,2.892776e+001
8.927875e+002,2.925577e+001
8.937517e+002,2.845688e+001
8.947159e+002,2.770779e+001
8.956802e+002,2.808853e+001
8.966444e+002,2.951917e+001
8.976086e+002,3.062585e+001
8.985729e+002,3.008038e+001
8.995371e+002,2.892877e+001
9.005013e+002,2.890631e+001
9.014656e+002,2.989539e+001
9.024298e+002,3.030493e+001
9.033940e+002,2.855359e+001
9.043583e+002,2.499164e+001
9.053225e+002,2.426001e+001
9.062867e+002,2.958765e+001
9.072510e+002,3.326563e+001
9.082152e+002,3.527203e+001
9.091794e+002,3.609100e+001
9.101437e+002,3.555316e+001
9.111079e+002,3.357007e+001
9.120721e+002,3.233337e+001
9.130364e+002,3.393097e+001
9.140006e+002,3.547321e+001
9.149648e+002,3.519324e+001
9.159291e+002,3.391235e+001
9.168933e+002,3.342401e+001
9.178575e+002,3.482507e+001
9.188218e+002,3.713116e+001
9.197860e+002,3.728265e+001
9.207502e+002,3.512930e+001
9.217145e+002,3.287247e+001
9.226787e+002,3.100485e+001
9.236429e+002,2.979184e+001
9.246072e+002,2.956119e+001
9.255714e+002,3.038132e+001
9.265356e+002,3.064279e+001
9.274999e+002,2.907504e+001
9.284641e+002,2.775272e+001
9.294283e+002,2.790396e+001
9.303926e+002,2.892697e+001
9.313568e+002,2.964902e+001
9.323210e+002,2.945932e+001
9.332853e+002,2.856778e+001
9.342495e+002,2.649002e+001
9.352137e+002,2.405386e+001
9.361780e+002,2.315775e+001
9.371422e+002,2.439102e+001
9.381064e+002,2.650803e+001
9.390707e+002,2.752441e+001
9.400349e+002,2.689429e+001
9.409991e+002,2.679535e+001
9.419634e+002,2.826654e+001
9.429276e+002,2.873767e+001
9.438918e+002,2.679358e+001
9.448561e+002,2.378180e+001
9.458203e+002,2.165460e+001
9.467845e+002,2.081262e+001
9.477488e+002,2.202698e+001
9.487130e+002,2.844025e+001
9.496772e+002,3.516931e+001
9.506415e+002,3.810126e+001
9.516057e+002,3.723102e+001
9.525699e+002,3.488116e+001
9.535342e+002,3.325696e+001
9.544984e+002,3.223254e+001
9.554626e+002,3.186975e+001
9.564269e+002,3.260632e+001
9.573911e+002,3.370868e+001
9.583553e+002,3.563477e+001
9.593196e+002,3.734955e+001
9.602838e+002,3.674078e+001
9.612480e+002,3.283472e+001
9.622123e+002,2.997723e+001
9.631765e+002,3.046417e+001
9.641407e+002,3.140198e+001
9.651050e+002,3.158759e+001
9.660692e+002,3.092236e+001
9.670334e+002,2.957709e+001
9.679977e+002,2.777521e+001
9.689619e+002,2.656110e+001
9.699261e+002,2.880573e+001
9.708904e+002,3.289771e+001
9.718546e+002,3.444751e+001
9.728188e+002,3.201520e+001
9.737831e+002,2.822913e+001
9.747473e+002,2.648553e+001
9.757115e+002,2.705786e+001
9.766758e+002,2.886462e+001
9.776400e+002,3.464923e+001
9.786042e+002,3.879468e+001
9.795685e+002,3.867444e+001
9.805327e+002,3.628278e+001
9.814969e+002,3.458057e+001
9.824612e+002,3.473645e+001
9.834254e+002,3.549127e+001
9.843896e+002,3.570703e+001
9.853539e+002,3.523560e+001
9.863181e+002,3.350793e+001
9.872823e+002,3.067230e+001
9.882466e+002,2.792279e+001
9.892108e+002,2.652820e+001
9.901750e+002,2.686877e+001
9.911393e+002,2.885504e+001
9.921035e+002,3.281427e+001
9.930677e+002,3.631537e+001
9.940320e+002,3.924139e+001
9.949962e+002,4.228436e+001
9.959604e+002,4.645007e+001
9.969247e+002,5.174786e+001
9.978889e+002,5.603156e+001
9.988531e+002,5.708960e+001
9.998174e+002,5.732587e+001
1.000782e+003,5.816266e+001
1.001746e+003,5.974670e+001
1.002710e+003,6.253162e+001
1.003674e+003,6.637964e+001
1.004639e+003,6.972705e+001
1.005603e+003,6.961499e+001
1.006567e+003,6.552161e+001
1.007531e+003,6.360773e+001
1.008495e+003,6.518024e+001
1.009460e+003,6.633484e+001
1.010424e+003,6.374066e+001
1.011388e+003,5.878894e+001
1.012352e+003,5.733179e+001
1.013317e+003,6.248761e+001
1.014281e+003,6.575281e+001
1.015245e+003,6.395227e+001
1.016209e+003,5.999170e+001
1.017174e+003,5.555298e+001
1.018138e+003,5.120215e+001
1.019102e+003,4.678595e+001
1.020066e+003,4.215009e+001
1.021031e+003,3.791760e+001
1.021995e+003,3.552692e+001
1.022959e+003,3.434851e+001
1.023923e+003,3.339398e+001
1.024887e+003,3.258936e+001
1.025852e+003,3.130090e+001
1.026816e+003,2.822931e+001
1.027780e+003,2.286182e+001
1.028744e+003,1.931976e+001
1.029709e+003,1.848145e+001
1.030673e+003,1.866760e+001
1.031637e+003,2.091479e+001
1.032601e+003,2.309552e+001
1.033566e+003,2.164380e+001
1.034530e+003,1.556720e+001
1.035494e+003,9.896973e+000
1.036458e+003,1.109607e+001
1.037422e+003,1.554663e+001
1.038387e+003,1.718524e+001
1.039351e+003,1.588196e+001
1.040315e+003,1.398877e+001
1.041279e+003,1.328180e+001
1.042244e+003,1.369714e+001
1.043208e+003,1.438574e+001
1.044172e+003,1.551355e+001
1.045136e+003,1.597534e+001
1.046101e+003,1.552795e+001
1.047065e+003,1.497101e+001
1.048029e+003,1.424200e+001
1.048993e+003,1.366443e+001
1.049958e+003,1.470483e+001
1.050922e+003,1.905011e+001
1.051886e+003,2.312518e+001
1.052850e+003,2.247003e+001
1.053814e+003,1.968073e+001
1.054779e+003,1.791833e+001
1.055743e+003,1.786389e+001
1.056707e+003,1.837469e+001
1.057671e+003,1.806531e+001
1.058636e+003,1.686731e+001
1.059600e+003,1.662457e+001
1.060564e+003,1.915741e+001
1.061528e+003,2.072119e+001
1.062493e+003,2.053033e+001
1.063457e+003,1.875726e+001
1.064421e+003,1.474768e+001
1.065385e+003,8.709534e+000
1.066349e+003,5.117859e+000
1.067314e+003,8.042114e+000
1.068278e+003,1.210754e+001
1.069242e+003,1.377686e+001
1.070206e+003,1.395850e+001
1.071171e+003,1.400647e+001
1.072135e+003,1.444141e+001
1.073099e+003,1.501630e+001
1.074063e+003,1.558051e+001
1.075028e+003,1.628302e+001
1.075992e+003,1.635541e+001
1.076956e+003,1.532385e+001
1.077920e+003,1.410339e+001
1.078885e+003,1.323853e+001
1.079849e+003,1.273145e+001
1.080813e+003,1.208844e+001
1.081777e+003,1.099335e+001
1.082741e+003,1.141382e+001
1.083706e+003,1.590228e+001
1.084670e+003,2.026312e+001
1.085634e+003,2.219415e+001
1.086598e+003,2.216852e+001
1.087563e+003,2.178015e+001
1.088527e+003,2.199524e+001
1.089491e+003,2.199768e+001
1.090455e+003,1.942242e+001
1.091420e+003,1.366443e+001
1.092384e+003,1.088837e+001
1.093348e+003,1.236505e+001
1.094312e+003,1.395905e+001
1.095276e+003,1.315106e+001
1.096241e+003,1.097797e+001
1.097205e+003,1.012653e+001
1.098169e+003,1.100360e+001
1.099133e+003,1.224420e+001
1.100098e+003,1.384167e+001
1.101062e+003,1.540863e+001
1.102026e+003,1.675208e+001
1.102990e+003,1.788593e+001
1.103955e+003,1.889142e+001
1.104919e+003,1.976044e+001
1.105883e+003,2.023236e+001
1.106847e+003,1.968555e+001
1.107812e+003,1.809637e+001
1.108776e+003,1.782391e+001
1.109740e+003,1.938953e+001
1.110704e+003,2.140900e+001
1.111668e+003,2.309894e+001
1.112633e+003,2.477295e+001
1.113597e+003,2.719653e+001
1.114561e+003,3.113672e+001
1.115525e+003,3.348694e+001
1.116490e+003,3.209106e+001
1.117454e+003,3.010406e+001
1.118418e+003,2.975476e+001
1.119382e+003,3.093774e+001
1.120347e+003,3.226569e+001
1.121311e+003,3.264746e+001
1.122275e+003,3.214557e+001
1.123239e+003,3.151843e+001
1.124203e+003,3.121161e+001
1.125168e+003,3.183832e+001
1.126132e+003,3.403918e+001
1.127096e+003,3.588275e+001
1.128060e+003,3.438977e+001
1.129025e+003,3.077148e+001
1.129989e+003,3.197522e+001
1.130953e+003,4.136188e+001
1.131917e+003,4.859937e+001
1.132882e+003,5.005554e+001
1.133846e+003,4.998779e+001
1.134810e+003,5.044397e+001
1.135774e+003,5.169403e+001
1.136739e+003,5.315802e+001
1.137703e+003,5.449854e+001
1.138667e+003,5.627393e+001
1.139631e+003,5.946222e+001
1.140595e+003,6.412500e+001
1.141560e+003,7.051660e+001
1.142524e+003,7.920288e+001
1.143488e+003,8.855273e+001
1.144452e+003,9.661536e+001
1.145417e+003,1.043190e+002
1.146381e+003,1.153511e+002
1.147345e+003,1.308988e+002
1.148309e+003,1.466394e+002
1.149274e+003,1.620035e+002
1.150238e+003,1.770962e+002
1.151202e+003,1.924880e+002
1.152166e+003,2.078510e+002
1.153130e+003,2.231327e+002
1.154095e+003,2.377585e+002
1.155059e+003,2.490479e+002
1.156023e+003,2.537289e+002
1.156987e+003,2.517273e+002
1.157952e+003,2.448196e+002
1.158916e+003,2.327432e+002
1.159880e+003,2.208076e+002
1.160844e+003,2.122751e+002
1.161809e+003,2.045590e+002
1.162773e+003,1.923214e+002
1.163737e+003,1.744754e+002
1.164701e+003,1.570913e+002
1.165666e+003,1.397515e+002
1.166630e+003,1.257513e+002
1.167594e+003,1.177985e+002
1.168558e+003,1.132615e+002
1.169522e+003,1.085219e+002
1.170487e+003,1.025873e+002
1.171451e+003,9.787164e+001
1.172415e+003,9.733020e+001
1.173379e+003,9.980060e+001
1.174344e+003,9.941199e+001
1.175308e+003,9.624945e+001
1.176272e+003,9.285461e+001
1.177236e+003,9.003009e+001
1.178201e+003,8.757983e+001
1.179165e+003,8.497839e+001
1.180129e+003,8.199213e+001
1.181093e+003,7.924457e+001
1.182057e+003,7.743378e+001
1.183022e+003,7.533862e+001
1.183986e+003,7.143628e+001
1.184950e+003,6.784497e+001
1.185914e+003,6.701501e+001
1.186879e+003,6.886426e+001
1.187843e+003,7.119415e+001
1.188807e+003,7.210632e+001
1.189771e+003,7.234698e+001
1.190736e+003,7.512604e+001
1.191700e+003,8.098096e+001
1.192664e+003,8.272504e+001
1.193628e+003,7.715045e+001
1.194593e+003,7.112872e+001
1.195557e+003,7.029401e+001
1.196521e+003,7.290369e+001
1.197485e+003,7.254242e+001
1.198449e+003,6.713684e+001
1.199414e+003,6.253693e+001
1.200378e+003,6.301666e+001
1.201342e+003,6.374023e+001
1.202306e+003,6.092480e+001
1.203271e+003,5.583783e+001
1.204235e+003,5.208179e+001
1.205199e+003,5.134967e+001
1.206163e+003,5.152356e+001
1.207128e+003,4.889240e+001
1.208092e+003,4.329517e+001
1.209056e+003,3.885895e+001
1.210020e+003,3.559497e+001
1.210984e+003,3.320953e+001
1.211949e+003,3.221466e+001
1.212913e+003,3.155261e+001
1.213877e+003,2.985040e+001
1.214841e+003,2.713293e+001
1.215806e+003,2.475171e+001
1.216770e+003,2.359686e+001
1.217734e+003,2.213745e+001
1.218698e+003,1.812402e+001
1.219663e+003,1.367755e+001
1.220627e+003,1.219659e+001
1.221591e+003,1.366766e+001
1.222555e+003,1.456049e+001
1.223520e+003,1.159021e+001
1.224484e+003,5.919861e+000
1.225448e+003,2.560303e+000
1.226412e+003,2.579163e+000
1.227376e+003,2.645081e+000
1.228341e+003,2.716125e+000
1.229305e+003,2.681274e+000
1.230269e+003,2.746582e+000
1.231233e+003,2.558167e+000
1.232198e+003,9.943848e-001
1.233162e+003,-2.253662e+000
1.234126e+003,-4.007751e+000
1.235090e+003,-5.955811e-001
1.236055e+003,3.729736e+000
1.237019e+003,4.255981e+000
1.237983e+003,1.856445e+000
1.238947e+003,-9.236450e-001
1.239911e+003,-2.854187e+000
1.240876e+003,-3.561646e+000
1.241840e+003,-2.477722e+000
1.242804e+003,5.261230e-001
1.243768e+003,3.172485e+000
1.244733e+003,5.663330e+000
1.245697e+003,7.455383e+000
1.246661e+003,8.010010e+000
1.247625e+003,7.780457e+000
1.248590e+003,6.607971e+000
1.249554e+003,5.323486e+000
1.250518e+003,6.023193e+000
1.251482e+003,9.714844e+000
1.252447e+003,1.309247e+001
1.253411e+003,1.125922e+001
1.254375e+003,7.165894e+000
1.255339e+003,7.471436e+000
1.256303e+003,1.236194e+001
1.257268e+003,1.655029e+001
1.258232e+003,1.644604e+001
1.259196e+003,1.402350e+001
1.260160e+003,1.387585e+001
1.261125e+003,1.672119e+001
1.262089e+003,1.896204e+001
1.263053e+003,1.838135e+001
1.264017e+003,1.900348e+001
1.264982e+003,2.349799e+001
1.265946e+003,2.855157e+001
1.266910e+003,3.124274e+001
1.267874e+003,3.130438e+001
1.268839e+003,2.978247e+001
1.269803e+003,2.734619e+001
1.270767e+003,2.473193e+001
1.271731e+003,2.355579e+001
1.272695e+003,2.389154e+001
1.273660e+003,2.348480e+001
1.274624e+003,2.159100e+001
1.275588e+003,1.959229e+001
1.276552e+003,1.896539e+001
1.277517e+003,1.889886e+001
1.278481e+003,1.735089e+001
1.279445e+003,1.401477e+001
1.280409e+003,1.072473e+001
1.281374e+003,7.583984e+000
1.282338e+003,5.445190e+000
1.283302e+003,4.518066e+000
1.284266e+003,4.768860e+000
1.285230e+003,7.088684e+000
1.286195e+003,1.073999e+001
1.287159e+003,1.305566e+001
1.288123e+003,1.193927e+001
1.289087e+003,8.637451e+000
1.290052e+003,6.424988e+000
1.291016e+003,5.421997e+000
1.291980e+003,4.358887e+000
1.292944e+003,2.900391e+000
1.293909e+003,1.335999e+000
1.294873e+003,-9.393311e-002
1.295837e+003,-1.209106e+000
1.296801e+003,-1.933167e+000
1.297766e+003,-2.232544e+000
1.298730e+003,-1.952026e+000
1.299694e+003,-9.541016e-001
1.300658e+003,1.459351e-001
1.301622e+003,8.602905e-001
1.302587e+003,1.390991e+000
1.303551e+003,1.893066e+000
1.304515e+003,2.495850e+000
1.305479e+003,3.292053e+000
1.306444e+003,4.266296e+000
1.307408e+003,5.194824e+000
1.308372e+003,5.662109e+000
1.309336e+003,5.461060e+000
1.310301e+003,5.362610e+000
1.311265e+003,5.964600e+000
1.312229e+003,6.291870e+000
1.313193e+003,5.805725e+000
1.314157e+003,4.948364e+000
1.315122e+003,4.116394e+000
1.316086e+003,3.338501e+000
1.317050e+003,2.392517e+000
1.318014e+003,1.200989e+000
1.318979e+003,4.077148e-001
1.319943e+003,1.302673e+000
1.320907e+003,3.730530e+000
1.321871e+003,5.086975e+000
1.322836e+003,4.717529e+000
1.323800e+003,3.973877e+000
1.324764e+003,3.604858e+000
1.325728e+003,3.396423e+000
1.326693e+003,2.673035e+000
1.327657e+003,1.254883e+000
1.328621e+003,4.710083e-001
1.329585e+003,1.692261e+000
1.330549e+003,3.424011e+000
1.331514e+003,4.043518e+000
1.332478e+003,4.229492e+000
1.333442e+003,5.417175e+000
1.334406e+003,7.207458e+000
1.335371e+003,7.325928e+000
1.336335e+003,4.491089e+000
1.337299e+003,8.587646e-001
1.338263e+003,5.700073e-001
1.339228e+003,4.167297e+000
1.340192e+003,6.107910e+000
1.341156e+003,5.283020e+000
1.342120e+003,4.546082e+000
1.343084e+003,4.085999e+000
1.344049e+003,3.554016e+000
1.345013e+003,2.454224e+000
1.345977e+003,1.417114e+000
1.346941e+003,2.183533e+000
1.347906e+003,5.468140e+000
1.348870e+003,8.869263e+000
1.349834e+003,1.020972e+001
1.350798e+003,9.907593e+000
1.351763e+003,8.973389e+000
1.352727e+003,7.638733e+000
1.353691e+003,6.961182e+000
1.354655e+003,7.668701e+000
1.355620e+003,8.061096e+000
1.356584e+003,5.409119e+000
1.357548e+003,3.436279e-001
1.358512e+003,-2.103455e+000
1.359476e+003,-1.430359e+000
1.360441e+003,5.487061e-002
1.361405e+003,3.889282e+000
1.362369e+003,6.397217e+000
1.363333e+003,4.165466e+000
1.364298e+003,2.543335e-001
1.365262e+003,-8.192749e-001
1.366226e+003,1.823120e+000
1.367190e+003,5.768250e+000
1.368155e+003,8.929077e+000
1.369119e+003,1.088507e+001
1.370083e+003,1.010980e+001
1.371047e+003,5.540955e+000
1.372011e+003,3.497375e+000
1.372976e+003,5.960999e+000
1.373940e+003,7.611877e+000
1.374904e+003,5.650024e+000
1.375868e+003,2.603699e+000
1.376833e+003,1.475769e+000
1.377797e+003,2.393982e+000
1.378761e+003,4.267700e+000
1.379725e+003,7.199402e+000
1.380690e+003,9.409668e+000
1.381654e+003,7.986389e+000
1.382618e+003,5.329285e+000
1.383582e+003,4.796265e+000
1.384547e+003,6.371399e+000
1.385511e+003,8.270996e+000
1.386475e+003,9.694946e+000
1.387439e+003,1.025421e+001
1.388403e+003,8.810486e+000
1.389368e+003,5.348267e+000
1.390332e+003,4.009888e+000
1.391296e+003,6.119019e+000
1.392260e+003,8.331421e+000
1.393225e+003,1.050360e+001
1.394189e+003,1.179749e+001
1.395153e+003,1.118292e+001
1.396117e+003,9.621094e+000
1.397082e+003,8.533386e+000
1.398046e+003,8.393738e+000
1.399010e+003,8.706787e+000
1.399974e+003,8.861328e+000
1.400938e+003,8.686768e+000
1.401903e+003,8.528870e+000
1.402867e+003,9.075806e+000
1.403831e+003,1.007184e+001
1.404795e+003,1.075269e+001
1.405760e+003,1.217432e+001
1.406724e+003,1.623724e+001
1.407688e+003,1.923083e+001
1.408652e+003,1.574725e+001
1.409617e+003,7.290771e+000
1.410581e+003,2.103210e+000
1.411545e+003,3.815308e+000
1.412509e+003,7.313416e+000
1.413474e+003,7.376648e+000
1.414438e+003,5.877014e+000
1.415402e+003,7.134033e+000
1.416366e+003,1.079535e+001
1.417330e+003,1.267029e+001
1.418295e+003,1.085645e+001
1.419259e+003,7.811218e+000
1.420223e+003,5.704285e+000
1.421187e+003,4.461731e+000
1.422152e+003,5.022766e+000
1.423116e+003,8.484802e+000
1.424080e+003,1.121094e+001
1.425044e+003,1.091339e+001
1.426009e+003,1.051648e+001
1.426973e+003,1.154785e+001
1.427937e+003,1.291693e+001
1.428901e+003,1.323126e+001
1.429865e+003,1.260681e+001
1.430830e+003,1.214911e+001
1.431794e+003,1.246692e+001
1.432758e+003,1.314429e+001
1.433722e+003,1.368689e+001
1.434687e+003,1.443976e+001
1.435651e+003,1.604883e+001
1.436615e+003,1.912372e+001
1.437579e+003,2.022333e+001
1.438544e+003,1.729681e+001
1.439508e+003,1.434570e+001
1.440472e+003,1.491040e+001
1.441436e+003,1.745850e+001
1.442401e+003,1.829327e+001
1.443365e+003,1.657886e+001
1.444329e+003,1.485687e+001
1.445293e+003,1.507001e+001
1.446257e+003,1.651367e+001
1.447222e+003,1.815112e+001
1.448186e+003,1.974518e+001
1.449150e+003,2.001904e+001
1.450114e+003,1.865906e+001
1.451079e+003,1.643311e+001
1.452043e+003,1.246155e+001
1.453007e+003,9.099182e+000
1.453971e+003,1.032483e+001
1.454936e+003,1.532458e+001
1.455900e+003,1.851965e+001
1.456864e+003,1.856024e+001
1.457828e+003,1.795599e+001
1.458792e+003,1.729486e+001
1.459757e+003,1.698169e+001
1.460721e+003,1.792670e+001
1.461685e+003,1.933313e+001
1.462649e+003,1.958453e+001
1.463614e+003,1.843243e+001
1.464578e+003,1.703455e+001
1.465542e+003,1.629675e+001
1.466506e+003,1.588855e+001
1.467471e+003,1.516687e+001
1.468435e+003,1.437946e+001
1.469399e+003,1.364709e+001
1.470363e+003,1.166345e+001
1.471328e+003,1.099835e+001
1.472292e+003,1.270148e+001
1.473256e+003,1.484137e+001
1.474220e+003,1.679297e+001
1.475184e+003,1.847577e+001
1.476149e+003,1.969562e+001
1.477113e+003,2.025439e+001
1.478077e+003,2.009912e+001
1.479041e+003,1.933173e+001
1.480006e+003,1.880835e+001
1.480970e+003,2.100000e+001
1.481934e+003,2.700024e+001
1.482898e+003,2.958838e+001
1.483863e+003,2.622046e+001
1.484827e+003,2.328503e+001
1.485791e+003,2.249365e+001
1.486755e+003,2.326196e+001
1.487719e+003,2.575360e+001
1.488684e+003,2.888422e+001
1.489648e+003,2.989685e+001
1.490612e+003,2.818152e+001
1.491576e+003,2.769836e+001
1.492541e+003,3.184027e+001
1.493505e+003,3.865833e+001
1.494469e+003,4.484650e+001
1.495433e+003,4.995123e+001
1.496398e+003,5.201862e+001
1.497362e+003,5.003455e+001
1.498326e+003,4.907037e+001
1.499290e+003,5.207928e+001
1.500255e+003,5.724249e+001
1.501219e+003,6.215802e+001
1.502183e+003,6.681879e+001
1.503147e+003,7.199799e+001
1.504111e+003,7.773236e+001
1.505076e+003,8.462463e+001
1.506040e+003,9.288019e+001
1.507004e+003,1.028728e+002
1.507968e+003,1.152866e+002
1.508933e+003,1.293915e+002
1.509897e+003,1.437104e+002
1.510861e+003,1.584166e+002
1.511825e+003,1.744177e+002
1.512790e+003,1.919109e+002
1.513754e+003,2.108824e+002
1.514718e+003,2.327383e+002
1.515682e+003,2.571554e+002
1.516646e+003,2.779225e+002
1.517611e+003,2.935646e+002
1.518575e+003,3.088268e+002
1.519539e+003,3.284657e+002
1.520503e+003,3.452809e+002
1.521468e+003,3.558832e+002
1.522432e+003,3.607352e+002
1.523396e+003,3.602424e+002
1.524360e+003,3.550607e+002
1.525325e+003,3.463400e+002
1.526289e+003,3.349573e+002
1.527253e+003,3.223452e+002
1.528217e+003,3.113152e+002
1.529182e+003,3.021934e+002
1.530146e+003,2.873726e+002
1.531110e+003,2.637546e+002
1.532074e+003,2.394490e+002
1.533039e+003,2.142043e+002
1.534003e+003,1.882722e+002
1.534967e+003,1.609240e+002
1.535931e+003,1.347004e+002
1.536896e+003,1.116751e+002
1.537860e+003,9.249158e+001
1.538824e+003,7.735522e+001
1.539788e+003,6.610944e+001
1.540752e+003,5.754553e+001
1.541717e+003,5.034491e+001
1.542681e+003,4.460400e+001
1.543645e+003,3.984247e+001
1.544609e+003,3.626990e+001
1.545573e+003,3.416168e+001
1.546538e+003,3.414783e+001
1.547502e+003,3.387646e+001
1.548466e+003,3.290082e+001
1.549430e+003,3.169220e+001
1.550395e+003,3.029559e+001
1.551359e+003,2.877509e+001
1.552323e+003,2.748932e+001
1.553287e+003,2.660321e+001
1.554252e+003,2.601422e+001
1.555216e+003,2.569513e+001
1.556180e+003,2.531030e+001
1.557144e+003,2.408655e+001
1.558109e+003,2.209729e+001
1.559073e+003,1.986322e+001
1.560037e+003,1.630505e+001
1.561001e+003,1.388690e+001
1.561966e+003,1.425116e+001
1.562930e+003,1.608777e+001
1.563894e+003,1.926660e+001
1.564858e+003,2.232672e+001
1.565823e+003,2.120691e+001
1.566787e+003,1.545728e+001
1.567751e+003,1.137408e+001
1.568715e+003,1.294269e+001
1.569679e+003,1.663086e+001
1.570644e+003,1.821765e+001
1.571608e+003,1.803772e+001
1.572572e+003,1.758075e+001
1.573536e+003,1.705103e+001
1.574500e+003,1.707184e+001
1.575465e+003,1.782153e+001
1.576429e+003,1.898248e+001
1.577393e+003,2.091461e+001
1.578357e+003,2.262213e+001
1.579322e+003,2.179285e+001
1.580286e+003,1.863708e+001
1.581250e+003,1.666907e+001
1.582214e+003,1.714191e+001
1.583179e+003,1.824182e+001
1.584143e+003,1.880951e+001
1.585107e+003,1.883221e+001
1.586071e+003,1.836005e+001
1.587036e+003,1.797443e+001
1.588000e+003,1.855420e+001
1.588964e+003,2.010675e+001
1.589928e+003,2.207043e+001
1.590893e+003,2.464410e+001
1.591857e+003,2.697217e+001
1.592821e+003,2.758923e+001
1.593785e+003,2.678876e+001
1.594750e+003,2.578510e+001
1.595714e+003,2.442743e+001
1.596678e+003,2.395477e+001
1.597642e+003,2.544946e+001
1.598606e+003,2.719586e+001
1.599571e+003,2.787634e+001
1.600535e+003,2.812866e+001
1.601499e+003,2.874707e+001
1.602463e+003,2.960791e+001
1.603427e+003,3.009003e+001
1.604392e+003,2.997327e+001
1.605356e+003,2.936761e+001
1.606320e+003,2.843262e+001
1.607284e+003,2.711261e+001
1.608249e+003,2.478809e+001
1.609213e+003,2.139447e+001
1.610177e+003,1.949231e+001
1.611141e+003,1.993866e+001
1.612106e+003,2.083124e+001
1.613070e+003,2.179688e+001
1.614034e+003,2.230847e+001
1.614998e+003,2.131201e+001
1.615963e+003,1.988489e+001
1.616927e+003,2.011145e+001
1.617891e+003,2.199103e+001
1.618855e+003,2.334149e+001
1.619820e+003,2.275708e+001
1.620784e+003,2.077765e+001
1.621748e+003,1.810486e+001
1.622712e+003,1.540222e+001
1.623677e+003,1.470575e+001
1.624641e+003,1.645996e+001
1.625605e+003,1.783929e+001
1.626569e+003,1.721106e+001
1.627533e+003,1.644574e+001
1.628498e+003,1.733258e+001
1.629462e+003,1.835541e+001
1.630426e+003,1.784827e+001
1.631390e+003,1.639197e+001
1.632354e+003,1.540546e+001
1.633319e+003,1.524756e+001
1.634283e+003,1.554950e+001
1.635247e+003,1.598071e+001
1.636211e+003,1.671436e+001
1.637176e+003,1.883185e+001
1.638140e+003,2.221631e+001
1.639104e+003,2.286639e+001
1.640068e+003,1.970355e+001
1.641033e+003,1.695203e+001
1.641997e+003,1.520142e+001
1.642961e+003,1.502551e+001
1.643925e+003,1.862878e+001
1.644890e+003,2.219519e+001
1.645854e+003,2.096405e+001
1.646818e+003,1.650018e+001
1.647782e+003,1.335437e+001
1.648747e+003,1.300562e+001
1.649711e+003,1.480811e+001
1.650675e+003,1.904993e+001
1.651639e+003,2.381903e+001
1.652604e+003,2.418219e+001
1.653568e+003,2.019696e+001
1.654532e+003,1.784741e+001
1.655496e+003,1.798633e+001
1.656460e+003,1.779083e+001
1.657425e+003,1.618414e+001
1.658389e+003,1.469330e+001
1.659353e+003,1.437549e+001
1.660317e+003,1.436200e+001
1.661281e+003,1.330737e+001
1.662246e+003,1.164948e+001
1.663210e+003,1.138116e+001
1.664174e+003,1.317084e+001
1.665138e+003,1.477576e+001
1.666103e+003,1.412231e+001
1.667067e+003,1.199841e+001
1.668031e+003,9.919983e+000
1.668995e+003,7.997742e+000
1.669960e+003,6.649170e+000
1.670924e+003,5.797668e+000
1.671888e+003,6.492065e+000
1.672852e+003,1.065344e+001
1.673817e+003,1.381000e+001
1.674781e+003,1.168512e+001
1.675745e+003,8.171448e+000
1.676709e+003,7.800354e+000
1.677674e+003,9.866394e+000
1.678638e+003,1.087207e+001
1.679602e+003,9.754578e+000
1.680566e+003,9.191040e+000
1.681531e+003,1.218982e+001
1.682495e+003,1.606219e+001
1.683459e+003,1.500665e+001
1.684423e+003,9.933289e+000
1.685387e+003,8.292542e+000
1.686352e+003,1.143524e+001
1.687316e+003,1.278571e+001
1.688280e+003,9.037170e+000
1.689244e+003,5.292786e+000
1.690208e+003,6.049011e+000
1.691173e+003,8.173340e+000
1.692137e+003,8.499146e+000
1.693101e+003,7.517395e+000
1.694065e+003,6.403931e+000
1.695030e+003,5.156006e+000
1.695994e+003,4.698120e+000
1.696958e+003,6.008972e+000
1.697922e+003,8.198914e+000
1.698887e+003,1.101556e+001
1.699851e+003,1.374847e+001
1.700815e+003,1.358502e+001
1.701779e+003,1.022467e+001
1.702744e+003,6.455750e+000
1.703708e+003,3.076965e+000
1.704672e+003,9.971313e-001
1.705636e+003,6.663818e-001
1.706601e+003,1.515442e+000
1.707565e+003,4.213684e+000
1.708529e+003,7.880005e+000
1.709493e+003,8.450806e+000
1.710458e+003,4.984192e+000
1.711422e+003,2.593811e+000
1.712386e+003,4.706360e+000
1.713350e+003,7.448242e+000
1.714314e+003,7.360352e+000
1.715279e+003,5.598877e+000
1.716243e+003,3.934021e+000
1.717207e+003,2.731323e+000
1.718171e+003,2.790833e+000
1.719135e+003,4.385864e+000
1.720100e+003,5.836121e+000
1.721064e+003,6.025452e+000
1.722028e+003,4.982605e+000
1.722992e+003,2.054382e+000
1.723957e+003,-1.549438e+000
1.724921e+003,3.053589e-001
1.725885e+003,8.651794e+000
1.726849e+003,1.266431e+001
1.727814e+003,7.655884e+000
1.728778e+003,3.138733e+000
1.729742e+003,3.968750e+000
1.730706e+003,6.201050e+000
1.731671e+003,5.338196e+000
1.732635e+003,2.524048e+000
1.733599e+003,1.908997e+000
1.734563e+003,3.932617e+000
1.735528e+003,4.597168e+000
1.736492e+003,1.675903e+000
1.737456e+003,-2.311829e+000
1.738420e+003,-4.573486e+000
1.739385e+003,-5.216858e+000
1.740349e+003,-3.565247e+000
1.741313e+003,1.636536e+000
1.742277e+003,3.714233e+000
1.743241e+003,-6.712036e-001
1.744206e+003,-2.320068e+000
1.745170e+003,3.163818e+000
1.746134e+003,7.598022e+000
1.747098e+003,5.144348e+000
1.748063e+003,1.574707e-001
1.749027e+003,-2.556946e+000
1.749991e+003,-2.721924e+000
1.750955e+003,-1.688477e+000
1.751919e+003,-2.929077e-001
1.752884e+003,5.315552e-001
1.753848e+003,3.784180e-003
1.754812e+003,-1.451721e+000
1.755776e+003,-2.911804e+000
1.756741e+003,-4.119568e+000
1.757705e+003,-4.234863e+000
1.758669e+003,-3.134216e+000
1.759633e+003,-1.896973e+000
1.760598e+003,6.136475e-001
1.761562e+003,9.687500e-001
1.762526e+003,-4.520630e+000
1.763490e+003,-9.234741e+000
1.764455e+003,-7.275940e+000
1.765419e+003,-1.981018e+000
1.766383e+003,7.054443e-001
1.767347e+003,3.522949e-001
1.768312e+003,1.191895e+000
1.769276e+003,5.207397e+000
1.770240e+003,8.142761e+000
1.771204e+003,5.056824e+000
1.772168e+003,-9.085083e-001
1.773133e+003,-3.126343e+000
1.774097e+003,-1.916138e+000
1.775061e+003,1.257324e-001
1.776025e+003,2.860168e+000
1.776990e+003,3.325256e+000
1.777954e+003,-1.993408e-001
1.778918e+003,-3.673157e+000
1.779882e+003,-4.670959e+000
1.780846e+003,-4.077881e+000
1.781811e+003,-2.151245e+000
1.782775e+003,5.485229e-001
1.783739e+003,1.751831e+000
1.784703e+003,1.085022e+000
1.785668e+003,7.505493e-001
1.786632e+003,2.049988e+000
1.787596e+003,2.755554e+000
1.788560e+003,8.825684e-001
1.789525e+003,-1.602600e+000
1.790489e+003,-1.970520e+000
1.791453e+003,-9.917603e-001
1.792417e+003,-1.467529e+000
1.793382e+003,-3.770691e+000
1.794346e+003,-5.384460e+000
1.795310e+003,-4.989197e+000
1.796274e+003,-3.753052e+000
1.797239e+003,-2.717834e+000
1.798203e+003,-1.692322e+000
1.799167e+003,-1.174561e+000
1.800131e+003,-1.884583e+000
1.801095e+003,-2.062683e+000
1.802060e+003,1.878052e-001
1.803024e+003,9.447021e-001
1.803988e+003,-1.888855e+000
1.804952e+003,-4.550110e+000
1.805917e+003,-5.274170e+000
1.806881e+003,-4.978760e+000
1.807845e+003,-4.182312e+000
1.808809e+003,-3.221497e+000
1.809773e+003,-2.502136e+000
1.810738e+003,-2.140381e+000
1.811702e+003,-2.216675e+000
1.812666e+003,-2.769409e+000
1.813630e+003,-2.793457e+000
1.814595e+003,-6.492310e-001
1.815559e+003,2.711792e+000
1.816523e+003,3.424561e+000
1.817487e+003,1.263000e+000
1.818452e+003,-1.713867e-001
1.819416e+003,2.929688e-003
1.820380e+003,-5.334473e-001
1.821344e+003,-4.292236e+000
1.822309e+003,-6.753174e+000
1.823273e+003,-3.495667e+000
1.824237e+003,1.276794e+000
1.825201e+003,3.300354e+000
1.826166e+003,3.000732e+000
1.827130e+003,1.979614e+000
1.828094e+003,4.860229e-001
1.829058e+003,-5.973511e-001
1.830022e+003,-5.935669e-001
1.830987e+003,-1.445923e-001
1.831951e+003,7.675781e-001
1.832915e+003,1.415405e+000
1.833879e+003,1.651611e-001
1.834844e+003,-2.224731e+000
1.835808e+003,-3.002563e+000
1.836772e+003,-1.953613e+000
1.837736e+003,-2.140869e+000
1.838700e+003,-5.099182e+000
1.839665e+003,-7.545044e+000
1.840629e+003,-6.111694e+000
1.841593e+003,-2.726440e+000
1.842557e+003,-1.697388e+000
1.843522e+003,-3.003906e+000
1.844486e+003,-3.927979e+000
1.845450e+003,-4.232239e+000
1.846414e+003,-3.898315e+000
1.847379e+003,-2.963745e+000
1.848343e+003,-2.231812e+000
1.849307e+003,-1.057983e+000
1.850271e+003,-7.674561e-001
1.851236e+003,-3.425842e+000
1.852200e+003,-6.584045e+000
1.853164e+003,-7.070007e+000
1.854128e+003,-5.212463e+000
1.855093e+003,-2.662964e+000
1.856057e+003,-9.448242e-002
1.857021e+003,1.365967e+000
1.857985e+003,5.239868e-001
1.858949e+003,-1.587219e+000
1.859914e+003,-3.439575e+000
1.860878e+003,-4.851685e+000
1.861842e+003,-5.192200e+000
1.862806e+003,-4.537903e+000
1.863771e+003,-3.050049e+000
1.864735e+003,-4.403076e-001
1.865699e+003,9.688110e-001
1.866663e+003,-1.007690e-001
1.867627e+003,-1.697510e+000
1.868592e+003,-2.897644e+000
1.869556e+003,-3.476379e+000
1.870520e+003,-1.888489e+000
1.871484e+003,1.311218e+000
1.872449e+003,2.323914e+000
1.873413e+003,7.283936e-001
1.874377e+003,2.611694e-001
1.875341e+003,2.626831e+000
1.876306e+003,4.205688e+000
1.877270e+003,2.313416e+000
1.878234e+003,-7.637329e-001
1.879198e+003,-3.245056e+000
1.880163e+003,-4.666260e+000
1.881127e+003,-4.268494e+000
1.882091e+003,-2.372681e+000
1.883055e+003,-5.131226e-001
1.884020e+003,6.744995e-001
1.884984e+003,2.209717e+000
1.885948e+003,5.134277e+000
1.886912e+003,7.751221e+000
1.887876e+003,6.270203e+000
1.888841e+003,1.207947e+000
1.889805e+003,-1.189514e+000
1.890769e+003,-4.058228e-001
1.891733e+003,3.464966e-001
1.892698e+003,8.699341e-001
1.893662e+003,5.357666e-001
1.894626e+003,-1.734253e+000
1.895590e+003,-3.586548e+000
1.896554e+003,-2.616699e+000
1.897519e+003,-6.371460e-001
1.898483e+003,-4.270630e-001
1.899447e+003,-1.517273e+000
1.900411e+003,-9.374390e-001
1.901376e+003,2.018311e+000
1.902340e+003,4.233643e+000
1.903304e+003,4.522827e+000
1.904268e+003,3.723328e+000
1.905233e+003,1.754883e+000
1.906197e+003,-2.919312e-001
1.907161e+003,-1.558533e+000
1.908125e+003,-1.830383e+000
1.909090e+003,-7.220459e-001
1.910054e+003,1.259216e+000
1.911018e+003,3.169312e+000
1.911982e+003,4.629517e+000
1.912947e+003,4.639954e+000
1.913911e+003,2.385193e+000
1.914875e+003,-6.701660e-002
1.915839e+003,5.632324e-001
1.916803e+003,3.331970e+000
1.917768e+003,4.325073e+000
1.918732e+003,3.314575e+000
1.919696e+003,3.414978e+000
1.920660e+003,5.542725e+000
1.921625e+003,6.748230e+000
1.922589e+003,5.978577e+000
1.923553e+003,4.491028e+000
1.924517e+003,2.140625e+000
1.925481e+003,1.486816e-001
1.926446e+003,-1.821289e-001
1.927410e+003,5.581665e-001
1.928374e+003,1.353088e+000
1.929338e+003,1.885010e+000
1.930303e+003,1.422913e+000
1.931267e+003,-3.969727e-001
1.932231e+003,-1.311584e+000
1.933195e+003,2.719116e-001
1.934160e+003,1.840881e+000
1.935124e+003,1.145569e+000
1.936088e+003,-4.099121e-001
1.937052e+003,-6.986694e-001
1.938017e+003,-7.763672e-002
1.938981e+003,-1.029053e-001
1.939945e+003,-9.307251e-001
1.940909e+003,-1.473083e+000
1.941874e+003,-1.325439e+000
1.942838e+003,-1.264038e+000
1.943802e+003,-1.824646e+000
1.944766e+003,-2.253174e+000
1.945730e+003,-1.385376e+000
1.946695e+003,3.559570e-001
1.947659e+003,9.760742e-001
1.948623e+003,3.616943e-001
1.949587e+003,-1.150757e+000
1.950552e+003,-4.002136e+000
1.951516e+003,-5.005737e+000
1.952480e+003,-2.029663e+000
1.953444e+003,6.615601e-001
1.954408e+003,-4.985352e-001
1.955373e+003,-3.308472e+000
1.956337e+003,-4.722046e+000
1.957301e+003,-4.648132e+000
1.958265e+003,-3.511353e+000
1.959230e+003,-1.116943e+000
1.960194e+003,8.943481e-001
1.961158e+003,1.880127e+000
1.962122e+003,2.214111e+000
1.963087e+003,1.500977e+000
1.964051e+003,8.878174e-001
1.965015e+003,1.788940e+000
1.965979e+003,2.935120e+000
1.966944e+003,2.326294e+000
1.967908e+003,7.722778e-001
1.968872e+003,5.090332e-001
1.969836e+003,1.516235e+000
1.970801e+003,1.563782e+000
1.971765e+003,-1.816406e-001
1.972729e+003,-1.743408e+000
1.973693e+003,-1.554016e+000
1.974657e+003,-7.904053e-002
1.975622e+003,2.621155e+000
1.976586e+003,5.655518e+000
1.977550e+003,6.744263e+000
1.978514e+003,6.225708e+000
1.979479e+003,5.849243e+000
1.980443e+003,5.781982e+000
1.981407e+003,4.749146e+000
1.982371e+003,2.274597e+000
1.983335e+003,9.878540e-001
1.984300e+003,2.932556e+000
1.985264e+003,5.871155e+000
1.986228e+003,6.568420e+000
1.987192e+003,5.361206e+000
1.988157e+003,3.943420e+000
1.989121e+003,2.187866e+000
1.990085e+003,1.477478e+000
1.991049e+003,2.395874e+000
1.992014e+003,3.500183e+000
1.992978e+003,5.155334e+000
1.993942e+003,5.932251e+000
1.994906e+003,4.459290e+000
1.995871e+003,2.879395e+000
1.996835e+003,2.997559e+000
1.997799e+003,4.037415e+000
1.998763e+003,4.700195e+000
1.999728e+003,4.851257e+000
