5.003444e+002,4.760643e+001
5.013087e+002,4.639735e+001
5.022729e+002,4.429544e+001
5.032371e+002,4.189743e+001
5.042014e+002,4.057703e+001
5.051656e+002,4.023439e+001
5.061298e+002,4.045869e+001
5.070941e+002,4.091460e+001
5.080583e+002,4.163959e+001
5.090225e+002,4.194548e+001
5.099868e+002,4.199141e+001
5.109510e+002,4.162688e+001
5.119152e+002,4.036031e+001
5.128795e+002,3.808076e+001
5.138437e+002,3.690659e+001
5.148079e+002,3.876082e+001
5.157722e+002,4.081175e+001
5.167364e+002,4.201425e+001
5.177006e+002,4.211800e+001
5.186649e+002,4.152441e+001
5.196291e+002,4.058058e+001
5.205933e+002,3.948128e+001
5.215576e+002,3.815060e+001
5.225218e+002,3.654942e+001
5.234860e+002,3.483138e+001
5.244503e+002,3.336580e+001
5.254145e+002,3.236380e+001
5.263787e+002,3.185625e+001
5.273430e+002,3.220715e+001
5.283072e+002,3.280574e+001
5.292714e+002,3.265404e+001
5.302357e+002,3.088742e+001
5.311999e+002,2.992480e+001
5.321641e+002,3.076270e+001
5.331284e+002,3.208385e+001
5.340926e+002,3.289107e+001
5.350568e+002,3.275879e+001
5.360211e+002,3.202673e+001
5.369853e+002,3.083417e+001
5.379495e+002,2.960747e+001
5.389138e+002,2.871622e+001
5.398780e+002,2.824762e+001
5.408422e+002,2.795067e+001
5.418065e+002,2.706908e+001
5.427707e+002,2.571133e+001
5.437349e+002,2.466684e+001
5.446992e+002,2.416302e+001
5.456634e+002,2.406732e+001
5.466276e+002,2.394684e+001
5.475919e+002,2.363776e+001
5.485561e+002,2.363957e+001
5.495203e+002,2.420450e+001
5.504846e+002,2.491882e+001
5.514488e+002,2.520544e+001
5.524130e+002,2.476289e+001
5.533773e+002,2.426999e+001
5.543415e+002,2.412343e+001
5.553057e+002,2.410832e+001
5.562700e+002,2.393893e+001
5.572342e+002,2.342841e+001
5.581984e+002,2.279114e+001
5.591627e+002,2.268645e+001
5.601269e+002,2.298576e+001
5.610911e+002,2.342188e+001
5.620554e+002,2.387004e+001
5.630196e+002,2.419716e+001
5.639838e+002,2.351643e+001
5.649481e+002,2.113716e+001
5.659123e+002,1.878961e+001
5.668765e+002,1.657510e+001
5.678408e+002,1.471617e+001
5.688050e+002,1.370171e+001
5.697692e+002,1.389978e+001
5.707335e+002,1.441965e+001
5.716977e+002,1.538795e+001
5.726619e+002,1.643565e+001
5.736262e+002,1.717232e+001
5.745904e+002,1.736790e+001
5.755546e+002,1.705925e+001
5.765189e+002,1.581042e+001
5.774831e+002,1.412903e+001
5.784473e+002,1.324734e+001
5.794116e+002,1.404181e+001
5.803758e+002,1.632872e+001
5.813400e+002,1.667305e+001
5.823043e+002,1.428358e+001
5.832685e+002,1.224745e+001
5.842327e+002,1.194487e+001
5.851970e+002,1.315874e+001
5.861612e+002,1.401134e+001
5.871254e+002,1.362929e+001
5.880897e+002,1.341801e+001
5.890539e+002,1.391582e+001
5.900181e+002,1.465001e+001
5.909824e+002,1.475781e+001
5.919466e+002,1.348878e+001
5.929108e+002,1.201550e+001
5.938751e+002,1.176640e+001
5.948393e+002,1.214803e+001
5.958035e+002,1.206610e+001
5.967678e+002,1.076094e+001
5.977320e+002,8.668640e+000
5.986962e+002,9.592636e+000
5.996605e+002,1.355266e+001
6.006247e+002,1.642960e+001
6.015889e+002,1.575731e+001
6.025532e+002,1.184943e+001
6.035174e+002,9.256470e+000
6.044816e+002,9.013916e+000
6.054459e+002,9.193512e+000
6.064101e+002,9.849579e+000
6.073743e+002,1.069638e+001
6.083386e+002,1.137750e+001
6.093028e+002,1.181741e+001
6.102670e+002,1.182970e+001
6.112313e+002,1.108002e+001
6.121955e+002,9.984985e+000
6.131597e+002,8.981995e+000
6.141240e+002,8.382385e+000
6.150882e+002,8.220261e+000
6.160524e+002,9.292435e+000
6.170167e+002,1.141325e+001
6.179809e+002,1.239357e+001
6.189451e+002,1.070001e+001
6.199094e+002,6.799118e+000
6.208736e+002,4.694077e+000
6.218378e+002,6.544586e+000
6.228021e+002,8.082352e+000
6.237663e+002,8.850037e+000
6.247305e+002,9.150070e+000
6.256948e+002,9.483444e+000
6.266590e+002,9.972748e+000
6.276232e+002,1.039484e+001
6.285875e+002,1.097350e+001
6.295517e+002,1.141588e+001
6.305159e+002,1.124585e+001
6.314802e+002,1.021532e+001
6.324444e+002,8.713593e+000
6.334086e+002,7.995941e+000
6.343729e+002,7.891251e+000
6.353371e+002,7.793472e+000
6.363013e+002,7.458130e+000
6.372656e+002,6.943848e+000
6.382298e+002,6.559036e+000
6.391940e+002,6.874313e+000
6.401583e+002,6.402298e+000
6.411225e+002,4.709381e+000
6.420867e+002,2.651199e+000
6.430510e+002,1.011551e+000
6.440152e+002,-2.368317e-001
6.449794e+002,-5.639038e-001
6.459437e+002,1.219009e+000
6.469079e+002,3.204086e+000
6.478721e+002,3.747253e+000
6.488364e+002,2.408752e+000
6.498006e+002,3.690948e-001
6.507648e+002,-5.808716e-001
6.517291e+002,-5.957489e-001
6.526933e+002,3.054352e-001
6.536575e+002,2.174850e+000
6.546218e+002,4.447311e+000
6.555860e+002,6.077789e+000
6.565502e+002,6.917755e+000
6.575145e+002,7.181625e+000
6.584787e+002,6.705002e+000
6.594429e+002,5.892227e+000
6.604072e+002,5.049591e+000
6.613714e+002,4.227600e+000
6.623356e+002,3.247360e+000
6.632999e+002,1.321899e+000
6.642641e+002,-3.169556e-001
6.652283e+002,-9.558258e-001
6.661926e+002,-4.990845e-001
6.671568e+002,8.775940e-001
6.681210e+002,3.478134e+000
6.690853e+002,6.164337e+000
6.700495e+002,5.980255e+000
6.710137e+002,3.064484e+000
6.719780e+002,-1.869354e-001
6.729422e+002,-1.241928e+000
6.739064e+002,2.967529e-001
6.748707e+002,1.675705e+000
6.758349e+002,3.072830e+000
6.767991e+002,4.128159e+000
6.777634e+002,4.782608e+000
6.787276e+002,5.096878e+000
6.796918e+002,5.102921e+000
6.806561e+002,4.218063e+000
6.816203e+002,3.478806e+000
6.825845e+002,3.401474e+000
6.835488e+002,3.730743e+000
6.845130e+002,4.211990e+000
6.854772e+002,4.775192e+000
6.864415e+002,4.885452e+000
6.874057e+002,2.657898e+000
6.883699e+002,-1.121796e+000
6.893342e+002,-4.299576e+000
6.902984e+002,-5.678787e+000
6.912626e+002,-5.314087e+000
6.922269e+002,-3.797012e+000
6.931911e+002,1.222717e+000
6.941553e+002,4.411102e+000
6.951196e+002,3.928589e+000
6.960838e+002,1.701706e+000
6.970480e+002,1.013916e+000
6.980123e+002,3.337967e+000
6.989765e+002,5.286453e+000
6.999407e+002,5.695526e+000
7.009050e+002,5.092743e+000
7.018692e+002,3.320267e+000
7.028334e+002,6.088867e-001
7.037977e+002,-1.836884e+000
7.047619e+002,-1.519806e+000
7.057261e+002,4.524231e-001
7.066904e+002,1.632538e+000
7.076546e+002,1.627182e+000
7.086188e+002,1.161331e+000
7.095831e+002,1.408447e+000
7.105473e+002,2.767151e+000
7.115115e+002,3.368073e+000
7.124758e+002,2.931320e+000
7.134400e+002,2.139603e+000
7.144042e+002,1.328766e+000
7.153685e+002,5.681763e-001
7.163327e+002,-6.144714e-002
7.172969e+002,-8.541870e-001
7.182612e+002,-1.115906e+000
7.192254e+002,-6.072998e-002
7.201896e+002,1.697037e+000
7.211539e+002,2.982224e+000
7.221181e+002,2.799149e+000
7.230823e+002,1.614639e+000
7.240466e+002,6.223297e-001
7.250108e+002,-9.880066e-002
7.259750e+002,-3.615875e-001
7.269393e+002,-8.114624e-002
7.279035e+002,5.607910e-001
7.288677e+002,8.446503e-001
7.298320e+002,7.540894e-002
7.307962e+002,2.530518e-001
7.317604e+002,2.597351e+000
7.327247e+002,5.560791e+000
7.336889e+002,6.820557e+000
7.346531e+002,5.304077e+000
7.356174e+002,3.051620e+000
7.365816e+002,5.607147e-001
7.375458e+002,-1.293823e+000
7.385101e+002,-1.517044e+000
7.394743e+002,-7.646179e-002
7.404385e+002,1.991440e+000
7.414028e+002,3.215073e+000
7.423670e+002,3.423950e+000
7.433312e+002,2.861298e+000
7.442955e+002,1.555222e+000
7.452597e+002,6.471405e-001
7.462239e+002,1.559723e+000
7.471882e+002,4.892197e+000
7.481524e+002,7.247681e+000
7.491166e+002,8.757431e+000
7.500809e+002,9.108414e+000
7.510451e+002,7.390503e+000
7.520093e+002,4.283737e+000
7.529736e+002,2.051514e+000
7.539378e+002,2.296173e+000
7.549020e+002,3.138031e+000
7.558663e+002,3.581131e+000
7.568306e+002,3.648712e+000
7.577948e+002,3.143112e+000
7.587590e+002,1.997940e+000
7.597233e+002,7.475586e-001
7.606875e+002,1.740494e+000
7.616517e+002,4.700668e+000
7.626160e+002,6.512070e+000
7.635802e+002,6.115723e+000
7.645444e+002,4.472168e+000
7.655087e+002,3.539810e+000
7.664729e+002,3.646042e+000
7.674371e+002,3.747803e+000
7.684014e+002,3.780350e+000
7.693656e+002,3.759323e+000
7.703298e+002,3.633118e+000
7.712941e+002,3.444229e+000
7.722583e+002,3.448929e+000
7.732225e+002,4.100113e+000
7.741868e+002,4.751099e+000
7.751510e+002,4.905014e+000
7.761152e+002,4.625427e+000
7.770795e+002,4.009140e+000
7.780437e+002,3.115112e+000
7.790079e+002,2.079544e+000
7.799722e+002,2.703186e+000
7.809364e+002,5.127441e+000
7.819006e+002,7.132568e+000
7.828649e+002,7.842758e+000
7.838291e+002,7.594757e+000
7.847933e+002,7.289749e+000
7.857576e+002,6.475739e+000
7.867218e+002,6.203629e+000
7.876860e+002,7.440536e+000
7.886503e+002,8.835876e+000
7.896145e+002,9.003799e+000
7.905787e+002,7.681030e+000
7.915430e+002,6.388855e+000
7.925072e+002,7.051163e+000
7.934714e+002,8.312561e+000
7.944357e+002,8.945541e+000
7.953999e+002,8.869690e+000
7.963641e+002,8.242508e+000
7.973284e+002,7.133377e+000
7.982926e+002,5.449997e+000
7.992568e+002,5.468781e+000
8.002211e+002,8.108673e+000
8.011853e+002,1.000511e+001
8.021495e+002,9.690414e+000
8.031138e+002,7.876984e+000
8.040780e+002,6.699966e+000
8.050422e+002,6.638397e+000
8.060065e+002,6.844437e+000
8.069707e+002,7.169403e+000
8.079349e+002,7.389801e+000
8.088992e+002,7.231796e+000
8.098634e+002,6.690048e+000
8.108276e+002,6.231995e+000
8.117919e+002,6.574402e+000
8.127561e+002,7.241608e+000
8.137203e+002,7.749939e+000
8.146846e+002,8.120834e+000
8.156488e+002,8.012085e+000
8.166130e+002,6.773575e+000
8.175773e+002,3.930832e+000
8.185415e+002,2.697418e+000
8.195057e+002,3.630997e+000
8.204700e+002,4.941147e+000
8.214342e+002,6.680466e+000
8.223984e+002,8.344803e+000
8.233627e+002,8.551514e+000
8.243269e+002,6.030273e+000
8.252911e+002,3.654358e+000
8.262554e+002,2.713409e+000
8.272196e+002,2.882248e+000
8.281838e+002,4.259705e+000
8.291481e+002,6.611343e+000
8.301123e+002,9.040359e+000
8.310765e+002,9.940796e+000
8.320408e+002,9.273834e+000
8.330050e+002,8.080399e+000
8.339692e+002,6.154633e+000
8.349335e+002,4.569931e+000
8.358977e+002,4.816376e+000
8.368619e+002,7.353989e+000
8.378262e+002,8.693863e+000
8.387904e+002,7.384659e+000
8.397546e+002,6.273575e+000
8.407189e+002,6.199844e+000
8.416831e+002,6.779266e+000
8.426473e+002,7.286194e+000
8.436116e+002,7.446945e+000
8.445758e+002,7.328903e+000
8.455400e+002,6.647308e+000
8.465043e+002,5.734283e+000
8.474685e+002,5.045868e+000
8.484327e+002,4.802261e+000
8.493970e+002,5.018448e+000
8.503612e+002,5.632477e+000
8.513254e+002,6.713669e+000
8.522897e+002,7.290207e+000
8.532539e+002,6.946304e+000
8.542181e+002,6.580124e+000
8.551824e+002,6.754929e+000
8.561466e+002,7.535904e+000
8.571108e+002,8.754410e+000
8.580751e+002,1.082722e+001
8.590393e+002,1.222693e+001
8.600035e+002,1.194147e+001
8.609678e+002,1.119476e+001
8.619320e+002,1.158780e+001
8.628962e+002,1.365662e+001
8.638605e+002,1.594127e+001
8.648247e+002,1.596049e+001
8.657889e+002,1.459271e+001
8.667532e+002,1.377797e+001
8.677174e+002,1.376651e+001
8.686816e+002,1.388036e+001
8.696459e+002,1.321675e+001
8.706101e+002,1.153621e+001
8.715743e+002,1.137553e+001
8.725386e+002,1.441194e+001
8.735028e+002,1.671423e+001
8.744670e+002,1.659181e+001
8.754313e+002,1.510277e+001
8.763955e+002,1.439728e+001
8.773597e+002,1.532751e+001
8.783240e+002,1.674771e+001
8.792882e+002,1.771495e+001
8.802524e+002,1.870123e+001
8.812167e+002,2.054283e+001
8.821809e+002,2.309901e+001
8.831451e+002,2.518704e+001
8.841094e+002,2.522495e+001
8.850736e+002,2.334367e+001
8.860378e+002,2.203595e+001
8.870021e+002,2.113791e+001
8.879663e+002,2.094139e+001
8.889305e+002,2.205315e+001
8.898948e+002,2.408536e+001
8.908590e+002,2.508235e+001
8.918232e+002,2.397510e+001
8.927875e+002,2.357791e+001
8.937517e+002,2.508519e+001
8.947159e+002,2.702315e+001
8.956802e+002,2.808464e+001
8.966444e+002,2.796263e+001
8.976086e+002,2.733672e+001
8.985729e+002,2.662616e+001
8.995371e+002,2.634387e+001
9.005013e+002,2.763580e+001
9.014656e+002,3.014812e+001
9.024298e+002,3.192816e+001
9.033940e+002,3.133578e+001
9.043583e+002,2.867378e+001
9.053225e+002,2.700868e+001
9.062867e+002,2.692473e+001
9.072510e+002,2.709027e+001
9.082152e+002,2.781660e+001
9.091794e+002,2.877754e+001
9.101437e+002,2.958455e+001
9.111079e+002,3.016275e+001
9.120721e+002,3.090112e+001
9.130364e+002,3.274117e+001
9.140006e+002,3.395877e+001
9.149648e+002,3.289839e+001
9.159291e+002,3.058180e+001
9.168933e+002,2.915726e+001
9.178575e+002,3.006514e+001
9.188218e+002,3.244670e+001
9.197860e+002,3.363399e+001
9.207502e+002,3.362141e+001
9.217145e+002,3.266801e+001
9.226787e+002,3.030600e+001
9.236429e+002,2.771866e+001
9.246072e+002,2.651353e+001
9.255714e+002,2.687407e+001
9.265356e+002,2.723741e+001
9.274999e+002,2.767657e+001
9.284641e+002,2.763934e+001
9.294283e+002,2.653201e+001
9.303926e+002,2.496866e+001
9.313568e+002,2.392424e+001
9.323210e+002,2.388942e+001
9.332853e+002,2.451387e+001
9.342495e+002,2.612585e+001
9.352137e+002,2.780554e+001
9.361780e+002,2.772771e+001
9.371422e+002,2.561087e+001
9.381064e+002,2.297301e+001
9.390707e+002,2.175299e+001
9.400349e+002,2.203224e+001
9.409991e+002,2.250403e+001
9.419634e+002,2.327190e+001
9.429276e+002,2.402069e+001
9.438918e+002,2.531851e+001
9.448561e+002,2.637801e+001
9.458203e+002,2.556493e+001
9.467845e+002,2.205380e+001
9.477488e+002,1.871162e+001
9.487130e+002,1.778049e+001
9.496772e+002,1.780435e+001
9.506415e+002,1.787521e+001
9.516057e+002,1.781689e+001
9.525699e+002,1.782005e+001
9.535342e+002,1.806277e+001
9.544984e+002,1.847275e+001
9.554626e+002,1.874052e+001
9.564269e+002,1.898990e+001
9.573911e+002,1.923035e+001
9.583553e+002,1.984712e+001
9.593196e+002,2.022961e+001
9.602838e+002,1.900484e+001
9.612480e+002,1.543846e+001
9.622123e+002,1.305580e+001
9.631765e+002,1.363916e+001
9.641407e+002,1.487454e+001
9.651050e+002,1.626291e+001
9.660692e+002,1.731520e+001
9.670334e+002,1.740959e+001
9.679977e+002,1.618947e+001
9.689619e+002,1.438257e+001
9.699261e+002,1.293855e+001
9.708904e+002,1.193475e+001
9.718546e+002,1.230305e+001
9.728188e+002,1.438107e+001
9.737831e+002,1.718678e+001
9.747473e+002,1.962234e+001
9.757115e+002,2.176866e+001
9.766758e+002,2.322816e+001
9.776400e+002,2.430725e+001
9.786042e+002,2.447652e+001
9.795685e+002,2.299353e+001
9.805327e+002,2.064236e+001
9.814969e+002,1.843944e+001
9.824612e+002,1.678311e+001
9.834254e+002,1.547581e+001
9.843896e+002,1.448161e+001
9.853539e+002,1.345869e+001
9.863181e+002,1.169896e+001
9.872823e+002,9.400101e+000
9.882466e+002,7.785660e+000
9.892108e+002,8.018051e+000
9.901750e+002,9.885849e+000
9.911393e+002,1.095982e+001
9.921035e+002,1.003427e+001
9.930677e+002,9.778854e+000
9.940320e+002,1.104088e+001
9.949962e+002,1.260519e+001
9.959604e+002,1.332240e+001
9.969247e+002,1.314500e+001
9.978889e+002,1.294206e+001
9.988531e+002,1.331215e+001
9.998174e+002,1.318515e+001
1.000782e+003,1.149095e+001
1.001746e+003,9.220474e+000
1.002710e+003,7.757126e+000
1.003674e+003,7.682877e+000
1.004639e+003,8.500626e+000
1.005603e+003,9.435638e+000
1.006567e+003,1.046912e+001
1.007531e+003,1.058000e+001
1.008495e+003,9.108124e+000
1.009460e+003,8.079865e+000
1.010424e+003,9.526993e+000
1.011388e+003,1.256927e+001
1.012352e+003,1.330583e+001
1.013317e+003,9.888474e+000
1.014281e+003,6.824493e+000
1.015245e+003,5.440491e+000
1.016209e+003,4.814941e+000
1.017174e+003,4.282867e+000
1.018138e+003,3.842331e+000
1.019102e+003,4.203598e+000
1.020066e+003,6.187134e+000
1.021031e+003,8.678329e+000
1.021995e+003,7.572647e+000
1.022959e+003,3.608032e+000
1.023923e+003,7.523346e-001
1.024887e+003,5.319214e-001
1.025852e+003,1.551880e+000
1.026816e+003,1.583221e+000
1.027780e+003,3.813782e-001
1.028744e+003,-3.360138e-001
1.029709e+003,-2.359314e-001
1.030673e+003,7.873535e-002
1.031637e+003,5.722351e-001
1.032601e+003,1.070679e+000
1.033566e+003,1.335999e+000
1.034530e+003,1.322525e+000
1.035494e+003,1.405090e+000
1.036458e+003,2.177872e+000
1.037422e+003,3.123367e+000
1.038387e+003,3.413620e+000
1.039351e+003,3.021866e+000
1.040315e+003,2.260666e+000
1.041279e+003,1.349396e+000
1.042244e+003,3.712311e-001
1.043208e+003,-4.378815e-001
1.044172e+003,-1.290375e+000
1.045136e+003,-1.694901e+000
1.046101e+003,-1.336212e+000
1.047065e+003,-7.908630e-001
1.048029e+003,-4.585571e-001
1.048993e+003,-3.110962e-001
1.049958e+003,-8.966064e-002
1.050922e+003,2.903748e-001
1.051886e+003,1.038086e+000
1.052850e+003,3.097229e+000
1.053814e+003,5.260635e+000
1.054779e+003,5.634766e+000
1.055743e+003,3.960129e+000
1.056707e+003,1.698776e+000
1.057671e+003,6.175995e-001
1.058636e+003,7.082520e-001
1.059600e+003,4.686432e-001
1.060564e+003,-6.513062e-001
1.061528e+003,-1.089661e+000
1.062493e+003,-3.618927e-001
1.063457e+003,8.114166e-001
1.064421e+003,1.950607e+000
1.065385e+003,2.996170e+000
1.066349e+003,3.244553e+000
1.067314e+003,1.670334e+000
1.068278e+003,-3.425598e-002
1.069242e+003,-9.283142e-001
1.070206e+003,-1.017410e+000
1.071171e+003,-1.151886e-001
1.072135e+003,1.658737e+000
1.073099e+003,3.410843e+000
1.074063e+003,3.645126e+000
1.075028e+003,2.200317e+000
1.075992e+003,1.598557e+000
1.076956e+003,2.250305e+000
1.077920e+003,2.755325e+000
1.078885e+003,2.672104e+000
1.079849e+003,2.201355e+000
1.080813e+003,1.502182e+000
1.081777e+003,4.770966e-001
1.082741e+003,-4.115295e-002
1.083706e+003,6.707611e-001
1.084670e+003,1.608337e+000
1.085634e+003,2.433868e+000
1.086598e+003,3.025024e+000
1.087563e+003,3.403122e+000
1.088527e+003,3.585876e+000
1.089491e+003,3.363205e+000
1.090455e+003,2.046967e+000
1.091420e+003,-5.828247e-001
1.092384e+003,-1.913925e+000
1.093348e+003,-1.457184e+000
1.094312e+003,-7.675323e-001
1.095276e+003,-8.512573e-001
1.096241e+003,-1.296768e+000
1.097205e+003,-7.943420e-001
1.098169e+003,1.320663e+000
1.099133e+003,2.687515e+000
1.100098e+003,2.047897e+000
1.101062e+003,8.818359e-001
1.102026e+003,-5.164948e-001
1.102990e+003,-1.588211e+000
1.103955e+003,-1.184158e+000
1.104919e+003,1.324982e+000
1.105883e+003,4.415268e+000
1.106847e+003,4.659485e+000
1.107812e+003,1.975250e+000
1.108776e+003,2.713470e-001
1.109740e+003,-1.668854e-001
1.110704e+003,1.187439e-001
1.111668e+003,1.302612e+000
1.112633e+003,3.071503e+000
1.113597e+003,3.675034e+000
1.114561e+003,2.284805e+000
1.115525e+003,1.120529e+000
1.116490e+003,8.589020e-001
1.117454e+003,9.942780e-001
1.118418e+003,1.658661e+000
1.119382e+003,2.489609e+000
1.120347e+003,2.604446e+000
1.121311e+003,1.404251e+000
1.122275e+003,-4.116516e-001
1.123239e+003,-1.258575e+000
1.124203e+003,-1.057205e+000
1.125168e+003,-4.379425e-001
1.126132e+003,7.927856e-001
1.127096e+003,1.898697e+000
1.128060e+003,2.077499e+000
1.129025e+003,1.553986e+000
1.129989e+003,1.610092e+000
1.130953e+003,2.707321e+000
1.131917e+003,3.424301e+000
1.132882e+003,3.343079e+000
1.133846e+003,2.945251e+000
1.134810e+003,2.169342e+000
1.135774e+003,1.376923e+000
1.136739e+003,1.308701e+000
1.137703e+003,2.355286e+000
1.138667e+003,3.793655e+000
1.139631e+003,4.318161e+000
1.140595e+003,4.029480e+000
1.141560e+003,4.189743e+000
1.142524e+003,5.040421e+000
1.143488e+003,5.896362e+000
1.144452e+003,5.670227e+000
1.145417e+003,5.023560e+000
1.146381e+003,6.745026e+000
1.147345e+003,1.214429e+001
1.148309e+003,1.646291e+001
1.149274e+003,1.789238e+001
1.150238e+003,1.877924e+001
1.151202e+003,2.002806e+001
1.152166e+003,2.177773e+001
1.153130e+003,2.410535e+001
1.154095e+003,2.690930e+001
1.155059e+003,2.945245e+001
1.156023e+003,3.077660e+001
1.156987e+003,3.096635e+001
1.157952e+003,3.102888e+001
1.158916e+003,3.124651e+001
1.159880e+003,3.061778e+001
1.160844e+003,2.796992e+001
1.161809e+003,2.405875e+001
1.162773e+003,2.079070e+001
1.163737e+003,1.828885e+001
1.164701e+003,1.596333e+001
1.165666e+003,1.407478e+001
1.166630e+003,1.200084e+001
1.167594e+003,8.912720e+000
1.168558e+003,5.740265e+000
1.169522e+003,3.760635e+000
1.170487e+003,3.329025e+000
1.171451e+003,3.810257e+000
1.172415e+003,4.578476e+000
1.173379e+003,5.506287e+000
1.174344e+003,6.233536e+000
1.175308e+003,6.910370e+000
1.176272e+003,6.543533e+000
1.177236e+003,3.932709e+000
1.178201e+003,8.423615e-001
1.179165e+003,-3.145447e-001
1.180129e+003,4.312897e-001
1.181093e+003,6.924591e-001
1.182057e+003,-5.757446e-001
1.183022e+003,-1.443069e+000
1.183986e+003,-4.332581e-001
1.184950e+003,7.523193e-001
1.185914e+003,-8.413696e-002
1.186879e+003,-2.595276e+000
1.187843e+003,-4.195694e+000
1.188807e+003,-2.770523e+000
1.189771e+003,5.555573e-001
1.190736e+003,2.602325e+000
1.191700e+003,3.273880e+000
1.192664e+003,3.252228e+000
1.193628e+003,2.232178e+000
1.194593e+003,1.087234e+000
1.195557e+003,3.611603e-001
1.196521e+003,-1.768494e-002
1.197485e+003,-2.177429e-001
1.198449e+003,-1.672668e-001
1.199414e+003,-1.977539e-001
1.200378e+003,-2.799225e-001
1.201342e+003,-6.390228e-001
1.202306e+003,-1.562729e+000
1.203271e+003,-2.914993e+000
1.204235e+003,-4.554504e+000
1.205199e+003,-6.309692e+000
1.206163e+003,-7.697876e+000
1.207128e+003,-7.854843e+000
1.208092e+003,-6.686188e+000
1.209056e+003,-6.136108e+000
1.210020e+003,-6.370438e+000
1.210984e+003,-6.744812e+000
1.211949e+003,-7.068436e+000
1.212913e+003,-7.470108e+000
1.213877e+003,-8.173492e+000
1.214841e+003,-9.155563e+000
1.215806e+003,-9.873108e+000
1.216770e+003,-9.661697e+000
1.217734e+003,-9.937698e+000
1.218698e+003,-1.272221e+001
1.219663e+003,-1.593202e+001
1.220627e+003,-1.666195e+001
1.221591e+003,-1.470797e+001
1.222555e+003,-1.220982e+001
1.223520e+003,-1.112073e+001
1.224484e+003,-1.116584e+001
1.225448e+003,-1.113274e+001
1.226412e+003,-1.070161e+001
1.227376e+003,-1.104192e+001
1.228341e+003,-1.337519e+001
1.229305e+003,-1.513550e+001
1.230269e+003,-1.429220e+001
1.231233e+003,-1.206993e+001
1.232198e+003,-1.115880e+001
1.233162e+003,-1.228571e+001
1.234126e+003,-1.333522e+001
1.235090e+003,-1.262114e+001
1.236055e+003,-1.133784e+001
1.237019e+003,-1.055241e+001
1.237983e+003,-1.031831e+001
1.238947e+003,-1.064852e+001
1.239911e+003,-1.150787e+001
1.240876e+003,-1.267095e+001
1.241840e+003,-1.397506e+001
1.242804e+003,-1.549085e+001
1.243768e+003,-1.581257e+001
1.244733e+003,-1.341634e+001
1.245697e+003,-1.181332e+001
1.246661e+003,-1.158672e+001
1.247625e+003,-1.205881e+001
1.248590e+003,-1.292931e+001
1.249554e+003,-1.394388e+001
1.250518e+003,-1.483913e+001
1.251482e+003,-1.556924e+001
1.252447e+003,-1.585485e+001
1.253411e+003,-1.512698e+001
1.254375e+003,-1.369565e+001
1.255339e+003,-1.206521e+001
1.256303e+003,-1.028584e+001
1.257268e+003,-9.154343e+000
1.258232e+003,-9.379646e+000
1.259196e+003,-1.032185e+001
1.260160e+003,-1.062167e+001
1.261125e+003,-1.016428e+001
1.262089e+003,-9.376221e+000
1.263053e+003,-7.549622e+000
1.264017e+003,-6.500351e+000
1.264982e+003,-7.152679e+000
1.265946e+003,-8.339905e+000
1.266910e+003,-9.057404e+000
1.267874e+003,-9.186371e+000
1.268839e+003,-9.052742e+000
1.269803e+003,-8.856941e+000
1.270767e+003,-8.755699e+000
1.271731e+003,-9.083931e+000
1.272695e+003,-9.812286e+000
1.273660e+003,-1.056220e+001
1.274624e+003,-1.156274e+001
1.275588e+003,-1.221715e+001
1.276552e+003,-1.178235e+001
1.277517e+003,-1.085586e+001
1.278481e+003,-1.069691e+001
1.279445e+003,-1.144493e+001
1.280409e+003,-1.222320e+001
1.281374e+003,-1.309798e+001
1.282338e+003,-1.341690e+001
1.283302e+003,-1.256792e+001
1.284266e+003,-1.123122e+001
1.285230e+003,-1.012031e+001
1.286195e+003,-9.384338e+000
1.287159e+003,-8.714806e+000
1.288123e+003,-7.833717e+000
1.289087e+003,-6.919121e+000
1.290052e+003,-6.638779e+000
1.291016e+003,-7.125580e+000
1.291980e+003,-8.101913e+000
1.292944e+003,-1.012094e+001
1.293909e+003,-1.198272e+001
1.294873e+003,-1.349397e+001
1.295837e+003,-1.433864e+001
1.296801e+003,-1.360630e+001
1.297766e+003,-1.139554e+001
1.298730e+003,-1.008759e+001
1.299694e+003,-1.139914e+001
1.300658e+003,-1.330573e+001
1.301622e+003,-1.355946e+001
1.302587e+003,-1.282188e+001
1.303551e+003,-1.200181e+001
1.304515e+003,-1.127911e+001
1.305479e+003,-1.061349e+001
1.306444e+003,-9.975777e+000
1.307408e+003,-9.464348e+000
1.308372e+003,-9.383560e+000
1.309336e+003,-9.944748e+000
1.310301e+003,-1.030004e+001
1.311265e+003,-1.021099e+001
1.312229e+003,-1.008758e+001
1.313193e+003,-1.001809e+001
1.314157e+003,-1.001778e+001
1.315122e+003,-9.964233e+000
1.316086e+003,-9.975464e+000
1.317050e+003,-1.061559e+001
1.318014e+003,-1.230851e+001
1.318979e+003,-1.403917e+001
1.319943e+003,-1.362285e+001
1.320907e+003,-1.143271e+001
1.321871e+003,-1.134361e+001
1.322836e+003,-1.439872e+001
1.323800e+003,-1.664149e+001
1.324764e+003,-1.518050e+001
1.325728e+003,-1.199037e+001
1.326693e+003,-1.066233e+001
1.327657e+003,-1.136765e+001
1.328621e+003,-1.138469e+001
1.329585e+003,-9.437218e+000
1.330549e+003,-7.293373e+000
1.331514e+003,-5.352402e+000
1.332478e+003,-4.289703e+000
1.333442e+003,-5.318123e+000
1.334406e+003,-7.817780e+000
1.335371e+003,-9.677635e+000
1.336335e+003,-9.654831e+000
1.337299e+003,-8.964348e+000
1.338263e+003,-1.008765e+001
1.339228e+003,-1.347549e+001
1.340192e+003,-1.435032e+001
1.341156e+003,-1.079478e+001
1.342120e+003,-7.745308e+000
1.343084e+003,-5.500710e+000
1.344049e+003,-4.464912e+000
1.345013e+003,-5.753448e+000
1.345977e+003,-8.417580e+000
1.346941e+003,-9.820427e+000
1.347906e+003,-8.989182e+000
1.348870e+003,-7.372971e+000
1.349834e+003,-5.979530e+000
1.350798e+003,-4.983978e+000
1.351763e+003,-4.542259e+000
1.352727e+003,-4.611313e+000
1.353691e+003,-5.146591e+000
1.354655e+003,-6.308304e+000
1.355620e+003,-7.285255e+000
1.356584e+003,-6.500420e+000
1.357548e+003,-4.326332e+000
1.358512e+003,-4.690292e+000
1.359476e+003,-9.224899e+000
1.360441e+003,-1.257024e+001
1.361405e+003,-1.294675e+001
1.362369e+003,-1.226196e+001
1.363333e+003,-1.081797e+001
1.364298e+003,-9.179298e+000
1.365262e+003,-7.925835e+000
1.366226e+003,-7.210815e+000
1.367190e+003,-6.855324e+000
1.368155e+003,-6.706787e+000
1.369119e+003,-6.680984e+000
1.370083e+003,-6.463379e+000
1.371047e+003,-5.830177e+000
1.372011e+003,-5.944145e+000
1.372976e+003,-7.415756e+000
1.373940e+003,-8.923630e+000
1.374904e+003,-1.036159e+001
1.375868e+003,-1.127848e+001
1.376833e+003,-1.080390e+001
1.377797e+003,-9.120804e+000
1.378761e+003,-7.761696e+000
1.379725e+003,-7.415703e+000
1.380690e+003,-7.368240e+000
1.381654e+003,-6.729080e+000
1.382618e+003,-5.992546e+000
1.383582e+003,-5.960640e+000
1.384547e+003,-6.594208e+000
1.385511e+003,-7.288536e+000
1.386475e+003,-7.813461e+000
1.387439e+003,-8.109840e+000
1.388403e+003,-8.002388e+000
1.389368e+003,-7.498726e+000
1.390332e+003,-7.015427e+000
1.391296e+003,-6.439445e+000
1.392260e+003,-6.056969e+000
1.393225e+003,-5.872635e+000
1.394189e+003,-5.956375e+000
1.395153e+003,-6.536690e+000
1.396117e+003,-7.327835e+000
1.397082e+003,-7.990189e+000
1.398046e+003,-8.359177e+000
1.399010e+003,-8.339317e+000
1.399974e+003,-7.861893e+000
1.400938e+003,-7.160889e+000
1.401903e+003,-6.750809e+000
1.402867e+003,-6.446526e+000
1.403831e+003,-6.639740e+000
1.404795e+003,-8.366745e+000
1.405760e+003,-9.345734e+000
1.406724e+003,-8.248001e+000
1.407688e+003,-6.578705e+000
1.408652e+003,-6.064163e+000
1.409617e+003,-6.586777e+000
1.410581e+003,-6.903717e+000
1.411545e+003,-6.516068e+000
1.412509e+003,-5.901047e+000
1.413474e+003,-5.581726e+000
1.414438e+003,-5.383659e+000
1.415402e+003,-4.563881e+000
1.416366e+003,-3.302734e+000
1.417330e+003,-3.190666e+000
1.418295e+003,-5.122963e+000
1.419259e+003,-7.345627e+000
1.420223e+003,-7.843513e+000
1.421187e+003,-6.870644e+000
1.422152e+003,-5.657463e+000
1.423116e+003,-3.919769e+000
1.424080e+003,-2.743027e+000
1.425044e+003,-3.004745e+000
1.426009e+003,-3.411003e+000
1.426973e+003,-3.558830e+000
1.427937e+003,-3.489342e+000
1.428901e+003,-3.043999e+000
1.429865e+003,-2.396149e+000
1.430830e+003,-2.266441e+000
1.431794e+003,-3.137123e+000
1.432758e+003,-4.338066e+000
1.433722e+003,-4.417496e+000
1.434687e+003,-3.161201e+000
1.435651e+003,-2.385178e+000
1.436615e+003,-2.843521e+000
1.437579e+003,-3.079422e+000
1.438544e+003,-2.715317e+000
1.439508e+003,-2.295738e+000
1.440472e+003,-1.859077e+000
1.441436e+003,-1.669785e+000
1.442401e+003,-2.409515e+000
1.443365e+003,-4.147438e+000
1.444329e+003,-5.842171e+000
1.445293e+003,-6.761948e+000
1.446257e+003,-7.006851e+000
1.447222e+003,-6.432838e+000
1.448186e+003,-5.297974e+000
1.449150e+003,-5.182343e+000
1.450114e+003,-6.578804e+000
1.451079e+003,-7.615044e+000
1.452043e+003,-7.080620e+000
1.453007e+003,-5.756622e+000
1.453971e+003,-4.539299e+000
1.454936e+003,-3.524811e+000
1.455900e+003,-3.202271e+000
1.456864e+003,-3.928085e+000
1.457828e+003,-4.313042e+000
1.458792e+003,-2.626038e+000
1.459757e+003,-1.220383e+000
1.460721e+003,-2.865273e+000
1.461685e+003,-6.043633e+000
1.462649e+003,-7.453003e+000
1.463614e+003,-6.286118e+000
1.464578e+003,-4.369255e+000
1.465542e+003,-3.197327e+000
1.466506e+003,-2.761803e+000
1.467471e+003,-3.237053e+000
1.468435e+003,-4.992500e+000
1.469399e+003,-5.412231e+000
1.470363e+003,-3.008835e+000
1.471328e+003,-1.333305e+000
1.472292e+003,-1.869713e+000
1.473256e+003,-2.825859e+000
1.474220e+003,-2.537346e+000
1.475184e+003,-1.611168e+000
1.476149e+003,-1.789055e+000
1.477113e+003,-3.479050e+000
1.478077e+003,-5.215195e+000
1.479041e+003,-5.539482e+000
1.480006e+003,-4.586731e+000
1.480970e+003,-2.804214e+000
1.481934e+003,2.978439e-001
1.482898e+003,1.744865e+000
1.483863e+003,2.278137e-002
1.484827e+003,-1.068787e+000
1.485791e+003,3.203201e-001
1.486755e+003,2.115143e+000
1.487719e+003,2.183296e+000
1.488684e+003,9.630432e-001
1.489648e+003,8.088684e-002
1.490612e+003,1.037064e-001
1.491576e+003,8.081055e-001
1.492541e+003,2.278030e+000
1.493505e+003,3.765755e+000
1.494469e+003,3.167709e+000
1.495433e+003,8.578033e-001
1.496398e+003,-3.401489e-001
1.497362e+003,2.769394e-001
1.498326e+003,1.147255e+000
1.499290e+003,1.268600e+000
1.500255e+003,1.307785e+000
1.501219e+003,2.173882e+000
1.502183e+003,3.772911e+000
1.503147e+003,5.598595e+000
1.504111e+003,7.623070e+000
1.505076e+003,9.422577e+000
1.506040e+003,1.051614e+001
1.507004e+003,1.155525e+001
1.507968e+003,1.356109e+001
1.508933e+003,1.589902e+001
1.509897e+003,1.681077e+001
1.510861e+003,1.620534e+001
1.511825e+003,1.681404e+001
1.512790e+003,2.077605e+001
1.513754e+003,2.644946e+001
1.514718e+003,3.090908e+001
1.515682e+003,3.410419e+001
1.516646e+003,3.684793e+001
1.517611e+003,3.904102e+001
1.518575e+003,4.133632e+001
1.519539e+003,4.463219e+001
1.520503e+003,4.746941e+001
1.521468e+003,4.922437e+001
1.522432e+003,4.989389e+001
1.523396e+003,4.916878e+001
1.524360e+003,4.737188e+001
1.525325e+003,4.582163e+001
1.526289e+003,4.541276e+001
1.527253e+003,4.511790e+001
1.528217e+003,4.290648e+001
1.529182e+003,3.878673e+001
1.530146e+003,3.590905e+001
1.531110e+003,3.555251e+001
1.532074e+003,3.393272e+001
1.533039e+003,2.977357e+001
1.534003e+003,2.535408e+001
1.534967e+003,2.173441e+001
1.535931e+003,1.857890e+001
1.536896e+003,1.504191e+001
1.537860e+003,1.145679e+001
1.538824e+003,9.280029e+000
1.539788e+003,9.138428e+000
1.540752e+003,9.604416e+000
1.541717e+003,8.882500e+000
1.542681e+003,7.161446e+000
1.543645e+003,5.440041e+000
1.544609e+003,3.510635e+000
1.545573e+003,2.373337e+000
1.546538e+003,1.831139e+000
1.547502e+003,2.121124e+000
1.548466e+003,4.178596e+000
1.549430e+003,6.582962e+000
1.550395e+003,7.913773e+000
1.551359e+003,8.207123e+000
1.552323e+003,8.079544e+000
1.553287e+003,7.783760e+000
1.554252e+003,7.339073e+000
1.555216e+003,6.755264e+000
1.556180e+003,6.022461e+000
1.557144e+003,5.041924e+000
1.558109e+003,3.834084e+000
1.559073e+003,3.055115e+000
1.560037e+003,2.951385e+000
1.561001e+003,2.577156e+000
1.561966e+003,1.208458e+000
1.562930e+003,-5.706787e-003
1.563894e+003,5.187988e-004
1.564858e+003,9.222794e-001
1.565823e+003,2.272247e+000
1.566787e+003,3.846848e+000
1.567751e+003,4.420990e+000
1.568715e+003,3.014389e+000
1.569679e+003,1.285637e+000
1.570644e+003,1.392471e+000
1.571608e+003,2.739548e+000
1.572572e+003,3.786133e+000
1.573536e+003,4.536873e+000
1.574500e+003,4.798561e+000
1.575465e+003,4.196182e+000
1.576429e+003,3.522087e+000
1.577393e+003,3.299858e+000
1.578357e+003,3.461121e+000
1.579322e+003,3.999901e+000
1.580286e+003,4.902939e+000
1.581250e+003,5.935059e+000
1.582214e+003,7.170868e+000
1.583179e+003,7.962814e+000
1.584143e+003,7.554657e+000
1.585107e+003,6.607903e+000
1.586071e+003,5.830070e+000
1.587036e+003,5.424828e+000
1.588000e+003,6.094765e+000
1.588964e+003,8.047279e+000
1.589928e+003,9.383751e+000
1.590893e+003,8.167915e+000
1.591857e+003,6.313324e+000
1.592821e+003,7.144829e+000
1.593785e+003,1.009489e+001
1.594750e+003,1.164452e+001
1.595714e+003,1.113233e+001
1.596678e+003,1.058939e+001
1.597642e+003,1.098448e+001
1.598606e+003,1.136531e+001
1.599571e+003,1.072721e+001
1.600535e+003,9.808205e+000
1.601499e+003,9.584587e+000
1.602463e+003,1.001053e+001
1.603427e+003,1.043854e+001
1.604392e+003,1.058961e+001
1.605356e+003,1.085723e+001
1.606320e+003,1.191744e+001
1.607284e+003,1.332144e+001
1.608249e+003,1.365002e+001
1.609213e+003,1.286066e+001
1.610177e+003,1.225716e+001
1.611141e+003,1.202883e+001
1.612106e+003,1.206350e+001
1.613070e+003,1.256798e+001
1.614034e+003,1.306812e+001
1.614998e+003,1.307925e+001
1.615963e+003,1.291041e+001
1.616927e+003,1.326160e+001
1.617891e+003,1.409704e+001
1.618855e+003,1.438652e+001
1.619820e+003,1.339293e+001
1.620784e+003,1.202614e+001
1.621748e+003,1.166775e+001
1.622712e+003,1.228085e+001
1.623677e+003,1.321185e+001
1.624641e+003,1.457857e+001
1.625605e+003,1.554935e+001
1.626569e+003,1.546738e+001
1.627533e+003,1.542965e+001
1.628498e+003,1.653602e+001
1.629462e+003,1.757473e+001
1.630426e+003,1.709038e+001
1.631390e+003,1.578540e+001
1.632354e+003,1.546851e+001
1.633319e+003,1.647260e+001
1.634283e+003,1.732046e+001
1.635247e+003,1.681550e+001
1.636211e+003,1.581367e+001
1.637176e+003,1.617439e+001
1.638140e+003,1.776877e+001
1.639104e+003,1.792052e+001
1.640068e+003,1.595943e+001
1.641033e+003,1.476177e+001
1.641997e+003,1.570384e+001
1.642961e+003,1.665977e+001
1.643925e+003,1.675410e+001
1.644890e+003,1.620951e+001
1.645854e+003,1.425140e+001
1.646818e+003,1.199290e+001
1.647782e+003,1.271819e+001
1.648747e+003,1.713780e+001
1.649711e+003,2.084106e+001
1.650675e+003,1.994398e+001
1.651639e+003,1.671749e+001
1.652604e+003,1.592617e+001
1.653568e+003,1.741452e+001
1.654532e+003,1.776431e+001
1.655496e+003,1.642136e+001
1.656460e+003,1.534029e+001
1.657425e+003,1.543136e+001
1.658389e+003,1.547063e+001
1.659353e+003,1.436470e+001
1.660317e+003,1.317728e+001
1.661281e+003,1.333617e+001
1.662246e+003,1.440017e+001
1.663210e+003,1.475816e+001
1.664174e+003,1.392982e+001
1.665138e+003,1.305655e+001
1.666103e+003,1.309096e+001
1.667067e+003,1.363252e+001
1.668031e+003,1.416105e+001
1.668995e+003,1.462815e+001
1.669960e+003,1.384606e+001
1.670924e+003,1.128206e+001
1.671888e+003,9.477074e+000
1.672852e+003,9.498093e+000
1.673817e+003,9.985588e+000
1.674781e+003,1.018542e+001
1.675745e+003,1.027396e+001
1.676709e+003,1.060743e+001
1.677674e+003,1.099163e+001
1.678638e+003,1.066246e+001
1.679602e+003,9.397835e+000
1.680566e+003,8.245964e+000
1.681531e+003,8.065353e+000
1.682495e+003,8.490173e+000
1.683459e+003,9.083649e+000
1.684423e+003,9.690338e+000
1.685387e+003,9.243904e+000
1.686352e+003,7.423035e+000
1.687316e+003,6.752281e+000
1.688280e+003,8.937141e+000
1.689244e+003,1.074094e+001
1.690208e+003,8.841026e+000
1.691173e+003,5.887497e+000
1.692137e+003,4.772964e+000
1.693101e+003,5.192383e+000
1.694065e+003,5.677017e+000
1.695030e+003,5.835342e+000
1.695994e+003,5.884071e+000
1.696958e+003,6.062630e+000
1.697922e+003,6.132019e+000
1.698887e+003,5.547020e+000
1.699851e+003,4.659752e+000
1.700815e+003,4.760963e+000
1.701779e+003,5.889389e+000
1.702744e+003,6.086052e+000
1.703708e+003,4.519722e+000
1.704672e+003,3.059479e+000
1.705636e+003,3.041573e+000
1.706601e+003,3.742447e+000
1.707565e+003,4.450081e+000
1.708529e+003,5.069809e+000
1.709493e+003,5.043541e+000
1.710458e+003,4.229462e+000
1.711422e+003,3.428108e+000
1.712386e+003,2.865074e+000
1.713350e+003,2.639175e+000
1.714314e+003,3.134567e+000
1.715279e+003,3.739906e+000
1.716243e+003,3.151779e+000
1.717207e+003,1.670799e+000
1.718171e+003,1.149452e+000
1.719135e+003,2.108490e+000
1.720100e+003,3.405037e+000
1.721064e+003,4.388115e+000
1.722028e+003,4.938271e+000
1.722992e+003,4.857773e+000
1.723957e+003,4.287247e+000
1.724921e+003,3.662300e+000
1.725885e+003,2.822426e+000
1.726849e+003,2.285416e+000
1.727814e+003,2.456825e+000
1.728778e+003,2.710114e+000
1.729742e+003,3.116455e+000
1.730706e+003,3.139221e+000
1.731671e+003,1.523247e+000
1.732635e+003,-7.230301e-001
1.733599e+003,-1.136169e+000
1.734563e+003,4.813919e-001
1.735528e+003,2.112045e+000
1.736492e+003,2.664467e+000
1.737456e+003,2.496162e+000
1.738420e+003,1.945229e+000
1.739385e+003,1.171577e+000
1.740349e+003,9.736938e-001
1.741313e+003,1.614433e+000
1.742277e+003,1.699463e+000
1.743241e+003,9.215851e-001
1.744206e+003,2.052231e-001
1.745170e+003,-5.353775e-001
1.746134e+003,-1.016365e+000
1.747098e+003,-7.898712e-001
1.748063e+003,-4.474258e-001
1.749027e+003,-1.023537e+000
1.749991e+003,-2.026993e+000
1.750955e+003,-1.724083e+000
1.751919e+003,2.044983e-001
1.752884e+003,1.772591e+000
1.753848e+003,1.316124e+000
1.754812e+003,-8.147430e-002
1.755776e+003,-1.702347e-001
1.756741e+003,1.046921e+000
1.757705e+003,1.925476e+000
1.758669e+003,2.377708e+000
1.759633e+003,2.606918e+000
1.760598e+003,2.422211e+000
1.761562e+003,2.224762e+000
1.762526e+003,2.637543e+000
1.763490e+003,2.683479e+000
1.764455e+003,9.632950e-001
1.765419e+003,-1.214073e+000
1.766383e+003,-1.684624e+000
1.767347e+003,-4.434662e-001
1.768312e+003,9.440765e-001
1.769276e+003,1.737434e+000
1.770240e+003,2.125824e+000
1.771204e+003,2.455826e+000
1.772168e+003,2.543640e+000
1.773133e+003,1.579453e+000
1.774097e+003,-2.831116e-001
1.775061e+003,-1.487755e+000
1.776025e+003,-1.942719e+000
1.776990e+003,-1.673828e+000
1.777954e+003,-4.318924e-001
1.778918e+003,1.175888e+000
1.779882e+003,3.366219e+000
1.780846e+003,5.042053e+000
1.781811e+003,4.267784e+000
1.782775e+003,1.872887e+000
1.783739e+003,7.199707e-001
1.784703e+003,1.354179e+000
1.785668e+003,1.674263e+000
1.786632e+003,4.755096e-001
1.787596e+003,-9.685287e-001
1.788560e+003,-1.872177e+000
1.789525e+003,-2.219437e+000
1.790489e+003,-2.038200e+000
1.791453e+003,-1.374268e+000
1.792417e+003,-1.271210e-001
1.793382e+003,1.647964e+000
1.794346e+003,3.477882e+000
1.795310e+003,5.170151e+000
1.796274e+003,6.039169e+000
1.797239e+003,5.159409e+000
1.798203e+003,3.259094e+000
1.799167e+003,2.479202e+000
1.800131e+003,2.898537e+000
1.801095e+003,3.123962e+000
1.802060e+003,3.375443e+000
1.803024e+003,3.315300e+000
1.803988e+003,2.436050e+000
1.804952e+003,1.746361e+000
1.805917e+003,1.746384e+000
1.806881e+003,2.140800e+000
1.807845e+003,2.910744e+000
1.808809e+003,3.732361e+000
1.809773e+003,4.053650e+000
1.810738e+003,3.788162e+000
1.811702e+003,3.243340e+000
1.812666e+003,2.619270e+000
1.813630e+003,2.083572e+000
1.814595e+003,1.822441e+000
1.815559e+003,1.875740e+000
1.816523e+003,2.794289e+000
1.817487e+003,4.809929e+000
1.818452e+003,4.965042e+000
1.819416e+003,2.229004e+000
1.820380e+003,4.212723e-001
1.821344e+003,1.213661e+000
1.822309e+003,2.145981e+000
1.823273e+003,1.485039e+000
1.824237e+003,5.528259e-001
1.825201e+003,7.662659e-001
1.826166e+003,1.771767e+000
1.827130e+003,2.580536e+000
1.828094e+003,2.989548e+000
1.829058e+003,3.061569e+000
1.830022e+003,2.763657e+000
1.830987e+003,2.357803e+000
1.831951e+003,2.048103e+000
1.832915e+003,1.773712e+000
1.833879e+003,1.244049e+000
1.834844e+003,6.948929e-001
1.835808e+003,1.029228e+000
1.836772e+003,2.263367e+000
1.837736e+003,3.227448e+000
1.838700e+003,3.394829e+000
1.839665e+003,2.913361e+000
1.840629e+003,1.789856e+000
1.841593e+003,5.524750e-001
1.842557e+003,3.181915e-001
1.843522e+003,1.070808e+000
1.844486e+003,1.749313e+000
1.845450e+003,2.723221e+000
1.846414e+003,3.004097e+000
1.847379e+003,1.647568e+000
1.848343e+003,7.323151e-001
1.849307e+003,1.387077e+000
1.850271e+003,2.199326e+000
1.851236e+003,2.112244e+000
1.852200e+003,1.599594e+000
1.853164e+003,1.375938e+000
1.854128e+003,1.400688e+000
1.855093e+003,1.120071e+000
1.856057e+003,4.487000e-001
1.857021e+003,2.494888e-001
1.857985e+003,1.312309e+000
1.858949e+003,2.737045e+000
1.859914e+003,2.908943e+000
1.860878e+003,2.068314e+000
1.861842e+003,1.349991e+000
1.862806e+003,7.326279e-001
1.863771e+003,9.763031e-001
1.864735e+003,2.449242e+000
1.865699e+003,3.568825e+000
1.866663e+003,3.600174e+000
1.867627e+003,3.248718e+000
1.868592e+003,2.827225e+000
1.869556e+003,2.534996e+000
1.870520e+003,3.070435e+000
1.871484e+003,4.232513e+000
1.872449e+003,4.622742e+000
1.873413e+003,3.995361e+000
1.874377e+003,3.635201e+000
1.875341e+003,3.891441e+000
1.876306e+003,4.259613e+000
1.877270e+003,4.928505e+000
1.878234e+003,5.134895e+000
1.879198e+003,3.417709e+000
1.880163e+003,1.045372e+000
1.881127e+003,4.543304e-001
1.882091e+003,1.706169e+000
1.883055e+003,3.428673e+000
1.884020e+003,4.890656e+000
1.884984e+003,5.495277e+000
1.885948e+003,4.657959e+000
1.886912e+003,3.303261e+000
1.887876e+003,3.389740e+000
1.888841e+003,4.760262e+000
1.889805e+003,5.377159e+000
1.890769e+003,5.121826e+000
1.891733e+003,4.662346e+000
1.892698e+003,3.616982e+000
1.893662e+003,3.402039e+000
1.894626e+003,5.430183e+000
1.895590e+003,7.239273e+000
1.896554e+003,6.763062e+000
1.897519e+003,5.464592e+000
1.898483e+003,5.033829e+000
1.899447e+003,5.228226e+000
1.900411e+003,5.121178e+000
1.901376e+003,4.576477e+000
1.902340e+003,3.870659e+000
1.903304e+003,2.778191e+000
1.904268e+003,2.044014e+000
1.905233e+003,2.379387e+000
1.906197e+003,3.083939e+000
1.907161e+003,3.521698e+000
1.908125e+003,3.771622e+000
1.909090e+003,3.902489e+000
1.910054e+003,4.009048e+000
1.911018e+003,4.462433e+000
1.911982e+003,5.352707e+000
1.912947e+003,6.229866e+000
1.913911e+003,6.752884e+000
1.914875e+003,6.934578e+000
1.915839e+003,6.768799e+000
1.916803e+003,6.237022e+000
1.917768e+003,5.333878e+000
1.918732e+003,3.931183e+000
1.919696e+003,3.265099e+000
1.920660e+003,3.636162e+000
1.921625e+003,4.005775e+000
1.922589e+003,3.922607e+000
1.923553e+003,4.099602e+000
1.924517e+003,4.963829e+000
1.925481e+003,6.221939e+000
1.926446e+003,8.440796e+000
1.927410e+003,1.056460e+001
1.928374e+003,1.000735e+001
1.929338e+003,6.856956e+000
1.930303e+003,4.796669e+000
1.931267e+003,5.024422e+000
1.932231e+003,5.715195e+000
1.933195e+003,6.156113e+000
1.934160e+003,6.547646e+000
1.935124e+003,7.181740e+000
1.936088e+003,7.702728e+000
1.937052e+003,7.633141e+000
1.938017e+003,7.195038e+000
1.938981e+003,6.817238e+000
1.939945e+003,6.606117e+000
1.940909e+003,6.435318e+000
1.941874e+003,6.280228e+000
1.942838e+003,6.638382e+000
1.943802e+003,8.078308e+000
1.944766e+003,9.862946e+000
1.945730e+003,1.038665e+001
1.946695e+003,9.749458e+000
1.947659e+003,8.859856e+000
1.948623e+003,7.586838e+000
1.949587e+003,7.607635e+000
1.950552e+003,9.629219e+000
1.951516e+003,1.082305e+001
1.952480e+003,9.888542e+000
1.953444e+003,8.701881e+000
1.954408e+003,8.648132e+000
1.955373e+003,8.910767e+000
1.956337e+003,8.080414e+000
1.957301e+003,6.714912e+000
1.958265e+003,6.825356e+000
1.959230e+003,8.709694e+000
1.960194e+003,9.927406e+000
1.961158e+003,9.711227e+000
1.962122e+003,9.294647e+000
1.963087e+003,9.113556e+000
1.964051e+003,8.689240e+000
1.965015e+003,7.210419e+000
1.965979e+003,5.922668e+000
1.966944e+003,6.359589e+000
1.967908e+003,7.726410e+000
1.968872e+003,8.537666e+000
1.969836e+003,8.556351e+000
1.970801e+003,8.242310e+000
1.971765e+003,7.831444e+000
1.972729e+003,7.459961e+000
1.973693e+003,7.141953e+000
1.974657e+003,7.199905e+000
1.975622e+003,8.598328e+000
1.976586e+003,1.054981e+001
1.977550e+003,1.072180e+001
1.978514e+003,9.439560e+000
1.979479e+003,8.663086e+000
1.980443e+003,8.673386e+000
1.981407e+003,9.138512e+000
1.982371e+003,9.999237e+000
1.983335e+003,1.048370e+001
1.984300e+003,9.951485e+000
1.985264e+003,8.774452e+000
1.986228e+003,7.384758e+000
1.987192e+003,6.087875e+000
1.988157e+003,6.639938e+000
1.989121e+003,9.720825e+000
1.990085e+003,1.119403e+001
1.991049e+003,1.025050e+001
1.992014e+003,9.392715e+000
1.992978e+003,8.607689e+000
1.993942e+003,8.311279e+000
1.994906e+003,9.085617e+000
1.995871e+003,9.944138e+000
1.996835e+003,1.004412e+001
1.997799e+003,9.874947e+000
1.998763e+003,1.022741e+001
1.999728e+003,1.098334e+001
