5.003444e+002,5.204309e+001
5.013087e+002,5.104970e+001
5.022729e+002,4.640936e+001
5.032371e+002,3.994894e+001
5.042014e+002,3.719507e+001
5.051656e+002,3.768111e+001
5.061298e+002,3.944576e+001
5.070941e+002,4.081680e+001
5.080583e+002,4.174568e+001
5.090225e+002,4.190509e+001
5.099868e+002,4.092905e+001
5.109510e+002,3.982982e+001
5.119152e+002,3.895996e+001
5.128795e+002,3.833237e+001
5.138437e+002,3.834740e+001
5.148079e+002,4.051851e+001
5.157722e+002,4.218393e+001
5.167364e+002,4.202780e+001
5.177006e+002,3.995331e+001
5.186649e+002,3.691118e+001
5.196291e+002,3.329457e+001
5.205933e+002,3.019194e+001
5.215576e+002,2.895322e+001
5.225218e+002,2.944273e+001
5.234860e+002,3.063298e+001
5.244503e+002,3.082658e+001
5.254145e+002,2.981984e+001
5.263787e+002,2.910512e+001
5.273430e+002,2.862935e+001
5.283072e+002,2.847162e+001
5.292714e+002,2.874028e+001
5.302357e+002,2.947440e+001
5.311999e+002,3.015541e+001
5.321641e+002,3.147913e+001
5.331284e+002,3.254028e+001
5.340926e+002,3.237378e+001
5.350568e+002,3.048090e+001
5.360211e+002,2.818451e+001
5.369853e+002,2.660280e+001
5.379495e+002,2.557170e+001
5.389138e+002,2.503537e+001
5.398780e+002,2.490608e+001
5.408422e+002,2.506886e+001
5.418065e+002,2.536446e+001
5.427707e+002,2.576193e+001
5.437349e+002,2.612189e+001
5.446992e+002,2.653896e+001
5.456634e+002,2.676483e+001
5.466276e+002,2.594066e+001
5.475919e+002,2.230550e+001
5.485561e+002,1.992552e+001
5.495203e+002,1.928250e+001
5.504846e+002,1.974570e+001
5.514488e+002,2.065834e+001
5.524130e+002,2.240297e+001
5.533773e+002,2.338194e+001
5.543415e+002,2.250082e+001
5.553057e+002,2.080887e+001
5.562700e+002,1.923570e+001
5.572342e+002,1.833760e+001
5.581984e+002,1.794017e+001
5.591627e+002,1.793552e+001
5.601269e+002,1.820920e+001
5.610911e+002,1.833771e+001
5.620554e+002,1.806413e+001
5.630196e+002,1.736586e+001
5.639838e+002,1.648036e+001
5.649481e+002,1.493544e+001
5.659123e+002,1.389503e+001
5.668765e+002,1.419933e+001
5.678408e+002,1.535982e+001
5.688050e+002,1.570132e+001
5.697692e+002,1.372980e+001
5.707335e+002,1.198068e+001
5.716977e+002,1.138705e+001
5.726619e+002,1.151199e+001
5.736262e+002,1.184306e+001
5.745904e+002,1.215398e+001
5.755546e+002,1.215059e+001
5.765189e+002,1.073125e+001
5.774831e+002,8.639160e+000
5.784473e+002,7.537338e+000
5.794116e+002,8.603729e+000
5.803758e+002,1.164783e+001
5.813400e+002,1.306065e+001
5.823043e+002,1.248848e+001
5.832685e+002,1.138652e+001
5.842327e+002,9.962997e+000
5.851970e+002,8.434875e+000
5.861612e+002,7.683853e+000
5.871254e+002,8.382904e+000
5.880897e+002,9.156616e+000
5.890539e+002,1.004634e+001
5.900181e+002,1.070844e+001
5.909824e+002,1.054353e+001
5.919466e+002,8.817642e+000
5.929108e+002,7.116791e+000
5.938751e+002,7.036346e+000
5.948393e+002,8.046814e+000
5.958035e+002,9.504333e+000
5.967678e+002,1.094403e+001
5.977320e+002,1.235303e+001
5.986962e+002,1.327715e+001
5.996605e+002,1.368802e+001
6.006247e+002,1.351289e+001
6.015889e+002,1.248064e+001
6.025532e+002,1.068355e+001
6.035174e+002,9.246124e+000
6.044816e+002,8.106735e+000
6.054459e+002,7.536774e+000
6.064101e+002,7.796005e+000
6.073743e+002,8.615479e+000
6.083386e+002,9.724197e+000
6.093028e+002,1.150671e+001
6.102670e+002,1.244313e+001
6.112313e+002,1.096225e+001
6.121955e+002,8.284592e+000
6.131597e+002,5.867035e+000
6.141240e+002,4.719360e+000
6.150882e+002,4.651718e+000
6.160524e+002,5.306534e+000
6.170167e+002,6.606613e+000
6.179809e+002,7.577682e+000
6.189451e+002,7.704193e+000
6.199094e+002,6.998444e+000
6.208736e+002,6.026947e+000
6.218378e+002,4.179276e+000
6.228021e+002,3.069214e+000
6.237663e+002,3.062759e+000
6.247305e+002,3.864563e+000
6.256948e+002,5.062866e+000
6.266590e+002,6.716797e+000
6.276232e+002,7.929794e+000
6.285875e+002,8.552841e+000
6.295517e+002,8.601273e+000
6.305159e+002,7.754501e+000
6.314802e+002,5.887817e+000
6.324444e+002,3.611603e+000
6.334086e+002,3.136429e+000
6.343729e+002,3.941696e+000
6.353371e+002,4.319122e+000
6.363013e+002,3.494049e+000
6.372656e+002,1.961914e+000
6.382298e+002,1.636154e+000
6.391940e+002,4.302765e+000
6.401583e+002,5.749908e+000
6.411225e+002,5.815659e+000
6.420867e+002,4.986008e+000
6.430510e+002,3.384689e+000
6.440152e+002,3.930817e-001
6.449794e+002,-1.589600e+000
6.459437e+002,-5.860443e-001
6.469079e+002,1.187408e+000
6.478721e+002,2.150940e+000
6.488364e+002,1.743881e+000
6.498006e+002,6.207275e-001
6.507648e+002,-3.472748e-001
6.517291e+002,-1.198013e+000
6.526933e+002,-2.026901e+000
6.536575e+002,-2.891312e+000
6.546218e+002,-3.417953e+000
6.555860e+002,-2.842804e+000
6.565502e+002,-4.687653e-001
6.575145e+002,1.606461e+000
6.584787e+002,3.625916e+000
6.594429e+002,5.232391e+000
6.604072e+002,6.210648e+000
6.613714e+002,6.552658e+000
6.623356e+002,6.088882e+000
6.632999e+002,3.697495e+000
6.642641e+002,1.230728e+000
6.652283e+002,-2.810364e-001
6.661926e+002,-7.133636e-001
6.671568e+002,-5.847321e-001
6.681210e+002,-4.539490e-001
6.690853e+002,-3.727264e-001
6.700495e+002,-2.591553e-001
6.710137e+002,-1.225433e-001
6.719780e+002,-1.567078e-001
6.729422e+002,-6.465759e-001
6.739064e+002,-1.831100e+000
6.748707e+002,-2.217621e+000
6.758349e+002,-1.417175e+000
6.767991e+002,-5.766754e-001
6.777634e+002,1.022339e-002
6.787276e+002,4.047852e-001
6.796918e+002,6.474915e-001
6.806561e+002,2.109375e-001
6.816203e+002,7.156372e-003
6.825845e+002,4.179688e-001
6.835488e+002,1.303406e+000
6.845130e+002,2.636581e+000
6.854772e+002,4.554352e+000
6.864415e+002,6.272308e+000
6.874057e+002,5.484634e+000
6.883699e+002,2.903824e+000
6.893342e+002,5.474091e-001
6.902984e+002,-4.260254e-001
6.912626e+002,-1.586151e-001
6.922269e+002,8.666992e-002
6.931911e+002,7.325134e-001
6.941553e+002,1.101654e+000
6.951196e+002,7.451324e-001
6.960838e+002,4.486084e-003
6.970480e+002,-4.945374e-001
6.980123e+002,-5.274048e-001
6.989765e+002,-3.668518e-001
6.999407e+002,1.300049e-001
7.009050e+002,5.083008e-001
7.018692e+002,1.043243e-001
7.028334e+002,-1.159241e+000
7.037977e+002,-2.362015e+000
7.047619e+002,-1.713089e+000
7.057261e+002,1.561584e-001
7.066904e+002,2.003235e+000
7.076546e+002,3.614273e+000
7.086188e+002,4.663162e+000
7.095831e+002,4.522491e+000
7.105473e+002,2.463440e+000
7.115115e+002,1.325531e+000
7.124758e+002,1.511642e+000
7.134400e+002,1.926941e+000
7.144042e+002,1.956467e+000
7.153685e+002,1.621750e+000
7.163327e+002,1.468399e+000
7.172969e+002,2.696320e+000
7.182612e+002,3.232162e+000
7.192254e+002,1.100357e+000
7.201896e+002,-2.428482e+000
7.211539e+002,-4.553894e+000
7.221181e+002,-2.717560e+000
7.230823e+002,1.250214e+000
7.240466e+002,2.168121e+000
7.250108e+002,7.860413e-001
7.259750e+002,-5.993347e-001
7.269393e+002,-7.290802e-001
7.279035e+002,8.093262e-002
7.288677e+002,1.857605e-001
7.298320e+002,-9.094238e-001
7.307962e+002,-1.642578e+000
7.317604e+002,-2.098679e+000
7.327247e+002,-2.036560e+000
7.336889e+002,-1.055710e+000
7.346531e+002,1.064270e+000
7.356174e+002,2.969330e+000
7.365816e+002,4.689835e+000
7.375458e+002,5.817535e+000
7.385101e+002,5.698257e+000
7.394743e+002,4.356354e+000
7.404385e+002,2.617508e+000
7.414028e+002,1.696732e+000
7.423670e+002,1.176056e+000
7.433312e+002,-2.732849e-002
7.442955e+002,-1.928802e+000
7.452597e+002,-3.293991e+000
7.462239e+002,-2.492798e+000
7.471882e+002,1.345840e+000
7.481524e+002,3.242294e+000
7.491166e+002,1.427094e+000
7.500809e+002,-2.791443e-001
7.510451e+002,-1.729431e-001
7.520093e+002,1.314468e+000
7.529736e+002,2.251465e+000
7.539378e+002,1.366898e+000
7.549020e+002,6.424408e-001
7.558663e+002,1.964645e+000
7.568306e+002,3.984207e+000
7.577948e+002,4.427048e+000
7.587590e+002,2.025192e+000
7.597233e+002,-1.775787e+000
7.606875e+002,-1.861542e+000
7.616517e+002,1.334610e+000
7.626160e+002,3.697891e+000
7.635802e+002,4.307266e+000
7.645444e+002,3.491959e+000
7.655087e+002,1.557480e+000
7.664729e+002,-3.037628e+000
7.674371e+002,-5.231094e+000
7.684014e+002,-3.407715e+000
7.693656e+002,-8.220673e-001
7.703298e+002,5.228424e-001
7.712941e+002,4.060669e-001
7.722583e+002,1.129150e-001
7.732225e+002,4.965210e-001
7.741868e+002,1.138504e+000
7.751510e+002,1.833969e+000
7.761152e+002,2.504959e+000
7.770795e+002,3.087830e+000
7.780437e+002,3.512558e+000
7.790079e+002,3.711472e+000
7.799722e+002,3.123428e+000
7.809364e+002,1.621063e+000
7.819006e+002,5.287781e-001
7.828649e+002,6.640778e-001
7.838291e+002,1.720428e+000
7.847933e+002,2.442261e+000
7.857576e+002,2.249268e+000
7.867218e+002,2.307831e+000
7.876860e+002,3.388672e+000
7.886503e+002,4.590851e+000
7.896145e+002,5.201309e+000
7.905787e+002,5.018051e+000
7.915430e+002,4.318787e+000
7.925072e+002,2.666183e+000
7.934714e+002,9.207916e-001
7.944357e+002,3.639679e-001
7.953999e+002,1.017349e+000
7.963641e+002,2.006073e+000
7.973284e+002,2.283279e+000
7.982926e+002,1.761337e+000
7.992568e+002,2.359222e+000
8.002211e+002,4.657761e+000
8.011853e+002,6.273605e+000
8.021495e+002,6.181320e+000
8.031138e+002,5.004501e+000
8.040780e+002,4.530426e+000
8.050422e+002,5.569336e+000
8.060065e+002,6.117325e+000
8.069707e+002,4.633209e+000
8.079349e+002,2.796341e+000
8.088992e+002,2.647385e+000
8.098634e+002,4.784393e+000
8.108276e+002,7.417328e+000
8.117919e+002,7.964279e+000
8.127561e+002,6.757263e+000
8.137203e+002,4.473846e+000
8.146846e+002,1.373703e+000
8.156488e+002,-1.412140e+000
8.166130e+002,-2.569244e+000
8.175773e+002,-1.945038e+000
8.185415e+002,-7.245026e-001
8.195057e+002,1.796738e+000
8.204700e+002,3.735199e+000
8.214342e+002,4.386932e+000
8.223984e+002,3.972488e+000
8.233627e+002,2.998505e+000
8.243269e+002,1.136383e+000
8.252911e+002,-1.286469e-001
8.262554e+002,-2.495575e-001
8.272196e+002,5.872192e-001
8.281838e+002,2.846039e+000
8.291481e+002,6.287552e+000
8.301123e+002,9.323807e+000
8.310765e+002,8.780411e+000
8.320408e+002,4.919327e+000
8.330050e+002,2.578293e+000
8.339692e+002,2.262527e+000
8.349335e+002,2.774536e+000
8.358977e+002,3.067245e+000
8.368619e+002,3.190826e+000
8.378262e+002,3.228516e+000
8.387904e+002,3.352005e+000
8.397546e+002,2.999496e+000
8.407189e+002,1.220352e+000
8.416831e+002,-9.173889e-001
8.426473e+002,-1.408966e+000
8.436116e+002,9.578094e-001
8.445758e+002,3.854141e+000
8.455400e+002,4.843918e+000
8.465043e+002,4.670181e+000
8.474685e+002,3.890366e+000
8.484327e+002,2.937866e+000
8.493970e+002,2.448853e+000
8.503612e+002,3.413818e+000
8.513254e+002,6.161148e+000
8.522897e+002,7.443039e+000
8.532539e+002,6.248856e+000
8.542181e+002,4.945404e+000
8.551824e+002,5.210556e+000
8.561466e+002,6.949020e+000
8.571108e+002,8.353363e+000
8.580751e+002,8.116852e+000
8.590393e+002,8.201233e+000
8.600035e+002,9.855728e+000
8.609678e+002,1.202925e+001
8.619320e+002,1.337347e+001
8.628962e+002,1.337509e+001
8.638605e+002,1.300525e+001
8.648247e+002,1.404776e+001
8.657889e+002,1.567827e+001
8.667532e+002,1.604346e+001
8.677174e+002,1.490375e+001
8.686816e+002,1.324416e+001
8.696459e+002,1.215036e+001
8.706101e+002,1.171309e+001
8.715743e+002,1.174332e+001
8.725386e+002,1.213048e+001
8.735028e+002,1.307492e+001
8.744670e+002,1.497176e+001
8.754313e+002,1.722583e+001
8.763955e+002,1.888371e+001
8.773597e+002,1.965276e+001
8.783240e+002,1.996165e+001
8.792882e+002,1.971252e+001
8.802524e+002,1.937303e+001
8.812167e+002,1.964677e+001
8.821809e+002,2.046927e+001
8.831451e+002,2.089561e+001
8.841094e+002,1.960036e+001
8.850736e+002,1.684636e+001
8.860378e+002,1.637881e+001
8.870021e+002,1.856483e+001
8.879663e+002,2.103340e+001
8.889305e+002,2.243326e+001
8.898948e+002,2.294827e+001
8.908590e+002,2.369157e+001
8.918232e+002,2.496544e+001
8.927875e+002,2.631477e+001
8.937517e+002,2.856775e+001
8.947159e+002,3.021968e+001
8.956802e+002,2.930476e+001
8.966444e+002,2.575514e+001
8.976086e+002,2.211133e+001
8.985729e+002,2.087926e+001
8.995371e+002,2.163890e+001
9.005013e+002,2.393530e+001
9.014656e+002,2.733429e+001
9.024298e+002,2.980031e+001
9.033940e+002,2.959061e+001
9.043583e+002,2.704269e+001
9.053225e+002,2.565144e+001
9.062867e+002,2.661559e+001
9.072510e+002,2.709309e+001
9.082152e+002,2.689137e+001
9.091794e+002,2.653436e+001
9.101437e+002,2.651404e+001
9.111079e+002,2.689758e+001
9.120721e+002,2.729053e+001
9.130364e+002,2.739081e+001
9.140006e+002,2.727052e+001
9.149648e+002,2.685176e+001
9.159291e+002,2.642233e+001
9.168933e+002,2.642732e+001
9.178575e+002,2.711542e+001
9.188218e+002,2.822362e+001
9.197860e+002,2.923996e+001
9.207502e+002,3.018575e+001
9.217145e+002,2.967400e+001
9.226787e+002,2.655688e+001
9.236429e+002,2.297171e+001
9.246072e+002,2.201382e+001
9.255714e+002,2.424623e+001
9.265356e+002,2.561873e+001
9.274999e+002,2.440652e+001
9.284641e+002,2.329112e+001
9.294283e+002,2.367197e+001
9.303926e+002,2.479337e+001
9.313568e+002,2.497908e+001
9.323210e+002,2.329218e+001
9.332853e+002,2.111293e+001
9.342495e+002,2.070511e+001
9.352137e+002,2.129216e+001
9.361780e+002,2.217305e+001
9.371422e+002,2.324753e+001
9.381064e+002,2.411310e+001
9.390707e+002,2.403400e+001
9.400349e+002,2.266647e+001
9.409991e+002,2.184334e+001
9.419634e+002,2.209572e+001
9.429276e+002,2.207697e+001
9.438918e+002,2.110086e+001
9.448561e+002,1.978705e+001
9.458203e+002,1.937083e+001
9.467845e+002,2.044650e+001
9.477488e+002,2.131845e+001
9.487130e+002,2.029071e+001
9.496772e+002,1.877928e+001
9.506415e+002,1.763268e+001
9.516057e+002,1.707767e+001
9.525699e+002,1.719981e+001
9.535342e+002,1.808792e+001
9.544984e+002,1.954271e+001
9.554626e+002,2.013744e+001
9.564269e+002,1.988289e+001
9.573911e+002,1.979178e+001
9.583553e+002,2.030904e+001
9.593196e+002,2.098892e+001
9.602838e+002,2.105154e+001
9.612480e+002,2.026997e+001
9.622123e+002,1.952704e+001
9.631765e+002,1.943639e+001
9.641407e+002,1.916672e+001
9.651050e+002,1.788327e+001
9.660692e+002,1.607779e+001
9.670334e+002,1.506506e+001
9.679977e+002,1.575906e+001
9.689619e+002,1.708324e+001
9.699261e+002,1.554668e+001
9.708904e+002,1.236963e+001
9.718546e+002,1.191199e+001
9.728188e+002,1.544910e+001
9.737831e+002,2.040779e+001
9.747473e+002,2.342386e+001
9.757115e+002,2.411307e+001
9.766758e+002,2.512965e+001
9.776400e+002,2.712801e+001
9.786042e+002,2.885741e+001
9.795685e+002,3.056152e+001
9.805327e+002,3.141853e+001
9.814969e+002,3.006648e+001
9.824612e+002,2.611028e+001
9.834254e+002,2.191548e+001
9.843896e+002,1.954192e+001
9.853539e+002,1.815656e+001
9.863181e+002,1.714160e+001
9.872823e+002,1.629115e+001
9.882466e+002,1.540714e+001
9.892108e+002,1.442149e+001
9.901750e+002,1.356523e+001
9.911393e+002,1.344783e+001
9.921035e+002,1.436639e+001
9.930677e+002,1.494173e+001
9.940320e+002,1.501270e+001
9.949962e+002,1.503297e+001
9.959604e+002,1.543694e+001
9.969247e+002,1.626364e+001
9.978889e+002,1.714366e+001
9.988531e+002,1.790955e+001
9.998174e+002,1.831322e+001
1.000782e+003,1.818506e+001
1.001746e+003,1.783060e+001
1.002710e+003,1.768253e+001
1.003674e+003,1.788011e+001
1.004639e+003,1.808882e+001
1.005603e+003,1.768811e+001
1.006567e+003,1.656361e+001
1.007531e+003,1.589377e+001
1.008495e+003,1.578951e+001
1.009460e+003,1.591069e+001
1.010424e+003,1.635417e+001
1.011388e+003,1.695021e+001
1.012352e+003,1.674925e+001
1.013317e+003,1.483203e+001
1.014281e+003,1.366437e+001
1.015245e+003,1.484758e+001
1.016209e+003,1.607362e+001
1.017174e+003,1.543341e+001
1.018138e+003,1.309850e+001
1.019102e+003,1.079990e+001
1.020066e+003,1.002129e+001
1.021031e+003,1.015955e+001
1.021995e+003,8.994797e+000
1.022959e+003,6.752686e+000
1.023923e+003,5.322617e+000
1.024887e+003,5.603546e+000
1.025852e+003,6.430695e+000
1.026816e+003,5.885666e+000
1.027780e+003,3.675827e+000
1.028744e+003,1.887115e+000
1.029709e+003,1.997528e-001
1.030673e+003,-5.549316e-001
1.031637e+003,8.176880e-001
1.032601e+003,2.832031e+000
1.033566e+003,3.254379e+000
1.034530e+003,1.385178e+000
1.035494e+003,-7.251892e-001
1.036458e+003,-6.416931e-001
1.037422e+003,4.744110e-001
1.038387e+003,5.342255e-001
1.039351e+003,-4.371490e-001
1.040315e+003,-1.182297e+000
1.041279e+003,-7.252655e-001
1.042244e+003,7.761536e-001
1.043208e+003,2.410995e+000
1.044172e+003,4.816254e+000
1.045136e+003,5.884766e+000
1.046101e+003,4.660034e+000
1.047065e+003,3.203690e+000
1.048029e+003,3.060120e+000
1.048993e+003,3.859039e+000
1.049958e+003,3.664932e+000
1.050922e+003,9.622955e-001
1.051886e+003,-1.165634e+000
1.052850e+003,1.590088e+000
1.053814e+003,6.154404e+000
1.054779e+003,8.604538e+000
1.055743e+003,8.078491e+000
1.056707e+003,6.013382e+000
1.057671e+003,4.041550e+000
1.058636e+003,2.138763e+000
1.059600e+003,1.510773e+000
1.060564e+003,3.834641e+000
1.061528e+003,5.204803e+000
1.062493e+003,4.297211e+000
1.063457e+003,2.523193e+000
1.064421e+003,1.373520e+000
1.065385e+003,1.076385e+000
1.066349e+003,1.319885e+000
1.067314e+003,2.788193e+000
1.068278e+003,3.711548e+000
1.069242e+003,2.054428e+000
1.070206e+003,-6.219788e-001
1.071171e+003,-1.685104e+000
1.072135e+003,-1.988373e-001
1.073099e+003,2.240417e+000
1.074063e+003,3.012512e+000
1.075028e+003,1.965683e+000
1.075992e+003,1.462967e+000
1.076956e+003,1.718887e+000
1.077920e+003,1.876205e+000
1.078885e+003,1.784225e+000
1.079849e+003,1.480530e+000
1.080813e+003,8.211365e-001
1.081777e+003,-3.300323e-001
1.082741e+003,-1.082306e+000
1.083706e+003,-1.284103e+000
1.084670e+003,-8.682251e-001
1.085634e+003,9.666290e-001
1.086598e+003,3.350327e+000
1.087563e+003,4.667679e+000
1.088527e+003,4.115173e+000
1.089491e+003,2.588394e+000
1.090455e+003,1.606384e+000
1.091420e+003,1.155899e+000
1.092384e+003,1.411102e+000
1.093348e+003,2.901657e+000
1.094312e+003,3.977783e+000
1.095276e+003,3.290527e+000
1.096241e+003,1.591293e+000
1.097205e+003,1.172913e+000
1.098169e+003,2.823242e+000
1.099133e+003,3.970062e+000
1.100098e+003,3.523865e+000
1.101062e+003,2.540298e+000
1.102026e+003,1.054108e+000
1.102990e+003,-3.439789e-001
1.103955e+003,-4.778900e-001
1.104919e+003,1.309525e+000
1.105883e+003,3.875244e+000
1.106847e+003,4.877121e+000
1.107812e+003,4.209167e+000
1.108776e+003,2.900299e+000
1.109740e+003,2.712097e-001
1.110704e+003,-1.504684e+000
1.111668e+003,5.882263e-002
1.112633e+003,4.047668e+000
1.113597e+003,5.904648e+000
1.114561e+003,3.912720e+000
1.115525e+003,2.630951e+000
1.116490e+003,4.488220e+000
1.117454e+003,6.437256e+000
1.118418e+003,6.365555e+000
1.119382e+003,4.773911e+000
1.120347e+003,3.340836e+000
1.121311e+003,3.012512e+000
1.122275e+003,3.222443e+000
1.123239e+003,3.111099e+000
1.124203e+003,2.849945e+000
1.125168e+003,2.886948e+000
1.126132e+003,3.280014e+000
1.127096e+003,3.995758e+000
1.128060e+003,5.271881e+000
1.129025e+003,6.835663e+000
1.129989e+003,7.368195e+000
1.130953e+003,5.942703e+000
1.131917e+003,5.332138e+000
1.132882e+003,7.051804e+000
1.133846e+003,9.018448e+000
1.134810e+003,9.941635e+000
1.135774e+003,1.004860e+001
1.136739e+003,1.026117e+001
1.137703e+003,1.108604e+001
1.138667e+003,1.202124e+001
1.139631e+003,1.199329e+001
1.140595e+003,1.121974e+001
1.141560e+003,1.174751e+001
1.142524e+003,1.404544e+001
1.143488e+003,1.659955e+001
1.144452e+003,1.776711e+001
1.145417e+003,1.831108e+001
1.146381e+003,2.132137e+001
1.147345e+003,2.795677e+001
1.148309e+003,3.406920e+001
1.149274e+003,3.858542e+001
1.150238e+003,4.253613e+001
1.151202e+003,4.589032e+001
1.152166e+003,4.931801e+001
1.153130e+003,5.420743e+001
1.154095e+003,6.093150e+001
1.155059e+003,6.734590e+001
1.156023e+003,7.057610e+001
1.156987e+003,7.069305e+001
1.157952e+003,6.984106e+001
1.158916e+003,6.839389e+001
1.159880e+003,6.522119e+001
1.160844e+003,5.832845e+001
1.161809e+003,4.934624e+001
1.162773e+003,4.236148e+001
1.163737e+003,3.776999e+001
1.164701e+003,3.349492e+001
1.165666e+003,2.816470e+001
1.166630e+003,2.416936e+001
1.167594e+003,2.363943e+001
1.168558e+003,2.443240e+001
1.169522e+003,2.323260e+001
1.170487e+003,1.935333e+001
1.171451e+003,1.571298e+001
1.172415e+003,1.573027e+001
1.173379e+003,1.852835e+001
1.174344e+003,1.961475e+001
1.175308e+003,1.909206e+001
1.176272e+003,1.775093e+001
1.177236e+003,1.525269e+001
1.178201e+003,1.257465e+001
1.179165e+003,1.082275e+001
1.180129e+003,9.923737e+000
1.181093e+003,9.679871e+000
1.182057e+003,1.104890e+001
1.183022e+003,1.165936e+001
1.183986e+003,9.994232e+000
1.184950e+003,7.723480e+000
1.185914e+003,6.275116e+000
1.186879e+003,5.950150e+000
1.187843e+003,6.419937e+000
1.188807e+003,7.402130e+000
1.189771e+003,8.731552e+000
1.190736e+003,1.021983e+001
1.191700e+003,1.197588e+001
1.192664e+003,1.232127e+001
1.193628e+003,1.028384e+001
1.194593e+003,8.012650e+000
1.195557e+003,7.007095e+000
1.196521e+003,6.967300e+000
1.197485e+003,6.968628e+000
1.198449e+003,7.012650e+000
1.199414e+003,6.719238e+000
1.200378e+003,5.894150e+000
1.201342e+003,4.720001e+000
1.202306e+003,2.590118e+000
1.203271e+003,2.602997e-001
1.204235e+003,-5.129700e-001
1.205199e+003,9.832306e-001
1.206163e+003,3.124344e+000
1.207128e+003,3.075851e+000
1.208092e+003,6.840973e-001
1.209056e+003,-2.735443e-001
1.210020e+003,1.190292e+000
1.210984e+003,1.894608e+000
1.211949e+003,4.787140e-001
1.212913e+003,-1.939484e+000
1.213877e+003,-4.066711e+000
1.214841e+003,-5.760117e+000
1.215806e+003,-6.940582e+000
1.216770e+003,-7.150223e+000
1.217734e+003,-7.578751e+000
1.218698e+003,-9.591751e+000
1.219663e+003,-1.201936e+001
1.220627e+003,-1.341273e+001
1.221591e+003,-1.353125e+001
1.222555e+003,-1.294649e+001
1.223520e+003,-1.213376e+001
1.224484e+003,-1.124281e+001
1.225448e+003,-1.117793e+001
1.226412e+003,-1.270297e+001
1.227376e+003,-1.336459e+001
1.228341e+003,-1.256203e+001
1.229305e+003,-1.166884e+001
1.230269e+003,-1.123286e+001
1.231233e+003,-1.129747e+001
1.232198e+003,-1.216974e+001
1.233162e+003,-1.397810e+001
1.234126e+003,-1.492577e+001
1.235090e+003,-1.287376e+001
1.236055e+003,-1.024783e+001
1.237019e+003,-9.795471e+000
1.237983e+003,-1.095303e+001
1.238947e+003,-1.196231e+001
1.239911e+003,-1.204512e+001
1.240876e+003,-1.182474e+001
1.241840e+003,-1.230542e+001
1.242804e+003,-1.353491e+001
1.243768e+003,-1.446231e+001
1.244733e+003,-1.471924e+001
1.245697e+003,-1.514589e+001
1.246661e+003,-1.677435e+001
1.247625e+003,-1.789035e+001
1.248590e+003,-1.636383e+001
1.249554e+003,-1.308691e+001
1.250518e+003,-1.133870e+001
1.251482e+003,-1.277835e+001
1.252447e+003,-1.464470e+001
1.253411e+003,-1.308934e+001
1.254375e+003,-9.718201e+000
1.255339e+003,-8.072189e+000
1.256303e+003,-8.230316e+000
1.257268e+003,-8.740479e+000
1.258232e+003,-8.897034e+000
1.259196e+003,-8.973679e+000
1.260160e+003,-9.685272e+000
1.261125e+003,-1.130768e+001
1.262089e+003,-1.128151e+001
1.263053e+003,-6.964645e+000
1.264017e+003,-4.151688e+000
1.264982e+003,-5.249619e+000
1.265946e+003,-7.587784e+000
1.266910e+003,-9.078964e+000
1.267874e+003,-9.235901e+000
1.268839e+003,-8.050919e+000
1.269803e+003,-5.476883e+000
1.270767e+003,-2.584839e+000
1.271731e+003,-1.344025e+000
1.272695e+003,-1.815781e+000
1.273660e+003,-3.664246e+000
1.274624e+003,-7.797821e+000
1.275588e+003,-1.121819e+001
1.276552e+003,-1.197079e+001
1.277517e+003,-1.094765e+001
1.278481e+003,-9.593384e+000
1.279445e+003,-7.924850e+000
1.280409e+003,-7.176926e+000
1.281374e+003,-8.327377e+000
1.282338e+003,-9.729187e+000
1.283302e+003,-1.082495e+001
1.284266e+003,-1.152260e+001
1.285230e+003,-1.157909e+001
1.286195e+003,-1.111935e+001
1.287159e+003,-1.059731e+001
1.288123e+003,-1.034943e+001
1.289087e+003,-1.035175e+001
1.290052e+003,-1.073294e+001
1.291016e+003,-1.185272e+001
1.291980e+003,-1.223145e+001
1.292944e+003,-1.116081e+001
1.293909e+003,-1.048012e+001
1.294873e+003,-1.110310e+001
1.295837e+003,-1.226918e+001
1.296801e+003,-1.296997e+001
1.297766e+003,-1.307428e+001
1.298730e+003,-1.306006e+001
1.299694e+003,-1.316740e+001
1.300658e+003,-1.339388e+001
1.301622e+003,-1.403226e+001
1.302587e+003,-1.460136e+001
1.303551e+003,-1.422139e+001
1.304515e+003,-1.276938e+001
1.305479e+003,-1.089812e+001
1.306444e+003,-9.015320e+000
1.307408e+003,-7.404480e+000
1.308372e+003,-6.995789e+000
1.309336e+003,-8.116028e+000
1.310301e+003,-9.483185e+000
1.311265e+003,-1.187105e+001
1.312229e+003,-1.335637e+001
1.313193e+003,-1.310081e+001
1.314157e+003,-1.186520e+001
1.315122e+003,-9.952560e+000
1.316086e+003,-7.876480e+000
1.317050e+003,-6.801895e+000
1.318014e+003,-7.513809e+000
1.318979e+003,-9.090500e+000
1.319943e+003,-1.002045e+001
1.320907e+003,-1.032324e+001
1.321871e+003,-1.068861e+001
1.322836e+003,-1.135381e+001
1.323800e+003,-1.173074e+001
1.324764e+003,-1.128711e+001
1.325728e+003,-1.044167e+001
1.326693e+003,-9.916748e+000
1.327657e+003,-9.781113e+000
1.328621e+003,-9.848801e+000
1.329585e+003,-1.003033e+001
1.330549e+003,-1.000636e+001
1.331514e+003,-9.452698e+000
1.332478e+003,-9.105774e+000
1.333442e+003,-1.018256e+001
1.334406e+003,-1.207896e+001
1.335371e+003,-1.255603e+001
1.336335e+003,-1.033815e+001
1.337299e+003,-7.178268e+000
1.338263e+003,-6.516068e+000
1.339228e+003,-8.727707e+000
1.340192e+003,-9.861298e+000
1.341156e+003,-9.221832e+000
1.342120e+003,-8.625290e+000
1.343084e+003,-7.952988e+000
1.344049e+003,-7.887344e+000
1.345013e+003,-9.636612e+000
1.345977e+003,-1.233456e+001
1.346941e+003,-1.345613e+001
1.347906e+003,-1.205353e+001
1.348870e+003,-9.810440e+000
1.349834e+003,-7.907028e+000
1.350798e+003,-6.539993e+000
1.351763e+003,-5.761429e+000
1.352727e+003,-5.576065e+000
1.353691e+003,-6.373199e+000
1.354655e+003,-8.669998e+000
1.355620e+003,-1.063695e+001
1.356584e+003,-9.296265e+000
1.357548e+003,-5.209274e+000
1.358512e+003,-4.008759e+000
1.359476e+003,-7.279922e+000
1.360441e+003,-1.006137e+001
1.361405e+003,-1.134390e+001
1.362369e+003,-1.152205e+001
1.363333e+003,-9.943878e+000
1.364298e+003,-7.762131e+000
1.365262e+003,-6.437515e+000
1.366226e+003,-6.330780e+000
1.367190e+003,-6.888214e+000
1.368155e+003,-7.632187e+000
1.369119e+003,-8.432999e+000
1.370083e+003,-8.821838e+000
1.371047e+003,-8.558151e+000
1.372011e+003,-8.771317e+000
1.372976e+003,-1.025568e+001
1.373940e+003,-1.133099e+001
1.374904e+003,-1.092314e+001
1.375868e+003,-9.995178e+000
1.376833e+003,-1.016426e+001
1.377797e+003,-1.129095e+001
1.378761e+003,-1.107318e+001
1.379725e+003,-8.060349e+000
1.380690e+003,-4.910004e+000
1.381654e+003,-4.685760e+000
1.382618e+003,-5.856430e+000
1.383582e+003,-6.507813e+000
1.384547e+003,-6.532837e+000
1.385511e+003,-6.435349e+000
1.386475e+003,-6.543259e+000
1.387439e+003,-6.514908e+000
1.388403e+003,-5.479645e+000
1.389368e+003,-3.453903e+000
1.390332e+003,-2.767487e+000
1.391296e+003,-3.967392e+000
1.392260e+003,-5.459061e+000
1.393225e+003,-8.134201e+000
1.394189e+003,-9.710480e+000
1.395153e+003,-7.656250e+000
1.396117e+003,-4.158707e+000
1.397082e+003,-2.638290e+000
1.398046e+003,-3.896210e+000
1.399010e+003,-6.237839e+000
1.399974e+003,-8.213928e+000
1.400938e+003,-9.724838e+000
1.401903e+003,-1.013458e+001
1.402867e+003,-8.975540e+000
1.403831e+003,-7.557877e+000
1.404795e+003,-5.767746e+000
1.405760e+003,-4.084412e+000
1.406724e+003,-2.294830e+000
1.407688e+003,-1.241974e+000
1.408652e+003,-2.161224e+000
1.409617e+003,-4.643204e+000
1.410581e+003,-6.785767e+000
1.411545e+003,-7.887619e+000
1.412509e+003,-8.267609e+000
1.413474e+003,-8.166718e+000
1.414438e+003,-7.652634e+000
1.415402e+003,-6.280655e+000
1.416366e+003,-4.262329e+000
1.417330e+003,-3.332733e+000
1.418295e+003,-4.381027e+000
1.419259e+003,-5.913940e+000
1.420223e+003,-6.352402e+000
1.421187e+003,-5.847809e+000
1.422152e+003,-4.845276e+000
1.423116e+003,-2.862885e+000
1.424080e+003,-1.701767e+000
1.425044e+003,-2.423447e+000
1.426009e+003,-3.672226e+000
1.426973e+003,-5.577682e+000
1.427937e+003,-7.307541e+000
1.428901e+003,-7.755493e+000
1.429865e+003,-6.947006e+000
1.430830e+003,-5.770157e+000
1.431794e+003,-4.861191e+000
1.432758e+003,-4.093948e+000
1.433722e+003,-3.062912e+000
1.434687e+003,-1.544876e+000
1.435651e+003,-9.841919e-001
1.436615e+003,-2.444946e+000
1.437579e+003,-3.849396e+000
1.438544e+003,-5.404404e+000
1.439508e+003,-6.380478e+000
1.440472e+003,-6.019608e+000
1.441436e+003,-4.722137e+000
1.442401e+003,-3.114975e+000
1.443365e+003,-1.488464e+000
1.444329e+003,-4.487457e-001
1.445293e+003,-5.292053e-001
1.446257e+003,-1.112762e+000
1.447222e+003,-1.119446e+000
1.448186e+003,-6.479950e-001
1.449150e+003,3.846741e-002
1.450114e+003,1.195526e+000
1.451079e+003,1.333450e+000
1.452043e+003,-1.484619e+000
1.453007e+003,-4.809799e+000
1.453971e+003,-4.819733e+000
1.454936e+003,-2.016068e+000
1.455900e+003,-3.730621e-001
1.456864e+003,-9.906921e-001
1.457828e+003,-1.657639e+000
1.458792e+003,-7.170868e-001
1.459757e+003,2.157135e-001
1.460721e+003,-6.224518e-001
1.461685e+003,-2.362701e+000
1.462649e+003,-3.111725e+000
1.463614e+003,-2.370651e+000
1.464578e+003,-9.658508e-001
1.465542e+003,5.773621e-001
1.466506e+003,1.738052e+000
1.467471e+003,5.341492e-001
1.468435e+003,-3.952957e+000
1.469399e+003,-5.646408e+000
1.470363e+003,-1.614059e+000
1.471328e+003,1.334335e+000
1.472292e+003,9.811554e-001
1.473256e+003,-3.967896e-001
1.474220e+003,-1.293152e+000
1.475184e+003,-1.640823e+000
1.476149e+003,-1.962601e+000
1.477113e+003,-2.427765e+000
1.478077e+003,-2.584305e+000
1.479041e+003,-1.907562e+000
1.480006e+003,-6.390381e-001
1.480970e+003,2.125702e-001
1.481934e+003,3.629761e-001
1.482898e+003,9.333038e-001
1.483863e+003,2.420578e+000
1.484827e+003,3.537186e+000
1.485791e+003,3.831940e+000
1.486755e+003,3.856598e+000
1.487719e+003,4.171692e+000
1.488684e+003,4.552231e+000
1.489648e+003,4.137543e+000
1.490612e+003,2.745361e+000
1.491576e+003,1.883438e+000
1.492541e+003,2.860321e+000
1.493505e+003,4.900803e+000
1.494469e+003,6.462631e+000
1.495433e+003,7.523651e+000
1.496398e+003,8.464081e+000
1.497362e+003,9.504318e+000
1.498326e+003,1.031995e+001
1.499290e+003,1.045427e+001
1.500255e+003,1.044052e+001
1.501219e+003,1.055798e+001
1.502183e+003,1.103496e+001
1.503147e+003,1.346890e+001
1.504111e+003,1.863409e+001
1.505076e+003,2.357120e+001
1.506040e+003,2.667807e+001
1.507004e+003,2.866693e+001
1.507968e+003,2.951245e+001
1.508933e+003,3.012732e+001
1.509897e+003,3.240877e+001
1.510861e+003,3.681062e+001
1.511825e+003,4.253346e+001
1.512790e+003,4.925568e+001
1.513754e+003,5.624908e+001
1.514718e+003,6.207794e+001
1.515682e+003,6.666902e+001
1.516646e+003,7.190186e+001
1.517611e+003,7.860400e+001
1.518575e+003,8.454344e+001
1.519539e+003,8.962968e+001
1.520503e+003,9.331277e+001
1.521468e+003,9.522993e+001
1.522432e+003,9.547073e+001
1.523396e+003,9.341263e+001
1.524360e+003,8.969496e+001
1.525325e+003,8.694698e+001
1.526289e+003,8.694528e+001
1.527253e+003,8.759128e+001
1.528217e+003,8.501543e+001
1.529182e+003,7.925018e+001
1.530146e+003,7.315648e+001
1.531110e+003,6.631917e+001
1.532074e+003,5.975740e+001
1.533039e+003,5.325122e+001
1.534003e+003,4.697778e+001
1.534967e+003,4.135310e+001
1.535931e+003,3.610652e+001
1.536896e+003,3.051682e+001
1.537860e+003,2.495264e+001
1.538824e+003,2.080719e+001
1.539788e+003,1.867575e+001
1.540752e+003,1.727899e+001
1.541717e+003,1.500595e+001
1.542681e+003,1.207724e+001
1.543645e+003,9.573532e+000
1.544609e+003,7.607376e+000
1.545573e+003,6.104965e+000
1.546538e+003,4.691925e+000
1.547502e+003,3.963242e+000
1.548466e+003,4.426285e+000
1.549430e+003,5.650146e+000
1.550395e+003,7.717377e+000
1.551359e+003,9.972809e+000
1.552323e+003,1.085420e+001
1.553287e+003,9.889160e+000
1.554252e+003,8.269928e+000
1.555216e+003,6.924484e+000
1.556180e+003,5.898590e+000
1.557144e+003,5.423676e+000
1.558109e+003,5.556717e+000
1.559073e+003,5.329071e+000
1.560037e+003,4.173492e+000
1.561001e+003,3.541306e+000
1.561966e+003,4.797058e+000
1.562930e+003,6.180389e+000
1.563894e+003,5.411346e+000
1.564858e+003,3.516296e+000
1.565823e+003,3.479706e+000
1.566787e+003,5.747910e+000
1.567751e+003,7.715912e+000
1.568715e+003,7.961594e+000
1.569679e+003,7.311691e+000
1.570644e+003,6.443100e+000
1.571608e+003,5.488754e+000
1.572572e+003,5.054184e+000
1.573536e+003,5.229660e+000
1.574500e+003,5.256317e+000
1.575465e+003,4.500504e+000
1.576429e+003,4.067413e+000
1.577393e+003,5.261383e+000
1.578357e+003,7.168869e+000
1.579322e+003,7.961700e+000
1.580286e+003,7.621216e+000
1.581250e+003,7.477066e+000
1.582214e+003,8.049133e+000
1.583179e+003,8.403107e+000
1.584143e+003,7.361481e+000
1.585107e+003,6.091751e+000
1.586071e+003,6.350037e+000
1.587036e+003,7.833527e+000
1.588000e+003,9.445648e+000
1.588964e+003,1.093700e+001
1.589928e+003,1.185866e+001
1.590893e+003,1.168271e+001
1.591857e+003,1.102101e+001
1.592821e+003,1.062929e+001
1.593785e+003,1.056223e+001
1.594750e+003,1.116653e+001
1.595714e+003,1.258154e+001
1.596678e+003,1.377707e+001
1.597642e+003,1.436703e+001
1.598606e+003,1.459073e+001
1.599571e+003,1.472488e+001
1.600535e+003,1.465012e+001
1.601499e+003,1.388829e+001
1.602463e+003,1.263033e+001
1.603427e+003,1.204666e+001
1.604392e+003,1.268669e+001
1.605356e+003,1.353558e+001
1.606320e+003,1.346371e+001
1.607284e+003,1.284660e+001
1.608249e+003,1.282678e+001
1.609213e+003,1.343259e+001
1.610177e+003,1.371439e+001
1.611141e+003,1.328285e+001
1.612106e+003,1.311528e+001
1.613070e+003,1.445447e+001
1.614034e+003,1.548230e+001
1.614998e+003,1.408621e+001
1.615963e+003,1.179004e+001
1.616927e+003,1.141823e+001
1.617891e+003,1.319121e+001
1.618855e+003,1.500093e+001
1.619820e+003,1.556464e+001
1.620784e+003,1.549844e+001
1.621748e+003,1.594409e+001
1.622712e+003,1.682869e+001
1.623677e+003,1.667574e+001
1.624641e+003,1.515166e+001
1.625605e+003,1.458755e+001
1.626569e+003,1.558850e+001
1.627533e+003,1.700893e+001
1.628498e+003,1.920125e+001
1.629462e+003,2.097060e+001
1.630426e+003,2.111874e+001
1.631390e+003,2.002443e+001
1.632354e+003,1.832538e+001
1.633319e+003,1.635593e+001
1.634283e+003,1.510228e+001
1.635247e+003,1.533472e+001
1.636211e+003,1.650461e+001
1.637176e+003,1.808391e+001
1.638140e+003,1.999452e+001
1.639104e+003,2.023129e+001
1.640068e+003,1.811536e+001
1.641033e+003,1.655879e+001
1.641997e+003,1.649002e+001
1.642961e+003,1.691719e+001
1.643925e+003,1.782912e+001
1.644890e+003,1.854759e+001
1.645854e+003,1.822258e+001
1.646818e+003,1.712856e+001
1.647782e+003,1.598282e+001
1.648747e+003,1.505208e+001
1.649711e+003,1.461496e+001
1.650675e+003,1.503123e+001
1.651639e+003,1.595172e+001
1.652604e+003,1.654153e+001
1.653568e+003,1.677150e+001
1.654532e+003,1.719420e+001
1.655496e+003,1.809346e+001
1.656460e+003,1.823503e+001
1.657425e+003,1.658713e+001
1.658389e+003,1.509196e+001
1.659353e+003,1.488383e+001
1.660317e+003,1.526082e+001
1.661281e+003,1.573553e+001
1.662246e+003,1.605321e+001
1.663210e+003,1.583603e+001
1.664174e+003,1.499313e+001
1.665138e+003,1.369902e+001
1.666103e+003,1.172807e+001
1.667067e+003,9.881317e+000
1.668031e+003,1.033449e+001
1.668995e+003,1.286501e+001
1.669960e+003,1.372824e+001
1.670924e+003,1.226823e+001
1.671888e+003,1.088722e+001
1.672852e+003,1.011758e+001
1.673817e+003,9.804382e+000
1.674781e+003,9.929886e+000
1.675745e+003,1.034294e+001
1.676709e+003,1.118735e+001
1.677674e+003,1.215073e+001
1.678638e+003,1.220702e+001
1.679602e+003,1.105312e+001
1.680566e+003,1.005173e+001
1.681531e+003,1.048936e+001
1.682495e+003,1.149532e+001
1.683459e+003,1.158180e+001
1.684423e+003,1.077293e+001
1.685387e+003,9.217682e+000
1.686352e+003,6.720734e+000
1.687316e+003,5.537170e+000
1.688280e+003,7.106995e+000
1.689244e+003,8.776443e+000
1.690208e+003,8.525345e+000
1.691173e+003,7.319717e+000
1.692137e+003,5.790543e+000
1.693101e+003,4.297836e+000
1.694065e+003,3.739090e+000
1.695030e+003,4.302597e+000
1.695994e+003,4.826248e+000
1.696958e+003,4.508575e+000
1.697922e+003,3.978653e+000
1.698887e+003,4.216202e+000
1.699851e+003,4.874878e+000
1.700815e+003,4.610397e+000
1.701779e+003,3.309616e+000
1.702744e+003,2.683411e+000
1.703708e+003,3.569534e+000
1.704672e+003,4.338394e+000
1.705636e+003,3.345810e+000
1.706601e+003,1.846954e+000
1.707565e+003,2.204544e+000
1.708529e+003,3.772308e+000
1.709493e+003,4.150772e+000
1.710458e+003,2.893982e+000
1.711422e+003,1.984680e+000
1.712386e+003,2.545486e+000
1.713350e+003,3.482315e+000
1.714314e+003,4.041473e+000
1.715279e+003,4.200058e+000
1.716243e+003,3.872147e+000
1.717207e+003,3.173706e+000
1.718171e+003,2.524612e+000
1.719135e+003,2.058517e+000
1.720100e+003,1.875977e+000
1.721064e+003,2.132034e+000
1.722028e+003,2.325546e+000
1.722992e+003,1.609772e+000
1.723957e+003,3.368988e-001
1.724921e+003,2.695007e-001
1.725885e+003,1.608871e+000
1.726849e+003,1.978287e+000
1.727814e+003,-6.036377e-002
1.728778e+003,-1.400589e+000
1.729742e+003,-6.135559e-002
1.730706e+003,1.929626e+000
1.731671e+003,2.260422e+000
1.732635e+003,1.650558e+000
1.733599e+003,2.460815e+000
1.734563e+003,4.806671e+000
1.735528e+003,6.167267e+000
1.736492e+003,5.185135e+000
1.737456e+003,3.291046e+000
1.738420e+003,2.106186e+000
1.739385e+003,1.480118e+000
1.740349e+003,1.131989e+000
1.741313e+003,1.259659e+000
1.742277e+003,9.419708e-001
1.743241e+003,-1.303711e-001
1.744206e+003,-1.005325e+000
1.745170e+003,-1.634094e+000
1.746134e+003,-2.038361e+000
1.747098e+003,-2.204636e+000
1.748063e+003,-2.187515e+000
1.749027e+003,-2.065674e+000
1.749991e+003,-1.788666e+000
1.750955e+003,-1.074661e+000
1.751919e+003,3.211975e-002
1.752884e+003,8.118286e-001
1.753848e+003,6.613922e-001
1.754812e+003,-5.178833e-002
1.755776e+003,-5.914612e-001
1.756741e+003,-8.874512e-001
1.757705e+003,-6.763458e-001
1.758669e+003,2.881622e-001
1.759633e+003,8.335571e-001
1.760598e+003,4.409790e-003
1.761562e+003,-1.416779e-001
1.762526e+003,2.553894e+000
1.763490e+003,4.696243e+000
1.764455e+003,2.991562e+000
1.765419e+003,-3.903198e-001
1.766383e+003,-1.865448e+000
1.767347e+003,-1.246201e+000
1.768312e+003,-7.888947e-001
1.769276e+003,-1.586365e+000
1.770240e+003,-2.391083e+000
1.771204e+003,-1.627899e+000
1.772168e+003,-9.933472e-003
1.773133e+003,5.914307e-001
1.774097e+003,2.901611e-001
1.775061e+003,4.169464e-001
1.776025e+003,1.185623e+000
1.776990e+003,1.000809e+000
1.777954e+003,-1.180084e+000
1.778918e+003,-3.030594e+000
1.779882e+003,-2.568939e+000
1.780846e+003,-1.213684e+000
1.781811e+003,-7.075806e-001
1.782775e+003,-8.753357e-001
1.783739e+003,-1.243362e+000
1.784703e+003,-1.750061e+000
1.785668e+003,-2.134613e+000
1.786632e+003,-2.707581e+000
1.787596e+003,-2.744507e+000
1.788560e+003,-6.804810e-001
1.789525e+003,1.697586e+000
1.790489e+003,1.235947e+000
1.791453e+003,-1.224380e+000
1.792417e+003,-2.505157e+000
1.793382e+003,-1.957901e+000
1.794346e+003,-8.014221e-001
1.795310e+003,3.771057e-001
1.796274e+003,1.025497e+000
1.797239e+003,3.803253e-001
1.798203e+003,-8.269043e-001
1.799167e+003,-3.553467e-001
1.800131e+003,2.162506e+000
1.801095e+003,2.803864e+000
1.802060e+003,-1.321716e-001
1.803024e+003,-1.751938e+000
1.803988e+003,-6.821747e-001
1.804952e+003,5.686798e-001
1.805917e+003,5.890350e-001
1.806881e+003,4.069214e-001
1.807845e+003,1.512207e+000
1.808809e+003,3.214523e+000
1.809773e+003,3.956497e+000
1.810738e+003,3.368088e+000
1.811702e+003,1.922852e+000
1.812666e+003,-5.792236e-002
1.813630e+003,-2.033203e+000
1.814595e+003,-3.321152e+000
1.815559e+003,-3.951569e+000
1.816523e+003,-3.856888e+000
1.817487e+003,-2.966232e+000
1.818452e+003,-1.876358e+000
1.819416e+003,-2.319336e-001
1.820380e+003,6.885834e-001
1.821344e+003,2.617798e-001
1.822309e+003,-7.248535e-001
1.823273e+003,-2.352493e+000
1.824237e+003,-3.764221e+000
1.825201e+003,-4.226746e+000
1.826166e+003,-3.776749e+000
1.827130e+003,-1.995026e+000
1.828094e+003,1.047592e+000
1.829058e+003,2.113083e+000
1.830022e+003,-1.342468e+000
1.830987e+003,-4.931839e+000
1.831951e+003,-4.641769e+000
1.832915e+003,-2.558945e+000
1.833879e+003,-1.487915e+000
1.834844e+003,-1.328674e+000
1.835808e+003,-1.410583e+000
1.836772e+003,-1.552002e+000
1.837736e+003,-1.512711e+000
1.838700e+003,-1.223404e+000
1.839665e+003,-6.743469e-001
1.840629e+003,2.831116e-001
1.841593e+003,1.228119e+000
1.842557e+003,1.102615e+000
1.843522e+003,-7.347107e-002
1.844486e+003,-4.568481e-001
1.845450e+003,6.838379e-001
1.846414e+003,1.394974e+000
1.847379e+003,1.120285e+000
1.848343e+003,9.437256e-001
1.849307e+003,1.738464e+000
1.850271e+003,2.240479e+000
1.851236e+003,1.170456e+000
1.852200e+003,-4.657593e-001
1.853164e+003,-1.310120e+000
1.854128e+003,-1.402832e+000
1.855093e+003,-1.555405e+000
1.856057e+003,-1.984192e+000
1.857021e+003,-2.092392e+000
1.857985e+003,-1.397034e+000
1.858949e+003,-2.714539e-001
1.859914e+003,7.605286e-001
1.860878e+003,1.704834e+000
1.861842e+003,2.563995e+000
1.862806e+003,3.320190e+000
1.863771e+003,3.430344e+000
1.864735e+003,2.584595e+000
1.865699e+003,1.988220e+000
1.866663e+003,2.435562e+000
1.867627e+003,2.890839e+000
1.868592e+003,2.201752e+000
1.869556e+003,9.270782e-001
1.870520e+003,3.748932e-001
1.871484e+003,3.825378e-001
1.872449e+003,-2.909698e-001
1.873413e+003,-2.069855e+000
1.874377e+003,-2.573730e+000
1.875341e+003,-5.260925e-001
1.876306e+003,1.837997e+000
1.877270e+003,4.185425e+000
1.878234e+003,5.464142e+000
1.879198e+003,3.563843e+000
1.880163e+003,3.840179e-001
1.881127e+003,-3.566742e-001
1.882091e+003,1.344467e+000
1.883055e+003,2.802246e+000
1.884020e+003,2.847656e+000
1.884984e+003,2.296509e+000
1.885948e+003,1.877151e+000
1.886912e+003,1.627258e+000
1.887876e+003,1.657639e+000
1.888841e+003,1.950562e+000
1.889805e+003,2.153915e+000
1.890769e+003,2.196930e+000
1.891733e+003,2.597900e+000
1.892698e+003,3.670547e+000
1.893662e+003,4.294479e+000
1.894626e+003,3.708679e+000
1.895590e+003,3.116867e+000
1.896554e+003,3.715240e+000
1.897519e+003,4.576492e+000
1.898483e+003,4.291260e+000
1.899447e+003,3.185196e+000
1.900411e+003,2.867050e+000
1.901376e+003,3.692169e+000
1.902340e+003,4.015182e+000
1.903304e+003,2.891663e+000
1.904268e+003,1.605576e+000
1.905233e+003,8.567352e-001
1.906197e+003,4.511108e-001
1.907161e+003,6.468201e-002
1.908125e+003,-3.672791e-002
1.909090e+003,8.790894e-001
1.910054e+003,2.487076e+000
1.911018e+003,3.625778e+000
1.911982e+003,3.901031e+000
1.912947e+003,3.461777e+000
1.913911e+003,2.395782e+000
1.914875e+003,1.194580e+000
1.915839e+003,6.074829e-001
1.916803e+003,4.875183e-001
1.917768e+003,3.117523e-001
1.918732e+003,3.541565e-002
1.919696e+003,3.958588e-001
1.920660e+003,1.832184e+000
1.921625e+003,2.745270e+000
1.922589e+003,2.131470e+000
1.923553e+003,1.909332e+000
1.924517e+003,3.601822e+000
1.925481e+003,5.682007e+000
1.926446e+003,7.038284e+000
1.927410e+003,7.734863e+000
1.928374e+003,7.831635e+000
1.929338e+003,7.341064e+000
1.930303e+003,6.697678e+000
1.931267e+003,5.994080e+000
1.932231e+003,5.545197e+000
1.933195e+003,5.825150e+000
1.934160e+003,5.857666e+000
1.935124e+003,4.474350e+000
1.936088e+003,2.771500e+000
1.937052e+003,2.108994e+000
1.938017e+003,2.353287e+000
1.938981e+003,3.091537e+000
1.939945e+003,4.005157e+000
1.940909e+003,4.424377e+000
1.941874e+003,4.085938e+000
1.942838e+003,3.752701e+000
1.943802e+003,4.229721e+000
1.944766e+003,4.907623e+000
1.945730e+003,4.269501e+000
1.946695e+003,2.508118e+000
1.947659e+003,1.488998e+000
1.948623e+003,1.151489e+000
1.949587e+003,2.339462e+000
1.950552e+003,5.839264e+000
1.951516e+003,8.087708e+000
1.952480e+003,7.437744e+000
1.953444e+003,6.258179e+000
1.954408e+003,6.018448e+000
1.955373e+003,6.238724e+000
1.956337e+003,6.441269e+000
1.957301e+003,6.672394e+000
1.958265e+003,6.898926e+000
1.959230e+003,7.173859e+000
1.960194e+003,7.048965e+000
1.961158e+003,5.936691e+000
1.962122e+003,4.988663e+000
1.963087e+003,4.447235e+000
1.964051e+003,4.249084e+000
1.965015e+003,4.564667e+000
1.965979e+003,5.150803e+000
1.966944e+003,5.877060e+000
1.967908e+003,6.505768e+000
1.968872e+003,6.717163e+000
1.969836e+003,6.551102e+000
1.970801e+003,6.322449e+000
1.971765e+003,6.179306e+000
1.972729e+003,6.072006e+000
1.973693e+003,5.935043e+000
1.974657e+003,5.852554e+000
1.975622e+003,5.963547e+000
1.976586e+003,6.175888e+000
1.977550e+003,6.320145e+000
1.978514e+003,6.426163e+000
1.979479e+003,6.515472e+000
1.980443e+003,6.587936e+000
1.981407e+003,6.842651e+000
1.982371e+003,7.390732e+000
1.983335e+003,8.019989e+000
1.984300e+003,8.568573e+000
1.985264e+003,8.846542e+000
1.986228e+003,8.527267e+000
1.987192e+003,7.809586e+000
1.988157e+003,7.783127e+000
1.989121e+003,8.700882e+000
1.990085e+003,9.139877e+000
1.991049e+003,8.915634e+000
1.992014e+003,8.669067e+000
1.992978e+003,8.429398e+000
1.993942e+003,8.158173e+000
1.994906e+003,7.693054e+000
1.995871e+003,7.349777e+000
1.996835e+003,7.150345e+000
1.997799e+003,7.390610e+000
1.998763e+003,8.939651e+000
1.999728e+003,1.128702e+001
