5.003444e+002,3.480905e+001
5.013087e+002,3.601297e+001
5.022729e+002,3.447940e+001
5.032371e+002,3.142426e+001
5.042014e+002,3.008347e+001
5.051656e+002,3.028506e+001
5.061298e+002,3.111777e+001
5.070941e+002,3.179047e+001
5.080583e+002,3.226556e+001
5.090225e+002,3.167856e+001
5.099868e+002,2.908652e+001
5.109510e+002,2.673438e+001
5.119152e+002,2.610419e+001
5.128795e+002,2.740823e+001
5.138437e+002,2.813144e+001
5.148079e+002,2.632605e+001
5.157722e+002,2.489090e+001
5.167364e+002,2.538184e+001
5.177006e+002,2.760217e+001
5.186649e+002,2.974884e+001
5.196291e+002,2.989490e+001
5.205933e+002,2.906003e+001
5.215576e+002,2.757172e+001
5.225218e+002,2.545621e+001
5.234860e+002,2.321735e+001
5.244503e+002,2.210498e+001
5.254145e+002,2.306375e+001
5.263787e+002,2.237762e+001
5.273430e+002,1.826453e+001
5.283072e+002,1.369479e+001
5.292714e+002,1.305032e+001
5.302357e+002,1.865164e+001
5.311999e+002,2.241754e+001
5.321641e+002,2.352548e+001
5.331284e+002,2.339282e+001
5.340926e+002,2.260687e+001
5.350568e+002,2.115247e+001
5.360211e+002,1.978711e+001
5.369853e+002,2.015961e+001
5.379495e+002,2.097983e+001
5.389138e+002,2.109253e+001
5.398780e+002,1.999078e+001
5.408422e+002,1.792874e+001
5.418065e+002,1.504834e+001
5.427707e+002,1.164606e+001
5.437349e+002,1.066791e+001
5.446992e+002,1.349307e+001
5.456634e+002,1.882758e+001
5.466276e+002,2.225940e+001
5.475919e+002,2.355139e+001
5.485561e+002,2.280640e+001
5.495203e+002,1.786841e+001
5.504846e+002,1.141003e+001
5.514488e+002,7.403900e+000
5.524130e+002,8.073944e+000
5.533773e+002,1.005692e+001
5.543415e+002,1.229633e+001
5.553057e+002,1.420248e+001
5.562700e+002,1.494418e+001
5.572342e+002,1.398984e+001
5.581984e+002,1.211707e+001
5.591627e+002,1.141818e+001
5.601269e+002,1.164426e+001
5.610911e+002,1.213898e+001
5.620554e+002,1.252884e+001
5.630196e+002,1.264297e+001
5.639838e+002,1.186227e+001
5.649481e+002,9.683716e+000
5.659123e+002,7.397583e+000
5.668765e+002,5.438995e+000
5.678408e+002,3.897217e+000
5.688050e+002,2.477875e+000
5.697692e+002,-1.483154e-001
5.707335e+002,-1.558685e+000
5.716977e+002,1.122742e-001
5.726619e+002,3.174652e+000
5.736262e+002,5.427246e+000
5.745904e+002,5.372864e+000
5.755546e+002,4.210754e+000
5.765189e+002,2.962463e+000
5.774831e+002,1.872986e+000
5.784473e+002,2.130707e+000
5.794116e+002,4.642365e+000
5.803758e+002,9.259033e+000
5.813400e+002,1.142715e+001
5.823043e+002,1.042828e+001
5.832685e+002,8.753357e+000
5.842327e+002,7.112701e+000
5.851970e+002,5.749268e+000
5.861612e+002,5.073730e+000
5.871254e+002,5.704193e+000
5.880897e+002,6.025177e+000
5.890539e+002,5.394592e+000
5.900181e+002,4.154907e+000
5.909824e+002,2.923370e+000
5.919466e+002,2.030914e+000
5.929108e+002,1.755432e+000
5.938751e+002,2.547302e+000
5.948393e+002,3.852295e+000
5.958035e+002,4.790741e+000
5.967678e+002,4.774750e+000
5.977320e+002,4.112183e+000
5.986962e+002,4.584320e+000
5.996605e+002,5.946503e+000
6.006247e+002,6.726471e+000
6.015889e+002,5.885986e+000
6.025532e+002,3.621735e+000
6.035174e+002,2.362244e+000
6.044816e+002,3.376526e+000
6.054459e+002,4.218048e+000
6.064101e+002,4.642365e+000
6.073743e+002,4.615143e+000
6.083386e+002,4.158966e+000
6.093028e+002,3.191437e+000
6.102670e+002,2.118622e+000
6.112313e+002,7.002258e-001
6.121955e+002,-5.231018e-001
6.131597e+002,-6.225586e-001
6.141240e+002,9.899902e-001
6.150882e+002,3.625366e+000
6.160524e+002,4.355621e+000
6.170167e+002,3.659119e+000
6.179809e+002,2.976715e+000
6.189451e+002,2.826569e+000
6.199094e+002,2.987579e+000
6.208736e+002,2.783722e+000
6.218378e+002,2.227783e+000
6.228021e+002,1.847565e+000
6.237663e+002,1.845947e+000
6.247305e+002,2.099335e+000
6.256948e+002,2.379852e+000
6.266590e+002,2.600525e+000
6.276232e+002,2.061066e+000
6.285875e+002,-6.185913e-002
6.295517e+002,-2.347778e+000
6.305159e+002,-3.260193e+000
6.314802e+002,-2.089752e+000
6.324444e+002,1.406250e-001
6.334086e+002,1.223236e+000
6.343729e+002,1.622833e+000
6.353371e+002,1.597565e+000
6.363013e+002,1.069733e+000
6.372656e+002,1.576843e-001
6.382298e+002,-4.661865e-001
6.391940e+002,-2.880859e-001
6.401583e+002,-7.362976e-001
6.411225e+002,-2.079346e+000
6.420867e+002,-3.356812e+000
6.430510e+002,-3.588440e+000
6.440152e+002,-2.558960e+000
6.449794e+002,-1.318542e+000
6.459437e+002,5.986938e-001
6.469079e+002,1.844116e+000
6.478721e+002,7.044678e-001
6.488364e+002,-2.967590e+000
6.498006e+002,-6.883667e+000
6.507648e+002,-6.613586e+000
6.517291e+002,-3.651245e+000
6.526933e+002,-1.188019e+000
6.536575e+002,1.892700e-001
6.546218e+002,6.603394e-001
6.555860e+002,5.423279e-001
6.565502e+002,-7.351685e-001
6.575145e+002,-1.445313e+000
6.584787e+002,-1.467529e+000
6.594429e+002,-1.070923e+000
6.604072e+002,-2.081299e-001
6.613714e+002,1.245087e+000
6.623356e+002,2.119171e+000
6.632999e+002,1.384949e+000
6.642641e+002,-1.312256e-003
6.652283e+002,-1.561920e+000
6.661926e+002,-3.023621e+000
6.671568e+002,-4.386932e+000
6.681210e+002,-6.010529e+000
6.690853e+002,-7.445160e+000
6.700495e+002,-7.312775e+000
6.710137e+002,-5.651306e+000
6.719780e+002,-3.455109e+000
6.729422e+002,-1.785706e+000
6.739064e+002,-8.721619e-001
6.748707e+002,1.688538e-001
6.758349e+002,2.379852e+000
6.767991e+002,3.434082e+000
6.777634e+002,1.832306e+000
6.787276e+002,-1.808167e+000
6.796918e+002,-4.274597e+000
6.806561e+002,-4.151978e+000
6.816203e+002,-3.279694e+000
6.825845e+002,-1.840027e+000
6.835488e+002,-2.478943e-001
6.845130e+002,1.074188e+000
6.854772e+002,1.884888e+000
6.864415e+002,2.341339e+000
6.874057e+002,2.237701e+000
6.883699e+002,1.507446e+000
6.893342e+002,6.834717e-001
6.902984e+002,1.463928e-001
6.912626e+002,-8.303833e-002
6.922269e+002,-4.579468e-001
6.931911e+002,-1.140778e+000
6.941553e+002,-9.113770e-001
6.951196e+002,7.017517e-001
6.960838e+002,2.678772e+000
6.970480e+002,3.554749e+000
6.980123e+002,2.788116e+000
6.989765e+002,1.866974e+000
6.999407e+002,9.831543e-001
7.009050e+002,4.328918e-001
7.018692e+002,8.764343e-001
7.028334e+002,2.272156e+000
7.037977e+002,3.303711e+000
7.047619e+002,1.229279e+000
7.057261e+002,-2.165405e+000
7.066904e+002,-3.330750e+000
7.076546e+002,-1.719391e+000
7.086188e+002,8.844299e-001
7.095831e+002,1.648773e+000
7.105473e+002,-2.296448e-001
7.115115e+002,-2.140472e+000
7.124758e+002,-4.880035e+000
7.134400e+002,-7.076752e+000
7.144042e+002,-7.580750e+000
7.153685e+002,-6.297699e+000
7.163327e+002,-4.789948e+000
7.172969e+002,-3.663574e+000
7.182612e+002,-2.447540e+000
7.192254e+002,-6.476440e-001
7.201896e+002,1.225128e+000
7.211539e+002,2.289368e+000
7.221181e+002,1.830963e+000
7.230823e+002,1.121216e-001
7.240466e+002,-2.404724e+000
7.250108e+002,-5.235352e+000
7.259750e+002,-7.222504e+000
7.269393e+002,-7.966919e+000
7.279035e+002,-7.776215e+000
7.288677e+002,-6.898193e+000
7.298320e+002,-3.064056e+000
7.307962e+002,-2.676392e-001
7.317604e+002,1.085876e+000
7.327247e+002,1.392609e+000
7.336889e+002,6.909790e-001
7.346531e+002,-1.875122e+000
7.356174e+002,-4.288544e+000
7.365816e+002,-4.720764e+000
7.375458e+002,-4.148407e+000
7.385101e+002,-3.189178e+000
7.394743e+002,-2.103485e+000
7.404385e+002,-7.723694e-001
7.414028e+002,1.252411e+000
7.423670e+002,2.832306e+000
7.433312e+002,1.253204e+000
7.442955e+002,-3.645599e+000
7.452597e+002,-7.917694e+000
7.462239e+002,-6.669769e+000
7.471882e+002,2.091431e+000
7.481524e+002,7.070343e+000
7.491166e+002,6.020264e+000
7.500809e+002,3.736420e+000
7.510451e+002,1.243195e+000
7.520093e+002,-1.067230e+000
7.529736e+002,-2.393066e+000
7.539378e+002,-1.149780e+000
7.549020e+002,2.462769e-002
7.558663e+002,-1.551422e+000
7.568306e+002,-4.012299e+000
7.577948e+002,-4.554932e+000
7.587590e+002,-1.705597e+000
7.597233e+002,2.856354e+000
7.606875e+002,4.834503e+000
7.616517e+002,4.686127e+000
7.626160e+002,2.941315e+000
7.635802e+002,-1.368256e+000
7.645444e+002,-6.014679e+000
7.655087e+002,-5.762878e+000
7.664729e+002,3.426331e+000
7.674371e+002,8.344452e+000
7.684014e+002,5.850159e+000
7.693656e+002,1.782501e+000
7.703298e+002,-3.795471e-001
7.712941e+002,-9.939575e-002
7.722583e+002,9.496155e-001
7.732225e+002,2.015076e+000
7.741868e+002,2.930756e+000
7.751510e+002,3.692719e+000
7.761152e+002,4.220123e+000
7.770795e+002,4.224854e+000
7.780437e+002,3.401276e+000
7.790079e+002,1.846100e+000
7.799722e+002,1.146423e+000
7.809364e+002,1.304871e+000
7.819006e+002,1.500397e+000
7.828649e+002,1.879578e+000
7.838291e+002,2.370483e+000
7.847933e+002,2.130096e+000
7.857576e+002,-2.236328e-001
7.867218e+002,-1.792633e+000
7.876860e+002,-1.370453e+000
7.886503e+002,-6.890869e-002
7.896145e+002,1.350372e+000
7.905787e+002,2.609650e+000
7.915430e+002,3.661835e+000
7.925072e+002,4.307068e+000
7.934714e+002,4.233063e+000
7.944357e+002,3.225342e+000
7.953999e+002,1.583221e+000
7.963641e+002,-1.498108e-001
7.973284e+002,-1.514374e+000
7.982926e+002,-2.519836e+000
7.992568e+002,-2.554382e+000
8.002211e+002,-2.088043e+000
8.011853e+002,-1.497467e+000
8.021495e+002,-3.660889e-001
8.031138e+002,1.583038e+000
8.040780e+002,4.187134e+000
8.050422e+002,7.763031e+000
8.060065e+002,1.049863e+001
8.069707e+002,1.240030e+001
8.079349e+002,1.268570e+001
8.088992e+002,9.652405e+000
8.098634e+002,3.319550e+000
8.108276e+002,-2.686005e+000
8.117919e+002,-2.750885e+000
8.127561e+002,5.841675e-001
8.137203e+002,3.643921e+000
8.146846e+002,6.229767e+000
8.156488e+002,7.772003e+000
8.166130e+002,7.074066e+000
8.175773e+002,3.278015e+000
8.185415e+002,2.002319e+000
8.195057e+002,5.112488e+000
8.204700e+002,7.415253e+000
8.214342e+002,6.409485e+000
8.223984e+002,3.295746e+000
8.233627e+002,1.481171e+000
8.243269e+002,2.719025e+000
8.252911e+002,4.493195e+000
8.262554e+002,5.838470e+000
8.272196e+002,6.482391e+000
8.281838e+002,5.453888e+000
8.291481e+002,2.791687e+000
8.301123e+002,3.674011e-001
8.310765e+002,2.141083e+000
8.320408e+002,7.388855e+000
8.330050e+002,8.139709e+000
8.339692e+002,2.783691e+000
8.349335e+002,-3.131226e+000
8.358977e+002,-3.040283e+000
8.368619e+002,4.463837e+000
8.378262e+002,8.694214e+000
8.387904e+002,5.130280e+000
8.397546e+002,2.664093e+000
8.407189e+002,4.654816e+000
8.416831e+002,8.998932e+000
8.426473e+002,1.156247e+001
8.436116e+002,1.019931e+001
8.445758e+002,8.274872e+000
8.455400e+002,9.557617e+000
8.465043e+002,1.167743e+001
8.474685e+002,1.214767e+001
8.484327e+002,1.062576e+001
8.493970e+002,8.735535e+000
8.503612e+002,8.892273e+000
8.513254e+002,1.145682e+001
8.522897e+002,1.242477e+001
8.532539e+002,1.060941e+001
8.542181e+002,8.580688e+000
8.551824e+002,8.137238e+000
8.561466e+002,9.405762e+000
8.571108e+002,1.112094e+001
8.580751e+002,1.271375e+001
8.590393e+002,1.368149e+001
8.600035e+002,1.416577e+001
8.609678e+002,1.433917e+001
8.619320e+002,1.407480e+001
8.628962e+002,1.336783e+001
8.638605e+002,1.288037e+001
8.648247e+002,1.417892e+001
8.657889e+002,1.626376e+001
8.667532e+002,1.702545e+001
8.677174e+002,1.618808e+001
8.686816e+002,1.468753e+001
8.696459e+002,1.354105e+001
8.706101e+002,1.284885e+001
8.715743e+002,1.303564e+001
8.725386e+002,1.501346e+001
8.735028e+002,1.668768e+001
8.744670e+002,1.688144e+001
8.754313e+002,1.616507e+001
8.763955e+002,1.603299e+001
8.773597e+002,1.734451e+001
8.783240e+002,1.852823e+001
8.792882e+002,1.771725e+001
8.802524e+002,1.649365e+001
8.812167e+002,1.637778e+001
8.821809e+002,1.760190e+001
8.831451e+002,1.934680e+001
8.841094e+002,2.058405e+001
8.850736e+002,2.156912e+001
8.860378e+002,2.346271e+001
8.870021e+002,2.639691e+001
8.879663e+002,2.903476e+001
8.889305e+002,3.093170e+001
8.898948e+002,3.184766e+001
8.908590e+002,3.068649e+001
8.918232e+002,2.499713e+001
8.927875e+002,2.179236e+001
8.937517e+002,2.435342e+001
8.947159e+002,2.836993e+001
8.956802e+002,2.987775e+001
8.966444e+002,2.804660e+001
8.976086e+002,2.545370e+001
8.985729e+002,2.473346e+001
8.995371e+002,2.551944e+001
9.005013e+002,2.697049e+001
9.014656e+002,2.899188e+001
9.024298e+002,3.088193e+001
9.033940e+002,3.195029e+001
9.043583e+002,3.202234e+001
9.053225e+002,3.149304e+001
9.062867e+002,2.807101e+001
9.072510e+002,2.681531e+001
9.082152e+002,3.067285e+001
9.091794e+002,3.549503e+001
9.101437e+002,3.654980e+001
9.111079e+002,3.301868e+001
9.120721e+002,2.993710e+001
9.130364e+002,3.040503e+001
9.140006e+002,3.163422e+001
9.149648e+002,3.266696e+001
9.159291e+002,3.350635e+001
9.168933e+002,3.418927e+001
9.178575e+002,3.462076e+001
9.188218e+002,3.479968e+001
9.197860e+002,3.523535e+001
9.207502e+002,3.581906e+001
9.217145e+002,3.605734e+001
9.226787e+002,3.648749e+001
9.236429e+002,3.662015e+001
9.246072e+002,3.529648e+001
9.255714e+002,3.195160e+001
9.265356e+002,2.895575e+001
9.274999e+002,2.631650e+001
9.284641e+002,2.425336e+001
9.294283e+002,2.339783e+001
9.303926e+002,2.327298e+001
9.313568e+002,2.297400e+001
9.323210e+002,2.200281e+001
9.332853e+002,2.076529e+001
9.342495e+002,1.978479e+001
9.352137e+002,1.895593e+001
9.361780e+002,1.864426e+001
9.371422e+002,1.910345e+001
9.381064e+002,1.961450e+001
9.390707e+002,1.874863e+001
9.400349e+002,1.570795e+001
9.409991e+002,1.477014e+001
9.419634e+002,1.646841e+001
9.429276e+002,1.908585e+001
9.438918e+002,2.359851e+001
9.448561e+002,2.842209e+001
9.458203e+002,3.079044e+001
9.467845e+002,2.969934e+001
9.477488e+002,2.789468e+001
9.487130e+002,2.674387e+001
9.496772e+002,2.611438e+001
9.506415e+002,2.625293e+001
9.516057e+002,2.692197e+001
9.525699e+002,2.740057e+001
9.535342e+002,2.694073e+001
9.544984e+002,2.555838e+001
9.554626e+002,2.428943e+001
9.564269e+002,2.341614e+001
9.573911e+002,2.314163e+001
9.583553e+002,2.360938e+001
9.593196e+002,2.449738e+001
9.602838e+002,2.520456e+001
9.612480e+002,2.542297e+001
9.622123e+002,2.629388e+001
9.631765e+002,2.984030e+001
9.641407e+002,3.263879e+001
9.651050e+002,3.269116e+001
9.660692e+002,3.052444e+001
9.670334e+002,2.755667e+001
9.679977e+002,2.478766e+001
9.689619e+002,2.273636e+001
9.699261e+002,2.222867e+001
9.708904e+002,2.270795e+001
9.718546e+002,2.373544e+001
9.728188e+002,2.530124e+001
9.737831e+002,2.649200e+001
9.747473e+002,2.567871e+001
9.757115e+002,2.211588e+001
9.766758e+002,2.122772e+001
9.776400e+002,2.633948e+001
9.786042e+002,3.054190e+001
9.795685e+002,3.208472e+001
9.805327e+002,3.145123e+001
9.814969e+002,2.901926e+001
9.824612e+002,2.506433e+001
9.834254e+002,2.212750e+001
9.843896e+002,2.373294e+001
9.853539e+002,2.662622e+001
9.863181e+002,2.709143e+001
9.872823e+002,2.512222e+001
9.882466e+002,2.305417e+001
9.892108e+002,2.315179e+001
9.901750e+002,2.545773e+001
9.911393e+002,2.738925e+001
9.921035e+002,2.762854e+001
9.930677e+002,2.799265e+001
9.940320e+002,2.809982e+001
9.949962e+002,2.925757e+001
9.959604e+002,3.335565e+001
9.969247e+002,4.037546e+001
9.978889e+002,4.671423e+001
9.988531e+002,5.037091e+001
9.998174e+002,5.222366e+001
1.000782e+003,5.242139e+001
1.001746e+003,5.200439e+001
1.002710e+003,5.245187e+001
1.003674e+003,5.423096e+001
1.004639e+003,5.616003e+001
1.005603e+003,5.612161e+001
1.006567e+003,5.376770e+001
1.007531e+003,5.173230e+001
1.008495e+003,4.992056e+001
1.009460e+003,4.865179e+001
1.010424e+003,4.855829e+001
1.011388e+003,4.934927e+001
1.012352e+003,4.956076e+001
1.013317e+003,4.872839e+001
1.014281e+003,4.747641e+001
1.015245e+003,4.583261e+001
1.016209e+003,4.383612e+001
1.017174e+003,4.172946e+001
1.018138e+003,3.945438e+001
1.019102e+003,3.655811e+001
1.020066e+003,3.262946e+001
1.021031e+003,2.840286e+001
1.021995e+003,2.544482e+001
1.022959e+003,2.326587e+001
1.023923e+003,2.144980e+001
1.024887e+003,1.994659e+001
1.025852e+003,1.846704e+001
1.026816e+003,1.650809e+001
1.027780e+003,1.399603e+001
1.028744e+003,1.246893e+001
1.029709e+003,1.273056e+001
1.030673e+003,1.304114e+001
1.031637e+003,1.276947e+001
1.032601e+003,1.211417e+001
1.033566e+003,1.177832e+001
1.034530e+003,1.204761e+001
1.035494e+003,1.175095e+001
1.036458e+003,8.317322e+000
1.037422e+003,4.078857e+000
1.038387e+003,3.650360e+000
1.039351e+003,6.692993e+000
1.040315e+003,9.398438e+000
1.041279e+003,8.893951e+000
1.042244e+003,6.151764e+000
1.043208e+003,5.467194e+000
1.044172e+003,8.264191e+000
1.045136e+003,1.020755e+001
1.046101e+003,1.097418e+001
1.047065e+003,1.142773e+001
1.048029e+003,1.192996e+001
1.048993e+003,1.246863e+001
1.049958e+003,1.307037e+001
1.050922e+003,1.403568e+001
1.051886e+003,1.482373e+001
1.052850e+003,1.469720e+001
1.053814e+003,1.407236e+001
1.054779e+003,1.343091e+001
1.055743e+003,1.284058e+001
1.056707e+003,1.204031e+001
1.057671e+003,1.066516e+001
1.058636e+003,8.649658e+000
1.059600e+003,7.975616e+000
1.060564e+003,1.038589e+001
1.061528e+003,1.226215e+001
1.062493e+003,1.277951e+001
1.063457e+003,1.222409e+001
1.064421e+003,1.074097e+001
1.065385e+003,8.518585e+000
1.066349e+003,6.895294e+000
1.067314e+003,7.053589e+000
1.068278e+003,7.460205e+000
1.069242e+003,6.651398e+000
1.070206e+003,5.588501e+000
1.071171e+003,5.866547e+000
1.072135e+003,7.932831e+000
1.073099e+003,1.060474e+001
1.074063e+003,1.210406e+001
1.075028e+003,1.241544e+001
1.075992e+003,1.305170e+001
1.076956e+003,1.477344e+001
1.077920e+003,1.511661e+001
1.078885e+003,1.225342e+001
1.079849e+003,8.147217e+000
1.080813e+003,6.366364e+000
1.081777e+003,7.764282e+000
1.082741e+003,9.612732e+000
1.083706e+003,1.146176e+001
1.084670e+003,1.196503e+001
1.085634e+003,9.381653e+000
1.086598e+003,4.987366e+000
1.087563e+003,1.052765e+000
1.088527e+003,-9.526062e-001
1.089491e+003,-1.046051e+000
1.090455e+003,5.639038e-001
1.091420e+003,3.887024e+000
1.092384e+003,5.915710e+000
1.093348e+003,5.901520e+000
1.094312e+003,5.587769e+000
1.095276e+003,6.306946e+000
1.096241e+003,7.834198e+000
1.097205e+003,8.899170e+000
1.098169e+003,8.939819e+000
1.099133e+003,9.076508e+000
1.100098e+003,1.058923e+001
1.101062e+003,1.181573e+001
1.102026e+003,1.102835e+001
1.102990e+003,9.153198e+000
1.103955e+003,8.520020e+000
1.104919e+003,1.046609e+001
1.105883e+003,1.359778e+001
1.106847e+003,1.508929e+001
1.107812e+003,1.483621e+001
1.108776e+003,1.481857e+001
1.109740e+003,1.517767e+001
1.110704e+003,1.566498e+001
1.111668e+003,1.651407e+001
1.112633e+003,1.773004e+001
1.113597e+003,1.841553e+001
1.114561e+003,1.785953e+001
1.115525e+003,1.767371e+001
1.116490e+003,1.871313e+001
1.117454e+003,1.981534e+001
1.118418e+003,2.051660e+001
1.119382e+003,2.092517e+001
1.120347e+003,2.103397e+001
1.121311e+003,2.061804e+001
1.122275e+003,1.996454e+001
1.123239e+003,2.067514e+001
1.124203e+003,2.293311e+001
1.125168e+003,2.422754e+001
1.126132e+003,2.417276e+001
1.127096e+003,2.392639e+001
1.128060e+003,2.339337e+001
1.129025e+003,2.300076e+001
1.129989e+003,2.589374e+001
1.130953e+003,3.478577e+001
1.131917e+003,4.082663e+001
1.132882e+003,3.994907e+001
1.133846e+003,3.788623e+001
1.134810e+003,3.763666e+001
1.135774e+003,3.927957e+001
1.136739e+003,4.188354e+001
1.137703e+003,4.486694e+001
1.138667e+003,4.780679e+001
1.139631e+003,4.942432e+001
1.140595e+003,5.026605e+001
1.141560e+003,5.522507e+001
1.142524e+003,6.587878e+001
1.143488e+003,7.666449e+001
1.144452e+003,8.230917e+001
1.145417e+003,8.491553e+001
1.146381e+003,9.262537e+001
1.147345e+003,1.074887e+002
1.148309e+003,1.223276e+002
1.149274e+003,1.355919e+002
1.150238e+003,1.484618e+002
1.151202e+003,1.619636e+002
1.152166e+003,1.757274e+002
1.153130e+003,1.895772e+002
1.154095e+003,2.028722e+002
1.155059e+003,2.127196e+002
1.156023e+003,2.151337e+002
1.156987e+003,2.105630e+002
1.157952e+003,2.043905e+002
1.158916e+003,1.970705e+002
1.159880e+003,1.889613e+002
1.160844e+003,1.790553e+002
1.161809e+003,1.678251e+002
1.162773e+003,1.577103e+002
1.163737e+003,1.495344e+002
1.164701e+003,1.389181e+002
1.165666e+003,1.207730e+002
1.166630e+003,1.045692e+002
1.167594e+003,9.371210e+001
1.168558e+003,8.692325e+001
1.169522e+003,8.236456e+001
1.170487e+003,7.932178e+001
1.171451e+003,7.845047e+001
1.172415e+003,8.083728e+001
1.173379e+003,8.540771e+001
1.174344e+003,8.696860e+001
1.175308e+003,8.572491e+001
1.176272e+003,8.319196e+001
1.177236e+003,7.905185e+001
1.178201e+003,7.466580e+001
1.179165e+003,7.166077e+001
1.180129e+003,6.983026e+001
1.181093e+003,6.784961e+001
1.182057e+003,6.575867e+001
1.183022e+003,6.331726e+001
1.183986e+003,5.964606e+001
1.184950e+003,5.621490e+001
1.185914e+003,5.443433e+001
1.186879e+003,5.449872e+001
1.187843e+003,5.591296e+001
1.188807e+003,5.822406e+001
1.189771e+003,6.089587e+001
1.190736e+003,6.271338e+001
1.191700e+003,6.360498e+001
1.192664e+003,6.383350e+001
1.193628e+003,6.410486e+001
1.194593e+003,6.319684e+001
1.195557e+003,5.916949e+001
1.196521e+003,5.309302e+001
1.197485e+003,4.908105e+001
1.198449e+003,4.834869e+001
1.199414e+003,4.796320e+001
1.200378e+003,4.694043e+001
1.201342e+003,4.556000e+001
1.202306e+003,4.361041e+001
1.203271e+003,4.131396e+001
1.204235e+003,3.930511e+001
1.205199e+003,3.788690e+001
1.206163e+003,3.646625e+001
1.207128e+003,3.391461e+001
1.208092e+003,3.018341e+001
1.209056e+003,2.709186e+001
1.210020e+003,2.537195e+001
1.210984e+003,2.282361e+001
1.211949e+003,1.721014e+001
1.212913e+003,1.129529e+001
1.213877e+003,9.396301e+000
1.214841e+003,1.171783e+001
1.215806e+003,1.322552e+001
1.216770e+003,1.145813e+001
1.217734e+003,9.085815e+000
1.218698e+003,8.167969e+000
1.219663e+003,7.507813e+000
1.220627e+003,5.242615e+000
1.221591e+003,1.440735e+000
1.222555e+003,-1.839294e+000
1.223520e+003,-2.610046e+000
1.224484e+003,-1.332031e+000
1.225448e+003,-7.579956e-001
1.226412e+003,-1.216797e+000
1.227376e+003,-1.909119e+000
1.228341e+003,-2.953735e+000
1.229305e+003,-4.275940e+000
1.230269e+003,-6.100281e+000
1.231233e+003,-8.127869e+000
1.232198e+003,-9.812469e+000
1.233162e+003,-1.092178e+001
1.234126e+003,-1.103964e+001
1.235090e+003,-9.373993e+000
1.236055e+003,-7.378204e+000
1.237019e+003,-6.506775e+000
1.237983e+003,-6.645264e+000
1.238947e+003,-7.148865e+000
1.239911e+003,-7.613586e+000
1.240876e+003,-8.192566e+000
1.241840e+003,-9.470703e+000
1.242804e+003,-1.157983e+001
1.243768e+003,-1.173456e+001
1.244733e+003,-8.027191e+000
1.245697e+003,-4.745117e+000
1.246661e+003,-2.355469e+000
1.247625e+003,-8.456421e-001
1.248590e+003,-1.499023e-001
1.249554e+003,3.619385e-002
1.250518e+003,-7.952881e-002
1.251482e+003,-6.018677e-001
1.252447e+003,-1.071167e+000
1.253411e+003,-6.168823e-001
1.254375e+003,5.726318e-001
1.255339e+003,1.985168e+000
1.256303e+003,3.677185e+000
1.257268e+003,5.137146e+000
1.258232e+003,5.765259e+000
1.259196e+003,5.766113e+000
1.260160e+003,5.768250e+000
1.261125e+003,5.820007e+000
1.262089e+003,7.142273e+000
1.263053e+003,1.140643e+001
1.264017e+003,1.446387e+001
1.264982e+003,1.477460e+001
1.265946e+003,1.409778e+001
1.266910e+003,1.422290e+001
1.267874e+003,1.509882e+001
1.268839e+003,1.538977e+001
1.269803e+003,1.422314e+001
1.270767e+003,1.225098e+001
1.271731e+003,1.080280e+001
1.272695e+003,9.941895e+000
1.273660e+003,8.155823e+000
1.274624e+003,4.249268e+000
1.275588e+003,1.376892e+000
1.276552e+003,2.948547e+000
1.277517e+003,6.412842e+000
1.278481e+003,6.034973e+000
1.279445e+003,1.061279e+000
1.280409e+003,-2.383545e+000
1.281374e+003,-6.191406e-001
1.282338e+003,8.406982e-001
1.283302e+003,-1.740967e+000
1.284266e+003,-5.681885e+000
1.285230e+003,-8.034485e+000
1.286195e+003,-8.328156e+000
1.287159e+003,-7.628876e+000
1.288123e+003,-6.692963e+000
1.289087e+003,-5.522278e+000
1.290052e+003,-4.605347e+000
1.291016e+003,-4.045532e+000
1.291980e+003,-4.246216e+000
1.292944e+003,-6.515686e+000
1.293909e+003,-8.264465e+000
1.294873e+003,-7.694855e+000
1.295837e+003,-6.074036e+000
1.296801e+003,-5.277222e+000
1.297766e+003,-5.531494e+000
1.298730e+003,-5.884888e+000
1.299694e+003,-5.976685e+000
1.300658e+003,-6.153076e+000
1.301622e+003,-6.756287e+000
1.302587e+003,-7.474396e+000
1.303551e+003,-7.974060e+000
1.304515e+003,-8.093781e+000
1.305479e+003,-7.838135e+000
1.306444e+003,-7.437378e+000
1.307408e+003,-6.743103e+000
1.308372e+003,-4.476257e+000
1.309336e+003,7.318726e-001
1.310301e+003,3.131409e+000
1.311265e+003,1.459290e+000
1.312229e+003,-1.460510e+000
1.313193e+003,-6.667664e+000
1.314157e+003,-1.163367e+001
1.315122e+003,-1.371774e+001
1.316086e+003,-1.286813e+001
1.317050e+003,-1.063840e+001
1.318014e+003,-7.812622e+000
1.318979e+003,-4.956604e+000
1.319943e+003,-3.251648e+000
1.320907e+003,-2.541931e+000
1.321871e+003,-2.221130e+000
1.322836e+003,-2.797974e+000
1.323800e+003,-3.113342e+000
1.324764e+003,-2.030090e+000
1.325728e+003,-4.662476e-001
1.326693e+003,-4.152832e-001
1.327657e+003,-2.107788e+000
1.328621e+003,-2.960754e+000
1.329585e+003,-9.945068e-001
1.330549e+003,1.200073e+000
1.331514e+003,1.704895e+000
1.332478e+003,1.135132e+000
1.333442e+003,1.091309e-001
1.334406e+003,-1.062134e+000
1.335371e+003,-2.351746e+000
1.336335e+003,-3.723511e+000
1.337299e+003,-4.762695e+000
1.338263e+003,-4.717590e+000
1.339228e+003,-3.423035e+000
1.340192e+003,-2.475769e+000
1.341156e+003,-2.197632e+000
1.342120e+003,-1.787354e+000
1.343084e+003,-1.109741e+000
1.344049e+003,-7.524414e-001
1.345013e+003,-1.415405e+000
1.345977e+003,-2.447205e+000
1.346941e+003,-1.972961e+000
1.347906e+003,7.716064e-001
1.348870e+003,3.276855e+000
1.349834e+003,2.925598e+000
1.350798e+003,7.824707e-001
1.351763e+003,-1.018921e+000
1.352727e+003,-2.319458e+000
1.353691e+003,-2.506287e+000
1.354655e+003,-9.754028e-001
1.355620e+003,5.115356e-001
1.356584e+003,-7.313843e-001
1.357548e+003,-4.129944e+000
1.358512e+003,-4.857178e+000
1.359476e+003,-1.387207e+000
1.360441e+003,2.239380e-001
1.361405e+003,-3.370056e+000
1.362369e+003,-6.875549e+000
1.363333e+003,-7.575500e+000
1.364298e+003,-6.595276e+000
1.365262e+003,-5.582764e+000
1.366226e+003,-5.091492e+000
1.367190e+003,-4.899475e+000
1.368155e+003,-4.819885e+000
1.369119e+003,-4.748779e+000
1.370083e+003,-4.278564e+000
1.371047e+003,-3.087341e+000
1.372011e+003,-2.293030e+000
1.372976e+003,-2.621460e+000
1.373940e+003,-2.945190e+000
1.374904e+003,-2.327881e+000
1.375868e+003,-1.585327e+000
1.376833e+003,-2.357422e+000
1.377797e+003,-4.461914e+000
1.378761e+003,-5.172058e+000
1.379725e+003,-2.789429e+000
1.380690e+003,-2.240601e-001
1.381654e+003,-1.179626e+000
1.382618e+003,-3.362366e+000
1.383582e+003,-3.477295e+000
1.384547e+003,-1.589172e+000
1.385511e+003,1.580200e-001
1.386475e+003,5.955200e-001
1.387439e+003,2.815552e-001
1.388403e+003,1.484985e-001
1.389368e+003,1.668701e-001
1.390332e+003,-3.999023e-001
1.391296e+003,-2.206482e+000
1.392260e+003,-2.904846e+000
1.393225e+003,-1.225098e+000
1.394189e+003,6.361694e-001
1.395153e+003,1.332031e+000
1.396117e+003,1.444214e+000
1.397082e+003,2.367188e+000
1.398046e+003,4.267822e+000
1.399010e+003,5.656311e+000
1.399974e+003,4.989807e+000
1.400938e+003,2.463745e+000
1.401903e+003,-6.774292e-001
1.402867e+003,-4.531189e+000
1.403831e+003,-4.608398e+000
1.404795e+003,1.759094e+000
1.405760e+003,7.453308e+000
1.406724e+003,9.973267e+000
1.407688e+003,9.700317e+000
1.408652e+003,6.660706e+000
1.409617e+003,1.890930e+000
1.410581e+003,-1.636047e+000
1.411545e+003,-2.709900e+000
1.412509e+003,-2.548645e+000
1.413474e+003,-1.911255e+000
1.414438e+003,-1.457275e+000
1.415402e+003,-1.917725e+000
1.416366e+003,-2.916016e+000
1.417330e+003,-3.530029e+000
1.418295e+003,-3.460876e+000
1.419259e+003,-2.646606e+000
1.420223e+003,-4.641113e-001
1.421187e+003,2.451477e+000
1.422152e+003,2.530396e+000
1.423116e+003,-1.646240e+000
1.424080e+003,-3.146912e+000
1.425044e+003,2.909668e+000
1.426009e+003,8.257568e+000
1.426973e+003,8.933838e+000
1.427937e+003,7.303223e+000
1.428901e+003,6.176086e+000
1.429865e+003,6.142761e+000
1.430830e+003,6.394714e+000
1.431794e+003,6.255127e+000
1.432758e+003,5.560120e+000
1.433722e+003,4.188538e+000
1.434687e+003,2.301270e+000
1.435651e+003,2.834290e+000
1.436615e+003,7.934143e+000
1.437579e+003,1.039075e+001
1.438544e+003,7.220459e+000
1.439508e+003,3.877625e+000
1.440472e+003,4.711853e+000
1.441436e+003,8.143250e+000
1.442401e+003,1.076093e+001
1.443365e+003,1.153418e+001
1.444329e+003,1.080951e+001
1.445293e+003,8.562561e+000
1.446257e+003,6.080688e+000
1.447222e+003,5.871094e+000
1.448186e+003,7.501282e+000
1.449150e+003,9.131409e+000
1.450114e+003,1.085779e+001
1.451079e+003,1.120465e+001
1.452043e+003,8.337830e+000
1.453007e+003,4.789978e+000
1.453971e+003,4.142761e+000
1.454936e+003,5.942261e+000
1.455900e+003,7.188782e+000
1.456864e+003,7.225464e+000
1.457828e+003,7.325562e+000
1.458792e+003,7.879578e+000
1.459757e+003,8.773193e+000
1.460721e+003,1.100952e+001
1.461685e+003,1.323322e+001
1.462649e+003,1.212372e+001
1.463614e+003,7.311401e+000
1.464578e+003,3.110107e+000
1.465542e+003,3.440125e+000
1.466506e+003,6.565979e+000
1.467471e+003,7.584961e+000
1.468435e+003,6.232971e+000
1.469399e+003,5.724426e+000
1.470363e+003,5.974487e+000
1.471328e+003,6.825073e+000
1.472292e+003,8.748352e+000
1.473256e+003,1.022180e+001
1.474220e+003,1.027460e+001
1.475184e+003,9.619934e+000
1.476149e+003,9.408508e+000
1.477113e+003,9.838379e+000
1.478077e+003,1.022583e+001
1.479041e+003,1.011731e+001
1.480006e+003,9.908630e+000
1.480970e+003,1.033142e+001
1.481934e+003,1.116479e+001
1.482898e+003,1.240210e+001
1.483863e+003,1.441425e+001
1.484827e+003,1.612360e+001
1.485791e+003,1.762469e+001
1.486755e+003,1.883893e+001
1.487719e+003,1.940576e+001
1.488684e+003,1.935498e+001
1.489648e+003,1.897437e+001
1.490612e+003,1.851074e+001
1.491576e+003,1.833716e+001
1.492541e+003,1.832190e+001
1.493505e+003,1.915619e+001
1.494469e+003,2.323511e+001
1.495433e+003,2.964294e+001
1.496398e+003,3.446552e+001
1.497362e+003,3.709363e+001
1.498326e+003,4.011346e+001
1.499290e+003,4.583026e+001
1.500255e+003,5.189325e+001
1.501219e+003,5.427429e+001
1.502183e+003,5.364905e+001
1.503147e+003,5.448071e+001
1.504111e+003,5.750012e+001
1.505076e+003,6.337756e+001
1.506040e+003,7.428229e+001
1.507004e+003,8.653741e+001
1.507968e+003,9.585077e+001
1.508933e+003,1.038422e+002
1.509897e+003,1.139075e+002
1.510861e+003,1.270852e+002
1.511825e+003,1.421747e+002
1.512790e+003,1.580359e+002
1.513754e+003,1.748911e+002
1.514718e+003,1.942365e+002
1.515682e+003,2.157792e+002
1.516646e+003,2.354629e+002
1.517611e+003,2.537214e+002
1.518575e+003,2.691420e+002
1.519539e+003,2.798125e+002
1.520503e+003,2.896369e+002
1.521468e+003,3.029007e+002
1.522432e+003,3.151113e+002
1.523396e+003,3.198539e+002
1.524360e+003,3.165927e+002
1.525325e+003,3.093706e+002
1.526289e+003,3.009535e+002
1.527253e+003,2.908450e+002
1.528217e+003,2.778005e+002
1.529182e+003,2.620171e+002
1.530146e+003,2.461058e+002
1.531110e+003,2.310392e+002
1.532074e+003,2.133776e+002
1.533039e+003,1.914470e+002
1.534003e+003,1.676489e+002
1.534967e+003,1.408868e+002
1.535931e+003,1.154194e+002
1.536896e+003,9.576068e+001
1.537860e+003,8.194495e+001
1.538824e+003,7.166931e+001
1.539788e+003,6.338318e+001
1.540752e+003,5.560986e+001
1.541717e+003,4.639862e+001
1.542681e+003,3.662231e+001
1.543645e+003,3.082300e+001
1.544609e+003,3.120001e+001
1.545573e+003,3.093634e+001
1.546538e+003,2.901764e+001
1.547502e+003,2.699609e+001
1.548466e+003,2.619263e+001
1.549430e+003,2.566644e+001
1.550395e+003,2.380212e+001
1.551359e+003,2.100250e+001
1.552323e+003,1.913544e+001
1.553287e+003,1.885492e+001
1.554252e+003,1.899310e+001
1.555216e+003,1.852429e+001
1.556180e+003,1.767157e+001
1.557144e+003,1.709253e+001
1.558109e+003,1.690094e+001
1.559073e+003,1.593463e+001
1.560037e+003,1.304883e+001
1.561001e+003,1.085004e+001
1.561966e+003,1.157050e+001
1.562930e+003,1.281311e+001
1.563894e+003,1.155896e+001
1.564858e+003,8.885315e+000
1.565823e+003,7.899109e+000
1.566787e+003,9.119690e+000
1.567751e+003,1.098419e+001
1.568715e+003,1.305621e+001
1.569679e+003,1.445728e+001
1.570644e+003,1.331323e+001
1.571608e+003,1.050116e+001
1.572572e+003,9.169250e+000
1.573536e+003,9.611450e+000
1.574500e+003,1.049237e+001
1.575465e+003,1.187451e+001
1.576429e+003,1.256573e+001
1.577393e+003,1.035675e+001
1.578357e+003,7.127014e+000
1.579322e+003,7.242981e+000
1.580286e+003,1.080469e+001
1.581250e+003,1.398627e+001
1.582214e+003,1.576453e+001
1.583179e+003,1.638916e+001
1.584143e+003,1.534552e+001
1.585107e+003,1.353754e+001
1.586071e+003,1.217474e+001
1.587036e+003,1.167316e+001
1.588000e+003,1.273468e+001
1.588964e+003,1.543597e+001
1.589928e+003,1.751581e+001
1.590893e+003,1.697894e+001
1.591857e+003,1.556793e+001
1.592821e+003,1.598694e+001
1.593785e+003,1.799664e+001
1.594750e+003,2.003748e+001
1.595714e+003,2.190356e+001
1.596678e+003,2.305261e+001
1.597642e+003,2.317603e+001
1.598606e+003,2.270190e+001
1.599571e+003,2.143610e+001
1.600535e+003,2.030817e+001
1.601499e+003,2.075098e+001
1.602463e+003,2.246460e+001
1.603427e+003,2.384552e+001
1.604392e+003,2.428210e+001
1.605356e+003,2.412781e+001
1.606320e+003,2.353375e+001
1.607284e+003,2.272327e+001
1.608249e+003,2.252594e+001
1.609213e+003,2.299481e+001
1.610177e+003,2.220697e+001
1.611141e+003,1.907550e+001
1.612106e+003,1.662286e+001
1.613070e+003,1.681384e+001
1.614034e+003,1.772803e+001
1.614998e+003,1.838800e+001
1.615963e+003,1.868134e+001
1.616927e+003,1.828210e+001
1.617891e+003,1.721307e+001
1.618855e+003,1.621582e+001
1.619820e+003,1.567828e+001
1.620784e+003,1.483936e+001
1.621748e+003,1.202844e+001
1.622712e+003,8.458130e+000
1.623677e+003,1.040393e+001
1.624641e+003,1.925970e+001
1.625605e+003,2.589355e+001
1.626569e+003,2.772198e+001
1.627533e+003,2.663434e+001
1.628498e+003,2.182965e+001
1.629462e+003,1.684576e+001
1.630426e+003,1.436829e+001
1.631390e+003,1.405768e+001
1.632354e+003,1.521088e+001
1.633319e+003,1.735693e+001
1.634283e+003,1.901886e+001
1.635247e+003,1.900739e+001
1.636211e+003,1.802417e+001
1.637176e+003,1.746478e+001
1.638140e+003,1.740747e+001
1.639104e+003,1.708746e+001
1.640068e+003,1.623157e+001
1.641033e+003,1.556390e+001
1.641997e+003,1.536554e+001
1.642961e+003,1.553766e+001
1.643925e+003,1.620557e+001
1.644890e+003,1.698413e+001
1.645854e+003,1.735327e+001
1.646818e+003,1.743842e+001
1.647782e+003,1.772607e+001
1.648747e+003,1.834467e+001
1.649711e+003,1.915723e+001
1.650675e+003,2.038306e+001
1.651639e+003,2.156238e+001
1.652604e+003,2.097552e+001
1.653568e+003,1.858179e+001
1.654532e+003,1.771307e+001
1.655496e+003,1.914410e+001
1.656460e+003,1.992285e+001
1.657425e+003,1.872192e+001
1.658389e+003,1.757813e+001
1.659353e+003,1.798413e+001
1.660317e+003,1.867291e+001
1.661281e+003,1.846930e+001
1.662246e+003,1.720374e+001
1.663210e+003,1.473596e+001
1.664174e+003,1.119006e+001
1.665138e+003,8.112305e+000
1.666103e+003,6.758423e+000
1.667067e+003,6.392151e+000
1.668031e+003,5.488342e+000
1.668995e+003,4.231934e+000
1.669960e+003,4.699829e+000
1.670924e+003,7.692505e+000
1.671888e+003,9.930786e+000
1.672852e+003,9.922913e+000
1.673817e+003,9.320007e+000
1.674781e+003,8.677307e+000
1.675745e+003,8.339661e+000
1.676709e+003,9.332581e+000
1.677674e+003,1.092523e+001
1.678638e+003,1.051111e+001
1.679602e+003,7.321350e+000
1.680566e+003,4.499878e+000
1.681531e+003,4.919128e+000
1.682495e+003,6.898560e+000
1.683459e+003,7.244568e+000
1.684423e+003,6.098511e+000
1.685387e+003,5.336304e+000
1.686352e+003,5.227539e+000
1.687316e+003,5.360229e+000
1.688280e+003,5.619446e+000
1.689244e+003,6.037903e+000
1.690208e+003,6.562500e+000
1.691173e+003,7.171387e+000
1.692137e+003,8.156555e+000
1.693101e+003,9.497986e+000
1.694065e+003,1.039417e+001
1.695030e+003,1.037738e+001
1.695994e+003,1.058838e+001
1.696958e+003,1.240558e+001
1.697922e+003,1.426935e+001
1.698887e+003,1.441388e+001
1.699851e+003,1.306110e+001
1.700815e+003,9.947083e+000
1.701779e+003,5.040955e+000
1.702744e+003,2.034912e+000
1.703708e+003,2.724976e+000
1.704672e+003,4.191833e+000
1.705636e+003,3.999084e+000
1.706601e+003,3.015930e+000
1.707565e+003,3.145935e+000
1.708529e+003,4.136597e+000
1.709493e+003,4.699829e+000
1.710458e+003,4.695435e+000
1.711422e+003,3.791687e+000
1.712386e+003,1.298279e+000
1.713350e+003,-1.054749e+000
1.714314e+003,-2.323181e+000
1.715279e+003,-2.802673e+000
1.716243e+003,-2.593811e+000
1.717207e+003,-1.789185e+000
1.718171e+003,-6.045532e-001
1.719135e+003,9.530029e-001
1.720100e+003,1.919800e+000
1.721064e+003,1.424683e+000
1.722028e+003,2.135010e-001
1.722992e+003,-6.434937e-001
1.723957e+003,-7.875366e-001
1.724921e+003,6.608276e-001
1.725885e+003,3.929382e+000
1.726849e+003,4.511353e+000
1.727814e+003,-6.527100e-001
1.728778e+003,-4.436035e+000
1.729742e+003,-2.966187e+000
1.730706e+003,3.118286e-001
1.731671e+003,2.886353e+000
1.732635e+003,3.780457e+000
1.733599e+003,1.405640e+000
1.734563e+003,-3.459656e+000
1.735528e+003,-6.846130e+000
1.736492e+003,-6.793701e+000
1.737456e+003,-5.089050e+000
1.738420e+003,-3.699768e+000
1.739385e+003,-2.832886e+000
1.740349e+003,-2.506042e+000
1.741313e+003,-2.643677e+000
1.742277e+003,-2.707214e+000
1.743241e+003,-2.920715e+000
1.744206e+003,-2.301453e+000
1.745170e+003,4.771118e-001
1.746134e+003,2.444153e+000
1.747098e+003,1.355286e+000
1.748063e+003,-1.009583e+000
1.749027e+003,-2.849609e+000
1.749991e+003,-3.835876e+000
1.750955e+003,-4.061096e+000
1.751919e+003,-3.756348e+000
1.752884e+003,-3.657471e+000
1.753848e+003,-4.388489e+000
1.754812e+003,-5.378052e+000
1.755776e+003,-5.191284e+000
1.756741e+003,-3.658752e+000
1.757705e+003,-2.863098e+000
1.758669e+003,-3.354004e+000
1.759633e+003,-3.603699e+000
1.760598e+003,-3.391541e+000
1.761562e+003,-3.439514e+000
1.762526e+003,-4.128601e+000
1.763490e+003,-4.491028e+000
1.764455e+003,-3.176819e+000
1.765419e+003,-1.346436e+000
1.766383e+003,-1.495178e+000
1.767347e+003,-3.468628e+000
1.768312e+003,-4.084473e+000
1.769276e+003,-1.871338e+000
1.770240e+003,-3.344727e-002
1.771204e+003,-2.117676e+000
1.772168e+003,-5.925842e+000
1.773133e+003,-6.839966e+000
1.774097e+003,-5.151001e+000
1.775061e+003,-3.618347e+000
1.776025e+003,-2.764404e+000
1.776990e+003,-2.138428e+000
1.777954e+003,-1.327881e+000
1.778918e+003,-3.848267e-001
1.779882e+003,6.437988e-001
1.780846e+003,1.289917e+000
1.781811e+003,1.204834e+000
1.782775e+003,5.547485e-001
1.783739e+003,-6.533203e-001
1.784703e+003,-2.496643e+000
1.785668e+003,-2.888123e+000
1.786632e+003,1.187134e-001
1.787596e+003,2.722961e+000
1.788560e+003,2.204285e+000
1.789525e+003,2.708130e-001
1.790489e+003,-1.481812e+000
1.791453e+003,-2.916382e+000
1.792417e+003,-3.906616e+000
1.793382e+003,-4.362488e+000
1.794346e+003,-3.898010e+000
1.795310e+003,-2.279846e+000
1.796274e+003,-4.359131e-001
1.797239e+003,8.021851e-001
1.798203e+003,1.776489e+000
1.799167e+003,2.590942e+000
1.800131e+003,2.797119e+000
1.801095e+003,2.027222e+000
1.802060e+003,2.893066e-002
1.803024e+003,-1.394531e+000
1.803988e+003,-3.125977e+000
1.804952e+003,-3.334595e+000
1.805917e+003,8.331299e-001
1.806881e+003,5.238464e+000
1.807845e+003,5.174744e+000
1.808809e+003,2.395630e+000
1.809773e+003,1.640015e+000
1.810738e+003,3.474548e+000
1.811702e+003,3.866089e+000
1.812666e+003,3.192749e-001
1.813630e+003,-4.453857e+000
1.814595e+003,-6.984680e+000
1.815559e+003,-7.524170e+000
1.816523e+003,-6.230591e+000
1.817487e+003,-2.723022e+000
1.818452e+003,-1.239258e+000
1.819416e+003,-2.673889e+000
1.820380e+003,-3.284790e+000
1.821344e+003,-1.259644e+000
1.822309e+003,1.323853e-001
1.823273e+003,-2.114624e+000
1.824237e+003,-4.666870e+000
1.825201e+003,-3.607239e+000
1.826166e+003,-3.533936e-001
1.827130e+003,9.689331e-001
1.828094e+003,-3.984985e-001
1.829058e+003,-1.540833e+000
1.830022e+003,-6.467285e-001
1.830987e+003,3.840942e-001
1.831951e+003,-5.748291e-001
1.832915e+003,-1.941772e+000
1.833879e+003,-9.914551e-001
1.834844e+003,1.472107e+000
1.835808e+003,2.763367e+000
1.836772e+003,2.536255e+000
1.837736e+003,1.977051e+000
1.838700e+003,1.476746e+000
1.839665e+003,4.205322e-001
1.840629e+003,-1.852905e+000
1.841593e+003,-4.274963e+000
1.842557e+003,-4.690857e+000
1.843522e+003,-3.144531e+000
1.844486e+003,-1.910217e+000
1.845450e+003,-7.800903e-001
1.846414e+003,2.841187e-001
1.847379e+003,1.407471e+000
1.848343e+003,1.400940e+000
1.849307e+003,-7.765503e-001
1.850271e+003,-3.169739e+000
1.851236e+003,-4.477051e+000
1.852200e+003,-4.808167e+000
1.853164e+003,-4.742371e+000
1.854128e+003,-4.551697e+000
1.855093e+003,-3.803223e+000
1.856057e+003,-2.255371e+000
1.857021e+003,-1.032959e+000
1.857985e+003,-1.272339e+000
1.858949e+003,-2.278992e+000
1.859914e+003,-2.743958e+000
1.860878e+003,-2.737488e+000
1.861842e+003,-3.291748e+000
1.862806e+003,-4.533691e+000
1.863771e+003,-4.706238e+000
1.864735e+003,-3.410950e+000
1.865699e+003,-2.032166e+000
1.866663e+003,-8.119507e-001
1.867627e+003,9.808350e-002
1.868592e+003,1.513672e-002
1.869556e+003,-6.130371e-001
1.870520e+003,-3.924561e-002
1.871484e+003,1.340271e+000
1.872449e+003,7.630615e-001
1.873413e+003,-2.070129e+000
1.874377e+003,-3.709900e+000
1.875341e+003,-3.919434e+000
1.876306e+003,-3.064941e+000
1.877270e+003,-4.115601e-001
1.878234e+003,2.213684e+000
1.879198e+003,2.918213e+000
1.880163e+003,2.435486e+000
1.881127e+003,2.063110e+000
1.882091e+003,2.211487e+000
1.883055e+003,3.009888e+000
1.884020e+003,4.440552e+000
1.884984e+003,6.374390e+000
1.885948e+003,8.815247e+000
1.886912e+003,1.030048e+001
1.887876e+003,7.402283e+000
1.888841e+003,7.006836e-001
1.889805e+003,-2.924377e+000
1.890769e+003,-3.270569e+000
1.891733e+003,-1.271423e+000
1.892698e+003,4.436951e+000
1.893662e+003,8.459717e+000
1.894626e+003,8.997253e+000
1.895590e+003,7.448547e+000
1.896554e+003,3.042969e+000
1.897519e+003,-1.380798e+000
1.898483e+003,-2.601746e+000
1.899447e+003,-1.247437e+000
1.900411e+003,1.218933e+000
1.901376e+003,4.776672e+000
1.902340e+003,7.401245e+000
1.903304e+003,8.628540e+000
1.904268e+003,8.187317e+000
1.905233e+003,4.530090e+000
1.906197e+003,6.364746e-001
1.907161e+003,9.643555e-002
1.908125e+003,1.430908e+000
1.909090e+003,1.200439e+000
1.910054e+003,-5.369873e-001
1.911018e+003,-1.038025e+000
1.911982e+003,6.374512e-001
1.912947e+003,2.858032e+000
1.913911e+003,4.355774e+000
1.914875e+003,5.576111e+000
1.915839e+003,7.209717e+000
1.916803e+003,8.754395e+000
1.917768e+003,8.493164e+000
1.918732e+003,6.232117e+000
1.919696e+003,4.701050e+000
1.920660e+003,4.360229e+000
1.921625e+003,3.943298e+000
1.922589e+003,2.228394e+000
1.923553e+003,1.563599e+000
1.924517e+003,4.890198e+000
1.925481e+003,8.358887e+000
1.926446e+003,7.983704e+000
1.927410e+003,5.559265e+000
1.928374e+003,4.921204e+000
1.929338e+003,5.982971e+000
1.930303e+003,5.409302e+000
1.931267e+003,2.000916e+000
1.932231e+003,-5.649414e-001
1.933195e+003,-1.041748e+000
1.934160e+003,-2.400513e-001
1.935124e+003,2.179565e+000
1.936088e+003,4.643433e+000
1.937052e+003,5.568176e+000
1.938017e+003,5.328247e+000
1.938981e+003,4.536560e+000
1.939945e+003,3.489563e+000
1.940909e+003,2.744507e+000
1.941874e+003,2.431946e+000
1.942838e+003,1.701599e+000
1.943802e+003,-1.021729e-001
1.944766e+003,-1.807617e+000
1.945730e+003,-1.687195e+000
1.946695e+003,4.162598e-002
1.947659e+003,3.882874e+000
1.948623e+003,1.030493e+001
1.949587e+003,1.227740e+001
1.950552e+003,7.922729e+000
1.951516e+003,4.473022e+000
1.952480e+003,4.778625e+000
1.953444e+003,5.435364e+000
1.954408e+003,3.387512e+000
1.955373e+003,7.542725e-001
1.956337e+003,1.455566e+000
1.957301e+003,4.576050e+000
1.958265e+003,5.653625e+000
1.959230e+003,4.277222e+000
1.960194e+003,3.900879e+000
1.961158e+003,5.187988e+000
1.962122e+003,6.326355e+000
1.963087e+003,7.864441e+000
1.964051e+003,8.049683e+000
1.965015e+003,4.513733e+000
1.965979e+003,8.361816e-001
1.966944e+003,5.213623e-001
1.967908e+003,2.402954e+000
1.968872e+003,4.351624e+000
1.969836e+003,5.770508e+000
1.970801e+003,6.498718e+000
1.971765e+003,6.564331e+000
1.972729e+003,6.790100e+000
1.973693e+003,8.025757e+000
1.974657e+003,9.252625e+000
1.975622e+003,8.349060e+000
1.976586e+003,6.263916e+000
1.977550e+003,6.035034e+000
1.978514e+003,7.487610e+000
1.979479e+003,8.844971e+000
1.980443e+003,9.744019e+000
1.981407e+003,1.004547e+001
1.982371e+003,9.790894e+000
1.983335e+003,9.111755e+000
1.984300e+003,7.850159e+000
1.985264e+003,6.502991e+000
1.986228e+003,6.011719e+000
1.987192e+003,6.304749e+000
1.988157e+003,7.194946e+000
1.989121e+003,9.319397e+000
1.990085e+003,9.145386e+000
1.991049e+003,4.906738e+000
1.992014e+003,2.257080e+000
1.992978e+003,2.544617e+000
1.993942e+003,3.293518e+000
1.994906e+003,4.125549e+000
1.995871e+003,4.664551e+000
1.996835e+003,4.393433e+000
1.997799e+003,3.971558e+000
1.998763e+003,3.747620e+000
1.999728e+003,3.985657e+000
