5.003444e+002,3.605013e+001
5.013087e+002,3.542964e+001
5.022729e+002,3.474385e+001
5.032371e+002,3.391397e+001
5.042014e+002,3.193755e+001
5.051656e+002,2.910802e+001
5.061298e+002,2.705951e+001
5.070941e+002,2.738748e+001
5.080583e+002,3.069806e+001
5.090225e+002,3.260504e+001
5.099868e+002,3.290704e+001
5.109510e+002,3.255200e+001
5.119152e+002,3.189670e+001
5.128795e+002,3.095908e+001
5.138437e+002,2.993019e+001
5.148079e+002,2.858104e+001
5.157722e+002,2.746974e+001
5.167364e+002,2.686647e+001
5.177006e+002,2.672975e+001
5.186649e+002,2.678111e+001
5.196291e+002,2.716963e+001
5.205933e+002,2.742139e+001
5.215576e+002,2.646118e+001
5.225218e+002,2.429312e+001
5.234860e+002,2.186278e+001
5.244503e+002,2.100040e+001
5.254145e+002,2.248961e+001
5.263787e+002,2.328740e+001
5.273430e+002,2.321933e+001
5.283072e+002,2.259367e+001
5.292714e+002,2.166983e+001
5.302357e+002,1.990141e+001
5.311999e+002,1.874153e+001
5.321641e+002,1.878596e+001
5.331284e+002,1.928766e+001
5.340926e+002,1.962175e+001
5.350568e+002,1.949356e+001
5.360211e+002,1.928307e+001
5.369853e+002,1.970007e+001
5.379495e+002,2.023169e+001
5.389138e+002,2.031096e+001
5.398780e+002,1.974905e+001
5.408422e+002,1.886211e+001
5.418065e+002,1.859958e+001
5.427707e+002,1.887057e+001
5.437349e+002,1.919586e+001
5.446992e+002,1.962097e+001
5.456634e+002,1.988103e+001
5.466276e+002,1.904103e+001
5.475919e+002,1.505440e+001
5.485561e+002,1.264549e+001
5.495203e+002,1.253842e+001
5.504846e+002,1.382231e+001
5.514488e+002,1.539719e+001
5.524130e+002,1.734631e+001
5.533773e+002,1.866753e+001
5.543415e+002,1.895988e+001
5.553057e+002,1.852469e+001
5.562700e+002,1.734744e+001
5.572342e+002,1.542490e+001
5.581984e+002,1.345416e+001
5.591627e+002,1.403482e+001
5.601269e+002,1.601176e+001
5.610911e+002,1.632086e+001
5.620554e+002,1.317096e+001
5.630196e+002,7.190689e+000
5.639838e+002,4.536148e+000
5.649481e+002,8.245728e+000
5.659123e+002,1.084137e+001
5.668765e+002,1.070419e+001
5.678408e+002,8.712631e+000
5.688050e+002,7.144928e+000
5.697692e+002,6.263901e+000
5.707335e+002,6.031067e+000
5.716977e+002,6.753616e+000
5.726619e+002,8.020874e+000
5.736262e+002,9.602081e+000
5.745904e+002,1.157677e+001
5.755546e+002,1.281964e+001
5.765189e+002,1.074385e+001
5.774831e+002,6.880127e+000
5.784473e+002,4.132324e+000
5.794116e+002,4.515518e+000
5.803758e+002,7.749054e+000
5.813400e+002,9.438263e+000
5.823043e+002,9.215210e+000
5.832685e+002,8.645905e+000
5.842327e+002,8.275284e+000
5.851970e+002,8.122864e+000
5.861612e+002,7.874802e+000
5.871254e+002,6.774490e+000
5.880897e+002,6.277527e+000
5.890539e+002,7.268082e+000
5.900181e+002,8.877533e+000
5.909824e+002,9.663620e+000
5.919466e+002,8.565720e+000
5.929108e+002,6.772278e+000
5.938751e+002,5.368347e+000
5.948393e+002,4.360901e+000
5.958035e+002,3.814758e+000
5.967678e+002,3.781967e+000
5.977320e+002,4.255936e+000
5.986962e+002,5.148193e+000
5.996605e+002,6.450470e+000
6.006247e+002,7.147079e+000
6.015889e+002,6.505615e+000
6.025532e+002,4.650986e+000
6.035174e+002,3.278687e+000
6.044816e+002,1.927170e+000
6.054459e+002,1.775574e+000
6.064101e+002,4.303513e+000
6.073743e+002,7.946548e+000
6.083386e+002,9.834381e+000
6.093028e+002,7.816330e+000
6.102670e+002,5.062775e+000
6.112313e+002,3.874527e+000
6.121955e+002,3.706970e+000
6.131597e+002,3.914413e+000
6.141240e+002,4.038437e+000
6.150882e+002,4.062332e+000
6.160524e+002,3.895401e+000
6.170167e+002,3.620728e+000
6.179809e+002,3.500900e+000
6.189451e+002,3.587875e+000
6.199094e+002,3.836746e+000
6.208736e+002,4.259293e+000
6.218378e+002,5.620880e+000
6.228021e+002,6.444183e+000
6.237663e+002,6.294540e+000
6.247305e+002,5.638412e+000
6.256948e+002,5.196396e+000
6.266590e+002,5.233154e+000
6.276232e+002,5.289169e+000
6.285875e+002,5.121521e+000
6.295517e+002,4.929703e+000
6.305159e+002,4.955032e+000
6.314802e+002,5.280655e+000
6.324444e+002,5.640244e+000
6.334086e+002,5.371277e+000
6.343729e+002,4.710022e+000
6.353371e+002,3.919952e+000
6.363013e+002,3.061127e+000
6.372656e+002,2.099823e+000
6.382298e+002,9.740143e-001
6.391940e+002,-1.007233e+000
6.401583e+002,-2.218536e+000
6.411225e+002,-2.305603e+000
6.420867e+002,-1.615295e+000
6.430510e+002,-3.824310e-001
6.440152e+002,1.623871e+000
6.449794e+002,2.820145e+000
6.459437e+002,1.889145e+000
6.469079e+002,3.702545e-001
6.478721e+002,-5.360107e-001
6.488364e+002,-3.979187e-001
6.498006e+002,2.284088e-001
6.507648e+002,3.648071e-001
6.517291e+002,1.361237e-001
6.526933e+002,-2.250977e-001
6.536575e+002,-7.141113e-001
6.546218e+002,-9.720001e-001
6.555860e+002,-1.844940e-001
6.565502e+002,2.996140e+000
6.575145e+002,4.044296e+000
6.584787e+002,1.641464e+000
6.594429e+002,-1.513397e+000
6.604072e+002,-3.538315e+000
6.613714e+002,-4.180267e+000
6.623356e+002,-3.759384e+000
6.632999e+002,-1.158752e+000
6.642641e+002,1.237167e+000
6.652283e+002,2.089401e+000
6.661926e+002,1.469055e+000
6.671568e+002,4.020996e-001
6.681210e+002,-9.468079e-002
6.690853e+002,-7.244873e-002
6.700495e+002,5.880890e-001
6.710137e+002,1.794907e+000
6.719780e+002,2.470367e+000
6.729422e+002,1.293945e+000
6.739064e+002,-2.383484e+000
6.748707e+002,-4.091949e+000
6.758349e+002,-2.857300e+000
6.767991e+002,-1.450256e+000
6.777634e+002,-1.086090e+000
6.787276e+002,-1.550522e+000
6.796918e+002,-1.409714e+000
6.806561e+002,8.590698e-001
6.816203e+002,2.495361e+000
6.825845e+002,1.918976e+000
6.835488e+002,9.049988e-002
6.845130e+002,-1.278458e+000
6.854772e+002,-8.428650e-001
6.864415e+002,4.797363e-001
6.874057e+002,1.925049e-001
6.883699e+002,-1.212601e+000
6.893342e+002,-2.201309e+000
6.902984e+002,-1.858032e+000
6.912626e+002,-3.869629e-001
6.922269e+002,5.962830e-001
6.931911e+002,1.217773e+000
6.941553e+002,1.402390e+000
6.951196e+002,5.982361e-001
6.960838e+002,-6.370087e-001
6.970480e+002,-1.317062e+000
6.980123e+002,-1.011688e+000
6.989765e+002,-5.666199e-001
6.999407e+002,-2.023163e-001
7.009050e+002,-5.172729e-003
7.018692e+002,-3.090210e-001
7.028334e+002,-1.098801e+000
7.037977e+002,-1.657333e+000
7.047619e+002,-1.996002e-001
7.057261e+002,2.220535e+000
7.066904e+002,3.070175e+000
7.076546e+002,1.937271e+000
7.086188e+002,3.523254e-002
7.095831e+002,-7.531128e-001
7.105473e+002,-2.177429e-001
7.115115e+002,8.604126e-001
7.124758e+002,3.659698e+000
7.134400e+002,5.709854e+000
7.144042e+002,5.145767e+000
7.153685e+002,2.021637e+000
7.163327e+002,-8.530884e-001
7.172969e+002,-2.759262e+000
7.182612e+002,-3.510391e+000
7.192254e+002,-2.095078e+000
7.201896e+002,4.875183e-001
7.211539e+002,2.385483e+000
7.221181e+002,1.998795e+000
7.230823e+002,1.970978e-001
7.240466e+002,-6.212921e-001
7.250108e+002,-5.700531e-001
7.259750e+002,-2.097931e-001
7.269393e+002,7.176208e-002
7.279035e+002,2.037811e-001
7.288677e+002,3.838348e-001
7.298320e+002,1.305405e+000
7.307962e+002,1.749298e+000
7.317604e+002,8.213196e-001
7.327247e+002,-2.837677e-001
7.336889e+002,4.435425e-001
7.346531e+002,4.197098e+000
7.356174e+002,6.762024e+000
7.365816e+002,5.417923e+000
7.375458e+002,2.819199e+000
7.385101e+002,5.912170e-001
7.394743e+002,-6.463318e-001
7.404385e+002,-1.098999e+000
7.414028e+002,-9.319153e-001
7.423670e+002,-4.302063e-001
7.433312e+002,-1.639557e-001
7.442955e+002,-4.870605e-002
7.452597e+002,1.502686e-001
7.462239e+002,7.273712e-001
7.471882e+002,1.880402e+000
7.481524e+002,2.292389e+000
7.491166e+002,8.313751e-001
7.500809e+002,-2.219543e-001
7.510451e+002,6.098328e-001
7.520093e+002,2.689026e+000
7.529736e+002,3.516815e+000
7.539378e+002,9.045563e-001
7.549020e+002,-1.358490e+000
7.558663e+002,-9.933472e-002
7.568306e+002,2.685944e+000
7.577948e+002,3.936829e+000
7.587590e+002,1.891830e+000
7.597233e+002,-1.940002e+000
7.606875e+002,-2.371475e+000
7.616517e+002,1.750031e-001
7.626160e+002,1.331741e+000
7.635802e+002,-6.587219e-001
7.645444e+002,-3.896484e+000
7.655087e+002,-4.072678e+000
7.664729e+002,1.419968e+000
7.674371e+002,4.104843e+000
7.684014e+002,1.208618e+000
7.693656e+002,-2.093826e+000
7.703298e+002,-1.903061e+000
7.712941e+002,1.924789e+000
7.722583e+002,5.132874e+000
7.732225e+002,3.502975e+000
7.741868e+002,1.045990e+000
7.751510e+002,1.174194e+000
7.761152e+002,3.257309e+000
7.770795e+002,5.137939e+000
7.780437e+002,4.891342e+000
7.790079e+002,2.843491e+000
7.799722e+002,2.132217e+000
7.809364e+002,2.803925e+000
7.819006e+002,3.448563e+000
7.828649e+002,3.784576e+000
7.838291e+002,3.801575e+000
7.847933e+002,3.192398e+000
7.857576e+002,9.931793e-001
7.867218e+002,-4.296570e-001
7.876860e+002,-4.630737e-001
7.886503e+002,3.255310e-001
7.896145e+002,1.946808e+000
7.905787e+002,4.216431e+000
7.915430e+002,5.798798e+000
7.925072e+002,4.111267e+000
7.934714e+002,1.456268e+000
7.944357e+002,5.034485e-001
7.953999e+002,1.413467e+000
7.963641e+002,3.152176e+000
7.973284e+002,4.575592e+000
7.982926e+002,5.693497e+000
7.992568e+002,5.999603e+000
8.002211e+002,4.805176e+000
8.011853e+002,3.771790e+000
8.021495e+002,3.980515e+000
8.031138e+002,5.133926e+000
8.040780e+002,5.699905e+000
8.050422e+002,4.911087e+000
8.060065e+002,3.992340e+000
8.069707e+002,2.838226e+000
8.079349e+002,1.946686e+000
8.088992e+002,2.058777e+000
8.098634e+002,3.360886e+000
8.108276e+002,4.970901e+000
8.117919e+002,5.457001e+000
8.127561e+002,5.148117e+000
8.137203e+002,5.079056e+000
8.146846e+002,5.457932e+000
8.156488e+002,5.903015e+000
8.166130e+002,5.885315e+000
8.175773e+002,5.326279e+000
8.185415e+002,4.572006e+000
8.195057e+002,2.801804e+000
8.204700e+002,1.673080e+000
8.214342e+002,2.212051e+000
8.223984e+002,3.824844e+000
8.233627e+002,4.939484e+000
8.243269e+002,5.013397e+000
8.252911e+002,4.560150e+000
8.262554e+002,3.209824e+000
8.272196e+002,1.983582e+000
8.281838e+002,2.218521e+000
8.291481e+002,4.208313e+000
8.301123e+002,6.798126e+000
8.310765e+002,7.928406e+000
8.320408e+002,7.644821e+000
8.330050e+002,7.726624e+000
8.339692e+002,8.505737e+000
8.349335e+002,8.968979e+000
8.358977e+002,7.699112e+000
8.368619e+002,4.297409e+000
8.378262e+002,2.526611e+000
8.387904e+002,3.659927e+000
8.397546e+002,4.940674e+000
8.407189e+002,6.276367e+000
8.416831e+002,7.185577e+000
8.426473e+002,6.660294e+000
8.436116e+002,3.851303e+000
8.445758e+002,1.328796e+000
8.455400e+002,2.219879e+000
8.465043e+002,4.504684e+000
8.474685e+002,6.271698e+000
8.484327e+002,6.972198e+000
8.493970e+002,7.030869e+000
8.503612e+002,7.021515e+000
8.513254e+002,6.881729e+000
8.522897e+002,6.801956e+000
8.532539e+002,6.853134e+000
8.542181e+002,6.752670e+000
8.551824e+002,6.167877e+000
8.561466e+002,5.316025e+000
8.571108e+002,5.338547e+000
8.580751e+002,7.269516e+000
8.590393e+002,8.566864e+000
8.600035e+002,7.850952e+000
8.609678e+002,6.555573e+000
8.619320e+002,6.333191e+000
8.628962e+002,7.810501e+000
8.638605e+002,1.008090e+001
8.648247e+002,1.236137e+001
8.657889e+002,1.416547e+001
8.667532e+002,1.410626e+001
8.677174e+002,1.200717e+001
8.686816e+002,9.442398e+000
8.696459e+002,8.209091e+000
8.706101e+002,8.515808e+000
8.715743e+002,9.079575e+000
8.725386e+002,9.681473e+000
8.735028e+002,1.078853e+001
8.744670e+002,1.299658e+001
8.754313e+002,1.556030e+001
8.763955e+002,1.715642e+001
8.773597e+002,1.724083e+001
8.783240e+002,1.688777e+001
8.792882e+002,1.654085e+001
8.802524e+002,1.630753e+001
8.812167e+002,1.623138e+001
8.821809e+002,1.638667e+001
8.831451e+002,1.698654e+001
8.841094e+002,1.837151e+001
8.850736e+002,2.055470e+001
8.860378e+002,2.225233e+001
8.870021e+002,2.351022e+001
8.879663e+002,2.411874e+001
8.889305e+002,2.371208e+001
8.898948e+002,2.243265e+001
8.908590e+002,2.108052e+001
8.918232e+002,1.905682e+001
8.927875e+002,1.835104e+001
8.937517e+002,2.013152e+001
8.947159e+002,2.266721e+001
8.956802e+002,2.454814e+001
8.966444e+002,2.538792e+001
8.976086e+002,2.580460e+001
8.985729e+002,2.665294e+001
8.995371e+002,2.735831e+001
9.005013e+002,2.666499e+001
9.014656e+002,2.485895e+001
9.024298e+002,2.320253e+001
9.033940e+002,2.262346e+001
9.043583e+002,2.288330e+001
9.053225e+002,2.262973e+001
9.062867e+002,2.057784e+001
9.072510e+002,1.962376e+001
9.082152e+002,2.048802e+001
9.091794e+002,2.225195e+001
9.101437e+002,2.434731e+001
9.111079e+002,2.669109e+001
9.120721e+002,2.823125e+001
9.130364e+002,2.782217e+001
9.140006e+002,2.659708e+001
9.149648e+002,2.452888e+001
9.159291e+002,2.235892e+001
9.168933e+002,2.137354e+001
9.178575e+002,2.240231e+001
9.188218e+002,2.467055e+001
9.197860e+002,2.561369e+001
9.207502e+002,2.516872e+001
9.217145e+002,2.490453e+001
9.226787e+002,2.553947e+001
9.236429e+002,2.629196e+001
9.246072e+002,2.592712e+001
9.255714e+002,2.415009e+001
9.265356e+002,2.241179e+001
9.274999e+002,2.036328e+001
9.284641e+002,1.894833e+001
9.294283e+002,1.904642e+001
9.303926e+002,1.996675e+001
9.313568e+002,2.039471e+001
9.323210e+002,1.961455e+001
9.332853e+002,1.848125e+001
9.342495e+002,1.843961e+001
9.352137e+002,1.895122e+001
9.361780e+002,1.949593e+001
9.371422e+002,2.000540e+001
9.381064e+002,2.020729e+001
9.390707e+002,1.959943e+001
9.400349e+002,1.794537e+001
9.409991e+002,1.638925e+001
9.419634e+002,1.354404e+001
9.429276e+002,1.245396e+001
9.438918e+002,1.548514e+001
9.448561e+002,2.030911e+001
9.458203e+002,2.296783e+001
9.467845e+002,2.217795e+001
9.477488e+002,2.039720e+001
9.487130e+002,1.910698e+001
9.496772e+002,1.784193e+001
9.506415e+002,1.572864e+001
9.516057e+002,1.312498e+001
9.525699e+002,1.160402e+001
9.535342e+002,1.273169e+001
9.544984e+002,1.600867e+001
9.554626e+002,1.721480e+001
9.564269e+002,1.607642e+001
9.573911e+002,1.537057e+001
9.583553e+002,1.642612e+001
9.593196e+002,1.801265e+001
9.602838e+002,1.789890e+001
9.612480e+002,1.544986e+001
9.622123e+002,1.349933e+001
9.631765e+002,1.330937e+001
9.641407e+002,1.339311e+001
9.651050e+002,1.309496e+001
9.660692e+002,1.245197e+001
9.670334e+002,1.176099e+001
9.679977e+002,1.124709e+001
9.689619e+002,1.102341e+001
9.699261e+002,1.133258e+001
9.708904e+002,1.194072e+001
9.718546e+002,1.233873e+001
9.728188e+002,1.230629e+001
9.737831e+002,1.233391e+001
9.747473e+002,1.321422e+001
9.757115e+002,1.519841e+001
9.766758e+002,1.684087e+001
9.776400e+002,1.885652e+001
9.786042e+002,1.979869e+001
9.795685e+002,1.870076e+001
9.805327e+002,1.645122e+001
9.814969e+002,1.405826e+001
9.824612e+002,1.190767e+001
9.834254e+002,1.044168e+001
9.843896e+002,1.065718e+001
9.853539e+002,1.131139e+001
9.863181e+002,1.105464e+001
9.872823e+002,9.844833e+000
9.882466e+002,8.254639e+000
9.892108e+002,6.818710e+000
9.901750e+002,5.744583e+000
9.911393e+002,5.782822e+000
9.921035e+002,7.569427e+000
9.930677e+002,9.024261e+000
9.940320e+002,1.027975e+001
9.949962e+002,1.119035e+001
9.959604e+002,1.130528e+001
9.969247e+002,1.068939e+001
9.978889e+002,1.069519e+001
9.988531e+002,1.248949e+001
9.998174e+002,1.414572e+001
1.000782e+003,1.453215e+001
1.001746e+003,1.415891e+001
1.002710e+003,1.378833e+001
1.003674e+003,1.373869e+001
1.004639e+003,1.366663e+001
1.005603e+003,1.289252e+001
1.006567e+003,1.130370e+001
1.007531e+003,1.086531e+001
1.008495e+003,1.224736e+001
1.009460e+003,1.342152e+001
1.010424e+003,1.287880e+001
1.011388e+003,1.112801e+001
1.012352e+003,1.026465e+001
1.013317e+003,1.114880e+001
1.014281e+003,1.154276e+001
1.015245e+003,1.044354e+001
1.016209e+003,8.911896e+000
1.017174e+003,7.583237e+000
1.018138e+003,6.632843e+000
1.019102e+003,6.037033e+000
1.020066e+003,5.851974e+000
1.021031e+003,5.878998e+000
1.021995e+003,5.153290e+000
1.022959e+003,3.797302e+000
1.023923e+003,3.085861e+000
1.024887e+003,3.766174e+000
1.025852e+003,4.664307e+000
1.026816e+003,3.635498e+000
1.027780e+003,6.002808e-002
1.028744e+003,-2.173233e+000
1.029709e+003,-2.235840e+000
1.030673e+003,-1.615646e+000
1.031637e+003,-5.076599e-002
1.032601e+003,1.612701e+000
1.033566e+003,2.235916e+000
1.034530e+003,1.469131e+000
1.035494e+003,2.664795e-001
1.036458e+003,-5.878906e-001
1.037422e+003,-1.088699e+000
1.038387e+003,-1.263107e+000
1.039351e+003,-1.115723e+000
1.040315e+003,-4.280243e-001
1.041279e+003,1.147278e+000
1.042244e+003,3.260101e+000
1.043208e+003,3.920105e+000
1.044172e+003,1.729813e+000
1.045136e+003,2.560425e-001
1.046101e+003,-2.011108e-001
1.047065e+003,-1.259003e-001
1.048029e+003,4.077606e-001
1.048993e+003,1.190323e+000
1.049958e+003,1.701874e+000
1.050922e+003,1.648468e+000
1.051886e+003,1.540512e+000
1.052850e+003,1.760895e+000
1.053814e+003,2.270218e+000
1.054779e+003,3.337112e+000
1.055743e+003,4.844833e+000
1.056707e+003,5.898193e+000
1.057671e+003,5.376114e+000
1.058636e+003,3.248383e+000
1.059600e+003,1.670776e+000
1.060564e+003,8.970184e-001
1.061528e+003,4.627991e-001
1.062493e+003,4.984589e-001
1.063457e+003,5.813141e-001
1.064421e+003,1.024475e-001
1.065385e+003,-9.419098e-001
1.066349e+003,-1.370697e+000
1.067314e+003,5.645752e-003
1.068278e+003,1.495377e+000
1.069242e+003,1.993073e+000
1.070206e+003,1.802628e+000
1.071171e+003,1.300186e+000
1.072135e+003,6.758881e-001
1.073099e+003,9.684753e-002
1.074063e+003,-3.926086e-002
1.075028e+003,3.951263e-001
1.075992e+003,-2.367249e-001
1.076956e+003,-3.101456e+000
1.077920e+003,-5.073944e+000
1.078885e+003,-4.401031e+000
1.079849e+003,-2.211761e+000
1.080813e+003,-6.370697e-001
1.081777e+003,-6.484985e-002
1.082741e+003,5.523529e-001
1.083706e+003,2.263809e+000
1.084670e+003,3.508606e+000
1.085634e+003,2.937363e+000
1.086598e+003,1.284348e+000
1.087563e+003,8.619690e-002
1.088527e+003,2.201233e-001
1.089491e+003,1.128036e+000
1.090455e+003,1.603378e+000
1.091420e+003,1.520172e+000
1.092384e+003,1.754181e+000
1.093348e+003,2.935196e+000
1.094312e+003,3.200745e+000
1.095276e+003,6.185150e-001
1.096241e+003,-3.588608e+000
1.097205e+003,-5.635925e+000
1.098169e+003,-4.499603e+000
1.099133e+003,-3.091827e+000
1.100098e+003,-2.159561e+000
1.101062e+003,-1.573181e+000
1.102026e+003,-1.373825e+000
1.102990e+003,-1.439590e+000
1.103955e+003,-1.707031e+000
1.104919e+003,-2.133652e+000
1.105883e+003,-2.361801e+000
1.106847e+003,-1.380981e+000
1.107812e+003,7.952728e-001
1.108776e+003,1.899948e+000
1.109740e+003,1.427048e+000
1.110704e+003,7.424927e-001
1.111668e+003,1.169266e+000
1.112633e+003,2.350967e+000
1.113597e+003,2.258530e+000
1.114561e+003,-3.364410e-001
1.115525e+003,-1.878372e+000
1.116490e+003,-7.539063e-001
1.117454e+003,1.084076e+000
1.118418e+003,2.987030e+000
1.119382e+003,4.543198e+000
1.120347e+003,5.158508e+000
1.121311e+003,4.412292e+000
1.122275e+003,2.874008e+000
1.123239e+003,1.903519e+000
1.124203e+003,1.547668e+000
1.125168e+003,8.721313e-001
1.126132e+003,-4.470215e-001
1.127096e+003,-1.345520e+000
1.128060e+003,-6.887665e-001
1.129025e+003,1.087708e+000
1.129989e+003,1.879196e+000
1.130953e+003,7.520294e-001
1.131917e+003,4.198151e-001
1.132882e+003,2.744217e+000
1.133846e+003,4.941437e+000
1.134810e+003,5.024506e+000
1.135774e+003,3.576813e+000
1.136739e+003,2.214142e+000
1.137703e+003,1.858643e+000
1.138667e+003,2.305298e+000
1.139631e+003,3.318420e+000
1.140595e+003,4.879318e+000
1.141560e+003,6.791748e+000
1.142524e+003,9.255554e+000
1.143488e+003,1.155524e+001
1.144452e+003,1.278419e+001
1.145417e+003,1.341637e+001
1.146381e+003,1.526718e+001
1.147345e+003,1.871947e+001
1.148309e+003,2.245399e+001
1.149274e+003,2.720850e+001
1.150238e+003,3.115204e+001
1.151202e+003,3.253674e+001
1.152166e+003,3.266261e+001
1.153130e+003,3.417340e+001
1.154095e+003,3.811314e+001
1.155059e+003,4.242674e+001
1.156023e+003,4.443529e+001
1.156987e+003,4.411430e+001
1.157952e+003,4.232404e+001
1.158916e+003,3.896838e+001
1.159880e+003,3.555370e+001
1.160844e+003,3.269559e+001
1.161809e+003,3.010869e+001
1.162773e+003,2.739035e+001
1.163737e+003,2.451593e+001
1.164701e+003,2.164952e+001
1.165666e+003,1.879887e+001
1.166630e+003,1.610202e+001
1.167594e+003,1.309990e+001
1.168558e+003,1.049483e+001
1.169522e+003,9.429138e+000
1.170487e+003,1.009000e+001
1.171451e+003,1.139331e+001
1.172415e+003,1.217943e+001
1.173379e+003,1.245711e+001
1.174344e+003,1.244208e+001
1.175308e+003,1.218936e+001
1.176272e+003,1.167020e+001
1.177236e+003,1.081013e+001
1.178201e+003,9.779327e+000
1.179165e+003,8.566071e+000
1.180129e+003,7.103027e+000
1.181093e+003,6.290253e+000
1.182057e+003,7.026596e+000
1.183022e+003,7.448380e+000
1.183986e+003,6.773392e+000
1.184950e+003,5.578979e+000
1.185914e+003,3.861908e+000
1.186879e+003,2.146332e+000
1.187843e+003,1.909958e+000
1.188807e+003,4.390656e+000
1.189771e+003,8.341263e+000
1.190736e+003,1.007013e+001
1.191700e+003,9.357056e+000
1.192664e+003,8.273682e+000
1.193628e+003,6.722107e+000
1.194593e+003,5.273972e+000
1.195557e+003,4.383591e+000
1.196521e+003,3.901596e+000
1.197485e+003,3.309647e+000
1.198449e+003,2.455399e+000
1.199414e+003,1.787979e+000
1.200378e+003,2.010117e+000
1.201342e+003,2.046631e+000
1.202306e+003,7.652893e-001
1.203271e+003,-1.224625e+000
1.204235e+003,-2.552231e+000
1.205199e+003,-2.543411e+000
1.206163e+003,-1.756393e+000
1.207128e+003,-1.117233e+000
1.208092e+003,-6.314240e-001
1.209056e+003,-2.217102e-002
1.210020e+003,1.181015e+000
1.210984e+003,1.612839e+000
1.211949e+003,7.196503e-001
1.212913e+003,-1.082825e+000
1.213877e+003,-3.554581e+000
1.214841e+003,-6.595337e+000
1.215806e+003,-9.046417e+000
1.216770e+003,-1.046445e+001
1.217734e+003,-1.116146e+001
1.218698e+003,-1.131599e+001
1.219663e+003,-1.113036e+001
1.220627e+003,-1.080297e+001
1.221591e+003,-1.039223e+001
1.222555e+003,-9.737152e+000
1.223520e+003,-8.631607e+000
1.224484e+003,-7.434494e+000
1.225448e+003,-8.028366e+000
1.226412e+003,-1.182130e+001
1.227376e+003,-1.429489e+001
1.228341e+003,-1.518235e+001
1.229305e+003,-1.516370e+001
1.230269e+003,-1.411953e+001
1.231233e+003,-1.256889e+001
1.232198e+003,-1.151414e+001
1.233162e+003,-1.120770e+001
1.234126e+003,-1.080249e+001
1.235090e+003,-9.190247e+000
1.236055e+003,-7.809372e+000
1.237019e+003,-8.697281e+000
1.237983e+003,-1.103600e+001
1.238947e+003,-1.249642e+001
1.239911e+003,-1.208084e+001
1.240876e+003,-1.083909e+001
1.241840e+003,-1.035941e+001
1.242804e+003,-1.069188e+001
1.243768e+003,-1.078217e+001
1.244733e+003,-1.020034e+001
1.245697e+003,-9.951500e+000
1.246661e+003,-1.041640e+001
1.247625e+003,-1.108717e+001
1.248590e+003,-1.167608e+001
1.249554e+003,-1.204154e+001
1.250518e+003,-1.196748e+001
1.251482e+003,-1.135181e+001
1.252447e+003,-1.076330e+001
1.253411e+003,-1.094573e+001
1.254375e+003,-1.151549e+001
1.255339e+003,-1.191827e+001
1.256303e+003,-1.205583e+001
1.257268e+003,-1.125547e+001
1.258232e+003,-8.758820e+000
1.259196e+003,-5.777786e+000
1.260160e+003,-4.847580e+000
1.261125e+003,-6.298889e+000
1.262089e+003,-7.402405e+000
1.263053e+003,-7.963562e+000
1.264017e+003,-8.149597e+000
1.264982e+003,-7.759888e+000
1.265946e+003,-7.149963e+000
1.266910e+003,-6.347763e+000
1.267874e+003,-5.630707e+000
1.268839e+003,-5.847260e+000
1.269803e+003,-7.586685e+000
1.270767e+003,-9.607124e+000
1.271731e+003,-9.172562e+000
1.272695e+003,-6.377182e+000
1.273660e+003,-5.289139e+000
1.274624e+003,-6.648941e+000
1.275588e+003,-8.280624e+000
1.276552e+003,-9.109596e+000
1.277517e+003,-9.300842e+000
1.278481e+003,-9.097534e+000
1.279445e+003,-8.484726e+000
1.280409e+003,-8.190918e+000
1.281374e+003,-8.699211e+000
1.282338e+003,-9.229027e+000
1.283302e+003,-9.558846e+000
1.284266e+003,-9.598038e+000
1.285230e+003,-9.056030e+000
1.286195e+003,-8.080643e+000
1.287159e+003,-7.238953e+000
1.288123e+003,-6.971405e+000
1.289087e+003,-7.201126e+000
1.290052e+003,-7.881538e+000
1.291016e+003,-9.507095e+000
1.291980e+003,-9.850327e+000
1.292944e+003,-7.482376e+000
1.293909e+003,-5.903183e+000
1.294873e+003,-7.150330e+000
1.295837e+003,-9.464142e+000
1.296801e+003,-1.019324e+001
1.297766e+003,-9.108818e+000
1.298730e+003,-8.570511e+000
1.299694e+003,-1.029478e+001
1.300658e+003,-1.220574e+001
1.301622e+003,-1.179308e+001
1.302587e+003,-1.006484e+001
1.303551e+003,-8.323441e+000
1.304515e+003,-6.877075e+000
1.305479e+003,-6.080078e+000
1.306444e+003,-6.365463e+000
1.307408e+003,-7.400887e+000
1.308372e+003,-7.938744e+000
1.309336e+003,-7.769150e+000
1.310301e+003,-7.761307e+000
1.311265e+003,-8.225410e+000
1.312229e+003,-8.448723e+000
1.313193e+003,-7.721268e+000
1.314157e+003,-7.012169e+000
1.315122e+003,-7.747185e+000
1.316086e+003,-9.707214e+000
1.317050e+003,-1.104652e+001
1.318014e+003,-1.047524e+001
1.318979e+003,-9.082123e+000
1.319943e+003,-8.878899e+000
1.320907e+003,-9.705391e+000
1.321871e+003,-1.020023e+001
1.322836e+003,-1.034859e+001
1.323800e+003,-1.034086e+001
1.324764e+003,-1.034425e+001
1.325728e+003,-1.019580e+001
1.326693e+003,-9.429146e+000
1.327657e+003,-8.049881e+000
1.328621e+003,-7.428314e+000
1.329585e+003,-8.453957e+000
1.330549e+003,-9.020317e+000
1.331514e+003,-7.472488e+000
1.332478e+003,-5.718185e+000
1.333442e+003,-5.795410e+000
1.334406e+003,-7.402626e+000
1.335371e+003,-8.751259e+000
1.336335e+003,-8.770828e+000
1.337299e+003,-8.257233e+000
1.338263e+003,-8.810425e+000
1.339228e+003,-1.065455e+001
1.340192e+003,-1.141360e+001
1.341156e+003,-1.007090e+001
1.342120e+003,-9.225723e+000
1.343084e+003,-9.793358e+000
1.344049e+003,-1.060511e+001
1.345013e+003,-1.070631e+001
1.345977e+003,-1.011822e+001
1.346941e+003,-9.101547e+000
1.347906e+003,-7.697090e+000
1.348870e+003,-6.818726e+000
1.349834e+003,-7.953934e+000
1.350798e+003,-9.694870e+000
1.351763e+003,-8.843544e+000
1.352727e+003,-5.917397e+000
1.353691e+003,-4.195618e+000
1.354655e+003,-5.024139e+000
1.355620e+003,-6.815521e+000
1.356584e+003,-7.752487e+000
1.357548e+003,-7.923058e+000
1.358512e+003,-8.361664e+000
1.359476e+003,-9.438026e+000
1.360441e+003,-1.011000e+001
1.361405e+003,-9.835228e+000
1.362369e+003,-9.344307e+000
1.363333e+003,-9.013390e+000
1.364298e+003,-8.672241e+000
1.365262e+003,-7.829636e+000
1.366226e+003,-6.542717e+000
1.367190e+003,-5.651154e+000
1.368155e+003,-5.918327e+000
1.369119e+003,-6.923775e+000
1.370083e+003,-7.313324e+000
1.371047e+003,-6.830368e+000
1.372011e+003,-6.669540e+000
1.372976e+003,-7.305840e+000
1.373940e+003,-7.762253e+000
1.374904e+003,-7.727554e+000
1.375868e+003,-7.234932e+000
1.376833e+003,-5.980377e+000
1.377797e+003,-4.201714e+000
1.378761e+003,-3.364471e+000
1.379725e+003,-4.307510e+000
1.380690e+003,-5.583961e+000
1.381654e+003,-5.352859e+000
1.382618e+003,-4.684555e+000
1.383582e+003,-5.530220e+000
1.384547e+003,-7.664299e+000
1.385511e+003,-8.646584e+000
1.386475e+003,-7.022499e+000
1.387439e+003,-4.580254e+000
1.388403e+003,-4.138130e+000
1.389368e+003,-5.696335e+000
1.390332e+003,-6.957634e+000
1.391296e+003,-8.066887e+000
1.392260e+003,-8.330963e+000
1.393225e+003,-7.074829e+000
1.394189e+003,-5.637047e+000
1.395153e+003,-4.651184e+000
1.396117e+003,-4.038597e+000
1.397082e+003,-3.474533e+000
1.398046e+003,-2.916611e+000
1.399010e+003,-2.729584e+000
1.399974e+003,-3.299522e+000
1.400938e+003,-4.481705e+000
1.401903e+003,-5.661606e+000
1.402867e+003,-6.807571e+000
1.403831e+003,-7.128464e+000
1.404795e+003,-6.418739e+000
1.405760e+003,-5.374153e+000
1.406724e+003,-3.758652e+000
1.407688e+003,-2.472412e+000
1.408652e+003,-2.695206e+000
1.409617e+003,-4.162315e+000
1.410581e+003,-5.543976e+000
1.411545e+003,-6.432617e+000
1.412509e+003,-6.498894e+000
1.413474e+003,-4.713280e+000
1.414438e+003,-2.448868e+000
1.415402e+003,-1.935150e+000
1.416366e+003,-2.956039e+000
1.417330e+003,-4.326683e+000
1.418295e+003,-5.763382e+000
1.419259e+003,-6.735703e+000
1.420223e+003,-6.467896e+000
1.421187e+003,-5.189156e+000
1.422152e+003,-4.026352e+000
1.423116e+003,-2.826569e+000
1.424080e+003,-2.089355e+000
1.425044e+003,-2.467827e+000
1.426009e+003,-2.931473e+000
1.426973e+003,-2.892899e+000
1.427937e+003,-2.812271e+000
1.428901e+003,-3.644173e+000
1.429865e+003,-5.058006e+000
1.430830e+003,-5.327354e+000
1.431794e+003,-3.381950e+000
1.432758e+003,-6.146088e-001
1.433722e+003,2.497559e-001
1.434687e+003,-8.739624e-001
1.435651e+003,-1.437912e+000
1.436615e+003,-1.476898e+000
1.437579e+003,-1.350128e+000
1.438544e+003,-5.914764e-001
1.439508e+003,-1.173706e-001
1.440472e+003,-8.708496e-001
1.441436e+003,-2.156685e+000
1.442401e+003,-2.576637e+000
1.443365e+003,-1.883347e+000
1.444329e+003,-1.171478e+000
1.445293e+003,-1.260925e+000
1.446257e+003,-1.658478e+000
1.447222e+003,-1.203346e+000
1.448186e+003,-2.031860e-001
1.449150e+003,-5.347595e-001
1.450114e+003,-2.760216e+000
1.451079e+003,-4.756325e+000
1.452043e+003,-5.583908e+000
1.453007e+003,-5.399826e+000
1.453971e+003,-3.829903e+000
1.454936e+003,-1.251450e+000
1.455900e+003,-4.666901e-001
1.456864e+003,-2.676460e+000
1.457828e+003,-4.392014e+000
1.458792e+003,-2.853920e+000
1.459757e+003,-7.462616e-001
1.460721e+003,-3.166504e-001
1.461685e+003,-9.915009e-001
1.462649e+003,-1.323883e+000
1.463614e+003,-9.468079e-001
1.464578e+003,-7.653885e-001
1.465542e+003,-1.716324e+000
1.466506e+003,-3.265526e+000
1.467471e+003,-3.649986e+000
1.468435e+003,-2.488106e+000
1.469399e+003,-1.722031e+000
1.470363e+003,-1.874001e+000
1.471328e+003,-1.992439e+000
1.472292e+003,-1.973633e+000
1.473256e+003,-1.879517e+000
1.474220e+003,-1.355316e+000
1.475184e+003,-7.806778e-001
1.476149e+003,-1.196365e+000
1.477113e+003,-2.748024e+000
1.478077e+003,-4.062836e+000
1.479041e+003,-3.743332e+000
1.480006e+003,-2.178932e+000
1.480970e+003,-7.384872e-001
1.481934e+003,6.612396e-001
1.482898e+003,1.186279e+000
1.483863e+003,-4.238892e-002
1.484827e+003,-8.404541e-001
1.485791e+003,-1.785660e-001
1.486755e+003,8.627625e-001
1.487719e+003,1.278511e+000
1.488684e+003,1.140022e+000
1.489648e+003,9.581223e-001
1.490612e+003,9.340668e-001
1.491576e+003,9.659729e-001
1.492541e+003,8.083344e-001
1.493505e+003,8.428650e-001
1.494469e+003,2.368759e+000
1.495433e+003,4.974930e+000
1.496398e+003,6.356796e+000
1.497362e+003,5.987076e+000
1.498326e+003,5.574158e+000
1.499290e+003,5.916954e+000
1.500255e+003,6.746956e+000
1.501219e+003,7.787468e+000
1.502183e+003,8.973358e+000
1.503147e+003,1.005186e+001
1.504111e+003,1.088257e+001
1.505076e+003,1.205704e+001
1.506040e+003,1.413593e+001
1.507004e+003,1.652246e+001
1.507968e+003,1.848056e+001
1.508933e+003,2.030936e+001
1.509897e+003,2.264769e+001
1.510861e+003,2.570347e+001
1.511825e+003,2.924386e+001
1.512790e+003,3.309371e+001
1.513754e+003,3.713135e+001
1.514718e+003,4.127415e+001
1.515682e+003,4.546069e+001
1.516646e+003,4.952435e+001
1.517611e+003,5.371066e+001
1.518575e+003,5.734221e+001
1.519539e+003,6.065541e+001
1.520503e+003,6.301827e+001
1.521468e+003,6.354601e+001
1.522432e+003,6.311013e+001
1.523396e+003,6.298100e+001
1.524360e+003,6.324590e+001
1.525325e+003,6.320548e+001
1.526289e+003,6.241295e+001
1.527253e+003,6.061389e+001
1.528217e+003,5.720403e+001
1.529182e+003,5.221523e+001
1.530146e+003,4.730460e+001
1.531110e+003,4.211769e+001
1.532074e+003,3.757589e+001
1.533039e+003,3.394718e+001
1.534003e+003,3.037836e+001
1.534967e+003,2.657795e+001
1.535931e+003,2.282821e+001
1.536896e+003,1.929494e+001
1.537860e+003,1.613599e+001
1.538824e+003,1.359087e+001
1.539788e+003,1.173538e+001
1.540752e+003,1.032553e+001
1.541717e+003,9.101410e+000
1.542681e+003,8.094803e+000
1.543645e+003,7.288170e+000
1.544609e+003,6.879707e+000
1.545573e+003,6.347542e+000
1.546538e+003,5.087440e+000
1.547502e+003,4.307091e+000
1.548466e+003,4.755562e+000
1.549430e+003,5.800720e+000
1.550395e+003,6.990875e+000
1.551359e+003,8.071198e+000
1.552323e+003,8.743942e+000
1.553287e+003,8.906937e+000
1.554252e+003,8.553741e+000
1.555216e+003,7.626610e+000
1.556180e+003,6.274727e+000
1.557144e+003,4.654121e+000
1.558109e+003,2.793694e+000
1.559073e+003,2.081055e+000
1.560037e+003,3.353859e+000
1.561001e+003,3.840881e+000
1.561966e+003,1.738739e+000
1.562930e+003,-5.135956e-001
1.563894e+003,-4.076233e-001
1.564858e+003,1.199753e+000
1.565823e+003,2.113716e+000
1.566787e+003,1.896507e+000
1.567751e+003,1.125237e+000
1.568715e+003,-2.072678e-001
1.569679e+003,-8.466797e-001
1.570644e+003,1.738182e+000
1.571608e+003,5.904076e+000
1.572572e+003,6.647385e+000
1.573536e+003,3.783241e+000
1.574500e+003,1.725647e+000
1.575465e+003,2.374413e+000
1.576429e+003,3.451462e+000
1.577393e+003,2.640816e+000
1.578357e+003,1.152611e+000
1.579322e+003,1.771294e+000
1.580286e+003,4.501610e+000
1.581250e+003,6.598015e+000
1.582214e+003,7.202065e+000
1.583179e+003,7.088936e+000
1.584143e+003,6.220795e+000
1.585107e+003,5.418640e+000
1.586071e+003,6.179764e+000
1.587036e+003,8.007370e+000
1.588000e+003,9.238571e+000
1.588964e+003,9.501389e+000
1.589928e+003,8.714516e+000
1.590893e+003,6.093559e+000
1.591857e+003,3.124008e+000
1.592821e+003,2.119644e+000
1.593785e+003,2.842468e+000
1.594750e+003,3.952713e+000
1.595714e+003,5.371689e+000
1.596678e+003,6.436218e+000
1.597642e+003,6.675766e+000
1.598606e+003,6.801392e+000
1.599571e+003,7.770859e+000
1.600535e+003,8.792572e+000
1.601499e+003,8.448692e+000
1.602463e+003,6.992638e+000
1.603427e+003,6.266869e+000
1.604392e+003,7.080742e+000
1.605356e+003,8.318703e+000
1.606320e+003,8.772453e+000
1.607284e+003,8.806351e+000
1.608249e+003,9.675064e+000
1.609213e+003,1.142662e+001
1.610177e+003,1.227504e+001
1.611141e+003,1.144586e+001
1.612106e+003,1.091348e+001
1.613070e+003,1.259359e+001
1.614034e+003,1.399418e+001
1.614998e+003,1.261645e+001
1.615963e+003,9.989388e+000
1.616927e+003,8.790398e+000
1.617891e+003,9.355766e+000
1.618855e+003,1.038815e+001
1.619820e+003,1.119011e+001
1.620784e+003,1.155418e+001
1.621748e+003,1.108257e+001
1.622712e+003,1.004207e+001
1.623677e+003,9.457947e+000
1.624641e+003,9.287010e+000
1.625605e+003,1.001707e+001
1.626569e+003,1.248417e+001
1.627533e+003,1.429926e+001
1.628498e+003,1.433906e+001
1.629462e+003,1.342597e+001
1.630426e+003,1.165895e+001
1.631390e+003,9.609314e+000
1.632354e+003,8.338440e+000
1.633319e+003,8.072159e+000
1.634283e+003,8.222015e+000
1.635247e+003,8.303207e+000
1.636211e+003,8.660103e+000
1.637176e+003,1.041618e+001
1.638140e+003,1.340639e+001
1.639104e+003,1.444770e+001
1.640068e+003,1.279638e+001
1.641033e+003,1.162011e+001
1.641997e+003,1.214340e+001
1.642961e+003,1.271646e+001
1.643925e+003,1.252548e+001
1.644890e+003,1.197128e+001
1.645854e+003,1.127904e+001
1.646818e+003,1.057872e+001
1.647782e+003,1.009016e+001
1.648747e+003,9.868126e+000
1.649711e+003,9.781532e+000
1.650675e+003,9.772804e+000
1.651639e+003,9.838554e+000
1.652604e+003,9.838478e+000
1.653568e+003,9.749817e+000
1.654532e+003,1.001369e+001
1.655496e+003,1.087183e+001
1.656460e+003,1.130920e+001
1.657425e+003,1.110359e+001
1.658389e+003,1.035205e+001
1.659353e+003,8.147865e+000
1.660317e+003,6.166969e+000
1.661281e+003,6.830750e+000
1.662246e+003,9.258690e+000
1.663210e+003,1.058038e+001
1.664174e+003,9.874428e+000
1.665138e+003,8.217972e+000
1.666103e+003,6.100266e+000
1.667067e+003,4.216843e+000
1.668031e+003,4.330933e+000
1.668995e+003,6.288422e+000
1.669960e+003,7.617447e+000
1.670924e+003,8.099487e+000
1.671888e+003,8.211128e+000
1.672852e+003,8.019524e+000
1.673817e+003,7.516563e+000
1.674781e+003,6.140396e+000
1.675745e+003,4.866661e+000
1.676709e+003,5.159386e+000
1.677674e+003,6.503365e+000
1.678638e+003,6.915245e+000
1.679602e+003,5.795456e+000
1.680566e+003,4.962219e+000
1.681531e+003,6.196930e+000
1.682495e+003,8.121902e+000
1.683459e+003,8.155113e+000
1.684423e+003,6.580994e+000
1.685387e+003,5.299217e+000
1.686352e+003,4.416916e+000
1.687316e+003,4.625183e+000
1.688280e+003,7.006912e+000
1.689244e+003,8.895142e+000
1.690208e+003,7.456841e+000
1.691173e+003,5.020699e+000
1.692137e+003,4.126961e+000
1.693101e+003,4.515434e+000
1.694065e+003,4.932220e+000
1.695030e+003,5.040726e+000
1.695994e+003,4.825989e+000
1.696958e+003,4.144257e+000
1.697922e+003,3.365768e+000
1.698887e+003,2.899483e+000
1.699851e+003,2.733009e+000
1.700815e+003,2.909271e+000
1.701779e+003,3.383705e+000
1.702744e+003,3.482758e+000
1.703708e+003,3.026146e+000
1.704672e+003,2.268631e+000
1.705636e+003,9.007797e-001
1.706601e+003,-3.160095e-001
1.707565e+003,3.266449e-001
1.708529e+003,2.156235e+000
1.709493e+003,2.716141e+000
1.710458e+003,1.546471e+000
1.711422e+003,7.475281e-001
1.712386e+003,1.659576e+000
1.713350e+003,2.755600e+000
1.714314e+003,2.890976e+000
1.715279e+003,2.267929e+000
1.716243e+003,8.538666e-001
1.717207e+003,-9.898911e-001
1.718171e+003,-1.675117e+000
1.719135e+003,-7.538528e-001
1.720100e+003,2.326431e-001
1.721064e+003,2.452087e-001
1.722028e+003,-2.280045e-001
1.722992e+003,-5.909576e-001
1.723957e+003,-7.126999e-001
1.724921e+003,3.874969e-002
1.725885e+003,1.928497e+000
1.726849e+003,2.420761e+000
1.727814e+003,-3.521423e-001
1.728778e+003,-2.376900e+000
1.729742e+003,-1.275505e+000
1.730706e+003,7.045364e-001
1.731671e+003,1.400726e+000
1.732635e+003,1.111427e+000
1.733599e+003,7.734528e-001
1.734563e+003,7.528610e-001
1.735528e+003,1.566154e+000
1.736492e+003,3.449326e+000
1.737456e+003,4.734024e+000
1.738420e+003,3.254791e+000
1.739385e+003,2.922058e-003
1.740349e+003,-1.080070e+000
1.741313e+003,7.685089e-001
1.742277e+003,1.122208e+000
1.743241e+003,-1.270256e+000
1.744206e+003,-2.995598e+000
1.745170e+003,-3.762581e+000
1.746134e+003,-3.671646e+000
1.747098e+003,-1.955429e+000
1.748063e+003,-3.913116e-002
1.749027e+003,2.531204e-001
1.749991e+003,-6.679764e-001
1.750955e+003,-1.147102e+000
1.751919e+003,-6.704483e-001
1.752884e+003,-1.540451e-001
1.753848e+003,-3.628159e-001
1.754812e+003,-8.662262e-001
1.755776e+003,-7.578049e-001
1.756741e+003,-5.203247e-003
1.757705e+003,8.971481e-001
1.758669e+003,2.052025e+000
1.759633e+003,2.923027e+000
1.760598e+003,3.652527e+000
1.761562e+003,3.682678e+000
1.762526e+003,2.555618e+000
1.763490e+003,1.118050e+000
1.764455e+003,-3.491516e-001
1.765419e+003,-1.561195e+000
1.766383e+003,-2.217682e+000
1.767347e+003,-2.319817e+000
1.768312e+003,-1.885048e+000
1.769276e+003,-9.178009e-001
1.770240e+003,-2.212219e-001
1.771204e+003,-7.202835e-001
1.772168e+003,-1.822693e+000
1.773133e+003,-2.284523e+000
1.774097e+003,-2.168037e+000
1.775061e+003,-2.031105e+000
1.776025e+003,-1.957077e+000
1.776990e+003,-2.138786e+000
1.777954e+003,-2.901451e+000
1.778918e+003,-3.154678e+000
1.779882e+003,-1.709984e+000
1.780846e+003,2.729492e-001
1.781811e+003,1.430191e+000
1.782775e+003,1.854515e+000
1.783739e+003,1.606262e+000
1.784703e+003,6.048508e-001
1.785668e+003,2.245865e-001
1.786632e+003,1.863434e+000
1.787596e+003,3.038200e+000
1.788560e+003,1.202477e+000
1.789525e+003,-1.524750e+000
1.790489e+003,-2.262894e+000
1.791453e+003,-1.321014e+000
1.792417e+003,5.989838e-002
1.793382e+003,1.461082e+000
1.794346e+003,2.048210e+000
1.795310e+003,1.325203e+000
1.796274e+003,2.032394e-001
1.797239e+003,-2.561798e-001
1.798203e+003,-1.967545e-001
1.799167e+003,-3.036346e-001
1.800131e+003,-7.633820e-001
1.801095e+003,-9.157028e-001
1.802060e+003,-7.489014e-002
1.803024e+003,1.660461e-001
1.803988e+003,-1.513237e+000
1.804952e+003,-2.461502e+000
1.805917e+003,-5.854874e-001
1.806881e+003,1.907166e+000
1.807845e+003,3.000847e+000
1.808809e+003,2.823647e+000
1.809773e+003,1.990608e+000
1.810738e+003,8.530273e-001
1.811702e+003,-2.361755e-001
1.812666e+003,-1.048851e+000
1.813630e+003,-1.372047e+000
1.814595e+003,-8.569412e-001
1.815559e+003,2.914581e-001
1.816523e+003,1.392334e+000
1.817487e+003,2.496742e+000
1.818452e+003,3.090027e+000
1.819416e+003,3.202766e+000
1.820380e+003,2.771790e+000
1.821344e+003,1.242500e+000
1.822309e+003,-1.858902e-001
1.823273e+003,-8.845596e-001
1.824237e+003,-1.018555e+000
1.825201e+003,-7.290649e-001
1.826166e+003,-6.126404e-002
1.827130e+003,1.276665e+000
1.828094e+003,3.249840e+000
1.829058e+003,4.028862e+000
1.830022e+003,2.309265e+000
1.830987e+003,1.792679e-001
1.831951e+003,-6.981812e-001
1.832915e+003,-8.879623e-001
1.833879e+003,-1.250259e+000
1.834844e+003,-1.648491e+000
1.835808e+003,-1.512222e+000
1.836772e+003,-7.783813e-001
1.837736e+003,2.070847e-001
1.838700e+003,1.279884e+000
1.839665e+003,2.284134e+000
1.840629e+003,3.205284e+000
1.841593e+003,3.666313e+000
1.842557e+003,2.644928e+000
1.843522e+003,1.724930e-001
1.844486e+003,-1.205925e+000
1.845450e+003,-7.362900e-001
1.846414e+003,-4.608459e-001
1.847379e+003,-9.352036e-001
1.848343e+003,-1.013748e+000
1.849307e+003,1.806107e-001
1.850271e+003,1.378212e+000
1.851236e+003,1.823395e+000
1.852200e+003,1.650047e+000
1.853164e+003,8.217468e-001
1.854128e+003,-3.970413e-001
1.855093e+003,-1.348167e+000
1.856057e+003,-1.718102e+000
1.857021e+003,-1.572060e+000
1.857985e+003,-9.349594e-001
1.858949e+003,-1.435928e-001
1.859914e+003,3.557510e-001
1.860878e+003,5.380173e-001
1.861842e+003,-7.978058e-002
1.862806e+003,-1.552536e+000
1.863771e+003,-2.014000e+000
1.864735e+003,-9.767532e-001
1.865699e+003,2.115326e-001
1.866663e+003,1.316422e+000
1.867627e+003,1.796440e+000
1.868592e+003,4.629440e-001
1.869556e+003,-1.459702e+000
1.870520e+003,-1.331459e+000
1.871484e+003,5.017929e-001
1.872449e+003,1.806923e+000
1.873413e+003,2.500534e+000
1.874377e+003,2.809242e+000
1.875341e+003,2.187904e+000
1.876306e+003,1.711838e+000
1.877270e+003,2.435799e+000
1.878234e+003,3.105049e+000
1.879198e+003,1.874687e+000
1.880163e+003,-4.895782e-002
1.881127e+003,-7.971954e-002
1.882091e+003,1.690887e+000
1.883055e+003,3.085823e+000
1.884020e+003,3.196564e+000
1.884984e+003,2.976158e+000
1.885948e+003,3.301109e+000
1.886912e+003,3.802933e+000
1.887876e+003,3.693192e+000
1.888841e+003,3.055542e+000
1.889805e+003,2.986107e+000
1.890769e+003,3.739693e+000
1.891733e+003,3.571716e+000
1.892698e+003,1.676384e+000
1.893662e+003,3.323593e-001
1.894626e+003,6.296082e-001
1.895590e+003,1.327545e+000
1.896554e+003,1.896927e+000
1.897519e+003,2.218636e+000
1.898483e+003,1.897972e+000
1.899447e+003,1.117195e+000
1.900411e+003,6.195297e-001
1.901376e+003,5.439529e-001
1.902340e+003,7.702103e-001
1.903304e+003,1.562981e+000
1.904268e+003,2.136673e+000
1.905233e+003,1.681938e+000
1.906197e+003,1.130630e+000
1.907161e+003,1.821434e+000
1.908125e+003,2.954895e+000
1.909090e+003,2.408966e+000
1.910054e+003,6.870575e-001
1.911018e+003,1.088921e+000
1.911982e+003,4.354485e+000
1.912947e+003,6.668709e+000
1.913911e+003,5.216263e+000
1.914875e+003,2.454544e+000
1.915839e+003,2.270729e+000
1.916803e+003,3.961708e+000
1.917768e+003,3.926048e+000
1.918732e+003,1.706596e+000
1.919696e+003,1.157051e+000
1.920660e+003,3.189545e+000
1.921625e+003,4.496284e+000
1.922589e+003,3.787689e+000
1.923553e+003,3.107346e+000
1.924517e+003,3.762802e+000
1.925481e+003,4.712158e+000
1.926446e+003,5.002937e+000
1.927410e+003,4.944855e+000
1.928374e+003,5.324066e+000
1.929338e+003,6.077255e+000
1.930303e+003,6.038696e+000
1.931267e+003,4.608215e+000
1.932231e+003,3.638664e+000
1.933195e+003,4.161591e+000
1.934160e+003,5.069786e+000
1.935124e+003,5.928284e+000
1.936088e+003,6.388397e+000
1.937052e+003,5.993393e+000
1.938017e+003,4.996704e+000
1.938981e+003,3.673813e+000
1.939945e+003,2.308456e+000
1.940909e+003,1.593712e+000
1.941874e+003,1.805428e+000
1.942838e+003,2.554932e+000
1.943802e+003,3.574226e+000
1.944766e+003,4.515320e+000
1.945730e+003,4.430199e+000
1.946695e+003,3.482330e+000
1.947659e+003,3.419220e+000
1.948623e+003,4.326691e+000
1.949587e+003,5.057884e+000
1.950552e+003,5.649208e+000
1.951516e+003,5.429863e+000
1.952480e+003,3.576920e+000
1.953444e+003,2.155151e+000
1.954408e+003,2.916237e+000
1.955373e+003,4.525597e+000
1.956337e+003,5.389099e+000
1.957301e+003,5.621964e+000
1.958265e+003,5.370338e+000
1.959230e+003,4.591492e+000
1.960194e+003,3.778946e+000
1.961158e+003,2.232246e+000
1.962122e+003,1.656563e+000
1.963087e+003,3.582176e+000
1.964051e+003,5.292557e+000
1.965015e+003,4.616882e+000
1.965979e+003,3.612984e+000
1.966944e+003,5.031250e+000
1.967908e+003,7.391617e+000
1.968872e+003,7.331879e+000
1.969836e+003,4.968521e+000
1.970801e+003,3.395744e+000
1.971765e+003,3.903732e+000
1.972729e+003,4.850922e+000
1.973693e+003,4.832825e+000
1.974657e+003,4.523972e+000
1.975622e+003,5.038765e+000
1.976586e+003,5.986633e+000
1.977550e+003,6.320015e+000
1.978514e+003,6.142464e+000
1.979479e+003,6.011902e+000
1.980443e+003,6.018867e+000
1.981407e+003,6.405167e+000
1.982371e+003,7.311981e+000
1.983335e+003,8.089310e+000
1.984300e+003,8.232117e+000
1.985264e+003,7.840065e+000
1.986228e+003,7.003586e+000
1.987192e+003,5.903076e+000
1.988157e+003,5.513748e+000
1.989121e+003,5.999702e+000
1.990085e+003,6.468109e+000
1.991049e+003,6.903267e+000
1.992014e+003,7.416649e+000
1.992978e+003,8.174652e+000
1.993942e+003,8.739067e+000
1.994906e+003,9.330139e+000
1.995871e+003,9.313271e+000
1.996835e+003,7.274521e+000
1.997799e+003,4.929070e+000
1.998763e+003,5.167137e+000
1.999728e+003,7.456566e+000
