5.003444e+002,4.388658e+001
5.013087e+002,4.413091e+001
5.022729e+002,4.352800e+001
5.032371e+002,4.259201e+001
5.042014e+002,4.279063e+001
5.051656e+002,4.394676e+001
5.061298e+002,4.498373e+001
5.070941e+002,4.481578e+001
5.080583e+002,4.296072e+001
5.090225e+002,4.237022e+001
5.099868e+002,4.417593e+001
5.109510e+002,4.565521e+001
5.119152e+002,4.500005e+001
5.128795e+002,4.197636e+001
5.138437e+002,3.987225e+001
5.148079e+002,4.062450e+001
5.157722e+002,4.181445e+001
5.167364e+002,4.282014e+001
5.177006e+002,4.328540e+001
5.186649e+002,4.295818e+001
5.196291e+002,4.118578e+001
5.205933e+002,3.880675e+001
5.215576e+002,3.618570e+001
5.225218e+002,3.349666e+001
5.234860e+002,3.137370e+001
5.244503e+002,3.111046e+001
5.254145e+002,3.362015e+001
5.263787e+002,3.506078e+001
5.273430e+002,3.465262e+001
5.283072e+002,3.371045e+001
5.292714e+002,3.423157e+001
5.302357e+002,3.750050e+001
5.311999e+002,3.897150e+001
5.321641e+002,3.752174e+001
5.331284e+002,3.515961e+001
5.340926e+002,3.317154e+001
5.350568e+002,3.194772e+001
5.360211e+002,3.127168e+001
5.369853e+002,3.167537e+001
5.379495e+002,3.225888e+001
5.389138e+002,3.210069e+001
5.398780e+002,3.089142e+001
5.408422e+002,2.912430e+001
5.418065e+002,2.817706e+001
5.427707e+002,2.794812e+001
5.437349e+002,2.795181e+001
5.446992e+002,2.825885e+001
5.456634e+002,2.857152e+001
5.466276e+002,2.784216e+001
5.475919e+002,2.425708e+001
5.485561e+002,2.198361e+001
5.495203e+002,2.165875e+001
5.504846e+002,2.247729e+001
5.514488e+002,2.345667e+001
5.524130e+002,2.463210e+001
5.533773e+002,2.523718e+001
5.543415e+002,2.458647e+001
5.553057e+002,2.348146e+001
5.562700e+002,2.272861e+001
5.572342e+002,2.280565e+001
5.581984e+002,2.330159e+001
5.591627e+002,2.344302e+001
5.601269e+002,2.333806e+001
5.610911e+002,2.282645e+001
5.620554e+002,2.172163e+001
5.630196e+002,2.017831e+001
5.639838e+002,2.002046e+001
5.649481e+002,2.306783e+001
5.659123e+002,2.487468e+001
5.668765e+002,2.422459e+001
5.678408e+002,2.192361e+001
5.688050e+002,2.006297e+001
5.697692e+002,1.897449e+001
5.707335e+002,1.837663e+001
5.716977e+002,1.886710e+001
5.726619e+002,1.961519e+001
5.736262e+002,1.938385e+001
5.745904e+002,1.715556e+001
5.755546e+002,1.451108e+001
5.765189e+002,1.380368e+001
5.774831e+002,1.434801e+001
5.784473e+002,1.525597e+001
5.794116e+002,1.596016e+001
5.803758e+002,1.651349e+001
5.813400e+002,1.665810e+001
5.823043e+002,1.608495e+001
5.832685e+002,1.564986e+001
5.842327e+002,1.588683e+001
5.851970e+002,1.672307e+001
5.861612e+002,1.727525e+001
5.871254e+002,1.717360e+001
5.880897e+002,1.686926e+001
5.890539e+002,1.631277e+001
5.900181e+002,1.558054e+001
5.909824e+002,1.477716e+001
5.919466e+002,1.395415e+001
5.929108e+002,1.321974e+001
5.938751e+002,1.269679e+001
5.948393e+002,1.228870e+001
5.958035e+002,1.184862e+001
5.967678e+002,1.128075e+001
5.977320e+002,1.066141e+001
5.986962e+002,1.034596e+001
5.996605e+002,1.025101e+001
6.006247e+002,9.996979e+000
6.015889e+002,9.171341e+000
6.025532e+002,7.872421e+000
6.035174e+002,7.358337e+000
6.044816e+002,8.429138e+000
6.054459e+002,9.549500e+000
6.064101e+002,1.071147e+001
6.073743e+002,1.173778e+001
6.083386e+002,1.246352e+001
6.093028e+002,1.297835e+001
6.102670e+002,1.273618e+001
6.112313e+002,1.055852e+001
6.121955e+002,7.809113e+000
6.131597e+002,6.517548e+000
6.141240e+002,8.022736e+000
6.150882e+002,1.130551e+001
6.160524e+002,1.179645e+001
6.170167e+002,1.004938e+001
6.179809e+002,8.339462e+000
6.189451e+002,7.729843e+000
6.199094e+002,7.975922e+000
6.208736e+002,7.519699e+000
6.218378e+002,4.906616e+000
6.228021e+002,3.494644e+000
6.237663e+002,4.502045e+000
6.247305e+002,6.682480e+000
6.256948e+002,7.794449e+000
6.266590e+002,6.229370e+000
6.276232e+002,5.084167e+000
6.285875e+002,6.807510e+000
6.295517e+002,9.655350e+000
6.305159e+002,1.183560e+001
6.314802e+002,1.233780e+001
6.324444e+002,1.171140e+001
6.334086e+002,1.153914e+001
6.343729e+002,1.167612e+001
6.353371e+002,1.128966e+001
6.363013e+002,9.928345e+000
6.372656e+002,7.980759e+000
6.382298e+002,6.922104e+000
6.391940e+002,7.592514e+000
6.401583e+002,8.103455e+000
6.411225e+002,8.690186e+000
6.420867e+002,9.166672e+000
6.430510e+002,9.222214e+000
6.440152e+002,8.632675e+000
6.449794e+002,7.733521e+000
6.459437e+002,6.627167e+000
6.469079e+002,5.428741e+000
6.478721e+002,4.099792e+000
6.488364e+002,2.723511e+000
6.498006e+002,1.627014e+000
6.507648e+002,1.434509e+000
6.517291e+002,1.928253e+000
6.526933e+002,2.796799e+000
6.536575e+002,4.008881e+000
6.546218e+002,5.315369e+000
6.555860e+002,6.255859e+000
6.565502e+002,6.696243e+000
6.575145e+002,6.930328e+000
6.584787e+002,6.922607e+000
6.594429e+002,6.784668e+000
6.604072e+002,6.690231e+000
6.613714e+002,6.707169e+000
6.623356e+002,6.312134e+000
6.632999e+002,4.592972e+000
6.642641e+002,2.860214e+000
6.652283e+002,1.771805e+000
6.661926e+002,1.468048e+000
6.671568e+002,1.782013e+000
6.681210e+002,2.696564e+000
6.690853e+002,3.834747e+000
6.700495e+002,4.222595e+000
6.710137e+002,3.898880e+000
6.719780e+002,3.553421e+000
6.729422e+002,3.939102e+000
6.739064e+002,5.212814e+000
6.748707e+002,6.089813e+000
6.758349e+002,6.835678e+000
6.767991e+002,7.006561e+000
6.777634e+002,6.150391e+000
6.787276e+002,4.501389e+000
6.796918e+002,3.292847e+000
6.806561e+002,2.969254e+000
6.816203e+002,3.092957e+000
6.825845e+002,3.831055e+000
6.835488e+002,4.827988e+000
6.845130e+002,5.557556e+000
6.854772e+002,5.621094e+000
6.864415e+002,5.400299e+000
6.874057e+002,5.934662e+000
6.883699e+002,6.767380e+000
6.893342e+002,6.671066e+000
6.902984e+002,4.876022e+000
6.912626e+002,1.813339e+000
6.922269e+002,2.834473e-001
6.931911e+002,1.509811e+000
6.941553e+002,2.906006e+000
6.951196e+002,4.720535e+000
6.960838e+002,6.326035e+000
6.970480e+002,6.594757e+000
6.980123e+002,4.675949e+000
6.989765e+002,3.102005e+000
6.999407e+002,2.896011e+000
7.009050e+002,3.343063e+000
7.018692e+002,4.008545e+000
7.028334e+002,4.672836e+000
7.037977e+002,5.312378e+000
7.047619e+002,6.092834e+000
7.057261e+002,6.831238e+000
7.066904e+002,6.946365e+000
7.076546e+002,6.335266e+000
7.086188e+002,5.274460e+000
7.095831e+002,4.117523e+000
7.105473e+002,2.460083e+000
7.115115e+002,2.066605e+000
7.124758e+002,4.040039e+000
7.134400e+002,5.868210e+000
7.144042e+002,5.681015e+000
7.153685e+002,3.521988e+000
7.163327e+002,2.145569e+000
7.172969e+002,3.988174e+000
7.182612e+002,5.825729e+000
7.192254e+002,6.414001e+000
7.201896e+002,5.883713e+000
7.211539e+002,4.670761e+000
7.221181e+002,2.991318e+000
7.230823e+002,1.472000e+000
7.240466e+002,2.158188e+000
7.250108e+002,4.537628e+000
7.259750e+002,6.216110e+000
7.269393e+002,5.572205e+000
7.279035e+002,2.910995e+000
7.288677e+002,1.524841e+000
7.298320e+002,3.010971e+000
7.307962e+002,4.190140e+000
7.317604e+002,4.658249e+000
7.327247e+002,4.814880e+000
7.336889e+002,5.246902e+000
7.346531e+002,6.161545e+000
7.356174e+002,6.558243e+000
7.365816e+002,5.858841e+000
7.375458e+002,4.847931e+000
7.385101e+002,3.833267e+000
7.394743e+002,3.060471e+000
7.404385e+002,2.910782e+000
7.414028e+002,4.293869e+000
7.423670e+002,6.534302e+000
7.433312e+002,7.227890e+000
7.442955e+002,6.244629e+000
7.452597e+002,4.755280e+000
7.462239e+002,4.015244e+000
7.471882e+002,4.215942e+000
7.481524e+002,4.198990e+000
7.491166e+002,3.573761e+000
7.500809e+002,2.977951e+000
7.510451e+002,2.773056e+000
7.520093e+002,2.830063e+000
7.529736e+002,2.572311e+000
7.539378e+002,1.347092e+000
7.549020e+002,6.249695e-001
7.558663e+002,1.560471e+000
7.568306e+002,3.381454e+000
7.577948e+002,5.152374e+000
7.587590e+002,6.241730e+000
7.597233e+002,6.610931e+000
7.606875e+002,5.891983e+000
7.616517e+002,4.321945e+000
7.626160e+002,3.665131e+000
7.635802e+002,4.766006e+000
7.645444e+002,6.654663e+000
7.655087e+002,7.193359e+000
7.664729e+002,5.478088e+000
7.674371e+002,4.275833e+000
7.684014e+002,4.024597e+000
7.693656e+002,3.984940e+000
7.703298e+002,3.515686e+000
7.712941e+002,2.643692e+000
7.722583e+002,2.288452e+000
7.732225e+002,3.452927e+000
7.741868e+002,5.146561e+000
7.751510e+002,6.903183e+000
7.761152e+002,8.504135e+000
7.770795e+002,9.658569e+000
7.780437e+002,1.009294e+001
7.790079e+002,9.843964e+000
7.799722e+002,9.367615e+000
7.809364e+002,8.732391e+000
7.819006e+002,7.788666e+000
7.828649e+002,6.167770e+000
7.838291e+002,4.264450e+000
7.847933e+002,3.299896e+000
7.857576e+002,3.697693e+000
7.867218e+002,4.238083e+000
7.876860e+002,4.721024e+000
7.886503e+002,5.362579e+000
7.896145e+002,6.550919e+000
7.905787e+002,8.307068e+000
7.915430e+002,9.855530e+000
7.925072e+002,1.007054e+001
7.934714e+002,9.596451e+000
7.944357e+002,9.213898e+000
7.953999e+002,9.022354e+000
7.963641e+002,8.760208e+000
7.973284e+002,8.085587e+000
7.982926e+002,6.971466e+000
7.992568e+002,5.971466e+000
8.002211e+002,4.320160e+000
8.011853e+002,3.538284e+000
8.021495e+002,5.188995e+000
8.031138e+002,8.499786e+000
8.040780e+002,1.018085e+001
8.050422e+002,8.277695e+000
8.060065e+002,6.651291e+000
8.069707e+002,6.519379e+000
8.079349e+002,7.142517e+000
8.088992e+002,8.127426e+000
8.098634e+002,9.225296e+000
8.108276e+002,9.899582e+000
8.117919e+002,8.848297e+000
8.127561e+002,6.770279e+000
8.137203e+002,5.328720e+000
8.146846e+002,4.808929e+000
8.156488e+002,4.918716e+000
8.166130e+002,5.279266e+000
8.175773e+002,5.905273e+000
8.185415e+002,6.572723e+000
8.195057e+002,7.079346e+000
8.204700e+002,7.701523e+000
8.214342e+002,8.855789e+000
8.223984e+002,1.019551e+001
8.233627e+002,1.077402e+001
8.243269e+002,1.002409e+001
8.252911e+002,8.981674e+000
8.262554e+002,8.277756e+000
8.272196e+002,7.656128e+000
8.281838e+002,6.657410e+000
8.291481e+002,5.227676e+000
8.301123e+002,3.946899e+000
8.310765e+002,3.955185e+000
8.320408e+002,5.158173e+000
8.330050e+002,6.066177e+000
8.339692e+002,6.612747e+000
8.349335e+002,6.903778e+000
8.358977e+002,6.979233e+000
8.368619e+002,6.826843e+000
8.378262e+002,6.914886e+000
8.387904e+002,7.532501e+000
8.397546e+002,7.935516e+000
8.407189e+002,8.138367e+000
8.416831e+002,7.965881e+000
8.426473e+002,6.838348e+000
8.436116e+002,4.156693e+000
8.445758e+002,2.024796e+000
8.455400e+002,3.119888e+000
8.465043e+002,5.558640e+000
8.474685e+002,7.557632e+000
8.484327e+002,8.601776e+000
8.493970e+002,9.129776e+000
8.503612e+002,9.788437e+000
8.513254e+002,1.063702e+001
8.522897e+002,1.051794e+001
8.532539e+002,8.626373e+000
8.542181e+002,6.824905e+000
8.551824e+002,6.370728e+000
8.561466e+002,7.201752e+000
8.571108e+002,8.124649e+000
8.580751e+002,8.764786e+000
8.590393e+002,9.239197e+000
8.600035e+002,9.288742e+000
8.609678e+002,9.485825e+000
8.619320e+002,1.073444e+001
8.628962e+002,1.327467e+001
8.638605e+002,1.586374e+001
8.648247e+002,1.632646e+001
8.657889e+002,1.547198e+001
8.667532e+002,1.518544e+001
8.677174e+002,1.570432e+001
8.686816e+002,1.604485e+001
8.696459e+002,1.493909e+001
8.706101e+002,1.209831e+001
8.715743e+002,1.040643e+001
8.725386e+002,9.983124e+000
8.735028e+002,1.040652e+001
8.744670e+002,1.216988e+001
8.754313e+002,1.447197e+001
8.763955e+002,1.572292e+001
8.773597e+002,1.501053e+001
8.783240e+002,1.479617e+001
8.792882e+002,1.813672e+001
8.802524e+002,2.184918e+001
8.812167e+002,2.257179e+001
8.821809e+002,2.010323e+001
8.831451e+002,1.711568e+001
8.841094e+002,1.715091e+001
8.850736e+002,2.013919e+001
8.860378e+002,2.162198e+001
8.870021e+002,2.110898e+001
8.879663e+002,2.082237e+001
8.889305e+002,2.245760e+001
8.898948e+002,2.543817e+001
8.908590e+002,2.679837e+001
8.918232e+002,2.515578e+001
8.927875e+002,2.395061e+001
8.937517e+002,2.389517e+001
8.947159e+002,2.452126e+001
8.956802e+002,2.570963e+001
8.966444e+002,2.718829e+001
8.976086e+002,2.815045e+001
8.985729e+002,2.753680e+001
8.995371e+002,2.628508e+001
9.005013e+002,2.612613e+001
9.014656e+002,2.689221e+001
9.024298e+002,2.721144e+001
9.033940e+002,2.583951e+001
9.043583e+002,2.315669e+001
9.053225e+002,2.276314e+001
9.062867e+002,2.843785e+001
9.072510e+002,3.130479e+001
9.082152e+002,2.928587e+001
9.091794e+002,2.580980e+001
9.101437e+002,2.409468e+001
9.111079e+002,2.464168e+001
9.120721e+002,2.591994e+001
9.130364e+002,2.794109e+001
9.140006e+002,2.950804e+001
9.149648e+002,2.956384e+001
9.159291e+002,2.873892e+001
9.168933e+002,2.839911e+001
9.178575e+002,2.944370e+001
9.188218e+002,3.121268e+001
9.197860e+002,3.145134e+001
9.207502e+002,3.009879e+001
9.217145e+002,2.888359e+001
9.226787e+002,2.837076e+001
9.236429e+002,2.809586e+001
9.246072e+002,2.721402e+001
9.255714e+002,2.541092e+001
9.265356e+002,2.431900e+001
9.274999e+002,2.502008e+001
9.284641e+002,2.550853e+001
9.294283e+002,2.489626e+001
9.303926e+002,2.368294e+001
9.313568e+002,2.290604e+001
9.323210e+002,2.312320e+001
9.332853e+002,2.356700e+001
9.342495e+002,2.256490e+001
9.352137e+002,2.102580e+001
9.361780e+002,2.072647e+001
9.371422e+002,2.207953e+001
9.381064e+002,2.374377e+001
9.390707e+002,2.374657e+001
9.400349e+002,2.162543e+001
9.409991e+002,2.039418e+001
9.419634e+002,2.089030e+001
9.429276e+002,2.103618e+001
9.438918e+002,2.004163e+001
9.448561e+002,1.846970e+001
9.458203e+002,1.725591e+001
9.467845e+002,1.667732e+001
9.477488e+002,1.647478e+001
9.487130e+002,1.681581e+001
9.496772e+002,1.715285e+001
9.506415e+002,1.688632e+001
9.516057e+002,1.611478e+001
9.525699e+002,1.550749e+001
9.535342e+002,1.572551e+001
9.544984e+002,1.655759e+001
9.554626e+002,1.628621e+001
9.564269e+002,1.476544e+001
9.573911e+002,1.365698e+001
9.583553e+002,1.339497e+001
9.593196e+002,1.375096e+001
9.602838e+002,1.449702e+001
9.612480e+002,1.575682e+001
9.622123e+002,1.672028e+001
9.631765e+002,1.753098e+001
9.641407e+002,1.770427e+001
9.651050e+002,1.638222e+001
9.660692e+002,1.424167e+001
9.670334e+002,1.259726e+001
9.679977e+002,1.230093e+001
9.689619e+002,1.307478e+001
9.699261e+002,1.483182e+001
9.708904e+002,1.705209e+001
9.718546e+002,1.794775e+001
9.728188e+002,1.674261e+001
9.737831e+002,1.559850e+001
9.747473e+002,1.816246e+001
9.757115e+002,2.578671e+001
9.766758e+002,2.982388e+001
9.776400e+002,2.766843e+001
9.786042e+002,2.522444e+001
9.795685e+002,2.359341e+001
9.805327e+002,2.243451e+001
9.814969e+002,2.110892e+001
9.824612e+002,1.946027e+001
9.834254e+002,1.809010e+001
9.843896e+002,1.827730e+001
9.853539e+002,1.844998e+001
9.863181e+002,1.647986e+001
9.872823e+002,1.259276e+001
9.882466e+002,8.664505e+000
9.892108e+002,6.370804e+000
9.901750e+002,5.579697e+000
9.911393e+002,4.682312e+000
9.921035e+002,2.667145e+000
9.930677e+002,1.894501e+000
9.940320e+002,3.947388e+000
9.949962e+002,6.282257e+000
9.959604e+002,6.017029e+000
9.969247e+002,3.126221e+000
9.978889e+002,1.376297e+000
9.988531e+002,3.214493e+000
9.998174e+002,5.653687e+000
1.000782e+003,7.321701e+000
1.001746e+003,8.291733e+000
1.002710e+003,8.711090e+000
1.003674e+003,8.675140e+000
1.004639e+003,8.293518e+000
1.005603e+003,7.765121e+000
1.006567e+003,7.038879e+000
1.007531e+003,6.006897e+000
1.008495e+003,4.465881e+000
1.009460e+003,3.052032e+000
1.010424e+003,2.124054e+000
1.011388e+003,1.656143e+000
1.012352e+003,1.566452e+000
1.013317e+003,2.140167e+000
1.014281e+003,2.391518e+000
1.015245e+003,1.754547e+000
1.016209e+003,9.214478e-001
1.017174e+003,3.358459e-001
1.018138e+003,9.419250e-002
1.019102e+003,1.049347e-001
1.020066e+003,3.294601e-001
1.021031e+003,7.426682e-001
1.021995e+003,1.245712e+000
1.022959e+003,1.735580e+000
1.023923e+003,1.858582e+000
1.024887e+003,1.410957e+000
1.025852e+003,6.672974e-001
1.026816e+003,1.054916e-001
1.027780e+003,-1.539154e-001
1.028744e+003,-5.353317e-001
1.029709e+003,-1.132713e+000
1.030673e+003,-1.815193e+000
1.031637e+003,-2.820206e+000
1.032601e+003,-3.818535e+000
1.033566e+003,-4.322624e+000
1.034530e+003,-4.149269e+000
1.035494e+003,-3.583511e+000
1.036458e+003,-2.680046e+000
1.037422e+003,-1.813812e+000
1.038387e+003,-1.841454e+000
1.039351e+003,-2.655106e+000
1.040315e+003,-3.034775e+000
1.041279e+003,-1.934006e+000
1.042244e+003,2.377396e-001
1.043208e+003,1.265541e+000
1.044172e+003,1.260300e-001
1.045136e+003,-6.168060e-001
1.046101e+003,-8.014603e-001
1.047065e+003,-6.472092e-001
1.048029e+003,7.256317e-002
1.048993e+003,1.021416e+000
1.049958e+003,9.257431e-001
1.050922e+003,-1.428360e+000
1.051886e+003,-3.226593e+000
1.052850e+003,-3.022385e-001
1.053814e+003,4.213303e+000
1.054779e+003,5.991249e+000
1.055743e+003,4.259964e+000
1.056707e+003,1.541397e+000
1.057671e+003,9.057083e-001
1.058636e+003,2.355186e+000
1.059600e+003,2.651596e+000
1.060564e+003,7.310333e-001
1.061528e+003,-5.575562e-001
1.062493e+003,-6.614609e-001
1.063457e+003,-2.122803e-001
1.064421e+003,3.950577e-001
1.065385e+003,1.105644e+000
1.066349e+003,1.171478e+000
1.067314e+003,-7.715988e-001
1.068278e+003,-2.244354e+000
1.069242e+003,-6.537170e-001
1.070206e+003,2.298912e+000
1.071171e+003,3.663589e+000
1.072135e+003,2.293282e+000
1.073099e+003,-2.533417e-001
1.074063e+003,-1.330612e+000
1.075028e+003,-7.930984e-001
1.075992e+003,3.291550e-001
1.076956e+003,2.589043e+000
1.077920e+003,4.320023e+000
1.078885e+003,4.786133e+000
1.079849e+003,4.479309e+000
1.080813e+003,4.194000e+000
1.081777e+003,4.024559e+000
1.082741e+003,3.995239e+000
1.083706e+003,4.044205e+000
1.084670e+003,4.166588e+000
1.085634e+003,4.670609e+000
1.086598e+003,5.196609e+000
1.087563e+003,5.060394e+000
1.088527e+003,3.946693e+000
1.089491e+003,2.308205e+000
1.090455e+003,8.513260e-001
1.091420e+003,-4.576263e-001
1.092384e+003,-1.084808e+000
1.093348e+003,-8.958511e-001
1.094312e+003,-4.105606e-001
1.095276e+003,3.205490e-001
1.096241e+003,1.192703e+000
1.097205e+003,1.820068e+000
1.098169e+003,2.256775e+000
1.099133e+003,1.974243e+000
1.100098e+003,-2.042618e-001
1.101062e+003,-2.143906e+000
1.102026e+003,-2.238441e+000
1.102990e+003,-9.591675e-001
1.103955e+003,3.450775e-001
1.104919e+003,8.299484e-001
1.105883e+003,7.050018e-001
1.106847e+003,4.189911e-001
1.107812e+003,-5.125427e-002
1.108776e+003,-7.006607e-001
1.109740e+003,-1.625145e+000
1.110704e+003,-2.531586e+000
1.111668e+003,-3.295891e+000
1.112633e+003,-3.811523e+000
1.113597e+003,-3.667007e+000
1.114561e+003,-2.431290e+000
1.115525e+003,-1.597557e+000
1.116490e+003,-1.576675e+000
1.117454e+003,-2.083412e+000
1.118418e+003,-3.111771e+000
1.119382e+003,-4.426353e+000
1.120347e+003,-5.900917e+000
1.121311e+003,-7.504272e+000
1.122275e+003,-8.669418e+000
1.123239e+003,-7.707596e+000
1.124203e+003,-4.764832e+000
1.125168e+003,-2.893211e+000
1.126132e+003,-2.422005e+000
1.127096e+003,-2.687904e+000
1.128060e+003,-3.467751e+000
1.129025e+003,-4.666985e+000
1.129989e+003,-5.824310e+000
1.130953e+003,-7.342773e+000
1.131917e+003,-7.811333e+000
1.132882e+003,-6.153587e+000
1.133846e+003,-4.148460e+000
1.134810e+003,-2.519104e+000
1.135774e+003,-1.497772e+000
1.136739e+003,-1.368378e+000
1.137703e+003,-2.267914e+000
1.138667e+003,-3.496574e+000
1.139631e+003,-3.857185e+000
1.140595e+003,-3.367363e+000
1.141560e+003,-2.496025e+000
1.142524e+003,-1.104614e+000
1.143488e+003,2.978134e-001
1.144452e+003,1.547874e+000
1.145417e+003,2.514977e+000
1.146381e+003,2.516869e+000
1.147345e+003,7.621078e-001
1.148309e+003,8.956146e-002
1.149274e+003,2.055313e+000
1.150238e+003,4.351669e+000
1.151202e+003,5.825394e+000
1.152166e+003,6.779129e+000
1.153130e+003,8.158661e+000
1.154095e+003,1.028639e+001
1.155059e+003,1.216294e+001
1.156023e+003,1.245810e+001
1.156987e+003,1.121587e+001
1.157952e+003,9.150314e+000
1.158916e+003,6.087326e+000
1.159880e+003,3.718521e+000
1.160844e+003,3.162445e+000
1.161809e+003,3.660011e+000
1.162773e+003,3.778534e+000
1.163737e+003,3.584076e+000
1.164701e+003,2.715973e+000
1.165666e+003,-1.015396e-001
1.166630e+003,-2.297104e+000
1.167594e+003,-2.360970e+000
1.168558e+003,-1.472610e+000
1.169522e+003,-1.283943e+000
1.170487e+003,-2.276978e+000
1.171451e+003,-3.658264e+000
1.172415e+003,-4.637817e+000
1.173379e+003,-5.167953e+000
1.174344e+003,-4.541359e+000
1.175308e+003,-2.543396e+000
1.176272e+003,-1.948280e+000
1.177236e+003,-5.081924e+000
1.178201e+003,-8.919029e+000
1.179165e+003,-9.010811e+000
1.180129e+003,-5.340118e+000
1.181093e+003,-3.444862e+000
1.182057e+003,-5.844070e+000
1.183022e+003,-8.036758e+000
1.183986e+003,-8.243683e+000
1.184950e+003,-7.544327e+000
1.185914e+003,-6.811989e+000
1.186879e+003,-6.271469e+000
1.187843e+003,-5.735718e+000
1.188807e+003,-5.056839e+000
1.189771e+003,-4.476509e+000
1.190736e+003,-4.745056e+000
1.191700e+003,-5.968254e+000
1.192664e+003,-7.064674e+000
1.193628e+003,-8.008705e+000
1.194593e+003,-8.654808e+000
1.195557e+003,-8.514290e+000
1.196521e+003,-7.987984e+000
1.197485e+003,-8.804947e+000
1.198449e+003,-1.199641e+001
1.199414e+003,-1.401237e+001
1.200378e+003,-1.228520e+001
1.201342e+003,-9.740204e+000
1.202306e+003,-7.747490e+000
1.203271e+003,-6.510353e+000
1.204235e+003,-5.888100e+000
1.205199e+003,-5.792160e+000
1.206163e+003,-6.260231e+000
1.207128e+003,-7.436157e+000
1.208092e+003,-9.364372e+000
1.209056e+003,-1.085970e+001
1.210020e+003,-1.196117e+001
1.210984e+003,-1.266140e+001
1.211949e+003,-1.280201e+001
1.212913e+003,-1.266276e+001
1.213877e+003,-1.248180e+001
1.214841e+003,-1.227895e+001
1.215806e+003,-1.227814e+001
1.216770e+003,-1.238682e+001
1.217734e+003,-1.308670e+001
1.218698e+003,-1.564982e+001
1.219663e+003,-1.839678e+001
1.220627e+003,-1.890343e+001
1.221591e+003,-1.705752e+001
1.222555e+003,-1.482937e+001
1.223520e+003,-1.402448e+001
1.224484e+003,-1.435929e+001
1.225448e+003,-1.456791e+001
1.226412e+003,-1.455161e+001
1.227376e+003,-1.466207e+001
1.228341e+003,-1.525101e+001
1.229305e+003,-1.560992e+001
1.230269e+003,-1.504711e+001
1.231233e+003,-1.407188e+001
1.232198e+003,-1.382359e+001
1.233162e+003,-1.461120e+001
1.234126e+003,-1.530974e+001
1.235090e+003,-1.515813e+001
1.236055e+003,-1.453123e+001
1.237019e+003,-1.362503e+001
1.237983e+003,-1.263603e+001
1.238947e+003,-1.189361e+001
1.239911e+003,-1.151354e+001
1.240876e+003,-1.164780e+001
1.241840e+003,-1.266448e+001
1.242804e+003,-1.463717e+001
1.243768e+003,-1.604601e+001
1.244733e+003,-1.666412e+001
1.245697e+003,-1.693401e+001
1.246661e+003,-1.679215e+001
1.247625e+003,-1.649731e+001
1.248590e+003,-1.630401e+001
1.249554e+003,-1.606046e+001
1.250518e+003,-1.518472e+001
1.251482e+003,-1.335931e+001
1.252447e+003,-1.173152e+001
1.253411e+003,-1.196263e+001
1.254375e+003,-1.317187e+001
1.255339e+003,-1.335410e+001
1.256303e+003,-1.245785e+001
1.257268e+003,-1.196195e+001
1.258232e+003,-1.298885e+001
1.259196e+003,-1.464532e+001
1.260160e+003,-1.498504e+001
1.261125e+003,-1.376436e+001
1.262089e+003,-1.241290e+001
1.263053e+003,-1.064542e+001
1.264017e+003,-9.427002e+000
1.264982e+003,-9.058662e+000
1.265946e+003,-9.226776e+000
1.266910e+003,-9.730949e+000
1.267874e+003,-1.046657e+001
1.268839e+003,-1.144580e+001
1.269803e+003,-1.268091e+001
1.270767e+003,-1.379626e+001
1.271731e+003,-1.387788e+001
1.272695e+003,-1.296502e+001
1.273660e+003,-1.293919e+001
1.274624e+003,-1.429340e+001
1.275588e+003,-1.555641e+001
1.276552e+003,-1.608532e+001
1.277517e+003,-1.586015e+001
1.278481e+003,-1.463821e+001
1.279445e+003,-1.232247e+001
1.280409e+003,-1.044596e+001
1.281374e+003,-9.333626e+000
1.282338e+003,-9.064156e+000
1.283302e+003,-1.014620e+001
1.284266e+003,-1.172180e+001
1.285230e+003,-1.291434e+001
1.286195e+003,-1.354733e+001
1.287159e+003,-1.392097e+001
1.288123e+003,-1.425742e+001
1.289087e+003,-1.440101e+001
1.290052e+003,-1.393992e+001
1.291016e+003,-1.260062e+001
1.291980e+003,-1.179560e+001
1.292944e+003,-1.184299e+001
1.293909e+003,-1.204800e+001
1.294873e+003,-1.195129e+001
1.295837e+003,-1.188374e+001
1.296801e+003,-1.244728e+001
1.297766e+003,-1.366573e+001
1.298730e+003,-1.490683e+001
1.299694e+003,-1.610178e+001
1.300658e+003,-1.676478e+001
1.301622e+003,-1.601176e+001
1.302587e+003,-1.452203e+001
1.303551e+003,-1.334372e+001
1.304515e+003,-1.264482e+001
1.305479e+003,-1.204356e+001
1.306444e+003,-1.123014e+001
1.307408e+003,-1.037081e+001
1.308372e+003,-9.923477e+000
1.309336e+003,-9.825455e+000
1.310301e+003,-1.038017e+001
1.311265e+003,-1.284645e+001
1.312229e+003,-1.434845e+001
1.313193e+003,-1.321239e+001
1.314157e+003,-1.126311e+001
1.315122e+003,-1.059931e+001
1.316086e+003,-1.128732e+001
1.317050e+003,-1.167953e+001
1.318014e+003,-1.062091e+001
1.318979e+003,-9.188606e+000
1.319943e+003,-9.655502e+000
1.320907e+003,-1.166217e+001
1.321871e+003,-1.188313e+001
1.322836e+003,-9.505737e+000
1.323800e+003,-8.055260e+000
1.324764e+003,-1.043971e+001
1.325728e+003,-1.435869e+001
1.326693e+003,-1.561407e+001
1.327657e+003,-1.406747e+001
1.328621e+003,-1.321510e+001
1.329585e+003,-1.429938e+001
1.330549e+003,-1.536579e+001
1.331514e+003,-1.584760e+001
1.332478e+003,-1.573409e+001
1.333442e+003,-1.462186e+001
1.334406e+003,-1.281490e+001
1.335371e+003,-1.117239e+001
1.336335e+003,-1.023003e+001
1.337299e+003,-9.897285e+000
1.338263e+003,-1.006114e+001
1.339228e+003,-1.080426e+001
1.340192e+003,-1.124654e+001
1.341156e+003,-1.134229e+001
1.342120e+003,-1.123903e+001
1.343084e+003,-1.112669e+001
1.344049e+003,-1.076207e+001
1.345013e+003,-9.418610e+000
1.345977e+003,-7.599701e+000
1.346941e+003,-7.016464e+000
1.347906e+003,-8.353859e+000
1.348870e+003,-9.888702e+000
1.349834e+003,-9.951035e+000
1.350798e+003,-9.276192e+000
1.351763e+003,-9.357895e+000
1.352727e+003,-1.003893e+001
1.353691e+003,-1.039043e+001
1.354655e+003,-9.996681e+000
1.355620e+003,-9.427849e+000
1.356584e+003,-9.408936e+000
1.357548e+003,-9.842422e+000
1.358512e+003,-9.937553e+000
1.359476e+003,-9.464325e+000
1.360441e+003,-9.375122e+000
1.361405e+003,-1.034542e+001
1.362369e+003,-1.121902e+001
1.363333e+003,-1.135406e+001
1.364298e+003,-1.106801e+001
1.365262e+003,-1.090036e+001
1.366226e+003,-1.094501e+001
1.367190e+003,-1.084924e+001
1.368155e+003,-1.030099e+001
1.369119e+003,-9.348457e+000
1.370083e+003,-8.071236e+000
1.371047e+003,-6.149033e+000
1.372011e+003,-5.302872e+000
1.372976e+003,-6.218903e+000
1.373940e+003,-7.357422e+000
1.374904e+003,-8.642998e+000
1.375868e+003,-9.487251e+000
1.376833e+003,-8.646912e+000
1.377797e+003,-6.411598e+000
1.378761e+003,-5.177902e+000
1.379725e+003,-6.074417e+000
1.380690e+003,-7.821449e+000
1.381654e+003,-9.738533e+000
1.382618e+003,-1.134413e+001
1.383582e+003,-1.181738e+001
1.384547e+003,-1.122090e+001
1.385511e+003,-1.030546e+001
1.386475e+003,-9.395264e+000
1.387439e+003,-8.598495e+000
1.388403e+003,-8.149254e+000
1.389368e+003,-8.051483e+000
1.390332e+003,-7.702972e+000
1.391296e+003,-6.767509e+000
1.392260e+003,-6.167458e+000
1.393225e+003,-5.814171e+000
1.394189e+003,-6.122841e+000
1.395153e+003,-8.173767e+000
1.396117e+003,-1.067896e+001
1.397082e+003,-1.142572e+001
1.398046e+003,-1.009306e+001
1.399010e+003,-8.694374e+000
1.399974e+003,-9.130585e+000
1.400938e+003,-1.066776e+001
1.401903e+003,-1.078868e+001
1.402867e+003,-8.921501e+000
1.403831e+003,-7.406296e+000
1.404795e+003,-6.377159e+000
1.405760e+003,-5.615524e+000
1.406724e+003,-5.179695e+000
1.407688e+003,-5.055984e+000
1.408652e+003,-5.299950e+000
1.409617e+003,-5.727989e+000
1.410581e+003,-5.603622e+000
1.411545e+003,-4.455315e+000
1.412509e+003,-3.699974e+000
1.413474e+003,-5.386177e+000
1.414438e+003,-7.998131e+000
1.415402e+003,-8.845306e+000
1.416366e+003,-8.045959e+000
1.417330e+003,-6.965317e+000
1.418295e+003,-6.078133e+000
1.419259e+003,-5.276901e+000
1.420223e+003,-4.377609e+000
1.421187e+003,-3.486771e+000
1.422152e+003,-3.098663e+000
1.423116e+003,-3.265785e+000
1.424080e+003,-3.594048e+000
1.425044e+003,-4.217377e+000
1.426009e+003,-4.838295e+000
1.426973e+003,-5.590927e+000
1.427937e+003,-6.119522e+000
1.428901e+003,-5.862778e+000
1.429865e+003,-4.886391e+000
1.430830e+003,-3.711525e+000
1.431794e+003,-2.722519e+000
1.432758e+003,-2.090134e+000
1.433722e+003,-2.112801e+000
1.434687e+003,-2.764984e+000
1.435651e+003,-3.364319e+000
1.436615e+003,-4.626945e+000
1.437579e+003,-5.123856e+000
1.438544e+003,-3.673981e+000
1.439508e+003,-2.446075e+000
1.440472e+003,-3.504570e+000
1.441436e+003,-5.563812e+000
1.442401e+003,-5.930420e+000
1.443365e+003,-4.091461e+000
1.444329e+003,-1.911118e+000
1.445293e+003,-5.640564e-001
1.446257e+003,-1.522751e-001
1.447222e+003,-1.476959e+000
1.448186e+003,-4.105438e+000
1.449150e+003,-5.446243e+000
1.450114e+003,-5.031036e+000
1.451079e+003,-4.429794e+000
1.452043e+003,-4.329041e+000
1.453007e+003,-4.489433e+000
1.453971e+003,-4.870140e+000
1.454936e+003,-5.364258e+000
1.455900e+003,-4.865768e+000
1.456864e+003,-2.680145e+000
1.457828e+003,-1.037872e+000
1.458792e+003,-2.028427e+000
1.459757e+003,-3.443787e+000
1.460721e+003,-3.421471e+000
1.461685e+003,-2.447365e+000
1.462649e+003,-1.457314e+000
1.463614e+003,-7.634811e-001
1.464578e+003,-6.407318e-001
1.465542e+003,-1.418846e+000
1.466506e+003,-2.851768e+000
1.467471e+003,-4.292427e+000
1.468435e+003,-5.858902e+000
1.469399e+003,-6.551476e+000
1.470363e+003,-5.733734e+000
1.471328e+003,-4.959389e+000
1.472292e+003,-4.742386e+000
1.473256e+003,-4.622681e+000
1.474220e+003,-3.658829e+000
1.475184e+003,-2.597870e+000
1.476149e+003,-3.550713e+000
1.477113e+003,-6.744690e+000
1.478077e+003,-9.136055e+000
1.479041e+003,-7.649292e+000
1.480006e+003,-3.710388e+000
1.480970e+003,-2.226257e+000
1.481934e+003,-4.052994e+000
1.482898e+003,-5.012520e+000
1.483863e+003,-4.478310e+000
1.484827e+003,-4.079216e+000
1.485791e+003,-4.399925e+000
1.486755e+003,-4.806519e+000
1.487719e+003,-4.566872e+000
1.488684e+003,-3.983353e+000
1.489648e+003,-4.201050e+000
1.490612e+003,-5.501564e+000
1.491576e+003,-6.023933e+000
1.492541e+003,-3.875069e+000
1.493505e+003,-6.830215e-001
1.494469e+003,-4.121094e-001
1.495433e+003,-2.550804e+000
1.496398e+003,-3.638657e+000
1.497362e+003,-2.992958e+000
1.498326e+003,-1.931709e+000
1.499290e+003,-8.487320e-001
1.500255e+003,4.763031e-002
1.501219e+003,1.820526e-001
1.502183e+003,-2.437134e-001
1.503147e+003,9.204865e-002
1.504111e+003,1.597496e+000
1.505076e+003,3.261147e+000
1.506040e+003,4.604698e+000
1.507004e+003,5.748627e+000
1.507968e+003,7.063156e+000
1.508933e+003,8.234375e+000
1.509897e+003,8.186958e+000
1.510861e+003,6.930519e+000
1.511825e+003,6.844200e+000
1.512790e+003,9.933228e+000
1.513754e+003,1.437485e+001
1.514718e+003,1.674271e+001
1.515682e+003,1.701175e+001
1.516646e+003,1.693609e+001
1.517611e+003,1.623391e+001
1.518575e+003,1.633706e+001
1.519539e+003,1.861203e+001
1.520503e+003,2.092475e+001
1.521468e+003,2.245394e+001
1.522432e+003,2.311869e+001
1.523396e+003,2.266631e+001
1.524360e+003,2.131541e+001
1.525325e+003,1.984380e+001
1.526289e+003,1.878638e+001
1.527253e+003,1.810645e+001
1.528217e+003,1.778741e+001
1.529182e+003,1.787148e+001
1.530146e+003,1.742482e+001
1.531110e+003,1.618509e+001
1.532074e+003,1.482589e+001
1.533039e+003,1.299451e+001
1.534003e+003,1.133703e+001
1.534967e+003,1.064511e+001
1.535931e+003,1.010509e+001
1.536896e+003,8.461105e+000
1.537860e+003,5.997490e+000
1.538824e+003,4.225128e+000
1.539788e+003,3.842117e+000
1.540752e+003,3.679237e+000
1.541717e+003,2.156746e+000
1.542681e+003,-2.938309e-001
1.543645e+003,-1.046654e+000
1.544609e+003,9.727707e-001
1.545573e+003,2.113495e+000
1.546538e+003,1.378342e+000
1.547502e+003,9.544067e-001
1.548466e+003,1.847473e+000
1.549430e+003,3.381310e+000
1.550395e+003,5.282898e+000
1.551359e+003,7.057068e+000
1.552323e+003,7.602455e+000
1.553287e+003,6.604340e+000
1.554252e+003,5.110886e+000
1.555216e+003,3.972412e+000
1.556180e+003,3.113945e+000
1.557144e+003,2.396645e+000
1.558109e+003,1.850342e+000
1.559073e+003,1.336830e+000
1.560037e+003,7.122726e-001
1.561001e+003,2.521820e-001
1.561966e+003,1.255264e-001
1.562930e+003,2.673492e-001
1.563894e+003,5.972366e-001
1.564858e+003,1.083862e+000
1.565823e+003,1.780319e+000
1.566787e+003,2.663528e+000
1.567751e+003,3.418915e+000
1.568715e+003,3.913994e+000
1.569679e+003,4.136078e+000
1.570644e+003,3.890648e+000
1.571608e+003,3.341530e+000
1.572572e+003,3.037071e+000
1.573536e+003,3.027672e+000
1.574500e+003,3.285095e+000
1.575465e+003,3.926849e+000
1.576429e+003,4.590622e+000
1.577393e+003,4.899025e+000
1.578357e+003,5.022003e+000
1.579322e+003,5.478287e+000
1.580286e+003,6.250771e+000
1.581250e+003,6.412758e+000
1.582214e+003,5.493568e+000
1.583179e+003,4.605675e+000
1.584143e+003,4.462898e+000
1.585107e+003,4.851181e+000
1.586071e+003,5.673584e+000
1.587036e+003,6.829788e+000
1.588000e+003,7.982185e+000
1.588964e+003,9.074814e+000
1.589928e+003,9.310577e+000
1.590893e+003,7.479156e+000
1.591857e+003,5.174736e+000
1.592821e+003,4.967270e+000
1.593785e+003,6.532425e+000
1.594750e+003,8.126762e+000
1.595714e+003,9.691765e+000
1.596678e+003,9.968819e+000
1.597642e+003,7.051323e+000
1.598606e+003,4.809311e+000
1.599571e+003,7.619164e+000
1.600535e+003,1.214761e+001
1.601499e+003,1.393340e+001
1.602463e+003,1.305684e+001
1.603427e+003,1.208099e+001
1.604392e+003,1.200913e+001
1.605356e+003,1.242489e+001
1.606320e+003,1.293591e+001
1.607284e+003,1.359937e+001
1.608249e+003,1.495291e+001
1.609213e+003,1.706114e+001
1.610177e+003,1.730424e+001
1.611141e+003,1.416879e+001
1.612106e+003,1.186616e+001
1.613070e+003,1.387482e+001
1.614034e+003,1.611731e+001
1.614998e+003,1.516496e+001
1.615963e+003,1.260258e+001
1.616927e+003,1.119172e+001
1.617891e+003,1.135102e+001
1.618855e+003,1.202756e+001
1.619820e+003,1.262926e+001
1.620784e+003,1.313705e+001
1.621748e+003,1.358867e+001
1.622712e+003,1.407182e+001
1.623677e+003,1.478346e+001
1.624641e+003,1.589392e+001
1.625605e+003,1.616705e+001
1.626569e+003,1.421705e+001
1.627533e+003,1.300287e+001
1.628498e+003,1.510043e+001
1.629462e+003,1.762632e+001
1.630426e+003,1.790901e+001
1.631390e+003,1.668181e+001
1.632354e+003,1.588474e+001
1.633319e+003,1.599960e+001
1.634283e+003,1.625907e+001
1.635247e+003,1.604340e+001
1.636211e+003,1.577250e+001
1.637176e+003,1.640510e+001
1.638140e+003,1.787447e+001
1.639104e+003,1.883334e+001
1.640068e+003,1.927031e+001
1.641033e+003,1.895947e+001
1.641997e+003,1.727426e+001
1.642961e+003,1.568932e+001
1.643925e+003,1.488257e+001
1.644890e+003,1.453432e+001
1.645854e+003,1.439604e+001
1.646818e+003,1.440615e+001
1.647782e+003,1.446188e+001
1.648747e+003,1.455603e+001
1.649711e+003,1.510298e+001
1.650675e+003,1.670187e+001
1.651639e+003,1.852081e+001
1.652604e+003,1.846757e+001
1.653568e+003,1.660652e+001
1.654532e+003,1.564052e+001
1.655496e+003,1.586581e+001
1.656460e+003,1.646259e+001
1.657425e+003,1.798862e+001
1.658389e+003,1.880065e+001
1.659353e+003,1.730457e+001
1.660317e+003,1.523499e+001
1.661281e+003,1.444324e+001
1.662246e+003,1.474496e+001
1.663210e+003,1.521439e+001
1.664174e+003,1.552857e+001
1.665138e+003,1.543150e+001
1.666103e+003,1.460042e+001
1.667067e+003,1.332241e+001
1.668031e+003,1.189738e+001
1.668995e+003,1.043447e+001
1.669960e+003,1.060558e+001
1.670924e+003,1.315280e+001
1.671888e+003,1.469634e+001
1.672852e+003,1.341635e+001
1.673817e+003,1.196006e+001
1.674781e+003,1.229778e+001
1.675745e+003,1.312638e+001
1.676709e+003,1.315401e+001
1.677674e+003,1.237136e+001
1.678638e+003,1.088262e+001
1.679602e+003,8.750275e+000
1.680566e+003,7.337769e+000
1.681531e+003,8.054626e+000
1.682495e+003,9.705643e+000
1.683459e+003,1.030180e+001
1.684423e+003,9.913933e+000
1.685387e+003,9.061882e+000
1.686352e+003,7.723648e+000
1.687316e+003,6.565819e+000
1.688280e+003,5.642906e+000
1.689244e+003,5.232330e+000
1.690208e+003,5.848030e+000
1.691173e+003,6.865959e+000
1.692137e+003,7.793564e+000
1.693101e+003,8.587181e+000
1.694065e+003,9.209007e+000
1.695030e+003,9.620621e+000
1.695994e+003,9.278183e+000
1.696958e+003,7.298149e+000
1.697922e+003,5.123451e+000
1.698887e+003,4.887550e+000
1.699851e+003,5.884087e+000
1.700815e+003,5.604149e+000
1.701779e+003,3.866402e+000
1.702744e+003,3.331970e+000
1.703708e+003,5.190277e+000
1.704672e+003,7.217194e+000
1.705636e+003,7.922272e+000
1.706601e+003,7.630173e+000
1.707565e+003,6.419525e+000
1.708529e+003,4.768890e+000
1.709493e+003,4.295265e+000
1.710458e+003,5.324913e+000
1.711422e+003,6.093689e+000
1.712386e+003,5.870804e+000
1.713350e+003,5.226288e+000
1.714314e+003,4.126694e+000
1.715279e+003,3.086655e+000
1.716243e+003,3.192345e+000
1.717207e+003,4.280716e+000
1.718171e+003,5.256699e+000
1.719135e+003,5.826248e+000
1.720100e+003,6.080467e+000
1.721064e+003,5.999397e+000
1.722028e+003,5.770798e+000
1.722992e+003,5.740776e+000
1.723957e+003,5.883537e+000
1.724921e+003,5.749672e+000
1.725885e+003,5.213791e+000
1.726849e+003,4.697777e+000
1.727814e+003,4.326721e+000
1.728778e+003,4.081795e+000
1.729742e+003,4.128433e+000
1.730706e+003,4.105850e+000
1.731671e+003,3.332779e+000
1.732635e+003,2.244240e+000
1.733599e+003,1.981506e+000
1.734563e+003,2.660706e+000
1.735528e+003,3.336784e+000
1.736492e+003,3.490189e+000
1.737456e+003,3.489983e+000
1.738420e+003,3.801476e+000
1.739385e+003,4.199654e+000
1.740349e+003,3.910591e+000
1.741313e+003,2.604958e+000
1.742277e+003,2.485764e+000
1.743241e+003,5.456825e+000
1.744206e+003,6.654572e+000
1.745170e+003,3.510170e+000
1.746134e+003,6.675568e-001
1.747098e+003,1.240974e+000
1.748063e+003,3.073593e+000
1.749027e+003,3.619530e+000
1.749991e+003,2.957695e+000
1.750955e+003,2.340614e+000
1.751919e+003,2.234215e+000
1.752884e+003,2.335335e+000
1.753848e+003,2.397278e+000
1.754812e+003,2.398666e+000
1.755776e+003,2.307320e+000
1.756741e+003,2.170624e+000
1.757705e+003,2.250679e+000
1.758669e+003,2.597549e+000
1.759633e+003,2.913963e+000
1.760598e+003,3.420860e+000
1.761562e+003,3.444023e+000
1.762526e+003,2.309677e+000
1.763490e+003,1.210495e+000
1.764455e+003,9.555359e-001
1.765419e+003,1.322983e+000
1.766383e+003,2.000977e+000
1.767347e+003,2.797729e+000
1.768312e+003,3.543015e+000
1.769276e+003,4.159325e+000
1.770240e+003,4.028496e+000
1.771204e+003,2.035034e+000
1.772168e+003,-5.634155e-001
1.773133e+003,-5.761337e-001
1.774097e+003,1.663673e+000
1.775061e+003,2.748352e+000
1.776025e+003,2.194344e+000
1.776990e+003,1.245033e+000
1.777954e+003,5.039978e-002
1.778918e+003,-7.262344e-001
1.779882e+003,-5.395050e-001
1.780846e+003,2.110214e-001
1.781811e+003,1.353767e+000
1.782775e+003,2.616226e+000
1.783739e+003,2.926529e+000
1.784703e+003,2.060295e+000
1.785668e+003,1.316261e+000
1.786632e+003,1.091866e+000
1.787596e+003,1.221764e+000
1.788560e+003,2.056358e+000
1.789525e+003,2.956573e+000
1.790489e+003,2.939514e+000
1.791453e+003,2.107040e+000
1.792417e+003,6.815872e-001
1.793382e+003,-1.089096e+000
1.794346e+003,-1.644302e+000
1.795310e+003,-7.492065e-002
1.796274e+003,1.908554e+000
1.797239e+003,2.397911e+000
1.798203e+003,1.817665e+000
1.799167e+003,1.295898e+000
1.800131e+003,7.081604e-001
1.801095e+003,3.790131e-001
1.802060e+003,3.944244e-001
1.803024e+003,6.745834e-001
1.803988e+003,1.368889e+000
1.804952e+003,2.070831e+000
1.805917e+003,2.664055e+000
1.806881e+003,3.105576e+000
1.807845e+003,3.420410e+000
1.808809e+003,3.575264e+000
1.809773e+003,3.401459e+000
1.810738e+003,2.949203e+000
1.811702e+003,2.525429e+000
1.812666e+003,2.328773e+000
1.813630e+003,2.575104e+000
1.814595e+003,3.725830e+000
1.815559e+003,5.328629e+000
1.816523e+003,5.399376e+000
1.817487e+003,3.779015e+000
1.818452e+003,2.534912e+000
1.819416e+003,1.792404e+000
1.820380e+003,1.466629e+000
1.821344e+003,1.513382e+000
1.822309e+003,1.916603e+000
1.823273e+003,3.132240e+000
1.824237e+003,4.383766e+000
1.825201e+003,4.979530e+000
1.826166e+003,4.883949e+000
1.827130e+003,3.792557e+000
1.828094e+003,1.710953e+000
1.829058e+003,6.208267e-001
1.830022e+003,1.910500e+000
1.830987e+003,3.577370e+000
1.831951e+003,3.824142e+000
1.832915e+003,3.544724e+000
1.833879e+003,4.494896e+000
1.834844e+003,5.986191e+000
1.835808e+003,5.251091e+000
1.836772e+003,2.225510e+000
1.837736e+003,5.261612e-001
1.838700e+003,1.749229e+000
1.839665e+003,3.519402e+000
1.840629e+003,3.679886e+000
1.841593e+003,3.036934e+000
1.842557e+003,3.320404e+000
1.843522e+003,4.508553e+000
1.844486e+003,5.069664e+000
1.845450e+003,4.825546e+000
1.846414e+003,4.375374e+000
1.847379e+003,3.153343e+000
1.848343e+003,2.365715e+000
1.849307e+003,2.500275e+000
1.850271e+003,3.092407e+000
1.851236e+003,4.447914e+000
1.852200e+003,5.674606e+000
1.853164e+003,5.085449e+000
1.854128e+003,3.202385e+000
1.855093e+003,2.391579e+000
1.856057e+003,3.485397e+000
1.857021e+003,4.898941e+000
1.857985e+003,5.324081e+000
1.858949e+003,5.110336e+000
1.859914e+003,4.702751e+000
1.860878e+003,4.198769e+000
1.861842e+003,4.146935e+000
1.862806e+003,4.547661e+000
1.863771e+003,4.789642e+000
1.864735e+003,4.697449e+000
1.865699e+003,4.723534e+000
1.866663e+003,5.188049e+000
1.867627e+003,5.682808e+000
1.868592e+003,5.950722e+000
1.869556e+003,5.855820e+000
1.870520e+003,4.860107e+000
1.871484e+003,3.222191e+000
1.872449e+003,2.965439e+000
1.873413e+003,5.038528e+000
1.874377e+003,6.066841e+000
1.875341e+003,3.401299e+000
1.876306e+003,1.430542e+000
1.877270e+003,3.502441e+000
1.878234e+003,6.434723e+000
1.879198e+003,6.993011e+000
1.880163e+003,5.990891e+000
1.881127e+003,5.318100e+000
1.882091e+003,5.221275e+000
1.883055e+003,4.775574e+000
1.884020e+003,3.682816e+000
1.884984e+003,3.078781e+000
1.885948e+003,4.030106e+000
1.886912e+003,5.689270e+000
1.887876e+003,6.346336e+000
1.888841e+003,6.095505e+000
1.889805e+003,6.055611e+000
1.890769e+003,6.338257e+000
1.891733e+003,6.100922e+000
1.892698e+003,4.596275e+000
1.893662e+003,4.182373e+000
1.894626e+003,6.828621e+000
1.895590e+003,9.285393e+000
1.896554e+003,8.931023e+000
1.897519e+003,7.489380e+000
1.898483e+003,6.716331e+000
1.899447e+003,6.592499e+000
1.900411e+003,7.001205e+000
1.901376e+003,7.996391e+000
1.902340e+003,8.529434e+000
1.903304e+003,7.875443e+000
1.904268e+003,7.173103e+000
1.905233e+003,7.081062e+000
1.906197e+003,7.339012e+000
1.907161e+003,8.201340e+000
1.908125e+003,8.966110e+000
1.909090e+003,7.930786e+000
1.910054e+003,5.521385e+000
1.911018e+003,4.046326e+000
1.911982e+003,4.248283e+000
1.912947e+003,4.880592e+000
1.913911e+003,5.012398e+000
1.914875e+003,5.292328e+000
1.915839e+003,6.849869e+000
1.916803e+003,9.181747e+000
1.917768e+003,9.699577e+000
1.918732e+003,8.037750e+000
1.919696e+003,7.219276e+000
1.920660e+003,7.663193e+000
1.921625e+003,7.941284e+000
1.922589e+003,7.478035e+000
1.923553e+003,7.177696e+000
1.924517e+003,7.887642e+000
1.925481e+003,8.645317e+000
1.926446e+003,8.455902e+000
1.927410e+003,7.763039e+000
1.928374e+003,7.390442e+000
1.929338e+003,7.382301e+000
1.930303e+003,7.607964e+000
1.931267e+003,8.213196e+000
1.932231e+003,8.694473e+000
1.933195e+003,8.638000e+000
1.934160e+003,8.508568e+000
1.935124e+003,8.632843e+000
1.936088e+003,8.859665e+000
1.937052e+003,9.281563e+000
1.938017e+003,9.610138e+000
1.938981e+003,8.867302e+000
1.939945e+003,7.300095e+000
1.940909e+003,6.765640e+000
1.941874e+003,7.986504e+000
1.942838e+003,9.326889e+000
1.943802e+003,9.295601e+000
1.944766e+003,8.522728e+000
1.945730e+003,8.091049e+000
1.946695e+003,7.987434e+000
1.947659e+003,8.447929e+000
1.948623e+003,9.529137e+000
1.949587e+003,1.041532e+001
1.950552e+003,1.102065e+001
1.951516e+003,1.157632e+001
1.952480e+003,1.235782e+001
1.953444e+003,1.267033e+001
1.954408e+003,1.187288e+001
1.955373e+003,1.043612e+001
1.956337e+003,8.619926e+000
1.957301e+003,6.821381e+000
1.958265e+003,6.377464e+000
1.959230e+003,7.462112e+000
1.960194e+003,8.738747e+000
1.961158e+003,1.044953e+001
1.962122e+003,1.154572e+001
1.963087e+003,1.167852e+001
1.964051e+003,1.124184e+001
1.965015e+003,9.959335e+000
1.965979e+003,8.740234e+000
1.966944e+003,8.641243e+000
1.967908e+003,9.126030e+000
1.968872e+003,8.837753e+000
1.969836e+003,7.943024e+000
1.970801e+003,8.285027e+000
1.971765e+003,1.052885e+001
1.972729e+003,1.238669e+001
1.973693e+003,1.166163e+001
1.974657e+003,1.028397e+001
1.975622e+003,1.159926e+001
1.976586e+003,1.434972e+001
1.977550e+003,1.492529e+001
1.978514e+003,1.369862e+001
1.979479e+003,1.323671e+001
1.980443e+003,1.386668e+001
1.981407e+003,1.436123e+001
1.982371e+003,1.429164e+001
1.983335e+003,1.377068e+001
1.984300e+003,1.274689e+001
1.985264e+003,1.185738e+001
1.986228e+003,1.223801e+001
1.987192e+003,1.351102e+001
1.988157e+003,1.365338e+001
1.989121e+003,1.232632e+001
1.990085e+003,1.174197e+001
1.991049e+003,1.254211e+001
1.992014e+003,1.283461e+001
1.992978e+003,1.189510e+001
1.993942e+003,1.105599e+001
1.994906e+003,1.069832e+001
1.995871e+003,1.067457e+001
1.996835e+003,1.086399e+001
1.997799e+003,1.135574e+001
1.998763e+003,1.256084e+001
1.999728e+003,1.417744e+001
