9.922330e+001,0.000000e+000
1.001875e+002,0.000000e+000
1.011518e+002,0.000000e+000
1.021160e+002,0.000000e+000
1.030802e+002,0.000000e+000
1.040445e+002,0.000000e+000
1.050087e+002,0.000000e+000
1.059729e+002,0.000000e+000
1.069372e+002,0.000000e+000
1.079014e+002,0.000000e+000
1.088656e+002,0.000000e+000
1.098299e+002,0.000000e+000
1.107941e+002,0.000000e+000
1.117583e+002,0.000000e+000
1.127226e+002,0.000000e+000
1.136868e+002,0.000000e+000
1.146510e+002,0.000000e+000
1.156153e+002,0.000000e+000
1.165795e+002,0.000000e+000
1.175437e+002,0.000000e+000
1.185080e+002,0.000000e+000
1.194722e+002,0.000000e+000
1.204364e+002,0.000000e+000
1.214007e+002,0.000000e+000
1.223649e+002,0.000000e+000
1.233291e+002,0.000000e+000
1.242934e+002,0.000000e+000
1.252576e+002,0.000000e+000
1.262218e+002,0.000000e+000
1.271861e+002,0.000000e+000
1.281503e+002,0.000000e+000
1.291145e+002,0.000000e+000
1.300788e+002,0.000000e+000
1.310430e+002,0.000000e+000
1.320072e+002,0.000000e+000
1.329715e+002,0.000000e+000
1.339357e+002,0.000000e+000
1.348999e+002,0.000000e+000
1.358642e+002,0.000000e+000
1.368284e+002,0.000000e+000
1.377926e+002,0.000000e+000
1.387569e+002,0.000000e+000
1.397211e+002,0.000000e+000
1.406853e+002,0.000000e+000
1.416496e+002,0.000000e+000
1.426138e+002,0.000000e+000
1.435780e+002,0.000000e+000
1.445423e+002,0.000000e+000
1.455065e+002,0.000000e+000
1.464707e+002,0.000000e+000
1.474350e+002,0.000000e+000
1.483992e+002,0.000000e+000
1.493634e+002,0.000000e+000
1.503277e+002,0.000000e+000
1.512919e+002,0.000000e+000
1.522561e+002,0.000000e+000
1.532204e+002,0.000000e+000
1.541846e+002,0.000000e+000
1.551488e+002,0.000000e+000
1.561131e+002,0.000000e+000
1.570773e+002,0.000000e+000
1.580415e+002,0.000000e+000
1.590058e+002,0.000000e+000
1.599700e+002,0.000000e+000
1.609342e+002,0.000000e+000
1.618985e+002,0.000000e+000
1.628627e+002,0.000000e+000
1.638269e+002,0.000000e+000
1.647912e+002,0.000000e+000
1.657554e+002,0.000000e+000
1.667196e+002,0.000000e+000
1.676839e+002,0.000000e+000
1.686481e+002,0.000000e+000
1.696123e+002,0.000000e+000
1.705766e+002,0.000000e+000
1.715408e+002,0.000000e+000
1.725050e+002,0.000000e+000
1.734693e+002,0.000000e+000
1.744335e+002,0.000000e+000
1.753977e+002,0.000000e+000
1.763620e+002,0.000000e+000
1.773262e+002,0.000000e+000
1.782904e+002,0.000000e+000
1.792547e+002,0.000000e+000
1.802189e+002,0.000000e+000
1.811831e+002,0.000000e+000
1.821474e+002,0.000000e+000
1.831116e+002,0.000000e+000
1.840758e+002,0.000000e+000
1.850401e+002,0.000000e+000
1.860043e+002,0.000000e+000
1.869685e+002,0.000000e+000
1.879328e+002,0.000000e+000
1.888970e+002,0.000000e+000
1.898612e+002,0.000000e+000
1.908255e+002,0.000000e+000
1.917897e+002,0.000000e+000
1.927540e+002,0.000000e+000
1.937182e+002,0.000000e+000
1.946824e+002,0.000000e+000
1.956467e+002,0.000000e+000
1.966109e+002,0.000000e+000
1.975751e+002,0.000000e+000
1.985394e+002,0.000000e+000
1.995036e+002,0.000000e+000
2.004678e+002,0.000000e+000
2.014321e+002,0.000000e+000
2.023963e+002,0.000000e+000
2.033605e+002,0.000000e+000
2.043248e+002,0.000000e+000
2.052890e+002,0.000000e+000
2.062532e+002,0.000000e+000
2.072175e+002,0.000000e+000
2.081817e+002,0.000000e+000
2.091459e+002,0.000000e+000
2.101102e+002,0.000000e+000
2.110744e+002,0.000000e+000
2.120386e+002,0.000000e+000
2.130029e+002,0.000000e+000
2.139671e+002,0.000000e+000
2.149313e+002,0.000000e+000
2.158956e+002,0.000000e+000
2.168598e+002,0.000000e+000
2.178240e+002,0.000000e+000
2.187883e+002,0.000000e+000
2.197525e+002,0.000000e+000
2.207167e+002,0.000000e+000
2.216810e+002,0.000000e+000
2.226452e+002,0.000000e+000
2.236094e+002,0.000000e+000
2.245737e+002,0.000000e+000
2.255379e+002,0.000000e+000
2.265021e+002,0.000000e+000
2.274664e+002,0.000000e+000
2.284306e+002,0.000000e+000
2.293948e+002,0.000000e+000
2.303591e+002,0.000000e+000
2.313233e+002,0.000000e+000
2.322875e+002,0.000000e+000
2.332518e+002,0.000000e+000
2.342160e+002,0.000000e+000
2.351802e+002,0.000000e+000
2.361445e+002,0.000000e+000
2.371087e+002,0.000000e+000
2.380729e+002,0.000000e+000
2.390372e+002,0.000000e+000
2.400014e+002,0.000000e+000
2.409656e+002,0.000000e+000
2.419299e+002,0.000000e+000
2.428941e+002,0.000000e+000
2.438583e+002,0.000000e+000
2.448226e+002,0.000000e+000
2.457868e+002,0.000000e+000
2.467510e+002,0.000000e+000
2.477153e+002,0.000000e+000
2.486795e+002,0.000000e+000
2.496437e+002,0.000000e+000
2.506080e+002,0.000000e+000
2.515722e+002,0.000000e+000
2.525364e+002,0.000000e+000
2.535007e+002,0.000000e+000
2.544649e+002,0.000000e+000
2.554291e+002,0.000000e+000
2.563934e+002,0.000000e+000
2.573576e+002,0.000000e+000
2.583218e+002,0.000000e+000
2.592861e+002,0.000000e+000
2.602503e+002,0.000000e+000
2.612145e+002,0.000000e+000
2.621788e+002,0.000000e+000
2.631430e+002,0.000000e+000
2.641072e+002,0.000000e+000
2.650715e+002,0.000000e+000
2.660357e+002,0.000000e+000
2.669999e+002,0.000000e+000
2.679642e+002,0.000000e+000
2.689284e+002,0.000000e+000
2.698926e+002,0.000000e+000
2.708569e+002,0.000000e+000
2.718211e+002,0.000000e+000
2.727853e+002,0.000000e+000
2.737496e+002,0.000000e+000
2.747138e+002,0.000000e+000
2.756780e+002,0.000000e+000
2.766423e+002,0.000000e+000
2.776065e+002,0.000000e+000
2.785707e+002,0.000000e+000
2.795350e+002,0.000000e+000
2.804992e+002,0.000000e+000
2.814634e+002,0.000000e+000
2.824277e+002,0.000000e+000
2.833919e+002,0.000000e+000
2.843561e+002,0.000000e+000
2.853204e+002,0.000000e+000
2.862846e+002,0.000000e+000
2.872488e+002,0.000000e+000
2.882131e+002,0.000000e+000
2.891773e+002,0.000000e+000
2.901415e+002,0.000000e+000
2.911058e+002,0.000000e+000
2.920700e+002,0.000000e+000
2.930342e+002,0.000000e+000
2.939985e+002,0.000000e+000
2.949627e+002,0.000000e+000
2.959269e+002,0.000000e+000
2.968912e+002,0.000000e+000
2.978554e+002,0.000000e+000
2.988196e+002,0.000000e+000
2.997839e+002,0.000000e+000
3.007481e+002,0.000000e+000
3.017123e+002,0.000000e+000
3.026766e+002,0.000000e+000
3.036408e+002,0.000000e+000
3.046050e+002,0.000000e+000
3.055693e+002,0.000000e+000
3.065335e+002,0.000000e+000
3.074977e+002,0.000000e+000
3.084620e+002,0.000000e+000
3.094262e+002,0.000000e+000
3.103904e+002,0.000000e+000
3.113547e+002,0.000000e+000
3.123189e+002,0.000000e+000
3.132831e+002,0.000000e+000
3.142474e+002,0.000000e+000
3.152116e+002,0.000000e+000
3.161758e+002,0.000000e+000
3.171401e+002,0.000000e+000
3.181043e+002,0.000000e+000
3.190685e+002,0.000000e+000
3.200328e+002,0.000000e+000
3.209970e+002,0.000000e+000
3.219612e+002,0.000000e+000
3.229255e+002,0.000000e+000
3.238897e+002,0.000000e+000
3.248539e+002,0.000000e+000
3.258182e+002,0.000000e+000
3.267824e+002,0.000000e+000
3.277466e+002,0.000000e+000
3.287109e+002,0.000000e+000
3.296751e+002,0.000000e+000
3.306393e+002,0.000000e+000
3.316036e+002,0.000000e+000
3.325678e+002,0.000000e+000
3.335320e+002,0.000000e+000
3.344963e+002,0.000000e+000
3.354605e+002,0.000000e+000
3.364247e+002,0.000000e+000
3.373890e+002,0.000000e+000
3.383532e+002,0.000000e+000
3.393174e+002,0.000000e+000
3.402817e+002,0.000000e+000
3.412459e+002,0.000000e+000
3.422101e+002,0.000000e+000
3.431744e+002,0.000000e+000
3.441386e+002,0.000000e+000
3.451028e+002,0.000000e+000
3.460671e+002,0.000000e+000
3.470313e+002,0.000000e+000
3.479955e+002,0.000000e+000
3.489598e+002,0.000000e+000
3.499240e+002,0.000000e+000
3.508882e+002,0.000000e+000
3.518525e+002,0.000000e+000
3.528167e+002,0.000000e+000
3.537809e+002,0.000000e+000
3.547452e+002,0.000000e+000
3.557094e+002,0.000000e+000
3.566736e+002,0.000000e+000
3.576379e+002,0.000000e+000
3.586021e+002,0.000000e+000
3.595663e+002,0.000000e+000
3.605306e+002,0.000000e+000
3.614948e+002,0.000000e+000
3.624590e+002,0.000000e+000
3.634233e+002,0.000000e+000
3.643875e+002,0.000000e+000
3.653517e+002,0.000000e+000
3.663160e+002,0.000000e+000
3.672802e+002,0.000000e+000
3.682444e+002,0.000000e+000
3.692087e+002,0.000000e+000
3.701729e+002,0.000000e+000
3.711371e+002,0.000000e+000
3.721014e+002,0.000000e+000
3.730656e+002,0.000000e+000
3.740298e+002,0.000000e+000
3.749941e+002,0.000000e+000
3.759583e+002,0.000000e+000
3.769225e+002,0.000000e+000
3.778868e+002,0.000000e+000
3.788510e+002,0.000000e+000
3.798152e+002,0.000000e+000
3.807795e+002,0.000000e+000
3.817437e+002,0.000000e+000
3.827079e+002,0.000000e+000
3.836722e+002,0.000000e+000
3.846364e+002,0.000000e+000
3.856006e+002,0.000000e+000
3.865649e+002,0.000000e+000
3.875291e+002,0.000000e+000
3.884933e+002,0.000000e+000
3.894576e+002,0.000000e+000
3.904218e+002,0.000000e+000
3.913860e+002,0.000000e+000
3.923503e+002,0.000000e+000
3.933145e+002,0.000000e+000
3.942787e+002,0.000000e+000
3.952430e+002,0.000000e+000
3.962072e+002,0.000000e+000
3.971714e+002,0.000000e+000
3.981357e+002,0.000000e+000
3.990999e+002,0.000000e+000
4.000641e+002,0.000000e+000
4.010284e+002,0.000000e+000
4.019926e+002,0.000000e+000
4.029568e+002,0.000000e+000
4.039211e+002,0.000000e+000
4.048853e+002,0.000000e+000
4.058495e+002,0.000000e+000
4.068138e+002,0.000000e+000
4.077780e+002,0.000000e+000
4.087422e+002,0.000000e+000
4.097065e+002,0.000000e+000
4.106707e+002,0.000000e+000
4.116349e+002,0.000000e+000
4.125992e+002,0.000000e+000
4.135634e+002,0.000000e+000
4.145276e+002,0.000000e+000
4.154919e+002,0.000000e+000
4.164561e+002,0.000000e+000
4.174203e+002,0.000000e+000
4.183846e+002,0.000000e+000
4.193488e+002,0.000000e+000
4.203130e+002,0.000000e+000
4.212773e+002,0.000000e+000
4.222415e+002,0.000000e+000
4.232057e+002,0.000000e+000
4.241700e+002,0.000000e+000
4.251342e+002,0.000000e+000
4.260984e+002,0.000000e+000
4.270627e+002,0.000000e+000
4.280269e+002,0.000000e+000
4.289911e+002,0.000000e+000
4.299554e+002,0.000000e+000
4.309196e+002,0.000000e+000
4.318839e+002,0.000000e+000
4.328481e+002,0.000000e+000
4.338123e+002,0.000000e+000
4.347766e+002,0.000000e+000
4.357408e+002,0.000000e+000
4.367050e+002,0.000000e+000
4.376693e+002,0.000000e+000
4.386335e+002,0.000000e+000
4.395977e+002,0.000000e+000
4.405620e+002,0.000000e+000
4.415262e+002,0.000000e+000
4.424904e+002,0.000000e+000
4.434547e+002,0.000000e+000
4.444189e+002,0.000000e+000
4.453831e+002,0.000000e+000
4.463474e+002,0.000000e+000
4.473116e+002,0.000000e+000
4.482758e+002,0.000000e+000
4.492401e+002,0.000000e+000
4.502043e+002,0.000000e+000
4.511685e+002,0.000000e+000
4.521328e+002,0.000000e+000
4.530970e+002,0.000000e+000
4.540612e+002,0.000000e+000
4.550255e+002,0.000000e+000
4.559897e+002,0.000000e+000
4.569539e+002,0.000000e+000
4.579182e+002,0.000000e+000
4.588824e+002,0.000000e+000
4.598466e+002,0.000000e+000
4.608109e+002,0.000000e+000
4.617751e+002,0.000000e+000
4.627393e+002,0.000000e+000
4.637036e+002,0.000000e+000
4.646678e+002,0.000000e+000
4.656320e+002,0.000000e+000
4.665963e+002,0.000000e+000
4.675605e+002,0.000000e+000
4.685247e+002,0.000000e+000
4.694890e+002,0.000000e+000
4.704532e+002,0.000000e+000
4.714174e+002,0.000000e+000
4.723817e+002,0.000000e+000
4.733459e+002,0.000000e+000
4.743102e+002,0.000000e+000
4.752744e+002,0.000000e+000
4.762386e+002,0.000000e+000
4.772029e+002,0.000000e+000
4.781671e+002,0.000000e+000
4.791313e+002,0.000000e+000
4.800956e+002,0.000000e+000
4.810598e+002,0.000000e+000
4.820240e+002,0.000000e+000
4.829883e+002,0.000000e+000
4.839525e+002,0.000000e+000
4.849167e+002,0.000000e+000
4.858810e+002,0.000000e+000
4.868452e+002,0.000000e+000
4.878094e+002,0.000000e+000
4.887737e+002,0.000000e+000
4.897379e+002,0.000000e+000
4.907021e+002,0.000000e+000
4.916664e+002,0.000000e+000
4.926306e+002,0.000000e+000
4.935948e+002,0.000000e+000
4.945591e+002,0.000000e+000
4.955233e+002,0.000000e+000
4.964875e+002,0.000000e+000
4.974518e+002,0.000000e+000
4.984160e+002,0.000000e+000
4.993802e+002,0.000000e+000
5.003445e+002,4.406728e+001
5.013087e+002,4.205308e+001
5.022729e+002,4.230268e+001
5.032372e+002,4.367348e+001
5.042014e+002,4.075557e+001
5.051656e+002,3.437651e+001
5.061299e+002,2.843691e+001
5.070941e+002,2.648760e+001
5.080583e+002,2.927783e+001
5.090226e+002,3.126787e+001
5.099868e+002,3.172734e+001
5.109510e+002,3.237998e+001
5.119153e+002,3.485122e+001
5.128795e+002,3.944600e+001
5.138438e+002,4.183852e+001
5.148080e+002,3.947339e+001
5.157722e+002,3.580849e+001
5.167365e+002,3.117881e+001
5.177007e+002,2.615561e+001
5.186649e+002,2.187612e+001
5.196292e+002,2.063379e+001
5.205934e+002,2.099961e+001
5.215576e+002,2.085005e+001
5.225219e+002,1.984517e+001
5.234861e+002,1.878213e+001
5.244503e+002,1.947036e+001
5.254146e+002,2.310200e+001
5.263788e+002,2.451973e+001
5.273430e+002,2.204492e+001
5.283073e+002,1.850019e+001
5.292715e+002,1.820103e+001
5.302357e+002,2.395835e+001
5.312000e+002,2.569199e+001
5.321642e+002,1.895752e+001
5.331284e+002,1.149375e+001
5.340927e+002,9.969434e+000
5.350569e+002,1.705864e+001
5.360211e+002,2.461948e+001
5.369854e+002,2.537744e+001
5.379496e+002,2.345098e+001
5.389138e+002,2.155234e+001
5.398781e+002,2.085977e+001
5.408423e+002,2.086689e+001
5.418065e+002,2.049824e+001
5.427708e+002,1.974228e+001
5.437350e+002,1.798477e+001
5.446992e+002,1.443516e+001
5.456635e+002,1.007573e+001
5.466277e+002,8.518896e+000
5.475919e+002,1.399487e+001
5.485562e+002,1.739170e+001
5.495204e+002,1.687217e+001
5.504846e+002,1.437339e+001
5.514489e+002,1.281826e+001
5.524131e+002,1.366167e+001
5.533773e+002,1.494946e+001
5.543416e+002,1.629565e+001
5.553058e+002,1.714585e+001
5.562700e+002,1.656973e+001
5.572343e+002,1.398398e+001
5.581985e+002,1.051992e+001
5.591627e+002,8.896631e+000
5.601270e+002,8.801123e+000
5.610912e+002,9.844727e+000
5.620554e+002,1.186025e+001
5.630197e+002,1.451323e+001
5.639839e+002,1.566465e+001
5.649481e+002,1.474551e+001
5.659124e+002,1.323213e+001
5.668766e+002,1.086289e+001
5.678408e+002,8.378174e+000
5.688051e+002,7.600830e+000
5.697693e+002,1.025937e+001
5.707335e+002,1.209214e+001
5.716978e+002,1.194229e+001
5.726620e+002,1.043179e+001
5.736262e+002,8.082911e+000
5.745905e+002,4.956006e+000
5.755547e+002,2.658643e+000
5.765189e+002,4.235938e+000
5.774832e+002,7.687402e+000
5.784474e+002,9.679296e+000
5.794116e+002,8.066895e+000
5.803759e+002,3.456201e+000
5.813401e+002,1.327246e+000
5.823043e+002,1.312061e+000
5.832686e+002,2.514600e+000
5.842328e+002,5.965723e+000
5.851970e+002,1.127075e+001
5.861613e+002,1.468867e+001
5.871255e+002,1.372549e+001
5.880897e+002,1.243071e+001
5.890540e+002,1.181279e+001
5.900182e+002,1.117056e+001
5.909824e+002,8.796240e+000
5.919467e+002,2.550244e+000
5.929109e+002,-2.835693e+000
5.938751e+002,-1.788184e+000
5.948394e+002,2.880322e+000
5.958036e+002,7.182813e+000
5.967678e+002,8.225489e+000
5.977321e+002,6.440088e+000
5.986963e+002,3.194922e+000
5.996605e+002,-2.238428e+000
6.006248e+002,-5.408643e+000
6.015890e+002,-2.771924e+000
6.025532e+002,5.130225e+000
6.035175e+002,9.764112e+000
6.044817e+002,7.250244e+000
6.054459e+002,5.475342e+000
6.064102e+002,6.709912e+000
6.073744e+002,9.211230e+000
6.083386e+002,9.228516e+000
6.093029e+002,3.213477e+000
6.102671e+002,-2.085059e+000
6.112313e+002,-1.136084e+000
6.121956e+002,3.291406e+000
6.131598e+002,7.910205e+000
6.141240e+002,1.041538e+001
6.150883e+002,1.104414e+001
6.160525e+002,1.064585e+001
6.170167e+002,9.539942e+000
6.179810e+002,8.321630e+000
6.189452e+002,7.170117e+000
6.199094e+002,5.894678e+000
6.208737e+002,4.025586e+000
6.218379e+002,-1.012939e+000
6.228021e+002,-2.851953e+000
6.237664e+002,1.104248e+000
6.247306e+002,8.184473e+000
6.256948e+002,1.443457e+001
6.266591e+002,1.901187e+001
6.276233e+002,1.996240e+001
6.285875e+002,1.485732e+001
6.295518e+002,7.760449e+000
6.305160e+002,3.001465e+000
6.314802e+002,2.784229e+000
6.324445e+002,4.917627e+000
6.334087e+002,3.152197e+000
6.343729e+002,-9.057617e-001
6.353372e+002,-3.251221e+000
6.363014e+002,-2.311719e+000
6.372656e+002,8.611328e-001
6.382299e+002,2.771338e+000
6.391941e+002,3.450488e+000
6.401583e+002,2.141650e+000
6.411226e+002,-3.342334e+000
6.420868e+002,-9.167871e+000
6.430510e+002,-1.023794e+001
6.440153e+002,-3.744092e+000
6.449795e+002,1.451855e+000
6.459437e+002,-5.344238e-001
6.469080e+002,-4.484229e+000
6.478722e+002,-6.184570e+000
6.488364e+002,-4.216699e+000
6.498007e+002,-9.060059e-001
6.507649e+002,-9.958496e-001
6.517291e+002,-3.045361e+000
6.526934e+002,-2.767920e+000
6.536576e+002,7.943848e-001
6.546218e+002,5.151563e+000
6.555861e+002,5.275537e+000
6.565503e+002,-2.930762e+000
6.575145e+002,-6.410205e+000
6.584788e+002,-2.915039e+000
6.594430e+002,2.826514e+000
6.604072e+002,7.724951e+000
6.613715e+002,1.148037e+001
6.623357e+002,1.365679e+001
6.632999e+002,1.396660e+001
6.642642e+002,1.244951e+001
6.652284e+002,7.663232e+000
6.661926e+002,8.076660e-001
6.671569e+002,-4.651074e+000
6.681211e+002,-3.937256e+000
6.690853e+002,4.375488e-001
6.700496e+002,1.339209e+000
6.710138e+002,-1.141699e+000
6.719780e+002,-3.664893e+000
6.729423e+002,-2.504883e+000
6.739065e+002,3.343701e+000
6.748707e+002,6.143115e+000
6.758350e+002,4.687696e+000
6.767992e+002,2.470850e+000
6.777634e+002,1.016357e+000
6.787277e+002,4.318848e-001
6.796919e+002,-1.777344e-001
6.806561e+002,-2.363281e+000
6.816204e+002,-3.668408e+000
6.825846e+002,-2.905371e+000
6.835488e+002,-6.521972e-001
6.845131e+002,2.367578e+000
6.854773e+002,5.829102e+000
6.864415e+002,9.146973e+000
6.874058e+002,1.073936e+001
6.883700e+002,1.069551e+001
6.893342e+002,9.568457e+000
6.902985e+002,7.667236e+000
6.912627e+002,5.198486e+000
6.922269e+002,2.990820e+000
6.931912e+002,8.427734e-001
6.941554e+002,7.368164e-002
6.951196e+002,9.526367e-001
6.960839e+002,2.750928e+000
6.970481e+002,4.775000e+000
6.980123e+002,7.541162e+000
6.989766e+002,9.103564e+000
6.999408e+002,9.027344e+000
7.009050e+002,7.521875e+000
7.018693e+002,3.177685e+000
7.028335e+002,-3.686084e+000
7.037977e+002,-9.121923e+000
7.047620e+002,-4.206494e+000
7.057262e+002,6.308740e+000
7.066904e+002,1.211987e+001
7.076547e+002,1.154775e+001
7.086189e+002,7.531494e+000
7.095831e+002,4.507813e+000
7.105474e+002,2.354980e+000
7.115116e+002,1.495850e+000
7.124758e+002,3.776367e+000
7.134401e+002,5.133887e+000
7.144043e+002,1.652344e+000
7.153685e+002,-6.391748e+000
7.163328e+002,-1.089502e+001
7.172970e+002,-3.978858e+000
7.182612e+002,3.707080e+000
7.192255e+002,9.136621e+000
7.201897e+002,1.162500e+001
7.211539e+002,1.069219e+001
7.221182e+002,5.477979e+000
7.230824e+002,-1.641113e+000
7.240466e+002,-3.958594e+000
7.250109e+002,-2.309863e+000
7.259751e+002,-3.841309e-001
7.269393e+002,-6.062012e-001
7.279036e+002,-2.902881e+000
7.288678e+002,-4.331445e+000
7.298320e+002,-3.210010e+000
7.307963e+002,-2.168652e+000
7.317605e+002,-1.441016e+000
7.327247e+002,-7.846680e-001
7.336890e+002,-7.187500e-002
7.346532e+002,3.406250e-001
7.356174e+002,4.002441e-001
7.365817e+002,7.770508e-001
7.375459e+002,1.297119e+000
7.385101e+002,1.750488e+000
7.394744e+002,2.092432e+000
7.404386e+002,2.433105e+000
7.414028e+002,2.800781e+000
7.423671e+002,2.712158e+000
7.433313e+002,2.398096e+000
7.442955e+002,2.219580e+000
7.452598e+002,2.814258e+000
7.462240e+002,5.207764e+000
7.471882e+002,1.042935e+001
7.481525e+002,1.208101e+001
7.491167e+002,6.977881e+000
7.500809e+002,1.848877e+000
7.510452e+002,-9.760254e-001
7.520094e+002,-1.685156e+000
7.529736e+002,-1.605322e+000
7.539379e+002,-3.108887e-001
7.549021e+002,7.453613e-001
7.558663e+002,5.474121e-001
7.568306e+002,-4.566894e-001
7.577948e+002,-2.132764e+000
7.587590e+002,-4.355567e+000
7.597233e+002,-6.508935e+000
7.606875e+002,-5.698194e+000
7.616517e+002,-2.113525e+000
7.626160e+002,1.957227e+000
7.635802e+002,6.605371e+000
7.645444e+002,1.089370e+001
7.655087e+002,1.247397e+001
7.664729e+002,9.456543e+000
7.674371e+002,7.568555e+000
7.684014e+002,7.745801e+000
7.693656e+002,8.364161e+000
7.703298e+002,8.256201e+000
7.712941e+002,7.413037e+000
7.722583e+002,7.097949e+000
7.732225e+002,8.298096e+000
7.741868e+002,1.041909e+001
7.751510e+002,1.395772e+001
7.761152e+002,1.802134e+001
7.770795e+002,2.072305e+001
7.780437e+002,2.033784e+001
7.790079e+002,1.716377e+001
7.799722e+002,1.397300e+001
7.809364e+002,1.057144e+001
7.819006e+002,7.983447e+000
7.828649e+002,6.954394e+000
7.838291e+002,7.329980e+000
7.847933e+002,8.495459e+000
7.857576e+002,1.254902e+001
7.867218e+002,1.242163e+001
7.876860e+002,3.548096e+000
7.886503e+002,-6.429883e+000
7.896145e+002,-1.104331e+001
7.905787e+002,-8.705175e+000
7.915430e+002,-3.781250e+000
7.925072e+002,5.530273e-001
7.934714e+002,3.478418e+000
7.944357e+002,3.294580e+000
7.953999e+002,7.793945e-001
7.963641e+002,-8.227539e-001
7.973284e+002,2.203320e+000
7.982926e+002,1.032314e+001
7.992568e+002,1.377583e+001
8.002211e+002,1.059746e+001
8.011853e+002,6.417676e+000
8.021495e+002,3.021387e+000
8.031138e+002,9.260254e-001
8.040780e+002,7.697266e-001
8.050422e+002,3.186719e+000
8.060065e+002,6.064209e+000
8.069707e+002,9.473584e+000
8.079349e+002,1.216885e+001
8.088992e+002,1.302783e+001
8.098634e+002,1.181636e+001
8.108276e+002,9.296045e+000
8.117919e+002,4.931983e+000
8.127561e+002,3.496094e-002
8.137203e+002,-9.399414e-001
8.146846e+002,2.690186e+000
8.156488e+002,7.102685e+000
8.166130e+002,7.166455e+000
8.175773e+002,1.600684e+000
8.185415e+002,-1.029492e+000
8.195057e+002,-8.501953e-001
8.204700e+002,1.150928e+000
8.214342e+002,6.838086e+000
8.223984e+002,1.411016e+001
8.233627e+002,1.704380e+001
8.243269e+002,1.096836e+001
8.252911e+002,5.952685e+000
8.262554e+002,8.573194e+000
8.272196e+002,1.442734e+001
8.281838e+002,1.951597e+001
8.291481e+002,2.206821e+001
8.301123e+002,2.267407e+001
8.310765e+002,2.212104e+001
8.320408e+002,2.029790e+001
8.330050e+002,1.783110e+001
8.339692e+002,1.450791e+001
8.349335e+002,1.155391e+001
8.358977e+002,1.079375e+001
8.368619e+002,1.290029e+001
8.378262e+002,1.336797e+001
8.387904e+002,7.837305e+000
8.397546e+002,5.112256e+000
8.407189e+002,1.056289e+001
8.416831e+002,1.959927e+001
8.426473e+002,2.368018e+001
8.436116e+002,1.818525e+001
8.445758e+002,1.076108e+001
8.455400e+002,8.556933e+000
8.465043e+002,9.047510e+000
8.474685e+002,1.057070e+001
8.484327e+002,1.256353e+001
8.493970e+002,1.465190e+001
8.503612e+002,1.579712e+001
8.513254e+002,1.560093e+001
8.522897e+002,1.663267e+001
8.532539e+002,2.030728e+001
8.542181e+002,2.290273e+001
8.551824e+002,2.144561e+001
8.561466e+002,1.689141e+001
8.571108e+002,1.500879e+001
8.580751e+002,1.793809e+001
8.590393e+002,2.119326e+001
8.600035e+002,2.446821e+001
8.609678e+002,2.720215e+001
8.619320e+002,2.901035e+001
8.628962e+002,2.964629e+001
8.638605e+002,2.870293e+001
8.648247e+002,2.402227e+001
8.657889e+002,1.780410e+001
8.667532e+002,1.515508e+001
8.677174e+002,1.674795e+001
8.686816e+002,2.041108e+001
8.696459e+002,2.395288e+001
8.706101e+002,2.756079e+001
8.715743e+002,3.057153e+001
8.725386e+002,3.466724e+001
8.735028e+002,3.626890e+001
8.744670e+002,3.129170e+001
8.754313e+002,2.350718e+001
8.763955e+002,2.054619e+001
8.773597e+002,2.605449e+001
8.783240e+002,3.314814e+001
8.792882e+002,3.811401e+001
8.802524e+002,4.114936e+001
8.812167e+002,4.208281e+001
8.821809e+002,4.106221e+001
8.831451e+002,3.826416e+001
8.841094e+002,3.368745e+001
8.850736e+002,2.790483e+001
8.860378e+002,2.709834e+001
8.870021e+002,3.219995e+001
8.879663e+002,3.748183e+001
8.889305e+002,3.990713e+001
8.898948e+002,3.975434e+001
8.908590e+002,3.868457e+001
8.918232e+002,3.558486e+001
8.927875e+002,3.418877e+001
8.937517e+002,3.628877e+001
8.947159e+002,3.945601e+001
8.956802e+002,4.120903e+001
8.966444e+002,4.106875e+001
8.976086e+002,4.123413e+001
8.985729e+002,4.534282e+001
8.995371e+002,5.027602e+001
9.005013e+002,5.012617e+001
9.014656e+002,4.565356e+001
9.024298e+002,4.032236e+001
9.033940e+002,3.635132e+001
9.043583e+002,3.366953e+001
9.053225e+002,3.341714e+001
9.062867e+002,3.911806e+001
9.072510e+002,4.224941e+001
9.082152e+002,4.138408e+001
9.091794e+002,3.930845e+001
9.101437e+002,3.840723e+001
9.111079e+002,3.901948e+001
9.120721e+002,4.064619e+001
9.130364e+002,4.451387e+001
9.140006e+002,4.748003e+001
9.149648e+002,4.732222e+001
9.159291e+002,4.518501e+001
9.168933e+002,4.322290e+001
9.178575e+002,4.282905e+001
9.188218e+002,4.353672e+001
9.197860e+002,4.445303e+001
9.207502e+002,4.548423e+001
9.217145e+002,4.590815e+001
9.226787e+002,4.616460e+001
9.236429e+002,4.589556e+001
9.246072e+002,4.400156e+001
9.255714e+002,3.979634e+001
9.265356e+002,3.641694e+001
9.274999e+002,3.325108e+001
9.284641e+002,3.195298e+001
9.294283e+002,3.445244e+001
9.303926e+002,3.918623e+001
9.313568e+002,4.389238e+001
9.323210e+002,4.752100e+001
9.332853e+002,4.927998e+001
9.342495e+002,4.607554e+001
9.352137e+002,4.042188e+001
9.361780e+002,3.639805e+001
9.371422e+002,3.508398e+001
9.381064e+002,3.484756e+001
9.390707e+002,3.315049e+001
9.400349e+002,2.927578e+001
9.409991e+002,2.676758e+001
9.419634e+002,2.510903e+001
9.429276e+002,2.506924e+001
9.438918e+002,2.804893e+001
9.448561e+002,3.251313e+001
9.458203e+002,3.606338e+001
9.467845e+002,3.815059e+001
9.477488e+002,3.930156e+001
9.487130e+002,3.882925e+001
9.496772e+002,3.823745e+001
9.506415e+002,3.961084e+001
9.516057e+002,4.231963e+001
9.525699e+002,4.319951e+001
9.535342e+002,3.901416e+001
9.544984e+002,3.062920e+001
9.554626e+002,2.688052e+001
9.564269e+002,2.859346e+001
9.573911e+002,3.117612e+001
9.583553e+002,3.366933e+001
9.593196e+002,3.608018e+001
9.602838e+002,3.895142e+001
9.612480e+002,4.297808e+001
9.622123e+002,4.403725e+001
9.631765e+002,3.839902e+001
9.641407e+002,3.236607e+001
9.651050e+002,2.784697e+001
9.660692e+002,2.523066e+001
9.670334e+002,2.489932e+001
9.679977e+002,2.731069e+001
9.689619e+002,3.115630e+001
9.699261e+002,3.255943e+001
9.708904e+002,3.233765e+001
9.718546e+002,3.396690e+001
9.728188e+002,3.847012e+001
9.737831e+002,4.339898e+001
9.747473e+002,4.526685e+001
9.757115e+002,4.328936e+001
9.766758e+002,4.307334e+001
9.776400e+002,4.835698e+001
9.786042e+002,5.132402e+001
9.795685e+002,4.871636e+001
9.805327e+002,4.292515e+001
9.814969e+002,3.697676e+001
9.824612e+002,3.204805e+001
9.834254e+002,2.863877e+001
9.843896e+002,2.737583e+001
9.853539e+002,2.743672e+001
9.863181e+002,2.875840e+001
9.872823e+002,3.070952e+001
9.882466e+002,3.156729e+001
9.892108e+002,3.004355e+001
9.901750e+002,2.716626e+001
9.911393e+002,2.768853e+001
9.921035e+002,3.372866e+001
9.930677e+002,3.826226e+001
9.940320e+002,4.085869e+001
9.949962e+002,4.256924e+001
9.959604e+002,4.407436e+001
9.969247e+002,4.552891e+001
9.978889e+002,4.730586e+001
9.988531e+002,4.987241e+001
9.998174e+002,5.146743e+001
1.000782e+003,5.094624e+001
1.001746e+003,4.937749e+001
1.002710e+003,4.793325e+001
1.003674e+003,4.720234e+001
1.004639e+003,4.737163e+001
1.005603e+003,4.904326e+001
1.006567e+003,5.228027e+001
1.007531e+003,5.263706e+001
1.008495e+003,4.899854e+001
1.009460e+003,4.500610e+001
1.010424e+003,4.299683e+001
1.011388e+003,4.254185e+001
1.012352e+003,4.147705e+001
1.013317e+003,3.842690e+001
1.014281e+003,3.682026e+001
1.015245e+003,3.997646e+001
1.016209e+003,4.248057e+001
1.017174e+003,3.938701e+001
1.018138e+003,3.149834e+001
1.019102e+003,2.390273e+001
1.020066e+003,2.082803e+001
1.021031e+003,2.104053e+001
1.021995e+003,2.039038e+001
1.022959e+003,1.890449e+001
1.023923e+003,1.867783e+001
1.024887e+003,2.085093e+001
1.025852e+003,2.366392e+001
1.026816e+003,2.432534e+001
1.027780e+003,2.253965e+001
1.028744e+003,2.107891e+001
1.029709e+003,2.030049e+001
1.030673e+003,1.955781e+001
1.031637e+003,1.821641e+001
1.032601e+003,1.680400e+001
1.033566e+003,1.595503e+001
1.034530e+003,1.601069e+001
1.035494e+003,1.748184e+001
1.036458e+003,2.176147e+001
1.037422e+003,2.712666e+001
1.038387e+003,3.158379e+001
1.039351e+003,3.466069e+001
1.040315e+003,3.442397e+001
1.041279e+003,2.896758e+001
1.042244e+003,1.996650e+001
1.043208e+003,1.521431e+001
1.044172e+003,1.687080e+001
1.045136e+003,1.900483e+001
1.046101e+003,2.318550e+001
1.047065e+003,2.638877e+001
1.048029e+003,2.599307e+001
1.048993e+003,2.265430e+001
1.049958e+003,1.937852e+001
1.050922e+003,1.755547e+001
1.051886e+003,1.669941e+001
1.052850e+003,1.647451e+001
1.053814e+003,1.658359e+001
1.054779e+003,1.639707e+001
1.055743e+003,1.588257e+001
1.056707e+003,1.600684e+001
1.057671e+003,1.803599e+001
1.058636e+003,2.192896e+001
1.059600e+003,2.463716e+001
1.060564e+003,2.681470e+001
1.061528e+003,2.772041e+001
1.062493e+003,2.578076e+001
1.063457e+003,2.288340e+001
1.064421e+003,2.101230e+001
1.065385e+003,2.055093e+001
1.066349e+003,2.164653e+001
1.067314e+003,2.661113e+001
1.068278e+003,3.043433e+001
1.069242e+003,2.855044e+001
1.070206e+003,2.376855e+001
1.071171e+003,2.024844e+001
1.072135e+003,1.970957e+001
1.073099e+003,2.099038e+001
1.074063e+003,2.245938e+001
1.075028e+003,2.429297e+001
1.075992e+003,2.536289e+001
1.076956e+003,2.566816e+001
1.077920e+003,2.496748e+001
1.078885e+003,2.222832e+001
1.079849e+003,1.914878e+001
1.080813e+003,1.887583e+001
1.081777e+003,2.223618e+001
1.082741e+003,2.633877e+001
1.083706e+003,3.103818e+001
1.084670e+003,3.430078e+001
1.085634e+003,3.481787e+001
1.086598e+003,3.296143e+001
1.087563e+003,2.913813e+001
1.088527e+003,2.394292e+001
1.089491e+003,1.892383e+001
1.090455e+003,1.672686e+001
1.091420e+003,1.749922e+001
1.092384e+003,1.900513e+001
1.093348e+003,2.216475e+001
1.094312e+003,2.399600e+001
1.095276e+003,2.110435e+001
1.096241e+003,1.594834e+001
1.097205e+003,1.650693e+001
1.098169e+003,2.639707e+001
1.099133e+003,3.342442e+001
1.100098e+003,3.062510e+001
1.101062e+003,2.627461e+001
1.102026e+003,2.564492e+001
1.102990e+003,2.789175e+001
1.103955e+003,2.911719e+001
1.104919e+003,2.693096e+001
1.105883e+003,2.347539e+001
1.106847e+003,2.369463e+001
1.107812e+003,2.765259e+001
1.108776e+003,3.085513e+001
1.109740e+003,3.350850e+001
1.110704e+003,3.461680e+001
1.111668e+003,3.250903e+001
1.112633e+003,2.841890e+001
1.113597e+003,2.731465e+001
1.114561e+003,3.110376e+001
1.115525e+003,3.387432e+001
1.116490e+003,3.182710e+001
1.117454e+003,3.003511e+001
1.118418e+003,3.334839e+001
1.119382e+003,4.004575e+001
1.120347e+003,4.471279e+001
1.121311e+003,4.380034e+001
1.122275e+003,3.917461e+001
1.123239e+003,3.471963e+001
1.124203e+003,3.101426e+001
1.125168e+003,2.973438e+001
1.126132e+003,3.193799e+001
1.127096e+003,3.441895e+001
1.128060e+003,3.420152e+001
1.129025e+003,3.189321e+001
1.129989e+003,3.095361e+001
1.130953e+003,3.198359e+001
1.131917e+003,3.327632e+001
1.132882e+003,3.336948e+001
1.133846e+003,3.467641e+001
1.134810e+003,4.054917e+001
1.135774e+003,4.872290e+001
1.136739e+003,5.354346e+001
1.137703e+003,5.188135e+001
1.138667e+003,4.757578e+001
1.139631e+003,4.709883e+001
1.140595e+003,5.034634e+001
1.141560e+003,5.491743e+001
1.142524e+003,6.096211e+001
1.143488e+003,6.834287e+001
1.144452e+003,7.681924e+001
1.145417e+003,8.644917e+001
1.146381e+003,9.818467e+001
1.147345e+003,1.142239e+002
1.148309e+003,1.259339e+002
1.149274e+003,1.285870e+002
1.150238e+003,1.298009e+002
1.151202e+003,1.339521e+002
1.152166e+003,1.397083e+002
1.153130e+003,1.443377e+002
1.154095e+003,1.460887e+002
1.155059e+003,1.434814e+002
1.156023e+003,1.338208e+002
1.156987e+003,1.184689e+002
1.157952e+003,1.067643e+002
1.158916e+003,9.945097e+001
1.159880e+003,9.417046e+001
1.160844e+003,8.967290e+001
1.161809e+003,8.551147e+001
1.162773e+003,8.155469e+001
1.163737e+003,7.800728e+001
1.164701e+003,7.397490e+001
1.165666e+003,6.778774e+001
1.166630e+003,6.295093e+001
1.167594e+003,6.075298e+001
1.168558e+003,6.068984e+001
1.169522e+003,6.289024e+001
1.170487e+003,6.680967e+001
1.171451e+003,7.008242e+001
1.172415e+003,6.998008e+001
1.173379e+003,6.684766e+001
1.174344e+003,6.277520e+001
1.175308e+003,5.774897e+001
1.176272e+003,5.358555e+001
1.177236e+003,5.100225e+001
1.178201e+003,4.964214e+001
1.179165e+003,4.905308e+001
1.180129e+003,4.904331e+001
1.181093e+003,4.885259e+001
1.182057e+003,4.805864e+001
1.183022e+003,4.782949e+001
1.183986e+003,4.897681e+001
1.184950e+003,5.060064e+001
1.185914e+003,5.301123e+001
1.186879e+003,5.530732e+001
1.187843e+003,5.437427e+001
1.188807e+003,4.744981e+001
1.189771e+003,3.728233e+001
1.190736e+003,3.270410e+001
1.191700e+003,3.429653e+001
1.192664e+003,3.577686e+001
1.193628e+003,3.655322e+001
1.194593e+003,3.757222e+001
1.195557e+003,4.004604e+001
1.196521e+003,4.324463e+001
1.197485e+003,4.457095e+001
1.198449e+003,4.321704e+001
1.199414e+003,4.146465e+001
1.200378e+003,3.943013e+001
1.201342e+003,3.820142e+001
1.202306e+003,3.912539e+001
1.203271e+003,4.115952e+001
1.204235e+003,4.218008e+001
1.205199e+003,4.125835e+001
1.206163e+003,3.961597e+001
1.207128e+003,3.927525e+001
1.208092e+003,4.037070e+001
1.209056e+003,4.027114e+001
1.210020e+003,3.933491e+001
1.210984e+003,3.690869e+001
1.211949e+003,3.082232e+001
1.212913e+003,2.423511e+001
1.213877e+003,2.208906e+001
1.214841e+003,2.460542e+001
1.215806e+003,2.597314e+001
1.216770e+003,2.344941e+001
1.217734e+003,1.983003e+001
1.218698e+003,1.568501e+001
1.219663e+003,1.228862e+001
1.220627e+003,1.179243e+001
1.221591e+003,1.412954e+001
1.222555e+003,1.705205e+001
1.223520e+003,1.854043e+001
1.224484e+003,1.903394e+001
1.225448e+003,2.015933e+001
1.226412e+003,2.344995e+001
1.227376e+003,2.337847e+001
1.228341e+003,1.530508e+001
1.229305e+003,8.975977e+000
1.230269e+003,1.232456e+001
1.231233e+003,2.041338e+001
1.232198e+003,2.234819e+001
1.233162e+003,1.517173e+001
1.234126e+003,7.718506e+000
1.235090e+003,5.641406e+000
1.236055e+003,6.764697e+000
1.237019e+003,1.004365e+001
1.237983e+003,1.419985e+001
1.238947e+003,1.633809e+001
1.239911e+003,1.540815e+001
1.240876e+003,1.308574e+001
1.241840e+003,1.154863e+001
1.242804e+003,1.079912e+001
1.243768e+003,1.102974e+001
1.244733e+003,1.242163e+001
1.245697e+003,1.474907e+001
1.246661e+003,1.974570e+001
1.247625e+003,2.359429e+001
1.248590e+003,2.185376e+001
1.249554e+003,1.681431e+001
1.250518e+003,1.592710e+001
1.251482e+003,2.276167e+001
1.252447e+003,3.046601e+001
1.253411e+003,3.053340e+001
1.254375e+003,2.611313e+001
1.255339e+003,2.386777e+001
1.256303e+003,2.412822e+001
1.257268e+003,2.379321e+001
1.258232e+003,2.016162e+001
1.259196e+003,1.552104e+001
1.260160e+003,1.533525e+001
1.261125e+003,2.063130e+001
1.262089e+003,2.562495e+001
1.263053e+003,3.032305e+001
1.264017e+003,3.324731e+001
1.264982e+003,3.361187e+001
1.265946e+003,3.263677e+001
1.266910e+003,3.098599e+001
1.267874e+003,2.912334e+001
1.268839e+003,2.760415e+001
1.269803e+003,2.681631e+001
1.270767e+003,2.666182e+001
1.271731e+003,2.720581e+001
1.272695e+003,2.850874e+001
1.273660e+003,2.908345e+001
1.274624e+003,2.861470e+001
1.275588e+003,2.694443e+001
1.276552e+003,2.314458e+001
1.277517e+003,1.891860e+001
1.278481e+003,1.738955e+001
1.279445e+003,1.880889e+001
1.280409e+003,2.037432e+001
1.281374e+003,2.213589e+001
1.282338e+003,2.258428e+001
1.283302e+003,1.913613e+001
1.284266e+003,1.510562e+001
1.285230e+003,1.491313e+001
1.286195e+003,1.847983e+001
1.287159e+003,2.200010e+001
1.288123e+003,2.245693e+001
1.289087e+003,2.084072e+001
1.290052e+003,1.954893e+001
1.291016e+003,1.798730e+001
1.291980e+003,1.842891e+001
1.292944e+003,2.273052e+001
1.293909e+003,2.595796e+001
1.294873e+003,2.592432e+001
1.295837e+003,2.433804e+001
1.296801e+003,2.329990e+001
1.297766e+003,2.313394e+001
1.298730e+003,2.322354e+001
1.299694e+003,2.309282e+001
1.300658e+003,2.296606e+001
1.301622e+003,2.422075e+001
1.302587e+003,2.549736e+001
1.303551e+003,2.356128e+001
1.304515e+003,1.833789e+001
1.305479e+003,1.414551e+001
1.306444e+003,1.457505e+001
1.307408e+003,1.801690e+001
1.308372e+003,1.938940e+001
1.309336e+003,1.794653e+001
1.310301e+003,1.662979e+001
1.311265e+003,1.413369e+001
1.312229e+003,1.389771e+001
1.313193e+003,2.057119e+001
1.314157e+003,2.747769e+001
1.315122e+003,2.587681e+001
1.316086e+003,1.650137e+001
1.317050e+003,8.291944e+000
1.318014e+003,7.230615e+000
1.318979e+003,1.046030e+001
1.319943e+003,1.296880e+001
1.320907e+003,1.510894e+001
1.321871e+003,1.923682e+001
1.322836e+003,2.634307e+001
1.323800e+003,3.092139e+001
1.324764e+003,2.895337e+001
1.325728e+003,2.332588e+001
1.326693e+003,1.770859e+001
1.327657e+003,1.201509e+001
1.328621e+003,1.042021e+001
1.329585e+003,1.728061e+001
1.330549e+003,2.456812e+001
1.331514e+003,2.782104e+001
1.332478e+003,2.861216e+001
1.333442e+003,2.812334e+001
1.334406e+003,2.699624e+001
1.335371e+003,2.577134e+001
1.336335e+003,2.476685e+001
1.337299e+003,2.377295e+001
1.338263e+003,2.219732e+001
1.339228e+003,1.982012e+001
1.340192e+003,1.908521e+001
1.341156e+003,2.095518e+001
1.342120e+003,2.289209e+001
1.343084e+003,2.525820e+001
1.344049e+003,2.643213e+001
1.345013e+003,2.424277e+001
1.345977e+003,2.012314e+001
1.346941e+003,1.827959e+001
1.347906e+003,2.031025e+001
1.348870e+003,2.274380e+001
1.349834e+003,2.166699e+001
1.350798e+003,1.927456e+001
1.351763e+003,2.100107e+001
1.352727e+003,2.595498e+001
1.353691e+003,2.783765e+001
1.354655e+003,2.350820e+001
1.355620e+003,1.858276e+001
1.356584e+003,2.101426e+001
1.357548e+003,2.971484e+001
1.358512e+003,3.350474e+001
1.359476e+003,2.943106e+001
1.360441e+003,2.624424e+001
1.361405e+003,2.766753e+001
1.362369e+003,2.914038e+001
1.363333e+003,2.814297e+001
1.364298e+003,2.595264e+001
1.365262e+003,2.438794e+001
1.366226e+003,2.403306e+001
1.367190e+003,2.465396e+001
1.368155e+003,2.607168e+001
1.369119e+003,2.788994e+001
1.370083e+003,2.892768e+001
1.371047e+003,2.927769e+001
1.372011e+003,2.882813e+001
1.372976e+003,2.582070e+001
1.373940e+003,2.373701e+001
1.374904e+003,2.429512e+001
1.375868e+003,2.642920e+001
1.376833e+003,2.927827e+001
1.377797e+003,3.235503e+001
1.378761e+003,3.434380e+001
1.379725e+003,3.487881e+001
1.380690e+003,3.380620e+001
1.381654e+003,2.861343e+001
1.382618e+003,2.302105e+001
1.383582e+003,2.354097e+001
1.384547e+003,2.950122e+001
1.385511e+003,3.340688e+001
1.386475e+003,3.096035e+001
1.387439e+003,2.612031e+001
1.388403e+003,2.537827e+001
1.389368e+003,2.868721e+001
1.390332e+003,2.986611e+001
1.391296e+003,2.776338e+001
1.392260e+003,2.588643e+001
1.393225e+003,2.512266e+001
1.394189e+003,2.453457e+001
1.395153e+003,2.291953e+001
1.396117e+003,2.144419e+001
1.397082e+003,2.279277e+001
1.398046e+003,2.700708e+001
1.399010e+003,3.023022e+001
1.399974e+003,2.866162e+001
1.400938e+003,2.390679e+001
1.401903e+003,2.200498e+001
1.402867e+003,2.455938e+001
1.403831e+003,2.674644e+001
1.404795e+003,2.843267e+001
1.405760e+003,2.925737e+001
1.406724e+003,2.678237e+001
1.407688e+003,2.403198e+001
1.408652e+003,2.654751e+001
1.409617e+003,3.353774e+001
1.410581e+003,3.753594e+001
1.411545e+003,3.537378e+001
1.412509e+003,3.062983e+001
1.413474e+003,2.392251e+001
1.414438e+003,1.826274e+001
1.415402e+003,2.094399e+001
1.416366e+003,3.068057e+001
1.417330e+003,3.777515e+001
1.418295e+003,3.825845e+001
1.419259e+003,3.570586e+001
1.420223e+003,3.322500e+001
1.421187e+003,3.082734e+001
1.422152e+003,2.992681e+001
1.423116e+003,3.137544e+001
1.424080e+003,3.267622e+001
1.425044e+003,3.180513e+001
1.426009e+003,3.157124e+001
1.426973e+003,3.368950e+001
1.427937e+003,3.673862e+001
1.428901e+003,3.949785e+001
1.429865e+003,4.159302e+001
1.430830e+003,4.264282e+001
1.431794e+003,4.229507e+001
1.432758e+003,4.102075e+001
1.433722e+003,4.008393e+001
1.434687e+003,3.988750e+001
1.435651e+003,4.045947e+001
1.436615e+003,4.213364e+001
1.437579e+003,4.205889e+001
1.438544e+003,3.772217e+001
1.439508e+003,3.414453e+001
1.440472e+003,3.602793e+001
1.441436e+003,4.101899e+001
1.442401e+003,4.403599e+001
1.443365e+003,4.382163e+001
1.444329e+003,4.295371e+001
1.445293e+003,4.349131e+001
1.446257e+003,4.436689e+001
1.447222e+003,4.287344e+001
1.448186e+003,3.956743e+001
1.449150e+003,3.782451e+001
1.450114e+003,3.798667e+001
1.451079e+003,3.903047e+001
1.452043e+003,4.079590e+001
1.453007e+003,4.330019e+001
1.453971e+003,4.731377e+001
1.454936e+003,5.215679e+001
1.455900e+003,5.325322e+001
1.456864e+003,4.859560e+001
1.457828e+003,4.445259e+001
1.458792e+003,4.503774e+001
1.459757e+003,4.670430e+001
1.460721e+003,4.727666e+001
1.461685e+003,4.644106e+001
1.462649e+003,4.327529e+001
1.463614e+003,3.800630e+001
1.464578e+003,3.362188e+001
1.465542e+003,3.276025e+001
1.466506e+003,3.430933e+001
1.467471e+003,3.536377e+001
1.468435e+003,3.604751e+001
1.469399e+003,3.735640e+001
1.470363e+003,3.890752e+001
1.471328e+003,4.104473e+001
1.472292e+003,4.553501e+001
1.473256e+003,4.844497e+001
1.474220e+003,4.576494e+001
1.475184e+003,4.038853e+001
1.476149e+003,3.759878e+001
1.477113e+003,3.893604e+001
1.478077e+003,4.233174e+001
1.479041e+003,4.616103e+001
1.480006e+003,4.968779e+001
1.480970e+003,4.948413e+001
1.481934e+003,4.349741e+001
1.482898e+003,4.126997e+001
1.483863e+003,4.695420e+001
1.484827e+003,5.000786e+001
1.485791e+003,4.499854e+001
1.486755e+003,3.902798e+001
1.487719e+003,3.833120e+001
1.488684e+003,4.201333e+001
1.489648e+003,4.724121e+001
1.490612e+003,5.306250e+001
1.491576e+003,5.663301e+001
1.492541e+003,5.446904e+001
1.493505e+003,5.020117e+001
1.494469e+003,5.267280e+001
1.495433e+003,6.037837e+001
1.496398e+003,6.664097e+001
1.497362e+003,7.147569e+001
1.498326e+003,7.401231e+001
1.499290e+003,7.181734e+001
1.500255e+003,6.834712e+001
1.501219e+003,6.824131e+001
1.502183e+003,7.108115e+001
1.503147e+003,7.403487e+001
1.504111e+003,7.628945e+001
1.505076e+003,7.964561e+001
1.506040e+003,8.507275e+001
1.507004e+003,9.238594e+001
1.507968e+003,1.024409e+002
1.508933e+003,1.137009e+002
1.509897e+003,1.228801e+002
1.510861e+003,1.298402e+002
1.511825e+003,1.372070e+002
1.512790e+003,1.465121e+002
1.513754e+003,1.567779e+002
1.514718e+003,1.666943e+002
1.515682e+003,1.760455e+002
1.516646e+003,1.850781e+002
1.517611e+003,1.950071e+002
1.518575e+003,2.026878e+002
1.519539e+003,2.089395e+002
1.520503e+003,2.113082e+002
1.521468e+003,2.062771e+002
1.522432e+003,1.972466e+002
1.523396e+003,1.876880e+002
1.524360e+003,1.791294e+002
1.525325e+003,1.735381e+002
1.526289e+003,1.723233e+002
1.527253e+003,1.718437e+002
1.528217e+003,1.653913e+002
1.529182e+003,1.531045e+002
1.530146e+003,1.390103e+002
1.531110e+003,1.190951e+002
1.532074e+003,1.046378e+002
1.533038e+003,9.951489e+001
1.534003e+003,9.454887e+001
1.534967e+003,8.623628e+001
1.535931e+003,7.658008e+001
1.536895e+003,6.682060e+001
1.537860e+003,5.821543e+001
1.538824e+003,5.301572e+001
1.539788e+003,5.208691e+001
1.540752e+003,5.310542e+001
1.541717e+003,5.347661e+001
1.542681e+003,5.319736e+001
1.543645e+003,5.146948e+001
1.544609e+003,4.742060e+001
1.545573e+003,4.502695e+001
1.546538e+003,4.448525e+001
1.547502e+003,4.440479e+001
1.548466e+003,4.562437e+001
1.549430e+003,4.676377e+001
1.550395e+003,4.513677e+001
1.551359e+003,4.191225e+001
1.552323e+003,4.202422e+001
1.553287e+003,4.685889e+001
1.554252e+003,4.983472e+001
1.555216e+003,4.446553e+001
1.556180e+003,3.515552e+001
1.557144e+003,3.250923e+001
1.558109e+003,3.694643e+001
1.559073e+003,4.029956e+001
1.560037e+003,4.205474e+001
1.561001e+003,4.242720e+001
1.561965e+003,4.127329e+001
1.562930e+003,3.983013e+001
1.563894e+003,3.833809e+001
1.564858e+003,3.728979e+001
1.565822e+003,3.872197e+001
1.566787e+003,4.271050e+001
1.567751e+003,4.465000e+001
1.568715e+003,4.137104e+001
1.569679e+003,3.716865e+001
1.570644e+003,3.751211e+001
1.571608e+003,4.084185e+001
1.572572e+003,4.353936e+001
1.573536e+003,4.573345e+001
1.574500e+003,4.602212e+001
1.575465e+003,4.208726e+001
1.576429e+003,3.878814e+001
1.577393e+003,4.176611e+001
1.578357e+003,4.718940e+001
1.579322e+003,4.661021e+001
1.580286e+003,4.019146e+001
1.581250e+003,3.682031e+001
1.582214e+003,3.974273e+001
1.583179e+003,4.420503e+001
1.584143e+003,4.839868e+001
1.585107e+003,5.032856e+001
1.586071e+003,4.626611e+001
1.587036e+003,3.872642e+001
1.588000e+003,3.471763e+001
1.588964e+003,3.562519e+001
1.589928e+003,3.782739e+001
1.590893e+003,3.939854e+001
1.591857e+003,4.059985e+001
1.592821e+003,4.194976e+001
1.593785e+003,4.337593e+001
1.594750e+003,4.393579e+001
1.595714e+003,4.315659e+001
1.596678e+003,4.293511e+001
1.597642e+003,4.438316e+001
1.598606e+003,4.618369e+001
1.599571e+003,4.810503e+001
1.600535e+003,4.945337e+001
1.601499e+003,4.837217e+001
1.602463e+003,4.540669e+001
1.603428e+003,4.420137e+001
1.604392e+003,4.648018e+001
1.605356e+003,4.904263e+001
1.606320e+003,4.846748e+001
1.607285e+003,4.576299e+001
1.608249e+003,4.370415e+001
1.609213e+003,4.232290e+001
1.610177e+003,4.065776e+001
1.611141e+003,3.776846e+001
1.612106e+003,3.655933e+001
1.613070e+003,3.951221e+001
1.614034e+003,4.369458e+001
1.614998e+003,4.900576e+001
1.615963e+003,5.329531e+001
1.616927e+003,5.139355e+001
1.617891e+003,4.367075e+001
1.618855e+003,3.832715e+001
1.619820e+003,4.040308e+001
1.620784e+003,4.518804e+001
1.621748e+003,4.687534e+001
1.622712e+003,4.620879e+001
1.623677e+003,4.492564e+001
1.624641e+003,4.285395e+001
1.625605e+003,4.151470e+001
1.626569e+003,4.081113e+001
1.627533e+003,4.008608e+001
1.628498e+003,3.876172e+001
1.629462e+003,3.815932e+001
1.630426e+003,3.975694e+001
1.631390e+003,4.274253e+001
1.632355e+003,4.534434e+001
1.633319e+003,4.711255e+001
1.634283e+003,4.906226e+001
1.635247e+003,5.240908e+001
1.636212e+003,5.474287e+001
1.637176e+003,5.027949e+001
1.638140e+003,3.989004e+001
1.639104e+003,3.530493e+001
1.640068e+003,3.815313e+001
1.641033e+003,4.122573e+001
1.641997e+003,4.308555e+001
1.642961e+003,4.470225e+001
1.643925e+003,4.726460e+001
1.644890e+003,4.926069e+001
1.645854e+003,4.794517e+001
1.646818e+003,4.487710e+001
1.647782e+003,4.488418e+001
1.648747e+003,4.915742e+001
1.649711e+003,5.299419e+001
1.650675e+003,5.269419e+001
1.651639e+003,4.972168e+001
1.652604e+003,4.625605e+001
1.653568e+003,4.217456e+001
1.654532e+003,3.869512e+001
1.655496e+003,3.556255e+001
1.656460e+003,3.431020e+001
1.657425e+003,3.712978e+001
1.658389e+003,3.983340e+001
1.659353e+003,4.008467e+001
1.660317e+003,3.910820e+001
1.661282e+003,3.746313e+001
1.662246e+003,3.576289e+001
1.663210e+003,3.538789e+001
1.664174e+003,3.689439e+001
1.665139e+003,3.997427e+001
1.666103e+003,4.544131e+001
1.667067e+003,5.020195e+001
1.668031e+003,4.612778e+001
1.668995e+003,3.427178e+001
1.669960e+003,2.969697e+001
1.670924e+003,3.529839e+001
1.671888e+003,4.093994e+001
1.672852e+003,4.484668e+001
1.673817e+003,4.576274e+001
1.674781e+003,4.013096e+001
1.675745e+003,3.331172e+001
1.676709e+003,3.204092e+001
1.677674e+003,3.484321e+001
1.678638e+003,3.527847e+001
1.679602e+003,3.139907e+001
1.680566e+003,2.834736e+001
1.681531e+003,3.130308e+001
1.682495e+003,3.619468e+001
1.683459e+003,3.508115e+001
1.684423e+003,2.888687e+001
1.685387e+003,2.414736e+001
1.686352e+003,2.129668e+001
1.687316e+003,2.210947e+001
1.688280e+003,2.895972e+001
1.689244e+003,3.618960e+001
1.690209e+003,4.070073e+001
1.691173e+003,4.239370e+001
1.692137e+003,3.917388e+001
1.693101e+003,3.327466e+001
1.694066e+003,3.166978e+001
1.695030e+003,3.597715e+001
1.695994e+003,3.929209e+001
1.696958e+003,3.716182e+001
1.697922e+003,3.243877e+001
1.698887e+003,2.711245e+001
1.699851e+003,2.241172e+001
1.700815e+003,2.280776e+001
1.701779e+003,2.838872e+001
1.702744e+003,3.270625e+001
1.703708e+003,3.393286e+001
1.704672e+003,3.409990e+001
1.705636e+003,3.392266e+001
1.706601e+003,3.338203e+001
1.707565e+003,3.355024e+001
1.708529e+003,3.395923e+001
1.709493e+003,3.198394e+001
1.710458e+003,2.699932e+001
1.711422e+003,2.229565e+001
1.712386e+003,1.884473e+001
1.713350e+003,1.703818e+001
1.714314e+003,1.787368e+001
1.715279e+003,1.962612e+001
1.716243e+003,1.937676e+001
1.717207e+003,1.745269e+001
1.718171e+003,1.651670e+001
1.719136e+003,1.736465e+001
1.720100e+003,1.805913e+001
1.721064e+003,1.690220e+001
1.722028e+003,1.578701e+001
1.722993e+003,1.835337e+001
1.723957e+003,2.385449e+001
1.724921e+003,2.592881e+001
1.725885e+003,2.346934e+001
1.726849e+003,2.183110e+001
1.727814e+003,2.295366e+001
1.728778e+003,2.458564e+001
1.729742e+003,2.572266e+001
1.730706e+003,2.677056e+001
1.731671e+003,2.791084e+001
1.732635e+003,2.882314e+001
1.733599e+003,2.984946e+001
1.734563e+003,3.099917e+001
1.735528e+003,3.059902e+001
1.736492e+003,2.764683e+001
1.737456e+003,2.416938e+001
1.738420e+003,2.254478e+001
1.739385e+003,2.218706e+001
1.740349e+003,2.184766e+001
1.741313e+003,2.182671e+001
1.742277e+003,2.138906e+001
1.743241e+003,1.949902e+001
1.744206e+003,1.928354e+001
1.745170e+003,2.326123e+001
1.746134e+003,2.623843e+001
1.747098e+003,2.458052e+001
1.748063e+003,2.091851e+001
1.749027e+003,1.771963e+001
1.749991e+003,1.571802e+001
1.750955e+003,1.565957e+001
1.751920e+003,1.729697e+001
1.752884e+003,1.810337e+001
1.753848e+003,1.594878e+001
1.754812e+003,1.256206e+001
1.755776e+003,1.176406e+001
1.756741e+003,1.368955e+001
1.757705e+003,1.443750e+001
1.758669e+003,1.310864e+001
1.759633e+003,1.253447e+001
1.760598e+003,1.257417e+001
1.761562e+003,1.361084e+001
1.762526e+003,1.734512e+001
1.763490e+003,2.097939e+001
1.764455e+003,2.280732e+001
1.765419e+003,2.318306e+001
1.766383e+003,2.199941e+001
1.767347e+003,1.979292e+001
1.768312e+003,1.942920e+001
1.769276e+003,2.226523e+001
1.770240e+003,2.316807e+001
1.771204e+003,1.493686e+001
1.772168e+003,3.667187e+000
1.773133e+003,4.808301e+000
1.774097e+003,1.669551e+001
1.775061e+003,2.195391e+001
1.776025e+003,1.776118e+001
1.776990e+003,1.354287e+001
1.777954e+003,1.313711e+001
1.778918e+003,1.265083e+001
1.779882e+003,7.242529e+000
1.780847e+003,1.296143e+000
1.781811e+003,1.720020e+000
1.782775e+003,6.831641e+000
1.783739e+003,1.132886e+001
1.784703e+003,1.475879e+001
1.785668e+003,1.541558e+001
1.786632e+003,9.735400e+000
1.787596e+003,4.199707e+000
1.788560e+003,4.063232e+000
1.789525e+003,7.300391e+000
1.790489e+003,1.182642e+001
1.791453e+003,1.653936e+001
1.792417e+003,1.957656e+001
1.793382e+003,2.054751e+001
1.794346e+003,1.960908e+001
1.795310e+003,1.661899e+001
1.796274e+003,1.413076e+001
1.797239e+003,1.561758e+001
1.798203e+003,1.964775e+001
1.799167e+003,2.037739e+001
1.800131e+003,1.651851e+001
1.801095e+003,1.391401e+001
1.802060e+003,1.404536e+001
1.803024e+003,1.406899e+001
1.803988e+003,1.266196e+001
1.804952e+003,1.198047e+001
1.805917e+003,1.564937e+001
1.806881e+003,1.831528e+001
1.807845e+003,1.156685e+001
1.808809e+003,8.156250e-001
1.809774e+003,-1.274951e+000
1.810738e+003,6.675586e+000
1.811702e+003,1.422310e+001
1.812666e+003,1.479873e+001
1.813630e+003,1.207520e+001
1.814595e+003,1.072627e+001
1.815559e+003,1.048413e+001
1.816523e+003,1.057749e+001
1.817487e+003,1.102231e+001
1.818452e+003,1.252847e+001
1.819416e+003,1.598955e+001
1.820380e+003,1.884649e+001
1.821344e+003,2.030820e+001
1.822309e+003,2.056348e+001
1.823273e+003,2.019448e+001
1.824237e+003,1.880283e+001
1.825201e+003,1.400889e+001
1.826166e+003,7.903857e+000
1.827130e+003,6.393018e+000
1.828094e+003,1.029941e+001
1.829058e+003,1.528325e+001
1.830022e+003,2.088921e+001
1.830987e+003,2.405268e+001
1.831951e+003,2.052573e+001
1.832915e+003,1.427070e+001
1.833879e+003,1.116685e+001
1.834844e+003,1.032666e+001
1.835808e+003,7.215723e+000
1.836772e+003,1.781934e+000
1.837736e+003,3.802734e-001
1.838701e+003,5.770850e+000
1.839665e+003,1.262412e+001
1.840629e+003,1.651533e+001
1.841593e+003,1.796108e+001
1.842557e+003,1.766958e+001
1.843522e+003,1.565200e+001
1.844486e+003,1.356704e+001
1.845450e+003,1.225923e+001
1.846414e+003,9.916308e+000
1.847379e+003,3.525146e+000
1.848343e+003,-6.554199e-001
1.849307e+003,1.007519e+000
1.850271e+003,3.922217e+000
1.851236e+003,4.966992e+000
1.852200e+003,5.277978e+000
1.853164e+003,6.838428e+000
1.854128e+003,9.097559e+000
1.855093e+003,1.011265e+001
1.856057e+003,9.428418e+000
1.857021e+003,7.993750e+000
1.857985e+003,6.278809e+000
1.858949e+003,4.860938e+000
1.859914e+003,5.612549e+000
1.860878e+003,7.842334e+000
1.861842e+003,6.323096e+000
1.862806e+003,7.943848e-001
1.863771e+003,-1.796484e+000
1.864735e+003,-1.771484e-001
1.865699e+003,3.563623e+000
1.866663e+003,1.037085e+001
1.867628e+003,1.601382e+001
1.868592e+003,1.603042e+001
1.869556e+003,1.232017e+001
1.870520e+003,8.274610e+000
1.871484e+003,4.124365e+000
1.872449e+003,1.674854e+000
1.873413e+003,1.988232e+000
1.874377e+003,3.700000e+000
1.875341e+003,6.943067e+000
1.876306e+003,9.442920e+000
1.877270e+003,1.020659e+001
1.878234e+003,9.269384e+000
1.879198e+003,5.438818e+000
1.880163e+003,7.744629e-001
1.881127e+003,-1.039941e+000
1.882091e+003,1.243164e-001
1.883055e+003,2.424121e+000
1.884020e+003,4.718408e+000
1.884984e+003,5.091455e+000
1.885948e+003,1.688281e+000
1.886912e+003,-2.891650e+000
1.887876e+003,-3.294727e+000
1.888841e+003,1.876953e-001
1.889805e+003,4.113135e+000
1.890769e+003,9.213282e+000
1.891733e+003,1.020327e+001
1.892698e+003,3.287305e+000
1.893662e+003,-8.027343e-002
1.894626e+003,7.294189e+000
1.895590e+003,1.516279e+001
1.896555e+003,1.743413e+001
1.897519e+003,1.597568e+001
1.898483e+003,9.957471e+000
1.899447e+003,1.712940e+000
1.900411e+003,5.795410e-001
1.901376e+003,8.718115e+000
1.902340e+003,1.400278e+001
1.903304e+003,1.013740e+001
1.904268e+003,4.990625e+000
1.905233e+003,3.095947e+000
1.906197e+003,2.683643e+000
1.907161e+003,1.757031e+000
1.908125e+003,1.160693e+000
1.909090e+003,3.133350e+000
1.910054e+003,6.798535e+000
1.911018e+003,8.703516e+000
1.911982e+003,7.910058e+000
1.912947e+003,6.217578e+000
1.913911e+003,4.862939e+000
1.914875e+003,3.837109e+000
1.915839e+003,2.882861e+000
1.916803e+003,2.212793e+000
1.917768e+003,4.699561e+000
1.918732e+003,1.162295e+001
1.919696e+003,1.432969e+001
1.920660e+003,1.109966e+001
1.921625e+003,8.811963e+000
1.922589e+003,1.004233e+001
1.923553e+003,1.026113e+001
1.924517e+003,5.007178e+000
1.925482e+003,-3.353516e-001
1.926446e+003,-8.144531e-002
1.927410e+003,3.169775e+000
1.928374e+003,4.254834e+000
1.929339e+003,2.680908e+000
1.930303e+003,-9.409180e-002
1.931267e+003,-4.681396e+000
1.932231e+003,-5.976074e+000
1.933195e+003,1.411816e+000
1.934160e+003,8.627539e+000
1.935124e+003,8.518652e+000
1.936088e+003,5.010694e+000
1.937052e+003,2.872705e+000
1.938017e+003,2.015332e+000
1.938981e+003,1.322266e-001
1.939945e+003,-2.557275e+000
1.940909e+003,-2.671387e+000
1.941874e+003,9.975586e-001
1.942838e+003,5.252295e+000
1.943802e+003,7.505664e+000
1.944766e+003,7.455713e+000
1.945730e+003,2.782227e+000
1.946695e+003,-5.496240e+000
1.947659e+003,-6.241504e+000
1.948623e+003,1.414209e+000
1.949587e+003,5.646240e+000
1.950552e+003,4.638867e+000
1.951516e+003,3.173633e+000
1.952480e+003,2.529248e+000
1.953444e+003,2.382031e+000
1.954409e+003,2.623242e+000
1.955373e+003,2.786719e+000
1.956337e+003,2.857568e+000
1.957301e+003,2.846240e+000
1.958266e+003,1.504102e+000
1.959230e+003,-1.377734e+000
1.960194e+003,-3.655273e+000
1.961158e+003,-5.763184e+000
1.962122e+003,-7.064600e+000
1.963087e+003,-7.726855e+000
1.964051e+003,-6.978564e+000
1.965015e+003,-2.030615e+000
1.965979e+003,2.987891e+000
1.966944e+003,3.191943e+000
1.967908e+003,1.025391e-001
1.968872e+003,-3.549658e+000
1.969836e+003,-6.289649e+000
1.970801e+003,-5.677539e+000
1.971765e+003,-9.816406e-001
1.972729e+003,3.148877e+000
1.973693e+003,2.694336e+000
1.974657e+003,-2.417969e-001
1.975622e+003,-3.681983e+000
1.976586e+003,-6.903564e+000
1.977550e+003,-7.032519e+000
1.978514e+003,-4.590186e+000
1.979479e+003,-3.245312e+000
1.980443e+003,-3.592236e+000
1.981407e+003,-4.919531e+000
1.982371e+003,-6.965234e+000
1.983336e+003,-7.756934e+000
1.984300e+003,-5.830469e+000
1.985264e+003,-2.616846e+000
1.986228e+003,1.869141e-001
1.987193e+003,2.131348e+000
1.988157e+003,5.604004e-001
1.989121e+003,-5.840576e+000
1.990085e+003,-8.192871e+000
1.991049e+003,-3.438965e+000
1.992014e+003,-4.983887e-001
1.992978e+003,-1.501318e+000
1.993942e+003,-3.307568e+000
1.994906e+003,-6.647265e+000
1.995871e+003,-8.553711e+000
1.996835e+003,-4.406982e+000
1.997799e+003,1.282031e+000
1.998763e+003,9.222168e-001
1.999728e+003,-4.562304e+000
2.000692e+003,0.000000e+000
2.001656e+003,0.000000e+000
2.002620e+003,0.000000e+000
2.003584e+003,0.000000e+000
2.004549e+003,0.000000e+000
2.005513e+003,0.000000e+000
2.006477e+003,0.000000e+000
2.007441e+003,0.000000e+000
2.008406e+003,0.000000e+000
2.009370e+003,0.000000e+000
2.010334e+003,0.000000e+000
2.011298e+003,0.000000e+000
2.012263e+003,0.000000e+000
2.013227e+003,0.000000e+000
2.014191e+003,0.000000e+000
2.015155e+003,0.000000e+000
2.016120e+003,0.000000e+000
2.017084e+003,0.000000e+000
2.018048e+003,0.000000e+000
2.019012e+003,0.000000e+000
2.019976e+003,0.000000e+000
2.020941e+003,0.000000e+000
2.021905e+003,0.000000e+000
2.022869e+003,0.000000e+000
2.023833e+003,0.000000e+000
2.024798e+003,0.000000e+000
2.025762e+003,0.000000e+000
2.026726e+003,0.000000e+000
2.027690e+003,0.000000e+000
2.028655e+003,0.000000e+000
2.029619e+003,0.000000e+000
2.030583e+003,0.000000e+000
2.031547e+003,0.000000e+000
2.032511e+003,0.000000e+000
2.033476e+003,0.000000e+000
2.034440e+003,0.000000e+000
2.035404e+003,0.000000e+000
2.036368e+003,0.000000e+000
2.037333e+003,0.000000e+000
2.038297e+003,0.000000e+000
2.039261e+003,0.000000e+000
2.040225e+003,0.000000e+000
2.041190e+003,0.000000e+000
2.042154e+003,0.000000e+000
2.043118e+003,0.000000e+000
2.044082e+003,0.000000e+000
2.045047e+003,0.000000e+000
2.046011e+003,0.000000e+000
2.046975e+003,0.000000e+000
2.047939e+003,0.000000e+000
2.048904e+003,0.000000e+000
2.049868e+003,0.000000e+000
2.050832e+003,0.000000e+000
2.051796e+003,0.000000e+000
2.052760e+003,0.000000e+000
2.053725e+003,0.000000e+000
2.054689e+003,0.000000e+000
2.055653e+003,0.000000e+000
2.056617e+003,0.000000e+000
2.057582e+003,0.000000e+000
2.058546e+003,0.000000e+000
2.059510e+003,0.000000e+000
2.060474e+003,0.000000e+000
2.061438e+003,0.000000e+000
2.062403e+003,0.000000e+000
2.063367e+003,0.000000e+000
2.064331e+003,0.000000e+000
2.065295e+003,0.000000e+000
2.066260e+003,0.000000e+000
2.067224e+003,0.000000e+000
2.068188e+003,0.000000e+000
2.069152e+003,0.000000e+000
2.070117e+003,0.000000e+000
2.071081e+003,0.000000e+000
2.072045e+003,0.000000e+000
2.073009e+003,0.000000e+000
2.073974e+003,0.000000e+000
2.074938e+003,0.000000e+000
2.075902e+003,0.000000e+000
2.076866e+003,0.000000e+000
2.077831e+003,0.000000e+000
2.078795e+003,0.000000e+000
2.079759e+003,0.000000e+000
2.080723e+003,0.000000e+000
2.081688e+003,0.000000e+000
2.082652e+003,0.000000e+000
2.083616e+003,0.000000e+000
2.084580e+003,0.000000e+000
2.085544e+003,0.000000e+000
2.086509e+003,0.000000e+000
2.087473e+003,0.000000e+000
2.088437e+003,0.000000e+000
2.089401e+003,0.000000e+000
2.090365e+003,0.000000e+000
2.091330e+003,0.000000e+000
2.092294e+003,0.000000e+000
2.093258e+003,0.000000e+000
2.094222e+003,0.000000e+000
2.095187e+003,0.000000e+000
2.096151e+003,0.000000e+000
2.097115e+003,0.000000e+000
2.098079e+003,0.000000e+000
2.099044e+003,0.000000e+000
2.100008e+003,0.000000e+000
2.100972e+003,0.000000e+000
2.101936e+003,0.000000e+000
2.102901e+003,0.000000e+000
2.103865e+003,0.000000e+000
2.104829e+003,0.000000e+000
2.105793e+003,0.000000e+000
2.106758e+003,0.000000e+000
2.107722e+003,0.000000e+000
2.108686e+003,0.000000e+000
2.109650e+003,0.000000e+000
2.110615e+003,0.000000e+000
2.111579e+003,0.000000e+000
2.112543e+003,0.000000e+000
2.113507e+003,0.000000e+000
2.114471e+003,0.000000e+000
2.115436e+003,0.000000e+000
2.116400e+003,0.000000e+000
2.117364e+003,0.000000e+000
2.118328e+003,0.000000e+000
2.119292e+003,0.000000e+000
2.120257e+003,0.000000e+000
2.121221e+003,0.000000e+000
2.122185e+003,0.000000e+000
2.123149e+003,0.000000e+000
2.124114e+003,0.000000e+000
2.125078e+003,0.000000e+000
2.126042e+003,0.000000e+000
2.127006e+003,0.000000e+000
2.127971e+003,0.000000e+000
2.128935e+003,0.000000e+000
2.129899e+003,0.000000e+000
2.130863e+003,0.000000e+000
2.131828e+003,0.000000e+000
2.132792e+003,0.000000e+000
2.133756e+003,0.000000e+000
2.134720e+003,0.000000e+000
2.135685e+003,0.000000e+000
2.136649e+003,0.000000e+000
2.137613e+003,0.000000e+000
2.138577e+003,0.000000e+000
2.139542e+003,0.000000e+000
2.140506e+003,0.000000e+000
2.141470e+003,0.000000e+000
2.142434e+003,0.000000e+000
2.143398e+003,0.000000e+000
2.144363e+003,0.000000e+000
2.145327e+003,0.000000e+000
2.146291e+003,0.000000e+000
2.147255e+003,0.000000e+000
2.148220e+003,0.000000e+000
2.149184e+003,0.000000e+000
2.150148e+003,0.000000e+000
2.151112e+003,0.000000e+000
2.152077e+003,0.000000e+000
2.153041e+003,0.000000e+000
2.154005e+003,0.000000e+000
2.154969e+003,0.000000e+000
2.155934e+003,0.000000e+000
2.156898e+003,0.000000e+000
2.157862e+003,0.000000e+000
2.158826e+003,0.000000e+000
2.159791e+003,0.000000e+000
2.160755e+003,0.000000e+000
2.161719e+003,0.000000e+000
2.162683e+003,0.000000e+000
2.163647e+003,0.000000e+000
2.164612e+003,0.000000e+000
2.165576e+003,0.000000e+000
2.166540e+003,0.000000e+000
2.167504e+003,0.000000e+000
2.168469e+003,0.000000e+000
2.169433e+003,0.000000e+000
2.170397e+003,0.000000e+000
2.171361e+003,0.000000e+000
2.172325e+003,0.000000e+000
2.173290e+003,0.000000e+000
2.174254e+003,0.000000e+000
2.175218e+003,0.000000e+000
2.176182e+003,0.000000e+000
2.177147e+003,0.000000e+000
2.178111e+003,0.000000e+000
2.179075e+003,0.000000e+000
2.180039e+003,0.000000e+000
2.181004e+003,0.000000e+000
2.181968e+003,0.000000e+000
2.182932e+003,0.000000e+000
2.183896e+003,0.000000e+000
2.184861e+003,0.000000e+000
2.185825e+003,0.000000e+000
2.186789e+003,0.000000e+000
2.187753e+003,0.000000e+000
2.188718e+003,0.000000e+000
2.189682e+003,0.000000e+000
2.190646e+003,0.000000e+000
2.191610e+003,0.000000e+000
2.192574e+003,0.000000e+000
2.193539e+003,0.000000e+000
2.194503e+003,0.000000e+000
2.195467e+003,0.000000e+000
2.196431e+003,0.000000e+000
2.197396e+003,0.000000e+000
2.198360e+003,0.000000e+000
2.199324e+003,0.000000e+000
2.200288e+003,0.000000e+000
2.201252e+003,0.000000e+000
2.202217e+003,0.000000e+000
2.203181e+003,0.000000e+000
2.204145e+003,0.000000e+000
2.205109e+003,0.000000e+000
2.206074e+003,0.000000e+000
2.207038e+003,0.000000e+000
2.208002e+003,0.000000e+000
2.208966e+003,0.000000e+000
2.209931e+003,0.000000e+000
2.210895e+003,0.000000e+000
2.211859e+003,0.000000e+000
2.212823e+003,0.000000e+000
2.213788e+003,0.000000e+000
2.214752e+003,0.000000e+000
2.215716e+003,0.000000e+000
2.216680e+003,0.000000e+000
2.217645e+003,0.000000e+000
2.218609e+003,0.000000e+000
2.219573e+003,0.000000e+000
2.220537e+003,0.000000e+000
2.221501e+003,0.000000e+000
2.222466e+003,0.000000e+000
2.223430e+003,0.000000e+000
2.224394e+003,0.000000e+000
2.225358e+003,0.000000e+000
2.226323e+003,0.000000e+000
2.227287e+003,0.000000e+000
2.228251e+003,0.000000e+000
2.229215e+003,0.000000e+000
2.230179e+003,0.000000e+000
2.231144e+003,0.000000e+000
2.232108e+003,0.000000e+000
2.233072e+003,0.000000e+000
2.234036e+003,0.000000e+000
2.235001e+003,0.000000e+000
2.235965e+003,0.000000e+000
2.236929e+003,0.000000e+000
2.237893e+003,0.000000e+000
2.238858e+003,0.000000e+000
2.239822e+003,0.000000e+000
2.240786e+003,0.000000e+000
2.241750e+003,0.000000e+000
2.242715e+003,0.000000e+000
2.243679e+003,0.000000e+000
2.244643e+003,0.000000e+000
2.245607e+003,0.000000e+000
2.246572e+003,0.000000e+000
2.247536e+003,0.000000e+000
2.248500e+003,0.000000e+000
2.249464e+003,0.000000e+000
2.250428e+003,0.000000e+000
2.251393e+003,0.000000e+000
2.252357e+003,0.000000e+000
2.253321e+003,0.000000e+000
2.254285e+003,0.000000e+000
2.255250e+003,0.000000e+000
2.256214e+003,0.000000e+000
2.257178e+003,0.000000e+000
2.258142e+003,0.000000e+000
2.259106e+003,0.000000e+000
2.260071e+003,0.000000e+000
2.261035e+003,0.000000e+000
2.261999e+003,0.000000e+000
2.262963e+003,0.000000e+000
2.263928e+003,0.000000e+000
2.264892e+003,0.000000e+000
2.265856e+003,0.000000e+000
2.266820e+003,0.000000e+000
2.267785e+003,0.000000e+000
2.268749e+003,0.000000e+000
2.269713e+003,0.000000e+000
2.270677e+003,0.000000e+000
2.271642e+003,0.000000e+000
2.272606e+003,0.000000e+000
2.273570e+003,0.000000e+000
2.274534e+003,0.000000e+000
2.275499e+003,0.000000e+000
2.276463e+003,0.000000e+000
2.277427e+003,0.000000e+000
2.278391e+003,0.000000e+000
2.279355e+003,0.000000e+000
2.280320e+003,0.000000e+000
2.281284e+003,0.000000e+000
2.282248e+003,0.000000e+000
2.283212e+003,0.000000e+000
2.284177e+003,0.000000e+000
2.285141e+003,0.000000e+000
2.286105e+003,0.000000e+000
2.287069e+003,0.000000e+000
2.288033e+003,0.000000e+000
2.288998e+003,0.000000e+000
2.289962e+003,0.000000e+000
2.290926e+003,0.000000e+000
2.291890e+003,0.000000e+000
2.292855e+003,0.000000e+000
2.293819e+003,0.000000e+000
2.294783e+003,0.000000e+000
2.295747e+003,0.000000e+000
2.296712e+003,0.000000e+000
2.297676e+003,0.000000e+000
2.298640e+003,0.000000e+000
2.299604e+003,0.000000e+000
2.300569e+003,0.000000e+000
2.301533e+003,0.000000e+000
2.302497e+003,0.000000e+000
2.303461e+003,0.000000e+000
2.304426e+003,0.000000e+000
2.305390e+003,0.000000e+000
2.306354e+003,0.000000e+000
2.307318e+003,0.000000e+000
2.308282e+003,0.000000e+000
2.309247e+003,0.000000e+000
2.310211e+003,0.000000e+000
2.311175e+003,0.000000e+000
2.312139e+003,0.000000e+000
2.313104e+003,0.000000e+000
2.314068e+003,0.000000e+000
2.315032e+003,0.000000e+000
2.315996e+003,0.000000e+000
2.316960e+003,0.000000e+000
2.317925e+003,0.000000e+000
2.318889e+003,0.000000e+000
2.319853e+003,0.000000e+000
2.320817e+003,0.000000e+000
2.321782e+003,0.000000e+000
2.322746e+003,0.000000e+000
2.323710e+003,0.000000e+000
2.324674e+003,0.000000e+000
2.325639e+003,0.000000e+000
2.326603e+003,0.000000e+000
2.327567e+003,0.000000e+000
2.328531e+003,0.000000e+000
2.329496e+003,0.000000e+000
2.330460e+003,0.000000e+000
2.331424e+003,0.000000e+000
2.332388e+003,0.000000e+000
2.333353e+003,0.000000e+000
2.334317e+003,0.000000e+000
2.335281e+003,0.000000e+000
2.336245e+003,0.000000e+000
2.337209e+003,0.000000e+000
2.338174e+003,0.000000e+000
2.339138e+003,0.000000e+000
2.340102e+003,0.000000e+000
2.341066e+003,0.000000e+000
2.342031e+003,0.000000e+000
2.342995e+003,0.000000e+000
2.343959e+003,0.000000e+000
2.344923e+003,0.000000e+000
2.345887e+003,0.000000e+000
2.346852e+003,0.000000e+000
2.347816e+003,0.000000e+000
2.348780e+003,0.000000e+000
2.349744e+003,0.000000e+000
2.350709e+003,0.000000e+000
2.351673e+003,0.000000e+000
2.352637e+003,0.000000e+000
2.353601e+003,0.000000e+000
2.354566e+003,0.000000e+000
2.355530e+003,0.000000e+000
2.356494e+003,0.000000e+000
2.357458e+003,0.000000e+000
2.358423e+003,0.000000e+000
2.359387e+003,0.000000e+000
2.360351e+003,0.000000e+000
2.361315e+003,0.000000e+000
2.362280e+003,0.000000e+000
2.363244e+003,0.000000e+000
2.364208e+003,0.000000e+000
2.365172e+003,0.000000e+000
2.366136e+003,0.000000e+000
2.367101e+003,0.000000e+000
2.368065e+003,0.000000e+000
2.369029e+003,0.000000e+000
2.369993e+003,0.000000e+000
2.370958e+003,0.000000e+000
2.371922e+003,0.000000e+000
2.372886e+003,0.000000e+000
2.373850e+003,0.000000e+000
2.374814e+003,0.000000e+000
2.375779e+003,0.000000e+000
2.376743e+003,0.000000e+000
2.377707e+003,0.000000e+000
2.378671e+003,0.000000e+000
2.379636e+003,0.000000e+000
2.380600e+003,0.000000e+000
2.381564e+003,0.000000e+000
2.382528e+003,0.000000e+000
2.383493e+003,0.000000e+000
2.384457e+003,0.000000e+000
2.385421e+003,0.000000e+000
2.386385e+003,0.000000e+000
2.387350e+003,0.000000e+000
2.388314e+003,0.000000e+000
2.389278e+003,0.000000e+000
2.390242e+003,0.000000e+000
2.391207e+003,0.000000e+000
2.392171e+003,0.000000e+000
2.393135e+003,0.000000e+000
2.394099e+003,0.000000e+000
2.395063e+003,0.000000e+000
2.396028e+003,0.000000e+000
2.396992e+003,0.000000e+000
2.397956e+003,0.000000e+000
2.398920e+003,0.000000e+000
2.399885e+003,0.000000e+000
2.400849e+003,0.000000e+000
2.401813e+003,0.000000e+000
2.402777e+003,0.000000e+000
2.403741e+003,0.000000e+000
2.404706e+003,0.000000e+000
2.405670e+003,0.000000e+000
2.406634e+003,0.000000e+000
2.407598e+003,0.000000e+000
2.408563e+003,0.000000e+000
2.409527e+003,0.000000e+000
2.410491e+003,0.000000e+000
2.411455e+003,0.000000e+000
2.412420e+003,0.000000e+000
2.413384e+003,0.000000e+000
2.414348e+003,0.000000e+000
2.415312e+003,0.000000e+000
2.416277e+003,0.000000e+000
2.417241e+003,0.000000e+000
2.418205e+003,0.000000e+000
2.419169e+003,0.000000e+000
2.420134e+003,0.000000e+000
2.421098e+003,0.000000e+000
2.422062e+003,0.000000e+000
2.423026e+003,0.000000e+000
2.423990e+003,0.000000e+000
2.424955e+003,0.000000e+000
2.425919e+003,0.000000e+000
2.426883e+003,0.000000e+000
2.427847e+003,0.000000e+000
2.428812e+003,0.000000e+000
2.429776e+003,0.000000e+000
2.430740e+003,0.000000e+000
2.431704e+003,0.000000e+000
2.432668e+003,0.000000e+000
2.433633e+003,0.000000e+000
2.434597e+003,0.000000e+000
2.435561e+003,0.000000e+000
2.436525e+003,0.000000e+000
2.437490e+003,0.000000e+000
2.438454e+003,0.000000e+000
2.439418e+003,0.000000e+000
2.440382e+003,0.000000e+000
2.441347e+003,0.000000e+000
2.442311e+003,0.000000e+000
2.443275e+003,0.000000e+000
2.444239e+003,0.000000e+000
2.445204e+003,0.000000e+000
2.446168e+003,0.000000e+000
2.447132e+003,0.000000e+000
2.448096e+003,0.000000e+000
2.449061e+003,0.000000e+000
2.450025e+003,0.000000e+000
2.450989e+003,0.000000e+000
2.451953e+003,0.000000e+000
2.452917e+003,0.000000e+000
2.453882e+003,0.000000e+000
2.454846e+003,0.000000e+000
2.455810e+003,0.000000e+000
2.456774e+003,0.000000e+000
2.457739e+003,0.000000e+000
2.458703e+003,0.000000e+000
2.459667e+003,0.000000e+000
2.460631e+003,0.000000e+000
2.461595e+003,0.000000e+000
2.462560e+003,0.000000e+000
2.463524e+003,0.000000e+000
2.464488e+003,0.000000e+000
2.465452e+003,0.000000e+000
2.466417e+003,0.000000e+000
2.467381e+003,0.000000e+000
2.468345e+003,0.000000e+000
2.469309e+003,0.000000e+000
2.470274e+003,0.000000e+000
2.471238e+003,0.000000e+000
2.472202e+003,0.000000e+000
2.473166e+003,0.000000e+000
2.474131e+003,0.000000e+000
2.475095e+003,0.000000e+000
2.476059e+003,0.000000e+000
2.477023e+003,0.000000e+000
2.477988e+003,0.000000e+000
2.478952e+003,0.000000e+000
2.479916e+003,0.000000e+000
2.480880e+003,0.000000e+000
2.481844e+003,0.000000e+000
2.482809e+003,0.000000e+000
2.483773e+003,0.000000e+000
2.484737e+003,0.000000e+000
2.485701e+003,0.000000e+000
2.486666e+003,0.000000e+000
2.487630e+003,0.000000e+000
2.488594e+003,0.000000e+000
2.489558e+003,0.000000e+000
2.490522e+003,0.000000e+000
2.491487e+003,0.000000e+000
2.492451e+003,0.000000e+000
2.493415e+003,0.000000e+000
2.494379e+003,0.000000e+000
2.495344e+003,0.000000e+000
2.496308e+003,0.000000e+000
2.497272e+003,0.000000e+000
2.498236e+003,0.000000e+000
2.499201e+003,0.000000e+000
2.500165e+003,0.000000e+000
2.501129e+003,0.000000e+000
2.502093e+003,0.000000e+000
2.503058e+003,0.000000e+000
2.504022e+003,0.000000e+000
2.504986e+003,0.000000e+000
2.505950e+003,0.000000e+000
2.506915e+003,0.000000e+000
2.507879e+003,0.000000e+000
2.508843e+003,0.000000e+000
2.509807e+003,0.000000e+000
2.510771e+003,0.000000e+000
2.511736e+003,0.000000e+000
2.512700e+003,0.000000e+000
2.513664e+003,0.000000e+000
2.514628e+003,0.000000e+000
2.515593e+003,0.000000e+000
2.516557e+003,0.000000e+000
2.517521e+003,0.000000e+000
2.518485e+003,0.000000e+000
2.519449e+003,0.000000e+000
2.520414e+003,0.000000e+000
2.521378e+003,0.000000e+000
2.522342e+003,0.000000e+000
2.523306e+003,0.000000e+000
2.524271e+003,0.000000e+000
2.525235e+003,0.000000e+000
2.526199e+003,0.000000e+000
2.527163e+003,0.000000e+000
2.528128e+003,0.000000e+000
2.529092e+003,0.000000e+000
2.530056e+003,0.000000e+000
2.531020e+003,0.000000e+000
2.531985e+003,0.000000e+000
2.532949e+003,0.000000e+000
2.533913e+003,0.000000e+000
2.534877e+003,0.000000e+000
2.535842e+003,0.000000e+000
2.536806e+003,0.000000e+000
2.537770e+003,0.000000e+000
2.538734e+003,0.000000e+000
2.539698e+003,0.000000e+000
2.540663e+003,0.000000e+000
2.541627e+003,0.000000e+000
2.542591e+003,0.000000e+000
2.543555e+003,0.000000e+000
2.544520e+003,0.000000e+000
2.545484e+003,0.000000e+000
2.546448e+003,0.000000e+000
2.547412e+003,0.000000e+000
2.548376e+003,0.000000e+000
2.549341e+003,0.000000e+000
2.550305e+003,0.000000e+000
2.551269e+003,0.000000e+000
2.552233e+003,0.000000e+000
2.553198e+003,0.000000e+000
2.554162e+003,0.000000e+000
2.555126e+003,0.000000e+000
2.556090e+003,0.000000e+000
2.557055e+003,0.000000e+000
2.558019e+003,0.000000e+000
2.558983e+003,0.000000e+000
2.559947e+003,0.000000e+000
2.560912e+003,0.000000e+000
2.561876e+003,0.000000e+000
2.562840e+003,0.000000e+000
2.563804e+003,0.000000e+000
2.564769e+003,0.000000e+000
2.565733e+003,0.000000e+000
2.566697e+003,0.000000e+000
2.567661e+003,0.000000e+000
2.568625e+003,0.000000e+000
2.569590e+003,0.000000e+000
2.570554e+003,0.000000e+000
2.571518e+003,0.000000e+000
2.572482e+003,0.000000e+000
2.573447e+003,0.000000e+000
2.574411e+003,0.000000e+000
2.575375e+003,0.000000e+000
2.576339e+003,0.000000e+000
2.577303e+003,0.000000e+000
2.578268e+003,0.000000e+000
2.579232e+003,0.000000e+000
2.580196e+003,0.000000e+000
2.581160e+003,0.000000e+000
2.582125e+003,0.000000e+000
2.583089e+003,0.000000e+000
2.584053e+003,0.000000e+000
2.585017e+003,0.000000e+000
2.585982e+003,0.000000e+000
2.586946e+003,0.000000e+000
2.587910e+003,0.000000e+000
2.588874e+003,0.000000e+000
2.589839e+003,0.000000e+000
2.590803e+003,0.000000e+000
2.591767e+003,0.000000e+000
2.592731e+003,0.000000e+000
2.593696e+003,0.000000e+000
2.594660e+003,0.000000e+000
2.595624e+003,0.000000e+000
2.596588e+003,0.000000e+000
2.597552e+003,0.000000e+000
2.598517e+003,0.000000e+000
2.599481e+003,0.000000e+000
2.600445e+003,0.000000e+000
2.601409e+003,0.000000e+000
2.602374e+003,0.000000e+000
2.603338e+003,0.000000e+000
2.604302e+003,0.000000e+000
2.605266e+003,0.000000e+000
2.606230e+003,0.000000e+000
2.607195e+003,0.000000e+000
2.608159e+003,0.000000e+000
2.609123e+003,0.000000e+000
2.610087e+003,0.000000e+000
2.611052e+003,0.000000e+000
2.612016e+003,0.000000e+000
2.612980e+003,0.000000e+000
2.613944e+003,0.000000e+000
2.614909e+003,0.000000e+000
2.615873e+003,0.000000e+000
2.616837e+003,0.000000e+000
2.617801e+003,0.000000e+000
2.618766e+003,0.000000e+000
2.619730e+003,0.000000e+000
2.620694e+003,0.000000e+000
2.621658e+003,0.000000e+000
2.622623e+003,0.000000e+000
2.623587e+003,0.000000e+000
2.624551e+003,0.000000e+000
2.625515e+003,0.000000e+000
2.626479e+003,0.000000e+000
2.627444e+003,0.000000e+000
2.628408e+003,0.000000e+000
2.629372e+003,0.000000e+000
2.630336e+003,0.000000e+000
2.631301e+003,0.000000e+000
2.632265e+003,0.000000e+000
2.633229e+003,0.000000e+000
2.634193e+003,0.000000e+000
2.635157e+003,0.000000e+000
2.636122e+003,0.000000e+000
2.637086e+003,0.000000e+000
2.638050e+003,0.000000e+000
2.639014e+003,0.000000e+000
2.639979e+003,0.000000e+000
2.640943e+003,0.000000e+000
2.641907e+003,0.000000e+000
2.642871e+003,0.000000e+000
2.643836e+003,0.000000e+000
2.644800e+003,0.000000e+000
2.645764e+003,0.000000e+000
2.646728e+003,0.000000e+000
2.647693e+003,0.000000e+000
2.648657e+003,0.000000e+000
2.649621e+003,0.000000e+000
2.650585e+003,0.000000e+000
2.651550e+003,0.000000e+000
2.652514e+003,0.000000e+000
2.653478e+003,0.000000e+000
2.654442e+003,0.000000e+000
2.655406e+003,0.000000e+000
2.656371e+003,0.000000e+000
2.657335e+003,0.000000e+000
2.658299e+003,0.000000e+000
2.659263e+003,0.000000e+000
2.660228e+003,0.000000e+000
2.661192e+003,0.000000e+000
2.662156e+003,0.000000e+000
2.663120e+003,0.000000e+000
2.664084e+003,0.000000e+000
2.665049e+003,0.000000e+000
2.666013e+003,0.000000e+000
2.666977e+003,0.000000e+000
2.667941e+003,0.000000e+000
2.668906e+003,0.000000e+000
2.669870e+003,0.000000e+000
2.670834e+003,0.000000e+000
2.671798e+003,0.000000e+000
2.672763e+003,0.000000e+000
2.673727e+003,0.000000e+000
2.674691e+003,0.000000e+000
2.675655e+003,0.000000e+000
2.676620e+003,0.000000e+000
2.677584e+003,0.000000e+000
2.678548e+003,0.000000e+000
2.679512e+003,0.000000e+000
2.680477e+003,0.000000e+000
2.681441e+003,0.000000e+000
2.682405e+003,0.000000e+000
2.683369e+003,0.000000e+000
2.684333e+003,0.000000e+000
2.685298e+003,0.000000e+000
2.686262e+003,0.000000e+000
2.687226e+003,0.000000e+000
2.688190e+003,0.000000e+000
2.689155e+003,0.000000e+000
2.690119e+003,0.000000e+000
2.691083e+003,0.000000e+000
2.692047e+003,0.000000e+000
2.693011e+003,0.000000e+000
2.693976e+003,0.000000e+000
2.694940e+003,0.000000e+000
2.695904e+003,0.000000e+000
2.696868e+003,0.000000e+000
2.697833e+003,0.000000e+000
2.698797e+003,0.000000e+000
2.699761e+003,0.000000e+000
2.700725e+003,0.000000e+000
2.701690e+003,0.000000e+000
2.702654e+003,0.000000e+000
2.703618e+003,0.000000e+000
2.704582e+003,0.000000e+000
2.705547e+003,0.000000e+000
2.706511e+003,0.000000e+000
2.707475e+003,0.000000e+000
2.708439e+003,0.000000e+000
2.709404e+003,0.000000e+000
2.710368e+003,0.000000e+000
2.711332e+003,0.000000e+000
2.712296e+003,0.000000e+000
2.713260e+003,0.000000e+000
2.714225e+003,0.000000e+000
2.715189e+003,0.000000e+000
2.716153e+003,0.000000e+000
2.717117e+003,0.000000e+000
2.718082e+003,0.000000e+000
2.719046e+003,0.000000e+000
2.720010e+003,0.000000e+000
2.720974e+003,0.000000e+000
2.721938e+003,0.000000e+000
2.722903e+003,0.000000e+000
2.723867e+003,0.000000e+000
2.724831e+003,0.000000e+000
2.725795e+003,0.000000e+000
2.726760e+003,0.000000e+000
2.727724e+003,0.000000e+000
2.728688e+003,0.000000e+000
2.729652e+003,0.000000e+000
2.730617e+003,0.000000e+000
2.731581e+003,0.000000e+000
2.732545e+003,0.000000e+000
2.733509e+003,0.000000e+000
2.734474e+003,0.000000e+000
2.735438e+003,0.000000e+000
2.736402e+003,0.000000e+000
2.737366e+003,0.000000e+000
2.738331e+003,0.000000e+000
2.739295e+003,0.000000e+000
2.740259e+003,0.000000e+000
2.741223e+003,0.000000e+000
2.742188e+003,0.000000e+000
2.743152e+003,0.000000e+000
2.744116e+003,0.000000e+000
2.745080e+003,0.000000e+000
2.746044e+003,0.000000e+000
2.747009e+003,0.000000e+000
2.747973e+003,0.000000e+000
2.748937e+003,0.000000e+000
2.749901e+003,0.000000e+000
2.750865e+003,0.000000e+000
2.751830e+003,0.000000e+000
2.752794e+003,0.000000e+000
2.753758e+003,0.000000e+000
2.754722e+003,0.000000e+000
2.755687e+003,0.000000e+000
2.756651e+003,0.000000e+000
2.757615e+003,0.000000e+000
2.758579e+003,0.000000e+000
2.759544e+003,0.000000e+000
2.760508e+003,0.000000e+000
2.761472e+003,0.000000e+000
2.762436e+003,0.000000e+000
2.763401e+003,0.000000e+000
2.764365e+003,0.000000e+000
2.765329e+003,0.000000e+000
2.766293e+003,0.000000e+000
2.767258e+003,0.000000e+000
2.768222e+003,0.000000e+000
2.769186e+003,0.000000e+000
2.770150e+003,0.000000e+000
2.771115e+003,0.000000e+000
2.772079e+003,0.000000e+000
2.773043e+003,0.000000e+000
2.774007e+003,0.000000e+000
2.774971e+003,0.000000e+000
2.775936e+003,0.000000e+000
2.776900e+003,0.000000e+000
2.777864e+003,0.000000e+000
2.778828e+003,0.000000e+000
2.779792e+003,0.000000e+000
2.780757e+003,0.000000e+000
2.781721e+003,0.000000e+000
2.782685e+003,0.000000e+000
2.783649e+003,0.000000e+000
2.784614e+003,0.000000e+000
2.785578e+003,0.000000e+000
2.786542e+003,0.000000e+000
2.787506e+003,0.000000e+000
2.788471e+003,0.000000e+000
2.789435e+003,0.000000e+000
2.790399e+003,0.000000e+000
2.791363e+003,0.000000e+000
2.792328e+003,0.000000e+000
2.793292e+003,0.000000e+000
2.794256e+003,0.000000e+000
2.795220e+003,0.000000e+000
2.796185e+003,0.000000e+000
2.797149e+003,0.000000e+000
2.798113e+003,0.000000e+000
2.799077e+003,0.000000e+000
2.800042e+003,0.000000e+000
2.801006e+003,0.000000e+000
2.801970e+003,0.000000e+000
2.802934e+003,0.000000e+000
2.803898e+003,0.000000e+000
2.804863e+003,0.000000e+000
2.805827e+003,0.000000e+000
2.806791e+003,0.000000e+000
2.807755e+003,0.000000e+000
2.808719e+003,0.000000e+000
2.809684e+003,0.000000e+000
2.810648e+003,0.000000e+000
2.811612e+003,0.000000e+000
2.812576e+003,0.000000e+000
2.813541e+003,0.000000e+000
2.814505e+003,0.000000e+000
2.815469e+003,0.000000e+000
2.816433e+003,0.000000e+000
2.817398e+003,0.000000e+000
2.818362e+003,0.000000e+000
2.819326e+003,0.000000e+000
2.820290e+003,0.000000e+000
2.821255e+003,0.000000e+000
2.822219e+003,0.000000e+000
2.823183e+003,0.000000e+000
2.824147e+003,0.000000e+000
2.825112e+003,0.000000e+000
2.826076e+003,0.000000e+000
2.827040e+003,0.000000e+000
2.828004e+003,0.000000e+000
2.828969e+003,0.000000e+000
2.829933e+003,0.000000e+000
2.830897e+003,0.000000e+000
2.831861e+003,0.000000e+000
2.832825e+003,0.000000e+000
2.833790e+003,0.000000e+000
2.834754e+003,0.000000e+000
2.835718e+003,0.000000e+000
2.836682e+003,0.000000e+000
2.837646e+003,0.000000e+000
2.838611e+003,0.000000e+000
2.839575e+003,0.000000e+000
2.840539e+003,0.000000e+000
2.841503e+003,0.000000e+000
2.842468e+003,0.000000e+000
2.843432e+003,0.000000e+000
2.844396e+003,0.000000e+000
2.845360e+003,0.000000e+000
2.846325e+003,0.000000e+000
2.847289e+003,0.000000e+000
2.848253e+003,0.000000e+000
2.849217e+003,0.000000e+000
2.850182e+003,0.000000e+000
2.851146e+003,0.000000e+000
2.852110e+003,0.000000e+000
2.853074e+003,0.000000e+000
2.854039e+003,0.000000e+000
2.855003e+003,0.000000e+000
2.855967e+003,0.000000e+000
2.856931e+003,0.000000e+000
2.857896e+003,0.000000e+000
2.858860e+003,0.000000e+000
2.859824e+003,0.000000e+000
2.860788e+003,0.000000e+000
2.861752e+003,0.000000e+000
2.862717e+003,0.000000e+000
2.863681e+003,0.000000e+000
2.864645e+003,0.000000e+000
2.865609e+003,0.000000e+000
2.866573e+003,0.000000e+000
2.867538e+003,0.000000e+000
2.868502e+003,0.000000e+000
2.869466e+003,0.000000e+000
2.870430e+003,0.000000e+000
2.871395e+003,0.000000e+000
2.872359e+003,0.000000e+000
2.873323e+003,0.000000e+000
2.874287e+003,0.000000e+000
2.875252e+003,0.000000e+000
2.876216e+003,0.000000e+000
2.877180e+003,0.000000e+000
2.878144e+003,0.000000e+000
2.879109e+003,0.000000e+000
2.880073e+003,0.000000e+000
2.881037e+003,0.000000e+000
2.882001e+003,0.000000e+000
2.882966e+003,0.000000e+000
2.883930e+003,0.000000e+000
2.884894e+003,0.000000e+000
2.885858e+003,0.000000e+000
2.886823e+003,0.000000e+000
2.887787e+003,0.000000e+000
2.888751e+003,0.000000e+000
2.889715e+003,0.000000e+000
2.890679e+003,0.000000e+000
2.891644e+003,0.000000e+000
2.892608e+003,0.000000e+000
2.893572e+003,0.000000e+000
2.894536e+003,0.000000e+000
2.895500e+003,0.000000e+000
2.896465e+003,0.000000e+000
2.897429e+003,0.000000e+000
2.898393e+003,0.000000e+000
2.899357e+003,0.000000e+000
2.900322e+003,0.000000e+000
2.901286e+003,0.000000e+000
2.902250e+003,0.000000e+000
2.903214e+003,0.000000e+000
2.904179e+003,0.000000e+000
2.905143e+003,0.000000e+000
2.906107e+003,0.000000e+000
2.907071e+003,0.000000e+000
2.908036e+003,0.000000e+000
2.909000e+003,0.000000e+000
2.909964e+003,0.000000e+000
2.910928e+003,0.000000e+000
2.911893e+003,0.000000e+000
2.912857e+003,0.000000e+000
2.913821e+003,0.000000e+000
2.914785e+003,0.000000e+000
2.915750e+003,0.000000e+000
2.916714e+003,0.000000e+000
2.917678e+003,0.000000e+000
2.918642e+003,0.000000e+000
2.919606e+003,0.000000e+000
2.920571e+003,0.000000e+000
2.921535e+003,0.000000e+000
2.922499e+003,0.000000e+000
2.923463e+003,0.000000e+000
2.924427e+003,0.000000e+000
2.925392e+003,0.000000e+000
2.926356e+003,0.000000e+000
2.927320e+003,0.000000e+000
2.928284e+003,0.000000e+000
2.929249e+003,0.000000e+000
2.930213e+003,0.000000e+000
2.931177e+003,0.000000e+000
2.932141e+003,0.000000e+000
2.933106e+003,0.000000e+000
2.934070e+003,0.000000e+000
2.935034e+003,0.000000e+000
2.935998e+003,0.000000e+000
2.936963e+003,0.000000e+000
2.937927e+003,0.000000e+000
2.938891e+003,0.000000e+000
2.939855e+003,0.000000e+000
2.940820e+003,0.000000e+000
2.941784e+003,0.000000e+000
2.942748e+003,0.000000e+000
2.943712e+003,0.000000e+000
2.944677e+003,0.000000e+000
2.945641e+003,0.000000e+000
2.946605e+003,0.000000e+000
2.947569e+003,0.000000e+000
2.948533e+003,0.000000e+000
2.949498e+003,0.000000e+000
2.950462e+003,0.000000e+000
2.951426e+003,0.000000e+000
2.952390e+003,0.000000e+000
2.953354e+003,0.000000e+000
2.954319e+003,0.000000e+000
2.955283e+003,0.000000e+000
2.956247e+003,0.000000e+000
2.957211e+003,0.000000e+000
2.958176e+003,0.000000e+000
2.959140e+003,0.000000e+000
2.960104e+003,0.000000e+000
2.961068e+003,0.000000e+000
2.962033e+003,0.000000e+000
2.962997e+003,0.000000e+000
2.963961e+003,0.000000e+000
2.964925e+003,0.000000e+000
2.965890e+003,0.000000e+000
2.966854e+003,0.000000e+000
2.967818e+003,0.000000e+000
2.968782e+003,0.000000e+000
2.969747e+003,0.000000e+000
2.970711e+003,0.000000e+000
2.971675e+003,0.000000e+000
2.972639e+003,0.000000e+000
2.973604e+003,0.000000e+000
2.974568e+003,0.000000e+000
2.975532e+003,0.000000e+000
2.976496e+003,0.000000e+000
2.977460e+003,0.000000e+000
2.978425e+003,0.000000e+000
2.979389e+003,0.000000e+000
2.980353e+003,0.000000e+000
2.981317e+003,0.000000e+000
2.982281e+003,0.000000e+000
2.983246e+003,0.000000e+000
2.984210e+003,0.000000e+000
2.985174e+003,0.000000e+000
2.986138e+003,0.000000e+000
2.987103e+003,0.000000e+000
2.988067e+003,0.000000e+000
2.989031e+003,0.000000e+000
2.989995e+003,0.000000e+000
2.990960e+003,0.000000e+000
2.991924e+003,0.000000e+000
2.992888e+003,0.000000e+000
2.993852e+003,0.000000e+000
2.994817e+003,0.000000e+000
2.995781e+003,0.000000e+000
2.996745e+003,0.000000e+000
2.997709e+003,0.000000e+000
2.998674e+003,0.000000e+000
2.999638e+003,0.000000e+000
3.000602e+003,0.000000e+000
3.001566e+003,0.000000e+000
3.002531e+003,0.000000e+000
3.003495e+003,0.000000e+000
3.004459e+003,0.000000e+000
3.005423e+003,0.000000e+000
3.006387e+003,0.000000e+000
3.007352e+003,0.000000e+000
3.008316e+003,0.000000e+000
3.009280e+003,0.000000e+000
3.010244e+003,0.000000e+000
3.011208e+003,0.000000e+000
3.012173e+003,0.000000e+000
3.013137e+003,0.000000e+000
3.014101e+003,0.000000e+000
3.015065e+003,0.000000e+000
3.016030e+003,0.000000e+000
3.016994e+003,0.000000e+000
3.017958e+003,0.000000e+000
3.018922e+003,0.000000e+000
3.019887e+003,0.000000e+000
3.020851e+003,0.000000e+000
3.021815e+003,0.000000e+000
3.022779e+003,0.000000e+000
3.023744e+003,0.000000e+000
3.024708e+003,0.000000e+000
3.025672e+003,0.000000e+000
3.026636e+003,0.000000e+000
3.027601e+003,0.000000e+000
3.028565e+003,0.000000e+000
3.029529e+003,0.000000e+000
3.030493e+003,0.000000e+000
3.031458e+003,0.000000e+000
3.032422e+003,0.000000e+000
3.033386e+003,0.000000e+000
3.034350e+003,0.000000e+000
3.035314e+003,0.000000e+000
3.036279e+003,0.000000e+000
3.037243e+003,0.000000e+000
3.038207e+003,0.000000e+000
3.039171e+003,0.000000e+000
3.040135e+003,0.000000e+000
3.041100e+003,0.000000e+000
3.042064e+003,0.000000e+000
3.043028e+003,0.000000e+000
3.043992e+003,0.000000e+000
3.044957e+003,0.000000e+000
3.045921e+003,0.000000e+000
3.046885e+003,0.000000e+000
3.047849e+003,0.000000e+000
3.048814e+003,0.000000e+000
3.049778e+003,0.000000e+000
3.050742e+003,0.000000e+000
3.051706e+003,0.000000e+000
3.052671e+003,0.000000e+000
3.053635e+003,0.000000e+000
3.054599e+003,0.000000e+000
3.055563e+003,0.000000e+000
3.056528e+003,0.000000e+000
3.057492e+003,0.000000e+000
3.058456e+003,0.000000e+000
3.059420e+003,0.000000e+000
3.060385e+003,0.000000e+000
3.061349e+003,0.000000e+000
3.062313e+003,0.000000e+000
3.063277e+003,0.000000e+000
3.064241e+003,0.000000e+000
3.065206e+003,0.000000e+000
3.066170e+003,0.000000e+000
3.067134e+003,0.000000e+000
3.068098e+003,0.000000e+000
3.069063e+003,0.000000e+000
3.070027e+003,0.000000e+000
3.070991e+003,0.000000e+000
3.071955e+003,0.000000e+000
3.072920e+003,0.000000e+000
3.073884e+003,0.000000e+000
3.074848e+003,0.000000e+000
3.075812e+003,0.000000e+000
3.076777e+003,0.000000e+000
3.077741e+003,0.000000e+000
3.078705e+003,0.000000e+000
3.079669e+003,0.000000e+000
3.080634e+003,0.000000e+000
3.081598e+003,0.000000e+000
3.082562e+003,0.000000e+000
3.083526e+003,0.000000e+000
3.084490e+003,0.000000e+000
3.085455e+003,0.000000e+000
3.086419e+003,0.000000e+000
3.087383e+003,0.000000e+000
3.088347e+003,0.000000e+000
3.089312e+003,0.000000e+000
3.090276e+003,0.000000e+000
3.091240e+003,0.000000e+000
3.092204e+003,0.000000e+000
3.093168e+003,0.000000e+000
3.094133e+003,0.000000e+000
3.095097e+003,0.000000e+000
3.096061e+003,0.000000e+000
3.097025e+003,0.000000e+000
3.097990e+003,0.000000e+000
3.098954e+003,0.000000e+000
3.099918e+003,0.000000e+000
3.100882e+003,0.000000e+000
3.101847e+003,0.000000e+000
3.102811e+003,0.000000e+000
3.103775e+003,0.000000e+000
3.104739e+003,0.000000e+000
3.105704e+003,0.000000e+000
3.106668e+003,0.000000e+000
3.107632e+003,0.000000e+000
3.108596e+003,0.000000e+000
3.109561e+003,0.000000e+000
3.110525e+003,0.000000e+000
3.111489e+003,0.000000e+000
3.112453e+003,0.000000e+000
3.113417e+003,0.000000e+000
3.114382e+003,0.000000e+000
3.115346e+003,0.000000e+000
3.116310e+003,0.000000e+000
3.117274e+003,0.000000e+000
3.118239e+003,0.000000e+000
3.119203e+003,0.000000e+000
3.120167e+003,0.000000e+000
3.121131e+003,0.000000e+000
3.122095e+003,0.000000e+000
3.123060e+003,0.000000e+000
3.124024e+003,0.000000e+000
3.124988e+003,0.000000e+000
3.125952e+003,0.000000e+000
3.126917e+003,0.000000e+000
3.127881e+003,0.000000e+000
3.128845e+003,0.000000e+000
3.129809e+003,0.000000e+000
3.130774e+003,0.000000e+000
3.131738e+003,0.000000e+000
3.132702e+003,0.000000e+000
3.133666e+003,0.000000e+000
3.134631e+003,0.000000e+000
3.135595e+003,0.000000e+000
3.136559e+003,0.000000e+000
3.137523e+003,0.000000e+000
3.138488e+003,0.000000e+000
3.139452e+003,0.000000e+000
3.140416e+003,0.000000e+000
3.141380e+003,0.000000e+000
3.142344e+003,0.000000e+000
3.143309e+003,0.000000e+000
3.144273e+003,0.000000e+000
3.145237e+003,0.000000e+000
3.146201e+003,0.000000e+000
3.147166e+003,0.000000e+000
3.148130e+003,0.000000e+000
3.149094e+003,0.000000e+000
3.150058e+003,0.000000e+000
3.151022e+003,0.000000e+000
3.151987e+003,0.000000e+000
3.152951e+003,0.000000e+000
3.153915e+003,0.000000e+000
3.154879e+003,0.000000e+000
3.155844e+003,0.000000e+000
3.156808e+003,0.000000e+000
3.157772e+003,0.000000e+000
3.158736e+003,0.000000e+000
3.159701e+003,0.000000e+000
3.160665e+003,0.000000e+000
3.161629e+003,0.000000e+000
3.162593e+003,0.000000e+000
3.163558e+003,0.000000e+000
3.164522e+003,0.000000e+000
3.165486e+003,0.000000e+000
3.166450e+003,0.000000e+000
3.167415e+003,0.000000e+000
3.168379e+003,0.000000e+000
3.169343e+003,0.000000e+000
3.170307e+003,0.000000e+000
3.171271e+003,0.000000e+000
3.172236e+003,0.000000e+000
3.173200e+003,0.000000e+000
3.174164e+003,0.000000e+000
3.175128e+003,0.000000e+000
3.176093e+003,0.000000e+000
3.177057e+003,0.000000e+000
3.178021e+003,0.000000e+000
3.178985e+003,0.000000e+000
3.179949e+003,0.000000e+000
3.180914e+003,0.000000e+000
3.181878e+003,0.000000e+000
3.182842e+003,0.000000e+000
3.183806e+003,0.000000e+000
3.184771e+003,0.000000e+000
3.185735e+003,0.000000e+000
3.186699e+003,0.000000e+000
3.187663e+003,0.000000e+000
3.188628e+003,0.000000e+000
3.189592e+003,0.000000e+000
3.190556e+003,0.000000e+000
3.191520e+003,0.000000e+000
3.192485e+003,0.000000e+000
3.193449e+003,0.000000e+000
3.194413e+003,0.000000e+000
3.195377e+003,0.000000e+000
3.196342e+003,0.000000e+000
3.197306e+003,0.000000e+000
3.198270e+003,0.000000e+000
3.199234e+003,0.000000e+000
3.200198e+003,0.000000e+000
3.201163e+003,0.000000e+000
3.202127e+003,0.000000e+000
3.203091e+003,0.000000e+000
3.204055e+003,0.000000e+000
3.205020e+003,0.000000e+000
3.205984e+003,0.000000e+000
3.206948e+003,0.000000e+000
3.207912e+003,0.000000e+000
3.208876e+003,0.000000e+000
3.209841e+003,0.000000e+000
3.210805e+003,0.000000e+000
3.211769e+003,0.000000e+000
3.212733e+003,0.000000e+000
3.213698e+003,0.000000e+000
3.214662e+003,0.000000e+000
3.215626e+003,0.000000e+000
3.216590e+003,0.000000e+000
3.217555e+003,0.000000e+000
3.218519e+003,0.000000e+000
3.219483e+003,0.000000e+000
3.220447e+003,0.000000e+000
3.221412e+003,0.000000e+000
3.222376e+003,0.000000e+000
3.223340e+003,0.000000e+000
3.224304e+003,0.000000e+000
3.225269e+003,0.000000e+000
3.226233e+003,0.000000e+000
3.227197e+003,0.000000e+000
3.228161e+003,0.000000e+000
3.229125e+003,0.000000e+000
3.230090e+003,0.000000e+000
3.231054e+003,0.000000e+000
3.232018e+003,0.000000e+000
3.232982e+003,0.000000e+000
3.233947e+003,0.000000e+000
3.234911e+003,0.000000e+000
3.235875e+003,0.000000e+000
3.236839e+003,0.000000e+000
3.237803e+003,0.000000e+000
3.238768e+003,0.000000e+000
3.239732e+003,0.000000e+000
3.240696e+003,0.000000e+000
3.241660e+003,0.000000e+000
3.242625e+003,0.000000e+000
3.243589e+003,0.000000e+000
3.244553e+003,0.000000e+000
3.245517e+003,0.000000e+000
3.246482e+003,0.000000e+000
3.247446e+003,0.000000e+000
3.248410e+003,0.000000e+000
3.249374e+003,0.000000e+000
3.250339e+003,0.000000e+000
3.251303e+003,0.000000e+000
3.252267e+003,0.000000e+000
3.253231e+003,0.000000e+000
3.254196e+003,0.000000e+000
3.255160e+003,0.000000e+000
3.256124e+003,0.000000e+000
3.257088e+003,0.000000e+000
3.258052e+003,0.000000e+000
3.259017e+003,0.000000e+000
3.259981e+003,0.000000e+000
3.260945e+003,0.000000e+000
3.261909e+003,0.000000e+000
3.262874e+003,0.000000e+000
3.263838e+003,0.000000e+000
3.264802e+003,0.000000e+000
3.265766e+003,0.000000e+000
3.266730e+003,0.000000e+000
3.267695e+003,0.000000e+000
3.268659e+003,0.000000e+000
3.269623e+003,0.000000e+000
3.270587e+003,0.000000e+000
3.271552e+003,0.000000e+000
3.272516e+003,0.000000e+000
3.273480e+003,0.000000e+000
3.274444e+003,0.000000e+000
3.275409e+003,0.000000e+000
3.276373e+003,0.000000e+000
3.277337e+003,0.000000e+000
3.278301e+003,0.000000e+000
3.279266e+003,0.000000e+000
3.280230e+003,0.000000e+000
3.281194e+003,0.000000e+000
3.282158e+003,0.000000e+000
3.283123e+003,0.000000e+000
3.284087e+003,0.000000e+000
3.285051e+003,0.000000e+000
3.286015e+003,0.000000e+000
3.286979e+003,0.000000e+000
3.287944e+003,0.000000e+000
3.288908e+003,0.000000e+000
3.289872e+003,0.000000e+000
3.290836e+003,0.000000e+000
3.291801e+003,0.000000e+000
3.292765e+003,0.000000e+000
3.293729e+003,0.000000e+000
3.294693e+003,0.000000e+000
3.295657e+003,0.000000e+000
3.296622e+003,0.000000e+000
3.297586e+003,0.000000e+000
3.298550e+003,0.000000e+000
3.299514e+003,0.000000e+000
3.300479e+003,0.000000e+000
3.301443e+003,0.000000e+000
3.302407e+003,0.000000e+000
3.303371e+003,0.000000e+000
3.304336e+003,0.000000e+000
3.305300e+003,0.000000e+000
3.306264e+003,0.000000e+000
3.307228e+003,0.000000e+000
3.308193e+003,0.000000e+000
3.309157e+003,0.000000e+000
3.310121e+003,0.000000e+000
3.311085e+003,0.000000e+000
3.312050e+003,0.000000e+000
3.313014e+003,0.000000e+000
3.313978e+003,0.000000e+000
3.314942e+003,0.000000e+000
3.315906e+003,0.000000e+000
3.316871e+003,0.000000e+000
3.317835e+003,0.000000e+000
3.318799e+003,0.000000e+000
3.319763e+003,0.000000e+000
3.320728e+003,0.000000e+000
3.321692e+003,0.000000e+000
3.322656e+003,0.000000e+000
3.323620e+003,0.000000e+000
3.324584e+003,0.000000e+000
3.325549e+003,0.000000e+000
3.326513e+003,0.000000e+000
3.327477e+003,0.000000e+000
3.328441e+003,0.000000e+000
3.329406e+003,0.000000e+000
3.330370e+003,0.000000e+000
3.331334e+003,0.000000e+000
3.332298e+003,0.000000e+000
3.333263e+003,0.000000e+000
3.334227e+003,0.000000e+000
3.335191e+003,0.000000e+000
3.336155e+003,0.000000e+000
3.337120e+003,0.000000e+000
3.338084e+003,0.000000e+000
3.339048e+003,0.000000e+000
3.340012e+003,0.000000e+000
3.340977e+003,0.000000e+000
3.341941e+003,0.000000e+000
3.342905e+003,0.000000e+000
3.343869e+003,0.000000e+000
3.344833e+003,0.000000e+000
3.345798e+003,0.000000e+000
3.346762e+003,0.000000e+000
3.347726e+003,0.000000e+000
3.348690e+003,0.000000e+000
3.349655e+003,0.000000e+000
3.350619e+003,0.000000e+000
3.351583e+003,0.000000e+000
3.352547e+003,0.000000e+000
3.353511e+003,0.000000e+000
3.354476e+003,0.000000e+000
3.355440e+003,0.000000e+000
3.356404e+003,0.000000e+000
3.357368e+003,0.000000e+000
3.358333e+003,0.000000e+000
3.359297e+003,0.000000e+000
3.360261e+003,0.000000e+000
3.361225e+003,0.000000e+000
3.362190e+003,0.000000e+000
3.363154e+003,0.000000e+000
3.364118e+003,0.000000e+000
3.365082e+003,0.000000e+000
3.366047e+003,0.000000e+000
3.367011e+003,0.000000e+000
3.367975e+003,0.000000e+000
3.368939e+003,0.000000e+000
3.369904e+003,0.000000e+000
3.370868e+003,0.000000e+000
3.371832e+003,0.000000e+000
3.372796e+003,0.000000e+000
3.373760e+003,0.000000e+000
3.374725e+003,0.000000e+000
3.375689e+003,0.000000e+000
3.376653e+003,0.000000e+000
3.377617e+003,0.000000e+000
3.378582e+003,0.000000e+000
3.379546e+003,0.000000e+000
3.380510e+003,0.000000e+000
3.381474e+003,0.000000e+000
3.382438e+003,0.000000e+000
3.383403e+003,0.000000e+000
3.384367e+003,0.000000e+000
3.385331e+003,0.000000e+000
3.386295e+003,0.000000e+000
3.387260e+003,0.000000e+000
3.388224e+003,0.000000e+000
3.389188e+003,0.000000e+000
3.390152e+003,0.000000e+000
3.391117e+003,0.000000e+000
3.392081e+003,0.000000e+000
3.393045e+003,0.000000e+000
3.394009e+003,0.000000e+000
3.394974e+003,0.000000e+000
3.395938e+003,0.000000e+000
3.396902e+003,0.000000e+000
3.397866e+003,0.000000e+000
3.398831e+003,0.000000e+000
3.399795e+003,0.000000e+000
3.400759e+003,0.000000e+000
3.401723e+003,0.000000e+000
3.402688e+003,0.000000e+000
3.403652e+003,0.000000e+000
3.404616e+003,0.000000e+000
3.405580e+003,0.000000e+000
3.406544e+003,0.000000e+000
3.407509e+003,0.000000e+000
3.408473e+003,0.000000e+000
3.409437e+003,0.000000e+000
3.410401e+003,0.000000e+000
3.411365e+003,0.000000e+000
3.412330e+003,0.000000e+000
3.413294e+003,0.000000e+000
3.414258e+003,0.000000e+000
3.415222e+003,0.000000e+000
3.416187e+003,0.000000e+000
3.417151e+003,0.000000e+000
3.418115e+003,0.000000e+000
3.419079e+003,0.000000e+000
3.420044e+003,0.000000e+000
3.421008e+003,0.000000e+000
3.421972e+003,0.000000e+000
3.422936e+003,0.000000e+000
3.423901e+003,0.000000e+000
3.424865e+003,0.000000e+000
3.425829e+003,0.000000e+000
3.426793e+003,0.000000e+000
3.427758e+003,0.000000e+000
3.428722e+003,0.000000e+000
3.429686e+003,0.000000e+000
3.430650e+003,0.000000e+000
3.431615e+003,0.000000e+000
3.432579e+003,0.000000e+000
3.433543e+003,0.000000e+000
3.434507e+003,0.000000e+000
3.435471e+003,0.000000e+000
3.436436e+003,0.000000e+000
3.437400e+003,0.000000e+000
3.438364e+003,0.000000e+000
3.439328e+003,0.000000e+000
3.440292e+003,0.000000e+000
3.441257e+003,0.000000e+000
3.442221e+003,0.000000e+000
3.443185e+003,0.000000e+000
3.444149e+003,0.000000e+000
3.445114e+003,0.000000e+000
3.446078e+003,0.000000e+000
3.447042e+003,0.000000e+000
3.448006e+003,0.000000e+000
3.448971e+003,0.000000e+000
3.449935e+003,0.000000e+000
3.450899e+003,0.000000e+000
3.451863e+003,0.000000e+000
3.452828e+003,0.000000e+000
3.453792e+003,0.000000e+000
3.454756e+003,0.000000e+000
3.455720e+003,0.000000e+000
3.456685e+003,0.000000e+000
3.457649e+003,0.000000e+000
3.458613e+003,0.000000e+000
3.459577e+003,0.000000e+000
3.460542e+003,0.000000e+000
3.461506e+003,0.000000e+000
3.462470e+003,0.000000e+000
3.463434e+003,0.000000e+000
3.464398e+003,0.000000e+000
3.465363e+003,0.000000e+000
3.466327e+003,0.000000e+000
3.467291e+003,0.000000e+000
3.468255e+003,0.000000e+000
3.469219e+003,0.000000e+000
3.470184e+003,0.000000e+000
3.471148e+003,0.000000e+000
3.472112e+003,0.000000e+000
3.473076e+003,0.000000e+000
3.474041e+003,0.000000e+000
3.475005e+003,0.000000e+000
3.475969e+003,0.000000e+000
3.476933e+003,0.000000e+000
3.477898e+003,0.000000e+000
3.478862e+003,0.000000e+000
3.479826e+003,0.000000e+000
3.480790e+003,0.000000e+000
3.481755e+003,0.000000e+000
3.482719e+003,0.000000e+000
3.483683e+003,0.000000e+000
3.484647e+003,0.000000e+000
3.485612e+003,0.000000e+000
3.486576e+003,0.000000e+000
3.487540e+003,0.000000e+000
3.488504e+003,0.000000e+000
3.489469e+003,0.000000e+000
3.490433e+003,0.000000e+000
3.491397e+003,0.000000e+000
3.492361e+003,0.000000e+000
3.493325e+003,0.000000e+000
3.494290e+003,0.000000e+000
3.495254e+003,0.000000e+000
3.496218e+003,0.000000e+000
3.497182e+003,0.000000e+000
3.498146e+003,0.000000e+000
3.499111e+003,0.000000e+000
3.500075e+003,0.000000e+000
