5.003444e+002,4.140369e+001
5.013087e+002,4.129993e+001
5.022729e+002,3.803125e+001
5.032371e+002,3.344641e+001
5.042014e+002,3.127075e+001
5.051656e+002,3.132275e+001
5.061298e+002,3.224158e+001
5.070941e+002,3.268372e+001
5.080583e+002,3.216907e+001
5.090225e+002,3.164014e+001
5.099868e+002,3.116589e+001
5.109510e+002,3.056628e+001
5.119152e+002,2.963586e+001
5.128795e+002,2.838330e+001
5.138437e+002,2.769897e+001
5.148079e+002,2.934045e+001
5.157722e+002,3.064587e+001
5.167364e+002,2.955164e+001
5.177006e+002,2.611328e+001
5.186649e+002,2.260376e+001
5.196291e+002,2.304956e+001
5.205933e+002,2.564026e+001
5.215576e+002,2.742090e+001
5.225218e+002,2.753430e+001
5.234860e+002,2.625134e+001
5.244503e+002,2.479492e+001
5.254145e+002,2.400696e+001
5.263787e+002,2.347705e+001
5.273430e+002,2.307910e+001
5.283072e+002,2.302344e+001
5.292714e+002,2.320935e+001
5.302357e+002,2.224500e+001
5.311999e+002,2.261084e+001
5.321641e+002,2.789368e+001
5.331284e+002,3.357874e+001
5.340926e+002,3.530127e+001
5.350568e+002,3.086987e+001
5.360211e+002,2.494507e+001
5.369853e+002,2.309021e+001
5.379495e+002,2.268799e+001
5.389138e+002,2.106714e+001
5.398780e+002,1.722388e+001
5.408422e+002,1.239539e+001
5.418065e+002,1.041968e+001
5.427707e+002,1.093164e+001
5.437349e+002,1.211133e+001
5.446992e+002,1.370276e+001
5.456634e+002,1.532031e+001
5.466276e+002,1.586963e+001
5.475919e+002,1.449512e+001
5.485561e+002,1.354309e+001
5.495203e+002,1.247412e+001
5.504846e+002,1.150781e+001
5.514488e+002,1.152795e+001
5.524130e+002,1.417517e+001
5.533773e+002,1.583423e+001
5.543415e+002,1.374878e+001
5.553057e+002,1.042810e+001
5.562700e+002,8.344971e+000
5.572342e+002,8.912598e+000
5.581984e+002,1.076575e+001
5.591627e+002,1.091882e+001
5.601269e+002,1.051477e+001
5.610911e+002,1.145520e+001
5.620554e+002,1.464221e+001
5.630196e+002,1.932922e+001
5.639838e+002,2.116541e+001
5.649481e+002,1.883557e+001
5.659123e+002,1.573059e+001
5.668765e+002,1.305139e+001
5.678408e+002,1.094763e+001
5.688050e+002,8.520874e+000
5.697692e+002,2.911377e+000
5.707335e+002,-1.381958e+000
5.716977e+002,-1.887817e+000
5.726619e+002,-1.970215e-001
5.736262e+002,1.980591e+000
5.745904e+002,3.923584e+000
5.755546e+002,4.652954e+000
5.765189e+002,-3.979492e-002
5.774831e+002,-7.436646e+000
5.784473e+002,-1.118823e+001
5.794116e+002,-6.713135e+000
5.803758e+002,5.463745e+000
5.813400e+002,1.232556e+001
5.823043e+002,1.207361e+001
5.832685e+002,1.056348e+001
5.842327e+002,1.062708e+001
5.851970e+002,1.225769e+001
5.861612e+002,1.231995e+001
5.871254e+002,6.522217e+000
5.880897e+002,2.358643e+000
5.890539e+002,1.818726e+000
5.900181e+002,3.356323e+000
5.909824e+002,4.551880e+000
5.919466e+002,4.250244e+000
5.929108e+002,3.042725e+000
5.938751e+002,6.209717e-001
5.948393e+002,-1.882568e+000
5.958035e+002,-2.023926e+000
5.967678e+002,2.006714e+000
5.977320e+002,9.407593e+000
5.986962e+002,1.088574e+001
5.996605e+002,5.703125e+000
6.006247e+002,6.107178e-001
6.015889e+002,-1.423828e+000
6.025532e+002,-4.584961e-001
6.035174e+002,1.153442e+000
6.044816e+002,4.966187e+000
6.054459e+002,8.006958e+000
6.064101e+002,9.753540e+000
6.073743e+002,1.036853e+001
6.083386e+002,1.013611e+001
6.093028e+002,8.791260e+000
6.102670e+002,7.931885e+000
6.112313e+002,8.821167e+000
6.121955e+002,1.056360e+001
6.131597e+002,1.215442e+001
6.141240e+002,1.285815e+001
6.150882e+002,1.259570e+001
6.160524e+002,1.125720e+001
6.170167e+002,9.389526e+000
6.179809e+002,7.410156e+000
6.189451e+002,4.830200e+000
6.199094e+002,1.552368e+000
6.208736e+002,-5.046387e-001
6.218378e+002,1.257935e+000
6.228021e+002,2.866211e+000
6.237663e+002,4.531860e+000
6.247305e+002,5.944946e+000
6.256948e+002,6.095215e+000
6.266590e+002,3.153687e+000
6.276232e+002,4.459229e-001
6.285875e+002,1.265137e+000
6.295517e+002,3.684692e+000
6.305159e+002,5.562012e+000
6.314802e+002,5.503174e+000
6.324444e+002,3.776367e+000
6.334086e+002,1.532227e+000
6.343729e+002,-5.002441e-001
6.353371e+002,-1.693237e+000
6.363013e+002,-1.871948e+000
6.372656e+002,-1.607178e+000
6.382298e+002,-2.358032e+000
6.391940e+002,-6.125000e+000
6.401583e+002,-8.760742e+000
6.411225e+002,-8.878174e+000
6.420867e+002,-7.073120e+000
6.430510e+002,-4.231323e+000
6.440152e+002,-6.580811e-001
6.449794e+002,1.584229e+000
6.459437e+002,1.750366e+000
6.469079e+002,4.066162e-001
6.478721e+002,-2.714355e+000
6.488364e+002,-7.098633e+000
6.498006e+002,-1.072302e+001
6.507648e+002,-9.109985e+000
6.517291e+002,-4.649170e+000
6.526933e+002,-3.119019e+000
6.536575e+002,-5.816650e+000
6.546218e+002,-1.009314e+001
6.555860e+002,-1.066846e+001
6.565502e+002,-4.699097e+000
6.575145e+002,-1.223267e+000
6.584787e+002,-1.580688e+000
6.594429e+002,-2.881104e+000
6.604072e+002,-2.636475e+000
6.613714e+002,-2.681885e-001
6.623356e+002,1.385498e+000
6.632999e+002,-5.467529e-001
6.642641e+002,-3.160645e+000
6.652283e+002,-4.350830e+000
6.661926e+002,-3.799072e+000
6.671568e+002,-2.633179e+000
6.681210e+002,-2.518677e+000
6.690853e+002,-3.468750e+000
6.700495e+002,-4.881958e+000
6.710137e+002,-6.578247e+000
6.719780e+002,-7.156494e+000
6.729422e+002,-5.002686e+000
6.739064e+002,4.272461e-001
6.748707e+002,3.569458e+000
6.758349e+002,4.612061e+000
6.767991e+002,3.689331e+000
6.777634e+002,5.585938e-001
6.787276e+002,-3.928467e+000
6.796918e+002,-7.243530e+000
6.806561e+002,-9.862061e+000
6.816203e+002,-1.068115e+001
6.825845e+002,-7.158691e+000
6.835488e+002,-1.939575e+000
6.845130e+002,5.424805e-001
6.854772e+002,-3.182007e+000
6.864415e+002,-9.228271e+000
6.874057e+002,-1.030664e+001
6.883699e+002,-8.255127e+000
6.893342e+002,-4.797241e+000
6.902984e+002,-3.886719e-001
6.912626e+002,4.557251e+000
6.922269e+002,5.683350e+000
6.931911e+002,-6.015625e-001
6.941553e+002,-3.702637e+000
6.951196e+002,-1.230103e+000
6.960838e+002,3.068604e+000
6.970480e+002,3.224976e+000
6.980123e+002,-3.922241e+000
6.989765e+002,-9.148438e+000
6.999407e+002,-8.415405e+000
7.009050e+002,-5.195068e+000
7.018692e+002,-1.123169e+000
7.028334e+002,2.583740e+000
7.037977e+002,4.225220e+000
7.047619e+002,-5.137939e-001
7.057261e+002,-7.863770e+000
7.066904e+002,-1.095361e+001
7.076546e+002,-8.724243e+000
7.086188e+002,-3.642212e+000
7.095831e+002,5.755615e-001
7.105473e+002,3.821411e+000
7.115115e+002,4.712524e+000
7.124758e+002,1.481567e+000
7.134400e+002,-2.294189e+000
7.144042e+002,-4.081055e+000
7.153685e+002,-3.543701e+000
7.163327e+002,-2.899658e+000
7.172969e+002,-3.025024e+000
7.182612e+002,-3.197021e+000
7.192254e+002,-3.492188e+000
7.201896e+002,-3.975220e+000
7.211539e+002,-4.567627e+000
7.221181e+002,-5.069458e+000
7.230823e+002,-5.716553e+000
7.240466e+002,-7.440186e+000
7.250108e+002,-9.336670e+000
7.259750e+002,-1.003186e+001
7.269393e+002,-9.377930e+000
7.279035e+002,-8.147705e+000
7.288677e+002,-6.550171e+000
7.298320e+002,-5.554199e-002
7.307962e+002,3.990479e+000
7.317604e+002,3.866699e+000
7.327247e+002,1.706909e+000
7.336889e+002,-3.984375e-001
7.346531e+002,-3.277466e+000
7.356174e+002,-6.185669e+000
7.365816e+002,-6.359741e+000
7.375458e+002,-5.519043e+000
7.385101e+002,-5.366333e+000
7.394743e+002,-6.174561e+000
7.404385e+002,-6.572144e+000
7.414028e+002,-4.237061e+000
7.423670e+002,-1.541138e+000
7.433312e+002,-3.009644e+000
7.442955e+002,-8.337524e+000
7.452597e+002,-1.230347e+001
7.462239e+002,-8.575317e+000
7.471882e+002,5.544922e+000
7.481524e+002,1.390503e+001
7.491166e+002,1.138733e+001
7.500809e+002,7.945923e+000
7.510451e+002,7.859985e+000
7.520093e+002,1.017175e+001
7.529736e+002,1.047522e+001
7.539378e+002,6.467773e+000
7.549020e+002,2.229370e+000
7.558663e+002,-6.627197e-001
7.568306e+002,-2.019775e+000
7.577948e+002,-1.572388e+000
7.587590e+002,4.970703e-001
7.597233e+002,3.070313e+000
7.606875e+002,4.574097e+000
7.616517e+002,5.603882e+000
7.626160e+002,5.506104e+000
7.635802e+002,3.660889e+000
7.645444e+002,1.358521e+000
7.655087e+002,1.229736e+000
7.664729e+002,4.307495e+000
7.674371e+002,6.900635e+000
7.684014e+002,9.697266e+000
7.693656e+002,1.111731e+001
7.703298e+002,9.300293e+000
7.712941e+002,4.606689e+000
7.722583e+002,9.042969e-001
7.732225e+002,2.067505e+000
7.741868e+002,4.325806e+000
7.751510e+002,4.507568e+000
7.761152e+002,3.228394e+000
7.770795e+002,2.534790e+000
7.780437e+002,4.152344e+000
7.790079e+002,7.401245e+000
7.799722e+002,7.764038e+000
7.809364e+002,4.999512e+000
7.819006e+002,2.628174e+000
7.828649e+002,2.849976e+000
7.838291e+002,5.259155e+000
7.847933e+002,7.257324e+000
7.857576e+002,7.592529e+000
7.867218e+002,7.126099e+000
7.876860e+002,7.563721e+000
7.886503e+002,7.767090e+000
7.896145e+002,5.884888e+000
7.905787e+002,1.727783e+000
7.915430e+002,-1.474365e+000
7.925072e+002,1.635742e-001
7.934714e+002,3.233276e+000
7.944357e+002,5.525391e+000
7.953999e+002,7.047363e+000
7.963641e+002,7.798706e+000
7.973284e+002,7.434326e+000
7.982926e+002,5.887573e+000
7.992568e+002,4.656128e+000
8.002211e+002,2.598633e+000
8.011853e+002,-6.368408e-001
8.021495e+002,-5.310791e+000
8.031138e+002,-9.349121e+000
8.040780e+002,-8.225586e+000
8.050422e+002,2.137085e+000
8.060065e+002,1.001880e+001
8.069707e+002,9.792480e+000
8.079349e+002,5.864136e+000
8.088992e+002,2.095337e+000
8.098634e+002,5.115967e-001
8.108276e+002,1.629272e+000
8.117919e+002,7.693604e+000
8.127561e+002,1.446436e+001
8.137203e+002,1.512231e+001
8.146846e+002,9.800049e+000
8.156488e+002,3.289673e+000
8.166130e+002,8.879395e-001
8.175773e+002,3.054077e+000
8.185415e+002,5.348267e+000
8.195057e+002,7.040283e+000
8.204700e+002,8.300903e+000
8.214342e+002,9.422119e+000
8.223984e+002,1.018506e+001
8.233627e+002,9.779541e+000
8.243269e+002,7.147461e+000
8.252911e+002,5.630005e+000
8.262554e+002,8.352295e+000
8.272196e+002,1.202966e+001
8.281838e+002,1.234082e+001
8.291481e+002,8.232544e+000
8.301123e+002,3.314087e+000
8.310765e+002,4.330078e+000
8.320408e+002,1.067053e+001
8.330050e+002,1.517310e+001
8.339692e+002,1.767322e+001
8.349335e+002,1.833997e+001
8.358977e+002,1.708813e+001
8.368619e+002,1.400598e+001
8.378262e+002,1.166858e+001
8.387904e+002,8.195313e+000
8.397546e+002,6.498169e+000
8.407189e+002,8.699829e+000
8.416831e+002,1.300635e+001
8.426473e+002,1.623059e+001
8.436116e+002,1.685168e+001
8.445758e+002,1.716663e+001
8.455400e+002,1.932568e+001
8.465043e+002,2.114636e+001
8.474685e+002,2.098230e+001
8.484327e+002,1.905664e+001
8.493970e+002,1.673975e+001
8.503612e+002,1.529810e+001
8.513254e+002,1.441284e+001
8.522897e+002,1.483948e+001
8.532539e+002,1.737354e+001
8.542181e+002,1.903870e+001
8.551824e+002,1.816785e+001
8.561466e+002,1.594812e+001
8.571108e+002,1.602234e+001
8.580751e+002,1.772888e+001
8.590393e+002,2.008167e+001
8.600035e+002,2.509802e+001
8.609678e+002,3.070203e+001
8.619320e+002,3.418750e+001
8.628962e+002,3.446252e+001
8.638605e+002,3.342932e+001
8.648247e+002,3.436792e+001
8.657889e+002,3.591223e+001
8.667532e+002,3.488000e+001
8.677174e+002,3.087463e+001
8.686816e+002,2.694812e+001
8.696459e+002,2.713696e+001
8.706101e+002,3.274475e+001
8.715743e+002,3.570679e+001
8.725386e+002,3.419910e+001
8.735028e+002,3.283777e+001
8.744670e+002,3.203320e+001
8.754313e+002,3.120178e+001
8.763955e+002,2.935852e+001
8.773597e+002,2.577502e+001
8.783240e+002,2.430066e+001
8.792882e+002,2.975574e+001
8.802524e+002,3.632092e+001
8.812167e+002,3.896680e+001
8.821809e+002,3.684558e+001
8.831451e+002,3.225879e+001
8.841094e+002,2.809265e+001
8.850736e+002,2.512329e+001
8.860378e+002,2.578638e+001
8.870021e+002,3.046167e+001
8.879663e+002,3.514099e+001
8.889305e+002,3.751392e+001
8.898948e+002,3.762109e+001
8.908590e+002,3.664795e+001
8.918232e+002,3.360596e+001
8.927875e+002,3.269934e+001
8.937517e+002,3.623779e+001
8.947159e+002,4.099158e+001
8.956802e+002,4.411755e+001
8.966444e+002,4.448926e+001
8.976086e+002,4.257690e+001
8.985729e+002,3.844153e+001
8.995371e+002,3.437683e+001
9.005013e+002,3.355176e+001
9.014656e+002,3.585999e+001
9.024298e+002,3.877063e+001
9.033940e+002,3.984595e+001
9.043583e+002,3.894666e+001
9.053225e+002,3.973230e+001
9.062867e+002,4.480078e+001
9.072510e+002,4.698694e+001
9.082152e+002,4.476221e+001
9.091794e+002,4.215369e+001
9.101437e+002,4.351343e+001
9.111079e+002,4.949255e+001
9.120721e+002,5.478076e+001
9.130364e+002,5.522876e+001
9.140006e+002,5.345642e+001
9.149648e+002,5.040601e+001
9.159291e+002,4.744141e+001
9.168933e+002,4.595239e+001
9.178575e+002,4.655615e+001
9.188218e+002,4.844971e+001
9.197860e+002,5.053662e+001
9.207502e+002,5.258557e+001
9.217145e+002,5.247070e+001
9.226787e+002,4.950610e+001
9.236429e+002,4.624500e+001
9.246072e+002,4.603394e+001
9.255714e+002,4.936145e+001
9.265356e+002,5.004053e+001
9.274999e+002,4.368774e+001
9.284641e+002,3.756055e+001
9.294283e+002,3.443665e+001
9.303926e+002,3.385791e+001
9.313568e+002,3.462830e+001
9.323210e+002,3.619934e+001
9.332853e+002,3.735974e+001
9.342495e+002,3.520972e+001
9.352137e+002,3.135828e+001
9.361780e+002,2.847363e+001
9.371422e+002,2.774622e+001
9.381064e+002,2.988855e+001
9.390707e+002,3.562939e+001
9.400349e+002,4.529834e+001
9.409991e+002,5.078174e+001
9.419634e+002,4.932214e+001
9.429276e+002,4.746252e+001
9.438918e+002,4.666406e+001
9.448561e+002,4.690967e+001
9.458203e+002,4.799048e+001
9.467845e+002,5.006885e+001
9.477488e+002,5.322620e+001
9.487130e+002,5.936658e+001
9.496772e+002,6.494897e+001
9.506415e+002,6.657178e+001
9.516057e+002,6.447217e+001
9.525699e+002,6.098779e+001
9.535342e+002,5.825317e+001
9.544984e+002,5.605627e+001
9.554626e+002,5.569580e+001
9.564269e+002,5.881140e+001
9.573911e+002,6.125330e+001
9.583553e+002,6.093457e+001
9.593196e+002,5.924255e+001
9.602838e+002,5.817346e+001
9.612480e+002,5.726697e+001
9.622123e+002,5.822400e+001
9.631765e+002,6.388989e+001
9.641407e+002,6.969873e+001
9.651050e+002,7.445520e+001
9.660692e+002,7.696436e+001
9.670334e+002,7.573547e+001
9.679977e+002,7.019324e+001
9.689619e+002,6.326379e+001
9.699261e+002,5.971948e+001
9.708904e+002,5.805261e+001
9.718546e+002,5.591785e+001
9.728188e+002,5.224500e+001
9.737831e+002,4.875720e+001
9.747473e+002,4.866602e+001
9.757115e+002,5.336536e+001
9.766758e+002,5.528333e+001
9.776400e+002,5.144275e+001
9.786042e+002,4.971729e+001
9.795685e+002,5.352405e+001
9.805327e+002,5.878613e+001
9.814969e+002,5.996387e+001
9.824612e+002,5.567468e+001
9.834254e+002,5.151636e+001
9.843896e+002,5.266260e+001
9.853539e+002,5.583777e+001
9.863181e+002,5.825220e+001
9.872823e+002,5.910400e+001
9.882466e+002,5.829199e+001
9.892108e+002,5.634973e+001
9.901750e+002,5.489709e+001
9.911393e+002,5.798901e+001
9.921035e+002,6.563879e+001
9.930677e+002,7.379382e+001
9.940320e+002,8.481396e+001
9.949962e+002,9.595276e+001
9.959604e+002,1.042067e+002
9.969247e+002,1.096276e+002
9.978889e+002,1.152966e+002
9.988531e+002,1.214788e+002
9.998174e+002,1.271713e+002
1.000782e+003,1.325162e+002
1.001746e+003,1.380994e+002
1.002710e+003,1.452180e+002
1.003674e+003,1.538536e+002
1.004639e+003,1.612683e+002
1.005603e+003,1.623607e+002
1.006567e+003,1.560774e+002
1.007531e+003,1.520712e+002
1.008495e+003,1.512467e+002
1.009460e+003,1.509987e+002
1.010424e+003,1.497153e+002
1.011388e+003,1.480531e+002
1.012352e+003,1.482325e+002
1.013317e+003,1.517478e+002
1.014281e+003,1.534575e+002
1.015245e+003,1.526648e+002
1.016209e+003,1.485487e+002
1.017174e+003,1.397128e+002
1.018138e+003,1.271393e+002
1.019102e+003,1.130778e+002
1.020066e+003,9.899866e+001
1.021031e+003,8.714966e+001
1.021995e+003,8.490540e+001
1.022959e+003,8.930713e+001
1.023923e+003,8.970959e+001
1.024887e+003,8.178821e+001
1.025852e+003,6.944470e+001
1.026816e+003,5.866638e+001
1.027780e+003,4.995166e+001
1.028744e+003,4.363000e+001
1.029709e+003,4.001013e+001
1.030673e+003,3.804419e+001
1.031637e+003,3.786145e+001
1.032601e+003,3.851147e+001
1.033566e+003,3.966296e+001
1.034530e+003,4.134204e+001
1.035494e+003,4.196814e+001
1.036458e+003,3.772681e+001
1.037422e+003,3.194263e+001
1.038387e+003,3.114685e+001
1.039351e+003,3.486829e+001
1.040315e+003,3.834668e+001
1.041279e+003,3.811475e+001
1.042244e+003,3.562659e+001
1.043208e+003,3.660840e+001
1.044172e+003,4.356738e+001
1.045136e+003,4.809778e+001
1.046101e+003,5.006604e+001
1.047065e+003,5.052844e+001
1.048029e+003,4.890405e+001
1.048993e+003,4.586523e+001
1.049958e+003,4.419617e+001
1.050922e+003,4.618323e+001
1.051886e+003,4.876733e+001
1.052850e+003,4.804053e+001
1.053814e+003,4.600537e+001
1.054779e+003,4.553723e+001
1.055743e+003,4.693701e+001
1.056707e+003,4.799561e+001
1.057671e+003,4.601599e+001
1.058636e+003,4.080530e+001
1.059600e+003,3.689783e+001
1.060564e+003,3.545667e+001
1.061528e+003,3.557056e+001
1.062493e+003,3.716736e+001
1.063457e+003,3.871545e+001
1.064421e+003,3.906274e+001
1.065385e+003,3.841614e+001
1.066349e+003,3.770605e+001
1.067314e+003,3.765015e+001
1.068278e+003,3.742139e+001
1.069242e+003,3.647327e+001
1.070206e+003,3.538354e+001
1.071171e+003,3.417297e+001
1.072135e+003,3.278503e+001
1.073099e+003,3.230310e+001
1.074063e+003,3.545459e+001
1.075028e+003,4.316406e+001
1.075992e+003,4.618018e+001
1.076956e+003,4.186279e+001
1.077920e+003,3.693396e+001
1.078885e+003,3.526990e+001
1.079849e+003,3.521716e+001
1.080813e+003,3.228796e+001
1.081777e+003,2.499280e+001
1.082741e+003,2.060376e+001
1.083706e+003,2.454578e+001
1.084670e+003,2.936133e+001
1.085634e+003,3.197070e+001
1.086598e+003,3.211450e+001
1.087563e+003,2.979492e+001
1.088527e+003,2.566345e+001
1.089491e+003,2.222925e+001
1.090455e+003,2.361523e+001
1.091420e+003,2.983923e+001
1.092384e+003,3.295520e+001
1.093348e+003,3.069214e+001
1.094312e+003,2.833105e+001
1.095276e+003,3.013904e+001
1.096241e+003,3.513855e+001
1.097205e+003,3.906030e+001
1.098169e+003,4.111475e+001
1.099133e+003,4.101892e+001
1.100098e+003,3.543848e+001
1.101062e+003,3.153748e+001
1.102026e+003,3.599011e+001
1.102990e+003,4.589856e+001
1.103955e+003,5.353589e+001
1.104919e+003,5.408850e+001
1.105883e+003,5.033313e+001
1.106847e+003,4.828040e+001
1.107812e+003,4.794238e+001
1.108776e+003,4.904529e+001
1.109740e+003,5.273096e+001
1.110704e+003,5.550732e+001
1.111668e+003,5.392139e+001
1.112633e+003,5.006299e+001
1.113597e+003,5.139465e+001
1.114561e+003,6.053064e+001
1.115525e+003,6.870630e+001
1.116490e+003,7.328003e+001
1.117454e+003,7.587842e+001
1.118418e+003,7.732422e+001
1.119382e+003,7.868311e+001
1.120347e+003,8.089819e+001
1.121311e+003,8.388684e+001
1.122275e+003,8.592944e+001
1.123239e+003,8.517346e+001
1.124203e+003,8.306250e+001
1.125168e+003,8.418433e+001
1.126132e+003,9.012598e+001
1.127096e+003,9.676099e+001
1.128060e+003,9.991321e+001
1.129025e+003,1.003190e+002
1.129989e+003,1.030242e+002
1.130953e+003,1.089819e+002
1.131917e+003,1.150127e+002
1.132882e+003,1.219196e+002
1.133846e+003,1.277748e+002
1.134810e+003,1.299530e+002
1.135774e+003,1.303776e+002
1.136739e+003,1.330000e+002
1.137703e+003,1.399904e+002
1.138667e+003,1.501567e+002
1.139631e+003,1.620673e+002
1.140595e+003,1.755272e+002
1.141560e+003,1.902760e+002
1.142524e+003,2.073185e+002
1.143488e+003,2.245034e+002
1.144452e+003,2.370729e+002
1.145417e+003,2.481637e+002
1.146381e+003,2.703153e+002
1.147345e+003,3.074092e+002
1.148309e+003,3.453719e+002
1.149274e+003,3.809956e+002
1.150238e+003,4.170803e+002
1.151202e+003,4.578254e+002
1.152166e+003,5.003137e+002
1.153130e+003,5.400405e+002
1.154095e+003,5.736910e+002
1.155059e+003,5.975201e+002
1.156023e+003,6.067644e+002
1.156987e+003,6.023428e+002
1.157952e+003,5.945828e+002
1.158916e+003,5.856542e+002
1.159880e+003,5.711552e+002
1.160844e+003,5.452654e+002
1.161809e+003,5.103147e+002
1.162773e+003,4.734813e+002
1.163737e+003,4.343485e+002
1.164701e+003,3.959246e+002
1.165666e+003,3.563004e+002
1.166630e+003,3.216963e+002
1.167594e+003,2.944081e+002
1.168558e+003,2.734288e+002
1.169522e+003,2.575509e+002
1.170487e+003,2.462528e+002
1.171451e+003,2.402123e+002
1.172415e+003,2.406996e+002
1.173379e+003,2.459305e+002
1.174344e+003,2.476248e+002
1.175308e+003,2.460466e+002
1.176272e+003,2.442072e+002
1.177236e+003,2.453517e+002
1.178201e+003,2.455524e+002
1.179165e+003,2.374478e+002
1.180129e+003,2.202632e+002
1.181093e+003,2.067272e+002
1.182057e+003,2.024594e+002
1.183022e+003,1.986647e+002
1.183986e+003,1.900210e+002
1.184950e+003,1.817156e+002
1.185914e+003,1.799691e+002
1.186879e+003,1.845056e+002
1.187843e+003,1.894135e+002
1.188807e+003,1.895546e+002
1.189771e+003,1.872111e+002
1.190736e+003,1.912719e+002
1.191700e+003,2.027614e+002
1.192664e+003,2.083937e+002
1.193628e+003,2.052079e+002
1.194593e+003,1.994481e+002
1.195557e+003,1.949417e+002
1.196521e+003,1.911205e+002
1.197485e+003,1.863523e+002
1.198449e+003,1.802930e+002
1.199414e+003,1.741475e+002
1.200378e+003,1.682556e+002
1.201342e+003,1.627714e+002
1.202306e+003,1.575414e+002
1.203271e+003,1.523361e+002
1.204235e+003,1.470848e+002
1.205199e+003,1.419120e+002
1.206163e+003,1.369843e+002
1.207128e+003,1.324213e+002
1.208092e+003,1.283606e+002
1.209056e+003,1.231523e+002
1.210020e+003,1.170063e+002
1.210984e+003,1.097651e+002
1.211949e+003,1.005411e+002
1.212913e+003,9.032751e+001
1.213877e+003,8.008252e+001
1.214841e+003,7.022595e+001
1.215806e+003,6.291895e+001
1.216770e+003,5.946204e+001
1.217734e+003,5.780591e+001
1.218698e+003,5.751941e+001
1.219663e+003,5.661829e+001
1.220627e+003,5.179968e+001
1.221591e+003,4.340027e+001
1.222555e+003,3.552649e+001
1.223520e+003,3.212952e+001
1.224484e+003,3.285767e+001
1.225448e+003,3.444934e+001
1.226412e+003,3.786096e+001
1.227376e+003,3.935034e+001
1.228341e+003,3.715466e+001
1.229305e+003,3.452051e+001
1.230269e+003,3.318140e+001
1.231233e+003,3.256165e+001
1.232198e+003,3.174231e+001
1.233162e+003,3.087402e+001
1.234126e+003,2.995667e+001
1.235090e+003,2.798706e+001
1.236055e+003,2.579590e+001
1.237019e+003,2.420422e+001
1.237983e+003,2.305078e+001
1.238947e+003,2.248108e+001
1.239911e+003,2.294348e+001
1.240876e+003,2.464587e+001
1.241840e+003,2.777185e+001
1.242804e+003,3.255591e+001
1.243768e+003,3.531775e+001
1.244733e+003,3.455493e+001
1.245697e+003,3.363867e+001
1.246661e+003,3.075000e+001
1.247625e+003,2.811646e+001
1.248590e+003,2.820752e+001
1.249554e+003,3.102930e+001
1.250518e+003,3.504944e+001
1.251482e+003,3.929480e+001
1.252447e+003,4.251477e+001
1.253411e+003,4.353625e+001
1.254375e+003,4.349121e+001
1.255339e+003,4.389319e+001
1.256303e+003,4.518774e+001
1.257268e+003,4.748059e+001
1.258232e+003,5.038831e+001
1.259196e+003,5.299512e+001
1.260160e+003,5.414429e+001
1.261125e+003,5.380969e+001
1.262089e+003,5.676099e+001
1.263053e+003,6.567444e+001
1.264017e+003,7.369629e+001
1.264982e+003,8.103540e+001
1.265946e+003,8.610339e+001
1.266910e+003,8.614868e+001
1.267874e+003,8.237988e+001
1.268839e+003,7.979333e+001
1.269803e+003,8.180518e+001
1.270767e+003,8.486646e+001
1.271731e+003,8.161719e+001
1.272695e+003,7.260913e+001
1.273660e+003,6.632800e+001
1.274624e+003,6.259583e+001
1.275588e+003,5.914844e+001
1.276552e+003,5.616919e+001
1.277517e+003,5.351074e+001
1.278481e+003,4.942212e+001
1.279445e+003,4.333606e+001
1.280409e+003,3.885120e+001
1.281374e+003,3.797058e+001
1.282338e+003,3.819128e+001
1.283302e+003,3.847144e+001
1.284266e+003,3.864734e+001
1.285230e+003,3.891956e+001
1.286195e+003,3.892395e+001
1.287159e+003,3.773865e+001
1.288123e+003,3.492566e+001
1.289087e+003,3.143921e+001
1.290052e+003,2.865442e+001
1.291016e+003,2.604114e+001
1.291980e+003,2.387866e+001
1.292944e+003,2.152441e+001
1.293909e+003,1.899194e+001
1.294873e+003,1.618433e+001
1.295837e+003,1.448669e+001
1.296801e+003,1.649194e+001
1.297766e+003,2.209387e+001
1.298730e+003,2.589954e+001
1.299694e+003,2.357751e+001
1.300658e+003,1.999585e+001
1.301622e+003,2.195776e+001
1.302587e+003,2.653564e+001
1.303551e+003,2.860425e+001
1.304515e+003,2.764905e+001
1.305479e+003,2.650330e+001
1.306444e+003,2.706592e+001
1.307408e+003,2.844409e+001
1.308372e+003,2.858618e+001
1.309336e+003,2.661487e+001
1.310301e+003,2.594177e+001
1.311265e+003,2.964514e+001
1.312229e+003,3.193884e+001
1.313193e+003,2.876807e+001
1.314157e+003,2.456873e+001
1.315122e+003,2.510632e+001
1.316086e+003,2.971863e+001
1.317050e+003,3.221448e+001
1.318014e+003,2.872766e+001
1.318979e+003,2.286487e+001
1.319943e+003,2.037207e+001
1.320907e+003,2.133240e+001
1.321871e+003,2.260706e+001
1.322836e+003,2.318115e+001
1.323800e+003,2.350391e+001
1.324764e+003,2.359387e+001
1.325728e+003,2.400513e+001
1.326693e+003,2.590784e+001
1.327657e+003,2.894849e+001
1.328621e+003,2.961938e+001
1.329585e+003,2.737341e+001
1.330549e+003,2.646936e+001
1.331514e+003,2.714624e+001
1.332478e+003,2.812549e+001
1.333442e+003,2.949597e+001
1.334406e+003,3.107251e+001
1.335371e+003,3.169556e+001
1.336335e+003,3.067676e+001
1.337299e+003,2.889136e+001
1.338263e+003,2.766846e+001
1.339228e+003,2.697449e+001
1.340192e+003,2.755029e+001
1.341156e+003,3.078528e+001
1.342120e+003,3.309412e+001
1.343084e+003,3.329016e+001
1.344049e+003,3.157434e+001
1.345013e+003,2.724023e+001
1.345977e+003,2.229370e+001
1.346941e+003,2.175281e+001
1.347906e+003,2.761780e+001
1.348870e+003,3.358374e+001
1.349834e+003,3.288318e+001
1.350798e+003,2.852930e+001
1.351763e+003,2.831665e+001
1.352727e+003,3.141272e+001
1.353691e+003,3.098486e+001
1.354655e+003,2.379138e+001
1.355620e+003,1.538306e+001
1.356584e+003,1.248230e+001
1.357548e+003,1.479272e+001
1.358512e+003,1.755701e+001
1.359476e+003,2.024731e+001
1.360441e+003,2.161560e+001
1.361405e+003,2.087305e+001
1.362369e+003,2.013538e+001
1.363333e+003,2.026135e+001
1.364298e+003,2.120679e+001
1.365262e+003,2.373059e+001
1.366226e+003,2.724158e+001
1.367190e+003,2.848315e+001
1.368155e+003,2.443958e+001
1.369119e+003,1.747217e+001
1.370083e+003,1.530750e+001
1.371047e+003,1.975647e+001
1.372011e+003,2.361926e+001
1.372976e+003,2.590259e+001
1.373940e+003,2.720886e+001
1.374904e+003,2.802905e+001
1.375868e+003,2.852246e+001
1.376833e+003,2.851794e+001
1.377797e+003,2.784705e+001
1.378761e+003,2.659412e+001
1.379725e+003,2.488208e+001
1.380690e+003,2.306091e+001
1.381654e+003,2.061646e+001
1.382618e+003,1.911609e+001
1.383582e+003,2.114490e+001
1.384547e+003,2.644861e+001
1.385511e+003,3.247412e+001
1.386475e+003,3.793530e+001
1.387439e+003,4.215222e+001
1.388403e+003,4.430334e+001
1.389368e+003,4.430286e+001
1.390332e+003,4.250513e+001
1.391296e+003,3.856006e+001
1.392260e+003,3.459338e+001
1.393225e+003,2.903210e+001
1.394189e+003,2.530652e+001
1.395153e+003,2.702209e+001
1.396117e+003,3.123389e+001
1.397082e+003,3.384692e+001
1.398046e+003,3.368274e+001
1.399010e+003,3.140527e+001
1.399974e+003,2.699805e+001
1.400938e+003,2.107922e+001
1.401903e+003,1.834924e+001
1.402867e+003,2.184253e+001
1.403831e+003,2.553369e+001
1.404795e+003,2.755554e+001
1.405760e+003,3.023450e+001
1.406724e+003,3.426892e+001
1.407688e+003,3.673682e+001
1.408652e+003,3.492517e+001
1.409617e+003,3.033301e+001
1.410581e+003,2.761707e+001
1.411545e+003,2.888281e+001
1.412509e+003,3.069739e+001
1.413474e+003,2.842078e+001
1.414438e+003,2.408948e+001
1.415402e+003,2.252222e+001
1.416366e+003,2.429834e+001
1.417330e+003,2.858655e+001
1.418295e+003,3.602136e+001
1.419259e+003,4.234314e+001
1.420223e+003,4.024084e+001
1.421187e+003,3.113953e+001
1.422152e+003,2.782788e+001
1.423116e+003,3.339124e+001
1.424080e+003,3.854248e+001
1.425044e+003,3.951892e+001
1.426009e+003,3.925330e+001
1.426973e+003,3.777820e+001
1.427937e+003,3.631860e+001
1.428901e+003,3.720117e+001
1.429865e+003,4.025256e+001
1.430830e+003,4.245398e+001
1.431794e+003,4.147656e+001
1.432758e+003,3.880957e+001
1.433722e+003,3.842676e+001
1.434687e+003,4.164319e+001
1.435651e+003,4.598889e+001
1.436615e+003,4.877393e+001
1.437579e+003,5.110400e+001
1.438544e+003,5.323108e+001
1.439508e+003,5.549219e+001
1.440472e+003,5.978369e+001
1.441436e+003,6.484033e+001
1.442401e+003,6.754663e+001
1.443365e+003,6.696167e+001
1.444329e+003,6.431055e+001
1.445293e+003,6.021765e+001
1.446257e+003,5.642603e+001
1.447222e+003,5.652429e+001
1.448186e+003,5.952576e+001
1.449150e+003,6.061792e+001
1.450114e+003,5.884290e+001
1.451079e+003,5.625977e+001
1.452043e+003,5.444519e+001
1.453007e+003,5.315381e+001
1.453971e+003,5.104517e+001
1.454936e+003,4.804626e+001
1.455900e+003,4.627197e+001
1.456864e+003,4.662292e+001
1.457828e+003,4.820728e+001
1.458792e+003,5.070410e+001
1.459757e+003,5.300854e+001
1.460721e+003,5.502124e+001
1.461685e+003,5.596326e+001
1.462649e+003,5.384692e+001
1.463614e+003,4.888171e+001
1.464578e+003,4.501770e+001
1.465542e+003,4.561731e+001
1.466506e+003,4.893738e+001
1.467471e+003,5.106726e+001
1.468435e+003,5.298999e+001
1.469399e+003,5.366931e+001
1.470363e+003,4.877600e+001
1.471328e+003,4.678149e+001
1.472292e+003,5.168298e+001
1.473256e+003,5.633984e+001
1.474220e+003,5.625500e+001
1.475184e+003,5.357544e+001
1.476149e+003,5.204871e+001
1.477113e+003,5.250220e+001
1.478077e+003,5.358557e+001
1.479041e+003,5.472913e+001
1.480006e+003,5.601184e+001
1.480970e+003,5.563513e+001
1.481934e+003,5.121436e+001
1.482898e+003,5.185376e+001
1.483863e+003,6.258105e+001
1.484827e+003,7.030823e+001
1.485791e+003,6.892017e+001
1.486755e+003,6.683813e+001
1.487719e+003,7.277222e+001
1.488684e+003,8.361096e+001
1.489648e+003,8.982922e+001
1.490612e+003,8.892859e+001
1.491576e+003,8.800122e+001
1.492541e+003,9.248950e+001
1.493505e+003,1.001417e+002
1.494469e+003,1.060770e+002
1.495433e+003,1.099377e+002
1.496398e+003,1.157352e+002
1.497362e+003,1.258571e+002
1.498326e+003,1.363723e+002
1.499290e+003,1.447595e+002
1.500255e+003,1.524191e+002
1.501219e+003,1.605507e+002
1.502183e+003,1.691055e+002
1.503147e+003,1.781434e+002
1.504111e+003,1.869053e+002
1.505076e+003,2.002816e+002
1.506040e+003,2.233633e+002
1.507004e+003,2.505129e+002
1.507968e+003,2.748536e+002
1.508933e+003,2.989417e+002
1.509897e+003,3.287893e+002
1.510861e+003,3.665112e+002
1.511825e+003,4.081547e+002
1.512790e+003,4.501492e+002
1.513754e+003,4.929276e+002
1.514718e+003,5.389594e+002
1.515682e+003,5.874768e+002
1.516646e+003,6.360564e+002
1.517611e+003,6.878438e+002
1.518575e+003,7.342128e+002
1.519539e+003,7.737583e+002
1.520503e+003,8.074841e+002
1.521468e+003,8.373665e+002
1.522432e+003,8.600151e+002
1.523396e+003,8.706781e+002
1.524360e+003,8.690190e+002
1.525325e+003,8.587405e+002
1.526289e+003,8.425352e+002
1.527253e+003,8.195403e+002
1.528217e+003,7.873534e+002
1.529182e+003,7.465713e+002
1.530146e+003,7.027200e+002
1.531110e+003,6.548677e+002
1.532074e+003,6.039434e+002
1.533039e+003,5.475465e+002
1.534003e+003,4.876763e+002
1.534967e+003,4.234293e+002
1.535931e+003,3.607733e+002
1.536896e+003,3.039531e+002
1.537860e+003,2.549213e+002
1.538824e+003,2.153564e+002
1.539788e+003,1.854448e+002
1.540752e+003,1.620363e+002
1.541717e+003,1.417047e+002
1.542681e+003,1.249829e+002
1.543645e+003,1.121970e+002
1.544609e+003,1.057606e+002
1.545573e+003,9.980920e+001
1.546538e+003,9.186230e+001
1.547502e+003,8.511694e+001
1.548466e+003,8.320325e+001
1.549430e+003,8.325220e+001
1.550395e+003,8.155872e+001
1.551359e+003,7.803455e+001
1.552323e+003,7.494409e+001
1.553287e+003,7.311218e+001
1.554252e+003,7.036560e+001
1.555216e+003,6.439709e+001
1.556180e+003,5.691150e+001
1.557144e+003,5.203149e+001
1.558109e+003,5.022351e+001
1.559073e+003,4.899536e+001
1.560037e+003,4.745667e+001
1.561001e+003,4.543079e+001
1.561966e+003,4.332593e+001
1.562930e+003,4.265771e+001
1.563894e+003,4.500781e+001
1.564858e+003,4.876050e+001
1.565823e+003,5.066650e+001
1.566787e+003,4.999744e+001
1.567751e+003,4.763770e+001
1.568715e+003,4.358008e+001
1.569679e+003,4.073096e+001
1.570644e+003,4.368787e+001
1.571608e+003,4.948474e+001
1.572572e+003,5.100012e+001
1.573536e+003,4.851465e+001
1.574500e+003,4.600696e+001
1.575465e+003,4.349805e+001
1.576429e+003,4.262756e+001
1.577393e+003,4.523242e+001
1.578357e+003,4.963196e+001
1.579322e+003,5.426038e+001
1.580286e+003,5.887683e+001
1.581250e+003,5.891467e+001
1.582214e+003,5.136243e+001
1.583179e+003,4.506567e+001
1.584143e+003,4.805408e+001
1.585107e+003,5.356604e+001
1.586071e+003,5.286792e+001
1.587036e+003,4.878442e+001
1.588000e+003,4.733240e+001
1.588964e+003,4.925220e+001
1.589928e+003,5.199097e+001
1.590893e+003,5.496838e+001
1.591857e+003,5.708044e+001
1.592821e+003,5.562085e+001
1.593785e+003,5.165784e+001
1.594750e+003,5.087415e+001
1.595714e+003,5.407300e+001
1.596678e+003,5.700745e+001
1.597642e+003,5.796790e+001
1.598606e+003,5.840369e+001
1.599571e+003,6.046997e+001
1.600535e+003,6.271118e+001
1.601499e+003,6.183325e+001
1.602463e+003,5.844836e+001
1.603427e+003,5.801489e+001
1.604392e+003,6.325427e+001
1.605356e+003,6.841357e+001
1.606320e+003,6.696509e+001
1.607284e+003,6.125549e+001
1.608249e+003,5.805151e+001
1.609213e+003,5.748157e+001
1.610177e+003,5.564209e+001
1.611141e+003,5.103760e+001
1.612106e+003,4.735022e+001
1.613070e+003,4.794250e+001
1.614034e+003,4.845044e+001
1.614998e+003,4.493750e+001
1.615963e+003,3.955164e+001
1.616927e+003,3.520190e+001
1.617891e+003,3.257068e+001
1.618855e+003,3.270374e+001
1.619820e+003,3.632471e+001
1.620784e+003,3.984631e+001
1.621748e+003,3.943298e+001
1.622712e+003,3.671741e+001
1.623677e+003,3.410828e+001
1.624641e+003,3.130981e+001
1.625605e+003,3.132361e+001
1.626569e+003,3.495154e+001
1.627533e+003,3.692664e+001
1.628498e+003,3.468054e+001
1.629462e+003,3.175391e+001
1.630426e+003,3.071521e+001
1.631390e+003,3.108130e+001
1.632354e+003,3.167566e+001
1.633319e+003,3.204773e+001
1.634283e+003,3.193677e+001
1.635247e+003,3.080371e+001
1.636211e+003,2.961841e+001
1.637176e+003,3.126770e+001
1.638140e+003,3.578772e+001
1.639104e+003,3.783240e+001
1.640068e+003,3.622229e+001
1.641033e+003,3.451184e+001
1.641997e+003,3.349048e+001
1.642961e+003,3.353125e+001
1.643925e+003,3.616858e+001
1.644890e+003,3.861804e+001
1.645854e+003,3.665112e+001
1.646818e+003,3.208447e+001
1.647782e+003,3.055762e+001
1.648747e+003,3.359180e+001
1.649711e+003,3.748303e+001
1.650675e+003,3.989441e+001
1.651639e+003,4.132654e+001
1.652604e+003,4.163428e+001
1.653568e+003,4.038599e+001
1.654532e+003,3.790308e+001
1.655496e+003,3.354553e+001
1.656460e+003,3.042664e+001
1.657425e+003,3.088538e+001
1.658389e+003,3.151904e+001
1.659353e+003,3.073218e+001
1.660317e+003,2.887305e+001
1.661281e+003,2.534412e+001
1.662246e+003,2.089551e+001
1.663210e+003,1.824573e+001
1.664174e+003,1.849731e+001
1.665138e+003,1.921497e+001
1.666103e+003,1.775854e+001
1.667067e+003,1.526917e+001
1.668031e+003,1.482654e+001
1.668995e+003,1.645923e+001
1.669960e+003,1.778906e+001
1.670924e+003,1.894385e+001
1.671888e+003,1.937976e+001
1.672852e+003,1.691968e+001
1.673817e+003,1.573169e+001
1.674781e+003,2.075049e+001
1.675745e+003,2.650293e+001
1.676709e+003,2.662573e+001
1.677674e+003,2.199719e+001
1.678638e+003,1.615259e+001
1.679602e+003,1.028870e+001
1.680566e+003,6.755737e+000
1.681531e+003,8.594116e+000
1.682495e+003,1.330127e+001
1.683459e+003,1.661084e+001
1.684423e+003,1.787732e+001
1.685387e+003,1.503125e+001
1.686352e+003,7.341797e+000
1.687316e+003,2.611572e+000
1.688280e+003,5.010254e+000
1.689244e+003,7.643799e+000
1.690208e+003,3.144531e+000
1.691173e+003,-2.672729e+000
1.692137e+003,-2.495239e+000
1.693101e+003,2.834595e+000
1.694065e+003,8.186035e+000
1.695030e+003,1.163574e+001
1.695994e+003,1.345679e+001
1.696958e+003,1.391614e+001
1.697922e+003,1.360010e+001
1.698887e+003,1.308447e+001
1.699851e+003,1.263098e+001
1.700815e+003,1.244165e+001
1.701779e+003,1.212622e+001
1.702744e+003,1.056250e+001
1.703708e+003,7.587158e+000
1.704672e+003,6.511597e+000
1.705636e+003,9.915039e+000
1.706601e+003,1.400439e+001
1.707565e+003,1.450061e+001
1.708529e+003,1.273047e+001
1.709493e+003,1.070898e+001
1.710458e+003,8.489136e+000
1.711422e+003,6.396851e+000
1.712386e+003,5.280396e+000
1.713350e+003,4.792725e+000
1.714314e+003,3.100220e+000
1.715279e+003,1.214355e+000
1.716243e+003,2.646484e+000
1.717207e+003,6.609009e+000
1.718171e+003,7.830078e+000
1.719135e+003,5.038818e+000
1.720100e+003,1.345093e+000
1.721064e+003,-1.909180e+000
1.722028e+003,-4.303833e+000
1.722992e+003,-4.500244e+000
1.723957e+003,-1.797363e+000
1.724921e+003,3.660767e+000
1.725885e+003,1.186914e+001
1.726849e+003,1.404382e+001
1.727814e+003,4.538330e+000
1.728778e+003,-2.337524e+000
1.729742e+003,1.377197e+000
1.730706e+003,8.200439e+000
1.731671e+003,1.095190e+001
1.732635e+003,9.389526e+000
1.733599e+003,4.849121e+000
1.734563e+003,-4.791260e-001
1.735528e+003,-1.519653e+000
1.736492e+003,3.995483e+000
1.737456e+003,1.066455e+001
1.738420e+003,1.214941e+001
1.739385e+003,9.048218e+000
1.740349e+003,5.969727e+000
1.741313e+003,3.666260e+000
1.742277e+003,7.509766e-001
1.743241e+003,-3.212524e+000
1.744206e+003,-5.706421e+000
1.745170e+003,-5.640869e+000
1.746134e+003,-5.816528e+000
1.747098e+003,-9.572144e+000
1.748063e+003,-1.321375e+001
1.749027e+003,-1.099316e+001
1.749991e+003,-4.713745e+000
1.750955e+003,-1.137207e+000
1.751919e+003,-2.338135e+000
1.752884e+003,-3.648315e+000
1.753848e+003,-1.159546e+000
1.754812e+003,2.305786e+000
1.755776e+003,1.229370e+000
1.756741e+003,-3.434326e+000
1.757705e+003,-3.879150e+000
1.758669e+003,9.643555e-001
1.759633e+003,4.938721e+000
1.760598e+003,8.160645e+000
1.761562e+003,7.984863e+000
1.762526e+003,1.699463e+000
1.763490e+003,-4.590820e+000
1.764455e+003,-6.160645e+000
1.765419e+003,-4.873169e+000
1.766383e+003,-4.664429e+000
1.767347e+003,-6.157227e+000
1.768312e+003,-7.252319e+000
1.769276e+003,-7.205444e+000
1.770240e+003,-5.998047e+000
1.771204e+003,-1.246704e+000
1.772168e+003,4.878662e+000
1.773133e+003,4.692993e+000
1.774097e+003,-1.095703e+000
1.775061e+003,-5.213379e+000
1.776025e+003,-7.872803e+000
1.776990e+003,-8.224243e+000
1.777954e+003,-3.706909e+000
1.778918e+003,9.693604e-001
1.779882e+003,1.635742e+000
1.780846e+003,-4.255371e-001
1.781811e+003,-3.564331e+000
1.782775e+003,-6.809082e+000
1.783739e+003,-7.221313e+000
1.784703e+003,-3.830933e+000
1.785668e+003,-8.448486e-001
1.786632e+003,-8.264160e-001
1.787596e+003,-2.674805e+000
1.788560e+003,-5.761475e+000
1.789525e+003,-7.901611e+000
1.790489e+003,-6.394775e+000
1.791453e+003,-2.759766e+000
1.792417e+003,-9.847412e-001
1.793382e+003,-1.682129e+000
1.794346e+003,-1.876099e+000
1.795310e+003,1.403809e-002
1.796274e+003,1.140503e+000
1.797239e+003,-1.735352e+000
1.798203e+003,-5.596069e+000
1.799167e+003,-3.210327e+000
1.800131e+003,5.833740e+000
1.801095e+003,6.188477e+000
1.802060e+003,-1.033179e+001
1.803024e+003,-1.831934e+001
1.803988e+003,-1.019678e+001
1.804952e+003,-6.417236e-001
1.805917e+003,5.180542e+000
1.806881e+003,7.551514e+000
1.807845e+003,5.927002e+000
1.808809e+003,2.592407e+000
1.809773e+003,1.554810e+000
1.810738e+003,3.230835e+000
1.811702e+003,4.046875e+000
1.812666e+003,1.734985e+000
1.813630e+003,-1.250610e+000
1.814595e+003,-1.695190e+000
1.815559e+003,-1.520996e-001
1.816523e+003,2.939331e+000
1.817487e+003,8.271362e+000
1.818452e+003,8.880371e+000
1.819416e+003,2.652954e+000
1.820380e+003,-4.583740e-001
1.821344e+003,5.128540e+000
1.822309e+003,8.572754e+000
1.823273e+003,2.832031e-002
1.824237e+003,-9.717163e+000
1.825201e+003,-9.179932e+000
1.826166e+003,-1.530396e+000
1.827130e+003,4.887085e+000
1.828094e+003,8.193604e+000
1.829058e+003,8.184204e+000
1.830022e+003,3.853760e+000
1.830987e+003,-4.822998e-001
1.831951e+003,-4.211426e-001
1.832915e+003,1.227295e+000
1.833879e+003,-5.004883e-002
1.834844e+003,-3.368042e+000
1.835808e+003,-5.506714e+000
1.836772e+003,-5.865356e+000
1.837736e+003,-5.810669e+000
1.838700e+003,-6.366455e+000
1.839665e+003,-5.690430e+000
1.840629e+003,-9.884033e-001
1.841593e+003,4.250122e+000
1.842557e+003,7.659912e-001
1.843522e+003,-1.124878e+001
1.844486e+003,-1.314685e+001
1.845450e+003,4.841919e+000
1.846414e+003,1.627441e+001
1.847379e+003,1.694373e+001
1.848343e+003,1.399426e+001
1.849307e+003,7.740967e+000
1.850271e+003,1.384644e+000
1.851236e+003,-2.944946e+000
1.852200e+003,-5.174805e+000
1.853164e+003,-5.773071e+000
1.854128e+003,-6.151001e+000
1.855093e+003,-7.836670e+000
1.856057e+003,-1.061316e+001
1.857021e+003,-1.334155e+001
1.857985e+003,-1.580212e+001
1.858949e+003,-1.700806e+001
1.859914e+003,-1.444714e+001
1.860878e+003,-8.503906e+000
1.861842e+003,-1.852539e+000
1.862806e+003,5.272583e+000
1.863771e+003,8.305054e+000
1.864735e+003,5.366211e+000
1.865699e+003,1.558960e+000
1.866663e+003,-1.120361e+000
1.867627e+003,-1.980957e+000
1.868592e+003,5.155029e-001
1.869556e+003,3.023193e+000
1.870520e+003,-5.491943e-001
1.871484e+003,-9.037598e+000
1.872449e+003,-1.388892e+001
1.873413e+003,-1.145068e+001
1.874377e+003,-6.841064e+000
1.875341e+003,-3.688110e+000
1.876306e+003,-3.918457e-002
1.877270e+003,6.673340e+000
1.878234e+003,1.245337e+001
1.879198e+003,1.368103e+001
1.880163e+003,1.134253e+001
1.881127e+003,6.514282e+000
1.882091e+003,7.047119e-001
1.883055e+003,-3.036743e+000
1.884020e+003,-3.585571e+000
1.884984e+003,-2.359009e+000
1.885948e+003,-5.142822e-001
1.886912e+003,1.135620e+000
1.887876e+003,7.109375e-001
1.888841e+003,-1.343872e+000
1.889805e+003,-3.125000e-002
1.890769e+003,5.937012e+000
1.891733e+003,7.967529e+000
1.892698e+003,2.568726e+000
1.893662e+003,-1.866821e+000
1.894626e+003,-1.729858e+000
1.895590e+003,-2.060547e-001
1.896554e+003,1.541382e+000
1.897519e+003,3.573608e+000
1.898483e+003,5.535645e+000
1.899447e+003,6.495728e+000
1.900411e+003,5.385498e+000
1.901376e+003,2.153564e+000
1.902340e+003,2.600098e-001
1.903304e+003,2.016724e+000
1.904268e+003,3.477295e+000
1.905233e+003,2.176758e+000
1.906197e+003,1.319580e-001
1.907161e+003,-5.887451e-001
1.908125e+003,-1.652832e-001
1.909090e+003,2.071533e-001
1.910054e+003,-2.075195e-002
1.911018e+003,-5.754395e-001
1.911982e+003,-8.852539e-001
1.912947e+003,-3.186035e-001
1.913911e+003,1.349976e+000
1.914875e+003,3.469727e+000
1.915839e+003,4.725342e+000
1.916803e+003,4.711792e+000
1.917768e+003,4.900635e+000
1.918732e+003,6.203613e+000
1.919696e+003,5.440430e+000
1.920660e+003,1.984497e+000
1.921625e+003,-4.520264e-001
1.922589e+003,-2.097046e+000
1.923553e+003,-2.131470e+000
1.924517e+003,2.928833e+000
1.925481e+003,7.308228e+000
1.926446e+003,4.345703e+000
1.927410e+003,-2.284668e+000
1.928374e+003,-5.507080e+000
1.929338e+003,-5.437378e+000
1.930303e+003,-5.801392e+000
1.931267e+003,-6.926147e+000
1.932231e+003,-6.260620e+000
1.933195e+003,-3.377319e+000
1.934160e+003,6.832275e-001
1.935124e+003,7.081909e+000
1.936088e+003,1.220593e+001
1.937052e+003,1.222937e+001
1.938017e+003,8.655884e+000
1.938981e+003,2.859009e+000
1.939945e+003,-3.502441e+000
1.940909e+003,-5.089111e+000
1.941874e+003,-3.061523e-001
1.942838e+003,3.398804e+000
1.943802e+003,-3.851318e-001
1.944766e+003,-6.768066e+000
1.945730e+003,-7.462646e+000
1.946695e+003,-3.751709e+000
1.947659e+003,-1.105103e+000
1.948623e+003,3.386230e-001
1.949587e+003,-5.247803e-001
1.950552e+003,-4.253906e+000
1.951516e+003,-6.616821e+000
1.952480e+003,-6.272217e+000
1.953444e+003,-4.130737e+000
1.954408e+003,3.883057e-001
1.955373e+003,4.129395e+000
1.956337e+003,3.063477e+000
1.957301e+003,-7.969971e-001
1.958265e+003,-3.825073e+000
1.959230e+003,-5.961792e+000
1.960194e+003,-5.972290e+000
1.961158e+003,-4.306763e+000
1.962122e+003,-2.397461e+000
1.963087e+003,9.020996e-001
1.964051e+003,2.960571e+000
1.965015e+003,1.485352e+000
1.965979e+003,3.118896e-001
1.966944e+003,3.652588e+000
1.967908e+003,8.536499e+000
1.968872e+003,9.415039e+000
1.969836e+003,6.465942e+000
1.970801e+003,4.431274e+000
1.971765e+003,5.348511e+000
1.972729e+003,6.386963e+000
1.973693e+003,4.738892e+000
1.974657e+003,2.836548e+000
1.975622e+003,4.526123e+000
1.976586e+003,8.178467e+000
1.977550e+003,1.118616e+001
1.978514e+003,1.331396e+001
1.979479e+003,1.103247e+001
1.980443e+003,4.087769e+000
1.981407e+003,1.422119e-001
1.982371e+003,2.473633e+000
1.983335e+003,6.692505e+000
1.984300e+003,9.322144e+000
1.985264e+003,9.766479e+000
1.986228e+003,7.154541e+000
1.987192e+003,2.646240e+000
1.988157e+003,2.823120e+000
1.989121e+003,9.975952e+000
1.990085e+003,1.138538e+001
1.991049e+003,2.373779e+000
1.992014e+003,-1.876587e+000
1.992978e+003,4.584717e+000
1.993942e+003,9.386719e+000
1.994906e+003,6.170044e+000
1.995871e+003,2.107178e+000
1.996835e+003,3.122314e+000
1.997799e+003,6.776367e+000
1.998763e+003,8.819092e+000
1.999728e+003,8.952148e+000
