5.003444e+002,2.723834e+001
5.013087e+002,2.713104e+001
5.022729e+002,2.580768e+001
5.032371e+002,2.385529e+001
5.042014e+002,2.199158e+001
5.051656e+002,2.033600e+001
5.061298e+002,1.941309e+001
5.070941e+002,1.972955e+001
5.080583e+002,2.148682e+001
5.090225e+002,2.234955e+001
5.099868e+002,2.184253e+001
5.109510e+002,2.122876e+001
5.119152e+002,2.105011e+001
5.128795e+002,2.136206e+001
5.138437e+002,2.220410e+001
5.148079e+002,2.621912e+001
5.157722e+002,2.857684e+001
5.167364e+002,2.536066e+001
5.177006e+002,1.719873e+001
5.186649e+002,9.305969e+000
5.196291e+002,9.217651e+000
5.205933e+002,1.300470e+001
5.215576e+002,1.637970e+001
5.225218e+002,1.839679e+001
5.234860e+002,1.918005e+001
5.244503e+002,1.930762e+001
5.254145e+002,1.904224e+001
5.263787e+002,1.780469e+001
5.273430e+002,1.466187e+001
5.283072e+002,1.117029e+001
5.292714e+002,9.503174e+000
5.302357e+002,1.034918e+001
5.311999e+002,1.069263e+001
5.321641e+002,1.065057e+001
5.331284e+002,1.041040e+001
5.340926e+002,9.585815e+000
5.350568e+002,7.773804e+000
5.360211e+002,6.531128e+000
5.369853e+002,9.054077e+000
5.379495e+002,1.237903e+001
5.389138e+002,1.351892e+001
5.398780e+002,1.148657e+001
5.408422e+002,7.907654e+000
5.418065e+002,7.772522e+000
5.427707e+002,1.051111e+001
5.437349e+002,1.215369e+001
5.446992e+002,1.136090e+001
5.456634e+002,8.882813e+000
5.466276e+002,7.487488e+000
5.475919e+002,8.486572e+000
5.485561e+002,9.343689e+000
5.495203e+002,1.011237e+001
5.504846e+002,1.039081e+001
5.514488e+002,9.563843e+000
5.524130e+002,6.960632e+000
5.533773e+002,4.743774e+000
5.543415e+002,4.042725e+000
5.553057e+002,4.172546e+000
5.562700e+002,4.328979e+000
5.572342e+002,3.985046e+000
5.581984e+002,3.577087e+000
5.591627e+002,5.315735e+000
5.601269e+002,8.228394e+000
5.610911e+002,9.264282e+000
5.620554e+002,6.552612e+000
5.630196e+002,6.940308e-001
5.639838e+002,-1.680969e+000
5.649481e+002,2.604553e+000
5.659123e+002,5.751709e+000
5.668765e+002,6.714417e+000
5.678408e+002,6.071716e+000
5.688050e+002,4.796753e+000
5.697692e+002,1.227600e+000
5.707335e+002,-1.198608e+000
5.716977e+002,-6.153564e-001
5.726619e+002,1.596313e+000
5.736262e+002,3.830261e+000
5.745904e+002,5.214417e+000
5.755546e+002,5.537415e+000
5.765189e+002,3.829834e+000
5.774831e+002,7.859497e-001
5.784473e+002,-2.197083e+000
5.794116e+002,-4.026428e+000
5.803758e+002,-4.510925e+000
5.813400e+002,-3.406250e+000
5.823043e+002,-4.892578e-001
5.832685e+002,1.740173e+000
5.842327e+002,2.645996e+000
5.851970e+002,2.547791e+000
5.861612e+002,2.209229e+000
5.871254e+002,-2.501221e-001
5.880897e+002,-1.071045e+000
5.890539e+002,1.805786e+000
5.900181e+002,6.376404e+000
5.909824e+002,9.446899e+000
5.919466e+002,8.956543e+000
5.929108e+002,6.638428e+000
5.938751e+002,4.487366e+000
5.948393e+002,2.340698e+000
5.958035e+002,-1.908569e-001
5.967678e+002,-3.339844e+000
5.977320e+002,-6.713135e+000
5.986962e+002,-8.199646e+000
5.996605e+002,-8.427917e+000
6.006247e+002,-7.505310e+000
6.015889e+002,-4.337646e+000
6.025532e+002,7.822876e-001
6.035174e+002,3.112854e+000
6.044816e+002,-1.130615e+000
6.054459e+002,-4.149475e+000
6.064101e+002,-4.524414e+000
6.073743e+002,-3.005676e+000
6.083386e+002,-8.922119e-001
6.093028e+002,1.857239e+000
6.102670e+002,3.741028e+000
6.112313e+002,2.971741e+000
6.121955e+002,1.007935e+000
6.131597e+002,-2.886353e-001
6.141240e+002,3.482666e-001
6.150882e+002,2.438354e+000
6.160524e+002,4.936096e+000
6.170167e+002,7.894287e+000
6.179809e+002,8.946899e+000
6.189451e+002,6.032410e+000
6.199094e+002,-1.995239e-001
6.208736e+002,-3.570190e+000
6.218378e+002,-2.368164e-002
6.228021e+002,2.562256e+000
6.237663e+002,2.567505e+000
6.247305e+002,1.556213e+000
6.256948e+002,2.528687e+000
6.266590e+002,8.023132e+000
6.276232e+002,1.140118e+001
6.285875e+002,7.823181e+000
6.295517e+002,1.536499e+000
6.305159e+002,-3.409790e+000
6.314802e+002,-4.834167e+000
6.324444e+002,-3.970825e+000
6.334086e+002,-3.498047e+000
6.343729e+002,-2.962585e+000
6.353371e+002,-1.133301e+000
6.363013e+002,2.749329e+000
6.372656e+002,7.513367e+000
6.382298e+002,9.185547e+000
6.391940e+002,4.593018e+000
6.401583e+002,4.463501e-001
6.411225e+002,-3.497192e+000
6.420867e+002,-6.193604e+000
6.430510e+002,-5.920837e+000
6.440152e+002,-1.138611e+000
6.449794e+002,1.763672e+000
6.459437e+002,-2.104736e+000
6.469079e+002,-7.638916e+000
6.478721e+002,-1.074664e+001
6.488364e+002,-1.001624e+001
6.498006e+002,-7.569458e+000
6.507648e+002,-7.428528e+000
6.517291e+002,-8.687073e+000
6.526933e+002,-8.828247e+000
6.536575e+002,-7.360291e+000
6.546218e+002,-4.983765e+000
6.555860e+002,-2.970398e+000
6.565502e+002,-1.295837e+000
6.575145e+002,-3.269043e-001
6.584787e+002,-4.432983e-001
6.594429e+002,-8.110962e-001
6.604072e+002,-8.099976e-001
6.613714e+002,-3.273926e-001
6.623356e+002,3.538208e-001
6.632999e+002,1.674988e+000
6.642641e+002,2.283813e+000
6.652283e+002,9.382324e-001
6.661926e+002,-1.772461e+000
6.671568e+002,-3.817871e+000
6.681210e+002,-2.597046e+000
6.690853e+002,5.764160e-001
6.700495e+002,2.538025e+000
6.710137e+002,3.229614e+000
6.719780e+002,2.924500e+000
6.729422e+002,1.707825e+000
6.739064e+002,-9.505005e-001
6.748707e+002,-1.818237e+000
6.758349e+002,8.107300e-001
6.767991e+002,2.623901e+000
6.777634e+002,1.212158e+000
6.787276e+002,-2.673218e+000
6.796918e+002,-4.730408e+000
6.806561e+002,-1.879089e+000
6.816203e+002,9.393921e-001
6.825845e+002,2.004517e+000
6.835488e+002,1.694824e+000
6.845130e+002,7.841187e-001
6.854772e+002,-1.846924e-001
6.864415e+002,-7.784424e-001
6.874057e+002,-2.987061e-001
6.883699e+002,5.756226e-001
6.893342e+002,8.377075e-001
6.902984e+002,-1.770020e-002
6.912626e+002,-1.731445e+000
6.922269e+002,-3.153076e+000
6.931911e+002,-4.213745e+000
6.941553e+002,-4.147095e+000
6.951196e+002,-2.989380e+000
6.960838e+002,-1.157227e+000
6.970480e+002,1.243469e+000
6.980123e+002,5.095764e+000
6.989765e+002,7.482056e+000
6.999407e+002,6.540405e+000
7.009050e+002,4.452148e+000
7.018692e+002,2.641113e+000
7.028334e+002,1.689209e+000
7.037977e+002,1.425903e+000
7.047619e+002,2.476257e+000
7.057261e+002,4.095459e+000
7.066904e+002,3.881165e+000
7.076546e+002,1.431458e+000
7.086188e+002,-1.623962e+000
7.095831e+002,-2.620178e+000
7.105473e+002,-6.326904e-001
7.115115e+002,-7.324219e-003
7.124758e+002,-2.192505e+000
7.134400e+002,-4.224976e+000
7.144042e+002,-3.547302e+000
7.153685e+002,-9.136963e-002
7.163327e+002,2.094116e+000
7.172969e+002,-2.693481e-001
7.182612e+002,-2.992859e+000
7.192254e+002,-5.097961e+000
7.201896e+002,-6.316223e+000
7.211539e+002,-6.479126e+000
7.221181e+002,-5.316528e+000
7.230823e+002,-3.220276e+000
7.240466e+002,-1.039063e+000
7.250108e+002,1.370239e+000
7.259750e+002,3.525574e+000
7.269393e+002,4.975830e+000
7.279035e+002,5.344910e+000
7.288677e+002,4.163513e+000
7.298320e+002,2.138062e-001
7.307962e+002,-2.562683e+000
7.317604e+002,-4.369263e+000
7.327247e+002,-4.610168e+000
7.336889e+002,-1.910339e+000
7.346531e+002,4.990173e+000
7.356174e+002,9.681335e+000
7.365816e+002,8.520630e+000
7.375458e+002,5.354675e+000
7.385101e+002,2.232361e+000
7.394743e+002,1.440430e-001
7.404385e+002,-5.426025e-001
7.414028e+002,1.155151e+000
7.423670e+002,4.003540e+000
7.433312e+002,4.920715e+000
7.442955e+002,4.024963e+000
7.452597e+002,3.008301e+000
7.462239e+002,3.679626e+000
7.471882e+002,6.476746e+000
7.481524e+002,8.422791e+000
7.491166e+002,8.559692e+000
7.500809e+002,8.226440e+000
7.510451e+002,8.090942e+000
7.520093e+002,7.965576e+000
7.529736e+002,6.978149e+000
7.539378e+002,4.316223e+000
7.549020e+002,2.167664e+000
7.558663e+002,2.219604e+000
7.568306e+002,3.360901e+000
7.577948e+002,3.987732e+000
7.587590e+002,3.048462e+000
7.597233e+002,8.574219e-001
7.606875e+002,-1.473145e+000
7.616517e+002,-3.627869e+000
7.626160e+002,-3.923584e+000
7.635802e+002,-1.251099e+000
7.645444e+002,2.984375e+000
7.655087e+002,5.767273e+000
7.664729e+002,6.422485e+000
7.674371e+002,6.686829e+000
7.684014e+002,6.731323e+000
7.693656e+002,6.433228e+000
7.703298e+002,5.558533e+000
7.712941e+002,4.216370e+000
7.722583e+002,3.076477e+000
7.732225e+002,2.412476e+000
7.741868e+002,2.397705e+000
7.751510e+002,3.732056e+000
7.761152e+002,5.855103e+000
7.770795e+002,7.491272e+000
7.780437e+002,7.466187e+000
7.790079e+002,5.883972e+000
7.799722e+002,3.978394e+000
7.809364e+002,1.502197e+000
7.819006e+002,-3.436279e-002
7.828649e+002,5.947266e-001
7.838291e+002,2.934631e+000
7.847933e+002,5.036682e+000
7.857576e+002,6.771545e+000
7.867218e+002,7.276123e+000
7.876860e+002,5.961243e+000
7.886503e+002,4.464417e+000
7.896145e+002,4.331970e+000
7.905787e+002,5.870483e+000
7.915430e+002,7.493347e+000
7.925072e+002,6.565063e+000
7.934714e+002,4.843445e+000
7.944357e+002,5.316711e+000
7.953999e+002,7.882507e+000
7.963641e+002,9.930969e+000
7.973284e+002,8.294495e+000
7.982926e+002,2.646484e+000
7.992568e+002,-2.102661e-001
8.002211e+002,1.063843e-001
8.011853e+002,2.802124e-001
8.021495e+002,-1.211975e+000
8.031138e+002,-3.062927e+000
8.040780e+002,-1.600830e+000
8.050422e+002,6.338257e+000
8.060065e+002,1.253967e+001
8.069707e+002,1.323676e+001
8.079349e+002,1.149792e+001
8.088992e+002,1.057599e+001
8.098634e+002,1.170050e+001
8.108276e+002,1.312982e+001
8.117919e+002,1.172009e+001
8.127561e+002,8.194885e+000
8.137203e+002,4.629517e+000
8.146846e+002,1.658875e+000
8.156488e+002,3.509521e-001
8.166130e+002,2.109497e+000
8.175773e+002,7.755798e+000
8.185415e+002,1.095068e+001
8.195057e+002,1.014081e+001
8.204700e+002,8.754150e+000
8.214342e+002,7.240051e+000
8.223984e+002,6.035095e+000
8.233627e+002,6.262512e+000
8.243269e+002,9.169373e+000
8.252911e+002,1.213916e+001
8.262554e+002,1.372900e+001
8.272196e+002,1.448700e+001
8.281838e+002,1.474384e+001
8.291481e+002,1.472308e+001
8.301123e+002,1.468896e+001
8.310765e+002,1.522003e+001
8.320408e+002,1.611707e+001
8.330050e+002,1.621252e+001
8.339692e+002,1.537872e+001
8.349335e+002,1.421533e+001
8.358977e+002,1.340173e+001
8.368619e+002,1.315472e+001
8.378262e+002,1.299817e+001
8.387904e+002,1.150928e+001
8.397546e+002,1.123389e+001
8.407189e+002,1.420056e+001
8.416831e+002,1.854852e+001
8.426473e+002,2.099023e+001
8.436116e+002,1.987103e+001
8.445758e+002,1.760315e+001
8.455400e+002,1.558099e+001
8.465043e+002,1.386469e+001
8.474685e+002,1.344525e+001
8.484327e+002,1.459760e+001
8.493970e+002,1.626447e+001
8.503612e+002,1.622626e+001
8.513254e+002,1.391614e+001
8.522897e+002,1.285022e+001
8.532539e+002,1.334967e+001
8.542181e+002,1.407263e+001
8.551824e+002,1.466656e+001
8.561466e+002,1.543597e+001
8.571108e+002,1.631921e+001
8.580751e+002,1.602466e+001
8.590393e+002,1.601349e+001
8.600035e+002,1.717163e+001
8.609678e+002,1.916290e+001
8.619320e+002,2.200446e+001
8.628962e+002,2.548114e+001
8.638605e+002,2.820001e+001
8.648247e+002,2.716632e+001
8.657889e+002,2.399890e+001
8.667532e+002,2.233893e+001
8.677174e+002,2.266040e+001
8.686816e+002,2.384955e+001
8.696459e+002,2.481348e+001
8.706101e+002,2.574408e+001
8.715743e+002,2.619647e+001
8.725386e+002,2.509216e+001
8.735028e+002,2.496606e+001
8.744670e+002,2.718829e+001
8.754313e+002,3.020313e+001
8.763955e+002,3.107404e+001
8.773597e+002,2.833765e+001
8.783240e+002,2.583978e+001
8.792882e+002,2.671039e+001
8.802524e+002,2.854993e+001
8.812167e+002,2.962561e+001
8.821809e+002,2.943341e+001
8.831451e+002,2.814368e+001
8.841094e+002,2.586163e+001
8.850736e+002,2.302734e+001
8.860378e+002,2.337292e+001
8.870021e+002,2.769342e+001
8.879663e+002,3.131818e+001
8.889305e+002,3.052411e+001
8.898948e+002,2.638287e+001
8.908590e+002,2.512714e+001
8.918232e+002,2.977521e+001
8.927875e+002,3.360828e+001
8.937517e+002,3.479083e+001
8.947159e+002,3.501587e+001
8.956802e+002,3.547736e+001
8.966444e+002,3.630365e+001
8.976086e+002,3.690082e+001
8.985729e+002,3.725867e+001
8.995371e+002,3.704950e+001
9.005013e+002,3.464734e+001
9.014656e+002,3.082007e+001
9.024298e+002,2.873224e+001
9.033940e+002,3.085425e+001
9.043583e+002,3.617969e+001
9.053225e+002,3.853644e+001
9.062867e+002,3.347076e+001
9.072510e+002,3.072284e+001
9.082152e+002,3.332758e+001
9.091794e+002,3.715448e+001
9.101437e+002,3.705286e+001
9.111079e+002,3.211542e+001
9.120721e+002,2.929724e+001
9.130364e+002,3.591864e+001
9.140006e+002,4.257800e+001
9.149648e+002,4.355487e+001
9.159291e+002,4.057654e+001
9.168933e+002,3.762817e+001
9.178575e+002,3.738904e+001
9.188218e+002,3.915509e+001
9.197860e+002,4.154382e+001
9.207502e+002,4.451849e+001
9.217145e+002,4.568561e+001
9.226787e+002,4.444885e+001
9.236429e+002,4.208740e+001
9.246072e+002,3.975409e+001
9.255714e+002,3.705200e+001
9.265356e+002,3.520013e+001
9.274999e+002,3.509515e+001
9.284641e+002,3.483594e+001
9.294283e+002,3.374023e+001
9.303926e+002,3.226611e+001
9.313568e+002,3.110400e+001
9.323210e+002,3.055536e+001
9.332853e+002,3.065338e+001
9.342495e+002,3.231342e+001
9.352137e+002,3.442096e+001
9.361780e+002,3.544257e+001
9.371422e+002,3.527856e+001
9.381064e+002,3.450262e+001
9.390707e+002,3.347943e+001
9.400349e+002,3.173871e+001
9.409991e+002,3.070142e+001
9.419634e+002,2.992340e+001
9.429276e+002,3.011609e+001
9.438918e+002,3.219293e+001
9.448561e+002,3.525586e+001
9.458203e+002,3.823077e+001
9.467845e+002,4.125385e+001
9.477488e+002,4.257166e+001
9.487130e+002,3.863202e+001
9.496772e+002,3.390820e+001
9.506415e+002,3.200946e+001
9.516057e+002,3.301062e+001
9.525699e+002,3.494391e+001
9.535342e+002,3.586383e+001
9.544984e+002,3.571198e+001
9.554626e+002,3.471777e+001
9.564269e+002,3.275616e+001
9.573911e+002,3.249725e+001
9.583553e+002,3.589362e+001
9.593196e+002,4.067255e+001
9.602838e+002,4.315192e+001
9.612480e+002,4.276953e+001
9.622123e+002,4.133112e+001
9.631765e+002,3.795636e+001
9.641407e+002,3.527777e+001
9.651050e+002,3.472839e+001
9.660692e+002,3.564789e+001
9.670334e+002,3.682581e+001
9.679977e+002,3.771014e+001
9.689619e+002,3.842841e+001
9.699261e+002,3.860968e+001
9.708904e+002,3.806757e+001
9.718546e+002,3.632361e+001
9.728188e+002,3.270966e+001
9.737831e+002,2.958679e+001
9.747473e+002,3.071777e+001
9.757115e+002,3.729523e+001
9.766758e+002,4.226068e+001
9.776400e+002,4.581183e+001
9.786042e+002,4.801013e+001
9.795685e+002,4.868909e+001
9.805327e+002,4.759827e+001
9.814969e+002,4.376868e+001
9.824612e+002,3.704663e+001
9.834254e+002,3.135583e+001
9.843896e+002,3.148969e+001
9.853539e+002,3.369073e+001
9.863181e+002,3.363171e+001
9.872823e+002,3.136713e+001
9.882466e+002,2.987830e+001
9.892108e+002,3.203918e+001
9.901750e+002,3.766174e+001
9.911393e+002,4.209906e+001
9.921035e+002,4.305383e+001
9.930677e+002,4.471808e+001
9.940320e+002,4.808405e+001
9.949962e+002,5.219226e+001
9.959604e+002,5.618921e+001
9.969247e+002,6.006122e+001
9.978889e+002,6.416492e+001
9.988531e+002,6.856482e+001
9.998174e+002,7.229431e+001
1.000782e+003,7.571509e+001
1.001746e+003,7.838019e+001
1.002710e+003,7.906415e+001
1.003674e+003,7.744244e+001
1.004639e+003,7.509705e+001
1.005603e+003,7.499426e+001
1.006567e+003,7.726990e+001
1.007531e+003,7.734021e+001
1.008495e+003,7.405823e+001
1.009460e+003,7.108252e+001
1.010424e+003,7.120215e+001
1.011388e+003,7.363062e+001
1.012352e+003,7.490619e+001
1.013317e+003,7.436420e+001
1.014281e+003,7.261481e+001
1.015245e+003,6.931250e+001
1.016209e+003,6.537885e+001
1.017174e+003,6.140436e+001
1.018138e+003,5.760950e+001
1.019102e+003,5.389996e+001
1.020066e+003,5.020172e+001
1.021031e+003,4.701819e+001
1.021995e+003,4.596307e+001
1.022959e+003,4.617181e+001
1.023923e+003,4.426343e+001
1.024887e+003,3.828027e+001
1.025852e+003,3.102716e+001
1.026816e+003,2.724127e+001
1.027780e+003,2.791772e+001
1.028744e+003,2.860455e+001
1.029709e+003,2.975232e+001
1.030673e+003,2.982513e+001
1.031637e+003,2.735651e+001
1.032601e+003,2.373712e+001
1.033566e+003,2.082056e+001
1.034530e+003,1.937250e+001
1.035494e+003,1.925641e+001
1.036458e+003,2.118256e+001
1.037422e+003,2.353784e+001
1.038387e+003,2.321906e+001
1.039351e+003,2.038892e+001
1.040315e+003,1.801422e+001
1.041279e+003,1.855939e+001
1.042244e+003,2.138245e+001
1.043208e+003,2.256299e+001
1.044172e+003,1.973499e+001
1.045136e+003,1.873450e+001
1.046101e+003,2.173004e+001
1.047065e+003,2.474866e+001
1.048029e+003,2.459900e+001
1.048993e+003,2.195215e+001
1.049958e+003,2.043549e+001
1.050922e+003,2.238129e+001
1.051886e+003,2.479858e+001
1.052850e+003,2.435199e+001
1.053814e+003,2.250598e+001
1.054779e+003,2.074054e+001
1.055743e+003,1.950800e+001
1.056707e+003,1.897461e+001
1.057671e+003,1.935602e+001
1.058636e+003,2.059418e+001
1.059600e+003,2.260150e+001
1.060564e+003,2.757123e+001
1.061528e+003,3.093738e+001
1.062493e+003,3.109052e+001
1.063457e+003,2.937744e+001
1.064421e+003,2.703931e+001
1.065385e+003,2.441333e+001
1.066349e+003,2.245270e+001
1.067314e+003,2.155115e+001
1.068278e+003,2.172406e+001
1.069242e+003,2.433917e+001
1.070206e+003,2.764197e+001
1.071171e+003,2.824646e+001
1.072135e+003,2.490961e+001
1.073099e+003,2.011768e+001
1.074063e+003,1.831006e+001
1.075028e+003,1.989972e+001
1.075992e+003,2.172437e+001
1.076956e+003,2.417432e+001
1.077920e+003,2.571002e+001
1.078885e+003,2.603357e+001
1.079849e+003,2.544025e+001
1.080813e+003,2.386615e+001
1.081777e+003,2.099176e+001
1.082741e+003,1.916815e+001
1.083706e+003,1.995587e+001
1.084670e+003,2.121149e+001
1.085634e+003,2.247784e+001
1.086598e+003,2.319281e+001
1.087563e+003,2.225677e+001
1.088527e+003,1.939130e+001
1.089491e+003,1.646893e+001
1.090455e+003,1.690942e+001
1.091420e+003,2.092328e+001
1.092384e+003,2.344647e+001
1.093348e+003,2.400757e+001
1.094312e+003,2.355939e+001
1.095276e+003,2.248419e+001
1.096241e+003,2.120978e+001
1.097205e+003,2.044098e+001
1.098169e+003,1.999493e+001
1.099133e+003,2.010144e+001
1.100098e+003,2.156097e+001
1.101062e+003,2.317749e+001
1.102026e+003,2.387415e+001
1.102990e+003,2.416034e+001
1.103955e+003,2.555725e+001
1.104919e+003,2.889490e+001
1.105883e+003,3.261420e+001
1.106847e+003,3.327759e+001
1.107812e+003,3.077734e+001
1.108776e+003,2.985681e+001
1.109740e+003,3.153381e+001
1.110704e+003,3.310352e+001
1.111668e+003,3.215997e+001
1.112633e+003,2.975647e+001
1.113597e+003,2.993390e+001
1.114561e+003,3.419617e+001
1.115525e+003,3.773871e+001
1.116490e+003,3.865240e+001
1.117454e+003,3.878540e+001
1.118418e+003,3.942914e+001
1.119382e+003,4.070538e+001
1.120347e+003,4.200439e+001
1.121311e+003,4.269653e+001
1.122275e+003,4.258514e+001
1.123239e+003,4.185303e+001
1.124203e+003,4.106012e+001
1.125168e+003,4.192017e+001
1.126132e+003,4.550250e+001
1.127096e+003,4.856116e+001
1.128060e+003,4.694189e+001
1.129025e+003,4.213556e+001
1.129989e+003,4.243164e+001
1.130953e+003,5.124176e+001
1.131917e+003,5.827386e+001
1.132882e+003,6.016040e+001
1.133846e+003,6.060162e+001
1.134810e+003,6.125873e+001
1.135774e+003,6.250903e+001
1.136739e+003,6.385229e+001
1.137703e+003,6.502783e+001
1.138667e+003,6.742212e+001
1.139631e+003,7.427588e+001
1.140595e+003,8.493683e+001
1.141560e+003,9.355908e+001
1.142524e+003,9.942877e+001
1.143488e+003,1.058617e+002
1.144452e+003,1.141917e+002
1.145417e+003,1.247197e+002
1.146381e+003,1.390353e+002
1.147345e+003,1.587174e+002
1.148309e+003,1.777816e+002
1.149274e+003,1.955197e+002
1.150238e+003,2.119443e+002
1.151202e+003,2.273540e+002
1.152166e+003,2.417165e+002
1.153130e+003,2.552015e+002
1.154095e+003,2.674097e+002
1.155059e+003,2.763471e+002
1.156023e+003,2.800152e+002
1.156987e+003,2.780213e+002
1.157952e+003,2.696074e+002
1.158916e+003,2.544607e+002
1.159880e+003,2.386014e+002
1.160844e+003,2.248476e+002
1.161809e+003,2.114625e+002
1.162773e+003,1.949867e+002
1.163737e+003,1.742834e+002
1.164701e+003,1.557286e+002
1.165666e+003,1.408873e+002
1.166630e+003,1.291685e+002
1.167594e+003,1.211973e+002
1.168558e+003,1.158445e+002
1.169522e+003,1.121063e+002
1.170487e+003,1.094611e+002
1.171451e+003,1.076119e+002
1.172415e+003,1.061674e+002
1.173379e+003,1.050834e+002
1.174344e+003,1.049230e+002
1.175308e+003,1.059306e+002
1.176272e+003,1.060527e+002
1.177236e+003,1.048317e+002
1.178201e+003,1.024772e+002
1.179165e+003,9.840759e+001
1.180129e+003,9.233698e+001
1.181093e+003,8.761816e+001
1.182057e+003,8.560382e+001
1.183022e+003,8.449561e+001
1.183986e+003,8.377405e+001
1.184950e+003,8.343695e+001
1.185914e+003,8.361920e+001
1.186879e+003,8.434515e+001
1.187843e+003,8.548077e+001
1.188807e+003,8.682452e+001
1.189771e+003,8.825189e+001
1.190736e+003,9.000983e+001
1.191700e+003,9.222375e+001
1.192664e+003,9.273602e+001
1.193628e+003,9.082086e+001
1.194593e+003,8.829468e+001
1.195557e+003,8.631677e+001
1.196521e+003,8.465076e+001
1.197485e+003,8.277185e+001
1.198449e+003,8.092041e+001
1.199414e+003,7.803925e+001
1.200378e+003,7.141998e+001
1.201342e+003,6.568475e+001
1.202306e+003,6.489722e+001
1.203271e+003,6.700262e+001
1.204235e+003,6.734973e+001
1.205199e+003,6.380200e+001
1.206163e+003,5.863232e+001
1.207128e+003,5.557440e+001
1.208092e+003,5.481201e+001
1.209056e+003,5.313873e+001
1.210020e+003,5.051257e+001
1.210984e+003,4.735010e+001
1.211949e+003,4.350677e+001
1.212913e+003,3.920129e+001
1.213877e+003,3.484607e+001
1.214841e+003,3.054608e+001
1.215806e+003,2.585413e+001
1.216770e+003,1.905072e+001
1.217734e+003,1.426691e+001
1.218698e+003,1.595642e+001
1.219663e+003,1.967621e+001
1.220627e+003,1.959985e+001
1.221591e+003,1.514990e+001
1.222555e+003,1.010126e+001
1.223520e+003,7.977844e+000
1.224484e+003,8.468872e+000
1.225448e+003,9.501526e+000
1.226412e+003,1.185535e+001
1.227376e+003,1.267340e+001
1.228341e+003,1.040509e+001
1.229305e+003,8.186462e+000
1.230269e+003,7.916077e+000
1.231233e+003,8.810791e+000
1.232198e+003,9.352234e+000
1.233162e+003,9.297180e+000
1.234126e+003,8.946350e+000
1.235090e+003,7.728638e+000
1.236055e+003,6.670471e+000
1.237019e+003,6.894409e+000
1.237983e+003,8.124390e+000
1.238947e+003,1.011896e+001
1.239911e+003,1.289313e+001
1.240876e+003,1.548584e+001
1.241840e+003,1.631018e+001
1.242804e+003,1.533344e+001
1.243768e+003,1.362964e+001
1.244733e+003,9.429077e+000
1.245697e+003,6.973328e+000
1.246661e+003,6.812744e+000
1.247625e+003,7.712646e+000
1.248590e+003,9.423523e+000
1.249554e+003,1.171570e+001
1.250518e+003,1.385706e+001
1.251482e+003,1.534961e+001
1.252447e+003,1.660620e+001
1.253411e+003,1.892249e+001
1.254375e+003,2.138245e+001
1.255339e+003,2.115228e+001
1.256303e+003,1.843097e+001
1.257268e+003,1.703180e+001
1.258232e+003,1.931213e+001
1.259196e+003,2.318719e+001
1.260160e+003,2.461084e+001
1.261125e+003,2.321643e+001
1.262089e+003,2.330023e+001
1.263053e+003,2.523706e+001
1.264017e+003,2.833142e+001
1.264982e+003,3.492084e+001
1.265946e+003,4.098999e+001
1.266910e+003,4.220587e+001
1.267874e+003,3.905090e+001
1.268839e+003,3.536456e+001
1.269803e+003,3.370123e+001
1.270767e+003,3.297528e+001
1.271731e+003,3.102942e+001
1.272695e+003,2.807318e+001
1.273660e+003,2.611639e+001
1.274624e+003,2.496875e+001
1.275588e+003,2.416986e+001
1.276552e+003,2.443726e+001
1.277517e+003,2.501465e+001
1.278481e+003,2.371765e+001
1.279445e+003,2.013733e+001
1.280409e+003,1.754498e+001
1.281374e+003,1.784515e+001
1.282338e+003,1.833087e+001
1.283302e+003,1.786664e+001
1.284266e+003,1.657532e+001
1.285230e+003,1.405664e+001
1.286195e+003,1.073682e+001
1.287159e+003,8.255798e+000
1.288123e+003,8.098328e+000
1.289087e+003,9.604736e+000
1.290052e+003,1.016864e+001
1.291016e+003,9.083435e+000
1.291980e+003,8.803345e+000
1.292944e+003,9.843445e+000
1.293909e+003,1.042896e+001
1.294873e+003,9.669617e+000
1.295837e+003,8.638672e+000
1.296801e+003,8.889954e+000
1.297766e+003,1.053357e+001
1.298730e+003,1.201257e+001
1.299694e+003,1.231586e+001
1.300658e+003,1.205658e+001
1.301622e+003,1.180988e+001
1.302587e+003,1.180536e+001
1.303551e+003,1.268677e+001
1.304515e+003,1.449420e+001
1.305479e+003,1.571320e+001
1.306444e+003,1.488562e+001
1.307408e+003,1.244861e+001
1.308372e+003,1.005597e+001
1.309336e+003,7.044373e+000
1.310301e+003,6.143005e+000
1.311265e+003,1.048523e+001
1.312229e+003,1.351184e+001
1.313193e+003,1.200342e+001
1.314157e+003,8.972290e+000
1.315122e+003,7.797668e+000
1.316086e+003,8.588196e+000
1.317050e+003,8.905029e+000
1.318014e+003,7.193176e+000
1.318979e+003,5.141113e+000
1.319943e+003,5.864197e+000
1.320907e+003,9.131470e+000
1.321871e+003,1.131860e+001
1.322836e+003,1.167316e+001
1.323800e+003,1.177582e+001
1.324764e+003,1.248486e+001
1.325728e+003,1.356567e+001
1.326693e+003,1.464435e+001
1.327657e+003,1.555792e+001
1.328621e+003,1.569104e+001
1.329585e+003,1.518304e+001
1.330549e+003,1.500470e+001
1.331514e+003,1.496088e+001
1.332478e+003,1.473535e+001
1.333442e+003,1.425201e+001
1.334406e+003,1.368823e+001
1.335371e+003,1.306165e+001
1.336335e+003,1.242200e+001
1.337299e+003,1.255725e+001
1.338263e+003,1.515460e+001
1.339228e+003,2.091003e+001
1.340192e+003,2.260205e+001
1.341156e+003,1.714063e+001
1.342120e+003,1.244769e+001
1.343084e+003,8.776489e+000
1.344049e+003,6.506653e+000
1.345013e+003,7.055481e+000
1.345977e+003,9.636841e+000
1.346941e+003,1.156830e+001
1.347906e+003,1.184229e+001
1.348870e+003,1.178595e+001
1.349834e+003,1.273669e+001
1.350798e+003,1.379852e+001
1.351763e+003,1.347217e+001
1.352727e+003,1.204657e+001
1.353691e+003,1.077655e+001
1.354655e+003,1.013123e+001
1.355620e+003,9.856323e+000
1.356584e+003,9.575745e+000
1.357548e+003,9.459045e+000
1.358512e+003,1.048608e+001
1.359476e+003,1.346802e+001
1.360441e+003,1.450739e+001
1.361405e+003,1.098206e+001
1.362369e+003,7.432190e+000
1.363333e+003,5.813110e+000
1.364298e+003,5.716125e+000
1.365262e+003,6.773804e+000
1.366226e+003,8.501831e+000
1.367190e+003,9.771851e+000
1.368155e+003,9.560791e+000
1.369119e+003,8.371094e+000
1.370083e+003,7.828674e+000
1.371047e+003,8.210815e+000
1.372011e+003,8.849060e+000
1.372976e+003,9.678833e+000
1.373940e+003,1.020343e+001
1.374904e+003,1.007086e+001
1.375868e+003,9.898499e+000
1.376833e+003,1.045764e+001
1.377797e+003,1.164331e+001
1.378761e+003,1.270135e+001
1.379725e+003,1.343976e+001
1.380690e+003,1.384558e+001
1.381654e+003,1.420337e+001
1.382618e+003,1.416431e+001
1.383582e+003,1.230090e+001
1.384547e+003,9.063171e+000
1.385511e+003,7.954834e+000
1.386475e+003,1.110107e+001
1.387439e+003,1.544159e+001
1.388403e+003,1.600232e+001
1.389368e+003,1.276733e+001
1.390332e+003,1.103448e+001
1.391296e+003,1.195770e+001
1.392260e+003,1.275726e+001
1.393225e+003,1.220068e+001
1.394189e+003,1.184882e+001
1.395153e+003,1.370416e+001
1.396117e+003,1.588989e+001
1.397082e+003,1.476160e+001
1.398046e+003,1.010638e+001
1.399010e+003,6.057983e+000
1.399974e+003,6.297363e+000
1.400938e+003,8.953308e+000
1.401903e+003,9.023254e+000
1.402867e+003,6.453552e+000
1.403831e+003,4.936462e+000
1.404795e+003,2.791809e+000
1.405760e+003,3.101257e+000
1.406724e+003,8.982239e+000
1.407688e+003,1.547034e+001
1.408652e+003,1.697406e+001
1.409617e+003,1.406598e+001
1.410581e+003,1.094513e+001
1.411545e+003,9.111145e+000
1.412509e+003,8.144897e+000
1.413474e+003,7.777771e+000
1.414438e+003,7.500427e+000
1.415402e+003,6.679810e+000
1.416366e+003,5.810364e+000
1.417330e+003,6.594543e+000
1.418295e+003,1.002692e+001
1.419259e+003,1.408722e+001
1.420223e+003,1.646472e+001
1.421187e+003,1.710864e+001
1.422152e+003,1.643542e+001
1.423116e+003,1.376770e+001
1.424080e+003,1.323572e+001
1.425044e+003,1.873425e+001
1.426009e+003,2.298407e+001
1.426973e+003,2.132495e+001
1.427937e+003,1.769293e+001
1.428901e+003,1.748358e+001
1.429865e+003,2.077130e+001
1.430830e+003,2.329242e+001
1.431794e+003,2.211267e+001
1.432758e+003,1.897461e+001
1.433722e+003,1.759845e+001
1.434687e+003,1.839886e+001
1.435651e+003,2.128705e+001
1.436615e+003,2.872809e+001
1.437579e+003,3.251190e+001
1.438544e+003,2.919128e+001
1.439508e+003,2.505646e+001
1.440472e+003,2.461102e+001
1.441436e+003,2.671503e+001
1.442401e+003,2.850507e+001
1.443365e+003,2.911169e+001
1.444329e+003,2.911932e+001
1.445293e+003,2.894971e+001
1.446257e+003,2.883826e+001
1.447222e+003,2.926862e+001
1.448186e+003,2.999921e+001
1.449150e+003,2.985583e+001
1.450114e+003,2.853979e+001
1.451079e+003,2.674634e+001
1.452043e+003,2.468445e+001
1.453007e+003,2.285052e+001
1.453971e+003,2.184845e+001
1.454936e+003,2.144952e+001
1.455900e+003,2.063574e+001
1.456864e+003,1.893872e+001
1.457828e+003,1.830621e+001
1.458792e+003,2.032513e+001
1.459757e+003,2.312024e+001
1.460721e+003,2.550909e+001
1.461685e+003,2.740491e+001
1.462649e+003,2.928192e+001
1.463614e+003,3.121051e+001
1.464578e+003,3.161212e+001
1.465542e+003,2.859644e+001
1.466506e+003,2.356958e+001
1.467471e+003,2.116064e+001
1.468435e+003,2.224536e+001
1.469399e+003,2.327985e+001
1.470363e+003,2.378577e+001
1.471328e+003,2.389258e+001
1.472292e+003,2.264484e+001
1.473256e+003,2.136084e+001
1.474220e+003,2.152173e+001
1.475184e+003,2.289294e+001
1.476149e+003,2.466394e+001
1.477113e+003,2.620172e+001
1.478077e+003,2.687708e+001
1.479041e+003,2.625342e+001
1.480006e+003,2.523438e+001
1.480970e+003,2.629999e+001
1.481934e+003,3.000073e+001
1.482898e+003,3.202209e+001
1.483863e+003,3.137708e+001
1.484827e+003,3.049591e+001
1.485791e+003,2.906500e+001
1.486755e+003,2.898248e+001
1.487719e+003,3.288062e+001
1.488684e+003,3.913251e+001
1.489648e+003,4.354932e+001
1.490612e+003,4.496729e+001
1.491576e+003,4.558240e+001
1.492541e+003,4.679376e+001
1.493505e+003,4.865118e+001
1.494469e+003,5.192645e+001
1.495433e+003,5.593732e+001
1.496398e+003,5.812604e+001
1.497362e+003,5.795972e+001
1.498326e+003,5.841058e+001
1.499290e+003,6.048553e+001
1.500255e+003,6.430164e+001
1.501219e+003,7.007361e+001
1.502183e+003,7.761072e+001
1.503147e+003,8.657709e+001
1.504111e+003,9.715723e+001
1.505076e+003,1.077490e+002
1.506040e+003,1.168676e+002
1.507004e+003,1.263924e+002
1.507968e+003,1.378304e+002
1.508933e+003,1.511031e+002
1.509897e+003,1.662703e+002
1.510861e+003,1.837412e+002
1.511825e+003,2.028699e+002
1.512790e+003,2.227856e+002
1.513754e+003,2.437917e+002
1.514718e+003,2.681828e+002
1.515682e+003,2.956000e+002
1.516646e+003,3.181617e+002
1.517611e+003,3.346350e+002
1.518575e+003,3.487101e+002
1.519539e+003,3.633022e+002
1.520503e+003,3.745963e+002
1.521468e+003,3.808792e+002
1.522432e+003,3.819972e+002
1.523396e+003,3.765623e+002
1.524360e+003,3.657358e+002
1.525325e+003,3.543115e+002
1.526289e+003,3.455924e+002
1.527253e+003,3.366627e+002
1.528217e+003,3.219177e+002
1.529182e+003,3.015516e+002
1.530146e+003,2.803813e+002
1.531110e+003,2.578812e+002
1.532074e+003,2.348917e+002
1.533039e+003,2.103442e+002
1.534003e+003,1.853875e+002
1.534967e+003,1.600880e+002
1.535931e+003,1.361660e+002
1.536896e+003,1.144674e+002
1.537860e+003,9.588623e+001
1.538824e+003,8.241705e+001
1.539788e+003,7.463599e+001
1.540752e+003,6.879047e+001
1.541717e+003,6.004370e+001
1.542681e+003,4.945398e+001
1.543645e+003,4.268915e+001
1.544609e+003,4.157703e+001
1.545573e+003,4.078748e+001
1.546538e+003,4.052979e+001
1.547502e+003,3.941895e+001
1.548466e+003,3.639551e+001
1.549430e+003,3.352899e+001
1.550395e+003,3.297711e+001
1.551359e+003,3.405096e+001
1.552323e+003,3.488031e+001
1.553287e+003,3.476984e+001
1.554252e+003,3.334229e+001
1.555216e+003,2.990814e+001
1.556180e+003,2.574902e+001
1.557144e+003,2.413605e+001
1.558109e+003,2.530090e+001
1.559073e+003,2.566522e+001
1.560037e+003,2.451062e+001
1.561001e+003,2.290314e+001
1.561966e+003,2.093658e+001
1.562930e+003,1.974609e+001
1.563894e+003,2.067120e+001
1.564858e+003,2.273932e+001
1.565823e+003,2.354132e+001
1.566787e+003,2.266504e+001
1.567751e+003,2.243378e+001
1.568715e+003,2.468665e+001
1.569679e+003,2.685999e+001
1.570644e+003,2.482220e+001
1.571608e+003,2.005151e+001
1.572572e+003,1.751135e+001
1.573536e+003,1.757727e+001
1.574500e+003,1.818085e+001
1.575465e+003,1.843652e+001
1.576429e+003,1.913434e+001
1.577393e+003,2.104327e+001
1.578357e+003,2.357153e+001
1.579322e+003,2.612250e+001
1.580286e+003,2.862885e+001
1.581250e+003,2.998120e+001
1.582214e+003,2.970117e+001
1.583179e+003,2.869714e+001
1.584143e+003,2.740100e+001
1.585107e+003,2.558966e+001
1.586071e+003,2.297186e+001
1.587036e+003,2.026422e+001
1.588000e+003,1.859253e+001
1.588964e+003,1.794641e+001
1.589928e+003,1.852008e+001
1.590893e+003,2.130768e+001
1.591857e+003,2.466718e+001
1.592821e+003,2.599561e+001
1.593785e+003,2.566437e+001
1.594750e+003,2.542712e+001
1.595714e+003,2.529065e+001
1.596678e+003,2.567151e+001
1.597642e+003,2.721698e+001
1.598606e+003,2.870001e+001
1.599571e+003,2.888531e+001
1.600535e+003,2.877362e+001
1.601499e+003,2.991522e+001
1.602463e+003,3.196985e+001
1.603427e+003,3.296228e+001
1.604392e+003,3.202618e+001
1.605356e+003,3.059601e+001
1.606320e+003,3.028461e+001
1.607284e+003,3.058295e+001
1.608249e+003,2.991797e+001
1.609213e+003,2.826385e+001
1.610177e+003,2.637457e+001
1.611141e+003,2.392133e+001
1.612106e+003,2.239764e+001
1.613070e+003,2.357465e+001
1.614034e+003,2.493384e+001
1.614998e+003,2.392883e+001
1.615963e+003,2.216797e+001
1.616927e+003,2.315417e+001
1.617891e+003,2.679211e+001
1.618855e+003,2.861963e+001
1.619820e+003,2.567108e+001
1.620784e+003,2.046344e+001
1.621748e+003,1.629364e+001
1.622712e+003,1.374445e+001
1.623677e+003,1.452844e+001
1.624641e+003,1.937476e+001
1.625605e+003,2.358569e+001
1.626569e+003,2.590601e+001
1.627533e+003,2.631512e+001
1.628498e+003,2.389777e+001
1.629462e+003,2.118213e+001
1.630426e+003,1.992426e+001
1.631390e+003,2.003613e+001
1.632354e+003,2.158783e+001
1.633319e+003,2.424481e+001
1.634283e+003,2.571106e+001
1.635247e+003,2.398413e+001
1.636211e+003,2.086499e+001
1.637176e+003,1.993317e+001
1.638140e+003,2.113373e+001
1.639104e+003,2.143378e+001
1.640068e+003,2.032623e+001
1.641033e+003,1.941254e+001
1.641997e+003,1.948334e+001
1.642961e+003,1.955780e+001
1.643925e+003,1.886993e+001
1.644890e+003,1.811182e+001
1.645854e+003,1.732684e+001
1.646818e+003,1.707501e+001
1.647782e+003,1.952686e+001
1.648747e+003,2.494104e+001
1.649711e+003,2.830835e+001
1.650675e+003,2.496777e+001
1.651639e+003,1.876300e+001
1.652604e+003,1.780334e+001
1.653568e+003,2.167346e+001
1.654532e+003,2.316229e+001
1.655496e+003,2.132953e+001
1.656460e+003,1.915656e+001
1.657425e+003,1.662885e+001
1.658389e+003,1.537000e+001
1.659353e+003,1.742737e+001
1.660317e+003,2.015137e+001
1.661281e+003,2.065802e+001
1.662246e+003,1.916486e+001
1.663210e+003,1.723969e+001
1.664174e+003,1.553632e+001
1.665138e+003,1.407532e+001
1.666103e+003,1.260339e+001
1.667067e+003,1.140637e+001
1.668031e+003,1.177319e+001
1.668995e+003,1.356049e+001
1.669960e+003,1.315039e+001
1.670924e+003,9.445007e+000
1.671888e+003,7.554688e+000
1.672852e+003,9.837280e+000
1.673817e+003,1.287122e+001
1.674781e+003,1.540930e+001
1.675745e+003,1.680328e+001
1.676709e+003,1.521893e+001
1.677674e+003,1.186395e+001
1.678638e+003,1.084351e+001
1.679602e+003,1.341003e+001
1.680566e+003,1.580896e+001
1.681531e+003,1.526306e+001
1.682495e+003,1.306006e+001
1.683459e+003,1.058002e+001
1.684423e+003,7.867371e+000
1.685387e+003,6.494873e+000
1.686352e+003,6.886841e+000
1.687316e+003,7.041565e+000
1.688280e+003,5.937622e+000
1.689244e+003,5.158020e+000
1.690208e+003,6.793213e+000
1.691173e+003,8.577942e+000
1.692137e+003,7.111267e+000
1.693101e+003,3.943542e+000
1.694065e+003,4.148987e+000
1.695030e+003,8.835205e+000
1.695994e+003,1.292212e+001
1.696958e+003,1.326569e+001
1.697922e+003,1.174274e+001
1.698887e+003,1.025781e+001
1.699851e+003,8.975098e+000
1.700815e+003,8.367737e+000
1.701779e+003,8.307251e+000
1.702744e+003,7.170898e+000
1.703708e+003,4.184875e+000
1.704672e+003,2.539917e+000
1.705636e+003,5.296387e+000
1.706601e+003,9.097778e+000
1.707565e+003,9.325317e+000
1.708529e+003,7.044678e+000
1.709493e+003,4.408813e+000
1.710458e+003,1.385681e+000
1.711422e+003,1.958618e-001
1.712386e+003,3.676147e+000
1.713350e+003,7.443359e+000
1.714314e+003,7.193298e+000
1.715279e+003,4.889893e+000
1.716243e+003,4.127930e+000
1.717207e+003,4.877014e+000
1.718171e+003,5.103943e+000
1.719135e+003,4.307251e+000
1.720100e+003,4.162231e+000
1.721064e+003,5.973022e+000
1.722028e+003,7.944763e+000
1.722992e+003,7.529114e+000
1.723957e+003,5.508667e+000
1.724921e+003,4.738892e+000
1.725885e+003,4.927673e+000
1.726849e+003,4.879150e+000
1.727814e+003,5.128296e+000
1.728778e+003,5.203796e+000
1.729742e+003,4.405945e+000
1.730706e+003,3.582092e+000
1.731671e+003,3.313354e+000
1.732635e+003,3.220703e+000
1.733599e+003,3.098816e+000
1.734563e+003,3.130493e+000
1.735528e+003,3.337463e+000
1.736492e+003,3.600647e+000
1.737456e+003,3.581421e+000
1.738420e+003,2.788574e+000
1.739385e+003,1.440369e+000
1.740349e+003,1.307983e+000
1.741313e+003,3.159546e+000
1.742277e+003,3.389160e+000
1.743241e+003,3.632202e-001
1.744206e+003,-1.155640e+000
1.745170e+003,7.164917e-001
1.746134e+003,2.433228e+000
1.747098e+003,1.281677e+000
1.748063e+003,-5.674438e-001
1.749027e+003,-1.439819e-001
1.749991e+003,2.024170e+000
1.750955e+003,3.679077e+000
1.751919e+003,3.865234e+000
1.752884e+003,2.707764e+000
1.753848e+003,2.770386e-001
1.754812e+003,-2.622375e+000
1.755776e+003,-4.129333e+000
1.756741e+003,-4.040100e+000
1.757705e+003,-3.838989e+000
1.758669e+003,-3.872925e+000
1.759633e+003,-3.430542e+000
1.760598e+003,-1.665283e+000
1.761562e+003,-1.005981e+000
1.762526e+003,-3.331848e+000
1.763490e+003,-5.275269e+000
1.764455e+003,-3.818726e+000
1.765419e+003,-6.375122e-001
1.766383e+003,1.510925e+000
1.767347e+003,2.077881e+000
1.768312e+003,1.831909e+000
1.769276e+003,1.046875e+000
1.770240e+003,-2.075195e-001
1.771204e+003,-1.668213e+000
1.772168e+003,-2.882874e+000
1.773133e+003,-3.312744e+000
1.774097e+003,-3.061462e+000
1.775061e+003,-3.008972e+000
1.776025e+003,-3.500549e+000
1.776990e+003,-4.613220e+000
1.777954e+003,-6.766724e+000
1.778918e+003,-7.702454e+000
1.779882e+003,-5.383545e+000
1.780846e+003,-1.751953e+000
1.781811e+003,1.760193e+000
1.782775e+003,4.633850e+000
1.783739e+003,4.289551e+000
1.784703e+003,8.801270e-002
1.785668e+003,-2.848572e+000
1.786632e+003,-1.976013e+000
1.787596e+003,-4.977417e-001
1.788560e+003,-1.419067e-001
1.789525e+003,-2.737427e-001
1.790489e+003,-5.347290e-001
1.791453e+003,-9.716187e-001
1.792417e+003,-1.477112e+000
1.793382e+003,-2.005493e+000
1.794346e+003,-2.622620e+000
1.795310e+003,-3.417725e+000
1.796274e+003,-4.328796e+000
1.797239e+003,-5.295715e+000
1.798203e+003,-5.518555e+000
1.799167e+003,-3.163879e+000
1.800131e+003,2.049011e+000
1.801095e+003,3.865417e+000
1.802060e+003,2.957153e-001
1.803024e+003,-2.029724e+000
1.803988e+003,-1.908386e+000
1.804952e+003,-1.538452e+000
1.805917e+003,-2.169373e+000
1.806881e+003,-2.892517e+000
1.807845e+003,-2.437805e+000
1.808809e+003,-1.206787e+000
1.809773e+003,8.703613e-002
1.810738e+003,9.066772e-001
1.811702e+003,-3.119507e-001
1.812666e+003,-4.451233e+000
1.813630e+003,-7.800598e+000
1.814595e+003,-4.797546e+000
1.815559e+003,2.352295e+000
1.816523e+003,4.530396e+000
1.817487e+003,1.263184e+000
1.818452e+003,-8.769531e-001
1.819416e+003,-9.285889e-001
1.820380e+003,-9.619141e-001
1.821344e+003,-2.178528e+000
1.822309e+003,-3.168335e+000
1.823273e+003,-2.258362e+000
1.824237e+003,-9.814453e-001
1.825201e+003,-1.478333e+000
1.826166e+003,-3.087952e+000
1.827130e+003,-3.697144e+000
1.828094e+003,-3.047180e+000
1.829058e+003,-2.086548e+000
1.830022e+003,-7.048340e-001
1.830987e+003,1.510620e-001
1.831951e+003,-8.547363e-001
1.832915e+003,-2.452148e+000
1.833879e+003,-2.643738e+000
1.834844e+003,-1.866211e+000
1.835808e+003,-1.843872e+000
1.836772e+003,-2.690491e+000
1.837736e+003,-2.738953e+000
1.838700e+003,-1.339966e+000
1.839665e+003,-7.957153e-001
1.840629e+003,-3.505798e+000
1.841593e+003,-7.022644e+000
1.842557e+003,-5.940308e+000
1.843522e+003,-3.751221e-001
1.844486e+003,1.858887e+000
1.845450e+003,-1.694946e+000
1.846414e+003,-3.151611e+000
1.847379e+003,-1.201416e+000
1.848343e+003,8.813477e-002
1.849307e+003,-6.610718e-001
1.850271e+003,-1.936218e+000
1.851236e+003,-2.736511e+000
1.852200e+003,-3.007263e+000
1.853164e+003,-2.779419e+000
1.854128e+003,-2.678284e+000
1.855093e+003,-4.160828e+000
1.856057e+003,-7.191772e+000
1.857021e+003,-8.676086e+000
1.857985e+003,-5.999451e+000
1.858949e+003,-1.456299e+000
1.859914e+003,1.686646e+000
1.860878e+003,3.409302e+000
1.861842e+003,2.512451e+000
1.862806e+003,-1.197266e+000
1.863771e+003,-2.919861e+000
1.864735e+003,-1.461853e+000
1.865699e+003,-5.922852e-001
1.866663e+003,-2.365295e+000
1.867627e+003,-3.867004e+000
1.868592e+003,-1.976929e+000
1.869556e+003,9.957275e-001
1.870520e+003,8.009033e-001
1.871484e+003,-2.042603e+000
1.872449e+003,-3.779724e+000
1.873413e+003,-2.980042e+000
1.874377e+003,-2.009827e+000
1.875341e+003,-2.931396e+000
1.876306e+003,-3.448181e+000
1.877270e+003,-1.583557e+000
1.878234e+003,4.053955e-001
1.879198e+003,-3.756104e-001
1.880163e+003,-2.257446e+000
1.881127e+003,-1.354858e+000
1.882091e+003,2.029114e+000
1.883055e+003,3.780884e+000
1.884020e+003,2.348511e+000
1.884984e+003,8.842163e-001
1.885948e+003,2.340576e+000
1.886912e+003,4.708923e+000
1.887876e+003,3.685486e+000
1.888841e+003,-2.708740e-001
1.889805e+003,-1.486267e+000
1.890769e+003,8.435669e-001
1.891733e+003,1.259399e+000
1.892698e+003,-2.662964e+000
1.893662e+003,-4.248108e+000
1.894626e+003,1.369629e+000
1.895590e+003,6.745239e+000
1.896554e+003,6.063110e+000
1.897519e+003,3.128601e+000
1.898483e+003,2.290771e+000
1.899447e+003,2.721191e+000
1.900411e+003,1.431213e+000
1.901376e+003,-2.103699e+000
1.902340e+003,-4.559143e+000
1.903304e+003,-4.187805e+000
1.904268e+003,-3.353638e+000
1.905233e+003,-3.577942e+000
1.906197e+003,-3.743896e+000
1.907161e+003,-2.281372e+000
1.908125e+003,-6.042480e-003
1.909090e+003,1.664612e+000
1.910054e+003,2.166382e+000
1.911018e+003,4.713135e-001
1.911982e+003,-3.141479e+000
1.912947e+003,-5.107361e+000
1.913911e+003,-2.892700e+000
1.914875e+003,9.200439e-001
1.915839e+003,2.219482e+000
1.916803e+003,1.289001e+000
1.917768e+003,6.399536e-001
1.918732e+003,5.167236e-001
1.919696e+003,3.566895e-001
1.920660e+003,2.379150e-001
1.921625e+003,3.397827e-001
1.922589e+003,6.731567e-001
1.923553e+003,8.798218e-001
1.924517e+003,8.861694e-001
1.925481e+003,6.562500e-001
1.926446e+003,-5.189819e-001
1.927410e+003,-1.670593e+000
1.928374e+003,-4.364014e-001
1.929338e+003,2.885010e+000
1.930303e+003,4.532471e+000
1.931267e+003,3.307678e+000
1.932231e+003,2.633057e+000
1.933195e+003,4.516418e+000
1.934160e+003,6.295349e+000
1.935124e+003,5.601013e+000
1.936088e+003,3.893311e+000
1.937052e+003,2.982117e+000
1.938017e+003,3.062439e+000
1.938981e+003,4.247803e+000
1.939945e+003,6.016357e+000
1.940909e+003,6.712280e+000
1.941874e+003,5.563354e+000
1.942838e+003,3.475281e+000
1.943802e+003,1.467651e+000
1.944766e+003,-1.257935e-001
1.945730e+003,-1.384521e+000
1.946695e+003,-2.347290e+000
1.947659e+003,-1.320313e+000
1.948623e+003,1.919556e+000
1.949587e+003,3.768372e+000
1.950552e+003,3.829956e+000
1.951516e+003,3.116272e+000
1.952480e+003,1.418701e+000
1.953444e+003,1.887207e-001
1.954408e+003,1.089844e+000
1.955373e+003,2.016663e+000
1.956337e+003,-6.333618e-001
1.957301e+003,-5.151062e+000
1.958265e+003,-6.150269e+000
1.959230e+003,-2.976257e+000
1.960194e+003,-5.651245e-001
1.961158e+003,-7.243042e-001
1.962122e+003,-9.045410e-001
1.963087e+003,-6.286011e-001
1.964051e+003,1.400757e-001
1.965015e+003,2.270752e+000
1.965979e+003,4.679932e+000
1.966944e+003,6.215210e+000
1.967908e+003,6.692749e+000
1.968872e+003,6.156128e+000
1.969836e+003,4.891541e+000
1.970801e+003,3.318787e+000
1.971765e+003,1.710510e+000
1.972729e+003,7.885742e-001
1.973693e+003,1.268250e+000
1.974657e+003,2.329224e+000
1.975622e+003,2.731750e+000
1.976586e+003,2.559631e+000
1.977550e+003,2.325439e+000
1.978514e+003,2.132324e+000
1.979479e+003,1.659546e+000
1.980443e+003,8.836670e-001
1.981407e+003,1.391052e+000
1.982371e+003,3.969727e+000
1.983335e+003,6.441040e+000
1.984300e+003,7.059937e+000
1.985264e+003,6.087891e+000
1.986228e+003,3.770691e+000
1.987192e+003,7.755737e-001
1.988157e+003,9.010620e-001
1.989121e+003,5.513611e+000
1.990085e+003,6.616577e+000
1.991049e+003,1.859131e+000
1.992014e+003,-1.319885e+000
1.992978e+003,-1.612488e+000
1.993942e+003,-1.104126e+000
1.994906e+003,4.272461e-002
1.995871e+003,1.190430e+000
1.996835e+003,2.010437e+000
1.997799e+003,2.636597e+000
1.998763e+003,3.077515e+000
1.999728e+003,3.250488e+000
