5.003444e+002,2.863422e+001
5.013087e+002,2.803448e+001
5.022729e+002,2.647229e+001
5.032371e+002,2.467059e+001
5.042014e+002,2.393488e+001
5.051656e+002,2.416290e+001
5.061298e+002,2.446442e+001
5.070941e+002,2.385785e+001
5.080583e+002,2.173102e+001
5.090225e+002,2.138745e+001
5.099868e+002,2.444189e+001
5.109510e+002,2.700568e+001
5.119152e+002,2.657874e+001
5.128795e+002,2.286139e+001
5.138437e+002,2.019592e+001
5.148079e+002,2.117401e+001
5.157722e+002,2.263123e+001
5.167364e+002,2.351459e+001
5.177006e+002,2.340265e+001
5.186649e+002,2.227606e+001
5.196291e+002,1.925104e+001
5.205933e+002,1.645685e+001
5.215576e+002,1.616101e+001
5.225218e+002,1.820038e+001
5.234860e+002,2.125031e+001
5.244503e+002,2.336407e+001
5.254145e+002,2.477618e+001
5.263787e+002,2.443335e+001
5.273430e+002,2.097406e+001
5.283072e+002,1.668219e+001
5.292714e+002,1.474713e+001
5.302357e+002,1.620581e+001
5.311999e+002,1.693268e+001
5.321641e+002,1.657526e+001
5.331284e+002,1.603400e+001
5.340926e+002,1.602155e+001
5.350568e+002,1.669965e+001
5.360211e+002,1.667639e+001
5.369853e+002,1.450946e+001
5.379495e+002,1.185382e+001
5.389138e+002,9.658508e+000
5.398780e+002,8.367981e+000
5.408422e+002,8.016907e+000
5.418065e+002,9.493652e+000
5.427707e+002,1.242902e+001
5.437349e+002,1.396124e+001
5.446992e+002,1.288446e+001
5.456634e+002,1.007727e+001
5.466276e+002,8.781860e+000
5.475919e+002,1.121716e+001
5.485561e+002,1.277850e+001
5.495203e+002,1.267401e+001
5.504846e+002,1.155566e+001
5.514488e+002,1.040430e+001
5.524130e+002,9.525696e+000
5.533773e+002,9.249451e+000
5.543415e+002,1.009546e+001
5.553057e+002,1.127545e+001
5.562700e+002,1.190942e+001
5.572342e+002,1.141937e+001
5.581984e+002,1.018488e+001
5.591627e+002,9.378479e+000
5.601269e+002,8.981201e+000
5.610911e+002,8.453491e+000
5.620554e+002,7.377563e+000
5.630196e+002,5.791016e+000
5.639838e+002,5.196228e+000
5.649481e+002,6.388550e+000
5.659123e+002,7.435242e+000
5.668765e+002,8.705383e+000
5.678408e+002,1.007086e+001
5.688050e+002,1.055859e+001
5.697692e+002,8.431152e+000
5.707335e+002,6.452881e+000
5.716977e+002,5.947266e+000
5.726619e+002,6.177795e+000
5.736262e+002,5.959656e+000
5.745904e+002,4.385681e+000
5.755546e+002,2.862488e+000
5.765189e+002,3.515259e+000
5.774831e+002,5.259888e+000
5.784473e+002,6.727661e+000
5.794116e+002,7.113464e+000
5.803758e+002,6.682434e+000
5.813400e+002,5.959167e+000
5.823043e+002,4.376526e+000
5.832685e+002,2.804688e+000
5.842327e+002,1.619141e+000
5.851970e+002,1.063171e+000
5.861612e+002,1.440247e+000
5.871254e+002,4.254944e+000
5.880897e+002,5.906189e+000
5.890539e+002,4.654175e+000
5.900181e+002,1.799988e+000
5.909824e+002,-3.994751e-001
5.919466e+002,-4.060669e-001
5.929108e+002,8.162231e-001
5.938751e+002,2.562805e+000
5.948393e+002,4.325928e+000
5.958035e+002,5.206909e+000
5.967678e+002,4.622070e+000
5.977320e+002,2.988098e+000
5.986962e+002,2.772217e+000
5.996605e+002,3.649353e+000
6.006247e+002,4.125183e+000
6.015889e+002,3.429077e+000
6.025532e+002,1.680664e+000
6.035174e+002,1.226196e-001
6.044816e+002,-1.922913e+000
6.054459e+002,-2.788696e+000
6.064101e+002,-1.177734e+000
6.073743e+002,1.590515e+000
6.083386e+002,3.085876e+000
6.093028e+002,1.519775e+000
6.102670e+002,-3.076782e-001
6.112313e+002,-3.305054e-001
6.121955e+002,7.262573e-001
6.131597e+002,2.178345e+000
6.141240e+002,3.502869e+000
6.150882e+002,4.368652e+000
6.160524e+002,2.824158e+000
6.170167e+002,-5.282593e-001
6.179809e+002,-2.927063e+000
6.189451e+002,-3.190369e+000
6.199094e+002,-1.691833e+000
6.208736e+002,-1.802368e-001
6.218378e+002,2.118347e+000
6.228021e+002,4.182739e+000
6.237663e+002,6.155823e+000
6.247305e+002,7.891663e+000
6.256948e+002,9.248596e+000
6.266590e+002,1.042737e+001
6.276232e+002,9.542053e+000
6.285875e+002,4.009521e+000
6.295517e+002,-2.375305e+000
6.305159e+002,-5.218628e+000
6.314802e+002,-2.393188e+000
6.324444e+002,3.203308e+000
6.334086e+002,3.535889e+000
6.343729e+002,5.326538e-001
6.353371e+002,-1.521912e+000
6.363013e+002,-1.005127e+000
6.372656e+002,1.060425e+000
6.382298e+002,1.225159e+000
6.391940e+002,-3.806702e+000
6.401583e+002,-6.582031e+000
6.411225e+002,-4.600037e+000
6.420867e+002,-9.129028e-001
6.430510e+002,3.518677e-001
6.440152e+002,-2.921143e+000
6.449794e+002,-6.145569e+000
6.459437e+002,-6.980530e+000
6.469079e+002,-6.769897e+000
6.478721e+002,-6.232178e+000
6.488364e+002,-5.655457e+000
6.498006e+002,-4.965393e+000
6.507648e+002,-4.194153e+000
6.517291e+002,-3.413269e+000
6.526933e+002,-2.307495e+000
6.536575e+002,-7.735596e-001
6.546218e+002,4.089355e-001
6.555860e+002,-3.816528e-001
6.565502e+002,-5.127747e+000
6.575145e+002,-7.549072e+000
6.584787e+002,-6.219360e+000
6.594429e+002,-3.997864e+000
6.604072e+002,-3.270203e+000
6.613714e+002,-4.527039e+000
6.623356e+002,-5.261597e+000
6.632999e+002,-4.173523e+000
6.642641e+002,-2.773804e+000
6.652283e+002,-1.369446e+000
6.661926e+002,-3.662109e-002
6.671568e+002,1.202698e+000
6.681210e+002,2.111938e+000
6.690853e+002,2.615051e+000
6.700495e+002,2.913208e+000
6.710137e+002,3.051758e+000
6.719780e+002,3.290527e+000
6.729422e+002,3.901489e+000
6.739064e+002,4.896240e+000
6.748707e+002,5.439453e+000
6.758349e+002,6.159607e+000
6.767991e+002,5.791138e+000
6.777634e+002,3.275879e+000
6.787276e+002,-7.693481e-001
6.796918e+002,-3.405396e+000
6.806561e+002,-2.928772e+000
6.816203e+002,-1.996094e+000
6.825845e+002,-1.327454e+000
6.835488e+002,-9.656372e-001
6.845130e+002,-8.525391e-001
6.854772e+002,-9.404907e-001
6.864415e+002,-7.287598e-001
6.874057e+002,9.750366e-001
6.883699e+002,3.180603e+000
6.893342e+002,3.693420e+000
6.902984e+002,1.173645e+000
6.912626e+002,-3.546387e+000
6.922269e+002,-5.350586e+000
6.931911e+002,-1.086365e+000
6.941553e+002,2.777161e+000
6.951196e+002,5.721436e+000
6.960838e+002,7.497009e+000
6.970480e+002,7.682434e+000
6.980123e+002,5.541626e+000
6.989765e+002,3.883362e+000
6.999407e+002,4.684387e+000
7.009050e+002,5.685242e+000
7.018692e+002,4.563171e+000
7.028334e+002,7.889404e-001
7.037977e+002,-3.464600e+000
7.047619e+002,-4.269836e+000
7.057261e+002,-2.690491e+000
7.066904e+002,-1.187622e+000
7.076546e+002,-1.701660e-001
7.086188e+002,4.324951e-001
7.095831e+002,6.675415e-001
7.105473e+002,1.405029e-001
7.115115e+002,-3.143311e-002
7.124758e+002,4.069824e-001
7.134400e+002,6.755371e-001
7.144042e+002,6.510010e-001
7.153685e+002,3.991089e-001
7.163327e+002,-6.218872e-001
7.172969e+002,-4.438477e+000
7.182612e+002,-7.330200e+000
7.192254e+002,-7.331970e+000
7.201896e+002,-5.330933e+000
7.211539e+002,-3.144958e+000
7.221181e+002,-2.167908e+000
7.230823e+002,-2.227722e+000
7.240466e+002,-3.279724e+000
7.250108e+002,-4.692444e+000
7.259750e+002,-4.393921e+000
7.269393e+002,-1.068054e+000
7.279035e+002,4.328674e+000
7.288677e+002,6.501343e+000
7.298320e+002,2.930786e+000
7.307962e+002,4.002686e-001
7.317604e+002,-2.583618e-001
7.327247e+002,2.712402e-001
7.336889e+002,7.202148e-001
7.346531e+002,1.420898e-001
7.356174e+002,-2.998657e-001
7.365816e+002,2.069641e+000
7.375458e+002,4.493347e+000
7.385101e+002,3.667725e+000
7.394743e+002,-4.974976e-001
7.404385e+002,-4.112854e+000
7.414028e+002,-2.124023e-001
7.423670e+002,8.312256e+000
7.433312e+002,1.025439e+001
7.442955e+002,4.849915e+000
7.452597e+002,-2.029480e+000
7.462239e+002,-3.770630e+000
7.471882e+002,1.094849e+000
7.481524e+002,4.252502e+000
7.491166e+002,4.363098e+000
7.500809e+002,3.741943e+000
7.510451e+002,3.099915e+000
7.520093e+002,2.462524e+000
7.529736e+002,1.600281e+000
7.539378e+002,5.333862e-001
7.549020e+002,-1.177979e-001
7.558663e+002,-1.231689e-001
7.568306e+002,3.988647e-001
7.577948e+002,1.308655e+000
7.587590e+002,2.383667e+000
7.597233e+002,3.275085e+000
7.606875e+002,3.577087e+000
7.616517e+002,3.570007e+000
7.626160e+002,3.241943e+000
7.635802e+002,2.421265e+000
7.645444e+002,1.579895e+000
7.655087e+002,1.814453e+000
7.664729e+002,4.179749e+000
7.674371e+002,4.971191e+000
7.684014e+002,2.256897e+000
7.693656e+002,-3.370972e-001
7.703298e+002,1.381226e-001
7.712941e+002,3.751709e+000
7.722583e+002,6.967896e+000
7.732225e+002,6.612305e+000
7.741868e+002,5.302246e+000
7.751510e+002,4.785461e+000
7.761152e+002,5.147522e+000
7.770795e+002,6.128052e+000
7.780437e+002,7.467834e+000
7.790079e+002,8.976318e+000
7.799722e+002,9.787842e+000
7.809364e+002,9.972717e+000
7.819006e+002,9.670837e+000
7.828649e+002,9.239136e+000
7.838291e+002,8.700806e+000
7.847933e+002,7.535156e+000
7.857576e+002,4.905212e+000
7.867218e+002,1.978760e+000
7.876860e+002,-2.044800e+000
7.886503e+002,-4.966370e+000
7.896145e+002,-4.176392e+000
7.905787e+002,6.736450e-001
7.915430e+002,5.791992e+000
7.925072e+002,6.312805e+000
7.934714e+002,4.711975e+000
7.944357e+002,4.001343e+000
7.953999e+002,4.554443e+000
7.963641e+002,5.395020e+000
7.973284e+002,5.293518e+000
7.982926e+002,4.185730e+000
7.992568e+002,3.380920e+000
8.002211e+002,2.277039e+000
8.011853e+002,9.555054e-001
8.021495e+002,-3.344116e-001
8.031138e+002,-9.712524e-001
8.040780e+002,-5.609131e-002
8.050422e+002,3.209106e+000
8.060065e+002,6.069641e+000
8.069707e+002,7.612793e+000
8.079349e+002,8.034485e+000
8.088992e+002,7.383728e+000
8.098634e+002,5.951965e+000
8.108276e+002,4.592163e+000
8.117919e+002,4.192383e+000
8.127561e+002,4.111267e+000
8.137203e+002,4.237854e+000
8.146846e+002,4.884277e+000
8.156488e+002,5.898926e+000
8.166130e+002,6.832153e+000
8.175773e+002,7.496826e+000
8.185415e+002,8.711121e+000
8.195057e+002,1.152222e+001
8.204700e+002,1.294434e+001
8.214342e+002,1.077716e+001
8.223984e+002,6.476990e+000
8.233627e+002,4.035400e+000
8.243269e+002,5.642151e+000
8.252911e+002,7.958008e+000
8.262554e+002,9.260742e+000
8.272196e+002,9.863159e+000
8.281838e+002,9.567993e+000
8.291481e+002,8.581116e+000
8.301123e+002,8.081421e+000
8.310765e+002,1.070898e+001
8.320408e+002,1.584296e+001
8.330050e+002,1.743469e+001
8.339692e+002,1.455853e+001
8.349335e+002,1.029340e+001
8.358977e+002,7.572998e+000
8.368619e+002,6.632141e+000
8.378262e+002,6.876526e+000
8.387904e+002,9.134705e+000
8.397546e+002,1.105048e+001
8.407189e+002,1.222064e+001
8.416831e+002,1.267950e+001
8.426473e+002,1.250159e+001
8.436116e+002,1.163684e+001
8.445758e+002,1.071381e+001
8.455400e+002,9.352661e+000
8.465043e+002,8.106506e+000
8.474685e+002,8.448730e+000
8.484327e+002,1.083862e+001
8.493970e+002,1.436829e+001
8.503612e+002,1.718085e+001
8.513254e+002,1.914374e+001
8.522897e+002,1.916943e+001
8.532539e+002,1.593024e+001
8.542181e+002,1.232660e+001
8.551824e+002,1.000922e+001
8.561466e+002,9.294556e+000
8.571108e+002,1.020331e+001
8.580751e+002,1.281256e+001
8.590393e+002,1.549908e+001
8.600035e+002,1.885583e+001
8.609678e+002,2.200665e+001
8.619320e+002,2.402625e+001
8.628962e+002,2.448151e+001
8.638605e+002,2.350543e+001
8.648247e+002,2.003644e+001
8.657889e+002,1.570691e+001
8.667532e+002,1.473895e+001
8.677174e+002,1.767432e+001
8.686816e+002,2.154779e+001
8.696459e+002,2.301147e+001
8.706101e+002,2.183893e+001
8.715743e+002,2.115454e+001
8.725386e+002,2.128662e+001
8.735028e+002,2.150293e+001
8.744670e+002,2.042755e+001
8.754313e+002,1.912903e+001
8.763955e+002,2.044617e+001
8.773597e+002,2.646362e+001
8.783240e+002,3.174231e+001
8.792882e+002,3.178326e+001
8.802524e+002,2.952942e+001
8.812167e+002,2.707544e+001
8.821809e+002,2.512909e+001
8.831451e+002,2.342267e+001
8.841094e+002,2.160059e+001
8.850736e+002,2.004071e+001
8.860378e+002,2.062061e+001
8.870021e+002,2.353571e+001
8.879663e+002,2.675604e+001
8.889305e+002,2.903943e+001
8.898948e+002,3.049237e+001
8.908590e+002,3.226208e+001
8.918232e+002,3.577484e+001
8.927875e+002,3.774109e+001
8.937517e+002,3.666833e+001
8.947159e+002,3.460406e+001
8.956802e+002,3.272107e+001
8.966444e+002,3.130566e+001
8.976086e+002,3.038336e+001
8.985729e+002,3.056293e+001
8.995371e+002,3.150836e+001
9.005013e+002,3.185571e+001
9.014656e+002,3.197980e+001
9.024298e+002,3.339368e+001
9.033940e+002,3.728339e+001
9.043583e+002,4.281055e+001
9.053225e+002,4.529108e+001
9.062867e+002,4.069702e+001
9.072510e+002,3.767932e+001
9.082152e+002,3.868774e+001
9.091794e+002,4.057330e+001
9.101437e+002,3.934924e+001
9.111079e+002,3.430518e+001
9.120721e+002,3.081476e+001
9.130364e+002,3.323145e+001
9.140006e+002,3.668939e+001
9.149648e+002,3.880469e+001
9.159291e+002,4.010480e+001
9.168933e+002,4.235803e+001
9.178575e+002,4.659198e+001
9.188218e+002,5.121930e+001
9.197860e+002,5.036230e+001
9.207502e+002,4.369159e+001
9.217145e+002,3.941663e+001
9.226787e+002,4.085052e+001
9.236429e+002,4.438953e+001
9.246072e+002,4.463568e+001
9.255714e+002,4.052887e+001
9.265356e+002,3.745581e+001
9.274999e+002,3.741760e+001
9.284641e+002,3.704352e+001
9.294283e+002,3.492468e+001
9.303926e+002,3.193701e+001
9.313568e+002,2.984265e+001
9.323210e+002,2.958087e+001
9.332853e+002,2.973419e+001
9.342495e+002,2.669861e+001
9.352137e+002,2.275348e+001
9.361780e+002,2.286157e+001
9.371422e+002,2.821429e+001
9.381064e+002,3.456921e+001
9.390707e+002,3.565161e+001
9.400349e+002,2.999884e+001
9.409991e+002,2.672748e+001
9.419634e+002,2.641437e+001
9.429276e+002,2.717645e+001
9.438918e+002,2.941394e+001
9.448561e+002,3.227460e+001
9.458203e+002,3.451025e+001
9.467845e+002,3.590643e+001
9.477488e+002,3.660754e+001
9.487130e+002,3.606836e+001
9.496772e+002,3.521130e+001
9.506415e+002,3.453174e+001
9.516057e+002,3.421735e+001
9.525699e+002,3.445837e+001
9.535342e+002,3.542029e+001
9.544984e+002,3.682886e+001
9.554626e+002,3.739673e+001
9.564269e+002,3.761615e+001
9.573911e+002,3.746960e+001
9.583553e+002,3.652032e+001
9.593196e+002,3.517236e+001
9.602838e+002,3.377533e+001
9.612480e+002,3.178839e+001
9.622123e+002,3.172430e+001
9.631765e+002,3.736914e+001
9.641407e+002,4.224896e+001
9.651050e+002,4.233032e+001
9.660692e+002,3.908093e+001
9.670334e+002,3.639722e+001
9.679977e+002,3.688129e+001
9.689619e+002,3.934155e+001
9.699261e+002,4.132214e+001
9.708904e+002,4.245288e+001
9.718546e+002,4.165790e+001
9.728188e+002,3.819690e+001
9.737831e+002,3.417578e+001
9.747473e+002,3.236676e+001
9.757115e+002,3.306628e+001
9.766758e+002,3.511835e+001
9.776400e+002,4.188513e+001
9.786042e+002,4.642664e+001
9.795685e+002,4.532098e+001
9.805327e+002,4.133356e+001
9.814969e+002,3.843231e+001
9.824612e+002,3.814069e+001
9.834254e+002,3.889270e+001
9.843896e+002,3.958160e+001
9.853539e+002,3.961243e+001
9.863181e+002,3.768964e+001
9.872823e+002,3.410498e+001
9.882466e+002,3.105310e+001
9.892108e+002,3.072931e+001
9.901750e+002,3.321448e+001
9.911393e+002,3.582739e+001
9.921035e+002,3.739777e+001
9.930677e+002,3.917090e+001
9.940320e+002,4.131195e+001
9.949962e+002,4.422418e+001
9.959604e+002,4.888007e+001
9.969247e+002,5.523401e+001
9.978889e+002,6.039429e+001
9.988531e+002,6.146936e+001
9.998174e+002,6.177686e+001
1.000782e+003,6.403406e+001
1.001746e+003,6.725061e+001
1.002710e+003,6.999689e+001
1.003674e+003,7.144348e+001
1.004639e+003,7.115637e+001
1.005603e+003,6.795587e+001
1.006567e+003,6.138660e+001
1.007531e+003,5.994574e+001
1.008495e+003,6.609601e+001
1.009460e+003,7.227979e+001
1.010424e+003,7.394983e+001
1.011388e+003,7.211133e+001
1.012352e+003,7.047498e+001
1.013317e+003,6.958569e+001
1.014281e+003,6.816974e+001
1.015245e+003,6.555719e+001
1.016209e+003,6.234094e+001
1.017174e+003,5.910266e+001
1.018138e+003,5.586957e+001
1.019102e+003,5.202496e+001
1.020066e+003,4.695801e+001
1.021031e+003,4.180487e+001
1.021995e+003,3.947601e+001
1.022959e+003,3.912085e+001
1.023923e+003,3.908215e+001
1.024887e+003,3.917230e+001
1.025852e+003,3.858014e+001
1.026816e+003,3.560248e+001
1.027780e+003,2.950525e+001
1.028744e+003,2.582129e+001
1.029709e+003,2.792035e+001
1.030673e+003,2.882825e+001
1.031637e+003,2.505780e+001
1.032601e+003,1.922931e+001
1.033566e+003,1.533533e+001
1.034530e+003,1.484515e+001
1.035494e+003,1.563525e+001
1.036458e+003,1.494336e+001
1.037422e+003,1.411981e+001
1.038387e+003,1.631567e+001
1.039351e+003,2.108282e+001
1.040315e+003,2.461151e+001
1.041279e+003,2.397577e+001
1.042244e+003,2.031818e+001
1.043208e+003,1.861206e+001
1.044172e+003,1.962543e+001
1.045136e+003,2.083875e+001
1.046101e+003,2.293738e+001
1.047065e+003,2.479126e+001
1.048029e+003,2.580444e+001
1.048993e+003,2.579028e+001
1.049958e+003,2.437445e+001
1.050922e+003,2.086926e+001
1.051886e+003,1.782056e+001
1.052850e+003,1.774652e+001
1.053814e+003,1.948468e+001
1.054779e+003,2.240289e+001
1.055743e+003,2.590387e+001
1.056707e+003,2.816162e+001
1.057671e+003,2.680463e+001
1.058636e+003,2.173254e+001
1.059600e+003,1.971106e+001
1.060564e+003,2.365338e+001
1.061528e+003,2.707709e+001
1.062493e+003,2.919800e+001
1.063457e+003,2.974353e+001
1.064421e+003,2.808716e+001
1.065385e+003,2.438031e+001
1.066349e+003,2.105249e+001
1.067314e+003,1.928992e+001
1.068278e+003,1.842645e+001
1.069242e+003,1.843768e+001
1.070206e+003,1.893994e+001
1.071171e+003,1.912146e+001
1.072135e+003,1.856946e+001
1.073099e+003,1.775897e+001
1.074063e+003,1.779663e+001
1.075028e+003,1.894684e+001
1.075992e+003,1.911047e+001
1.076956e+003,1.713776e+001
1.077920e+003,1.570605e+001
1.078885e+003,1.658569e+001
1.079849e+003,1.880981e+001
1.080813e+003,2.057898e+001
1.081777e+003,2.179034e+001
1.082741e+003,2.211560e+001
1.083706e+003,1.946637e+001
1.084670e+003,1.683984e+001
1.085634e+003,1.620361e+001
1.086598e+003,1.686926e+001
1.087563e+003,1.739594e+001
1.088527e+003,1.710687e+001
1.089491e+003,1.653265e+001
1.090455e+003,1.620612e+001
1.091420e+003,1.589539e+001
1.092384e+003,1.573077e+001
1.093348e+003,1.570038e+001
1.094312e+003,1.535052e+001
1.095276e+003,1.390320e+001
1.096241e+003,1.233765e+001
1.097205e+003,1.359564e+001
1.098169e+003,1.928149e+001
1.099133e+003,2.333002e+001
1.100098e+003,2.211182e+001
1.101062e+003,2.024786e+001
1.102026e+003,2.069879e+001
1.102990e+003,2.300201e+001
1.103955e+003,2.523627e+001
1.104919e+003,2.615692e+001
1.105883e+003,2.600708e+001
1.106847e+003,2.536176e+001
1.107812e+003,2.416302e+001
1.108776e+003,2.303394e+001
1.109740e+003,2.152850e+001
1.110704e+003,2.107874e+001
1.111668e+003,2.394794e+001
1.112633e+003,2.930457e+001
1.113597e+003,3.228638e+001
1.114561e+003,3.093073e+001
1.115525e+003,3.006097e+001
1.116490e+003,3.204810e+001
1.117454e+003,3.403870e+001
1.118418e+003,3.393011e+001
1.119382e+003,3.259583e+001
1.120347e+003,3.235327e+001
1.121311e+003,3.435443e+001
1.122275e+003,3.698730e+001
1.123239e+003,3.787238e+001
1.124203e+003,3.751361e+001
1.125168e+003,3.708124e+001
1.126132e+003,3.626093e+001
1.127096e+003,3.668268e+001
1.128060e+003,4.003430e+001
1.129025e+003,4.553851e+001
1.129989e+003,5.011566e+001
1.130953e+003,5.358624e+001
1.131917e+003,5.560309e+001
1.132882e+003,5.528174e+001
1.133846e+003,5.480310e+001
1.134810e+003,5.508380e+001
1.135774e+003,5.644025e+001
1.136739e+003,5.915283e+001
1.137703e+003,6.332324e+001
1.138667e+003,6.822021e+001
1.139631e+003,7.263263e+001
1.140595e+003,7.661127e+001
1.141560e+003,8.120508e+001
1.142524e+003,8.651782e+001
1.143488e+003,9.323901e+001
1.144452e+003,1.012865e+002
1.145417e+003,1.109695e+002
1.146381e+003,1.238737e+002
1.147345e+003,1.414008e+002
1.148309e+003,1.581603e+002
1.149274e+003,1.724680e+002
1.150238e+003,1.864772e+002
1.151202e+003,2.020530e+002
1.152166e+003,2.183281e+002
1.153130e+003,2.342104e+002
1.154095e+003,2.485663e+002
1.155059e+003,2.585248e+002
1.156023e+003,2.599701e+002
1.156987e+003,2.536382e+002
1.157952e+003,2.467038e+002
1.158916e+003,2.397723e+002
1.159880e+003,2.326361e+002
1.160844e+003,2.251752e+002
1.161809e+003,2.162664e+002
1.162773e+003,2.039826e+002
1.163737e+003,1.875798e+002
1.164701e+003,1.713726e+002
1.165666e+003,1.561075e+002
1.166630e+003,1.420866e+002
1.167594e+003,1.280973e+002
1.168558e+003,1.159426e+002
1.169522e+003,1.086714e+002
1.170487e+003,1.067451e+002
1.171451e+003,1.070998e+002
1.172415e+003,1.062824e+002
1.173379e+003,1.046266e+002
1.174344e+003,1.051839e+002
1.175308e+003,1.084397e+002
1.176272e+003,1.090876e+002
1.177236e+003,1.034380e+002
1.178201e+003,9.609961e+001
1.179165e+003,9.379364e+001
1.180129e+003,9.635809e+001
1.181093e+003,9.465930e+001
1.182057e+003,8.243665e+001
1.183022e+003,7.273395e+001
1.183986e+003,7.087836e+001
1.184950e+003,7.314386e+001
1.185914e+003,7.739734e+001
1.186879e+003,8.223999e+001
1.187843e+003,8.568878e+001
1.188807e+003,8.597656e+001
1.189771e+003,8.433527e+001
1.190736e+003,8.508630e+001
1.191700e+003,8.854504e+001
1.192664e+003,9.073657e+001
1.193628e+003,9.161578e+001
1.194593e+003,9.123010e+001
1.195557e+003,8.918622e+001
1.196521e+003,8.576184e+001
1.197485e+003,8.181476e+001
1.198449e+003,7.694598e+001
1.199414e+003,7.346783e+001
1.200378e+003,7.459351e+001
1.201342e+003,7.553412e+001
1.202306e+003,7.232526e+001
1.203271e+003,6.642676e+001
1.204235e+003,6.151636e+001
1.205199e+003,5.947021e+001
1.206163e+003,5.903186e+001
1.207128e+003,5.809760e+001
1.208092e+003,5.668665e+001
1.209056e+003,5.466730e+001
1.210020e+003,5.226923e+001
1.210984e+003,4.905920e+001
1.211949e+003,4.481378e+001
1.212913e+003,3.959186e+001
1.213877e+003,3.250494e+001
1.214841e+003,2.381354e+001
1.215806e+003,1.871277e+001
1.216770e+003,2.140479e+001
1.217734e+003,2.459344e+001
1.218698e+003,2.282965e+001
1.219663e+003,1.856323e+001
1.220627e+003,1.424158e+001
1.221591e+003,1.077661e+001
1.222555e+003,8.620239e+000
1.223520e+003,8.292969e+000
1.224484e+003,9.564880e+000
1.225448e+003,1.073523e+001
1.226412e+003,1.221924e+001
1.227376e+003,1.227570e+001
1.228341e+003,8.976929e+000
1.229305e+003,6.234009e+000
1.230269e+003,6.898865e+000
1.231233e+003,9.386658e+000
1.232198e+003,1.023584e+001
1.233162e+003,8.608215e+000
1.234126e+003,7.402222e+000
1.235090e+003,8.992615e+000
1.236055e+003,1.130090e+001
1.237019e+003,1.231421e+001
1.237983e+003,1.210791e+001
1.238947e+003,1.121429e+001
1.239911e+003,1.002527e+001
1.240876e+003,8.899597e+000
1.241840e+003,8.097351e+000
1.242804e+003,7.584106e+000
1.243768e+003,8.294067e+000
1.244733e+003,1.202759e+001
1.245697e+003,1.462054e+001
1.246661e+003,1.507336e+001
1.247625e+003,1.432690e+001
1.248590e+003,1.210535e+001
1.249554e+003,9.753479e+000
1.250518e+003,1.058203e+001
1.251482e+003,1.617029e+001
1.252447e+003,2.239331e+001
1.253411e+003,2.452679e+001
1.254375e+003,2.408929e+001
1.255339e+003,2.424896e+001
1.256303e+003,2.522205e+001
1.257268e+003,2.513837e+001
1.258232e+003,2.195496e+001
1.259196e+003,1.767767e+001
1.260160e+003,1.712573e+001
1.261125e+003,2.117975e+001
1.262089e+003,2.533044e+001
1.263053e+003,2.975635e+001
1.264017e+003,3.274115e+001
1.264982e+003,3.352838e+001
1.265946e+003,3.323895e+001
1.266910e+003,3.274457e+001
1.267874e+003,3.223828e+001
1.268839e+003,3.141608e+001
1.269803e+003,3.007886e+001
1.270767e+003,2.893311e+001
1.271731e+003,2.981537e+001
1.272695e+003,3.269403e+001
1.273660e+003,3.327576e+001
1.274624e+003,3.034155e+001
1.275588e+003,2.672864e+001
1.276552e+003,2.404694e+001
1.277517e+003,2.218817e+001
1.278481e+003,2.064441e+001
1.279445e+003,1.931152e+001
1.280409e+003,1.795477e+001
1.281374e+003,1.681049e+001
1.282338e+003,1.528687e+001
1.283302e+003,1.168933e+001
1.284266e+003,8.333984e+000
1.285230e+003,8.749146e+000
1.286195e+003,1.253809e+001
1.287159e+003,1.574579e+001
1.288123e+003,1.523901e+001
1.289087e+003,1.239374e+001
1.290052e+003,1.080963e+001
1.291016e+003,1.059491e+001
1.291980e+003,1.050061e+001
1.292944e+003,1.084070e+001
1.293909e+003,1.035327e+001
1.294873e+003,7.877930e+000
1.295837e+003,5.154602e+000
1.296801e+003,4.618835e+000
1.297766e+003,6.495422e+000
1.298730e+003,8.966858e+000
1.299694e+003,1.136505e+001
1.300658e+003,1.299786e+001
1.301622e+003,1.358771e+001
1.302587e+003,1.311865e+001
1.303551e+003,1.042517e+001
1.304515e+003,5.798889e+000
1.305479e+003,2.781433e+000
1.306444e+003,4.312866e+000
1.307408e+003,8.964722e+000
1.308372e+003,1.254077e+001
1.309336e+003,1.516583e+001
1.310301e+003,1.615338e+001
1.311265e+003,1.444708e+001
1.312229e+003,1.277350e+001
1.313193e+003,1.166040e+001
1.314157e+003,1.099915e+001
1.315122e+003,1.123816e+001
1.316086e+003,1.177527e+001
1.317050e+003,1.020142e+001
1.318014e+003,4.797302e+000
1.318979e+003,-9.005127e-001
1.319943e+003,-7.751465e-003
1.320907e+003,6.758667e+000
1.321871e+003,1.073322e+001
1.322836e+003,1.039905e+001
1.323800e+003,1.009955e+001
1.324764e+003,1.309357e+001
1.325728e+003,1.718457e+001
1.326693e+003,1.834259e+001
1.327657e+003,1.625073e+001
1.328621e+003,1.339728e+001
1.329585e+003,1.001129e+001
1.330549e+003,8.452759e+000
1.331514e+003,1.002130e+001
1.332478e+003,1.228418e+001
1.333442e+003,1.355994e+001
1.334406e+003,1.366223e+001
1.335371e+003,1.254993e+001
1.336335e+003,1.027747e+001
1.337299e+003,7.982971e+000
1.338263e+003,7.795837e+000
1.339228e+003,1.000360e+001
1.340192e+003,1.177002e+001
1.341156e+003,1.421539e+001
1.342120e+003,1.462122e+001
1.343084e+003,1.013867e+001
1.344049e+003,5.124451e+000
1.345013e+003,3.230530e+000
1.345977e+003,4.377502e+000
1.346941e+003,7.388245e+000
1.347906e+003,1.199756e+001
1.348870e+003,1.553925e+001
1.349834e+003,1.463428e+001
1.350798e+003,1.147638e+001
1.351763e+003,1.132233e+001
1.352727e+003,1.355737e+001
1.353691e+003,1.365631e+001
1.354655e+003,9.505432e+000
1.355620e+003,4.527588e+000
1.356584e+003,2.793457e+000
1.357548e+003,4.090515e+000
1.358512e+003,5.775085e+000
1.359476e+003,7.799988e+000
1.360441e+003,9.054382e+000
1.361405e+003,9.405518e+000
1.362369e+003,9.124878e+000
1.363333e+003,7.750549e+000
1.364298e+003,6.130249e+000
1.365262e+003,5.465637e+000
1.366226e+003,5.957153e+000
1.367190e+003,6.797119e+000
1.368155e+003,7.266235e+000
1.369119e+003,7.519714e+000
1.370083e+003,8.151306e+000
1.371047e+003,9.606384e+000
1.372011e+003,1.010052e+001
1.372976e+003,7.165100e+000
1.373940e+003,5.871765e+000
1.374904e+003,1.061554e+001
1.375868e+003,1.665314e+001
1.376833e+003,1.705231e+001
1.377797e+003,1.195081e+001
1.378761e+003,7.689453e+000
1.379725e+003,7.034607e+000
1.380690e+003,7.924744e+000
1.381654e+003,8.600952e+000
1.382618e+003,9.495239e+000
1.383582e+003,1.138824e+001
1.384547e+003,1.415802e+001
1.385511e+003,1.691089e+001
1.386475e+003,1.929810e+001
1.387439e+003,2.056592e+001
1.388403e+003,1.884943e+001
1.389368e+003,1.413373e+001
1.390332e+003,1.205945e+001
1.391296e+003,1.477173e+001
1.392260e+003,1.652057e+001
1.393225e+003,1.511835e+001
1.394189e+003,1.332452e+001
1.395153e+003,1.234534e+001
1.396117e+003,1.219019e+001
1.397082e+003,1.306018e+001
1.398046e+003,1.472711e+001
1.399010e+003,1.591888e+001
1.399974e+003,1.525323e+001
1.400938e+003,1.301086e+001
1.401903e+003,1.098633e+001
1.402867e+003,9.766357e+000
1.403831e+003,1.041736e+001
1.404795e+003,1.373676e+001
1.405760e+003,1.696960e+001
1.406724e+003,1.902185e+001
1.407688e+003,1.955621e+001
1.408652e+003,1.842041e+001
1.409617e+003,1.624103e+001
1.410581e+003,1.425928e+001
1.411545e+003,1.287677e+001
1.412509e+003,1.217615e+001
1.413474e+003,1.222900e+001
1.414438e+003,1.254510e+001
1.415402e+003,1.307324e+001
1.416366e+003,1.398212e+001
1.417330e+003,1.477789e+001
1.418295e+003,1.524884e+001
1.419259e+003,1.564862e+001
1.420223e+003,1.618542e+001
1.421187e+003,1.660150e+001
1.422152e+003,1.621454e+001
1.423116e+003,1.460352e+001
1.424080e+003,1.476367e+001
1.425044e+003,1.962225e+001
1.426009e+003,2.348877e+001
1.426973e+003,2.344836e+001
1.427937e+003,2.139862e+001
1.428901e+003,1.905951e+001
1.429865e+003,1.740149e+001
1.430830e+003,1.769275e+001
1.431794e+003,2.054840e+001
1.432758e+003,2.400470e+001
1.433722e+003,2.446466e+001
1.434687e+003,2.207300e+001
1.435651e+003,2.108496e+001
1.436615e+003,2.081439e+001
1.437579e+003,2.080261e+001
1.438544e+003,2.116229e+001
1.439508e+003,2.191248e+001
1.440472e+003,2.375372e+001
1.441436e+003,2.615631e+001
1.442401e+003,2.799518e+001
1.443365e+003,2.886163e+001
1.444329e+003,2.882178e+001
1.445293e+003,2.794012e+001
1.446257e+003,2.652832e+001
1.447222e+003,2.447900e+001
1.448186e+003,2.208588e+001
1.449150e+003,2.172668e+001
1.450114e+003,2.416455e+001
1.451079e+003,2.589813e+001
1.452043e+003,2.501355e+001
1.453007e+003,2.296100e+001
1.453971e+003,2.112231e+001
1.454936e+003,1.948816e+001
1.455900e+003,1.879327e+001
1.456864e+003,1.957178e+001
1.457828e+003,2.057343e+001
1.458792e+003,2.099048e+001
1.459757e+003,2.099615e+001
1.460721e+003,2.043408e+001
1.461685e+003,1.966205e+001
1.462649e+003,1.940057e+001
1.463614e+003,1.997797e+001
1.464578e+003,2.137671e+001
1.465542e+003,2.362775e+001
1.466506e+003,2.614001e+001
1.467471e+003,2.770563e+001
1.468435e+003,2.883484e+001
1.469399e+003,2.830017e+001
1.470363e+003,2.241412e+001
1.471328e+003,1.932507e+001
1.472292e+003,2.311310e+001
1.473256e+003,2.739844e+001
1.474220e+003,2.802197e+001
1.475184e+003,2.610144e+001
1.476149e+003,2.383203e+001
1.477113e+003,2.210767e+001
1.478077e+003,2.140619e+001
1.479041e+003,2.250446e+001
1.480006e+003,2.502820e+001
1.480970e+003,2.708142e+001
1.481934e+003,2.834277e+001
1.482898e+003,2.891638e+001
1.483863e+003,2.771924e+001
1.484827e+003,2.727679e+001
1.485791e+003,2.929425e+001
1.486755e+003,3.197937e+001
1.487719e+003,3.333978e+001
1.488684e+003,3.362524e+001
1.489648e+003,3.412769e+001
1.490612e+003,3.545825e+001
1.491576e+003,3.809082e+001
1.492541e+003,4.269165e+001
1.493505e+003,4.795856e+001
1.494469e+003,5.108264e+001
1.495433e+003,5.201373e+001
1.496398e+003,5.199744e+001
1.497362e+003,5.097394e+001
1.498326e+003,5.141455e+001
1.499290e+003,5.505640e+001
1.500255e+003,6.044159e+001
1.501219e+003,6.566382e+001
1.502183e+003,7.065710e+001
1.503147e+003,7.566187e+001
1.504111e+003,8.039294e+001
1.505076e+003,8.692249e+001
1.506040e+003,9.735590e+001
1.507004e+003,1.094016e+002
1.507968e+003,1.202458e+002
1.508933e+003,1.309650e+002
1.509897e+003,1.436897e+002
1.510861e+003,1.593409e+002
1.511825e+003,1.780964e+002
1.512790e+003,2.005101e+002
1.513754e+003,2.242321e+002
1.514718e+003,2.450746e+002
1.515682e+003,2.627509e+002
1.516646e+003,2.807983e+002
1.517611e+003,3.004670e+002
1.518575e+003,3.191025e+002
1.519539e+003,3.384356e+002
1.520503e+003,3.544916e+002
1.521468e+003,3.649514e+002
1.522432e+003,3.705474e+002
1.523396e+003,3.722629e+002
1.524360e+003,3.704434e+002
1.525325e+003,3.652606e+002
1.526289e+003,3.569329e+002
1.527253e+003,3.459943e+002
1.528217e+003,3.333863e+002
1.529182e+003,3.194083e+002
1.530146e+003,3.008065e+002
1.531110e+003,2.745955e+002
1.532074e+003,2.485665e+002
1.533039e+003,2.227014e+002
1.534003e+003,1.964376e+002
1.534967e+003,1.687695e+002
1.535931e+003,1.423864e+002
1.536896e+003,1.196769e+002
1.537860e+003,1.011534e+002
1.538824e+003,8.636487e+001
1.539788e+003,7.486597e+001
1.540752e+003,6.635181e+001
1.541717e+003,6.081720e+001
1.542681e+003,5.802191e+001
1.543645e+003,5.531915e+001
1.544609e+003,5.314038e+001
1.545573e+003,5.085120e+001
1.546538e+003,4.791345e+001
1.547502e+003,4.461261e+001
1.548466e+003,4.108307e+001
1.549430e+003,3.806299e+001
1.550395e+003,3.608344e+001
1.551359e+003,3.483521e+001
1.552323e+003,3.386707e+001
1.553287e+003,3.301385e+001
1.554252e+003,3.177130e+001
1.555216e+003,2.950659e+001
1.556180e+003,2.691492e+001
1.557144e+003,2.581635e+001
1.558109e+003,2.640271e+001
1.559073e+003,2.658636e+001
1.560037e+003,2.580817e+001
1.561001e+003,2.463184e+001
1.561966e+003,2.327930e+001
1.562930e+003,2.247675e+001
1.563894e+003,2.302618e+001
1.564858e+003,2.420508e+001
1.565823e+003,2.437280e+001
1.566787e+003,2.322180e+001
1.567751e+003,2.191040e+001
1.568715e+003,2.106183e+001
1.569679e+003,2.081720e+001
1.570644e+003,2.119653e+001
1.571608e+003,2.202161e+001
1.572572e+003,2.402893e+001
1.573536e+003,2.752765e+001
1.574500e+003,2.849548e+001
1.575465e+003,2.388837e+001
1.576429e+003,1.883685e+001
1.577393e+003,1.704474e+001
1.578357e+003,1.768182e+001
1.579322e+003,1.996521e+001
1.580286e+003,2.371722e+001
1.581250e+003,2.694391e+001
1.582214e+003,2.919373e+001
1.583179e+003,3.018750e+001
1.584143e+003,2.903082e+001
1.585107e+003,2.672180e+001
1.586071e+003,2.471521e+001
1.587036e+003,2.342841e+001
1.588000e+003,2.306635e+001
1.588964e+003,2.344110e+001
1.589928e+003,2.444763e+001
1.590893e+003,2.653168e+001
1.591857e+003,2.883093e+001
1.592821e+003,2.992230e+001
1.593785e+003,3.007361e+001
1.594750e+003,3.071320e+001
1.595714e+003,3.209241e+001
1.596678e+003,3.230884e+001
1.597642e+003,2.971973e+001
1.598606e+003,2.712933e+001
1.599571e+003,2.734583e+001
1.600535e+003,2.874475e+001
1.601499e+003,2.876892e+001
1.602463e+003,2.760315e+001
1.603427e+003,2.801312e+001
1.604392e+003,3.144409e+001
1.605356e+003,3.433160e+001
1.606320e+003,3.198425e+001
1.607284e+003,2.668915e+001
1.608249e+003,2.545758e+001
1.609213e+003,2.847375e+001
1.610177e+003,2.989404e+001
1.611141e+003,2.814514e+001
1.612106e+003,2.631952e+001
1.613070e+003,2.604120e+001
1.614034e+003,2.603546e+001
1.614998e+003,2.494592e+001
1.615963e+003,2.370502e+001
1.616927e+003,2.431635e+001
1.617891e+003,2.667920e+001
1.618855e+003,2.817712e+001
1.619820e+003,2.705896e+001
1.620784e+003,2.441669e+001
1.621748e+003,2.191986e+001
1.622712e+003,2.011145e+001
1.623677e+003,1.982855e+001
1.624641e+003,2.134180e+001
1.625605e+003,2.307727e+001
1.626569e+003,2.423932e+001
1.627533e+003,2.472247e+001
1.628498e+003,2.460272e+001
1.629462e+003,2.445367e+001
1.630426e+003,2.476947e+001
1.631390e+003,2.527808e+001
1.632354e+003,2.535699e+001
1.633319e+003,2.486371e+001
1.634283e+003,2.429047e+001
1.635247e+003,2.397485e+001
1.636211e+003,2.366431e+001
1.637176e+003,2.278638e+001
1.638140e+003,2.159314e+001
1.639104e+003,2.214282e+001
1.640068e+003,2.517780e+001
1.641033e+003,2.662720e+001
1.641997e+003,2.391675e+001
1.642961e+003,2.201288e+001
1.643925e+003,2.495374e+001
1.644890e+003,2.849249e+001
1.645854e+003,2.753479e+001
1.646818e+003,2.356665e+001
1.647782e+003,2.135443e+001
1.648747e+003,2.233856e+001
1.649711e+003,2.465753e+001
1.650675e+003,2.733893e+001
1.651639e+003,2.975909e+001
1.652604e+003,3.000415e+001
1.653568e+003,2.797833e+001
1.654532e+003,2.557111e+001
1.655496e+003,2.243268e+001
1.656460e+003,2.057605e+001
1.657425e+003,2.158167e+001
1.658389e+003,2.292993e+001
1.659353e+003,2.376245e+001
1.660317e+003,2.380176e+001
1.661281e+003,2.232788e+001
1.662246e+003,1.973590e+001
1.663210e+003,1.700458e+001
1.664174e+003,1.465039e+001
1.665138e+003,1.408221e+001
1.666103e+003,1.720667e+001
1.667067e+003,2.127588e+001
1.668031e+003,2.004578e+001
1.668995e+003,1.410950e+001
1.669960e+003,1.133234e+001
1.670924e+003,1.304388e+001
1.671888e+003,1.504541e+001
1.672852e+003,1.625409e+001
1.673817e+003,1.681470e+001
1.674781e+003,1.681769e+001
1.675745e+003,1.623547e+001
1.676709e+003,1.459326e+001
1.677674e+003,1.233063e+001
1.678638e+003,1.086743e+001
1.679602e+003,1.065039e+001
1.680566e+003,1.031714e+001
1.681531e+003,8.558533e+000
1.682495e+003,6.819580e+000
1.683459e+003,7.775696e+000
1.684423e+003,1.069873e+001
1.685387e+003,1.182385e+001
1.686352e+003,1.065338e+001
1.687316e+003,1.002930e+001
1.688280e+003,1.132556e+001
1.689244e+003,1.246088e+001
1.690208e+003,1.144379e+001
1.691173e+003,9.581909e+000
1.692137e+003,7.869690e+000
1.693101e+003,6.895081e+000
1.694065e+003,7.951233e+000
1.695030e+003,1.117346e+001
1.695994e+003,1.377771e+001
1.696958e+003,1.409979e+001
1.697922e+003,1.320062e+001
1.698887e+003,1.196368e+001
1.699851e+003,1.074152e+001
1.700815e+003,1.067297e+001
1.701779e+003,1.165631e+001
1.702744e+003,1.125128e+001
1.703708e+003,8.398376e+000
1.704672e+003,6.772888e+000
1.705636e+003,9.909851e+000
1.706601e+003,1.396582e+001
1.707565e+003,1.316473e+001
1.708529e+003,9.190491e+000
1.709493e+003,6.558289e+000
1.710458e+003,5.816101e+000
1.711422e+003,5.580322e+000
1.712386e+003,5.509277e+000
1.713350e+003,5.964294e+000
1.714314e+003,7.148254e+000
1.715279e+003,8.539368e+000
1.716243e+003,9.839661e+000
1.717207e+003,1.087134e+001
1.718171e+003,1.079211e+001
1.719135e+003,9.440796e+000
1.720100e+003,7.911255e+000
1.721064e+003,6.622986e+000
1.722028e+003,6.005066e+000
1.722992e+003,7.716248e+000
1.723957e+003,1.116040e+001
1.724921e+003,1.069928e+001
1.725885e+003,5.041382e+000
1.726849e+003,6.416016e-001
1.727814e+003,-1.440125e+000
1.728778e+003,-1.069946e+000
1.729742e+003,4.371582e+000
1.730706e+003,9.770813e+000
1.731671e+003,8.785583e+000
1.732635e+003,3.752930e+000
1.733599e+003,8.865967e-001
1.734563e+003,1.428406e+000
1.735528e+003,2.478760e+000
1.736492e+003,2.358582e+000
1.737456e+003,1.857239e+000
1.738420e+003,1.897461e+000
1.739385e+003,2.159241e+000
1.740349e+003,2.457153e+000
1.741313e+003,3.306824e+000
1.742277e+003,2.708618e+000
1.743241e+003,-8.052979e-001
1.744206e+003,-2.872742e+000
1.745170e+003,-2.150574e+000
1.746134e+003,-1.108826e+000
1.747098e+003,-1.071167e+000
1.748063e+003,-1.530029e+000
1.749027e+003,-2.045349e+000
1.749991e+003,-2.272583e+000
1.750955e+003,-1.762085e+000
1.751919e+003,-4.842529e-001
1.752884e+003,1.334351e+000
1.753848e+003,3.555176e+000
1.754812e+003,4.820923e+000
1.755776e+003,2.109863e+000
1.756741e+003,-4.092163e+000
1.757705e+003,-6.223328e+000
1.758669e+003,-2.759705e+000
1.759633e+003,-4.231567e-001
1.760598e+003,-5.449219e-001
1.761562e+003,-1.394470e+000
1.762526e+003,-3.149048e+000
1.763490e+003,-4.169556e+000
1.764455e+003,-2.357178e+000
1.765419e+003,5.506592e-001
1.766383e+003,1.125793e+000
1.767347e+003,-5.823975e-001
1.768312e+003,-8.881836e-001
1.769276e+003,1.910767e+000
1.770240e+003,4.236145e+000
1.771204e+003,2.134949e+000
1.772168e+003,-1.914734e+000
1.773133e+003,-2.539185e+000
1.774097e+003,-1.588745e-001
1.775061e+003,1.042603e+000
1.776025e+003,2.212524e-001
1.776990e+003,-8.612671e-001
1.777954e+003,-1.461731e+000
1.778918e+003,-1.519165e+000
1.779882e+003,-1.172241e+000
1.780846e+003,-6.741333e-001
1.781811e+003,2.714233e-001
1.782775e+003,1.422180e+000
1.783739e+003,1.358582e+000
1.784703e+003,-2.239380e-001
1.785668e+003,-4.582520e-001
1.786632e+003,3.018433e+000
1.787596e+003,5.849792e+000
1.788560e+003,4.388733e+000
1.789525e+003,1.506592e+000
1.790489e+003,6.674805e-001
1.791453e+003,1.493347e+000
1.792417e+003,2.554199e+000
1.793382e+003,3.488342e+000
1.794346e+003,4.287109e+000
1.795310e+003,4.939758e+000
1.796274e+003,4.977783e+000
1.797239e+003,4.003174e+000
1.798203e+003,2.569702e+000
1.799167e+003,1.131226e+000
1.800131e+003,-1.159851e+000
1.801095e+003,-2.141663e+000
1.802060e+003,1.019287e-001
1.803024e+003,1.663391e+000
1.803988e+003,1.702271e+000
1.804952e+003,1.126282e+000
1.805917e+003,-3.920288e-001
1.806881e+003,-1.698914e+000
1.807845e+003,-1.288086e+000
1.808809e+003,2.859497e-001
1.809773e+003,1.563293e+000
1.810738e+003,2.226501e+000
1.811702e+003,3.228394e+000
1.812666e+003,5.095215e+000
1.813630e+003,6.398926e+000
1.814595e+003,5.062073e+000
1.815559e+003,1.685303e+000
1.816523e+003,-1.049988e+000
1.817487e+003,-3.082397e+000
1.818452e+003,-4.053894e+000
1.819416e+003,-3.152405e+000
1.820380e+003,-2.702271e+000
1.821344e+003,-4.064270e+000
1.822309e+003,-5.601624e+000
1.823273e+003,-6.945190e+000
1.824237e+003,-7.101196e+000
1.825201e+003,-4.418213e+000
1.826166e+003,-8.264160e-002
1.827130e+003,3.375305e+000
1.828094e+003,5.342041e+000
1.829058e+003,4.905212e+000
1.830022e+003,7.926636e-001
1.830987e+003,-3.532593e+000
1.831951e+003,-5.474670e+000
1.832915e+003,-5.686523e+000
1.833879e+003,-4.552612e+000
1.834844e+003,-2.646057e+000
1.835808e+003,-1.750122e+000
1.836772e+003,-1.906250e+000
1.837736e+003,-6.770020e-001
1.838700e+003,2.941284e+000
1.839665e+003,5.660583e+000
1.840629e+003,4.519714e+000
1.841593e+003,8.184814e-001
1.842557e+003,-3.481201e+000
1.843522e+003,-8.331299e+000
1.844486e+003,-8.892578e+000
1.845450e+003,-6.371460e-001
1.846414e+003,3.919189e+000
1.847379e+003,1.481995e+000
1.848343e+003,-1.136353e+000
1.849307e+003,-2.146851e+000
1.850271e+003,-2.122620e+000
1.851236e+003,-8.187866e-001
1.852200e+003,1.038513e+000
1.853164e+003,2.559448e+000
1.854128e+003,3.149902e+000
1.855093e+003,2.262268e+000
1.856057e+003,1.222534e-001
1.857021e+003,-1.918152e+000
1.857985e+003,-2.938965e+000
1.858949e+003,-3.270996e+000
1.859914e+003,-3.295837e+000
1.860878e+003,-2.945679e+000
1.861842e+003,-2.276245e+000
1.862806e+003,-1.388733e+000
1.863771e+003,-2.752075e-001
1.864735e+003,1.283508e+000
1.865699e+003,1.269226e+000
1.866663e+003,-1.899475e+000
1.867627e+003,-5.018860e+000
1.868592e+003,-5.722839e+000
1.869556e+003,-4.781189e+000
1.870520e+003,-2.375549e+000
1.871484e+003,9.960327e-001
1.872449e+003,1.920654e+000
1.873413e+003,9.613037e-002
1.874377e+003,-7.283325e-001
1.875341e+003,5.590210e-001
1.876306e+003,1.505493e+000
1.877270e+003,-2.513428e-001
1.878234e+003,-2.199829e+000
1.879198e+003,-8.108521e-001
1.880163e+003,2.072876e+000
1.881127e+003,2.471008e+000
1.882091e+003,4.659424e-001
1.883055e+003,-9.006348e-001
1.884020e+003,-3.779907e-001
1.884984e+003,7.526855e-001
1.885948e+003,1.340881e+000
1.886912e+003,1.890808e+000
1.887876e+003,3.748474e+000
1.888841e+003,6.662231e+000
1.889805e+003,6.614502e+000
1.890769e+003,2.796204e+000
1.891733e+003,4.241333e-001
1.892698e+003,1.445313e-001
1.893662e+003,3.812256e-001
1.894626e+003,1.442200e+000
1.895590e+003,2.010986e+000
1.896554e+003,8.850098e-001
1.897519e+003,-6.913452e-001
1.898483e+003,-1.475037e+000
1.899447e+003,-1.886963e+000
1.900411e+003,-2.869324e+000
1.901376e+003,-4.537720e+000
1.902340e+003,-5.322937e+000
1.903304e+003,-4.133606e+000
1.904268e+003,-2.838989e+000
1.905233e+003,-2.909973e+000
1.906197e+003,-2.880066e+000
1.907161e+003,-2.290649e-001
1.908125e+003,3.253296e+000
1.909090e+003,3.218201e+000
1.910054e+003,2.178345e-001
1.911018e+003,-9.089355e-001
1.911982e+003,1.393616e+000
1.912947e+003,3.909363e+000
1.913911e+003,4.190796e+000
1.914875e+003,3.827759e+000
1.915839e+003,5.361938e+000
1.916803e+003,7.837830e+000
1.917768e+003,7.332275e+000
1.918732e+003,3.481445e+000
1.919696e+003,3.121948e-001
1.920660e+003,-2.313721e+000
1.921625e+003,-3.072144e+000
1.922589e+003,-9.958496e-001
1.923553e+003,1.455017e+000
1.924517e+003,3.497803e+000
1.925481e+003,4.980530e+000
1.926446e+003,6.066345e+000
1.927410e+003,6.419739e+000
1.928374e+003,4.604126e+000
1.929338e+003,6.955566e-001
1.930303e+003,-1.351868e+000
1.931267e+003,6.773071e-001
1.932231e+003,2.170593e+000
1.933195e+003,-9.071655e-001
1.934160e+003,-3.588745e+000
1.935124e+003,-1.052429e+000
1.936088e+003,2.776917e+000
1.937052e+003,3.283264e+000
1.938017e+003,1.472839e+000
1.938981e+003,9.155273e-004
1.939945e+003,-6.599731e-001
1.940909e+003,-1.527466e+000
1.941874e+003,-3.042725e+000
1.942838e+003,-3.961975e+000
1.943802e+003,-2.807861e+000
1.944766e+003,-5.552368e-001
1.945730e+003,3.619385e-002
1.946695e+003,-8.796387e-001
1.947659e+003,-3.332520e-002
1.948623e+003,2.742920e+000
1.949587e+003,4.406128e+000
1.950552e+003,4.529419e+000
1.951516e+003,4.703857e+000
1.952480e+003,5.578064e+000
1.953444e+003,6.291443e+000
1.954408e+003,5.821716e+000
1.955373e+003,4.909729e+000
1.956337e+003,5.803101e+000
1.957301e+003,7.712402e+000
1.958265e+003,5.867493e+000
1.959230e+003,-5.831909e-001
1.960194e+003,-3.854492e+000
1.961158e+003,-9.334106e-001
1.962122e+003,1.236267e+000
1.963087e+003,3.878174e-001
1.964051e+003,-8.887329e-001
1.965015e+003,-1.083801e+000
1.965979e+003,-4.473877e-001
1.966944e+003,8.740234e-001
1.967908e+003,2.081360e+000
1.968872e+003,1.975891e+000
1.969836e+003,7.755737e-001
1.970801e+003,-1.741333e-001
1.971765e+003,-2.446899e-001
1.972729e+003,4.045410e-001
1.973693e+003,1.818298e+000
1.974657e+003,3.227722e+000
1.975622e+003,3.191284e+000
1.976586e+003,2.138306e+000
1.977550e+003,1.235596e+000
1.978514e+003,8.002930e-001
1.979479e+003,2.313293e+000
1.980443e+003,5.704834e+000
1.981407e+003,7.106873e+000
1.982371e+003,5.089233e+000
1.983335e+003,3.262268e+000
1.984300e+003,4.267517e+000
1.985264e+003,6.107239e+000
1.986228e+003,5.790100e+000
1.987192e+003,3.961853e+000
1.988157e+003,4.209351e+000
1.989121e+003,7.564453e+000
1.990085e+003,8.144836e+000
1.991049e+003,3.834045e+000
1.992014e+003,1.403259e+000
1.992978e+003,3.001648e+000
1.993942e+003,4.395203e+000
1.994906e+003,3.243896e+000
1.995871e+003,2.319458e+000
1.996835e+003,4.780090e+000
1.997799e+003,8.286987e+000
1.998763e+003,8.932129e+000
1.999728e+003,6.958740e+000
