5.003444e+002,2.148865e+001
5.013087e+002,2.385968e+001
5.022729e+002,2.485010e+001
5.032371e+002,2.483179e+001
5.042014e+002,2.404211e+001
5.051656e+002,2.269464e+001
5.061298e+002,2.147144e+001
5.070941e+002,2.091754e+001
5.080583e+002,2.098492e+001
5.090225e+002,2.093909e+001
5.099868e+002,2.129156e+001
5.109510e+002,2.106531e+001
5.119152e+002,1.926129e+001
5.128795e+002,1.572015e+001
5.138437e+002,1.342938e+001
5.148079e+002,1.468365e+001
5.157722e+002,1.637714e+001
5.167364e+002,1.696307e+001
5.177006e+002,1.629523e+001
5.186649e+002,1.559045e+001
5.196291e+002,1.704974e+001
5.205933e+002,1.956689e+001
5.215576e+002,2.162988e+001
5.225218e+002,2.269806e+001
5.234860e+002,2.259509e+001
5.244503e+002,2.137689e+001
5.254145e+002,1.918964e+001
5.263787e+002,1.622021e+001
5.273430e+002,1.089410e+001
5.283072e+002,5.809875e+000
5.292714e+002,4.984863e+000
5.302357e+002,1.113800e+001
5.311999e+002,1.460364e+001
5.321641e+002,1.331219e+001
5.331284e+002,1.091229e+001
5.340926e+002,1.003540e+001
5.350568e+002,1.152264e+001
5.360211e+002,1.328052e+001
5.369853e+002,1.446130e+001
5.379495e+002,1.508160e+001
5.389138e+002,1.466669e+001
5.398780e+002,1.310565e+001
5.408422e+002,1.084100e+001
5.418065e+002,8.997253e+000
5.427707e+002,7.592834e+000
5.437349e+002,7.292419e+000
5.446992e+002,8.605347e+000
5.456634e+002,1.084515e+001
5.466276e+002,1.170160e+001
5.475919e+002,9.356628e+000
5.485561e+002,8.083801e+000
5.495203e+002,8.630249e+000
5.504846e+002,9.855286e+000
5.514488e+002,1.024426e+001
5.524130e+002,9.272461e+000
5.533773e+002,7.929321e+000
5.543415e+002,6.112793e+000
5.553057e+002,4.583252e+000
5.562700e+002,4.375916e+000
5.572342e+002,6.052979e+000
5.581984e+002,8.294617e+000
5.591627e+002,7.758484e+000
5.601269e+002,5.718140e+000
5.610911e+002,4.448120e+000
5.620554e+002,5.088135e+000
5.630196e+002,7.164246e+000
5.639838e+002,7.556519e+000
5.649481e+002,5.134094e+000
5.659123e+002,2.746094e+000
5.668765e+002,1.304626e+000
5.678408e+002,6.997681e-001
5.688050e+002,-1.019287e-002
5.697692e+002,-2.283386e+000
5.707335e+002,-3.928223e+000
5.716977e+002,-3.417236e+000
5.726619e+002,-1.943909e+000
5.736262e+002,-1.226135e+000
5.745904e+002,-2.528625e+000
5.755546e+002,-4.239746e+000
5.765189e+002,-3.927429e+000
5.774831e+002,-2.662842e+000
5.784473e+002,-1.902527e+000
5.794116e+002,-2.489197e+000
5.803758e+002,-4.029541e+000
5.813400e+002,-4.338501e+000
5.823043e+002,-3.161743e+000
5.832685e+002,-3.092468e+000
5.842327e+002,-6.081421e+000
5.851970e+002,-1.106665e+001
5.861612e+002,-1.246613e+001
5.871254e+002,-5.183533e+000
5.880897e+002,6.234741e-001
5.890539e+002,2.419312e+000
5.900181e+002,1.371277e+000
5.909824e+002,-3.197021e-001
5.919466e+002,-1.533020e+000
5.929108e+002,-2.047058e+000
5.938751e+002,-1.525879e+000
5.948393e+002,-4.786377e-001
5.958035e+002,3.791504e-001
5.967678e+002,5.756836e-001
5.977320e+002,3.259277e-001
5.986962e+002,-1.806641e-002
5.996605e+002,-9.911499e-001
6.006247e+002,-1.320557e+000
6.015889e+002,6.540527e-001
6.025532e+002,4.622559e+000
6.035174e+002,5.473999e+000
6.044816e+002,-1.466919e+000
6.054459e+002,-6.509460e+000
6.064101e+002,-7.658936e+000
6.073743e+002,-6.101807e+000
6.083386e+002,-4.068665e+000
6.093028e+002,-2.364563e+000
6.102670e+002,-8.201904e-001
6.112313e+002,5.055542e-001
6.121955e+002,1.751343e+000
6.131597e+002,3.290649e+000
6.141240e+002,5.335571e+000
6.150882e+002,7.427551e+000
6.160524e+002,7.727905e+000
6.170167e+002,6.728088e+000
6.179809e+002,5.008972e+000
6.189451e+002,2.218018e+000
6.199094e+002,-1.492737e+000
6.208736e+002,-3.664490e+000
6.218378e+002,-1.889526e+000
6.228021e+002,-5.125122e-001
6.237663e+002,3.172607e-001
6.247305e+002,5.871582e-001
6.256948e+002,1.959229e-002
6.266590e+002,-2.306335e+000
6.276232e+002,-4.467163e+000
6.285875e+002,-4.460205e+000
6.295517e+002,-3.638367e+000
6.305159e+002,-3.768250e+000
6.314802e+002,-5.831177e+000
6.324444e+002,-8.848633e+000
6.334086e+002,-9.234741e+000
6.343729e+002,-7.625366e+000
6.353371e+002,-6.434448e+000
6.363013e+002,-6.789490e+000
6.372656e+002,-8.056702e+000
6.382298e+002,-7.625061e+000
6.391940e+002,-3.129272e+000
6.401583e+002,-2.529297e-001
6.411225e+002,1.374329e+000
6.420867e+002,1.888855e+000
6.430510e+002,7.453613e-001
6.440152e+002,-3.236572e+000
6.449794e+002,-6.656128e+000
6.459437e+002,-7.719482e+000
6.469079e+002,-7.666626e+000
6.478721e+002,-7.132141e+000
6.488364e+002,-6.365723e+000
6.498006e+002,-5.302673e+000
6.507648e+002,-3.866455e+000
6.517291e+002,-2.289368e+000
6.526933e+002,-8.175049e-001
6.536575e+002,4.984741e-001
6.546218e+002,1.529541e+000
6.555860e+002,2.038208e+000
6.565502e+002,1.655640e+000
6.575145e+002,1.371216e+000
6.584787e+002,9.300537e-001
6.594429e+002,8.128662e-001
6.604072e+002,1.651001e+000
6.613714e+002,3.678467e+000
6.623356e+002,5.318420e+000
6.632999e+002,5.217285e+000
6.642641e+002,4.623108e+000
6.652283e+002,4.615601e+000
6.661926e+002,5.225464e+000
6.671568e+002,5.481262e+000
6.681210e+002,3.636047e+000
6.690853e+002,7.061157e-001
6.700495e+002,-3.183594e-001
6.710137e+002,5.946045e-001
6.719780e+002,2.746155e+000
6.729422e+002,5.635254e+000
6.739064e+002,9.771179e+000
6.748707e+002,1.028485e+001
6.758349e+002,4.467224e+000
6.767991e+002,-8.742065e-001
6.777634e+002,-2.050415e+000
6.787276e+002,6.046753e-001
6.796918e+002,2.562500e+000
6.806561e+002,4.759521e-001
6.816203e+002,-1.355042e+000
6.825845e+002,-1.298523e+000
6.835488e+002,1.955566e-001
6.845130e+002,2.449280e+000
6.854772e+002,5.169250e+000
6.864415e+002,7.880310e+000
6.874057e+002,8.981323e+000
6.883699e+002,8.552612e+000
6.893342e+002,7.346130e+000
6.902984e+002,5.783447e+000
6.912626e+002,4.136169e+000
6.922269e+002,3.552429e+000
6.931911e+002,6.097351e+000
6.941553e+002,7.848999e+000
6.951196e+002,7.710510e+000
6.960838e+002,6.291931e+000
6.970480e+002,4.460999e+000
6.980123e+002,1.695068e+000
6.989765e+002,1.006165e+000
6.999407e+002,5.905273e+000
7.009050e+002,1.116895e+001
7.018692e+002,1.159967e+001
7.028334e+002,5.985046e+000
7.037977e+002,-1.003418e+000
7.047619e+002,-1.126038e+000
7.057261e+002,3.087463e+000
7.066904e+002,6.057739e+000
7.076546e+002,6.880676e+000
7.086188e+002,6.667175e+000
7.095831e+002,7.191589e+000
7.105473e+002,8.893066e+000
7.115115e+002,9.195496e+000
7.124758e+002,6.895752e+000
7.134400e+002,4.473877e+000
7.144042e+002,3.923889e+000
7.153685e+002,5.364868e+000
7.163327e+002,6.089111e+000
7.172969e+002,3.658508e+000
7.182612e+002,1.432373e+000
7.192254e+002,1.958618e-001
7.201896e+002,1.403198e-001
7.211539e+002,1.671326e+000
7.221181e+002,5.459839e+000
7.230823e+002,1.003302e+001
7.240466e+002,1.123859e+001
7.250108e+002,1.008435e+001
7.259750e+002,9.305420e+000
7.269393e+002,1.037952e+001
7.279035e+002,1.253632e+001
7.288677e+002,1.226953e+001
7.298320e+002,6.775635e+000
7.307962e+002,3.746948e+000
7.317604e+002,4.680237e+000
7.327247e+002,8.044067e+000
7.336889e+002,1.197443e+001
7.346531e+002,1.620074e+001
7.356174e+002,1.800885e+001
7.365816e+002,1.603961e+001
7.375458e+002,1.269971e+001
7.385101e+002,8.627014e+000
7.394743e+002,4.672180e+000
7.404385e+002,2.603455e+000
7.414028e+002,6.048218e+000
7.423670e+002,1.277814e+001
7.433312e+002,1.528595e+001
7.442955e+002,1.336554e+001
7.452597e+002,9.933289e+000
7.462239e+002,7.638916e+000
7.471882e+002,6.102417e+000
7.481524e+002,7.037659e+000
7.491166e+002,1.212219e+001
7.500809e+002,1.632526e+001
7.510451e+002,1.792371e+001
7.520093e+002,1.709186e+001
7.529736e+002,1.486383e+001
7.539378e+002,1.093933e+001
7.549020e+002,7.831543e+000
7.558663e+002,6.655273e+000
7.568306e+002,7.146057e+000
7.577948e+002,9.287231e+000
7.587590e+002,1.280737e+001
7.597233e+002,1.661377e+001
7.606875e+002,1.793298e+001
7.616517e+002,1.729193e+001
7.626160e+002,1.601831e+001
7.635802e+002,1.392938e+001
7.645444e+002,1.202557e+001
7.655087e+002,1.269769e+001
7.664729e+002,1.816193e+001
7.674371e+002,2.098468e+001
7.684014e+002,1.937628e+001
7.693656e+002,1.669305e+001
7.703298e+002,1.474609e+001
7.712941e+002,1.394818e+001
7.722583e+002,1.408649e+001
7.732225e+002,1.611462e+001
7.741868e+002,1.791278e+001
7.751510e+002,1.747614e+001
7.761152e+002,1.538861e+001
7.770795e+002,1.292725e+001
7.780437e+002,1.114874e+001
7.790079e+002,1.014478e+001
7.799722e+002,1.288049e+001
7.809364e+002,2.014105e+001
7.819006e+002,2.448877e+001
7.828649e+002,2.158881e+001
7.838291e+002,1.391974e+001
7.847933e+002,9.201782e+000
7.857576e+002,8.329407e+000
7.867218e+002,8.699280e+000
7.876860e+002,1.142358e+001
7.886503e+002,1.449786e+001
7.896145e+002,1.616785e+001
7.905787e+002,1.601154e+001
7.915430e+002,1.529913e+001
7.925072e+002,1.445056e+001
7.934714e+002,1.381927e+001
7.944357e+002,1.486945e+001
7.953999e+002,1.747766e+001
7.963641e+002,1.980548e+001
7.973284e+002,1.958252e+001
7.982926e+002,1.658356e+001
7.992568e+002,1.546552e+001
8.002211e+002,1.631921e+001
8.011853e+002,1.676904e+001
8.021495e+002,1.613226e+001
8.031138e+002,1.531042e+001
8.040780e+002,1.610309e+001
8.050422e+002,1.940717e+001
8.060065e+002,2.242023e+001
8.069707e+002,2.408478e+001
8.079349e+002,2.475385e+001
8.088992e+002,2.471625e+001
8.098634e+002,2.432129e+001
8.108276e+002,2.414935e+001
8.117919e+002,2.491644e+001
8.127561e+002,2.567712e+001
8.137203e+002,2.575214e+001
8.146846e+002,2.541956e+001
8.156488e+002,2.480231e+001
8.166130e+002,2.360303e+001
8.175773e+002,2.125848e+001
8.185415e+002,2.125049e+001
8.195057e+002,2.574420e+001
8.204700e+002,2.883710e+001
8.214342e+002,2.755359e+001
8.223984e+002,2.338422e+001
8.233627e+002,2.026495e+001
8.243269e+002,1.931470e+001
8.252911e+002,2.054877e+001
8.262554e+002,2.516272e+001
8.272196e+002,3.053314e+001
8.281838e+002,3.369257e+001
8.291481e+002,3.370929e+001
8.301123e+002,3.233466e+001
8.310765e+002,3.270160e+001
8.320408e+002,3.449280e+001
8.330050e+002,3.490204e+001
8.339692e+002,3.365942e+001
8.349335e+002,3.172723e+001
8.358977e+002,2.992389e+001
8.368619e+002,2.831506e+001
8.378262e+002,2.784558e+001
8.387904e+002,2.959790e+001
8.397546e+002,3.068878e+001
8.407189e+002,2.990631e+001
8.416831e+002,2.816656e+001
8.426473e+002,2.707092e+001
8.436116e+002,2.737781e+001
8.445758e+002,2.853375e+001
8.455400e+002,3.011285e+001
8.465043e+002,3.132043e+001
8.474685e+002,3.141699e+001
8.484327e+002,3.060950e+001
8.493970e+002,2.998297e+001
8.503612e+002,3.096222e+001
8.513254e+002,3.375507e+001
8.522897e+002,3.557245e+001
8.532539e+002,3.595587e+001
8.542181e+002,3.566779e+001
8.551824e+002,3.507050e+001
8.561466e+002,3.464532e+001
8.571108e+002,3.566833e+001
8.580751e+002,3.897137e+001
8.590393e+002,4.123773e+001
8.600035e+002,4.083856e+001
8.609678e+002,3.979785e+001
8.619320e+002,4.074561e+001
8.628962e+002,4.452930e+001
8.638605e+002,4.868176e+001
8.648247e+002,4.914825e+001
8.657889e+002,4.721210e+001
8.667532e+002,4.545203e+001
8.677174e+002,4.421069e+001
8.686816e+002,4.381604e+001
8.696459e+002,4.495050e+001
8.706101e+002,4.816138e+001
8.715743e+002,5.010535e+001
8.725386e+002,4.988562e+001
8.735028e+002,4.975977e+001
8.744670e+002,5.024896e+001
8.754313e+002,5.071381e+001
8.763955e+002,4.984558e+001
8.773597e+002,4.671692e+001
8.783240e+002,4.476263e+001
8.792882e+002,4.759985e+001
8.802524e+002,5.153979e+001
8.812167e+002,5.329669e+001
8.821809e+002,5.238800e+001
8.831451e+002,5.061981e+001
8.841094e+002,5.034576e+001
8.850736e+002,5.183527e+001
8.860378e+002,5.411353e+001
8.870021e+002,5.741119e+001
8.879663e+002,5.993994e+001
8.889305e+002,6.044031e+001
8.898948e+002,5.908325e+001
8.908590e+002,5.719342e+001
8.918232e+002,5.426093e+001
8.927875e+002,5.244006e+001
8.937517e+002,5.234076e+001
8.947159e+002,5.326703e+001
8.956802e+002,5.482599e+001
8.966444e+002,5.653448e+001
8.976086e+002,5.749036e+001
8.985729e+002,5.658807e+001
8.995371e+002,5.530835e+001
9.005013e+002,5.601013e+001
9.014656e+002,5.852228e+001
9.024298e+002,6.107288e+001
9.033940e+002,6.210455e+001
9.043583e+002,6.155981e+001
9.053225e+002,6.114703e+001
9.062867e+002,6.051025e+001
9.072510e+002,6.003510e+001
9.082152e+002,6.058051e+001
9.091794e+002,6.148724e+001
9.101437e+002,6.194342e+001
9.111079e+002,6.178125e+001
9.120721e+002,6.161737e+001
9.130364e+002,6.154840e+001
9.140006e+002,6.119470e+001
9.149648e+002,6.030646e+001
9.159291e+002,5.943433e+001
9.168933e+002,5.935120e+001
9.178575e+002,6.043231e+001
9.188218e+002,6.218719e+001
9.197860e+002,6.359949e+001
9.207502e+002,6.455206e+001
9.217145e+002,6.473047e+001
9.226787e+002,6.416547e+001
9.236429e+002,6.350848e+001
9.246072e+002,6.336761e+001
9.255714e+002,6.362799e+001
9.265356e+002,6.363763e+001
9.274999e+002,6.326086e+001
9.284641e+002,6.235541e+001
9.294283e+002,6.092694e+001
9.303926e+002,5.917090e+001
9.313568e+002,5.705768e+001
9.323210e+002,5.447046e+001
9.332853e+002,5.223267e+001
9.342495e+002,5.216321e+001
9.352137e+002,5.319086e+001
9.361780e+002,5.436993e+001
9.371422e+002,5.570691e+001
9.381064e+002,5.685034e+001
9.390707e+002,5.684680e+001
9.400349e+002,5.497705e+001
9.409991e+002,5.444836e+001
9.419634e+002,5.661554e+001
9.429276e+002,5.803027e+001
9.438918e+002,5.691949e+001
9.448561e+002,5.490991e+001
9.458203e+002,5.499890e+001
9.467845e+002,5.845569e+001
9.477488e+002,6.234668e+001
9.487130e+002,6.425366e+001
9.496772e+002,6.565680e+001
9.506415e+002,6.750208e+001
9.516057e+002,6.999139e+001
9.525699e+002,7.334637e+001
9.535342e+002,7.786194e+001
9.544984e+002,8.277124e+001
9.554626e+002,8.142334e+001
9.564269e+002,7.259314e+001
9.573911e+002,6.693121e+001
9.583553e+002,6.871539e+001
9.593196e+002,7.444122e+001
9.602838e+002,7.873529e+001
9.612480e+002,8.119806e+001
9.622123e+002,8.246863e+001
9.631765e+002,8.209363e+001
9.641407e+002,8.151221e+001
9.651050e+002,8.138092e+001
9.660692e+002,8.133167e+001
9.670334e+002,8.052325e+001
9.679977e+002,7.859686e+001
9.689619e+002,7.674396e+001
9.699261e+002,7.760498e+001
9.708904e+002,7.987231e+001
9.718546e+002,8.028705e+001
9.728188e+002,7.769733e+001
9.737831e+002,7.421222e+001
9.747473e+002,7.286658e+001
9.757115e+002,7.427087e+001
9.766758e+002,7.518201e+001
9.776400e+002,7.479095e+001
9.786042e+002,7.545831e+001
9.795685e+002,7.866711e+001
9.805327e+002,8.238812e+001
9.814969e+002,8.391919e+001
9.824612e+002,8.256396e+001
9.834254e+002,8.097736e+001
9.843896e+002,8.193774e+001
9.853539e+002,8.332410e+001
9.863181e+002,8.267249e+001
9.872823e+002,7.993634e+001
9.882466e+002,7.665222e+001
9.892108e+002,7.441272e+001
9.901750e+002,7.372992e+001
9.911393e+002,7.496362e+001
9.921035e+002,7.844415e+001
9.930677e+002,8.145154e+001
9.940320e+002,8.317834e+001
9.949962e+002,8.562848e+001
9.959604e+002,9.085199e+001
9.969247e+002,9.896582e+001
9.978889e+002,1.078659e+002
9.988531e+002,1.170454e+002
9.998174e+002,1.249922e+002
1.000782e+003,1.315052e+002
1.001746e+003,1.366948e+002
1.002710e+003,1.402316e+002
1.003674e+003,1.421223e+002
1.004639e+003,1.433457e+002
1.005603e+003,1.457433e+002
1.006567e+003,1.493224e+002
1.007531e+003,1.513446e+002
1.008495e+003,1.510063e+002
1.009460e+003,1.509317e+002
1.010424e+003,1.535961e+002
1.011388e+003,1.580940e+002
1.012352e+003,1.603189e+002
1.013317e+003,1.591116e+002
1.014281e+003,1.562586e+002
1.015245e+003,1.518354e+002
1.016209e+003,1.465328e+002
1.017174e+003,1.405822e+002
1.018138e+003,1.343744e+002
1.019102e+003,1.285197e+002
1.020066e+003,1.236328e+002
1.021031e+003,1.195967e+002
1.021995e+003,1.158005e+002
1.022959e+003,1.117432e+002
1.023923e+003,1.062065e+002
1.024887e+003,9.840735e+001
1.025852e+003,8.945813e+001
1.026816e+003,8.082056e+001
1.027780e+003,7.235028e+001
1.028744e+003,6.632837e+001
1.029709e+003,6.424750e+001
1.030673e+003,6.287042e+001
1.031637e+003,6.149670e+001
1.032601e+003,5.995331e+001
1.033566e+003,5.834869e+001
1.034530e+003,5.680951e+001
1.035494e+003,5.520868e+001
1.036458e+003,5.259479e+001
1.037422e+003,5.011090e+001
1.038387e+003,5.058893e+001
1.039351e+003,5.355762e+001
1.040315e+003,5.509406e+001
1.041279e+003,5.196124e+001
1.042244e+003,4.583740e+001
1.043208e+003,4.461713e+001
1.044172e+003,5.272925e+001
1.045136e+003,5.755542e+001
1.046101e+003,5.747815e+001
1.047065e+003,5.598431e+001
1.048029e+003,5.450830e+001
1.048993e+003,5.337842e+001
1.049958e+003,5.312500e+001
1.050922e+003,5.439648e+001
1.051886e+003,5.620837e+001
1.052850e+003,5.773859e+001
1.053814e+003,5.893115e+001
1.054779e+003,5.960706e+001
1.055743e+003,5.971204e+001
1.056707e+003,5.936713e+001
1.057671e+003,5.868793e+001
1.058636e+003,5.759979e+001
1.059600e+003,5.732678e+001
1.060564e+003,6.001276e+001
1.061528e+003,6.125610e+001
1.062493e+003,5.868048e+001
1.063457e+003,5.489294e+001
1.064421e+003,5.306396e+001
1.065385e+003,5.367151e+001
1.066349e+003,5.467682e+001
1.067314e+003,5.553003e+001
1.068278e+003,5.591943e+001
1.069242e+003,5.510242e+001
1.070206e+003,5.406946e+001
1.071171e+003,5.458301e+001
1.072135e+003,5.702100e+001
1.073099e+003,5.952002e+001
1.074063e+003,5.913513e+001
1.075028e+003,5.565100e+001
1.075992e+003,5.340479e+001
1.076956e+003,5.253998e+001
1.077920e+003,5.181757e+001
1.078885e+003,5.095477e+001
1.079849e+003,5.034003e+001
1.080813e+003,5.065826e+001
1.081777e+003,5.227527e+001
1.082741e+003,5.361078e+001
1.083706e+003,5.256921e+001
1.084670e+003,5.145282e+001
1.085634e+003,5.188733e+001
1.086598e+003,5.320392e+001
1.087563e+003,5.399292e+001
1.088527e+003,5.363763e+001
1.089491e+003,5.288171e+001
1.090455e+003,5.258813e+001
1.091420e+003,5.253754e+001
1.092384e+003,5.376227e+001
1.093348e+003,5.738708e+001
1.094312e+003,5.975513e+001
1.095276e+003,5.776636e+001
1.096241e+003,5.333069e+001
1.097205e+003,5.207697e+001
1.098169e+003,5.576239e+001
1.099133e+003,5.858179e+001
1.100098e+003,5.800281e+001
1.101062e+003,5.660303e+001
1.102026e+003,5.526965e+001
1.102990e+003,5.458801e+001
1.103955e+003,5.546417e+001
1.104919e+003,5.832733e+001
1.105883e+003,6.161029e+001
1.106847e+003,6.179285e+001
1.107812e+003,5.879413e+001
1.108776e+003,5.790887e+001
1.109740e+003,5.997797e+001
1.110704e+003,6.289056e+001
1.111668e+003,6.592780e+001
1.112633e+003,6.905981e+001
1.113597e+003,7.100232e+001
1.114561e+003,7.075787e+001
1.115525e+003,7.065759e+001
1.116490e+003,7.097400e+001
1.117454e+003,7.194037e+001
1.118418e+003,7.440942e+001
1.119382e+003,7.801721e+001
1.120347e+003,8.148279e+001
1.121311e+003,8.375696e+001
1.122275e+003,8.502148e+001
1.123239e+003,8.660730e+001
1.124203e+003,8.887048e+001
1.125168e+003,9.061078e+001
1.126132e+003,9.156439e+001
1.127096e+003,9.275067e+001
1.128060e+003,9.473206e+001
1.129025e+003,9.730908e+001
1.129989e+003,1.001285e+002
1.130953e+003,1.030632e+002
1.131917e+003,1.061398e+002
1.132882e+003,1.094313e+002
1.133846e+003,1.130551e+002
1.134810e+003,1.173491e+002
1.135774e+003,1.220717e+002
1.136739e+003,1.266395e+002
1.137703e+003,1.306962e+002
1.138667e+003,1.343408e+002
1.139631e+003,1.372753e+002
1.140595e+003,1.399344e+002
1.141560e+003,1.458891e+002
1.142524e+003,1.558931e+002
1.143488e+003,1.681540e+002
1.144452e+003,1.813873e+002
1.145417e+003,1.957885e+002
1.146381e+003,2.117841e+002
1.147345e+003,2.286312e+002
1.148309e+003,2.491277e+002
1.149274e+003,2.757410e+002
1.150238e+003,3.043589e+002
1.151202e+003,3.333901e+002
1.152166e+003,3.632386e+002
1.153130e+003,3.963788e+002
1.154095e+003,4.330141e+002
1.155059e+003,4.665886e+002
1.156023e+003,4.879716e+002
1.156987e+003,4.978396e+002
1.157952e+003,5.068568e+002
1.158916e+003,5.170294e+002
1.159880e+003,5.205414e+002
1.160844e+003,5.113381e+002
1.161809e+003,4.917018e+002
1.162773e+003,4.670875e+002
1.163737e+003,4.364209e+002
1.164701e+003,4.060392e+002
1.165666e+003,3.776897e+002
1.166630e+003,3.504129e+002
1.167594e+003,3.231373e+002
1.168558e+003,2.968557e+002
1.169522e+003,2.717438e+002
1.170487e+003,2.486416e+002
1.171451e+003,2.313882e+002
1.172415e+003,2.248953e+002
1.173379e+003,2.269460e+002
1.174344e+003,2.258873e+002
1.175308e+003,2.217079e+002
1.176272e+003,2.182662e+002
1.177236e+003,2.173173e+002
1.178201e+003,2.175649e+002
1.179165e+003,2.177430e+002
1.180129e+003,2.176017e+002
1.181093e+003,2.146218e+002
1.182057e+003,2.066071e+002
1.183022e+003,1.984778e+002
1.183986e+003,1.915628e+002
1.184950e+003,1.857998e+002
1.185914e+003,1.810850e+002
1.186879e+003,1.775273e+002
1.187843e+003,1.754550e+002
1.188807e+003,1.750268e+002
1.189771e+003,1.759017e+002
1.190736e+003,1.778793e+002
1.191700e+003,1.811551e+002
1.192664e+003,1.828085e+002
1.193628e+003,1.820384e+002
1.194593e+003,1.807960e+002
1.195557e+003,1.810150e+002
1.196521e+003,1.817906e+002
1.197485e+003,1.797574e+002
1.198449e+003,1.735858e+002
1.199414e+003,1.674716e+002
1.200378e+003,1.638825e+002
1.201342e+003,1.605255e+002
1.202306e+003,1.550726e+002
1.203271e+003,1.486293e+002
1.204235e+003,1.442738e+002
1.205199e+003,1.433586e+002
1.206163e+003,1.434351e+002
1.207128e+003,1.402166e+002
1.208092e+003,1.335212e+002
1.209056e+003,1.280195e+002
1.210020e+003,1.243463e+002
1.210984e+003,1.204506e+002
1.211949e+003,1.156459e+002
1.212913e+003,1.101974e+002
1.213877e+003,1.046984e+002
1.214841e+003,9.924811e+001
1.215806e+003,9.301550e+001
1.216770e+003,8.473169e+001
1.217734e+003,7.690393e+001
1.218698e+003,7.081873e+001
1.219663e+003,6.600818e+001
1.220627e+003,6.188629e+001
1.221591e+003,5.843195e+001
1.222555e+003,5.633337e+001
1.223520e+003,5.636322e+001
1.224484e+003,5.797040e+001
1.225448e+003,5.784644e+001
1.226412e+003,5.469385e+001
1.227376e+003,5.248077e+001
1.228341e+003,5.229150e+001
1.229305e+003,5.157379e+001
1.230269e+003,4.825372e+001
1.231233e+003,4.358496e+001
1.232198e+003,4.018030e+001
1.233162e+003,3.884686e+001
1.234126e+003,3.892865e+001
1.235090e+003,4.079865e+001
1.236055e+003,4.264465e+001
1.237019e+003,4.219592e+001
1.237983e+003,4.011987e+001
1.238947e+003,3.865021e+001
1.239911e+003,3.886200e+001
1.240876e+003,3.960535e+001
1.241840e+003,3.881287e+001
1.242804e+003,3.631427e+001
1.243768e+003,3.571716e+001
1.244733e+003,3.877411e+001
1.245697e+003,4.157300e+001
1.246661e+003,4.404004e+001
1.247625e+003,4.539734e+001
1.248590e+003,4.460760e+001
1.249554e+003,4.261230e+001
1.250518e+003,4.169568e+001
1.251482e+003,4.277014e+001
1.252447e+003,4.429108e+001
1.253411e+003,4.428131e+001
1.254375e+003,4.398486e+001
1.255339e+003,4.594427e+001
1.256303e+003,5.032190e+001
1.257268e+003,5.527301e+001
1.258232e+003,5.993707e+001
1.259196e+003,6.355066e+001
1.260160e+003,6.440582e+001
1.261125e+003,6.194775e+001
1.262089e+003,6.197754e+001
1.263053e+003,6.673236e+001
1.264017e+003,7.146521e+001
1.264982e+003,7.588306e+001
1.265946e+003,7.944196e+001
1.266910e+003,8.133582e+001
1.267874e+003,8.188904e+001
1.268839e+003,8.253766e+001
1.269803e+003,8.426361e+001
1.270767e+003,8.598407e+001
1.271731e+003,8.563184e+001
1.272695e+003,8.327521e+001
1.273660e+003,7.993982e+001
1.274624e+003,7.463538e+001
1.275588e+003,6.970618e+001
1.276552e+003,6.704895e+001
1.277517e+003,6.588739e+001
1.278481e+003,6.425543e+001
1.279445e+003,6.186383e+001
1.280409e+003,6.024176e+001
1.281374e+003,6.069324e+001
1.282338e+003,6.103943e+001
1.283302e+003,6.027185e+001
1.284266e+003,5.865594e+001
1.285230e+003,5.625769e+001
1.286195e+003,5.328766e+001
1.287159e+003,5.025897e+001
1.288123e+003,4.772937e+001
1.289087e+003,4.583337e+001
1.290052e+003,4.436682e+001
1.291016e+003,4.289160e+001
1.291980e+003,4.279816e+001
1.292944e+003,4.500787e+001
1.293909e+003,4.673560e+001
1.294873e+003,4.761633e+001
1.295837e+003,4.749701e+001
1.296801e+003,4.544904e+001
1.297766e+003,4.161737e+001
1.298730e+003,3.864093e+001
1.299694e+003,3.804572e+001
1.300658e+003,3.809534e+001
1.301622e+003,3.674579e+001
1.302587e+003,3.499603e+001
1.303551e+003,3.437000e+001
1.304515e+003,3.519580e+001
1.305479e+003,3.679065e+001
1.306444e+003,3.862988e+001
1.307408e+003,4.032874e+001
1.308372e+003,4.079333e+001
1.309336e+003,3.924054e+001
1.310301e+003,3.881476e+001
1.311265e+003,4.157513e+001
1.312229e+003,4.343756e+001
1.313193e+003,4.185956e+001
1.314157e+003,3.955945e+001
1.315122e+003,4.015912e+001
1.316086e+003,4.325140e+001
1.317050e+003,4.481738e+001
1.318014e+003,4.223865e+001
1.318979e+003,3.798932e+001
1.319943e+003,3.645038e+001
1.320907e+003,3.734277e+001
1.321871e+003,3.643488e+001
1.322836e+003,3.229474e+001
1.323800e+003,2.947754e+001
1.324764e+003,3.130841e+001
1.325728e+003,3.560809e+001
1.326693e+003,3.888501e+001
1.327657e+003,4.087671e+001
1.328621e+003,4.139667e+001
1.329585e+003,4.022388e+001
1.330549e+003,3.950305e+001
1.331514e+003,3.970367e+001
1.332478e+003,4.004193e+001
1.333442e+003,4.000873e+001
1.334406e+003,3.977802e+001
1.335371e+003,3.979980e+001
1.336335e+003,4.033661e+001
1.337299e+003,4.130054e+001
1.338263e+003,4.250439e+001
1.339228e+003,4.410583e+001
1.340192e+003,4.455475e+001
1.341156e+003,4.311316e+001
1.342120e+003,4.166754e+001
1.343084e+003,3.969434e+001
1.344049e+003,3.798547e+001
1.345013e+003,3.797339e+001
1.345977e+003,3.917883e+001
1.346941e+003,3.947205e+001
1.347906e+003,3.799640e+001
1.348870e+003,3.651556e+001
1.349834e+003,3.656915e+001
1.350798e+003,3.754132e+001
1.351763e+003,3.887628e+001
1.352727e+003,4.041449e+001
1.353691e+003,4.066760e+001
1.354655e+003,3.885126e+001
1.355620e+003,3.659485e+001
1.356584e+003,3.594897e+001
1.357548e+003,3.681042e+001
1.358512e+003,3.741113e+001
1.359476e+003,3.737225e+001
1.360441e+003,3.688666e+001
1.361405e+003,3.547009e+001
1.362369e+003,3.451758e+001
1.363333e+003,3.540186e+001
1.364298e+003,3.688354e+001
1.365262e+003,3.715814e+001
1.366226e+003,3.586896e+001
1.367190e+003,3.396515e+001
1.368155e+003,3.226831e+001
1.369119e+003,3.090784e+001
1.370083e+003,3.039685e+001
1.371047e+003,3.108240e+001
1.372011e+003,3.194122e+001
1.372976e+003,3.278424e+001
1.373940e+003,3.340570e+001
1.374904e+003,3.347809e+001
1.375868e+003,3.370367e+001
1.376833e+003,3.555298e+001
1.377797e+003,3.858020e+001
1.378761e+003,3.933545e+001
1.379725e+003,3.570038e+001
1.380690e+003,3.180823e+001
1.381654e+003,3.207446e+001
1.382618e+003,3.484100e+001
1.383582e+003,3.867841e+001
1.384547e+003,4.309283e+001
1.385511e+003,4.593945e+001
1.386475e+003,4.562042e+001
1.387439e+003,4.448969e+001
1.388403e+003,4.711053e+001
1.389368e+003,5.342694e+001
1.390332e+003,5.549591e+001
1.391296e+003,5.068884e+001
1.392260e+003,4.689185e+001
1.393225e+003,4.693292e+001
1.394189e+003,4.709241e+001
1.395153e+003,4.493225e+001
1.396117e+003,4.165759e+001
1.397082e+003,3.940399e+001
1.398046e+003,3.877740e+001
1.399010e+003,3.866888e+001
1.399974e+003,3.788129e+001
1.400938e+003,3.658240e+001
1.401903e+003,3.626105e+001
1.402867e+003,3.785199e+001
1.403831e+003,4.017963e+001
1.404795e+003,4.407898e+001
1.405760e+003,4.684198e+001
1.406724e+003,4.609064e+001
1.407688e+003,4.373376e+001
1.408652e+003,4.282880e+001
1.409617e+003,4.351483e+001
1.410581e+003,4.327252e+001
1.411545e+003,4.091809e+001
1.412509e+003,3.836951e+001
1.413474e+003,3.702277e+001
1.414438e+003,3.651660e+001
1.415402e+003,3.730829e+001
1.416366e+003,3.929907e+001
1.417330e+003,4.050244e+001
1.418295e+003,4.004346e+001
1.419259e+003,3.897491e+001
1.420223e+003,3.803845e+001
1.421187e+003,3.717456e+001
1.422152e+003,3.738055e+001
1.423116e+003,3.952515e+001
1.424080e+003,4.102820e+001
1.425044e+003,3.931665e+001
1.426009e+003,3.828339e+001
1.426973e+003,4.036755e+001
1.427937e+003,4.350446e+001
1.428901e+003,4.528577e+001
1.429865e+003,4.562659e+001
1.430830e+003,4.587512e+001
1.431794e+003,4.679889e+001
1.432758e+003,4.794330e+001
1.433722e+003,4.878735e+001
1.434687e+003,4.974438e+001
1.435651e+003,5.087939e+001
1.436615e+003,5.020026e+001
1.437579e+003,5.065198e+001
1.438544e+003,5.342041e+001
1.439508e+003,5.670624e+001
1.440472e+003,6.055933e+001
1.441436e+003,6.399231e+001
1.442401e+003,6.452789e+001
1.443365e+003,6.183447e+001
1.444329e+003,5.934326e+001
1.445293e+003,5.974426e+001
1.446257e+003,6.173663e+001
1.447222e+003,6.303247e+001
1.448186e+003,6.358838e+001
1.449150e+003,6.310175e+001
1.450114e+003,6.116272e+001
1.451079e+003,5.931122e+001
1.452043e+003,5.906134e+001
1.453007e+003,5.923749e+001
1.453971e+003,5.730182e+001
1.454936e+003,5.362946e+001
1.455900e+003,5.248505e+001
1.456864e+003,5.570276e+001
1.457828e+003,5.872284e+001
1.458792e+003,5.815997e+001
1.459757e+003,5.659863e+001
1.460721e+003,5.655164e+001
1.461685e+003,5.704370e+001
1.462649e+003,5.555951e+001
1.463614e+003,5.179187e+001
1.464578e+003,4.858478e+001
1.465542e+003,4.852838e+001
1.466506e+003,5.029938e+001
1.467471e+003,4.993420e+001
1.468435e+003,4.678662e+001
1.469399e+003,4.659204e+001
1.470363e+003,5.282983e+001
1.471328e+003,5.672974e+001
1.472292e+003,5.369135e+001
1.473256e+003,4.969647e+001
1.474220e+003,4.972522e+001
1.475184e+003,5.268054e+001
1.476149e+003,5.526123e+001
1.477113e+003,5.610498e+001
1.478077e+003,5.611072e+001
1.479041e+003,5.635461e+001
1.480006e+003,5.703400e+001
1.480970e+003,5.822589e+001
1.481934e+003,5.993695e+001
1.482898e+003,6.068488e+001
1.483863e+003,5.818829e+001
1.484827e+003,5.787854e+001
1.485791e+003,6.397717e+001
1.486755e+003,7.094293e+001
1.487719e+003,7.238800e+001
1.488684e+003,7.015027e+001
1.489648e+003,7.106683e+001
1.490612e+003,7.737653e+001
1.491576e+003,8.411639e+001
1.492541e+003,8.693573e+001
1.493505e+003,8.773718e+001
1.494469e+003,9.098975e+001
1.495433e+003,9.588599e+001
1.496398e+003,9.936926e+001
1.497362e+003,1.009995e+002
1.498326e+003,1.031791e+002
1.499290e+003,1.064224e+002
1.500255e+003,1.113100e+002
1.501219e+003,1.189874e+002
1.502183e+003,1.289967e+002
1.503147e+003,1.391638e+002
1.504111e+003,1.489390e+002
1.505076e+003,1.590872e+002
1.506040e+003,1.687608e+002
1.507004e+003,1.807362e+002
1.507968e+003,1.980566e+002
1.508933e+003,2.193123e+002
1.509897e+003,2.418608e+002
1.510861e+003,2.656609e+002
1.511825e+003,2.907809e+002
1.512790e+003,3.161838e+002
1.513754e+003,3.438963e+002
1.514718e+003,3.796824e+002
1.515682e+003,4.230764e+002
1.516646e+003,4.636436e+002
1.517611e+003,5.000621e+002
1.518575e+003,5.357349e+002
1.519539e+003,5.741239e+002
1.520503e+003,6.103255e+002
1.521468e+003,6.434139e+002
1.522432e+003,6.716306e+002
1.523396e+003,6.934857e+002
1.524360e+003,7.082601e+002
1.525325e+003,7.160636e+002
1.526289e+003,7.170091e+002
1.527253e+003,7.105241e+002
1.528217e+003,6.950801e+002
1.529182e+003,6.709572e+002
1.530146e+003,6.428389e+002
1.531110e+003,6.087325e+002
1.532074e+003,5.732956e+002
1.533039e+003,5.391125e+002
1.534003e+003,4.994720e+002
1.534967e+003,4.489127e+002
1.535931e+003,3.948006e+002
1.536896e+003,3.435635e+002
1.537860e+003,2.971864e+002
1.538824e+003,2.550386e+002
1.539788e+003,2.167661e+002
1.540752e+003,1.844015e+002
1.541717e+003,1.608939e+002
1.542681e+003,1.454504e+002
1.543645e+003,1.308544e+002
1.544609e+003,1.167730e+002
1.545573e+003,1.057540e+002
1.546538e+003,9.872778e+001
1.547502e+003,9.248749e+001
1.548466e+003,8.611310e+001
1.549430e+003,8.057861e+001
1.550395e+003,7.677435e+001
1.551359e+003,7.431543e+001
1.552323e+003,7.246045e+001
1.553287e+003,7.093481e+001
1.554252e+003,6.946539e+001
1.555216e+003,6.783240e+001
1.556180e+003,6.591058e+001
1.557144e+003,6.329828e+001
1.558109e+003,6.009381e+001
1.559073e+003,5.756903e+001
1.560037e+003,5.577753e+001
1.561001e+003,5.362823e+001
1.561966e+003,5.013312e+001
1.562930e+003,4.752478e+001
1.563894e+003,4.835919e+001
1.564858e+003,5.121350e+001
1.565823e+003,5.282318e+001
1.566787e+003,5.251007e+001
1.567751e+003,5.134473e+001
1.568715e+003,4.991553e+001
1.569679e+003,4.824341e+001
1.570644e+003,4.545819e+001
1.571608e+003,4.240894e+001
1.572572e+003,4.240375e+001
1.573536e+003,4.580530e+001
1.574500e+003,4.882642e+001
1.575465e+003,5.010962e+001
1.576429e+003,5.061603e+001
1.577393e+003,5.071460e+001
1.578357e+003,5.053003e+001
1.579322e+003,5.048749e+001
1.580286e+003,5.071405e+001
1.581250e+003,5.135577e+001
1.582214e+003,5.272955e+001
1.583179e+003,5.337372e+001
1.584143e+003,5.101062e+001
1.585107e+003,4.812384e+001
1.586071e+003,4.907526e+001
1.587036e+003,5.281787e+001
1.588000e+003,5.497479e+001
1.588964e+003,5.434174e+001
1.589928e+003,5.300134e+001
1.590893e+003,5.193756e+001
1.591857e+003,5.142078e+001
1.592821e+003,5.209991e+001
1.593785e+003,5.382574e+001
1.594750e+003,5.554535e+001
1.595714e+003,5.710980e+001
1.596678e+003,5.780518e+001
1.597642e+003,5.658954e+001
1.598606e+003,5.562427e+001
1.599571e+003,5.758740e+001
1.600535e+003,6.042731e+001
1.601499e+003,6.077203e+001
1.602463e+003,5.900781e+001
1.603427e+003,5.895856e+001
1.604392e+003,6.244238e+001
1.605356e+003,6.606573e+001
1.606320e+003,6.634290e+001
1.607284e+003,6.416016e+001
1.608249e+003,6.162488e+001
1.609213e+003,5.870685e+001
1.610177e+003,5.696307e+001
1.611141e+003,5.729663e+001
1.612106e+003,5.722491e+001
1.613070e+003,5.486981e+001
1.614034e+003,5.222461e+001
1.614998e+003,5.119629e+001
1.615963e+003,5.071912e+001
1.616927e+003,4.823547e+001
1.617891e+003,4.374048e+001
1.618855e+003,4.048016e+001
1.619820e+003,4.035345e+001
1.620784e+003,4.159088e+001
1.621748e+003,4.239508e+001
1.622712e+003,4.317639e+001
1.623677e+003,4.416107e+001
1.624641e+003,4.554529e+001
1.625605e+003,4.615552e+001
1.626569e+003,4.464380e+001
1.627533e+003,4.269995e+001
1.628498e+003,4.127814e+001
1.629462e+003,4.032135e+001
1.630426e+003,3.921039e+001
1.631390e+003,3.852887e+001
1.632354e+003,4.043848e+001
1.633319e+003,4.494177e+001
1.634283e+003,4.768054e+001
1.635247e+003,4.506848e+001
1.636211e+003,3.982025e+001
1.637176e+003,3.637280e+001
1.638140e+003,3.488293e+001
1.639104e+003,3.607935e+001
1.640068e+003,4.056921e+001
1.641033e+003,4.515002e+001
1.641997e+003,5.128815e+001
1.642961e+003,5.435791e+001
1.643925e+003,4.971594e+001
1.644890e+003,4.310461e+001
1.645854e+003,3.972620e+001
1.646818e+003,3.929480e+001
1.647782e+003,3.996558e+001
1.648747e+003,4.099353e+001
1.649711e+003,4.172235e+001
1.650675e+003,4.171484e+001
1.651639e+003,4.140454e+001
1.652604e+003,4.114856e+001
1.653568e+003,4.082166e+001
1.654532e+003,4.153467e+001
1.655496e+003,4.410022e+001
1.656460e+003,4.496234e+001
1.657425e+003,4.196191e+001
1.658389e+003,3.879242e+001
1.659353e+003,3.765308e+001
1.660317e+003,3.717517e+001
1.661281e+003,3.582617e+001
1.662246e+003,3.370544e+001
1.663210e+003,3.169189e+001
1.664174e+003,3.017981e+001
1.665138e+003,2.921216e+001
1.666103e+003,2.898505e+001
1.667067e+003,2.867798e+001
1.668031e+003,2.620581e+001
1.668995e+003,2.191290e+001
1.669960e+003,1.997693e+001
1.670924e+003,2.123944e+001
1.671888e+003,2.293585e+001
1.672852e+003,2.453424e+001
1.673817e+003,2.562115e+001
1.674781e+003,2.514563e+001
1.675745e+003,2.458313e+001
1.676709e+003,2.617297e+001
1.677674e+003,2.909253e+001
1.678638e+003,3.053363e+001
1.679602e+003,2.962512e+001
1.680566e+003,2.750385e+001
1.681531e+003,2.459924e+001
1.682495e+003,2.195209e+001
1.683459e+003,2.153845e+001
1.684423e+003,2.273621e+001
1.685387e+003,2.223804e+001
1.686352e+003,1.953595e+001
1.687316e+003,1.775385e+001
1.688280e+003,1.814893e+001
1.689244e+003,1.916168e+001
1.690208e+003,1.990906e+001
1.691173e+003,2.034528e+001
1.692137e+003,2.049677e+001
1.693101e+003,2.057080e+001
1.694065e+003,2.055560e+001
1.695030e+003,2.020453e+001
1.695994e+003,1.983777e+001
1.696958e+003,1.998126e+001
1.697922e+003,2.009674e+001
1.698887e+003,1.946747e+001
1.699851e+003,1.833075e+001
1.700815e+003,1.720428e+001
1.701779e+003,1.600793e+001
1.702744e+003,1.408331e+001
1.703708e+003,1.096814e+001
1.704672e+003,9.374023e+000
1.705636e+003,1.160193e+001
1.706601e+003,1.539246e+001
1.707565e+003,1.871777e+001
1.708529e+003,2.129926e+001
1.709493e+003,2.103479e+001
1.710458e+003,1.731897e+001
1.711422e+003,1.385730e+001
1.712386e+003,1.253595e+001
1.713350e+003,1.196307e+001
1.714314e+003,1.017749e+001
1.715279e+003,8.397522e+000
1.716243e+003,9.429810e+000
1.717207e+003,1.283209e+001
1.718171e+003,1.584460e+001
1.719135e+003,1.775903e+001
1.720100e+003,1.766119e+001
1.721064e+003,1.432391e+001
1.722028e+003,9.976563e+000
1.722992e+003,7.932373e+000
1.723957e+003,8.176758e+000
1.724921e+003,9.283691e+000
1.725885e+003,1.117609e+001
1.726849e+003,1.161938e+001
1.727814e+003,9.321167e+000
1.728778e+003,7.755798e+000
1.729742e+003,9.179993e+000
1.730706e+003,1.112109e+001
1.731671e+003,1.089502e+001
1.732635e+003,8.884460e+000
1.733599e+003,6.482422e+000
1.734563e+003,4.463867e+000
1.735528e+003,3.561218e+000
1.736492e+003,4.034302e+000
1.737456e+003,5.376099e+000
1.738420e+003,7.178162e+000
1.739385e+003,8.775940e+000
1.740349e+003,8.357727e+000
1.741313e+003,5.541565e+000
1.742277e+003,3.631531e+000
1.743241e+003,3.424805e+000
1.744206e+003,3.228271e+000
1.745170e+003,2.221497e+000
1.746134e+003,1.614929e+000
1.747098e+003,2.843140e+000
1.748063e+003,4.223267e+000
1.749027e+003,3.112915e+000
1.749991e+003,5.534058e-001
1.750955e+003,2.327881e-001
1.751919e+003,2.925598e+000
1.752884e+003,4.968994e+000
1.753848e+003,3.300354e+000
1.754812e+003,-2.184448e-001
1.755776e+003,-1.661926e+000
1.756741e+003,-8.779907e-001
1.757705e+003,-1.669312e-001
1.758669e+003,-4.949951e-002
1.759633e+003,9.459229e-001
1.760598e+003,3.979553e+000
1.761562e+003,6.024170e+000
1.762526e+003,6.522095e+000
1.763490e+003,5.908508e+000
1.764455e+003,3.589478e+000
1.765419e+003,9.004517e-001
1.766383e+003,-2.365723e-001
1.767347e+003,9.539795e-002
1.768312e+003,4.649658e-001
1.769276e+003,1.326294e-001
1.770240e+003,-6.533813e-001
1.771204e+003,-1.808594e+000
1.772168e+003,-2.325989e+000
1.773133e+003,6.914063e-001
1.774097e+003,6.586975e+000
1.775061e+003,8.229065e+000
1.776025e+003,4.073608e+000
1.776990e+003,2.386475e-002
1.777954e+003,-2.010437e+000
1.778918e+003,-2.571228e+000
1.779882e+003,-1.630310e+000
1.780846e+003,-2.218018e-001
1.781811e+003,7.846680e-001
1.782775e+003,1.355774e+000
1.783739e+003,9.490356e-001
1.784703e+003,-5.599365e-001
1.785668e+003,-1.452393e+000
1.786632e+003,-9.297485e-001
1.787596e+003,-3.183594e-001
1.788560e+003,-3.347168e-001
1.789525e+003,-3.664551e-001
1.790489e+003,1.390381e-001
1.791453e+003,9.531860e-001
1.792417e+003,1.754883e+000
1.793382e+003,2.426514e+000
1.794346e+003,2.517578e+000
1.795310e+003,1.722961e+000
1.796274e+003,5.094604e-001
1.797239e+003,-5.840454e-001
1.798203e+003,-9.933472e-001
1.799167e+003,4.353638e-001
1.800131e+003,3.890625e+000
1.801095e+003,4.279541e+000
1.802060e+003,-5.415039e-001
1.803024e+003,-3.707031e+000
1.803988e+003,-3.993591e+000
1.804952e+003,-3.563599e+000
1.805917e+003,-3.302246e+000
1.806881e+003,-2.947571e+000
1.807845e+003,-1.666077e+000
1.808809e+003,-3.662109e-002
1.809773e+003,3.331299e-001
1.810738e+003,-5.854492e-001
1.811702e+003,-8.969116e-001
1.812666e+003,5.501099e-001
1.813630e+003,2.939819e+000
1.814595e+003,5.595642e+000
1.815559e+003,7.670105e+000
1.816523e+003,4.944458e+000
1.817487e+003,-3.289001e+000
1.818452e+003,-7.153229e+000
1.819416e+003,-4.350433e+000
1.820380e+003,-1.866089e+000
1.821344e+003,-2.321350e+000
1.822309e+003,-2.977539e+000
1.823273e+003,-1.824646e+000
1.824237e+003,-3.405762e-002
1.825201e+003,1.633850e+000
1.826166e+003,2.628052e+000
1.827130e+003,1.338684e+000
1.828094e+003,-2.479187e+000
1.829058e+003,-5.223389e+000
1.830022e+003,-4.642456e+000
1.830987e+003,-3.232117e+000
1.831951e+003,-2.923492e+000
1.832915e+003,-3.127167e+000
1.833879e+003,-2.960571e+000
1.834844e+003,-2.587891e+000
1.835808e+003,-2.884796e+000
1.836772e+003,-3.788208e+000
1.837736e+003,-3.543243e+000
1.838700e+003,-1.438599e+000
1.839665e+003,1.743774e-001
1.840629e+003,-9.169922e-001
1.841593e+003,-3.277649e+000
1.842557e+003,-4.022705e+000
1.843522e+003,-3.187836e+000
1.844486e+003,-2.732208e+000
1.845450e+003,-1.857910e+000
1.846414e+003,-2.369110e+000
1.847379e+003,-6.759979e+000
1.848343e+003,-9.891022e+000
1.849307e+003,-9.293945e+000
1.850271e+003,-7.673431e+000
1.851236e+003,-6.671722e+000
1.852200e+003,-5.891083e+000
1.853164e+003,-4.591736e+000
1.854128e+003,-3.169891e+000
1.855093e+003,-2.772095e+000
1.856057e+003,-3.468872e+000
1.857021e+003,-3.556244e+000
1.857985e+003,-1.544861e+000
1.858949e+003,7.315674e-001
1.859914e+003,-7.619019e-001
1.860878e+003,-4.823273e+000
1.861842e+003,-4.326477e+000
1.862806e+003,8.140259e-001
1.863771e+003,4.280762e+000
1.864735e+003,4.909424e+000
1.865699e+003,3.842102e+000
1.866663e+003,1.063293e+000
1.867627e+003,-1.868683e+000
1.868592e+003,-4.203308e+000
1.869556e+003,-5.857086e+000
1.870520e+003,-5.812866e+000
1.871484e+003,-4.449463e+000
1.872449e+003,-4.395477e+000
1.873413e+003,-5.976898e+000
1.874377e+003,-5.818115e+000
1.875341e+003,-2.498810e+000
1.876306e+003,9.937744e-001
1.877270e+003,4.139954e+000
1.878234e+003,5.579590e+000
1.879198e+003,2.771667e+000
1.880163e+003,-1.985840e+000
1.881127e+003,-4.660278e+000
1.882091e+003,-4.782867e+000
1.883055e+003,-3.872437e+000
1.884020e+003,-2.744751e+000
1.884984e+003,-1.773804e+000
1.885948e+003,-1.283600e+000
1.886912e+003,-1.144775e+000
1.887876e+003,-1.189606e+000
1.888841e+003,-1.306946e+000
1.889805e+003,-2.545166e-001
1.890769e+003,2.347595e+000
1.891733e+003,4.102661e+000
1.892698e+003,4.654083e+000
1.893662e+003,4.163513e+000
1.894626e+003,2.156860e+000
1.895590e+003,-1.016235e-002
1.896554e+003,-1.192108e+000
1.897519e+003,-1.917480e+000
1.898483e+003,-3.613678e+000
1.899447e+003,-5.766724e+000
1.900411e+003,-5.388000e+000
1.901376e+003,-1.697571e+000
1.902340e+003,7.301025e-001
1.903304e+003,-4.017029e-001
1.904268e+003,-2.377014e+000
1.905233e+003,-4.180695e+000
1.906197e+003,-5.247162e+000
1.907161e+003,-4.468475e+000
1.908125e+003,-2.694336e+000
1.909090e+003,-1.765045e+000
1.910054e+003,-1.749908e+000
1.911018e+003,-1.316467e+000
1.911982e+003,4.071045e-002
1.912947e+003,1.571594e+000
1.913911e+003,2.662720e+000
1.914875e+003,3.161316e+000
1.915839e+003,2.640045e+000
1.916803e+003,1.236572e+000
1.917768e+003,7.036133e-001
1.918732e+003,1.419525e+000
1.919696e+003,1.589813e+000
1.920660e+003,1.071747e+000
1.921625e+003,7.320251e-001
1.922589e+003,3.494873e-001
1.923553e+003,4.949341e-001
1.924517e+003,2.749786e+000
1.925481e+003,4.583008e+000
1.926446e+003,2.443024e+000
1.927410e+003,-1.203339e+000
1.928374e+003,-5.402222e-001
1.929338e+003,4.128723e+000
1.930303e+003,5.078949e+000
1.931267e+003,-1.021118e+000
1.932231e+003,-5.184235e+000
1.933195e+003,-1.860077e+000
1.934160e+003,2.443359e+000
1.935124e+003,3.195923e+000
1.936088e+003,1.950348e+000
1.937052e+003,4.600525e-001
1.938017e+003,-8.049622e-001
1.938981e+003,-1.722412e+000
1.939945e+003,-2.280212e+000
1.940909e+003,-2.537140e+000
1.941874e+003,-2.523804e+000
1.942838e+003,-1.636383e+000
1.943802e+003,1.009155e+000
1.944766e+003,4.140533e+000
1.945730e+003,4.400269e+000
1.946695e+003,2.154419e+000
1.947659e+003,2.230347e+000
1.948623e+003,4.949158e+000
1.949587e+003,5.384949e+000
1.950552e+003,2.569702e+000
1.951516e+003,-2.364807e-001
1.952480e+003,-2.460815e+000
1.953444e+003,-3.337463e+000
1.954408e+003,-1.459717e+000
1.955373e+003,9.096680e-001
1.956337e+003,3.345032e-001
1.957301e+003,-1.928864e+000
1.958265e+003,-2.025909e+000
1.959230e+003,5.118103e-001
1.960194e+003,2.165558e+000
1.961158e+003,1.459076e+000
1.962122e+003,5.551147e-001
1.963087e+003,-1.088257e-001
1.964051e+003,-5.668335e-001
1.965015e+003,-3.214417e-001
1.965979e+003,1.058655e-001
1.966944e+003,-2.485657e-001
1.967908e+003,-1.068451e+000
1.968872e+003,-1.501465e+000
1.969836e+003,-1.364685e+000
1.970801e+003,-8.938599e-001
1.971765e+003,-1.975403e-001
1.972729e+003,4.812622e-001
1.973693e+003,8.755798e-001
1.974657e+003,1.245361e+000
1.975622e+003,1.898773e+000
1.976586e+003,2.700928e+000
1.977550e+003,3.636139e+000
1.978514e+003,4.728851e+000
1.979479e+003,5.788177e+000
1.980443e+003,6.696960e+000
1.981407e+003,7.001648e+000
1.982371e+003,6.619781e+000
1.983335e+003,5.694977e+000
1.984300e+003,4.077118e+000
1.985264e+003,2.367737e+000
1.986228e+003,1.659882e+000
1.987192e+003,1.845856e+000
1.988157e+003,2.501099e+000
1.989121e+003,4.050354e+000
1.990085e+003,4.273468e+000
1.991049e+003,2.149323e+000
1.992014e+003,1.045135e+000
1.992978e+003,1.684113e+000
1.993942e+003,2.692169e+000
1.994906e+003,4.078552e+000
1.995871e+003,5.197388e+000
1.996835e+003,5.409912e+000
1.997799e+003,5.304962e+000
1.998763e+003,5.771423e+000
1.999728e+003,6.530640e+000
