5.003444e+002,2.042932e+001
5.013087e+002,2.001746e+001
5.022729e+002,1.692621e+001
5.032371e+002,1.277777e+001
5.042014e+002,1.154572e+001
5.051656e+002,1.290790e+001
5.061298e+002,1.531360e+001
5.070941e+002,1.747852e+001
5.080583e+002,1.949927e+001
5.090225e+002,1.904578e+001
5.099868e+002,1.422931e+001
5.109510e+002,9.699097e+000
5.119152e+002,8.065613e+000
5.128795e+002,9.633728e+000
5.138437e+002,1.134058e+001
5.148079e+002,1.257947e+001
5.157722e+002,1.353186e+001
5.167364e+002,1.398267e+001
5.177006e+002,1.389691e+001
5.186649e+002,1.354010e+001
5.196291e+002,1.399658e+001
5.205933e+002,1.455200e+001
5.215576e+002,1.348920e+001
5.225218e+002,1.053296e+001
5.234860e+002,6.540649e+000
5.244503e+002,3.381409e+000
5.254145e+002,1.755615e+000
5.263787e+002,1.345215e+000
5.273430e+002,2.452759e+000
5.283072e+002,4.555542e+000
5.292714e+002,7.043335e+000
5.302357e+002,1.022998e+001
5.311999e+002,1.167786e+001
5.321641e+002,1.130560e+001
5.331284e+002,1.023840e+001
5.340926e+002,9.017578e+000
5.350568e+002,7.625244e+000
5.360211e+002,5.877380e+000
5.369853e+002,3.787659e+000
5.379495e+002,1.956055e+000
5.389138e+002,8.195190e-001
5.398780e+002,4.454346e-001
5.408422e+002,4.790649e-001
5.418065e+002,-5.621338e-002
5.427707e+002,-1.006104e+000
5.437349e+002,-8.940430e-001
5.446992e+002,7.935181e-001
5.456634e+002,3.611877e+000
5.466276e+002,6.193542e+000
5.475919e+002,1.000830e+001
5.485561e+002,1.168463e+001
5.495203e+002,9.291626e+000
5.504846e+002,5.004150e+000
5.514488e+002,2.119019e+000
5.524130e+002,2.459167e+000
5.533773e+002,3.408752e+000
5.543415e+002,4.027649e+000
5.553057e+002,4.175415e+000
5.562700e+002,3.258606e+000
5.572342e+002,8.915405e-001
5.581984e+002,-1.787109e+000
5.591627e+002,-1.346497e+000
5.601269e+002,1.308228e+000
5.610911e+002,4.372192e+000
5.620554e+002,6.930298e+000
5.630196e+002,8.653870e+000
5.639838e+002,7.725952e+000
5.649481e+002,1.859375e+000
5.659123e+002,-3.254272e+000
5.668765e+002,-6.682556e+000
5.678408e+002,-8.219604e+000
5.688050e+002,-7.691833e+000
5.697692e+002,-3.713440e+000
5.707335e+002,-5.520020e-001
5.716977e+002,6.166992e-001
5.726619e+002,5.057373e-001
5.736262e+002,1.693726e-001
5.745904e+002,3.895874e-001
5.755546e+002,6.100464e-001
5.765189e+002,-8.093872e-001
5.774831e+002,-3.295898e+000
5.784473e+002,-5.315918e+000
5.794116e+002,-5.666016e+000
5.803758e+002,-4.280090e+000
5.813400e+002,-3.502930e+000
5.823043e+002,-3.880005e+000
5.832685e+002,-4.680176e+000
5.842327e+002,-5.541687e+000
5.851970e+002,-6.166748e+000
5.861612e+002,-6.218445e+000
5.871254e+002,-6.141296e+000
5.880897e+002,-5.353760e+000
5.890539e+002,-3.261902e+000
5.900181e+002,-6.898804e-001
5.909824e+002,1.221069e+000
5.919466e+002,1.908020e+000
5.929108e+002,1.652588e+000
5.938751e+002,5.671997e-001
5.948393e+002,-9.111938e-001
5.958035e+002,-2.082886e+000
5.967678e+002,-2.384155e+000
5.977320e+002,-1.763794e+000
5.986962e+002,-8.622437e-001
5.996605e+002,-1.251221e-001
6.006247e+002,5.222778e-001
6.015889e+002,1.409668e+000
6.025532e+002,2.503235e+000
6.035174e+002,2.686523e+000
6.044816e+002,6.155396e-001
6.054459e+002,-8.128662e-001
6.064101e+002,-8.945313e-001
6.073743e+002,-1.388550e-001
6.083386e+002,5.704956e-001
6.093028e+002,9.548340e-001
6.102670e+002,1.060791e+000
6.112313e+002,4.207764e-001
6.121955e+002,-3.539429e-001
6.131597e+002,-2.171631e-001
6.141240e+002,1.491150e+000
6.150882e+002,4.009583e+000
6.160524e+002,3.848694e+000
6.170167e+002,1.685425e+000
6.179809e+002,1.365967e-001
6.189451e+002,4.733887e-001
6.199094e+002,2.148621e+000
6.208736e+002,2.341919e+000
6.218378e+002,-1.033447e+000
6.228021e+002,-2.676758e+000
6.237663e+002,-9.453125e-001
6.247305e+002,2.624756e+000
6.256948e+002,5.587036e+000
6.266590e+002,7.073303e+000
6.276232e+002,6.517517e+000
6.285875e+002,2.907959e+000
6.295517e+002,-1.364075e+000
6.305159e+002,-4.023682e+000
6.314802e+002,-3.922546e+000
6.324444e+002,-1.983887e+000
6.334086e+002,1.106812e+000
6.343729e+002,4.947937e+000
6.353371e+002,6.761597e+000
6.363013e+002,5.111145e+000
6.372656e+002,1.032593e+000
6.382298e+002,-1.413879e+000
6.391940e+002,-5.456543e-002
6.401583e+002,-1.413574e-001
6.411225e+002,-2.031982e+000
6.420867e+002,-4.441101e+000
6.430510e+002,-6.295837e+000
6.440152e+002,-7.764038e+000
6.449794e+002,-8.500488e+000
6.459437e+002,-7.701416e+000
6.469079e+002,-6.673767e+000
6.478721e+002,-6.392639e+000
6.488364e+002,-7.074951e+000
6.498006e+002,-8.006897e+000
6.507648e+002,-8.296509e+000
6.517291e+002,-8.065002e+000
6.526933e+002,-6.998047e+000
6.536575e+002,-4.986755e+000
6.546218e+002,-2.829224e+000
6.555860e+002,-2.079712e+000
6.565502e+002,-3.830811e+000
6.575145e+002,-4.847290e+000
6.584787e+002,-4.722473e+000
6.594429e+002,-4.240601e+000
6.604072e+002,-4.096863e+000
6.613714e+002,-4.441162e+000
6.623356e+002,-4.321960e+000
6.632999e+002,-3.126343e+000
6.642641e+002,-1.993835e+000
6.652283e+002,-1.229187e+000
6.661926e+002,-7.164917e-001
6.671568e+002,-1.453857e-001
6.681210e+002,5.939941e-001
6.690853e+002,1.391418e+000
6.700495e+002,2.638367e+000
6.710137e+002,4.277100e+000
6.719780e+002,5.345642e+000
6.729422e+002,4.625549e+000
6.739064e+002,1.407715e+000
6.748707e+002,-1.156006e-001
6.758349e+002,1.023132e+000
6.767991e+002,2.048035e+000
6.777634e+002,2.036255e+000
6.787276e+002,1.333496e+000
6.796918e+002,9.740601e-001
6.806561e+002,6.953125e-001
6.816203e+002,8.733521e-001
6.825845e+002,1.977112e+000
6.835488e+002,3.593018e+000
6.845130e+002,5.392944e+000
6.854772e+002,7.360352e+000
6.864415e+002,8.797180e+000
6.874057e+002,6.767029e+000
6.883699e+002,2.194458e+000
6.893342e+002,-1.482361e+000
6.902984e+002,-2.156128e+000
6.912626e+002,-2.327271e-001
6.922269e+002,6.428833e-001
6.931911e+002,-8.837280e-001
6.941553e+002,-4.479370e-001
6.951196e+002,4.372681e+000
6.960838e+002,1.000745e+001
6.970480e+002,1.031213e+001
6.980123e+002,1.446289e+000
6.989765e+002,-5.614075e+000
6.999407e+002,-5.839783e+000
7.009050e+002,-3.405640e+000
7.018692e+002,-1.055298e+000
7.028334e+002,-2.526855e-002
7.037977e+002,-1.342163e-001
7.047619e+002,-1.767090e+000
7.057261e+002,-3.590576e+000
7.066904e+002,-2.822510e+000
7.076546e+002,9.466553e-001
7.086188e+002,5.256226e+000
7.095831e+002,6.026855e+000
7.105473e+002,1.262939e+000
7.115115e+002,-1.486084e+000
7.124758e+002,-1.958313e+000
7.134400e+002,-1.430969e+000
7.144042e+002,9.130859e-002
7.153685e+002,2.620789e+000
7.163327e+002,4.337891e+000
7.172969e+002,3.477234e+000
7.182612e+002,2.518677e+000
7.192254e+002,2.233948e+000
7.201896e+002,2.469482e+000
7.211539e+002,2.867249e+000
7.221181e+002,3.248535e+000
7.230823e+002,3.380554e+000
7.240466e+002,2.452820e+000
7.250108e+002,1.050842e+000
7.259750e+002,4.002075e-001
7.269393e+002,9.918213e-001
7.279035e+002,2.223633e+000
7.288677e+002,2.332825e+000
7.298320e+002,5.354004e-001
7.307962e+002,1.837158e-001
7.317604e+002,3.086609e+000
7.327247e+002,7.028320e+000
7.336889e+002,8.263855e+000
7.346531e+002,4.421692e+000
7.356174e+002,2.819214e-001
7.365816e+002,-1.009460e+000
7.375458e+002,-5.430298e-001
7.385101e+002,1.525635e+000
7.394743e+002,4.690430e+000
7.404385e+002,7.643616e+000
7.414028e+002,7.706665e+000
7.423670e+002,5.138489e+000
7.433312e+002,5.313232e+000
7.442955e+002,9.456055e+000
7.452597e+002,1.441687e+001
7.462239e+002,1.621826e+001
7.471882e+002,1.377338e+001
7.481524e+002,1.187390e+001
7.491166e+002,1.036621e+001
7.500809e+002,8.380371e+000
7.510451e+002,4.767334e+000
7.520093e+002,3.098755e-001
7.529736e+002,-2.200256e+000
7.539378e+002,2.175903e-001
7.549020e+002,3.413818e+000
7.558663e+002,4.542175e+000
7.568306e+002,4.579041e+000
7.577948e+002,4.869629e+000
7.587590e+002,6.076843e+000
7.597233e+002,7.472412e+000
7.606875e+002,7.500916e+000
7.616517e+002,6.617493e+000
7.626160e+002,6.126526e+000
7.635802e+002,6.557068e+000
7.645444e+002,7.515015e+000
7.655087e+002,7.992615e+000
7.664729e+002,7.306885e+000
7.674371e+002,7.424072e+000
7.684014e+002,9.084473e+000
7.693656e+002,1.078503e+001
7.703298e+002,1.148120e+001
7.712941e+002,1.118127e+001
7.722583e+002,1.106494e+001
7.732225e+002,1.247906e+001
7.741868e+002,1.386896e+001
7.751510e+002,1.376038e+001
7.761152e+002,1.259033e+001
7.770795e+002,1.168793e+001
7.780437e+002,1.219019e+001
7.790079e+002,1.360681e+001
7.799722e+002,1.177533e+001
7.809364e+002,6.256470e+000
7.819006e+002,2.081543e+000
7.828649e+002,2.044800e+000
7.838291e+002,5.214966e+000
7.847933e+002,7.969910e+000
7.857576e+002,1.019788e+001
7.867218e+002,1.057086e+001
7.876860e+002,7.841675e+000
7.886503e+002,4.927063e+000
7.896145e+002,4.375854e+000
7.905787e+002,6.763855e+000
7.915430e+002,1.006793e+001
7.925072e+002,1.249792e+001
7.934714e+002,1.367029e+001
7.944357e+002,1.335919e+001
7.953999e+002,1.195276e+001
7.963641e+002,1.008099e+001
7.973284e+002,8.224365e+000
7.982926e+002,6.330017e+000
7.992568e+002,6.114075e+000
8.002211e+002,8.165039e+000
8.011853e+002,8.771851e+000
8.021495e+002,6.038757e+000
8.031138e+002,1.707886e+000
8.040780e+002,5.081177e-001
8.050422e+002,4.906799e+000
8.060065e+002,8.747559e+000
8.069707e+002,9.762878e+000
8.079349e+002,9.055847e+000
8.088992e+002,7.439453e+000
8.098634e+002,5.576172e+000
8.108276e+002,4.414307e+000
8.117919e+002,5.407104e+000
8.127561e+002,7.127441e+000
8.137203e+002,8.243286e+000
8.146846e+002,8.972351e+000
8.156488e+002,9.039917e+000
8.166130e+002,7.571167e+000
8.175773e+002,3.787903e+000
8.185415e+002,2.581116e+000
8.195057e+002,4.495422e+000
8.204700e+002,6.990845e+000
8.214342e+002,9.835327e+000
8.223984e+002,1.263843e+001
8.233627e+002,1.446368e+001
8.243269e+002,1.471399e+001
8.252911e+002,1.479675e+001
8.262554e+002,1.584961e+001
8.272196e+002,1.696814e+001
8.281838e+002,1.689697e+001
8.291481e+002,1.534460e+001
8.301123e+002,1.341406e+001
8.310765e+002,1.317267e+001
8.320408e+002,1.438123e+001
8.330050e+002,1.489301e+001
8.339692e+002,1.465442e+001
8.349335e+002,1.388470e+001
8.358977e+002,1.254315e+001
8.368619e+002,1.055670e+001
8.378262e+002,1.025012e+001
8.387904e+002,1.312939e+001
8.397546e+002,1.537964e+001
8.407189e+002,1.555231e+001
8.416831e+002,1.466370e+001
8.426473e+002,1.475867e+001
8.436116e+002,1.702716e+001
8.445758e+002,1.950403e+001
8.455400e+002,1.954901e+001
8.465043e+002,1.807001e+001
8.474685e+002,1.632037e+001
8.484327e+002,1.505414e+001
8.493970e+002,1.444708e+001
8.503612e+002,1.429169e+001
8.513254e+002,1.442218e+001
8.522897e+002,1.530957e+001
8.532539e+002,1.710822e+001
8.542181e+002,1.883856e+001
8.551824e+002,2.089459e+001
8.561466e+002,2.342743e+001
8.571108e+002,2.431628e+001
8.580751e+002,1.956110e+001
8.590393e+002,1.588373e+001
8.600035e+002,1.676624e+001
8.609678e+002,1.980017e+001
8.619320e+002,2.205865e+001
8.628962e+002,2.232013e+001
8.638605e+002,2.201709e+001
8.648247e+002,2.372449e+001
8.657889e+002,2.630658e+001
8.667532e+002,2.728815e+001
8.677174e+002,2.634851e+001
8.686816e+002,2.496094e+001
8.696459e+002,2.491278e+001
8.706101e+002,2.660089e+001
8.715743e+002,2.826727e+001
8.725386e+002,3.008301e+001
8.735028e+002,3.175830e+001
8.744670e+002,3.300995e+001
8.754313e+002,3.356116e+001
8.763955e+002,3.299500e+001
8.773597e+002,3.087604e+001
8.783240e+002,2.950110e+001
8.792882e+002,3.169110e+001
8.802524e+002,3.421039e+001
8.812167e+002,3.364130e+001
8.821809e+002,2.984259e+001
8.831451e+002,2.566730e+001
8.841094e+002,2.491663e+001
8.850736e+002,2.780383e+001
8.860378e+002,3.052972e+001
8.870021e+002,3.310791e+001
8.879663e+002,3.482544e+001
8.889305e+002,3.435986e+001
8.898948e+002,3.223462e+001
8.908590e+002,3.193665e+001
8.918232e+002,3.571106e+001
8.927875e+002,3.865228e+001
8.937517e+002,3.903467e+001
8.947159e+002,3.879822e+001
8.956802e+002,3.941138e+001
8.966444e+002,4.094568e+001
8.976086e+002,4.231018e+001
8.985729e+002,4.297614e+001
8.995371e+002,4.302203e+001
9.005013e+002,4.199927e+001
9.014656e+002,4.029095e+001
9.024298e+002,3.881555e+001
9.033940e+002,3.801697e+001
9.043583e+002,3.759216e+001
9.053225e+002,3.747583e+001
9.062867e+002,3.666907e+001
9.072510e+002,3.711298e+001
9.082152e+002,4.129260e+001
9.091794e+002,4.596283e+001
9.101437e+002,4.724219e+001
9.111079e+002,4.443707e+001
9.120721e+002,4.208563e+001
9.130364e+002,4.362610e+001
9.140006e+002,4.503558e+001
9.149648e+002,4.358459e+001
9.159291e+002,4.067841e+001
9.168933e+002,3.923022e+001
9.178575e+002,4.108057e+001
9.188218e+002,4.497186e+001
9.197860e+002,4.739648e+001
9.207502e+002,4.824042e+001
9.217145e+002,4.768994e+001
9.226787e+002,4.538318e+001
9.236429e+002,4.294122e+001
9.246072e+002,4.239313e+001
9.255714e+002,4.389246e+001
9.265356e+002,4.492682e+001
9.274999e+002,4.545905e+001
9.284641e+002,4.472778e+001
9.294283e+002,4.180835e+001
9.303926e+002,3.785590e+001
9.313568e+002,3.466083e+001
9.323210e+002,3.311945e+001
9.332853e+002,3.240912e+001
9.342495e+002,3.104816e+001
9.352137e+002,2.958948e+001
9.361780e+002,2.980743e+001
9.371422e+002,3.230627e+001
9.381064e+002,3.527515e+001
9.390707e+002,3.573297e+001
9.400349e+002,3.265619e+001
9.409991e+002,3.131702e+001
9.419634e+002,3.299670e+001
9.429276e+002,3.431873e+001
9.438918e+002,3.393036e+001
9.448561e+002,3.294116e+001
9.458203e+002,3.338971e+001
9.467845e+002,3.615247e+001
9.477488e+002,3.942352e+001
9.487130e+002,4.206940e+001
9.496772e+002,4.431140e+001
9.506415e+002,4.660126e+001
9.516057e+002,4.870288e+001
9.525699e+002,4.942719e+001
9.535342e+002,4.749255e+001
9.544984e+002,4.334583e+001
9.554626e+002,4.260803e+001
9.564269e+002,4.634839e+001
9.573911e+002,5.006042e+001
9.583553e+002,5.324463e+001
9.593196e+002,5.517926e+001
9.602838e+002,5.389868e+001
9.612480e+002,4.793152e+001
9.622123e+002,4.417334e+001
9.631765e+002,4.755609e+001
9.641407e+002,5.086627e+001
9.651050e+002,5.031207e+001
9.660692e+002,4.673981e+001
9.670334e+002,4.276447e+001
9.679977e+002,4.018280e+001
9.689619e+002,3.920270e+001
9.699261e+002,4.027069e+001
9.708904e+002,4.246313e+001
9.718546e+002,4.428430e+001
9.728188e+002,4.533215e+001
9.737831e+002,4.550018e+001
9.747473e+002,4.421265e+001
9.757115e+002,4.081677e+001
9.766758e+002,4.036853e+001
9.776400e+002,4.689630e+001
9.786042e+002,5.209827e+001
9.795685e+002,5.335553e+001
9.805327e+002,5.191675e+001
9.814969e+002,4.943683e+001
9.824612e+002,4.668738e+001
9.834254e+002,4.498328e+001
9.843896e+002,4.574670e+001
9.853539e+002,4.758527e+001
9.863181e+002,4.963483e+001
9.872823e+002,5.132062e+001
9.882466e+002,5.166284e+001
9.892108e+002,5.009448e+001
9.901750e+002,4.775220e+001
9.911393e+002,4.909680e+001
9.921035e+002,5.687347e+001
9.930677e+002,6.168213e+001
9.940320e+002,6.097766e+001
9.949962e+002,5.965088e+001
9.959604e+002,6.263354e+001
9.969247e+002,7.017010e+001
9.978889e+002,7.733710e+001
9.988531e+002,8.104755e+001
9.998174e+002,8.348138e+001
1.000782e+003,8.667609e+001
1.001746e+003,9.003943e+001
1.002710e+003,9.222461e+001
1.003674e+003,9.269025e+001
1.004639e+003,9.235699e+001
1.005603e+003,9.294672e+001
1.006567e+003,9.441608e+001
1.007531e+003,9.452515e+001
1.008495e+003,9.256689e+001
1.009460e+003,9.086761e+001
1.010424e+003,9.106165e+001
1.011388e+003,9.284119e+001
1.012352e+003,9.496362e+001
1.013317e+003,9.875757e+001
1.014281e+003,9.904028e+001
1.015245e+003,9.226593e+001
1.016209e+003,8.363599e+001
1.017174e+003,7.664398e+001
1.018138e+003,7.183240e+001
1.019102e+003,6.778699e+001
1.020066e+003,6.342303e+001
1.021031e+003,5.941589e+001
1.021995e+003,5.743231e+001
1.022959e+003,5.663849e+001
1.023923e+003,5.496545e+001
1.024887e+003,5.172949e+001
1.025852e+003,4.715466e+001
1.026816e+003,4.099524e+001
1.027780e+003,3.245648e+001
1.028744e+003,2.770587e+001
1.029709e+003,2.958643e+001
1.030673e+003,3.228516e+001
1.031637e+003,3.522968e+001
1.032601e+003,3.727679e+001
1.033566e+003,3.707574e+001
1.034530e+003,3.431940e+001
1.035494e+003,3.049451e+001
1.036458e+003,2.563824e+001
1.037422e+003,2.155719e+001
1.038387e+003,2.249414e+001
1.039351e+003,2.779858e+001
1.040315e+003,3.192517e+001
1.041279e+003,3.050214e+001
1.042244e+003,2.533490e+001
1.043208e+003,2.486945e+001
1.044172e+003,3.413733e+001
1.045136e+003,3.856708e+001
1.046101e+003,3.467920e+001
1.047065e+003,2.976819e+001
1.048029e+003,2.847717e+001
1.048993e+003,3.020862e+001
1.049958e+003,3.133386e+001
1.050922e+003,2.997424e+001
1.051886e+003,2.877264e+001
1.052850e+003,3.133057e+001
1.053814e+003,3.509290e+001
1.054779e+003,3.655011e+001
1.055743e+003,3.500372e+001
1.056707e+003,3.221936e+001
1.057671e+003,3.024445e+001
1.058636e+003,2.900177e+001
1.059600e+003,2.931799e+001
1.060564e+003,3.363788e+001
1.061528e+003,3.690015e+001
1.062493e+003,3.732977e+001
1.063457e+003,3.635156e+001
1.064421e+003,3.608826e+001
1.065385e+003,3.688959e+001
1.066349e+003,3.628827e+001
1.067314e+003,3.121484e+001
1.068278e+003,2.660986e+001
1.069242e+003,2.633801e+001
1.070206e+003,2.889307e+001
1.071171e+003,3.189691e+001
1.072135e+003,3.402496e+001
1.073099e+003,3.517419e+001
1.074063e+003,3.540906e+001
1.075028e+003,3.475647e+001
1.075992e+003,3.491797e+001
1.076956e+003,3.670630e+001
1.077920e+003,3.722504e+001
1.078885e+003,3.504633e+001
1.079849e+003,3.159027e+001
1.080813e+003,2.895929e+001
1.081777e+003,2.739539e+001
1.082741e+003,2.721637e+001
1.083706e+003,2.922296e+001
1.084670e+003,3.137823e+001
1.085634e+003,3.345526e+001
1.086598e+003,3.465576e+001
1.087563e+003,3.333850e+001
1.088527e+003,2.901434e+001
1.089491e+003,2.413129e+001
1.090455e+003,2.309576e+001
1.091420e+003,2.612567e+001
1.092384e+003,2.783032e+001
1.093348e+003,2.747797e+001
1.094312e+003,2.661200e+001
1.095276e+003,2.665424e+001
1.096241e+003,2.732452e+001
1.097205e+003,2.676367e+001
1.098169e+003,2.364655e+001
1.099133e+003,2.164478e+001
1.100098e+003,2.217651e+001
1.101062e+003,2.441571e+001
1.102026e+003,2.913977e+001
1.102990e+003,3.509705e+001
1.103955e+003,3.986499e+001
1.104919e+003,4.192139e+001
1.105883e+003,4.199164e+001
1.106847e+003,4.177258e+001
1.107812e+003,4.115863e+001
1.108776e+003,3.958466e+001
1.109740e+003,3.609216e+001
1.110704e+003,3.358344e+001
1.111668e+003,3.502740e+001
1.112633e+003,3.976630e+001
1.113597e+003,4.395575e+001
1.114561e+003,4.715344e+001
1.115525e+003,4.913037e+001
1.116490e+003,4.944238e+001
1.117454e+003,4.898932e+001
1.118418e+003,4.818988e+001
1.119382e+003,4.759369e+001
1.120347e+003,4.760333e+001
1.121311e+003,4.815192e+001
1.122275e+003,4.879993e+001
1.123239e+003,4.999304e+001
1.124203e+003,5.206805e+001
1.125168e+003,5.289148e+001
1.126132e+003,5.183618e+001
1.127096e+003,5.108472e+001
1.128060e+003,5.161493e+001
1.129025e+003,5.342694e+001
1.129989e+003,5.765631e+001
1.130953e+003,6.611212e+001
1.131917e+003,7.255115e+001
1.132882e+003,7.424158e+001
1.133846e+003,7.511554e+001
1.134810e+003,7.757263e+001
1.135774e+003,8.131805e+001
1.136739e+003,8.446252e+001
1.137703e+003,8.595575e+001
1.138667e+003,8.759723e+001
1.139631e+003,9.278204e+001
1.140595e+003,1.012867e+002
1.141560e+003,1.108297e+002
1.142524e+003,1.220049e+002
1.143488e+003,1.329549e+002
1.144452e+003,1.402589e+002
1.145417e+003,1.460972e+002
1.146381e+003,1.592304e+002
1.147345e+003,1.827476e+002
1.148309e+003,2.055701e+002
1.149274e+003,2.259500e+002
1.150238e+003,2.444755e+002
1.151202e+003,2.610371e+002
1.152166e+003,2.764725e+002
1.153130e+003,2.926462e+002
1.154095e+003,3.097412e+002
1.155059e+003,3.236375e+002
1.156023e+003,3.286651e+002
1.156987e+003,3.256132e+002
1.157952e+003,3.226135e+002
1.158916e+003,3.211691e+002
1.159880e+003,3.162275e+002
1.160844e+003,3.034897e+002
1.161809e+003,2.844889e+002
1.162773e+003,2.630156e+002
1.163737e+003,2.380361e+002
1.164701e+003,2.156454e+002
1.165666e+003,1.978852e+002
1.166630e+003,1.832354e+002
1.167594e+003,1.715363e+002
1.168558e+003,1.624031e+002
1.169522e+003,1.554651e+002
1.170487e+003,1.506396e+002
1.171451e+003,1.486862e+002
1.172415e+003,1.509333e+002
1.173379e+003,1.559315e+002
1.174344e+003,1.564757e+002
1.175308e+003,1.527279e+002
1.176272e+003,1.481812e+002
1.177236e+003,1.439481e+002
1.178201e+003,1.397379e+002
1.179165e+003,1.346514e+002
1.180129e+003,1.283568e+002
1.181093e+003,1.224902e+002
1.182057e+003,1.174695e+002
1.183022e+003,1.133076e+002
1.183986e+003,1.098520e+002
1.184950e+003,1.072698e+002
1.185914e+003,1.058061e+002
1.186879e+003,1.055439e+002
1.187843e+003,1.064272e+002
1.188807e+003,1.082980e+002
1.189771e+003,1.109255e+002
1.190736e+003,1.145149e+002
1.191700e+003,1.192986e+002
1.192664e+003,1.217065e+002
1.193628e+003,1.209659e+002
1.194593e+003,1.189246e+002
1.195557e+003,1.166046e+002
1.196521e+003,1.138895e+002
1.197485e+003,1.103976e+002
1.198449e+003,1.057437e+002
1.199414e+003,1.016273e+002
1.200378e+003,9.932434e+001
1.201342e+003,9.740924e+001
1.202306e+003,9.482751e+001
1.203271e+003,9.170514e+001
1.204235e+003,8.870978e+001
1.205199e+003,8.624042e+001
1.206163e+003,8.417249e+001
1.207128e+003,8.234570e+001
1.208092e+003,8.088312e+001
1.209056e+003,7.651495e+001
1.210020e+003,6.732159e+001
1.210984e+003,5.962659e+001
1.211949e+003,5.654175e+001
1.212913e+003,5.490723e+001
1.213877e+003,5.042200e+001
1.214841e+003,4.300220e+001
1.215806e+003,3.657733e+001
1.216770e+003,3.224799e+001
1.217734e+003,2.988562e+001
1.218698e+003,3.015497e+001
1.219663e+003,3.114294e+001
1.220627e+003,3.045361e+001
1.221591e+003,2.782544e+001
1.222555e+003,2.459747e+001
1.223520e+003,2.202631e+001
1.224484e+003,2.042932e+001
1.225448e+003,2.063257e+001
1.226412e+003,2.459216e+001
1.227376e+003,2.554254e+001
1.228341e+003,2.041064e+001
1.229305e+003,1.556708e+001
1.230269e+003,1.488361e+001
1.231233e+003,1.678174e+001
1.232198e+003,1.788928e+001
1.233162e+003,1.746991e+001
1.234126e+003,1.741223e+001
1.235090e+003,1.929504e+001
1.236055e+003,2.145172e+001
1.237019e+003,2.247388e+001
1.237983e+003,2.222546e+001
1.238947e+003,2.039502e+001
1.239911e+003,1.707703e+001
1.240876e+003,1.411639e+001
1.241840e+003,1.434631e+001
1.242804e+003,1.806433e+001
1.243768e+003,1.987115e+001
1.244733e+003,1.670593e+001
1.245697e+003,1.576239e+001
1.246661e+003,1.845880e+001
1.247625e+003,2.205157e+001
1.248590e+003,2.532068e+001
1.249554e+003,2.807745e+001
1.250518e+003,2.993280e+001
1.251482e+003,3.046869e+001
1.252447e+003,3.029578e+001
1.253411e+003,3.022260e+001
1.254375e+003,3.050220e+001
1.255339e+003,3.128717e+001
1.256303e+003,3.274603e+001
1.257268e+003,3.486017e+001
1.258232e+003,3.753180e+001
1.259196e+003,4.007220e+001
1.260160e+003,4.141772e+001
1.261125e+003,4.151636e+001
1.262089e+003,4.284235e+001
1.263053e+003,4.664667e+001
1.264017e+003,4.971405e+001
1.264982e+003,5.184283e+001
1.265946e+003,5.280420e+001
1.266910e+003,5.173798e+001
1.267874e+003,4.926636e+001
1.268839e+003,4.758759e+001
1.269803e+003,4.821533e+001
1.270767e+003,4.945068e+001
1.271731e+003,4.776563e+001
1.272695e+003,4.343011e+001
1.273660e+003,4.061371e+001
1.274624e+003,3.944385e+001
1.275588e+003,3.812671e+001
1.276552e+003,3.636694e+001
1.277517e+003,3.420490e+001
1.278481e+003,3.051312e+001
1.279445e+003,2.481873e+001
1.280409e+003,2.193048e+001
1.281374e+003,2.627533e+001
1.282338e+003,3.001892e+001
1.283302e+003,2.780035e+001
1.284266e+003,2.352771e+001
1.285230e+003,2.183624e+001
1.286195e+003,2.315137e+001
1.287159e+003,2.484943e+001
1.288123e+003,2.492950e+001
1.289087e+003,2.397821e+001
1.290052e+003,2.304724e+001
1.291016e+003,2.166992e+001
1.291980e+003,2.107037e+001
1.292944e+003,2.203149e+001
1.293909e+003,2.205878e+001
1.294873e+003,2.005768e+001
1.295837e+003,1.722540e+001
1.296801e+003,1.453693e+001
1.297766e+003,1.233350e+001
1.298730e+003,1.212213e+001
1.299694e+003,1.536444e+001
1.300658e+003,1.912299e+001
1.301622e+003,2.008472e+001
1.302587e+003,1.971576e+001
1.303551e+003,2.043549e+001
1.304515e+003,2.263477e+001
1.305479e+003,2.420343e+001
1.306444e+003,2.298871e+001
1.307408e+003,1.997351e+001
1.308372e+003,1.921777e+001
1.309336e+003,2.174963e+001
1.310301e+003,2.328241e+001
1.311265e+003,2.465302e+001
1.312229e+003,2.413702e+001
1.313193e+003,1.851642e+001
1.314157e+003,1.237286e+001
1.315122e+003,1.108691e+001
1.316086e+003,1.446997e+001
1.317050e+003,1.802319e+001
1.318014e+003,1.898090e+001
1.318979e+003,1.862341e+001
1.319943e+003,1.882428e+001
1.320907e+003,1.972083e+001
1.321871e+003,2.108191e+001
1.322836e+003,2.280194e+001
1.323800e+003,2.362250e+001
1.324764e+003,2.228613e+001
1.325728e+003,2.008044e+001
1.326693e+003,1.909052e+001
1.327657e+003,1.919977e+001
1.328621e+003,1.923547e+001
1.329585e+003,1.985767e+001
1.330549e+003,2.075909e+001
1.331514e+003,2.032111e+001
1.332478e+003,1.963867e+001
1.333442e+003,2.068384e+001
1.334406e+003,2.304297e+001
1.335371e+003,2.426764e+001
1.336335e+003,2.291412e+001
1.337299e+003,2.052625e+001
1.338263e+003,1.999866e+001
1.339228e+003,2.168701e+001
1.340192e+003,2.200262e+001
1.341156e+003,1.948108e+001
1.342120e+003,1.780115e+001
1.343084e+003,1.754834e+001
1.344049e+003,1.762354e+001
1.345013e+003,1.762469e+001
1.345977e+003,1.763837e+001
1.346941e+003,1.750470e+001
1.347906e+003,1.709296e+001
1.348870e+003,1.722382e+001
1.349834e+003,1.920428e+001
1.350798e+003,2.147516e+001
1.351763e+003,2.106689e+001
1.352727e+003,1.857977e+001
1.353691e+003,1.721149e+001
1.354655e+003,1.846136e+001
1.355620e+003,2.014600e+001
1.356584e+003,1.941345e+001
1.357548e+003,1.673712e+001
1.358512e+003,1.542035e+001
1.359476e+003,1.562585e+001
1.360441e+003,1.579504e+001
1.361405e+003,1.613159e+001
1.362369e+003,1.608899e+001
1.363333e+003,1.444867e+001
1.364298e+003,1.274139e+001
1.365262e+003,1.365906e+001
1.366226e+003,1.732068e+001
1.367190e+003,2.076904e+001
1.368155e+003,2.134650e+001
1.369119e+003,2.003894e+001
1.370083e+003,2.004816e+001
1.371047e+003,2.208612e+001
1.372011e+003,2.321222e+001
1.372976e+003,2.280719e+001
1.373940e+003,2.158508e+001
1.374904e+003,1.908948e+001
1.375868e+003,1.669348e+001
1.376833e+003,1.619086e+001
1.377797e+003,1.744574e+001
1.378761e+003,1.893610e+001
1.379725e+003,2.035010e+001
1.380690e+003,2.111212e+001
1.381654e+003,2.039648e+001
1.382618e+003,1.889099e+001
1.383582e+003,1.676984e+001
1.384547e+003,1.440564e+001
1.385511e+003,1.395764e+001
1.386475e+003,1.678778e+001
1.387439e+003,2.049445e+001
1.388403e+003,2.100385e+001
1.389368e+003,1.829401e+001
1.390332e+003,1.780780e+001
1.391296e+003,2.114844e+001
1.392260e+003,2.430591e+001
1.393225e+003,2.782690e+001
1.394189e+003,2.929230e+001
1.395153e+003,2.564948e+001
1.396117e+003,1.976855e+001
1.397082e+003,1.592114e+001
1.398046e+003,1.536725e+001
1.399010e+003,1.648865e+001
1.399974e+003,1.765533e+001
1.400938e+003,1.832373e+001
1.401903e+003,1.780316e+001
1.402867e+003,1.640564e+001
1.403831e+003,1.707202e+001
1.404795e+003,2.020325e+001
1.405760e+003,2.382977e+001
1.406724e+003,2.826874e+001
1.407688e+003,3.095819e+001
1.408652e+003,2.826965e+001
1.409617e+003,2.160706e+001
1.410581e+003,1.740942e+001
1.411545e+003,1.851117e+001
1.412509e+003,2.088593e+001
1.413474e+003,2.010669e+001
1.414438e+003,1.793304e+001
1.415402e+003,1.843372e+001
1.416366e+003,2.147076e+001
1.417330e+003,2.377325e+001
1.418295e+003,2.393042e+001
1.419259e+003,2.351843e+001
1.420223e+003,2.408795e+001
1.421187e+003,2.530664e+001
1.422152e+003,2.666418e+001
1.423116e+003,2.886157e+001
1.424080e+003,3.021234e+001
1.425044e+003,2.837042e+001
1.426009e+003,2.688715e+001
1.426973e+003,2.826550e+001
1.427937e+003,3.016083e+001
1.428901e+003,2.949994e+001
1.429865e+003,2.652655e+001
1.430830e+003,2.364154e+001
1.431794e+003,2.230774e+001
1.432758e+003,2.248273e+001
1.433722e+003,2.466290e+001
1.434687e+003,2.957324e+001
1.435651e+003,3.422528e+001
1.436615e+003,3.828577e+001
1.437579e+003,4.008844e+001
1.438544e+003,3.801044e+001
1.439508e+003,3.544879e+001
1.440472e+003,3.521454e+001
1.441436e+003,3.643396e+001
1.442401e+003,3.675934e+001
1.443365e+003,3.554596e+001
1.444329e+003,3.393347e+001
1.445293e+003,3.270392e+001
1.446257e+003,3.220825e+001
1.447222e+003,3.363580e+001
1.448186e+003,3.632977e+001
1.449150e+003,3.651044e+001
1.450114e+003,3.303369e+001
1.451079e+003,2.989325e+001
1.452043e+003,2.992682e+001
1.453007e+003,3.135541e+001
1.453971e+003,3.128497e+001
1.454936e+003,2.980835e+001
1.455900e+003,2.918945e+001
1.456864e+003,3.029034e+001
1.457828e+003,3.159882e+001
1.458792e+003,3.216412e+001
1.459757e+003,3.216388e+001
1.460721e+003,3.116992e+001
1.461685e+003,2.988995e+001
1.462649e+003,3.034052e+001
1.463614e+003,3.291687e+001
1.464578e+003,3.478314e+001
1.465542e+003,3.308435e+001
1.466506e+003,2.901520e+001
1.467471e+003,2.640649e+001
1.468435e+003,2.575452e+001
1.469399e+003,2.616595e+001
1.470363e+003,2.739771e+001
1.471328e+003,2.916748e+001
1.472292e+003,3.201392e+001
1.473256e+003,3.406824e+001
1.474220e+003,3.407391e+001
1.475184e+003,3.307141e+001
1.476149e+003,3.268951e+001
1.477113e+003,3.323773e+001
1.478077e+003,3.381079e+001
1.479041e+003,3.380737e+001
1.480006e+003,3.381073e+001
1.480970e+003,3.500873e+001
1.481934e+003,3.733722e+001
1.482898e+003,3.951190e+001
1.483863e+003,4.149963e+001
1.484827e+003,4.321112e+001
1.485791e+003,4.517267e+001
1.486755e+003,4.699042e+001
1.487719e+003,4.819104e+001
1.488684e+003,4.852936e+001
1.489648e+003,4.733704e+001
1.490612e+003,4.470105e+001
1.491576e+003,4.374768e+001
1.492541e+003,4.736542e+001
1.493505e+003,5.319922e+001
1.494469e+003,5.547125e+001
1.495433e+003,5.467603e+001
1.496398e+003,5.691595e+001
1.497362e+003,6.430585e+001
1.498326e+003,7.222418e+001
1.499290e+003,7.843866e+001
1.500255e+003,8.358429e+001
1.501219e+003,8.708252e+001
1.502183e+003,8.970520e+001
1.503147e+003,9.663916e+001
1.504111e+003,1.097072e+002
1.505076e+003,1.235309e+002
1.506040e+003,1.352198e+002
1.507004e+003,1.462355e+002
1.507968e+003,1.564534e+002
1.508933e+003,1.676088e+002
1.509897e+003,1.837679e+002
1.510861e+003,2.060606e+002
1.511825e+003,2.311422e+002
1.512790e+003,2.565869e+002
1.513754e+003,2.823353e+002
1.514718e+003,3.090135e+002
1.515682e+003,3.362413e+002
1.516646e+003,3.633622e+002
1.517611e+003,3.921541e+002
1.518575e+003,4.175277e+002
1.519539e+003,4.387706e+002
1.520503e+003,4.560527e+002
1.521468e+003,4.697502e+002
1.522432e+003,4.789045e+002
1.523396e+003,4.820745e+002
1.524360e+003,4.792719e+002
1.525325e+003,4.717308e+002
1.526289e+003,4.603947e+002
1.527253e+003,4.460782e+002
1.528217e+003,4.302763e+002
1.529182e+003,4.133589e+002
1.530146e+003,3.904304e+002
1.531110e+003,3.580430e+002
1.532074e+003,3.250974e+002
1.533039e+003,2.905960e+002
1.534003e+003,2.561011e+002
1.534967e+003,2.217071e+002
1.535931e+003,1.896138e+002
1.536896e+003,1.619371e+002
1.537860e+003,1.388079e+002
1.538824e+003,1.186781e+002
1.539788e+003,1.006542e+002
1.540752e+003,8.637030e+001
1.541717e+003,7.855176e+001
1.542681e+003,7.617712e+001
1.543645e+003,7.118719e+001
1.544609e+003,6.152124e+001
1.545573e+003,5.577100e+001
1.546538e+003,5.638416e+001
1.547502e+003,5.645691e+001
1.548466e+003,5.384406e+001
1.549430e+003,5.021246e+001
1.550395e+003,4.615692e+001
1.551359e+003,4.230511e+001
1.552323e+003,4.065125e+001
1.553287e+003,4.174658e+001
1.554252e+003,4.257568e+001
1.555216e+003,4.032684e+001
1.556180e+003,3.632886e+001
1.557144e+003,3.376025e+001
1.558109e+003,3.283209e+001
1.559073e+003,3.132135e+001
1.560037e+003,2.783728e+001
1.561001e+003,2.541803e+001
1.561966e+003,2.669269e+001
1.562930e+003,2.893591e+001
1.563894e+003,2.901111e+001
1.564858e+003,2.771332e+001
1.565823e+003,2.802185e+001
1.566787e+003,3.028796e+001
1.567751e+003,3.073688e+001
1.568715e+003,2.665674e+001
1.569679e+003,2.221759e+001
1.570644e+003,2.307745e+001
1.571608e+003,2.718970e+001
1.572572e+003,2.892993e+001
1.573536e+003,2.831525e+001
1.574500e+003,2.904608e+001
1.575465e+003,3.376422e+001
1.576429e+003,3.758954e+001
1.577393e+003,3.501013e+001
1.578357e+003,2.920123e+001
1.579322e+003,2.681586e+001
1.580286e+003,2.821936e+001
1.581250e+003,2.984302e+001
1.582214e+003,3.073883e+001
1.583179e+003,3.110675e+001
1.584143e+003,3.098529e+001
1.585107e+003,3.007788e+001
1.586071e+003,2.769653e+001
1.587036e+003,2.504639e+001
1.588000e+003,2.492596e+001
1.588964e+003,2.778339e+001
1.589928e+003,3.105969e+001
1.590893e+003,3.358545e+001
1.591857e+003,3.521539e+001
1.592821e+003,3.527936e+001
1.593785e+003,3.418988e+001
1.594750e+003,3.406506e+001
1.595714e+003,3.514532e+001
1.596678e+003,3.608691e+001
1.597642e+003,3.603735e+001
1.598606e+003,3.627106e+001
1.599571e+003,3.878003e+001
1.600535e+003,4.181616e+001
1.601499e+003,4.269965e+001
1.602463e+003,4.154535e+001
1.603427e+003,4.052271e+001
1.604392e+003,4.056219e+001
1.605356e+003,4.076318e+001
1.606320e+003,4.031268e+001
1.607284e+003,3.932251e+001
1.608249e+003,3.799817e+001
1.609213e+003,3.633990e+001
1.610177e+003,3.429779e+001
1.611141e+003,3.115228e+001
1.612106e+003,2.943262e+001
1.613070e+003,3.187512e+001
1.614034e+003,3.475696e+001
1.614998e+003,3.559161e+001
1.615963e+003,3.495117e+001
1.616927e+003,3.352167e+001
1.617891e+003,3.157843e+001
1.618855e+003,2.997900e+001
1.619820e+003,2.914417e+001
1.620784e+003,2.823285e+001
1.621748e+003,2.632965e+001
1.622712e+003,2.423102e+001
1.623677e+003,2.421008e+001
1.624641e+003,2.684833e+001
1.625605e+003,2.841547e+001
1.626569e+003,2.656366e+001
1.627533e+003,2.430542e+001
1.628498e+003,2.302234e+001
1.629462e+003,2.284674e+001
1.630426e+003,2.444946e+001
1.631390e+003,2.692908e+001
1.632354e+003,2.860168e+001
1.633319e+003,2.900629e+001
1.634283e+003,2.863055e+001
1.635247e+003,2.774115e+001
1.636211e+003,2.634619e+001
1.637176e+003,2.420001e+001
1.638140e+003,2.161450e+001
1.639104e+003,2.123590e+001
1.640068e+003,2.381281e+001
1.641033e+003,2.526825e+001
1.641997e+003,2.362427e+001
1.642961e+003,2.243823e+001
1.643925e+003,2.394434e+001
1.644890e+003,2.625842e+001
1.645854e+003,2.755042e+001
1.646818e+003,2.790576e+001
1.647782e+003,2.824243e+001
1.648747e+003,2.878748e+001
1.649711e+003,2.883246e+001
1.650675e+003,2.785840e+001
1.651639e+003,2.658752e+001
1.652604e+003,2.611798e+001
1.653568e+003,2.622400e+001
1.654532e+003,2.595984e+001
1.655496e+003,2.504779e+001
1.656460e+003,2.464941e+001
1.657425e+003,2.578534e+001
1.658389e+003,2.686456e+001
1.659353e+003,2.743140e+001
1.660317e+003,2.717480e+001
1.661281e+003,2.500745e+001
1.662246e+003,2.166956e+001
1.663210e+003,1.972498e+001
1.664174e+003,2.006763e+001
1.665138e+003,2.042810e+001
1.666103e+003,1.829236e+001
1.667067e+003,1.542456e+001
1.668031e+003,1.624188e+001
1.668995e+003,2.047369e+001
1.669960e+003,2.294476e+001
1.670924e+003,2.322668e+001
1.671888e+003,2.235980e+001
1.672852e+003,1.970551e+001
1.673817e+003,1.693347e+001
1.674781e+003,1.413025e+001
1.675745e+003,1.239642e+001
1.676709e+003,1.378278e+001
1.677674e+003,1.727832e+001
1.678638e+003,1.990106e+001
1.679602e+003,2.070538e+001
1.680566e+003,1.979156e+001
1.681531e+003,1.665942e+001
1.682495e+003,1.308612e+001
1.683459e+003,1.177606e+001
1.684423e+003,1.227899e+001
1.685387e+003,1.317523e+001
1.686352e+003,1.455670e+001
1.687316e+003,1.567346e+001
1.688280e+003,1.672211e+001
1.689244e+003,1.660388e+001
1.690208e+003,1.283972e+001
1.691173e+003,8.418396e+000
1.692137e+003,6.762573e+000
1.693101e+003,7.700317e+000
1.694065e+003,9.763367e+000
1.695030e+003,1.236847e+001
1.695994e+003,1.407306e+001
1.696958e+003,1.387079e+001
1.697922e+003,1.283228e+001
1.698887e+003,1.175867e+001
1.699851e+003,1.111176e+001
1.700815e+003,1.273383e+001
1.701779e+003,1.649847e+001
1.702744e+003,1.795544e+001
1.703708e+003,1.575220e+001
1.704672e+003,1.226923e+001
1.705636e+003,6.964661e+000
1.706601e+003,2.701355e+000
1.707565e+003,6.777039e+000
1.708529e+003,1.602209e+001
1.709493e+003,1.861890e+001
1.710458e+003,1.234503e+001
1.711422e+003,7.303772e+000
1.712386e+003,9.254272e+000
1.713350e+003,1.246869e+001
1.714314e+003,1.184009e+001
1.715279e+003,9.152710e+000
1.716243e+003,7.444641e+000
1.717207e+003,6.953369e+000
1.718171e+003,7.415833e+000
1.719135e+003,8.828796e+000
1.720100e+003,9.495789e+000
1.721064e+003,7.915649e+000
1.722028e+003,5.563232e+000
1.722992e+003,4.872742e+000
1.723957e+003,5.894653e+000
1.724921e+003,6.876282e+000
1.725885e+003,7.305298e+000
1.726849e+003,7.205994e+000
1.727814e+003,6.799805e+000
1.728778e+003,6.845764e+000
1.729742e+003,7.549988e+000
1.730706e+003,8.709534e+000
1.731671e+003,1.050299e+001
1.732635e+003,1.180811e+001
1.733599e+003,1.111884e+001
1.734563e+003,8.643616e+000
1.735528e+003,5.143005e+000
1.736492e+003,8.711548e-001
1.737456e+003,-2.028503e+000
1.738420e+003,-7.401123e-001
1.739385e+003,3.121704e+000
1.740349e+003,4.577820e+000
1.741313e+003,3.342651e+000
1.742277e+003,2.432251e+000
1.743241e+003,2.053040e+000
1.744206e+003,2.204102e+000
1.745170e+003,3.097046e+000
1.746134e+003,3.912231e+000
1.747098e+003,3.885742e+000
1.748063e+003,3.713745e+000
1.749027e+003,4.732422e+000
1.749991e+003,6.371765e+000
1.750955e+003,6.650635e+000
1.751919e+003,4.986755e+000
1.752884e+003,2.743774e+000
1.753848e+003,1.035583e+000
1.754812e+003,-1.221313e-001
1.755776e+003,-2.107544e-001
1.756741e+003,9.771729e-001
1.757705e+003,-3.204346e-002
1.758669e+003,-5.124084e+000
1.759633e+003,-7.644531e+000
1.760598e+003,-5.103210e+000
1.761562e+003,-3.048157e+000
1.762526e+003,-3.356567e+000
1.763490e+003,-3.842590e+000
1.764455e+003,-3.096130e+000
1.765419e+003,-1.307312e+000
1.766383e+003,1.397339e+000
1.767347e+003,4.346985e+000
1.768312e+003,5.833191e+000
1.769276e+003,4.941833e+000
1.770240e+003,2.997620e+000
1.771204e+003,1.656738e+000
1.772168e+003,9.891357e-001
1.773133e+003,3.303833e-001
1.774097e+003,-2.842407e-001
1.775061e+003,-4.165649e-001
1.776025e+003,-4.199829e-001
1.776990e+003,5.671387e-001
1.777954e+003,3.893250e+000
1.778918e+003,7.119629e+000
1.779882e+003,8.757996e+000
1.780846e+003,8.401855e+000
1.781811e+003,4.154663e+000
1.782775e+003,-1.958130e+000
1.783739e+003,-2.712891e+000
1.784703e+003,3.552002e+000
1.785668e+003,8.782898e+000
1.786632e+003,9.083923e+000
1.787596e+003,7.295532e+000
1.788560e+003,5.173828e+000
1.789525e+003,3.349121e+000
1.790489e+003,2.425842e+000
1.791453e+003,1.964417e+000
1.792417e+003,8.939209e-001
1.793382e+003,-8.986206e-001
1.794346e+003,-2.490234e+000
1.795310e+003,-3.477112e+000
1.796274e+003,-3.735535e+000
1.797239e+003,-2.826843e+000
1.798203e+003,-6.818848e-001
1.799167e+003,1.778381e+000
1.800131e+003,4.150879e+000
1.801095e+003,4.665222e+000
1.802060e+003,2.415710e+000
1.803024e+003,1.282166e+000
1.803988e+003,2.237183e+000
1.804952e+003,3.143799e+000
1.805917e+003,2.985840e+000
1.806881e+003,2.278259e+000
1.807845e+003,1.538452e+000
1.808809e+003,9.786377e-001
1.809773e+003,5.552979e-001
1.810738e+003,3.435669e-001
1.811702e+003,9.200439e-001
1.812666e+003,2.568420e+000
1.813630e+003,3.973267e+000
1.814595e+003,3.245117e+000
1.815559e+003,8.670044e-001
1.816523e+003,-8.670044e-001
1.817487e+003,-1.863953e+000
1.818452e+003,-2.101929e+000
1.819416e+003,-7.486572e-001
1.820380e+003,-1.892090e-001
1.821344e+003,-2.384338e+000
1.822309e+003,-4.333191e+000
1.823273e+003,-3.192444e+000
1.824237e+003,-1.321167e+000
1.825201e+003,-1.851929e+000
1.826166e+003,-3.859924e+000
1.827130e+003,-4.363708e+000
1.828094e+003,-2.982300e+000
1.829058e+003,-1.123108e+000
1.830022e+003,1.627136e+000
1.830987e+003,2.942200e+000
1.831951e+003,-5.854492e-001
1.832915e+003,-5.629578e+000
1.833879e+003,-7.591675e+000
1.834844e+003,-6.839661e+000
1.835808e+003,-4.464844e+000
1.836772e+003,-1.022034e+000
1.837736e+003,5.861816e-001
1.838700e+003,-1.136108e+000
1.839665e+003,-3.403748e+000
1.840629e+003,-3.484741e+000
1.841593e+003,-2.368774e+000
1.842557e+003,-2.452209e+000
1.843522e+003,-3.729553e+000
1.844486e+003,-4.395264e+000
1.845450e+003,-3.767639e+000
1.846414e+003,-2.966248e+000
1.847379e+003,-2.081482e+000
1.848343e+003,-2.031189e+000
1.849307e+003,-3.479004e+000
1.850271e+003,-5.047485e+000
1.851236e+003,-6.057312e+000
1.852200e+003,-6.051575e+000
1.853164e+003,-4.263855e+000
1.854128e+003,-1.688538e+000
1.855093e+003,-5.087891e-001
1.856057e+003,-1.183655e+000
1.857021e+003,-2.185181e+000
1.857985e+003,-2.365784e+000
1.858949e+003,-2.665161e+000
1.859914e+003,-5.096924e+000
1.860878e+003,-8.978455e+000
1.861842e+003,-1.123492e+001
1.862806e+003,-1.196979e+001
1.863771e+003,-9.857483e+000
1.864735e+003,-3.727234e+000
1.865699e+003,7.672119e-002
1.866663e+003,-2.047485e+000
1.867627e+003,-5.067017e+000
1.868592e+003,-4.681030e+000
1.869556e+003,-2.808838e+000
1.870520e+003,-2.621277e+000
1.871484e+003,-3.858643e+000
1.872449e+003,-4.332275e+000
1.873413e+003,-2.404663e+000
1.874377e+003,-1.373230e+000
1.875341e+003,-5.617188e+000
1.876306e+003,-8.216125e+000
1.877270e+003,-3.370972e+000
1.878234e+003,2.744324e+000
1.879198e+003,3.919556e+000
1.880163e+003,1.848511e+000
1.881127e+003,2.417603e-001
1.882091e+003,-2.508545e-001
1.883055e+003,-8.836670e-001
1.884020e+003,-2.147095e+000
1.884984e+003,-2.869324e+000
1.885948e+003,-1.908752e+000
1.886912e+003,-5.089722e-001
1.887876e+003,-1.392883e+000
1.888841e+003,-4.197754e+000
1.889805e+003,-4.672852e+000
1.890769e+003,-2.321960e+000
1.891733e+003,-2.741089e-001
1.892698e+003,9.971313e-001
1.893662e+003,1.785217e+000
1.894626e+003,2.845764e+000
1.895590e+003,2.810608e+000
1.896554e+003,-7.273560e-001
1.897519e+003,-4.479187e+000
1.898483e+003,-4.546021e+000
1.899447e+003,-1.884216e+000
1.900411e+003,1.058167e+000
1.901376e+003,4.099182e+000
1.902340e+003,5.851624e+000
1.903304e+003,5.476257e+000
1.904268e+003,4.071228e+000
1.905233e+003,1.236816e+000
1.906197e+003,-1.040649e+000
1.907161e+003,1.264648e-001
1.908125e+003,3.071228e+000
1.909090e+003,4.181213e+000
1.910054e+003,3.386963e+000
1.911018e+003,3.641174e+000
1.911982e+003,5.763428e+000
1.912947e+003,6.243469e+000
1.913911e+003,2.396423e+000
1.914875e+003,-2.297974e+000
1.915839e+003,-2.407288e+000
1.916803e+003,8.761597e-001
1.917768e+003,2.999756e+000
1.918732e+003,4.241943e+000
1.919696e+003,3.808838e+000
1.920660e+003,6.891479e-001
1.921625e+003,-5.268555e-001
1.922589e+003,2.301208e+000
1.923553e+003,4.838684e+000
1.924517e+003,4.696533e+000
1.925481e+003,3.461121e+000
1.926446e+003,2.088440e+000
1.927410e+003,8.292236e-001
1.928374e+003,-1.145020e-001
1.929338e+003,-8.685303e-001
1.930303e+003,-9.962769e-001
1.931267e+003,3.366089e-001
1.932231e+003,1.640320e+000
1.933195e+003,1.710938e+000
1.934160e+003,1.423584e+000
1.935124e+003,1.163025e+000
1.936088e+003,9.156494e-001
1.937052e+003,1.353577e+000
1.938017e+003,2.067749e+000
1.938981e+003,1.822693e+000
1.939945e+003,4.219360e-001
1.940909e+003,-1.782043e+000
1.941874e+003,-4.553345e+000
1.942838e+003,-6.990845e+000
1.943802e+003,-8.041748e+000
1.944766e+003,-7.302917e+000
1.945730e+003,-4.112549e+000
1.946695e+003,7.827148e-001
1.947659e+003,2.843933e+000
1.948623e+003,1.736694e+000
1.949587e+003,4.918213e-001
1.950552e+003,-7.335815e-001
1.951516e+003,-5.341187e-001
1.952480e+003,2.419861e+000
1.953444e+003,5.002075e+000
1.954408e+003,4.625977e+000
1.955373e+003,2.678406e+000
1.956337e+003,1.570862e+000
1.957301e+003,1.195435e+000
1.958265e+003,-5.415649e-001
1.959230e+003,-4.038147e+000
1.960194e+003,-5.346130e+000
1.961158e+003,-2.771362e+000
1.962122e+003,-8.555908e-001
1.963087e+003,-1.152466e+000
1.964051e+003,-1.743835e+000
1.965015e+003,-1.594238e+000
1.965979e+003,-5.349731e-001
1.966944e+003,2.179138e+000
1.967908e+003,4.930054e+000
1.968872e+003,4.967590e+000
1.969836e+003,2.477234e+000
1.970801e+003,-2.405396e-001
1.971765e+003,-2.070313e+000
1.972729e+003,-2.730286e+000
1.973693e+003,-1.990417e+000
1.974657e+003,-8.666992e-002
1.975622e+003,3.492981e+000
1.976586e+003,7.429260e+000
1.977550e+003,7.874756e+000
1.978514e+003,5.639526e+000
1.979479e+003,5.474915e+000
1.980443e+003,7.814209e+000
1.981407e+003,8.329590e+000
1.982371e+003,5.441162e+000
1.983335e+003,2.371216e+000
1.984300e+003,1.154358e+000
1.985264e+003,1.937744e+000
1.986228e+003,5.786865e+000
1.987192e+003,1.139697e+001
1.988157e+003,1.175104e+001
1.989121e+003,5.635803e+000
1.990085e+003,1.158020e+000
1.991049e+003,-1.511169e+000
1.992014e+003,-2.497375e+000
1.992978e+003,-1.223083e+000
1.993942e+003,5.859985e-001
1.994906e+003,3.455933e+000
1.995871e+003,5.543030e+000
1.996835e+003,4.695007e+000
1.997799e+003,2.894653e+000
1.998763e+003,2.819885e+000
1.999728e+003,4.254028e+000
