5.003444e+002,2.726740e+001
5.013087e+002,2.655304e+001
5.022729e+002,2.648535e+001
5.032371e+002,2.731799e+001
5.042014e+002,2.882214e+001
5.051656e+002,3.088281e+001
5.061298e+002,3.231311e+001
5.070941e+002,3.186285e+001
5.080583e+002,2.888019e+001
5.090225e+002,2.662299e+001
5.099868e+002,2.516479e+001
5.109510e+002,2.404846e+001
5.119152e+002,2.314087e+001
5.128795e+002,2.246472e+001
5.138437e+002,2.189282e+001
5.148079e+002,2.065967e+001
5.157722e+002,2.030664e+001
5.167364e+002,2.246295e+001
5.177006e+002,2.652167e+001
5.186649e+002,2.951666e+001
5.196291e+002,2.638391e+001
5.205933e+002,2.177374e+001
5.215576e+002,2.123132e+001
5.225218e+002,2.467523e+001
5.234860e+002,2.879944e+001
5.244503e+002,2.788684e+001
5.254145e+002,2.021490e+001
5.263787e+002,1.601141e+001
5.273430e+002,1.693854e+001
5.283072e+002,2.016846e+001
5.292714e+002,2.167291e+001
5.302357e+002,1.983179e+001
5.311999e+002,1.870129e+001
5.321641e+002,2.040912e+001
5.331284e+002,2.244263e+001
5.340926e+002,2.237854e+001
5.350568e+002,1.903162e+001
5.360211e+002,1.514447e+001
5.369853e+002,1.320313e+001
5.379495e+002,1.261212e+001
5.389138e+002,1.319916e+001
5.398780e+002,1.468420e+001
5.408422e+002,1.659399e+001
5.418065e+002,1.787836e+001
5.427707e+002,1.857745e+001
5.437349e+002,1.882831e+001
5.446992e+002,1.860706e+001
5.456634e+002,1.787567e+001
5.466276e+002,1.659595e+001
5.475919e+002,1.387360e+001
5.485561e+002,1.199573e+001
5.495203e+002,1.123602e+001
5.504846e+002,1.103992e+001
5.514488e+002,1.072986e+001
5.524130e+002,1.016577e+001
5.533773e+002,9.819214e+000
5.543415e+002,1.001837e+001
5.553057e+002,1.045062e+001
5.562700e+002,1.052301e+001
5.572342e+002,9.848877e+000
5.581984e+002,9.159119e+000
5.591627e+002,1.124548e+001
5.601269e+002,1.506329e+001
5.610911e+002,1.802576e+001
5.620554e+002,1.868323e+001
5.630196e+002,1.713574e+001
5.639838e+002,1.533600e+001
5.649481e+002,1.275189e+001
5.659123e+002,1.071771e+001
5.668765e+002,1.051715e+001
5.678408e+002,1.151123e+001
5.688050e+002,1.127948e+001
5.697692e+002,7.617737e+000
5.707335e+002,3.823853e+000
5.716977e+002,2.945557e-001
5.726619e+002,-2.316101e+000
5.736262e+002,-3.122253e+000
5.745904e+002,-1.296387e+000
5.755546e+002,2.007813e+000
5.765189e+002,5.460938e+000
5.774831e+002,8.265808e+000
5.784473e+002,8.926331e+000
5.794116e+002,6.570313e+000
5.803758e+002,1.838074e+000
5.813400e+002,4.750977e-001
5.823043e+002,2.956604e+000
5.832685e+002,5.073425e+000
5.842327e+002,5.672668e+000
5.851970e+002,5.140503e+000
5.861612e+002,4.651917e+000
5.871254e+002,3.819824e+000
5.880897e+002,3.148438e+000
5.890539e+002,2.201660e+000
5.900181e+002,1.401489e+000
5.909824e+002,1.761536e+000
5.919466e+002,4.661682e+000
5.929108e+002,7.516235e+000
5.938751e+002,7.225220e+000
5.948393e+002,5.176636e+000
5.958035e+002,3.528809e+000
5.967678e+002,3.901123e+000
5.977320e+002,6.061401e+000
5.986962e+002,7.484863e+000
5.996605e+002,8.032288e+000
6.006247e+002,7.445984e+000
6.015889e+002,4.834045e+000
6.025532e+002,4.843750e-001
6.035174e+002,-1.973022e+000
6.044816e+002,-3.744507e-001
6.054459e+002,1.088318e+000
6.064101e+002,1.693359e+000
6.073743e+002,1.758423e+000
6.083386e+002,2.075867e+000
6.093028e+002,3.298950e+000
6.102670e+002,4.536926e+000
6.112313e+002,5.154663e+000
6.121955e+002,5.255981e+000
6.131597e+002,4.796387e+000
6.141240e+002,3.764771e+000
6.150882e+002,2.465820e+000
6.160524e+002,2.699951e+000
6.170167e+002,4.334900e+000
6.179809e+002,5.976563e+000
6.189451e+002,6.819885e+000
6.199094e+002,6.820435e+000
6.208736e+002,6.820801e+000
6.218378e+002,8.343689e+000
6.228021e+002,8.645569e+000
6.237663e+002,6.469910e+000
6.247305e+002,3.285461e+000
6.256948e+002,1.353821e+000
6.266590e+002,1.585205e+000
6.276232e+002,2.364929e+000
6.285875e+002,3.336121e+000
6.295517e+002,4.266418e+000
6.305159e+002,4.654724e+000
6.314802e+002,4.185669e+000
6.324444e+002,3.178284e+000
6.334086e+002,3.245483e+000
6.343729e+002,4.181396e+000
6.353371e+002,4.589050e+000
6.363013e+002,3.831604e+000
6.372656e+002,2.129944e+000
6.382298e+002,5.075073e-001
6.391940e+002,-2.147583e+000
6.401583e+002,-3.229004e+000
6.411225e+002,-6.257324e-001
6.420867e+002,3.157715e+000
6.430510e+002,4.726868e+000
6.440152e+002,2.332458e+000
6.449794e+002,-5.136108e-001
6.459437e+002,-1.790405e+000
6.469079e+002,-2.738586e+000
6.478721e+002,-4.532898e+000
6.488364e+002,-7.345886e+000
6.498006e+002,-9.897583e+000
6.507648e+002,-9.661316e+000
6.517291e+002,-7.644714e+000
6.526933e+002,-6.039429e+000
6.536575e+002,-5.289673e+000
6.546218e+002,-4.838989e+000
6.555860e+002,-3.510620e+000
6.565502e+002,-3.185425e-001
6.575145e+002,1.392029e+000
6.584787e+002,1.339417e+000
6.594429e+002,3.241577e-001
6.604072e+002,-1.635681e+000
6.613714e+002,-4.778992e+000
6.623356e+002,-6.324219e+000
6.632999e+002,-3.707092e+000
6.642641e+002,-6.757202e-001
6.652283e+002,1.114258e+000
6.661926e+002,1.658569e+000
6.671568e+002,2.160828e+000
6.681210e+002,4.177490e+000
6.690853e+002,6.496399e+000
6.700495e+002,6.372925e+000
6.710137e+002,3.890991e+000
6.719780e+002,7.191162e-001
6.729422e+002,-1.489868e+000
6.739064e+002,-2.732056e+000
6.748707e+002,-3.501587e+000
6.758349e+002,-3.922058e+000
6.767991e+002,-4.039063e+000
6.777634e+002,-3.338623e+000
6.787276e+002,-1.781860e+000
6.796918e+002,-4.050903e-001
6.806561e+002,-5.072021e-002
6.816203e+002,-1.096802e-001
6.825845e+002,-5.875244e-001
6.835488e+002,-1.231018e+000
6.845130e+002,-1.661743e+000
6.854772e+002,-1.528503e+000
6.864415e+002,-8.479614e-001
6.874057e+002,-9.783936e-002
6.883699e+002,3.687134e-001
6.893342e+002,5.853882e-001
6.902984e+002,7.384644e-001
6.912626e+002,6.927490e-001
6.922269e+002,-1.179260e+000
6.931911e+002,-8.120300e+000
6.941553e+002,-1.144287e+001
6.951196e+002,-8.834290e+000
6.960838e+002,-3.332214e+000
6.970480e+002,5.029297e-001
6.980123e+002,1.353943e+000
6.989765e+002,1.888245e+000
6.999407e+002,3.259766e+000
7.009050e+002,4.768066e+000
7.018692e+002,6.230408e+000
7.028334e+002,7.342041e+000
7.037977e+002,7.237671e+000
7.047619e+002,3.483215e+000
7.057261e+002,-1.727966e+000
7.066904e+002,-3.958557e+000
7.076546e+002,-2.515320e+000
7.086188e+002,2.178345e-001
7.095831e+002,3.383179e-001
7.105473e+002,-3.871277e+000
7.115115e+002,-5.721863e+000
7.124758e+002,-4.405212e+000
7.134400e+002,-2.305420e+000
7.144042e+002,3.918457e-002
7.153685e+002,2.570190e+000
7.163327e+002,3.404907e+000
7.172969e+002,-8.430176e-001
7.182612e+002,-4.639587e+000
7.192254e+002,-5.480103e+000
7.201896e+002,-4.211365e+000
7.211539e+002,-2.947449e+000
7.221181e+002,-3.441406e+000
7.230823e+002,-4.835876e+000
7.240466e+002,-4.541077e+000
7.250108e+002,-2.719177e+000
7.259750e+002,-9.087524e-001
7.269393e+002,-2.426147e-001
7.279035e+002,-9.634399e-001
7.288677e+002,-2.318848e+000
7.298320e+002,-4.809204e+000
7.307962e+002,-5.955139e+000
7.317604e+002,-4.678101e+000
7.327247e+002,-2.244446e+000
7.336889e+002,-6.456299e-001
7.346531e+002,-9.804077e-001
7.356174e+002,-2.196045e+000
7.365816e+002,-3.458862e+000
7.375458e+002,-4.264771e+000
7.385101e+002,-3.842712e+000
7.394743e+002,-2.300659e+000
7.404385e+002,-9.483032e-001
7.414028e+002,-2.377808e+000
7.423670e+002,-6.307678e+000
7.433312e+002,-8.336914e+000
7.442955e+002,-7.665405e+000
7.452597e+002,-4.976563e+000
7.462239e+002,-6.945801e-001
7.471882e+002,6.079102e+000
7.481524e+002,9.525513e+000
7.491166e+002,7.151733e+000
7.500809e+002,4.039185e+000
7.510451e+002,1.837708e+000
7.520093e+002,5.000000e-001
7.529736e+002,-8.115845e-001
7.539378e+002,-2.380859e+000
7.549020e+002,-3.217896e+000
7.558663e+002,-2.983459e+000
7.568306e+002,-1.796204e+000
7.577948e+002,3.651123e-001
7.587590e+002,3.314087e+000
7.597233e+002,6.338013e+000
7.606875e+002,8.110596e+000
7.616517e+002,8.940369e+000
7.626160e+002,8.052979e+000
7.635802e+002,4.521729e+000
7.645444e+002,1.489258e-002
7.655087e+002,-1.834595e+000
7.664729e+002,7.099609e-001
7.674371e+002,1.953491e+000
7.684014e+002,6.936035e-001
7.693656e+002,-1.025757e+000
7.703298e+002,-2.140198e+000
7.712941e+002,-2.362061e+000
7.722583e+002,-1.644348e+000
7.732225e+002,7.884521e-001
7.741868e+002,3.498108e+000
7.751510e+002,5.610901e+000
7.761152e+002,7.032898e+000
7.770795e+002,7.798035e+000
7.780437e+002,7.885315e+000
7.790079e+002,7.214905e+000
7.799722e+002,5.364563e+000
7.809364e+002,2.046082e+000
7.819006e+002,-2.772217e-001
7.828649e+002,3.511353e-001
7.838291e+002,3.059631e+000
7.847933e+002,4.327515e+000
7.857576e+002,2.785767e+000
7.867218e+002,7.851563e-001
7.876860e+002,-2.088806e+000
7.886503e+002,-4.006409e+000
7.896145e+002,-2.844116e+000
7.905787e+002,1.684631e+000
7.915430e+002,6.577148e+000
7.925072e+002,8.639282e+000
7.934714e+002,8.534851e+000
7.944357e+002,6.719238e+000
7.953999e+002,3.815308e+000
7.963641e+002,1.016602e+000
7.973284e+002,-4.697266e-001
7.982926e+002,-5.482178e-001
7.992568e+002,-7.615356e-001
8.002211e+002,-1.868164e+000
8.011853e+002,-3.250427e+000
8.021495e+002,-4.348877e+000
8.031138e+002,-4.664368e+000
8.040780e+002,-3.832764e+000
8.050422e+002,-1.650146e+000
8.060065e+002,5.550537e-001
8.069707e+002,2.681030e+000
8.079349e+002,4.050110e+000
8.088992e+002,3.941284e+000
8.098634e+002,2.345398e+000
8.108276e+002,3.166504e-001
8.117919e+002,-1.138916e+000
8.127561e+002,-2.556702e+000
8.137203e+002,-4.105042e+000
8.146846e+002,-5.429871e+000
8.156488e+002,-5.739075e+000
8.166130e+002,-4.172119e+000
8.175773e+002,-3.995972e-001
8.185415e+002,2.773254e+000
8.195057e+002,5.611877e+000
8.204700e+002,7.106873e+000
8.214342e+002,5.950378e+000
8.223984e+002,3.200073e+000
8.233627e+002,1.713318e+000
8.243269e+002,3.151062e+000
8.252911e+002,4.896301e+000
8.262554e+002,5.406250e+000
8.272196e+002,5.286560e+000
8.281838e+002,5.215942e+000
8.291481e+002,5.370544e+000
8.301123e+002,5.181824e+000
8.310765e+002,3.367676e+000
8.320408e+002,1.209106e-001
8.330050e+002,-1.311646e+000
8.339692e+002,-3.132324e-001
8.349335e+002,1.404053e+000
8.358977e+002,2.295288e+000
8.368619e+002,2.466553e+000
8.378262e+002,2.468079e+000
8.387904e+002,8.176880e-001
8.397546e+002,2.081299e-001
8.407189e+002,2.312500e+000
8.416831e+002,5.744446e+000
8.426473e+002,7.923584e+000
8.436116e+002,7.487488e+000
8.445758e+002,6.772339e+000
8.455400e+002,8.360596e+000
8.465043e+002,1.037061e+001
8.474685e+002,1.101068e+001
8.484327e+002,1.010443e+001
8.493970e+002,8.779785e+000
8.503612e+002,8.516785e+000
8.513254e+002,9.389282e+000
8.522897e+002,9.734985e+000
8.532539e+002,9.256531e+000
8.542181e+002,8.296753e+000
8.551824e+002,6.942627e+000
8.561466e+002,5.686340e+000
8.571108e+002,6.015808e+000
8.580751e+002,8.760620e+000
8.590393e+002,1.081049e+001
8.600035e+002,1.144629e+001
8.609678e+002,1.135107e+001
8.619320e+002,1.104120e+001
8.628962e+002,1.075372e+001
8.638605e+002,1.076532e+001
8.648247e+002,1.209625e+001
8.657889e+002,1.382446e+001
8.667532e+002,1.377423e+001
8.677174e+002,1.166956e+001
8.686816e+002,9.269653e+000
8.696459e+002,8.612244e+000
8.706101e+002,1.000287e+001
8.715743e+002,1.231689e+001
8.725386e+002,1.774512e+001
8.735028e+002,2.135883e+001
8.744670e+002,2.017365e+001
8.754313e+002,1.626044e+001
8.763955e+002,1.399976e+001
8.773597e+002,1.539087e+001
8.783240e+002,1.717206e+001
8.792882e+002,1.655566e+001
8.802524e+002,1.518060e+001
8.812167e+002,1.469952e+001
8.821809e+002,1.529584e+001
8.831451e+002,1.576971e+001
8.841094e+002,1.449847e+001
8.850736e+002,1.191754e+001
8.860378e+002,1.207465e+001
8.870021e+002,1.530560e+001
8.879663e+002,1.883673e+001
8.889305e+002,2.124835e+001
8.898948e+002,2.254388e+001
8.908590e+002,2.316986e+001
8.918232e+002,2.294800e+001
8.927875e+002,2.291870e+001
8.937517e+002,2.294293e+001
8.947159e+002,2.348926e+001
8.956802e+002,2.525330e+001
8.966444e+002,2.790930e+001
8.976086e+002,2.974768e+001
8.985729e+002,2.921808e+001
8.995371e+002,2.720905e+001
9.005013e+002,2.440308e+001
9.014656e+002,2.134241e+001
9.024298e+002,1.958624e+001
9.033940e+002,2.021960e+001
9.043583e+002,2.270313e+001
9.053225e+002,2.473175e+001
9.062867e+002,2.616168e+001
9.072510e+002,2.671008e+001
9.082152e+002,2.655975e+001
9.091794e+002,2.611090e+001
9.101437e+002,2.529590e+001
9.111079e+002,2.405255e+001
9.120721e+002,2.371710e+001
9.130364e+002,2.633490e+001
9.140006e+002,2.842303e+001
9.149648e+002,2.769434e+001
9.159291e+002,2.525708e+001
9.168933e+002,2.328058e+001
9.178575e+002,2.313904e+001
9.188218e+002,2.417450e+001
9.197860e+002,2.486285e+001
9.207502e+002,2.509503e+001
9.217145e+002,2.452332e+001
9.226787e+002,2.317413e+001
9.236429e+002,2.166412e+001
9.246072e+002,2.041595e+001
9.255714e+002,1.912787e+001
9.265356e+002,1.839709e+001
9.274999e+002,1.760614e+001
9.284641e+002,1.786505e+001
9.294283e+002,2.160474e+001
9.303926e+002,2.647632e+001
9.313568e+002,2.781714e+001
9.323210e+002,2.296887e+001
9.332853e+002,1.642737e+001
9.342495e+002,1.601099e+001
9.352137e+002,1.865283e+001
9.361780e+002,2.036804e+001
9.371422e+002,2.050647e+001
9.381064e+002,2.026636e+001
9.390707e+002,2.101862e+001
9.400349e+002,2.274890e+001
9.409991e+002,2.315076e+001
9.419634e+002,2.049701e+001
9.429276e+002,1.873114e+001
9.438918e+002,1.973492e+001
9.448561e+002,2.212860e+001
9.458203e+002,2.353357e+001
9.467845e+002,2.328253e+001
9.477488e+002,2.268945e+001
9.487130e+002,2.184973e+001
9.496772e+002,2.155670e+001
9.506415e+002,2.272296e+001
9.516057e+002,2.521289e+001
9.525699e+002,2.835535e+001
9.535342e+002,3.152405e+001
9.544984e+002,3.432452e+001
9.554626e+002,3.388654e+001
9.564269e+002,2.994507e+001
9.573911e+002,2.718408e+001
9.583553e+002,2.724054e+001
9.593196e+002,2.880316e+001
9.602838e+002,2.995917e+001
9.612480e+002,3.059613e+001
9.622123e+002,3.044525e+001
9.631765e+002,2.892346e+001
9.641407e+002,2.736591e+001
9.651050e+002,2.644440e+001
9.660692e+002,2.574567e+001
9.670334e+002,2.446796e+001
9.679977e+002,2.228668e+001
9.689619e+002,1.996637e+001
9.699261e+002,1.774200e+001
9.708904e+002,1.585846e+001
9.718546e+002,1.687720e+001
9.728188e+002,2.169897e+001
9.737831e+002,2.756012e+001
9.747473e+002,3.086383e+001
9.757115e+002,3.116937e+001
9.766758e+002,3.189252e+001
9.776400e+002,3.528247e+001
9.786042e+002,3.690002e+001
9.795685e+002,3.400006e+001
9.805327e+002,2.897876e+001
9.814969e+002,2.546680e+001
9.824612e+002,2.489417e+001
9.834254e+002,2.499689e+001
9.843896e+002,2.252246e+001
9.853539e+002,1.960590e+001
9.863181e+002,1.897516e+001
9.872823e+002,2.027832e+001
9.882466e+002,2.168152e+001
9.892108e+002,2.194983e+001
9.901750e+002,2.173047e+001
9.911393e+002,2.238409e+001
9.921035e+002,2.289191e+001
9.930677e+002,2.419989e+001
9.940320e+002,2.694135e+001
9.949962e+002,3.069995e+001
9.959604e+002,3.566949e+001
9.969247e+002,4.176404e+001
9.978889e+002,4.669360e+001
9.988531e+002,4.783612e+001
9.998174e+002,4.831073e+001
1.000782e+003,5.137390e+001
1.001746e+003,5.519049e+001
1.002710e+003,5.631696e+001
1.003674e+003,5.349908e+001
1.004639e+003,4.924994e+001
1.005603e+003,4.809827e+001
1.006567e+003,5.028662e+001
1.007531e+003,5.148999e+001
1.008495e+003,5.136346e+001
1.009460e+003,5.113708e+001
1.010424e+003,5.192889e+001
1.011388e+003,5.341351e+001
1.012352e+003,5.389795e+001
1.013317e+003,5.272754e+001
1.014281e+003,5.094525e+001
1.015245e+003,4.847882e+001
1.016209e+003,4.571295e+001
1.017174e+003,4.331506e+001
1.018138e+003,4.111163e+001
1.019102e+003,3.807874e+001
1.020066e+003,3.332361e+001
1.021031e+003,2.786859e+001
1.021995e+003,2.403088e+001
1.022959e+003,2.119464e+001
1.023923e+003,1.859198e+001
1.024887e+003,1.597266e+001
1.025852e+003,1.332184e+001
1.026816e+003,1.073480e+001
1.027780e+003,8.446533e+000
1.028744e+003,6.393555e+000
1.029709e+003,3.745178e+000
1.030673e+003,2.139282e+000
1.031637e+003,2.994995e+000
1.032601e+003,4.610107e+000
1.033566e+003,4.255798e+000
1.034530e+003,1.170654e+000
1.035494e+003,-1.391602e+000
1.036458e+003,8.521118e-001
1.037422e+003,5.286499e+000
1.038387e+003,7.357727e+000
1.039351e+003,7.050415e+000
1.040315e+003,6.935608e+000
1.041279e+003,9.212769e+000
1.042244e+003,1.324976e+001
1.043208e+003,1.516052e+001
1.044172e+003,1.318445e+001
1.045136e+003,1.118909e+001
1.046101e+003,9.509949e+000
1.047065e+003,7.943359e+000
1.048029e+003,5.994263e+000
1.048993e+003,3.849731e+000
1.049958e+003,2.471252e+000
1.050922e+003,2.530884e+000
1.051886e+003,3.523743e+000
1.052850e+003,5.285767e+000
1.053814e+003,7.256470e+000
1.054779e+003,8.776917e+000
1.055743e+003,9.615540e+000
1.056707e+003,9.789124e+000
1.057671e+003,9.321167e+000
1.058636e+003,8.137390e+000
1.059600e+003,6.744995e+000
1.060564e+003,4.352173e+000
1.061528e+003,3.733398e+000
1.062493e+003,6.345215e+000
1.063457e+003,9.565491e+000
1.064421e+003,1.046783e+001
1.065385e+003,8.909912e+000
1.066349e+003,7.719299e+000
1.067314e+003,8.502014e+000
1.068278e+003,9.959473e+000
1.069242e+003,1.194763e+001
1.070206e+003,1.384399e+001
1.071171e+003,1.430469e+001
1.072135e+003,1.278491e+001
1.073099e+003,1.038763e+001
1.074063e+003,9.286194e+000
1.075028e+003,9.800415e+000
1.075992e+003,9.158264e+000
1.076956e+003,6.086975e+000
1.077920e+003,3.604370e+000
1.078885e+003,3.550964e+000
1.079849e+003,4.995789e+000
1.080813e+003,5.843628e+000
1.081777e+003,5.614990e+000
1.082741e+003,6.218384e+000
1.083706e+003,8.952637e+000
1.084670e+003,1.182178e+001
1.085634e+003,1.447278e+001
1.086598e+003,1.627075e+001
1.087563e+003,1.617059e+001
1.088527e+003,1.386157e+001
1.089491e+003,1.066943e+001
1.090455e+003,8.693481e+000
1.091420e+003,7.830017e+000
1.092384e+003,6.629883e+000
1.093348e+003,4.515869e+000
1.094312e+003,2.595886e+000
1.095276e+003,1.822998e+000
1.096241e+003,2.129395e+000
1.097205e+003,2.759460e+000
1.098169e+003,3.468933e+000
1.099133e+003,4.195435e+000
1.100098e+003,5.971985e+000
1.101062e+003,7.125244e+000
1.102026e+003,6.007629e+000
1.102990e+003,3.442993e+000
1.103955e+003,1.084534e+000
1.104919e+003,-9.362793e-002
1.105883e+003,7.879639e-002
1.106847e+003,2.424805e+000
1.107812e+003,6.959717e+000
1.108776e+003,1.139600e+001
1.109740e+003,1.649115e+001
1.110704e+003,1.975891e+001
1.111668e+003,1.898285e+001
1.112633e+003,1.520282e+001
1.113597e+003,1.166516e+001
1.114561e+003,7.454590e+000
1.115525e+003,5.803162e+000
1.116490e+003,8.969421e+000
1.117454e+003,1.326904e+001
1.118418e+003,1.726648e+001
1.119382e+003,2.063306e+001
1.120347e+003,2.323218e+001
1.121311e+003,2.471613e+001
1.122275e+003,2.470337e+001
1.123239e+003,2.272699e+001
1.124203e+003,1.954852e+001
1.125168e+003,1.896826e+001
1.126132e+003,2.209241e+001
1.127096e+003,2.596613e+001
1.128060e+003,2.833588e+001
1.129025e+003,2.932770e+001
1.129989e+003,2.993579e+001
1.130953e+003,2.953162e+001
1.131917e+003,3.001849e+001
1.132882e+003,3.260089e+001
1.133846e+003,3.568188e+001
1.134810e+003,3.835724e+001
1.135774e+003,4.075256e+001
1.136739e+003,4.328564e+001
1.137703e+003,4.617889e+001
1.138667e+003,4.956970e+001
1.139631e+003,5.380463e+001
1.140595e+003,5.885889e+001
1.141560e+003,6.468689e+001
1.142524e+003,7.147321e+001
1.143488e+003,7.939459e+001
1.144452e+003,8.825305e+001
1.145417e+003,9.820294e+001
1.146381e+003,1.101597e+002
1.147345e+003,1.251019e+002
1.148309e+003,1.390869e+002
1.149274e+003,1.503354e+002
1.150238e+003,1.616617e+002
1.151202e+003,1.750831e+002
1.152166e+003,1.898785e+002
1.153130e+003,2.054481e+002
1.154095e+003,2.207626e+002
1.155059e+003,2.318249e+002
1.156023e+003,2.329355e+002
1.156987e+003,2.248428e+002
1.157952e+003,2.156084e+002
1.158916e+003,2.057487e+002
1.159880e+003,1.956635e+002
1.160844e+003,1.852336e+002
1.161809e+003,1.736472e+002
1.162773e+003,1.596612e+002
1.163737e+003,1.425361e+002
1.164701e+003,1.265569e+002
1.165666e+003,1.116827e+002
1.166630e+003,9.993890e+001
1.167594e+003,9.300806e+001
1.168558e+003,8.925250e+001
1.169522e+003,8.677112e+001
1.170487e+003,8.484613e+001
1.171451e+003,8.411511e+001
1.172415e+003,8.559003e+001
1.173379e+003,8.826953e+001
1.174344e+003,8.716687e+001
1.175308e+003,8.236969e+001
1.176272e+003,7.730078e+001
1.177236e+003,7.238312e+001
1.178201e+003,6.846130e+001
1.179165e+003,6.687433e+001
1.180129e+003,6.740845e+001
1.181093e+003,6.689319e+001
1.182057e+003,6.431873e+001
1.183022e+003,6.149188e+001
1.183986e+003,5.825842e+001
1.184950e+003,5.574573e+001
1.185914e+003,5.551355e+001
1.186879e+003,5.735150e+001
1.187843e+003,5.937885e+001
1.188807e+003,5.993646e+001
1.189771e+003,5.978632e+001
1.190736e+003,6.213129e+001
1.191700e+003,6.742944e+001
1.192664e+003,6.962354e+001
1.193628e+003,6.705542e+001
1.194593e+003,6.322656e+001
1.195557e+003,6.006372e+001
1.196521e+003,5.749945e+001
1.197485e+003,5.565436e+001
1.198449e+003,5.496222e+001
1.199414e+003,5.388995e+001
1.200378e+003,5.179706e+001
1.201342e+003,4.911322e+001
1.202306e+003,4.497034e+001
1.203271e+003,4.041925e+001
1.204235e+003,3.788477e+001
1.205199e+003,3.842914e+001
1.206163e+003,4.019299e+001
1.207128e+003,4.005945e+001
1.208092e+003,3.798804e+001
1.209056e+003,3.420929e+001
1.210020e+003,2.759387e+001
1.210984e+003,2.187915e+001
1.211949e+003,1.828101e+001
1.212913e+003,1.589154e+001
1.213877e+003,1.398749e+001
1.214841e+003,1.254840e+001
1.215806e+003,1.064893e+001
1.216770e+003,7.092407e+000
1.217734e+003,4.215820e+000
1.218698e+003,4.165771e+000
1.219663e+003,4.989136e+000
1.220627e+003,4.094849e+000
1.221591e+003,1.289063e+000
1.222555e+003,-1.453674e+000
1.223520e+003,-2.219666e+000
1.224484e+003,-1.435059e+000
1.225448e+003,-1.829956e+000
1.226412e+003,-4.741394e+000
1.227376e+003,-5.908691e+000
1.228341e+003,-4.383118e+000
1.229305e+003,-2.486633e+000
1.230269e+003,-1.282349e+000
1.231233e+003,-6.954956e-001
1.232198e+003,-4.663086e-002
1.233162e+003,1.060242e+000
1.234126e+003,1.035095e+000
1.235090e+003,-2.711060e+000
1.236055e+003,-7.261597e+000
1.237019e+003,-9.781799e+000
1.237983e+003,-1.049640e+001
1.238947e+003,-9.656616e+000
1.239911e+003,-7.248413e+000
1.240876e+003,-4.386780e+000
1.241840e+003,-2.816772e+000
1.242804e+003,-2.528931e+000
1.243768e+003,-3.267578e+000
1.244733e+003,-7.515747e+000
1.245697e+003,-9.332214e+000
1.246661e+003,-7.225342e+000
1.247625e+003,-4.104980e+000
1.248590e+003,-1.280151e+000
1.249554e+003,9.846802e-001
1.250518e+003,2.131470e+000
1.251482e+003,1.650024e+000
1.252447e+003,6.818237e-001
1.253411e+003,1.040710e+000
1.254375e+003,2.171997e+000
1.255339e+003,2.316162e+000
1.256303e+003,1.620239e+000
1.257268e+003,1.846558e+000
1.258232e+003,4.035522e+000
1.259196e+003,6.891113e+000
1.260160e+003,8.163086e+000
1.261125e+003,7.799316e+000
1.262089e+003,7.961365e+000
1.263053e+003,7.762634e+000
1.264017e+003,8.978394e+000
1.264982e+003,1.418573e+001
1.265946e+003,1.963940e+001
1.266910e+003,2.181097e+001
1.267874e+003,2.064642e+001
1.268839e+003,1.815454e+001
1.269803e+003,1.565985e+001
1.270767e+003,1.316553e+001
1.271731e+003,1.048450e+001
1.272695e+003,7.899902e+000
1.273660e+003,7.326355e+000
1.274624e+003,9.499268e+000
1.275588e+003,1.043005e+001
1.276552e+003,6.818909e+000
1.277517e+003,1.606018e+000
1.278481e+003,5.016479e-001
1.279445e+003,4.054138e+000
1.280409e+003,6.552368e+000
1.281374e+003,5.790894e+000
1.282338e+003,4.126709e+000
1.283302e+003,2.078552e+000
1.284266e+003,2.368774e-001
1.285230e+003,-4.370117e-001
1.286195e+003,-1.585693e-001
1.287159e+003,-3.351440e-001
1.288123e+003,-1.997620e+000
1.289087e+003,-4.160950e+000
1.290052e+003,-4.315125e+000
1.291016e+003,-1.572021e+000
1.291980e+003,-1.057861e+000
1.292944e+003,-5.193237e+000
1.293909e+003,-8.790222e+000
1.294873e+003,-9.381531e+000
1.295837e+003,-8.070679e+000
1.296801e+003,-6.089661e+000
1.297766e+003,-3.783081e+000
1.298730e+003,-2.238342e+000
1.299694e+003,-2.404846e+000
1.300658e+003,-3.368347e+000
1.301622e+003,-4.252563e+000
1.302587e+003,-4.850098e+000
1.303551e+003,-4.591919e+000
1.304515e+003,-3.429199e+000
1.305479e+003,-2.924072e+000
1.306444e+003,-4.925415e+000
1.307408e+003,-8.161377e+000
1.308372e+003,-7.389221e+000
1.309336e+003,-6.441040e-001
1.310301e+003,3.946350e+000
1.311265e+003,6.272095e+000
1.312229e+003,6.458374e+000
1.313193e+003,2.497437e+000
1.314157e+003,-2.437866e+000
1.315122e+003,-5.104919e+000
1.316086e+003,-5.306274e+000
1.317050e+003,-4.806702e+000
1.318014e+003,-4.564209e+000
1.318979e+003,-4.507141e+000
1.319943e+003,-4.928528e+000
1.320907e+003,-5.546387e+000
1.321871e+003,-5.087585e+000
1.322836e+003,-3.505310e+000
1.323800e+003,-2.361328e+000
1.324764e+003,-3.229004e+000
1.325728e+003,-4.542419e+000
1.326693e+003,-3.035706e+000
1.327657e+003,1.275330e+000
1.328621e+003,3.044800e+000
1.329585e+003,1.373291e-002
1.330549e+003,-2.519226e+000
1.331514e+003,-2.406006e+000
1.332478e+003,-1.493896e+000
1.333442e+003,-1.015503e+000
1.334406e+003,-1.033264e+000
1.335371e+003,-1.345947e+000
1.336335e+003,-1.811035e+000
1.337299e+003,-2.084595e+000
1.338263e+003,-1.571655e+000
1.339228e+003,-1.302490e-001
1.340192e+003,8.980103e-001
1.341156e+003,1.312012e+000
1.342120e+003,1.618896e+000
1.343084e+003,1.637390e+000
1.344049e+003,1.222412e+000
1.345013e+003,4.826660e-001
1.345977e+003,-3.567505e-001
1.346941e+003,-1.409424e+000
1.347906e+003,-2.824707e+000
1.348870e+003,-3.181763e+000
1.349834e+003,-2.069092e-001
1.350798e+003,3.652954e+000
1.351763e+003,3.506409e+000
1.352727e+003,1.930542e-001
1.353691e+003,-1.438477e+000
1.354655e+003,9.251099e-001
1.355620e+003,3.698547e+000
1.356584e+003,1.672607e+000
1.357548e+003,-4.201172e+000
1.358512e+003,-5.709045e+000
1.359476e+003,-6.299438e-001
1.360441e+003,2.553406e+000
1.361405e+003,1.208679e+000
1.362369e+003,-1.568420e+000
1.363333e+003,-5.830688e+000
1.364298e+003,-9.822083e+000
1.365262e+003,-1.081146e+001
1.366226e+003,-8.679382e+000
1.367190e+003,-6.281982e+000
1.368155e+003,-6.156860e+000
1.369119e+003,-7.813965e+000
1.370083e+003,-9.821716e+000
1.371047e+003,-1.259271e+001
1.372011e+003,-1.279376e+001
1.372976e+003,-9.154297e+000
1.373940e+003,-5.461792e+000
1.374904e+003,-2.531006e+000
1.375868e+003,-3.856812e-001
1.376833e+003,8.326416e-001
1.377797e+003,1.036804e+000
1.378761e+003,1.199951e-001
1.379725e+003,-2.118896e+000
1.380690e+003,-4.701538e+000
1.381654e+003,-7.528809e+000
1.382618e+003,-9.438538e+000
1.383582e+003,-8.174744e+000
1.384547e+003,-4.063416e+000
1.385511e+003,-3.363037e-002
1.386475e+003,2.395020e+000
1.387439e+003,3.678162e+000
1.388403e+003,4.502625e+000
1.389368e+003,4.833801e+000
1.390332e+003,4.695374e+000
1.391296e+003,4.313049e+000
1.392260e+003,3.409729e+000
1.393225e+003,5.930176e-001
1.394189e+003,-1.464539e+000
1.395153e+003,-2.918091e-001
1.396117e+003,2.268372e+000
1.397082e+003,3.268860e+000
1.398046e+003,2.082581e+000
1.399010e+003,2.847290e-001
1.399974e+003,-9.050903e-001
1.400938e+003,-1.836304e+000
1.401903e+003,-2.540771e+000
1.402867e+003,-2.161621e+000
1.403831e+003,-1.212708e+000
1.404795e+003,-6.723633e-001
1.405760e+003,8.827515e-001
1.406724e+003,5.366760e+000
1.407688e+003,9.039612e+000
1.408652e+003,6.710999e+000
1.409617e+003,-1.859741e-001
1.410581e+003,-4.088074e+000
1.411545e+003,-1.749329e+000
1.412509e+003,2.740662e+000
1.413474e+003,6.682434e+000
1.414438e+003,8.851135e+000
1.415402e+003,7.260559e+000
1.416366e+003,2.764771e+000
1.417330e+003,-1.437439e+000
1.418295e+003,-4.447571e+000
1.419259e+003,-5.436829e+000
1.420223e+003,-2.360229e+000
1.421187e+003,3.638672e+000
1.422152e+003,6.279114e+000
1.423116e+003,4.631531e+000
1.424080e+003,3.524292e+000
1.425044e+003,3.670959e+000
1.426009e+003,4.627258e+000
1.426973e+003,7.510559e+000
1.427937e+003,1.031030e+001
1.428901e+003,1.018323e+001
1.429865e+003,7.628174e+000
1.430830e+003,5.876160e+000
1.431794e+003,6.892822e+000
1.432758e+003,9.036011e+000
1.433722e+003,9.385254e+000
1.434687e+003,8.159058e+000
1.435651e+003,8.826721e+000
1.436615e+003,1.209979e+001
1.437579e+003,1.393103e+001
1.438544e+003,1.390997e+001
1.439508e+003,1.271313e+001
1.440472e+003,9.823486e+000
1.441436e+003,6.858887e+000
1.442401e+003,6.886475e+000
1.443365e+003,1.021747e+001
1.444329e+003,1.343823e+001
1.445293e+003,1.430371e+001
1.446257e+003,1.328357e+001
1.447222e+003,1.000830e+001
1.448186e+003,5.133911e+000
1.449150e+003,2.905579e+000
1.450114e+003,4.007935e+000
1.451079e+003,5.932434e+000
1.452043e+003,8.304565e+000
1.453007e+003,1.061505e+001
1.453971e+003,1.197461e+001
1.454936e+003,1.225079e+001
1.455900e+003,1.132996e+001
1.456864e+003,8.815002e+000
1.457828e+003,7.062805e+000
1.458792e+003,7.908020e+000
1.459757e+003,9.235107e+000
1.460721e+003,9.277527e+000
1.461685e+003,8.494690e+000
1.462649e+003,8.206482e+000
1.463614e+003,8.816162e+000
1.464578e+003,9.199829e+000
1.465542e+003,8.001404e+000
1.466506e+003,6.088440e+000
1.467471e+003,6.857239e+000
1.468435e+003,1.163531e+001
1.469399e+003,1.435107e+001
1.470363e+003,1.195813e+001
1.471328e+003,1.053375e+001
1.472292e+003,1.196100e+001
1.473256e+003,1.359064e+001
1.474220e+003,1.414221e+001
1.475184e+003,1.393066e+001
1.476149e+003,1.326062e+001
1.477113e+003,1.224005e+001
1.478077e+003,1.144879e+001
1.479041e+003,1.172662e+001
1.480006e+003,1.310010e+001
1.480970e+003,1.505865e+001
1.481934e+003,1.779102e+001
1.482898e+003,1.859222e+001
1.483863e+003,1.535229e+001
1.484827e+003,1.320972e+001
1.485791e+003,1.428778e+001
1.486755e+003,1.691113e+001
1.487719e+003,1.997339e+001
1.488684e+003,2.278998e+001
1.489648e+003,2.427472e+001
1.490612e+003,2.430664e+001
1.491576e+003,2.477344e+001
1.492541e+003,2.733533e+001
1.493505e+003,3.066095e+001
1.494469e+003,3.113391e+001
1.495433e+003,2.913281e+001
1.496398e+003,2.971765e+001
1.497362e+003,3.453717e+001
1.498326e+003,4.037958e+001
1.499290e+003,4.531128e+001
1.500255e+003,5.040143e+001
1.501219e+003,5.773657e+001
1.502183e+003,6.658752e+001
1.503147e+003,7.257715e+001
1.504111e+003,7.391119e+001
1.505076e+003,7.669312e+001
1.506040e+003,8.483875e+001
1.507004e+003,9.588831e+001
1.507968e+003,1.075019e+002
1.508933e+003,1.197836e+002
1.509897e+003,1.332275e+002
1.510861e+003,1.483553e+002
1.511825e+003,1.645861e+002
1.512790e+003,1.811152e+002
1.513754e+003,1.980320e+002
1.514718e+003,2.163874e+002
1.515682e+003,2.358691e+002
1.516646e+003,2.542130e+002
1.517611e+003,2.721827e+002
1.518575e+003,2.878085e+002
1.519539e+003,3.009854e+002
1.520503e+003,3.117817e+002
1.521468e+003,3.203069e+002
1.522432e+003,3.260069e+002
1.523396e+003,3.285808e+002
1.524360e+003,3.276273e+002
1.525325e+003,3.222917e+002
1.526289e+003,3.121074e+002
1.527253e+003,2.981064e+002
1.528217e+003,2.815974e+002
1.529182e+003,2.628096e+002
1.530146e+003,2.449644e+002
1.531110e+003,2.303766e+002
1.532074e+003,2.116460e+002
1.533039e+003,1.839965e+002
1.534003e+003,1.561646e+002
1.534967e+003,1.316311e+002
1.535931e+003,1.104820e+002
1.536896e+003,9.209723e+001
1.537860e+003,7.664984e+001
1.538824e+003,6.523181e+001
1.539788e+003,5.804425e+001
1.540752e+003,5.277661e+001
1.541717e+003,4.670776e+001
1.542681e+003,4.019592e+001
1.543645e+003,3.433063e+001
1.544609e+003,2.865137e+001
1.545573e+003,2.611444e+001
1.546538e+003,2.922620e+001
1.547502e+003,3.107837e+001
1.548466e+003,2.830042e+001
1.549430e+003,2.468842e+001
1.550395e+003,2.424011e+001
1.551359e+003,2.603705e+001
1.552323e+003,2.691742e+001
1.553287e+003,2.576672e+001
1.554252e+003,2.295880e+001
1.555216e+003,1.838147e+001
1.556180e+003,1.338214e+001
1.557144e+003,1.142212e+001
1.558109e+003,1.277313e+001
1.559073e+003,1.358691e+001
1.560037e+003,1.316400e+001
1.561001e+003,1.237183e+001
1.561966e+003,1.146210e+001
1.562930e+003,1.129095e+001
1.563894e+003,1.295782e+001
1.564858e+003,1.547723e+001
1.565823e+003,1.665558e+001
1.566787e+003,1.605804e+001
1.567751e+003,1.479974e+001
1.568715e+003,1.339362e+001
1.569679e+003,1.236823e+001
1.570644e+003,1.243213e+001
1.571608e+003,1.299957e+001
1.572572e+003,1.298151e+001
1.573536e+003,1.255963e+001
1.574500e+003,1.236859e+001
1.575465e+003,1.223914e+001
1.576429e+003,1.270551e+001
1.577393e+003,1.480347e+001
1.578357e+003,1.730981e+001
1.579322e+003,1.763226e+001
1.580286e+003,1.593695e+001
1.581250e+003,1.550494e+001
1.582214e+003,1.771936e+001
1.583179e+003,1.984296e+001
1.584143e+003,1.939063e+001
1.585107e+003,1.781049e+001
1.586071e+003,1.764130e+001
1.587036e+003,1.874103e+001
1.588000e+003,1.952747e+001
1.588964e+003,1.942523e+001
1.589928e+003,1.863287e+001
1.590893e+003,1.641943e+001
1.591857e+003,1.455066e+001
1.592821e+003,1.686169e+001
1.593785e+003,2.233063e+001
1.594750e+003,2.405774e+001
1.595714e+003,2.034412e+001
1.596678e+003,1.746155e+001
1.597642e+003,1.811304e+001
1.598606e+003,2.017700e+001
1.599571e+003,2.287378e+001
1.600535e+003,2.554126e+001
1.601499e+003,2.708289e+001
1.602463e+003,2.749756e+001
1.603427e+003,2.779077e+001
1.604392e+003,2.851270e+001
1.605356e+003,2.832202e+001
1.606320e+003,2.510492e+001
1.607284e+003,2.020575e+001
1.608249e+003,1.758820e+001
1.609213e+003,1.735065e+001
1.610177e+003,1.655408e+001
1.611141e+003,1.404926e+001
1.612106e+003,1.266418e+001
1.613070e+003,1.542627e+001
1.614034e+003,1.821204e+001
1.614998e+003,1.736426e+001
1.615963e+003,1.477155e+001
1.616927e+003,1.372559e+001
1.617891e+003,1.459711e+001
1.618855e+003,1.564862e+001
1.619820e+003,1.571960e+001
1.620784e+003,1.512170e+001
1.621748e+003,1.502557e+001
1.622712e+003,1.567706e+001
1.623677e+003,1.553796e+001
1.624641e+003,1.446588e+001
1.625605e+003,1.351324e+001
1.626569e+003,1.116583e+001
1.627533e+003,1.020496e+001
1.628498e+003,1.463538e+001
1.629462e+003,1.939655e+001
1.630426e+003,1.942517e+001
1.631390e+003,1.634918e+001
1.632354e+003,1.422388e+001
1.633319e+003,1.408374e+001
1.634283e+003,1.479950e+001
1.635247e+003,1.567334e+001
1.636211e+003,1.627966e+001
1.637176e+003,1.609082e+001
1.638140e+003,1.526050e+001
1.639104e+003,1.356842e+001
1.640068e+003,1.035767e+001
1.641033e+003,8.170959e+000
1.641997e+003,8.366821e+000
1.642961e+003,9.033569e+000
1.643925e+003,8.698853e+000
1.644890e+003,8.656189e+000
1.645854e+003,1.078094e+001
1.646818e+003,1.410693e+001
1.647782e+003,1.623450e+001
1.648747e+003,1.635510e+001
1.649711e+003,1.483258e+001
1.650675e+003,1.161292e+001
1.651639e+003,8.415100e+000
1.652604e+003,9.283936e+000
1.653568e+003,1.379437e+001
1.654532e+003,1.445984e+001
1.655496e+003,9.410950e+000
1.656460e+003,5.889160e+000
1.657425e+003,6.529175e+000
1.658389e+003,8.682434e+000
1.659353e+003,1.227386e+001
1.660317e+003,1.545288e+001
1.661281e+003,1.620447e+001
1.662246e+003,1.466052e+001
1.663210e+003,1.133325e+001
1.664174e+003,6.680298e+000
1.665138e+003,3.738220e+000
1.666103e+003,5.553406e+000
1.667067e+003,9.455078e+000
1.668031e+003,1.020325e+001
1.668995e+003,8.078857e+000
1.669960e+003,5.742126e+000
1.670924e+003,2.936035e+000
1.671888e+003,2.343689e+000
1.672852e+003,6.245605e+000
1.673817e+003,1.010345e+001
1.674781e+003,1.077820e+001
1.675745e+003,1.005798e+001
1.676709e+003,1.010547e+001
1.677674e+003,1.048767e+001
1.678638e+003,8.917908e+000
1.679602e+003,4.739746e+000
1.680566e+003,1.122681e+000
1.681531e+003,5.194092e-001
1.682495e+003,2.359863e+000
1.683459e+003,6.469604e+000
1.684423e+003,1.196350e+001
1.685387e+003,1.404871e+001
1.686352e+003,1.204584e+001
1.687316e+003,9.570251e+000
1.688280e+003,7.313171e+000
1.689244e+003,5.668823e+000
1.690208e+003,5.096741e+000
1.691173e+003,5.028503e+000
1.692137e+003,5.464355e+000
1.693101e+003,6.233948e+000
1.694065e+003,5.894409e+000
1.695030e+003,3.747192e+000
1.695994e+003,1.775269e+000
1.696958e+003,1.596924e+000
1.697922e+003,2.097595e+000
1.698887e+003,1.979126e+000
1.699851e+003,1.461792e+000
1.700815e+003,7.073975e-001
1.701779e+003,-3.886719e-001
1.702744e+003,-6.824341e-001
1.703708e+003,7.598267e-001
1.704672e+003,2.294739e+000
1.705636e+003,2.236450e+000
1.706601e+003,1.166382e+000
1.707565e+003,7.546387e-001
1.708529e+003,7.821655e-001
1.709493e+003,-7.764282e-001
1.710458e+003,-4.577515e+000
1.711422e+003,-6.419739e+000
1.712386e+003,-2.597778e+000
1.713350e+003,1.914001e+000
1.714314e+003,2.428528e+000
1.715279e+003,8.594971e-001
1.716243e+003,1.015564e+000
1.717207e+003,2.665161e+000
1.718171e+003,2.557190e+000
1.719135e+003,-1.323242e-001
1.720100e+003,-1.527710e+000
1.721064e+003,1.410156e+000
1.722028e+003,4.960388e+000
1.722992e+003,3.331482e+000
1.723957e+003,-1.789673e+000
1.724921e+003,-2.158081e+000
1.725885e+003,2.716187e+000
1.726849e+003,5.170166e+000
1.727814e+003,2.230713e+000
1.728778e+003,3.308716e-001
1.729742e+003,4.020691e+000
1.730706e+003,8.127563e+000
1.731671e+003,6.086975e+000
1.732635e+003,3.893433e-001
1.733599e+003,-1.912292e+000
1.734563e+003,1.924438e-001
1.735528e+003,1.532166e+000
1.736492e+003,-7.668457e-001
1.737456e+003,-3.270081e+000
1.738420e+003,-1.655701e+000
1.739385e+003,2.213989e+000
1.740349e+003,2.319519e+000
1.741313e+003,-2.050415e+000
1.742277e+003,-5.317627e+000
1.743241e+003,-7.747009e+000
1.744206e+003,-8.242676e+000
1.745170e+003,-5.126648e+000
1.746134e+003,-2.160706e+000
1.747098e+003,-1.764893e+000
1.748063e+003,-2.424072e+000
1.749027e+003,-2.303406e+000
1.749991e+003,-1.379517e+000
1.750955e+003,-3.479614e-001
1.751919e+003,3.482056e-001
1.752884e+003,2.120361e-001
1.753848e+003,-1.186584e+000
1.754812e+003,-3.287292e+000
1.755776e+003,-4.838013e+000
1.756741e+003,-5.536011e+000
1.757705e+003,-4.654358e+000
1.758669e+003,-1.464966e+000
1.759633e+003,3.143311e-001
1.760598e+003,-1.659302e+000
1.761562e+003,-2.739075e+000
1.762526e+003,5.247803e-001
1.763490e+003,3.640747e+000
1.764455e+003,3.026367e+000
1.765419e+003,4.382935e-001
1.766383e+003,-1.727295e+000
1.767347e+003,-3.011658e+000
1.768312e+003,-3.360474e+000
1.769276e+003,-2.825195e+000
1.770240e+003,-2.053101e+000
1.771204e+003,-1.163757e+000
1.772168e+003,-5.792236e-002
1.773133e+003,1.074524e+000
1.774097e+003,2.089417e+000
1.775061e+003,1.363098e+000
1.776025e+003,-1.872192e+000
1.776990e+003,-4.967224e+000
1.777954e+003,-6.963928e+000
1.778918e+003,-7.709167e+000
1.779882e+003,-7.235535e+000
1.780846e+003,-5.913879e+000
1.781811e+003,-3.019409e+000
1.782775e+003,6.086426e-001
1.783739e+003,1.473511e+000
1.784703e+003,-1.089111e+000
1.785668e+003,-2.939087e+000
1.786632e+003,-2.710815e+000
1.787596e+003,-1.631775e+000
1.788560e+003,7.767334e-001
1.789525e+003,3.399780e+000
1.790489e+003,3.818237e+000
1.791453e+003,2.504028e+000
1.792417e+003,2.038696e+000
1.793382e+003,2.830811e+000
1.794346e+003,2.559448e+000
1.795310e+003,-1.411743e-001
1.796274e+003,-3.512085e+000
1.797239e+003,-5.564270e+000
1.798203e+003,-5.775513e+000
1.799167e+003,-3.323120e+000
1.800131e+003,2.025818e+000
1.801095e+003,3.682373e+000
1.802060e+003,-7.492676e-001
1.803024e+003,-3.367920e+000
1.803988e+003,-3.194824e+000
1.804952e+003,-1.826599e+000
1.805917e+003,1.323425e+000
1.806881e+003,4.148682e+000
1.807845e+003,4.984619e+000
1.808809e+003,3.972229e+000
1.809773e+003,7.759399e-001
1.810738e+003,-3.768494e+000
1.811702e+003,-6.127075e+000
1.812666e+003,-4.188843e+000
1.813630e+003,-8.051758e-001
1.814595e+003,2.550659e-001
1.815559e+003,-6.159668e-001
1.816523e+003,-1.400818e+000
1.817487e+003,-1.932129e+000
1.818452e+003,-3.566956e+000
1.819416e+003,-7.109192e+000
1.820380e+003,-8.582031e+000
1.821344e+003,-5.787170e+000
1.822309e+003,-2.950989e+000
1.823273e+003,-2.665588e+000
1.824237e+003,-2.972229e+000
1.825201e+003,-2.157227e+000
1.826166e+003,-5.441895e-001
1.827130e+003,1.221863e+000
1.828094e+003,2.863403e+000
1.829058e+003,3.407227e+000
1.830022e+003,2.429871e+000
1.830987e+003,7.117920e-001
1.831951e+003,-1.967651e+000
1.832915e+003,-4.357971e+000
1.833879e+003,-4.226746e+000
1.834844e+003,-2.318176e+000
1.835808e+003,-9.645386e-001
1.836772e+003,-5.150146e-001
1.837736e+003,-4.818726e-001
1.838700e+003,-8.373413e-001
1.839665e+003,-1.131592e+000
1.840629e+003,-7.095947e-001
1.841593e+003,-3.771973e-002
1.842557e+003,-4.208984e-001
1.843522e+003,-1.856873e+000
1.844486e+003,-2.915405e+000
1.845450e+003,-2.970825e+000
1.846414e+003,-3.004883e+000
1.847379e+003,-4.585083e+000
1.848343e+003,-5.083740e+000
1.849307e+003,-1.827332e+000
1.850271e+003,1.164001e+000
1.851236e+003,2.821045e-001
1.852200e+003,-1.905334e+000
1.853164e+003,-1.657166e+000
1.854128e+003,4.313965e-001
1.855093e+003,1.366577e+000
1.856057e+003,3.481445e-001
1.857021e+003,-1.090759e+000
1.857985e+003,-1.973083e+000
1.858949e+003,-2.223145e+000
1.859914e+003,-1.218933e+000
1.860878e+003,7.968140e-001
1.861842e+003,1.875977e+000
1.862806e+003,1.872131e+000
1.863771e+003,1.668701e+000
1.864735e+003,1.217834e+000
1.865699e+003,7.944336e-001
1.866663e+003,9.589233e-001
1.867627e+003,9.163818e-001
1.868592e+003,-9.569702e-001
1.869556e+003,-3.550232e+000
1.870520e+003,-3.816833e+000
1.871484e+003,-2.228149e+000
1.872449e+003,-1.868896e+000
1.873413e+003,-2.665710e+000
1.874377e+003,-2.298096e+000
1.875341e+003,-7.745972e-001
1.876306e+003,1.278809e+000
1.877270e+003,4.562317e+000
1.878234e+003,7.072083e+000
1.879198e+003,6.961914e+000
1.880163e+003,4.734192e+000
1.881127e+003,4.483032e-001
1.882091e+003,-4.682983e+000
1.883055e+003,-7.205994e+000
1.884020e+003,-5.924255e+000
1.884984e+003,-3.679810e+000
1.885948e+003,-3.058105e+000
1.886912e+003,-2.803284e+000
1.887876e+003,7.000732e-002
1.888841e+003,5.143250e+000
1.889805e+003,6.168701e+000
1.890769e+003,2.108826e+000
1.891733e+003,-3.485718e-001
1.892698e+003,-3.402710e-001
1.893662e+003,7.910156e-002
1.894626e+003,8.450317e-001
1.895590e+003,1.265076e+000
1.896554e+003,8.279419e-001
1.897519e+003,1.597900e-001
1.898483e+003,-3.688354e-001
1.899447e+003,-9.997559e-001
1.900411e+003,-2.139709e+000
1.901376e+003,-3.888367e+000
1.902340e+003,-3.176025e+000
1.903304e+003,3.850037e+000
1.904268e+003,9.222473e+000
1.905233e+003,6.371216e+000
1.906197e+003,1.422180e+000
1.907161e+003,7.341309e-001
1.908125e+003,2.733337e+000
1.909090e+003,3.427185e+000
1.910054e+003,2.743896e+000
1.911018e+003,4.278625e+000
1.911982e+003,8.787964e+000
1.912947e+003,1.073871e+001
1.913911e+003,5.964661e+000
1.914875e+003,-5.537720e-001
1.915839e+003,-1.036316e+000
1.916803e+003,3.015991e+000
1.917768e+003,5.469788e+000
1.918732e+003,6.520874e+000
1.919696e+003,6.027283e+000
1.920660e+003,3.125671e+000
1.921625e+003,1.902710e+000
1.922589e+003,4.794983e+000
1.923553e+003,6.501526e+000
1.924517e+003,2.260864e+000
1.925481e+003,-2.515442e+000
1.926446e+003,-3.058838e+000
1.927410e+003,-6.730957e-001
1.928374e+003,2.574585e+000
1.929338e+003,6.042480e+000
1.930303e+003,7.430725e+000
1.931267e+003,6.159302e+000
1.932231e+003,4.504761e+000
1.933195e+003,2.176270e+000
1.934160e+003,5.988159e-001
1.935124e+003,1.421570e+000
1.936088e+003,2.895508e+000
1.937052e+003,3.361084e+000
1.938017e+003,3.081909e+000
1.938981e+003,2.956177e+000
1.939945e+003,2.801880e+000
1.940909e+003,6.304932e-001
1.941874e+003,-4.143372e+000
1.942838e+003,-7.462952e+000
1.943802e+003,-5.153320e+000
1.944766e+003,2.656860e-001
1.945730e+003,3.265259e+000
1.946695e+003,3.816650e+000
1.947659e+003,3.244324e+000
1.948623e+003,1.287659e+000
1.949587e+003,3.351440e-001
1.950552e+003,1.179138e+000
1.951516e+003,1.442993e+000
1.952480e+003,-2.426758e-001
1.953444e+003,-1.440796e+000
1.954408e+003,3.186035e-002
1.955373e+003,2.030518e+000
1.956337e+003,1.597717e+000
1.957301e+003,-1.649170e-001
1.958265e+003,-4.406738e-001
1.959230e+003,1.090454e+000
1.960194e+003,2.277161e+000
1.961158e+003,2.204407e+000
1.962122e+003,1.592468e+000
1.963087e+003,2.562256e-001
1.964051e+003,-9.479980e-001
1.965015e+003,-1.304504e+000
1.965979e+003,-8.730469e-001
1.966944e+003,1.155396e-001
1.967908e+003,1.247681e+000
1.968872e+003,2.457458e+000
1.969836e+003,3.549011e+000
1.970801e+003,3.643250e+000
1.971765e+003,2.499756e+000
1.972729e+003,1.627258e+000
1.973693e+003,2.378052e+000
1.974657e+003,3.737488e+000
1.975622e+003,3.832825e+000
1.976586e+003,3.235901e+000
1.977550e+003,4.128845e+000
1.978514e+003,6.338623e+000
1.979479e+003,8.251099e+000
1.980443e+003,9.471924e+000
1.981407e+003,8.869080e+000
1.982371e+003,6.020752e+000
1.983335e+003,3.984680e+000
1.984300e+003,5.041138e+000
1.985264e+003,6.985291e+000
1.986228e+003,6.535339e+000
1.987192e+003,4.356384e+000
1.988157e+003,4.117493e+000
1.989121e+003,6.762512e+000
1.990085e+003,7.016357e+000
1.991049e+003,2.802124e+000
1.992014e+003,8.118286e-001
1.992978e+003,3.894226e+000
1.993942e+003,6.106140e+000
1.994906e+003,4.570862e+000
1.995871e+003,2.372192e+000
1.996835e+003,1.677795e+000
1.997799e+003,2.025330e+000
1.998763e+003,2.691711e+000
1.999728e+003,3.296570e+000
