5.003444e+002,2.937927e+001
5.013087e+002,3.070618e+001
5.022729e+002,2.974384e+001
5.032371e+002,2.808124e+001
5.042014e+002,2.935187e+001
5.051656e+002,3.317871e+001
5.061298e+002,3.725275e+001
5.070941e+002,3.943604e+001
5.080583e+002,3.925250e+001
5.090225e+002,3.770868e+001
5.099868e+002,3.424280e+001
5.109510e+002,3.045911e+001
5.119152e+002,2.648724e+001
5.128795e+002,2.224878e+001
5.138437e+002,2.060413e+001
5.148079e+002,2.589777e+001
5.157722e+002,3.114001e+001
5.167364e+002,3.291858e+001
5.177006e+002,3.093982e+001
5.186649e+002,2.784070e+001
5.196291e+002,2.749304e+001
5.205933e+002,2.839758e+001
5.215576e+002,2.784717e+001
5.225218e+002,2.529590e+001
5.234860e+002,2.160376e+001
5.244503e+002,1.882782e+001
5.254145e+002,1.790625e+001
5.263787e+002,1.815100e+001
5.273430e+002,2.010370e+001
5.283072e+002,2.285596e+001
5.292714e+002,2.527649e+001
5.302357e+002,2.756763e+001
5.311999e+002,2.682190e+001
5.321641e+002,2.132861e+001
5.331284e+002,1.554559e+001
5.340926e+002,1.282117e+001
5.350568e+002,1.423785e+001
5.360211e+002,1.634259e+001
5.369853e+002,1.729059e+001
5.379495e+002,1.766156e+001
5.389138e+002,1.749463e+001
5.398780e+002,1.678607e+001
5.408422e+002,1.555310e+001
5.418065e+002,1.371942e+001
5.427707e+002,1.145428e+001
5.437349e+002,1.041339e+001
5.446992e+002,1.127740e+001
5.456634e+002,1.334937e+001
5.466276e+002,1.435651e+001
5.475919e+002,1.283752e+001
5.485561e+002,1.248468e+001
5.495203e+002,1.366730e+001
5.504846e+002,1.556616e+001
5.514488e+002,1.751080e+001
5.524130e+002,2.031360e+001
5.533773e+002,2.142542e+001
5.543415e+002,1.877869e+001
5.553057e+002,1.467023e+001
5.562700e+002,1.105542e+001
5.572342e+002,9.074768e+000
5.581984e+002,8.420593e+000
5.591627e+002,9.674561e+000
5.601269e+002,1.219696e+001
5.610911e+002,1.376056e+001
5.620554e+002,1.298572e+001
5.630196e+002,9.989624e+000
5.639838e+002,7.714905e+000
5.649481e+002,6.691772e+000
5.659123e+002,5.669067e+000
5.668765e+002,4.671448e+000
5.678408e+002,4.254517e+000
5.688050e+002,5.223694e+000
5.697692e+002,8.021851e+000
5.707335e+002,1.029907e+001
5.716977e+002,1.241718e+001
5.726619e+002,1.370953e+001
5.736262e+002,1.304230e+001
5.745904e+002,9.379211e+000
5.755546e+002,5.046448e+000
5.765189e+002,2.919556e+000
5.774831e+002,2.078552e+000
5.784473e+002,1.936951e+000
5.794116e+002,2.317139e+000
5.803758e+002,3.445129e+000
5.813400e+002,3.422791e+000
5.823043e+002,1.204407e+000
5.832685e+002,-1.172546e+000
5.842327e+002,-2.793152e+000
5.851970e+002,-3.313660e+000
5.861612e+002,-2.737610e+000
5.871254e+002,-2.128906e-001
5.880897e+002,1.755249e+000
5.890539e+002,2.220154e+000
5.900181e+002,1.591064e+000
5.909824e+002,6.143799e-001
5.919466e+002,-4.275513e-001
5.929108e+002,-5.896606e-001
5.938751e+002,1.943298e+000
5.948393e+002,5.478638e+000
5.958035e+002,7.145203e+000
5.967678e+002,4.979797e+000
5.977320e+002,9.155273e-004
5.986962e+002,-1.312683e+000
5.996605e+002,2.406616e-001
6.006247e+002,2.150818e+000
6.015889e+002,3.416809e+000
6.025532e+002,4.155640e+000
6.035174e+002,5.220581e+000
6.044816e+002,8.158020e+000
6.054459e+002,9.852234e+000
6.064101e+002,9.486694e+000
6.073743e+002,7.555603e+000
6.083386e+002,4.910095e+000
6.093028e+002,1.627686e+000
6.102670e+002,-1.200745e+000
6.112313e+002,-3.386108e+000
6.121955e+002,-4.729736e+000
6.131597e+002,-4.777222e+000
6.141240e+002,-3.266418e+000
6.150882e+002,-7.499390e-001
6.160524e+002,1.173157e+000
6.170167e+002,2.855042e+000
6.179809e+002,3.376282e+000
6.189451e+002,1.367859e+000
6.199094e+002,-2.834717e+000
6.208736e+002,-4.617493e+000
6.218378e+002,1.366577e+000
6.228021e+002,4.735657e+000
6.237663e+002,2.804077e+000
6.247305e+002,-1.650085e+000
6.256948e+002,-4.281494e+000
6.266590e+002,-3.438599e+000
6.276232e+002,-1.819153e+000
6.285875e+002,-4.786987e-001
6.295517e+002,9.106445e-001
6.305159e+002,2.873169e+000
6.314802e+002,5.432373e+000
6.324444e+002,7.417358e+000
6.334086e+002,4.888977e+000
6.343729e+002,-1.299438e-001
6.353371e+002,-3.027039e+000
6.363013e+002,-1.997498e+000
6.372656e+002,1.558411e+000
6.382298e+002,3.086182e+000
6.391940e+002,3.318481e-001
6.401583e+002,-2.143494e+000
6.411225e+002,-3.699341e+000
6.420867e+002,-4.132935e+000
6.430510e+002,-3.138367e+000
6.440152e+002,-2.613525e-001
6.449794e+002,6.959839e-001
6.459437e+002,-3.773315e+000
6.469079e+002,-9.399597e+000
6.478721e+002,-1.267719e+001
6.488364e+002,-1.233240e+001
6.498006e+002,-1.007880e+001
6.507648e+002,-9.226746e+000
6.517291e+002,-9.170593e+000
6.526933e+002,-7.419189e+000
6.536575e+002,-3.373047e+000
6.546218e+002,8.040771e-001
6.555860e+002,7.628174e-001
6.565502e+002,-7.265198e+000
6.575145e+002,-1.153992e+001
6.584787e+002,-1.065704e+001
6.594429e+002,-7.653076e+000
6.604072e+002,-4.373596e+000
6.613714e+002,-9.163818e-001
6.623356e+002,1.794861e+000
6.632999e+002,2.791870e+000
6.642641e+002,2.713318e+000
6.652283e+002,2.005005e+000
6.661926e+002,1.065247e+000
6.671568e+002,9.106445e-002
6.681210e+002,-1.153198e+000
6.690853e+002,-2.515808e+000
6.700495e+002,-3.140625e+000
6.710137e+002,-2.981873e+000
6.719780e+002,-2.056396e+000
6.729422e+002,-3.456421e-001
6.739064e+002,2.208984e+000
6.748707e+002,3.849976e+000
6.758349e+002,5.391724e+000
6.767991e+002,5.249146e+000
6.777634e+002,1.835266e+000
6.787276e+002,-3.794067e+000
6.796918e+002,-6.636902e+000
6.806561e+002,-2.377319e+000
6.816203e+002,1.310059e+000
6.825845e+002,8.250122e-001
6.835488e+002,-2.117981e+000
6.845130e+002,-4.407776e+000
6.854772e+002,-3.625610e+000
6.864415e+002,-5.703735e-001
6.874057e+002,2.690918e+000
6.883699e+002,5.279663e+000
6.893342e+002,5.914978e+000
6.902984e+002,3.900269e+000
6.912626e+002,-1.607056e-001
6.922269e+002,-3.252380e+000
6.931911e+002,-4.789856e+000
6.941553e+002,-4.468872e+000
6.951196e+002,-9.917603e-001
6.960838e+002,3.015625e+000
6.970480e+002,3.088928e+000
6.980123e+002,-3.865540e+000
6.989765e+002,-8.265564e+000
6.999407e+002,-4.219360e+000
7.009050e+002,1.792053e+000
7.018692e+002,4.380859e+000
7.028334e+002,1.829285e+000
7.037977e+002,-2.757507e+000
7.047619e+002,-4.238037e+000
7.057261e+002,-3.484680e+000
7.066904e+002,-3.052795e+000
7.076546e+002,-3.378052e+000
7.086188e+002,-4.144104e+000
7.095831e+002,-5.011536e+000
7.105473e+002,-6.918762e+000
7.115115e+002,-6.477234e+000
7.124758e+002,-2.035278e+000
7.134400e+002,2.259338e+000
7.144042e+002,4.690674e+000
7.153685e+002,5.287659e+000
7.163327e+002,3.806946e+000
7.172969e+002,-3.650757e+000
7.182612e+002,-9.623474e+000
7.192254e+002,-1.047736e+001
7.201896e+002,-7.641907e+000
7.211539e+002,-3.997009e+000
7.221181e+002,-1.582947e+000
7.230823e+002,-9.193726e-001
7.240466e+002,-3.853149e+000
7.250108e+002,-9.031860e+000
7.259750e+002,-1.288354e+001
7.269393e+002,-1.382526e+001
7.279035e+002,-1.262170e+001
7.288677e+002,-1.103973e+001
7.298320e+002,-6.569458e+000
7.307962e+002,-2.607971e+000
7.317604e+002,1.098877e+000
7.327247e+002,4.143005e+000
7.336889e+002,5.077026e+000
7.346531e+002,1.911011e+000
7.356174e+002,-1.396301e+000
7.365816e+002,-5.906372e-001
7.375458e+002,1.443176e+000
7.385101e+002,2.138672e+000
7.394743e+002,1.027283e+000
7.404385e+002,-8.905029e-002
7.414028e+002,1.613220e+000
7.423670e+002,4.354370e+000
7.433312e+002,4.846741e+000
7.442955e+002,3.543945e+000
7.452597e+002,2.458130e+000
7.462239e+002,3.783020e+000
7.471882e+002,8.341492e+000
7.481524e+002,1.042297e+001
7.491166e+002,6.657166e+000
7.500809e+002,3.108215e+000
7.510451e+002,2.609497e+000
7.520093e+002,4.411438e+000
7.529736e+002,5.380310e+000
7.539378e+002,4.468140e+000
7.549020e+002,3.135559e+000
7.558663e+002,1.324097e+000
7.568306e+002,-9.222412e-002
7.577948e+002,2.347412e-001
7.587590e+002,2.807190e+000
7.597233e+002,6.132568e+000
7.606875e+002,6.609497e+000
7.616517e+002,5.001282e+000
7.626160e+002,3.713379e+000
7.635802e+002,3.189392e+000
7.645444e+002,3.695129e+000
7.655087e+002,6.127747e+000
7.664729e+002,1.282404e+001
7.674371e+002,1.556354e+001
7.684014e+002,1.191693e+001
7.693656e+002,6.680359e+000
7.703298e+002,2.192932e+000
7.712941e+002,-8.529053e-001
7.722583e+002,-1.970154e+000
7.732225e+002,7.344360e-001
7.741868e+002,4.121643e+000
7.751510e+002,5.969666e+000
7.761152e+002,6.379822e+000
7.770795e+002,5.885376e+000
7.780437e+002,4.859009e+000
7.790079e+002,3.315552e+000
7.799722e+002,2.697815e+000
7.809364e+002,2.748352e+000
7.819006e+002,3.808899e+000
7.828649e+002,7.756531e+000
7.838291e+002,1.346857e+001
7.847933e+002,1.611456e+001
7.857576e+002,1.323047e+001
7.867218e+002,9.060608e+000
7.876860e+002,3.905701e+000
7.886503e+002,-6.168213e-001
7.896145e+002,-3.385376e+000
7.905787e+002,-4.089111e+000
7.915430e+002,-3.105652e+000
7.925072e+002,2.827148e-001
7.934714e+002,3.484985e+000
7.944357e+002,3.854431e+000
7.953999e+002,1.924500e+000
7.963641e+002,-6.988525e-002
7.973284e+002,1.596069e-001
7.982926e+002,2.749878e+000
7.992568e+002,5.487366e+000
8.002211e+002,8.246704e+000
8.011853e+002,8.957520e+000
8.021495e+002,6.908020e+000
8.031138e+002,3.683594e+000
8.040780e+002,2.337219e+000
8.050422e+002,2.778503e+000
8.060065e+002,4.791443e+000
8.069707e+002,1.006262e+001
8.079349e+002,1.490924e+001
8.088992e+002,1.541010e+001
8.098634e+002,1.073236e+001
8.108276e+002,4.645813e+000
8.117919e+002,1.602417e+000
8.127561e+002,7.568359e-002
8.137203e+002,-8.024292e-001
8.146846e+002,-5.759277e-001
8.156488e+002,2.128296e-001
8.166130e+002,2.959595e-001
8.175773e+002,-1.044250e+000
8.185415e+002,4.578857e-001
8.195057e+002,5.863647e+000
8.204700e+002,1.111969e+001
8.214342e+002,1.608240e+001
8.223984e+002,1.987054e+001
8.233627e+002,1.990198e+001
8.243269e+002,1.319086e+001
8.252911e+002,7.302673e+000
8.262554e+002,6.869812e+000
8.272196e+002,8.959045e+000
8.281838e+002,1.053400e+001
8.291481e+002,1.046637e+001
8.301123e+002,1.013269e+001
8.310765e+002,1.249023e+001
8.320408e+002,1.676563e+001
8.330050e+002,1.644043e+001
8.339692e+002,1.002692e+001
8.349335e+002,3.036621e+000
8.358977e+002,1.802856e+000
8.368619e+002,7.650330e+000
8.378262e+002,1.186517e+001
8.387904e+002,1.163916e+001
8.397546e+002,1.175677e+001
8.407189e+002,1.419678e+001
8.416831e+002,1.769940e+001
8.426473e+002,1.990222e+001
8.436116e+002,1.969025e+001
8.445758e+002,1.865527e+001
8.455400e+002,1.673895e+001
8.465043e+002,1.465009e+001
8.474685e+002,1.465631e+001
8.484327e+002,1.747064e+001
8.493970e+002,2.138684e+001
8.503612e+002,2.279865e+001
8.513254e+002,2.094165e+001
8.522897e+002,1.937805e+001
8.532539e+002,1.775684e+001
8.542181e+002,1.607892e+001
8.551824e+002,1.438983e+001
8.561466e+002,1.345953e+001
8.571108e+002,1.518915e+001
8.580751e+002,2.105573e+001
8.590393e+002,2.533075e+001
8.600035e+002,2.662659e+001
8.609678e+002,2.626385e+001
8.619320e+002,2.511145e+001
8.628962e+002,2.363318e+001
8.638605e+002,2.276410e+001
8.648247e+002,2.489606e+001
8.657889e+002,2.840063e+001
8.667532e+002,3.002814e+001
8.677174e+002,2.934766e+001
8.686816e+002,2.737982e+001
8.696459e+002,2.510846e+001
8.706101e+002,2.252100e+001
8.715743e+002,2.229382e+001
8.725386e+002,2.591174e+001
8.735028e+002,2.984808e+001
8.744670e+002,3.274756e+001
8.754313e+002,3.468835e+001
8.763955e+002,3.674036e+001
8.773597e+002,3.991479e+001
8.783240e+002,4.199054e+001
8.792882e+002,4.059906e+001
8.802524e+002,3.756824e+001
8.812167e+002,3.397559e+001
8.821809e+002,3.045471e+001
8.831451e+002,2.750928e+001
8.841094e+002,2.582208e+001
8.850736e+002,2.598712e+001
8.860378e+002,2.923285e+001
8.870021e+002,3.603015e+001
8.879663e+002,4.250208e+001
8.889305e+002,4.683264e+001
8.898948e+002,4.884045e+001
8.908590e+002,4.816327e+001
8.918232e+002,4.274640e+001
8.927875e+002,3.893530e+001
8.937517e+002,3.874536e+001
8.947159e+002,4.002209e+001
8.956802e+002,4.038086e+001
8.966444e+002,3.919281e+001
8.976086e+002,3.833014e+001
8.985729e+002,4.125128e+001
8.995371e+002,4.537732e+001
9.005013e+002,4.519043e+001
9.014656e+002,4.157166e+001
9.024298e+002,3.803882e+001
9.033940e+002,3.680084e+001
9.043583e+002,3.735614e+001
9.053225e+002,3.917419e+001
9.062867e+002,4.516687e+001
9.072510e+002,4.758020e+001
9.082152e+002,4.479529e+001
9.091794e+002,4.055426e+001
9.101437e+002,3.801276e+001
9.111079e+002,3.760248e+001
9.120721e+002,3.851758e+001
9.130364e+002,4.127441e+001
9.140006e+002,4.342749e+001
9.149648e+002,4.345325e+001
9.159291e+002,4.250726e+001
9.168933e+002,4.261334e+001
9.178575e+002,4.490869e+001
9.188218e+002,4.831726e+001
9.197860e+002,5.005640e+001
9.207502e+002,4.989722e+001
9.217145e+002,4.891174e+001
9.226787e+002,4.788287e+001
9.236429e+002,4.687787e+001
9.246072e+002,4.516956e+001
9.255714e+002,4.197632e+001
9.265356e+002,3.995068e+001
9.274999e+002,4.048608e+001
9.284641e+002,4.070380e+001
9.294283e+002,4.001422e+001
9.303926e+002,3.863959e+001
9.313568e+002,3.674963e+001
9.323210e+002,3.430872e+001
9.332853e+002,3.209253e+001
9.342495e+002,3.153796e+001
9.352137e+002,3.192609e+001
9.361780e+002,3.326288e+001
9.371422e+002,3.590979e+001
9.381064e+002,3.882214e+001
9.390707e+002,3.988354e+001
9.400349e+002,3.802283e+001
9.409991e+002,3.753937e+001
9.419634e+002,3.882697e+001
9.429276e+002,4.046515e+001
9.438918e+002,4.236768e+001
9.448561e+002,4.453650e+001
9.458203e+002,4.728674e+001
9.467845e+002,5.113745e+001
9.477488e+002,5.440814e+001
9.487130e+002,5.519513e+001
9.496772e+002,5.508264e+001
9.506415e+002,5.481030e+001
9.516057e+002,5.475891e+001
9.525699e+002,5.549451e+001
9.535342e+002,5.755463e+001
9.544984e+002,6.034161e+001
9.554626e+002,6.028546e+001
9.564269e+002,5.770557e+001
9.573911e+002,5.578528e+001
9.583553e+002,5.439087e+001
9.593196e+002,5.418604e+001
9.602838e+002,5.708063e+001
9.612480e+002,6.415802e+001
9.622123e+002,6.912500e+001
9.631765e+002,7.023706e+001
9.641407e+002,6.932288e+001
9.651050e+002,6.582922e+001
9.660692e+002,6.068756e+001
9.670334e+002,5.565179e+001
9.679977e+002,5.212469e+001
9.689619e+002,5.015222e+001
9.699261e+002,4.859021e+001
9.708904e+002,4.726233e+001
9.718546e+002,4.798157e+001
9.728188e+002,5.139703e+001
9.737831e+002,5.478668e+001
9.747473e+002,5.426129e+001
9.757115e+002,4.890381e+001
9.766758e+002,4.571960e+001
9.776400e+002,4.720251e+001
9.786042e+002,4.877808e+001
9.795685e+002,4.913202e+001
9.805327e+002,4.831769e+001
9.814969e+002,4.644751e+001
9.824612e+002,4.389929e+001
9.834254e+002,4.295630e+001
9.843896e+002,4.636133e+001
9.853539e+002,5.142090e+001
9.863181e+002,5.609326e+001
9.872823e+002,5.955432e+001
9.882466e+002,6.106543e+001
9.892108e+002,6.048047e+001
9.901750e+002,5.900317e+001
9.911393e+002,5.952246e+001
9.921035e+002,5.988953e+001
9.930677e+002,6.283997e+001
9.940320e+002,7.053711e+001
9.949962e+002,8.045105e+001
9.959604e+002,9.103748e+001
9.969247e+002,1.020875e+002
9.978889e+002,1.116687e+002
9.988531e+002,1.172936e+002
9.998174e+002,1.210205e+002
1.000782e+003,1.247664e+002
1.001746e+003,1.284451e+002
1.002710e+003,1.314940e+002
1.003674e+003,1.335796e+002
1.004639e+003,1.348223e+002
1.005603e+003,1.354569e+002
1.006567e+003,1.351842e+002
1.007531e+003,1.346082e+002
1.008495e+003,1.340552e+002
1.009460e+003,1.328425e+002
1.010424e+003,1.303644e+002
1.011388e+003,1.271041e+002
1.012352e+003,1.242753e+002
1.013317e+003,1.209485e+002
1.014281e+003,1.196887e+002
1.015245e+003,1.243455e+002
1.016209e+003,1.277330e+002
1.017174e+003,1.239617e+002
1.018138e+003,1.136409e+002
1.019102e+003,1.019110e+002
1.020066e+003,9.295251e+001
1.021031e+003,8.638855e+001
1.021995e+003,8.016321e+001
1.022959e+003,7.367664e+001
1.023923e+003,6.726892e+001
1.024887e+003,6.069739e+001
1.025852e+003,5.459119e+001
1.026816e+003,5.078101e+001
1.027780e+003,5.075061e+001
1.028744e+003,4.822876e+001
1.029709e+003,3.770752e+001
1.030673e+003,3.028699e+001
1.031637e+003,3.130212e+001
1.032601e+003,3.621533e+001
1.033566e+003,3.883203e+001
1.034530e+003,3.715234e+001
1.035494e+003,3.409009e+001
1.036458e+003,3.165515e+001
1.037422e+003,3.022034e+001
1.038387e+003,3.116626e+001
1.039351e+003,3.404712e+001
1.040315e+003,3.626306e+001
1.041279e+003,3.586218e+001
1.042244e+003,3.394446e+001
1.043208e+003,3.492493e+001
1.044172e+003,4.134790e+001
1.045136e+003,4.504175e+001
1.046101e+003,4.551489e+001
1.047065e+003,4.437402e+001
1.048029e+003,4.146960e+001
1.048993e+003,3.746521e+001
1.049958e+003,3.459521e+001
1.050922e+003,3.431250e+001
1.051886e+003,3.547510e+001
1.052850e+003,3.697925e+001
1.053814e+003,3.875659e+001
1.054779e+003,4.126538e+001
1.055743e+003,4.422058e+001
1.056707e+003,4.586963e+001
1.057671e+003,4.398499e+001
1.058636e+003,3.841260e+001
1.059600e+003,3.494702e+001
1.060564e+003,3.617603e+001
1.061528e+003,3.714160e+001
1.062493e+003,3.629199e+001
1.063457e+003,3.433948e+001
1.064421e+003,3.227649e+001
1.065385e+003,3.048584e+001
1.066349e+003,2.920276e+001
1.067314e+003,2.838135e+001
1.068278e+003,2.847827e+001
1.069242e+003,3.062512e+001
1.070206e+003,3.384241e+001
1.071171e+003,3.621191e+001
1.072135e+003,3.675110e+001
1.073099e+003,3.630139e+001
1.074063e+003,3.682678e+001
1.075028e+003,3.877417e+001
1.075992e+003,3.850745e+001
1.076956e+003,3.417114e+001
1.077920e+003,3.014368e+001
1.078885e+003,2.843005e+001
1.079849e+003,2.872144e+001
1.080813e+003,3.070764e+001
1.081777e+003,3.503613e+001
1.082741e+003,3.779858e+001
1.083706e+003,3.353320e+001
1.084670e+003,2.889478e+001
1.085634e+003,2.744617e+001
1.086598e+003,2.857336e+001
1.087563e+003,3.106995e+001
1.088527e+003,3.430615e+001
1.089491e+003,3.754187e+001
1.090455e+003,3.825354e+001
1.091420e+003,3.560278e+001
1.092384e+003,3.425537e+001
1.093348e+003,3.432776e+001
1.094312e+003,3.453015e+001
1.095276e+003,3.471985e+001
1.096241e+003,3.517090e+001
1.097205e+003,3.541309e+001
1.098169e+003,3.444727e+001
1.099133e+003,3.466492e+001
1.100098e+003,3.950916e+001
1.101062e+003,4.395300e+001
1.102026e+003,4.377832e+001
1.102990e+003,4.066284e+001
1.103955e+003,3.897729e+001
1.104919e+003,4.126147e+001
1.105883e+003,4.576746e+001
1.106847e+003,4.953650e+001
1.107812e+003,5.232214e+001
1.108776e+003,5.251172e+001
1.109740e+003,4.867053e+001
1.110704e+003,4.509192e+001
1.111668e+003,4.548022e+001
1.112633e+003,4.946130e+001
1.113597e+003,5.404871e+001
1.114561e+003,5.949463e+001
1.115525e+003,6.298474e+001
1.116490e+003,6.276416e+001
1.117454e+003,6.133020e+001
1.118418e+003,5.948083e+001
1.119382e+003,5.858813e+001
1.120347e+003,6.070544e+001
1.121311e+003,6.659033e+001
1.122275e+003,7.309326e+001
1.123239e+003,7.515112e+001
1.124203e+003,7.385510e+001
1.125168e+003,7.385693e+001
1.126132e+003,7.590845e+001
1.127096e+003,7.867603e+001
1.128060e+003,8.036475e+001
1.129025e+003,8.132568e+001
1.129989e+003,8.456738e+001
1.130953e+003,9.146228e+001
1.131917e+003,9.730762e+001
1.132882e+003,1.006521e+002
1.133846e+003,1.034523e+002
1.134810e+003,1.065923e+002
1.135774e+003,1.103381e+002
1.136739e+003,1.141715e+002
1.137703e+003,1.178137e+002
1.138667e+003,1.230267e+002
1.139631e+003,1.340599e+002
1.140595e+003,1.499740e+002
1.141560e+003,1.627767e+002
1.142524e+003,1.713062e+002
1.143488e+003,1.814597e+002
1.144452e+003,1.964774e+002
1.145417e+003,2.160408e+002
1.146381e+003,2.394135e+002
1.147345e+003,2.675465e+002
1.148309e+003,2.963713e+002
1.149274e+003,3.243018e+002
1.150238e+003,3.538203e+002
1.151202e+003,3.898618e+002
1.152166e+003,4.282502e+002
1.153130e+003,4.615083e+002
1.154095e+003,4.855199e+002
1.155059e+003,5.015516e+002
1.156023e+003,5.129751e+002
1.156987e+003,5.187263e+002
1.157952e+003,5.132937e+002
1.158916e+003,4.968507e+002
1.159880e+003,4.760625e+002
1.160844e+003,4.517765e+002
1.161809e+003,4.240432e+002
1.162773e+003,3.945319e+002
1.163737e+003,3.626775e+002
1.164701e+003,3.319757e+002
1.165666e+003,3.025248e+002
1.166630e+003,2.762369e+002
1.167594e+003,2.530194e+002
1.168558e+003,2.336443e+002
1.169522e+003,2.194855e+002
1.170487e+003,2.107152e+002
1.171451e+003,2.063246e+002
1.172415e+003,2.055680e+002
1.173379e+003,2.073486e+002
1.174344e+003,2.068065e+002
1.175308e+003,2.041871e+002
1.176272e+003,2.010485e+002
1.177236e+003,1.980331e+002
1.178201e+003,1.950536e+002
1.179165e+003,1.915465e+002
1.180129e+003,1.870444e+002
1.181093e+003,1.820486e+002
1.182057e+003,1.775438e+002
1.183022e+003,1.717869e+002
1.183986e+003,1.611938e+002
1.184950e+003,1.513149e+002
1.185914e+003,1.486453e+002
1.186879e+003,1.528361e+002
1.187843e+003,1.580399e+002
1.188807e+003,1.593032e+002
1.189771e+003,1.579063e+002
1.190736e+003,1.585000e+002
1.191700e+003,1.612661e+002
1.192664e+003,1.635751e+002
1.193628e+003,1.662504e+002
1.194593e+003,1.678704e+002
1.195557e+003,1.669236e+002
1.196521e+003,1.638579e+002
1.197485e+003,1.607041e+002
1.198449e+003,1.582086e+002
1.199414e+003,1.545546e+002
1.200378e+003,1.474326e+002
1.201342e+003,1.403405e+002
1.202306e+003,1.359271e+002
1.203271e+003,1.328589e+002
1.204235e+003,1.275482e+002
1.205199e+003,1.187291e+002
1.206163e+003,1.102083e+002
1.207128e+003,1.086771e+002
1.208092e+003,1.147677e+002
1.209056e+003,1.143186e+002
1.210020e+003,1.053849e+002
1.210984e+003,9.536694e+001
1.211949e+003,8.471680e+001
1.212913e+003,7.481970e+001
1.213877e+003,6.865698e+001
1.214841e+003,6.636755e+001
1.215806e+003,6.223706e+001
1.216770e+003,5.164355e+001
1.217734e+003,4.231824e+001
1.218698e+003,4.002930e+001
1.219663e+003,4.098254e+001
1.220627e+003,4.126392e+001
1.221591e+003,3.978394e+001
1.222555e+003,3.676343e+001
1.223520e+003,3.242651e+001
1.224484e+003,2.754688e+001
1.225448e+003,2.464136e+001
1.226412e+003,2.424463e+001
1.227376e+003,2.463660e+001
1.228341e+003,2.675537e+001
1.229305e+003,2.817249e+001
1.230269e+003,2.723767e+001
1.231233e+003,2.468640e+001
1.232198e+003,2.197803e+001
1.233162e+003,1.967920e+001
1.234126e+003,1.874036e+001
1.235090e+003,2.009326e+001
1.236055e+003,2.216235e+001
1.237019e+003,2.348401e+001
1.237983e+003,2.399365e+001
1.238947e+003,2.431750e+001
1.239911e+003,2.499243e+001
1.240876e+003,2.537891e+001
1.241840e+003,2.392749e+001
1.242804e+003,2.045068e+001
1.243768e+003,1.919128e+001
1.244733e+003,2.279492e+001
1.245697e+003,2.523425e+001
1.246661e+003,2.426404e+001
1.247625e+003,2.251428e+001
1.248590e+003,2.185144e+001
1.249554e+003,2.293384e+001
1.250518e+003,2.651404e+001
1.251482e+003,3.292834e+001
1.252447e+003,3.828418e+001
1.253411e+003,3.719067e+001
1.254375e+003,3.289441e+001
1.255339e+003,3.172620e+001
1.256303e+003,3.417517e+001
1.257268e+003,3.811792e+001
1.258232e+003,4.235278e+001
1.259196e+003,4.596265e+001
1.260160e+003,4.753418e+001
1.261125e+003,4.693115e+001
1.262089e+003,4.842627e+001
1.263053e+003,5.281018e+001
1.264017e+003,5.788525e+001
1.264982e+003,6.594604e+001
1.265946e+003,7.287354e+001
1.266910e+003,7.407043e+001
1.267874e+003,7.018567e+001
1.268839e+003,6.554529e+001
1.269803e+003,6.303687e+001
1.270767e+003,6.163806e+001
1.271731e+003,5.951587e+001
1.272695e+003,5.693689e+001
1.273660e+003,5.448816e+001
1.274624e+003,5.144080e+001
1.275588e+003,4.798730e+001
1.276552e+003,4.422046e+001
1.277517e+003,4.113184e+001
1.278481e+003,4.026587e+001
1.279445e+003,4.169714e+001
1.280409e+003,4.266016e+001
1.281374e+003,4.231995e+001
1.282338e+003,4.138562e+001
1.283302e+003,4.027271e+001
1.284266e+003,3.866553e+001
1.285230e+003,3.595789e+001
1.286195e+003,3.221594e+001
1.287159e+003,2.825830e+001
1.288123e+003,2.500574e+001
1.289087e+003,2.264636e+001
1.290052e+003,2.066895e+001
1.291016e+003,1.873535e+001
1.291980e+003,1.676624e+001
1.292944e+003,1.221716e+001
1.293909e+003,9.831421e+000
1.294873e+003,1.383325e+001
1.295837e+003,2.058923e+001
1.296801e+003,2.499670e+001
1.297766e+003,2.636646e+001
1.298730e+003,2.667725e+001
1.299694e+003,2.637964e+001
1.300658e+003,2.553040e+001
1.301622e+003,2.397400e+001
1.302587e+003,2.254431e+001
1.303551e+003,2.284546e+001
1.304515e+003,2.512341e+001
1.305479e+003,2.709082e+001
1.306444e+003,2.642139e+001
1.307408e+003,2.387402e+001
1.308372e+003,2.274255e+001
1.309336e+003,2.297705e+001
1.310301e+003,2.472021e+001
1.311265e+003,3.248657e+001
1.312229e+003,3.679749e+001
1.313193e+003,3.158911e+001
1.314157e+003,2.344739e+001
1.315122e+003,1.934973e+001
1.316086e+003,1.976392e+001
1.317050e+003,2.068188e+001
1.318014e+003,1.973511e+001
1.318979e+003,1.829736e+001
1.319943e+003,1.838831e+001
1.320907e+003,2.018103e+001
1.321871e+003,2.259094e+001
1.322836e+003,2.512146e+001
1.323800e+003,2.718530e+001
1.324764e+003,2.897070e+001
1.325728e+003,3.007458e+001
1.326693e+003,2.901099e+001
1.327657e+003,2.538538e+001
1.328621e+003,2.269629e+001
1.329585e+003,2.384180e+001
1.330549e+003,2.598035e+001
1.331514e+003,2.623401e+001
1.332478e+003,2.529822e+001
1.333442e+003,2.435864e+001
1.334406e+003,2.367065e+001
1.335371e+003,2.247241e+001
1.336335e+003,2.034497e+001
1.337299e+003,1.849133e+001
1.338263e+003,1.921008e+001
1.339228e+003,2.307690e+001
1.340192e+003,2.426624e+001
1.341156e+003,1.892102e+001
1.342120e+003,1.667896e+001
1.343084e+003,2.147803e+001
1.344049e+003,2.653284e+001
1.345013e+003,2.588989e+001
1.345977e+003,2.141895e+001
1.346941e+003,1.937610e+001
1.347906e+003,2.206836e+001
1.348870e+003,2.549304e+001
1.349834e+003,2.558472e+001
1.350798e+003,2.381653e+001
1.351763e+003,2.462402e+001
1.352727e+003,2.736157e+001
1.353691e+003,2.664856e+001
1.354655e+003,1.958569e+001
1.355620e+003,1.208289e+001
1.356584e+003,1.216248e+001
1.357548e+003,1.895752e+001
1.358512e+003,2.280615e+001
1.359476e+003,2.177539e+001
1.360441e+003,2.003381e+001
1.361405e+003,1.804224e+001
1.362369e+003,1.685156e+001
1.363333e+003,1.726196e+001
1.364298e+003,1.872668e+001
1.365262e+003,2.118140e+001
1.366226e+003,2.403113e+001
1.367190e+003,2.521545e+001
1.368155e+003,2.283350e+001
1.369119e+003,1.829321e+001
1.370083e+003,1.621533e+001
1.371047e+003,1.766479e+001
1.372011e+003,1.852515e+001
1.372976e+003,1.744958e+001
1.373940e+003,1.633191e+001
1.374904e+003,1.569031e+001
1.375868e+003,1.599585e+001
1.376833e+003,1.831299e+001
1.377797e+003,2.210547e+001
1.378761e+003,2.442249e+001
1.379725e+003,2.392139e+001
1.380690e+003,2.246838e+001
1.381654e+003,2.183337e+001
1.382618e+003,2.175476e+001
1.383582e+003,2.170508e+001
1.384547e+003,2.169629e+001
1.385511e+003,2.202515e+001
1.386475e+003,2.259521e+001
1.387439e+003,2.344177e+001
1.388403e+003,2.514111e+001
1.389368e+003,2.762427e+001
1.390332e+003,2.860645e+001
1.391296e+003,2.772717e+001
1.392260e+003,2.671484e+001
1.393225e+003,2.520898e+001
1.394189e+003,2.419678e+001
1.395153e+003,2.504175e+001
1.396117e+003,2.645337e+001
1.397082e+003,2.583789e+001
1.398046e+003,2.321033e+001
1.399010e+003,2.221765e+001
1.399974e+003,2.600061e+001
1.400938e+003,3.150732e+001
1.401903e+003,3.062524e+001
1.402867e+003,2.243433e+001
1.403831e+003,1.911902e+001
1.404795e+003,2.152246e+001
1.405760e+003,2.586060e+001
1.406724e+003,3.214307e+001
1.407688e+003,3.683765e+001
1.408652e+003,3.608191e+001
1.409617e+003,3.117834e+001
1.410581e+003,2.730164e+001
1.411545e+003,2.657959e+001
1.412509e+003,2.661414e+001
1.413474e+003,2.401318e+001
1.414438e+003,2.049219e+001
1.415402e+003,2.064075e+001
1.416366e+003,2.436926e+001
1.417330e+003,2.756250e+001
1.418295e+003,2.847131e+001
1.419259e+003,2.896692e+001
1.420223e+003,3.151782e+001
1.421187e+003,3.514136e+001
1.422152e+003,3.536084e+001
1.423116e+003,3.103918e+001
1.424080e+003,2.904016e+001
1.425044e+003,3.240857e+001
1.426009e+003,3.606616e+001
1.426973e+003,3.879260e+001
1.427937e+003,4.007751e+001
1.428901e+003,3.881396e+001
1.429865e+003,3.596216e+001
1.430830e+003,3.447058e+001
1.431794e+003,3.597766e+001
1.432758e+003,3.848157e+001
1.433722e+003,3.858032e+001
1.434687e+003,3.669727e+001
1.435651e+003,3.856055e+001
1.436615e+003,4.467896e+001
1.437579e+003,4.972388e+001
1.438544e+003,5.477844e+001
1.439508e+003,5.758716e+001
1.440472e+003,5.567896e+001
1.441436e+003,5.154749e+001
1.442401e+003,4.960596e+001
1.443365e+003,5.054944e+001
1.444329e+003,5.100842e+001
1.445293e+003,4.841211e+001
1.446257e+003,4.495813e+001
1.447222e+003,4.490308e+001
1.448186e+003,4.743311e+001
1.449150e+003,4.860986e+001
1.450114e+003,4.779834e+001
1.451079e+003,4.604834e+001
1.452043e+003,4.333203e+001
1.453007e+003,4.116724e+001
1.453971e+003,4.195764e+001
1.454936e+003,4.493127e+001
1.455900e+003,4.570056e+001
1.456864e+003,4.284204e+001
1.457828e+003,4.072852e+001
1.458792e+003,4.274792e+001
1.459757e+003,4.496973e+001
1.460721e+003,4.373730e+001
1.461685e+003,4.038110e+001
1.462649e+003,3.787549e+001
1.463614e+003,3.727893e+001
1.464578e+003,3.789502e+001
1.465542e+003,3.901306e+001
1.466506e+003,4.024316e+001
1.467471e+003,4.130981e+001
1.468435e+003,4.310852e+001
1.469399e+003,4.375098e+001
1.470363e+003,4.008496e+001
1.471328e+003,3.817664e+001
1.472292e+003,3.915552e+001
1.473256e+003,4.126282e+001
1.474220e+003,4.555383e+001
1.475184e+003,5.055981e+001
1.476149e+003,5.260388e+001
1.477113e+003,5.063074e+001
1.478077e+003,4.827014e+001
1.479041e+003,4.959558e+001
1.480006e+003,5.331958e+001
1.480970e+003,5.363330e+001
1.481934e+003,4.802112e+001
1.482898e+003,4.718433e+001
1.483863e+003,5.417395e+001
1.484827e+003,6.077527e+001
1.485791e+003,6.657666e+001
1.486755e+003,7.062683e+001
1.487719e+003,7.043250e+001
1.488684e+003,6.731995e+001
1.489648e+003,6.498938e+001
1.490612e+003,6.501123e+001
1.491576e+003,6.823755e+001
1.492541e+003,7.593237e+001
1.493505e+003,8.549353e+001
1.494469e+003,9.109570e+001
1.495433e+003,9.279004e+001
1.496398e+003,9.446973e+001
1.497362e+003,9.706201e+001
1.498326e+003,1.014227e+002
1.499290e+003,1.081819e+002
1.500255e+003,1.166036e+002
1.501219e+003,1.249384e+002
1.502183e+003,1.334985e+002
1.503147e+003,1.455072e+002
1.504111e+003,1.621013e+002
1.505076e+003,1.798795e+002
1.506040e+003,1.970562e+002
1.507004e+003,2.147072e+002
1.507968e+003,2.324312e+002
1.508933e+003,2.517736e+002
1.509897e+003,2.762883e+002
1.510861e+003,3.074058e+002
1.511825e+003,3.429360e+002
1.512790e+003,3.811257e+002
1.513754e+003,4.211353e+002
1.514718e+003,4.629594e+002
1.515682e+003,5.059844e+002
1.516646e+003,5.473192e+002
1.517611e+003,5.890198e+002
1.518575e+003,6.253401e+002
1.519539e+003,6.537161e+002
1.520503e+003,6.783108e+002
1.521468e+003,7.044967e+002
1.522432e+003,7.258608e+002
1.523396e+003,7.328112e+002
1.524360e+003,7.250231e+002
1.525325e+003,7.098347e+002
1.526289e+003,6.923123e+002
1.527253e+003,6.719091e+002
1.528217e+003,6.474957e+002
1.529182e+003,6.196085e+002
1.530146e+003,5.850273e+002
1.531110e+003,5.399996e+002
1.532074e+003,4.938409e+002
1.533039e+003,4.453190e+002
1.534003e+003,3.955483e+002
1.534967e+003,3.440559e+002
1.535931e+003,2.947247e+002
1.536896e+003,2.506637e+002
1.537860e+003,2.127954e+002
1.538824e+003,1.806553e+002
1.539788e+003,1.537251e+002
1.540752e+003,1.325121e+002
1.541717e+003,1.183483e+002
1.542681e+003,1.107439e+002
1.543645e+003,1.043555e+002
1.544609e+003,1.013619e+002
1.545573e+003,9.553577e+001
1.546538e+003,8.248047e+001
1.547502e+003,7.064001e+001
1.548466e+003,6.382288e+001
1.549430e+003,6.061780e+001
1.550395e+003,5.961597e+001
1.551359e+003,5.991418e+001
1.552323e+003,6.141724e+001
1.553287e+003,6.390942e+001
1.554252e+003,6.410742e+001
1.555216e+003,5.846863e+001
1.556180e+003,5.006250e+001
1.557144e+003,4.626270e+001
1.558109e+003,4.752698e+001
1.559073e+003,4.886401e+001
1.560037e+003,5.037842e+001
1.561001e+003,4.944141e+001
1.561966e+003,4.384155e+001
1.562930e+003,3.841687e+001
1.563894e+003,3.730164e+001
1.564858e+003,3.919617e+001
1.565823e+003,4.135840e+001
1.566787e+003,4.305859e+001
1.567751e+003,4.398389e+001
1.568715e+003,4.433960e+001
1.569679e+003,4.344604e+001
1.570644e+003,3.890833e+001
1.571608e+003,3.216370e+001
1.572572e+003,2.845740e+001
1.573536e+003,2.837842e+001
1.574500e+003,3.001746e+001
1.575465e+003,3.295605e+001
1.576429e+003,3.662610e+001
1.577393e+003,4.134436e+001
1.578357e+003,4.570288e+001
1.579322e+003,4.675525e+001
1.580286e+003,4.481274e+001
1.581250e+003,4.410864e+001
1.582214e+003,4.622363e+001
1.583179e+003,4.863257e+001
1.584143e+003,4.967639e+001
1.585107e+003,4.913843e+001
1.586071e+003,4.716589e+001
1.587036e+003,4.482300e+001
1.588000e+003,4.315662e+001
1.588964e+003,4.189490e+001
1.589928e+003,4.160400e+001
1.590893e+003,4.313074e+001
1.591857e+003,4.561621e+001
1.592821e+003,4.808594e+001
1.593785e+003,5.054407e+001
1.594750e+003,5.218201e+001
1.595714e+003,5.241748e+001
1.596678e+003,5.311133e+001
1.597642e+003,5.552332e+001
1.598606e+003,5.802039e+001
1.599571e+003,5.956604e+001
1.600535e+003,6.065686e+001
1.601499e+003,6.151367e+001
1.602463e+003,6.213940e+001
1.603427e+003,6.340613e+001
1.604392e+003,6.601123e+001
1.605356e+003,6.700964e+001
1.606320e+003,6.205188e+001
1.607284e+003,5.369434e+001
1.608249e+003,4.941003e+001
1.609213e+003,4.936609e+001
1.610177e+003,4.877209e+001
1.611141e+003,4.638501e+001
1.612106e+003,4.461304e+001
1.613070e+003,4.598499e+001
1.614034e+003,4.698474e+001
1.614998e+003,4.378479e+001
1.615963e+003,3.902100e+001
1.616927e+003,3.768604e+001
1.617891e+003,3.995056e+001
1.618855e+003,4.123535e+001
1.619820e+003,3.844434e+001
1.620784e+003,3.356543e+001
1.621748e+003,3.011682e+001
1.622712e+003,2.878137e+001
1.623677e+003,2.880847e+001
1.624641e+003,3.041772e+001
1.625605e+003,3.251855e+001
1.626569e+003,3.370215e+001
1.627533e+003,3.425574e+001
1.628498e+003,3.569995e+001
1.629462e+003,3.681201e+001
1.630426e+003,3.496570e+001
1.631390e+003,3.204688e+001
1.632354e+003,3.347974e+001
1.633319e+003,3.982300e+001
1.634283e+003,4.384583e+001
1.635247e+003,3.961353e+001
1.636211e+003,3.147180e+001
1.637176e+003,2.739832e+001
1.638140e+003,2.742639e+001
1.639104e+003,2.816272e+001
1.640068e+003,2.992957e+001
1.641033e+003,2.953918e+001
1.641997e+003,2.380005e+001
1.642961e+003,1.982751e+001
1.643925e+003,2.221265e+001
1.644890e+003,2.686157e+001
1.645854e+003,3.033594e+001
1.646818e+003,3.225342e+001
1.647782e+003,3.281604e+001
1.648747e+003,3.214807e+001
1.649711e+003,3.119983e+001
1.650675e+003,3.106860e+001
1.651639e+003,3.166858e+001
1.652604e+003,3.205701e+001
1.653568e+003,3.192786e+001
1.654532e+003,3.186353e+001
1.655496e+003,3.206445e+001
1.656460e+003,3.171399e+001
1.657425e+003,3.003174e+001
1.658389e+003,2.898962e+001
1.659353e+003,3.075378e+001
1.660317e+003,3.273706e+001
1.661281e+003,3.204761e+001
1.662246e+003,2.887280e+001
1.663210e+003,2.434241e+001
1.664174e+003,1.919995e+001
1.665138e+003,1.613782e+001
1.666103e+003,1.768274e+001
1.667067e+003,2.151440e+001
1.668031e+003,2.378552e+001
1.668995e+003,2.462073e+001
1.669960e+003,2.356360e+001
1.670924e+003,2.010205e+001
1.671888e+003,1.744519e+001
1.672852e+003,1.605688e+001
1.673817e+003,1.583044e+001
1.674781e+003,1.769641e+001
1.675745e+003,1.976245e+001
1.676709e+003,1.994189e+001
1.677674e+003,1.839551e+001
1.678638e+003,1.560254e+001
1.679602e+003,1.178259e+001
1.680566e+003,9.847046e+000
1.681531e+003,1.350525e+001
1.682495e+003,1.920435e+001
1.683459e+003,1.994995e+001
1.684423e+003,1.619629e+001
1.685387e+003,1.277527e+001
1.686352e+003,1.018640e+001
1.687316e+003,8.971069e+000
1.688280e+003,9.832275e+000
1.689244e+003,1.104419e+001
1.690208e+003,1.060608e+001
1.691173e+003,1.004272e+001
1.692137e+003,1.204602e+001
1.693101e+003,1.602686e+001
1.694065e+003,1.848071e+001
1.695030e+003,1.799744e+001
1.695994e+003,1.650439e+001
1.696958e+003,1.507593e+001
1.697922e+003,1.402710e+001
1.698887e+003,1.440967e+001
1.699851e+003,1.553320e+001
1.700815e+003,1.409961e+001
1.701779e+003,9.668091e+000
1.702744e+003,7.010498e+000
1.703708e+003,8.646729e+000
1.704672e+003,1.089563e+001
1.705636e+003,9.874756e+000
1.706601e+003,7.590210e+000
1.707565e+003,8.738892e+000
1.708529e+003,1.234729e+001
1.709493e+003,1.374023e+001
1.710458e+003,1.204871e+001
1.711422e+003,1.044995e+001
1.712386e+003,1.091809e+001
1.713350e+003,1.205786e+001
1.714314e+003,1.281555e+001
1.715279e+003,1.241125e+001
1.716243e+003,8.918823e+000
1.717207e+003,3.422119e+000
1.718171e+003,1.454712e+000
1.719135e+003,4.662476e+000
1.720100e+003,7.693481e+000
1.721064e+003,6.706909e+000
1.722028e+003,3.687378e+000
1.722992e+003,1.604492e+000
1.723957e+003,1.057129e+000
1.724921e+003,2.280029e+000
1.725885e+003,4.869995e+000
1.726849e+003,5.296387e+000
1.727814e+003,2.546387e+000
1.728778e+003,3.562012e-001
1.729742e+003,3.043213e-001
1.730706e+003,1.115234e+000
1.731671e+003,3.726807e-001
1.732635e+003,-1.183105e+000
1.733599e+003,4.904785e-001
1.734563e+003,5.709229e+000
1.735528e+003,8.928833e+000
1.736492e+003,6.981812e+000
1.737456e+003,3.502686e+000
1.738420e+003,2.911255e+000
1.739385e+003,3.555908e+000
1.740349e+003,8.636475e-001
1.741313e+003,-5.951904e+000
1.742277e+003,-9.821899e+000
1.743241e+003,-9.631958e+000
1.744206e+003,-7.556885e+000
1.745170e+003,-2.717773e+000
1.746134e+003,2.017700e+000
1.747098e+003,5.624390e+000
1.748063e+003,7.787964e+000
1.749027e+003,8.053101e+000
1.749991e+003,6.894287e+000
1.750955e+003,4.833252e+000
1.751919e+003,2.258423e+000
1.752884e+003,3.342285e-001
1.753848e+003,3.771973e-002
1.754812e+003,6.267090e-001
1.755776e+003,1.124390e+000
1.756741e+003,2.023682e+000
1.757705e+003,2.352295e+000
1.758669e+003,1.002319e+000
1.759633e+003,9.581299e-001
1.760598e+003,3.877808e+000
1.761562e+003,5.224243e+000
1.762526e+003,3.904053e+000
1.763490e+003,1.482056e+000
1.764455e+003,-1.856445e+000
1.765419e+003,-4.929199e+000
1.766383e+003,-6.970581e+000
1.767347e+003,-7.751953e+000
1.768312e+003,-5.877441e+000
1.769276e+003,-7.773438e-001
1.770240e+003,4.119263e+000
1.771204e+003,6.118896e+000
1.772168e+003,6.336060e+000
1.773133e+003,5.979492e+000
1.774097e+003,5.000610e+000
1.775061e+003,2.703979e+000
1.776025e+003,-1.981201e+000
1.776990e+003,-4.954346e+000
1.777954e+003,-3.666260e+000
1.778918e+003,-9.969482e-001
1.779882e+003,1.217285e+000
1.780846e+003,2.352661e+000
1.781811e+003,1.604980e+000
1.782775e+003,-1.398926e-001
1.783739e+003,-1.379395e-001
1.784703e+003,2.396484e+000
1.785668e+003,4.289673e+000
1.786632e+003,2.942627e+000
1.787596e+003,8.380127e-001
1.788560e+003,3.681641e-001
1.789525e+003,1.384033e+000
1.790489e+003,3.358398e+000
1.791453e+003,5.525879e+000
1.792417e+003,6.937622e+000
1.793382e+003,7.344849e+000
1.794346e+003,6.080688e+000
1.795310e+003,2.554932e+000
1.796274e+003,-1.009277e+000
1.797239e+003,-1.572510e+000
1.798203e+003,4.925537e-001
1.799167e+003,1.759521e+000
1.800131e+003,8.894043e-001
1.801095e+003,-2.218018e-001
1.802060e+003,-5.510254e-001
1.803024e+003,-4.125977e-001
1.803988e+003,1.416016e-001
1.804952e+003,3.371582e-001
1.805917e+003,-6.602783e-001
1.806881e+003,-1.833374e+000
1.807845e+003,-1.452026e+000
1.808809e+003,-2.670898e-001
1.809773e+003,-4.643555e-001
1.810738e+003,-2.291260e+000
1.811702e+003,-4.092163e+000
1.812666e+003,-4.854614e+000
1.813630e+003,-4.338989e+000
1.814595e+003,-1.996338e+000
1.815559e+003,1.447632e+000
1.816523e+003,3.857300e+000
1.817487e+003,5.400879e+000
1.818452e+003,5.312378e+000
1.819416e+003,3.241455e+000
1.820380e+003,2.255005e+000
1.821344e+003,4.216064e+000
1.822309e+003,4.745605e+000
1.823273e+003,-3.656006e-001
1.824237e+003,-5.959106e+000
1.825201e+003,-7.046753e+000
1.826166e+003,-4.734009e+000
1.827130e+003,-1.639404e+000
1.828094e+003,1.462280e+000
1.829058e+003,2.986816e+000
1.830022e+003,2.578247e+000
1.830987e+003,5.378418e-001
1.831951e+003,-4.836060e+000
1.832915e+003,-1.025745e+001
1.833879e+003,-1.045813e+001
1.834844e+003,-6.667603e+000
1.835808e+003,-2.440063e+000
1.836772e+003,1.358032e+000
1.837736e+003,2.942017e+000
1.838700e+003,1.176025e+000
1.839665e+003,-1.594116e+000
1.840629e+003,-3.062012e+000
1.841593e+003,-3.538330e+000
1.842557e+003,-4.208252e+000
1.843522e+003,-5.084717e+000
1.844486e+003,-4.700317e+000
1.845450e+003,-1.217041e+000
1.846414e+003,1.473145e+000
1.847379e+003,1.933960e+000
1.848343e+003,1.592529e+000
1.849307e+003,1.217651e+000
1.850271e+003,4.974365e-001
1.851236e+003,-6.286621e-001
1.852200e+003,-1.793579e+000
1.853164e+003,-3.872070e+000
1.854128e+003,-6.537231e+000
1.855093e+003,-6.795166e+000
1.856057e+003,-3.466553e+000
1.857021e+003,-7.827148e-001
1.857985e+003,-2.808228e+000
1.858949e+003,-6.854248e+000
1.859914e+003,-8.068970e+000
1.860878e+003,-6.777466e+000
1.861842e+003,-5.874878e+000
1.862806e+003,-5.611084e+000
1.863771e+003,-4.213867e+000
1.864735e+003,-1.186890e+000
1.865699e+003,6.864014e-001
1.866663e+003,-2.485352e-001
1.867627e+003,-6.771240e-001
1.868592e+003,3.342041e+000
1.869556e+003,8.020264e+000
1.870520e+003,6.690674e+000
1.871484e+003,1.834717e-001
1.872449e+003,-6.036865e+000
1.873413e+003,-1.075635e+001
1.874377e+003,-1.124731e+001
1.875341e+003,-6.328125e+000
1.876306e+003,-4.351807e-001
1.877270e+003,5.851563e+000
1.878234e+003,1.000842e+001
1.879198e+003,8.487183e+000
1.880163e+003,3.899658e+000
1.881127e+003,1.030396e+000
1.882091e+003,4.205322e-001
1.883055e+003,-3.728027e-001
1.884020e+003,-2.342407e+000
1.884984e+003,-3.730225e+000
1.885948e+003,-2.864624e+000
1.886912e+003,-8.405762e-001
1.887876e+003,3.706055e-001
1.888841e+003,8.060303e-001
1.889805e+003,-3.834229e-001
1.890769e+003,-3.927124e+000
1.891733e+003,-4.994019e+000
1.892698e+003,-2.639404e+000
1.893662e+003,-8.374023e-002
1.894626e+003,2.763306e+000
1.895590e+003,4.383545e+000
1.896554e+003,3.674194e+000
1.897519e+003,1.857178e+000
1.898483e+003,-1.625854e+000
1.899447e+003,-5.853394e+000
1.900411e+003,-5.409058e+000
1.901376e+003,1.179321e+000
1.902340e+003,5.515015e+000
1.903304e+003,2.932617e+000
1.904268e+003,-4.821777e-001
1.905233e+003,-1.638916e+000
1.906197e+003,-8.198242e-001
1.907161e+003,3.886230e+000
1.908125e+003,9.472046e+000
1.909090e+003,9.024048e+000
1.910054e+003,3.330322e+000
1.911018e+003,-5.863037e-001
1.911982e+003,-4.699707e-002
1.912947e+003,2.855835e+000
1.913911e+003,6.423828e+000
1.914875e+003,9.478027e+000
1.915839e+003,9.911255e+000
1.916803e+003,7.707397e+000
1.917768e+003,4.776123e+000
1.918732e+003,1.097290e+000
1.919696e+003,-2.648926e-001
1.920660e+003,2.089844e+000
1.921625e+003,3.869019e+000
1.922589e+003,3.218994e+000
1.923553e+003,2.516724e+000
1.924517e+003,2.628174e+000
1.925481e+003,3.736450e+000
1.926446e+003,7.779541e+000
1.927410e+003,1.232874e+001
1.928374e+003,1.179565e+001
1.929338e+003,5.888062e+000
1.930303e+003,3.192139e-001
1.931267e+003,-3.286987e+000
1.932231e+003,-4.228882e+000
1.933195e+003,-9.049072e-001
1.934160e+003,2.372925e+000
1.935124e+003,1.506958e+000
1.936088e+003,-7.471924e-001
1.937052e+003,5.672607e-001
1.938017e+003,3.775513e+000
1.938981e+003,2.981934e+000
1.939945e+003,-1.732666e+000
1.940909e+003,-3.923462e+000
1.941874e+003,-1.153809e+000
1.942838e+003,5.095215e-001
1.943802e+003,-4.398804e+000
1.944766e+003,-1.029761e+001
1.945730e+003,-6.106201e+000
1.946695e+003,6.061523e+000
1.947659e+003,1.153381e+001
1.948623e+003,9.501831e+000
1.949587e+003,8.942017e+000
1.950552e+003,1.238184e+001
1.951516e+003,1.153271e+001
1.952480e+003,6.818848e-001
1.953444e+003,-8.770020e+000
1.954408e+003,-8.075562e+000
1.955373e+003,-3.151001e+000
1.956337e+003,-8.422852e-001
1.957301e+003,-1.431885e-001
1.958265e+003,3.990479e-001
1.959230e+003,9.666748e-001
1.960194e+003,7.272949e-001
1.961158e+003,-4.638794e+000
1.962122e+003,-6.374756e+000
1.963087e+003,2.197021e+000
1.964051e+003,9.890503e+000
1.965015e+003,1.087476e+001
1.965979e+003,8.499390e+000
1.966944e+003,3.653320e+000
1.967908e+003,-1.469971e+000
1.968872e+003,-2.665039e+000
1.969836e+003,-2.374268e-001
1.970801e+003,1.146362e+000
1.971765e+003,-3.875732e-001
1.972729e+003,-2.215210e+000
1.973693e+003,-2.316772e+000
1.974657e+003,-1.136841e+000
1.975622e+003,7.506104e-001
1.976586e+003,2.959229e+000
1.977550e+003,5.281616e+000
1.978514e+003,7.815796e+000
1.979479e+003,1.052246e+001
1.980443e+003,1.309949e+001
1.981407e+003,1.269080e+001
1.982371e+003,8.282227e+000
1.983335e+003,4.574707e+000
1.984300e+003,4.996948e+000
1.985264e+003,6.256226e+000
1.986228e+003,3.328735e+000
1.987192e+003,-2.400269e+000
1.988157e+003,-3.388550e+000
1.989121e+003,1.928589e+000
1.990085e+003,5.171509e+000
1.991049e+003,6.232666e+000
1.992014e+003,6.135864e+000
1.992978e+003,3.555054e+000
1.993942e+003,1.113770e+000
1.994906e+003,-6.604004e-001
1.995871e+003,-1.561890e+000
1.996835e+003,-1.081909e+000
1.997799e+003,5.451660e-001
1.998763e+003,3.567871e+000
1.999728e+003,6.876343e+000
