5.003444e+002,2.022290e+001
5.013087e+002,2.267096e+001
5.022729e+002,2.095667e+001
5.032371e+002,1.691418e+001
5.042014e+002,1.599365e+001
5.051656e+002,1.777625e+001
5.061298e+002,1.991748e+001
5.070941e+002,2.018793e+001
5.080583e+002,1.791901e+001
5.090225e+002,1.640570e+001
5.099868e+002,1.541742e+001
5.109510e+002,1.507507e+001
5.119152e+002,1.570642e+001
5.128795e+002,1.741217e+001
5.138437e+002,1.901404e+001
5.148079e+002,2.073907e+001
5.157722e+002,2.190308e+001
5.167364e+002,2.167224e+001
5.177006e+002,2.012427e+001
5.186649e+002,1.833997e+001
5.196291e+002,1.834045e+001
5.205933e+002,1.904865e+001
5.215576e+002,1.843378e+001
5.225218e+002,1.620013e+001
5.234860e+002,1.335797e+001
5.244503e+002,1.211871e+001
5.254145e+002,1.364795e+001
5.263787e+002,1.389032e+001
5.273430e+002,1.219305e+001
5.283072e+002,9.665894e+000
5.292714e+002,7.617188e+000
5.302357e+002,5.571838e+000
5.311999e+002,4.110474e+000
5.321641e+002,3.966064e+000
5.331284e+002,4.534973e+000
5.340926e+002,5.090637e+000
5.350568e+002,5.157898e+000
5.360211e+002,5.441406e+000
5.369853e+002,8.124573e+000
5.379495e+002,1.114435e+001
5.389138e+002,1.233032e+001
5.398780e+002,1.094055e+001
5.408422e+002,8.069519e+000
5.418065e+002,6.698853e+000
5.427707e+002,6.674133e+000
5.437349e+002,7.489502e+000
5.446992e+002,9.276672e+000
5.456634e+002,1.157092e+001
5.466276e+002,1.287299e+001
5.475919e+002,1.267053e+001
5.485561e+002,1.215790e+001
5.495203e+002,1.136804e+001
5.504846e+002,1.003284e+001
5.514488e+002,7.587952e+000
5.524130e+002,3.086426e+000
5.533773e+002,-1.788940e-001
5.543415e+002,-4.085693e-001
5.553057e+002,1.013367e+000
5.562700e+002,3.084473e+000
5.572342e+002,5.114197e+000
5.581984e+002,6.367676e+000
5.591627e+002,4.466980e+000
5.601269e+002,9.230347e-001
5.610911e+002,-1.422668e+000
5.620554e+002,-1.133057e+000
5.630196e+002,1.286133e+000
5.639838e+002,2.450195e+000
5.649481e+002,1.868103e+000
5.659123e+002,8.229980e-001
5.668765e+002,-4.918213e-001
5.678408e+002,-1.687805e+000
5.688050e+002,-2.221313e+000
5.697692e+002,-2.444641e+000
5.707335e+002,-2.222961e+000
5.716977e+002,-2.483521e-001
5.726619e+002,2.016357e+000
5.736262e+002,2.628113e+000
5.745904e+002,1.932373e-001
5.755546e+002,-3.833923e+000
5.765189e+002,-8.805176e+000
5.774831e+002,-1.372302e+001
5.784473e+002,-1.572974e+001
5.794116e+002,-1.276038e+001
5.803758e+002,-5.252747e+000
5.813400e+002,-1.928772e+000
5.823043e+002,-4.102234e+000
5.832685e+002,-6.728760e+000
5.842327e+002,-8.078308e+000
5.851970e+002,-8.059753e+000
5.861612e+002,-7.486755e+000
5.871254e+002,-6.452637e+000
5.880897e+002,-5.263855e+000
5.890539e+002,-3.359924e+000
5.900181e+002,-1.647034e+000
5.909824e+002,-1.729858e+000
5.919466e+002,-5.270142e+000
5.929108e+002,-9.069275e+000
5.938751e+002,-9.871460e+000
5.948393e+002,-8.677429e+000
5.958035e+002,-6.715332e+000
5.967678e+002,-4.860657e+000
5.977320e+002,-3.070801e+000
5.986962e+002,-2.172241e+000
5.996605e+002,-2.484863e+000
6.006247e+002,-3.104980e+000
6.015889e+002,-3.598022e+000
6.025532e+002,-3.947144e+000
6.035174e+002,-4.511292e+000
6.044816e+002,-6.187439e+000
6.054459e+002,-6.912903e+000
6.064101e+002,-5.635315e+000
6.073743e+002,-3.352051e+000
6.083386e+002,-1.935669e+000
6.093028e+002,-2.776306e+000
6.102670e+002,-3.573730e+000
6.112313e+002,-2.439575e+000
6.121955e+002,-3.266602e-001
6.131597e+002,1.700745e+000
6.141240e+002,2.874817e+000
6.150882e+002,3.129150e+000
6.160524e+002,1.756653e+000
6.170167e+002,-7.729492e-001
6.179809e+002,-2.276184e+000
6.189451e+002,-1.468872e+000
6.199094e+002,1.009949e+000
6.208736e+002,1.457642e+000
6.218378e+002,-2.636780e+000
6.228021e+002,-5.252380e+000
6.237663e+002,-4.962830e+000
6.247305e+002,-3.003540e+000
6.256948e+002,-1.660950e+000
6.266590e+002,-2.519592e+000
6.276232e+002,-3.200500e+000
6.285875e+002,-1.514832e+000
6.295517e+002,1.152222e+000
6.305159e+002,3.383423e+000
6.314802e+002,4.275574e+000
6.324444e+002,3.946411e+000
6.334086e+002,2.516357e+000
6.343729e+002,6.510620e-001
6.353371e+002,-4.031982e-001
6.363013e+002,-1.749878e-001
6.372656e+002,8.380127e-001
6.382298e+002,1.138916e+000
6.391940e+002,-6.292725e-002
6.401583e+002,-1.283142e+000
6.411225e+002,-1.734802e+000
6.420867e+002,-1.877808e+000
6.430510e+002,-2.595459e+000
6.440152e+002,-4.574280e+000
6.449794e+002,-6.811768e+000
6.459437e+002,-9.947937e+000
6.469079e+002,-1.231769e+001
6.478721e+002,-1.185352e+001
6.488364e+002,-8.123413e+000
6.498006e+002,-3.216431e+000
6.507648e+002,-6.145630e-001
6.517291e+002,-1.065674e-001
6.526933e+002,-1.983826e+000
6.536575e+002,-6.568298e+000
6.546218e+002,-1.116229e+001
6.555860e+002,-1.023657e+001
6.565502e+002,1.136108e+000
6.575145e+002,7.219299e+000
6.584787e+002,5.032959e+000
6.594429e+002,7.733765e-001
6.604072e+002,-5.563354e-001
6.613714e+002,2.041199e+000
6.623356e+002,4.133423e+000
6.632999e+002,3.260742e+000
6.642641e+002,1.236755e+000
6.652283e+002,-1.804504e+000
6.661926e+002,-4.977539e+000
6.671568e+002,-6.475037e+000
6.681210e+002,-3.300049e+000
6.690853e+002,1.909363e+000
6.700495e+002,1.855347e+000
6.710137e+002,-3.196472e+000
6.719780e+002,-8.067810e+000
6.729422e+002,-7.034912e+000
6.739064e+002,1.368286e+000
6.748707e+002,6.196472e+000
6.758349e+002,6.432983e+000
6.767991e+002,5.333008e+000
6.777634e+002,4.011292e+000
6.787276e+002,2.805664e+000
6.796918e+002,2.164368e+000
6.806561e+002,2.278015e+000
6.816203e+002,2.346558e+000
6.825845e+002,1.900330e+000
6.835488e+002,1.252625e+000
6.845130e+002,1.123108e+000
6.854772e+002,2.203979e+000
6.864415e+002,3.814026e+000
6.874057e+002,3.542358e+000
6.883699e+002,1.747437e+000
6.893342e+002,2.309570e-001
6.902984e+002,1.292725e-001
6.912626e+002,1.274841e+000
6.922269e+002,1.788635e+000
6.931911e+002,1.513611e+000
6.941553e+002,1.774658e+000
6.951196e+002,2.611572e+000
6.960838e+002,3.480713e+000
6.970480e+002,3.712341e+000
6.980123e+002,3.040771e+000
6.989765e+002,2.520691e+000
6.999407e+002,2.465881e+000
7.009050e+002,2.663574e+000
7.018692e+002,3.046570e+000
7.028334e+002,3.494690e+000
7.037977e+002,3.749084e+000
7.047619e+002,3.505310e+000
7.057261e+002,3.146179e+000
7.066904e+002,2.920776e+000
7.076546e+002,2.846130e+000
7.086188e+002,2.842651e+000
7.095831e+002,2.747925e+000
7.105473e+002,2.210144e+000
7.115115e+002,2.209534e+000
7.124758e+002,3.012939e+000
7.134400e+002,3.757507e+000
7.144042e+002,3.901245e+000
7.153685e+002,3.575623e+000
7.163327e+002,3.780518e+000
7.172969e+002,6.797241e+000
7.182612e+002,8.729858e+000
7.192254e+002,6.285950e+000
7.201896e+002,1.352966e+000
7.211539e+002,-1.776306e+000
7.221181e+002,8.165894e-001
7.230823e+002,6.406006e+000
7.240466e+002,7.449707e+000
7.250108e+002,5.123413e+000
7.259750e+002,2.239563e+000
7.269393e+002,-1.051025e-001
7.279035e+002,-2.103210e+000
7.288677e+002,-2.570496e+000
7.298320e+002,1.372925e+000
7.307962e+002,4.676697e+000
7.317604e+002,6.787231e+000
7.327247e+002,8.269104e+000
7.336889e+002,9.608032e+000
7.346531e+002,1.040198e+001
7.356174e+002,1.064471e+001
7.365816e+002,1.171436e+001
7.375458e+002,1.256226e+001
7.385101e+002,1.178583e+001
7.394743e+002,9.362549e+000
7.404385e+002,6.924744e+000
7.414028e+002,7.099976e+000
7.423670e+002,8.595703e+000
7.433312e+002,8.164856e+000
7.442955e+002,5.909424e+000
7.452597e+002,3.942871e+000
7.462239e+002,4.669617e+000
7.471882e+002,8.911255e+000
7.481524e+002,1.157324e+001
7.491166e+002,1.061835e+001
7.500809e+002,9.734558e+000
7.510451e+002,1.114435e+001
7.520093e+002,1.396893e+001
7.529736e+002,1.470081e+001
7.539378e+002,1.040460e+001
7.549020e+002,6.551331e+000
7.558663e+002,6.646362e+000
7.568306e+002,9.156128e+000
7.577948e+002,1.219843e+001
7.587590e+002,1.442242e+001
7.597233e+002,1.549579e+001
7.606875e+002,1.450281e+001
7.616517e+002,1.198541e+001
7.626160e+002,1.042596e+001
7.635802e+002,1.080707e+001
7.645444e+002,1.226855e+001
7.655087e+002,1.297070e+001
7.664729e+002,1.261768e+001
7.674371e+002,1.177686e+001
7.684014e+002,9.649719e+000
7.693656e+002,7.820679e+000
7.703298e+002,7.603699e+000
7.712941e+002,9.055420e+000
7.722583e+002,1.067065e+001
7.732225e+002,1.155719e+001
7.741868e+002,1.189185e+001
7.751510e+002,1.155078e+001
7.761152e+002,1.081616e+001
7.770795e+002,1.018182e+001
7.780437e+002,1.003900e+001
7.790079e+002,1.024414e+001
7.799722e+002,1.043005e+001
7.809364e+002,1.063739e+001
7.819006e+002,1.058240e+001
7.828649e+002,1.016614e+001
7.838291e+002,9.739319e+000
7.847933e+002,9.926880e+000
7.857576e+002,1.049536e+001
7.867218e+002,1.119000e+001
7.876860e+002,1.313361e+001
7.886503e+002,1.498566e+001
7.896145e+002,1.523016e+001
7.905787e+002,1.361090e+001
7.915430e+002,1.203668e+001
7.925072e+002,1.280951e+001
7.934714e+002,1.401080e+001
7.944357e+002,1.387946e+001
7.953999e+002,1.259857e+001
7.963641e+002,1.108069e+001
7.973284e+002,1.016772e+001
7.982926e+002,9.847595e+000
7.992568e+002,1.094702e+001
8.002211e+002,1.381543e+001
8.011853e+002,1.563263e+001
8.021495e+002,1.544995e+001
8.031138e+002,1.428265e+001
8.040780e+002,1.431854e+001
8.050422e+002,1.615332e+001
8.060065e+002,1.790393e+001
8.069707e+002,1.837854e+001
8.079349e+002,1.841388e+001
8.088992e+002,1.923602e+001
8.098634e+002,2.129822e+001
8.108276e+002,2.358350e+001
8.117919e+002,2.453900e+001
8.127561e+002,2.370715e+001
8.137203e+002,2.051666e+001
8.146846e+002,1.537592e+001
8.156488e+002,1.113507e+001
8.166130e+002,1.123578e+001
8.175773e+002,1.646863e+001
8.185415e+002,2.080756e+001
8.195057e+002,2.396625e+001
8.204700e+002,2.618329e+001
8.214342e+002,2.694812e+001
8.223984e+002,2.683466e+001
8.233627e+002,2.769714e+001
8.243269e+002,3.179724e+001
8.252911e+002,3.367450e+001
8.262554e+002,2.833203e+001
8.272196e+002,2.077637e+001
8.281838e+002,1.618372e+001
8.291481e+002,1.634711e+001
8.301123e+002,1.893652e+001
8.310765e+002,2.007941e+001
8.320408e+002,1.976746e+001
8.330050e+002,1.984137e+001
8.339692e+002,2.065137e+001
8.349335e+002,2.132153e+001
8.358977e+002,2.062311e+001
8.368619e+002,1.829822e+001
8.378262e+002,1.802576e+001
8.387904e+002,2.248419e+001
8.397546e+002,2.545667e+001
8.407189e+002,2.399139e+001
8.416831e+002,2.040729e+001
8.426473e+002,1.907953e+001
8.436116e+002,2.238379e+001
8.445758e+002,2.670105e+001
8.455400e+002,2.837390e+001
8.465043e+002,2.802216e+001
8.474685e+002,2.599408e+001
8.484327e+002,2.299670e+001
8.493970e+002,2.040039e+001
8.503612e+002,2.009668e+001
8.513254e+002,2.233069e+001
8.522897e+002,2.475885e+001
8.532539e+002,2.782294e+001
8.542181e+002,3.007892e+001
8.551824e+002,3.069586e+001
8.561466e+002,3.021710e+001
8.571108e+002,3.033319e+001
8.580751e+002,2.968170e+001
8.590393e+002,3.045050e+001
8.600035e+002,3.558600e+001
8.609678e+002,4.186340e+001
8.619320e+002,4.546942e+001
8.628962e+002,4.489404e+001
8.638605e+002,4.233466e+001
8.648247e+002,4.073938e+001
8.657889e+002,3.970959e+001
8.667532e+002,3.835211e+001
8.677174e+002,3.656580e+001
8.686816e+002,3.538409e+001
8.696459e+002,3.627881e+001
8.706101e+002,3.985144e+001
8.715743e+002,4.230396e+001
8.725386e+002,4.275568e+001
8.735028e+002,4.340558e+001
8.744670e+002,4.463928e+001
8.754313e+002,4.599097e+001
8.763955e+002,4.679486e+001
8.773597e+002,4.684833e+001
8.783240e+002,4.700122e+001
8.792882e+002,4.815143e+001
8.802524e+002,4.920343e+001
8.812167e+002,4.881842e+001
8.821809e+002,4.707886e+001
8.831451e+002,4.554767e+001
8.841094e+002,4.640253e+001
8.850736e+002,4.975189e+001
8.860378e+002,5.183710e+001
8.870021e+002,5.243164e+001
8.879663e+002,5.220062e+001
8.889305e+002,5.108698e+001
8.898948e+002,4.915460e+001
8.908590e+002,4.724664e+001
8.918232e+002,4.524469e+001
8.927875e+002,4.424060e+001
8.937517e+002,4.412610e+001
8.947159e+002,4.518610e+001
8.956802e+002,4.813647e+001
8.966444e+002,5.254883e+001
8.976086e+002,5.634229e+001
8.985729e+002,5.775305e+001
8.995371e+002,5.747168e+001
9.005013e+002,5.613751e+001
9.014656e+002,5.417651e+001
9.024298e+002,5.256226e+001
9.033940e+002,5.181000e+001
9.043583e+002,5.165088e+001
9.053225e+002,5.199127e+001
9.062867e+002,5.355518e+001
9.072510e+002,5.416364e+001
9.082152e+002,5.318054e+001
9.091794e+002,5.234668e+001
9.101437e+002,5.386096e+001
9.111079e+002,5.807129e+001
9.120721e+002,6.123346e+001
9.130364e+002,5.929395e+001
9.140006e+002,5.660107e+001
9.149648e+002,5.591199e+001
9.159291e+002,5.696320e+001
9.168933e+002,5.839941e+001
9.178575e+002,5.910315e+001
9.188218e+002,5.904395e+001
9.197860e+002,5.852917e+001
9.207502e+002,5.740002e+001
9.217145e+002,5.623950e+001
9.226787e+002,5.537646e+001
9.236429e+002,5.509998e+001
9.246072e+002,5.583624e+001
9.255714e+002,5.776825e+001
9.265356e+002,5.838300e+001
9.274999e+002,5.620117e+001
9.284641e+002,5.352618e+001
9.294283e+002,5.066034e+001
9.303926e+002,4.822656e+001
9.313568e+002,4.690790e+001
9.323210e+002,4.703491e+001
9.332853e+002,4.820575e+001
9.342495e+002,5.126746e+001
9.352137e+002,5.455328e+001
9.361780e+002,5.506671e+001
9.371422e+002,5.246606e+001
9.381064e+002,4.907568e+001
9.390707e+002,4.764484e+001
9.400349e+002,4.802399e+001
9.409991e+002,4.902313e+001
9.419634e+002,5.244788e+001
9.429276e+002,5.397357e+001
9.438918e+002,5.018549e+001
9.448561e+002,4.465125e+001
9.458203e+002,4.395721e+001
9.467845e+002,5.087030e+001
9.477488e+002,5.835748e+001
9.487130e+002,6.080365e+001
9.496772e+002,6.168561e+001
9.506415e+002,6.350793e+001
9.516057e+002,6.649078e+001
9.525699e+002,6.958618e+001
9.535342e+002,7.176288e+001
9.544984e+002,7.287299e+001
9.554626e+002,7.238019e+001
9.564269e+002,7.014673e+001
9.573911e+002,6.946320e+001
9.583553e+002,7.222375e+001
9.593196e+002,7.638007e+001
9.602838e+002,7.851349e+001
9.612480e+002,7.793530e+001
9.622123e+002,7.716339e+001
9.631765e+002,7.745496e+001
9.641407e+002,7.745166e+001
9.651050e+002,7.575665e+001
9.660692e+002,7.310046e+001
9.670334e+002,7.157343e+001
9.679977e+002,7.271436e+001
9.689619e+002,7.504553e+001
9.699261e+002,7.462018e+001
9.708904e+002,7.192145e+001
9.718546e+002,6.809900e+001
9.728188e+002,6.268811e+001
9.737831e+002,5.848578e+001
9.747473e+002,6.036395e+001
9.757115e+002,7.029370e+001
9.766758e+002,7.617041e+001
9.776400e+002,7.447546e+001
9.786042e+002,7.356097e+001
9.795685e+002,7.661591e+001
9.805327e+002,8.053143e+001
9.814969e+002,8.084601e+001
9.824612e+002,7.627435e+001
9.834254e+002,7.090912e+001
9.843896e+002,6.752655e+001
9.853539e+002,6.574078e+001
9.863181e+002,6.582141e+001
9.872823e+002,6.724603e+001
9.882466e+002,6.888477e+001
9.892108e+002,7.012115e+001
9.901750e+002,7.146216e+001
9.911393e+002,7.309930e+001
9.921035e+002,7.363495e+001
9.930677e+002,7.488715e+001
9.940320e+002,7.714532e+001
9.949962e+002,8.065137e+001
9.959604e+002,8.616992e+001
9.969247e+002,9.365814e+001
9.978889e+002,1.005969e+002
9.988531e+002,1.044813e+002
9.998174e+002,1.080453e+002
1.000782e+003,1.133838e+002
1.001746e+003,1.199601e+002
1.002710e+003,1.273339e+002
1.003674e+003,1.349298e+002
1.004639e+003,1.412811e+002
1.005603e+003,1.435129e+002
1.006567e+003,1.410192e+002
1.007531e+003,1.413698e+002
1.008495e+003,1.464832e+002
1.009460e+003,1.506635e+002
1.010424e+003,1.497258e+002
1.011388e+003,1.451080e+002
1.012352e+003,1.424726e+002
1.013317e+003,1.435935e+002
1.014281e+003,1.439448e+002
1.015245e+003,1.419689e+002
1.016209e+003,1.387096e+002
1.017174e+003,1.350789e+002
1.018138e+003,1.311317e+002
1.019102e+003,1.261879e+002
1.020066e+003,1.196790e+002
1.021031e+003,1.123757e+002
1.021995e+003,1.056788e+002
1.022959e+003,9.913654e+001
1.023923e+003,9.281287e+001
1.024887e+003,8.668872e+001
1.025852e+003,8.069788e+001
1.026816e+003,7.447528e+001
1.027780e+003,6.772375e+001
1.028744e+003,6.356543e+001
1.029709e+003,6.461871e+001
1.030673e+003,6.529785e+001
1.031637e+003,6.367542e+001
1.032601e+003,6.058954e+001
1.033566e+003,5.731238e+001
1.034530e+003,5.442230e+001
1.035494e+003,5.217987e+001
1.036458e+003,5.078479e+001
1.037422e+003,5.005109e+001
1.038387e+003,5.025446e+001
1.039351e+003,5.106812e+001
1.040315e+003,5.066687e+001
1.041279e+003,4.746350e+001
1.042244e+003,4.262775e+001
1.043208e+003,4.151404e+001
1.044172e+003,4.755505e+001
1.045136e+003,5.079028e+001
1.046101e+003,4.964105e+001
1.047065e+003,4.753912e+001
1.048029e+003,4.606317e+001
1.048993e+003,4.539417e+001
1.049958e+003,4.570929e+001
1.050922e+003,4.769757e+001
1.051886e+003,4.972723e+001
1.052850e+003,4.923340e+001
1.053814e+003,4.804736e+001
1.054779e+003,4.909930e+001
1.055743e+003,5.266003e+001
1.056707e+003,5.592377e+001
1.057671e+003,5.535962e+001
1.058636e+003,5.086420e+001
1.059600e+003,4.967572e+001
1.060564e+003,5.572473e+001
1.061528e+003,6.006439e+001
1.062493e+003,6.086993e+001
1.063457e+003,5.919659e+001
1.064421e+003,5.564606e+001
1.065385e+003,5.054315e+001
1.066349e+003,4.649194e+001
1.067314e+003,4.507776e+001
1.068278e+003,4.495197e+001
1.069242e+003,4.580933e+001
1.070206e+003,4.711340e+001
1.071171e+003,4.775720e+001
1.072135e+003,4.725232e+001
1.073099e+003,4.639838e+001
1.074063e+003,4.683521e+001
1.075028e+003,4.885083e+001
1.075992e+003,5.042682e+001
1.076956e+003,5.187646e+001
1.077920e+003,5.200726e+001
1.078885e+003,4.937665e+001
1.079849e+003,4.595416e+001
1.080813e+003,4.563013e+001
1.081777e+003,4.963385e+001
1.082741e+003,5.305310e+001
1.083706e+003,5.205084e+001
1.084670e+003,5.023993e+001
1.085634e+003,4.941034e+001
1.086598e+003,4.935785e+001
1.087563e+003,4.934656e+001
1.088527e+003,4.911737e+001
1.089491e+003,4.918518e+001
1.090455e+003,5.023981e+001
1.091420e+003,5.215515e+001
1.092384e+003,5.212061e+001
1.093348e+003,4.853595e+001
1.094312e+003,4.543292e+001
1.095276e+003,4.625092e+001
1.096241e+003,4.971423e+001
1.097205e+003,5.111786e+001
1.098169e+003,4.889545e+001
1.099133e+003,4.682318e+001
1.100098e+003,4.624921e+001
1.101062e+003,4.660931e+001
1.102026e+003,4.776007e+001
1.102990e+003,4.958752e+001
1.103955e+003,5.233374e+001
1.104919e+003,5.603241e+001
1.105883e+003,5.921924e+001
1.106847e+003,5.841650e+001
1.107812e+003,5.353253e+001
1.108776e+003,5.117688e+001
1.109740e+003,5.220856e+001
1.110704e+003,5.456738e+001
1.111668e+003,5.767993e+001
1.112633e+003,6.140918e+001
1.113597e+003,6.399915e+001
1.114561e+003,6.426208e+001
1.115525e+003,6.510840e+001
1.116490e+003,6.798535e+001
1.117454e+003,7.102295e+001
1.118418e+003,7.309143e+001
1.119382e+003,7.464819e+001
1.120347e+003,7.682739e+001
1.121311e+003,8.005780e+001
1.122275e+003,8.325836e+001
1.123239e+003,8.510883e+001
1.124203e+003,8.610193e+001
1.125168e+003,8.717615e+001
1.126132e+003,8.844440e+001
1.127096e+003,8.995813e+001
1.128060e+003,9.144647e+001
1.129025e+003,9.290613e+001
1.129989e+003,9.499585e+001
1.130953e+003,9.803870e+001
1.131917e+003,1.007048e+002
1.132882e+003,1.023039e+002
1.133846e+003,1.040842e+002
1.134810e+003,1.069976e+002
1.135774e+003,1.107778e+002
1.136739e+003,1.144504e+002
1.137703e+003,1.174507e+002
1.138667e+003,1.203704e+002
1.139631e+003,1.239799e+002
1.140595e+003,1.285429e+002
1.141560e+003,1.359222e+002
1.142524e+003,1.467983e+002
1.143488e+003,1.594229e+002
1.144452e+003,1.724929e+002
1.145417e+003,1.862458e+002
1.146381e+003,2.012549e+002
1.147345e+003,2.167507e+002
1.148309e+003,2.356062e+002
1.149274e+003,2.604363e+002
1.150238e+003,2.868843e+002
1.151202e+003,3.128701e+002
1.152166e+003,3.392484e+002
1.153130e+003,3.688179e+002
1.154095e+003,4.021159e+002
1.155059e+003,4.339814e+002
1.156023e+003,4.578154e+002
1.156987e+003,4.736337e+002
1.157952e+003,4.860516e+002
1.158916e+003,4.964722e+002
1.159880e+003,5.009208e+002
1.160844e+003,4.964401e+002
1.161809e+003,4.833134e+002
1.162773e+003,4.625328e+002
1.163737e+003,4.328160e+002
1.164701e+003,4.015519e+002
1.165666e+003,3.681038e+002
1.166630e+003,3.366827e+002
1.167594e+003,3.082548e+002
1.168558e+003,2.829062e+002
1.169522e+003,2.603781e+002
1.170487e+003,2.407262e+002
1.171451e+003,2.251158e+002
1.172415e+003,2.148854e+002
1.173379e+003,2.095297e+002
1.174344e+003,2.068932e+002
1.175308e+003,2.070411e+002
1.176272e+003,2.082026e+002
1.177236e+003,2.112617e+002
1.178201e+003,2.142125e+002
1.179165e+003,2.146012e+002
1.180129e+003,2.121569e+002
1.181093e+003,2.063457e+002
1.182057e+003,1.940542e+002
1.183022e+003,1.832108e+002
1.183986e+003,1.773024e+002
1.184950e+003,1.736647e+002
1.185914e+003,1.699199e+002
1.186879e+003,1.658039e+002
1.187843e+003,1.622345e+002
1.188807e+003,1.597998e+002
1.189771e+003,1.588189e+002
1.190736e+003,1.613481e+002
1.191700e+003,1.678854e+002
1.192664e+003,1.721693e+002
1.193628e+003,1.727420e+002
1.194593e+003,1.726445e+002
1.195557e+003,1.750292e+002
1.196521e+003,1.784307e+002
1.197485e+003,1.774568e+002
1.198449e+003,1.703073e+002
1.199414e+003,1.621520e+002
1.200378e+003,1.536021e+002
1.201342e+003,1.464454e+002
1.202306e+003,1.422851e+002
1.203271e+003,1.402159e+002
1.204235e+003,1.388433e+002
1.205199e+003,1.373333e+002
1.206163e+003,1.348525e+002
1.207128e+003,1.296219e+002
1.208092e+003,1.214368e+002
1.209056e+003,1.169344e+002
1.210020e+003,1.180781e+002
1.210984e+003,1.183436e+002
1.211949e+003,1.168056e+002
1.212913e+003,1.126675e+002
1.213877e+003,1.035801e+002
1.214841e+003,8.979388e+001
1.215806e+003,7.847534e+001
1.216770e+003,7.252393e+001
1.217734e+003,6.951483e+001
1.218698e+003,6.891174e+001
1.219663e+003,6.870068e+001
1.220627e+003,6.626758e+001
1.221591e+003,6.138776e+001
1.222555e+003,5.564752e+001
1.223520e+003,5.050330e+001
1.224484e+003,4.632690e+001
1.225448e+003,4.425092e+001
1.226412e+003,4.555267e+001
1.227376e+003,4.605493e+001
1.228341e+003,4.534711e+001
1.229305e+003,4.411920e+001
1.230269e+003,4.271185e+001
1.231233e+003,4.102594e+001
1.232198e+003,3.844318e+001
1.233162e+003,3.481427e+001
1.234126e+003,3.285681e+001
1.235090e+003,3.584290e+001
1.236055e+003,3.980646e+001
1.237019e+003,4.035541e+001
1.237983e+003,3.828387e+001
1.238947e+003,3.607025e+001
1.239911e+003,3.491949e+001
1.240876e+003,3.474457e+001
1.241840e+003,3.534576e+001
1.242804e+003,3.678882e+001
1.243768e+003,3.809845e+001
1.244733e+003,3.955646e+001
1.245697e+003,4.046960e+001
1.246661e+003,4.053876e+001
1.247625e+003,3.969653e+001
1.248590e+003,3.673682e+001
1.249554e+003,3.323871e+001
1.250518e+003,3.357404e+001
1.251482e+003,3.985901e+001
1.252447e+003,4.695062e+001
1.253411e+003,4.875732e+001
1.254375e+003,4.734589e+001
1.255339e+003,4.660803e+001
1.256303e+003,4.689410e+001
1.257268e+003,4.803845e+001
1.258232e+003,4.985468e+001
1.259196e+003,5.185596e+001
1.260160e+003,5.321802e+001
1.261125e+003,5.378381e+001
1.262089e+003,5.645825e+001
1.263053e+003,6.461053e+001
1.264017e+003,7.036926e+001
1.264982e+003,7.001385e+001
1.265946e+003,6.811700e+001
1.266910e+003,6.913501e+001
1.267874e+003,7.306659e+001
1.268839e+003,7.730280e+001
1.269803e+003,8.016077e+001
1.270767e+003,8.148950e+001
1.271731e+003,8.082184e+001
1.272695e+003,7.824652e+001
1.273660e+003,7.504712e+001
1.274624e+003,7.055511e+001
1.275588e+003,6.596143e+001
1.276552e+003,6.188794e+001
1.277517e+003,5.869373e+001
1.278481e+003,5.704303e+001
1.279445e+003,5.703143e+001
1.280409e+003,5.615161e+001
1.281374e+003,5.242023e+001
1.282338e+003,4.940491e+001
1.283302e+003,4.954095e+001
1.284266e+003,5.088263e+001
1.285230e+003,5.159851e+001
1.286195e+003,5.107446e+001
1.287159e+003,4.927161e+001
1.288123e+003,4.627875e+001
1.289087e+003,4.256158e+001
1.290052e+003,3.886365e+001
1.291016e+003,3.432855e+001
1.291980e+003,3.237714e+001
1.292944e+003,3.417188e+001
1.293909e+003,3.623926e+001
1.294873e+003,3.850494e+001
1.295837e+003,4.005853e+001
1.296801e+003,3.899951e+001
1.297766e+003,3.533502e+001
1.298730e+003,3.188220e+001
1.299694e+003,2.967114e+001
1.300658e+003,2.862073e+001
1.301622e+003,2.915887e+001
1.302587e+003,3.071838e+001
1.303551e+003,3.278448e+001
1.304515e+003,3.517059e+001
1.305479e+003,3.644641e+001
1.306444e+003,3.495239e+001
1.307408e+003,3.176465e+001
1.308372e+003,3.107391e+001
1.309336e+003,3.364288e+001
1.310301e+003,3.633191e+001
1.311265e+003,4.018530e+001
1.312229e+003,4.298639e+001
1.313193e+003,4.363470e+001
1.314157e+003,4.304456e+001
1.315122e+003,4.187433e+001
1.316086e+003,4.038727e+001
1.317050e+003,3.897571e+001
1.318014e+003,3.805707e+001
1.318979e+003,3.723456e+001
1.319943e+003,3.529919e+001
1.320907e+003,3.262396e+001
1.321871e+003,3.134686e+001
1.322836e+003,3.144946e+001
1.323800e+003,3.189130e+001
1.324764e+003,3.215521e+001
1.325728e+003,3.251526e+001
1.326693e+003,3.338843e+001
1.327657e+003,3.463495e+001
1.328621e+003,3.568860e+001
1.329585e+003,3.704816e+001
1.330549e+003,3.876868e+001
1.331514e+003,4.110052e+001
1.332478e+003,4.240814e+001
1.333442e+003,4.044366e+001
1.334406e+003,3.625421e+001
1.335371e+003,3.334467e+001
1.336335e+003,3.378015e+001
1.337299e+003,3.576001e+001
1.338263e+003,3.568939e+001
1.339228e+003,3.321362e+001
1.340192e+003,3.216083e+001
1.341156e+003,3.331128e+001
1.342120e+003,3.458929e+001
1.343084e+003,3.606091e+001
1.344049e+003,3.672559e+001
1.345013e+003,3.503864e+001
1.345977e+003,3.226697e+001
1.346941e+003,3.210510e+001
1.347906e+003,3.600378e+001
1.348870e+003,4.020807e+001
1.349834e+003,4.097363e+001
1.350798e+003,3.973578e+001
1.351763e+003,4.022247e+001
1.352727e+003,4.200470e+001
1.353691e+003,4.168250e+001
1.354655e+003,3.749713e+001
1.355620e+003,3.281580e+001
1.356584e+003,3.197003e+001
1.357548e+003,3.457654e+001
1.358512e+003,3.650848e+001
1.359476e+003,3.775110e+001
1.360441e+003,3.696796e+001
1.361405e+003,3.106671e+001
1.362369e+003,2.639856e+001
1.363333e+003,2.771783e+001
1.364298e+003,3.147968e+001
1.365262e+003,3.202887e+001
1.366226e+003,2.848151e+001
1.367190e+003,2.481006e+001
1.368155e+003,2.453320e+001
1.369119e+003,2.707538e+001
1.370083e+003,3.099829e+001
1.371047e+003,3.765765e+001
1.372011e+003,3.993188e+001
1.372976e+003,3.337872e+001
1.373940e+003,2.788446e+001
1.374904e+003,2.803333e+001
1.375868e+003,3.083777e+001
1.376833e+003,3.285663e+001
1.377797e+003,3.357642e+001
1.378761e+003,3.318616e+001
1.379725e+003,3.142072e+001
1.380690e+003,2.995715e+001
1.381654e+003,3.168878e+001
1.382618e+003,3.433856e+001
1.383582e+003,3.382153e+001
1.384547e+003,3.055701e+001
1.385511e+003,2.918835e+001
1.386475e+003,3.219733e+001
1.387439e+003,3.715173e+001
1.388403e+003,4.075781e+001
1.389368e+003,4.298285e+001
1.390332e+003,4.401263e+001
1.391296e+003,4.324622e+001
1.392260e+003,4.291473e+001
1.393225e+003,4.439758e+001
1.394189e+003,4.534613e+001
1.395153e+003,4.406470e+001
1.396117e+003,4.153662e+001
1.397082e+003,3.903070e+001
1.398046e+003,3.725366e+001
1.399010e+003,3.684436e+001
1.399974e+003,3.828705e+001
1.400938e+003,4.048425e+001
1.401903e+003,4.089514e+001
1.402867e+003,3.983362e+001
1.403831e+003,3.897357e+001
1.404795e+003,3.732385e+001
1.405760e+003,3.642719e+001
1.406724e+003,3.660590e+001
1.407688e+003,3.698132e+001
1.408652e+003,3.708191e+001
1.409617e+003,3.721033e+001
1.410581e+003,3.791901e+001
1.411545e+003,3.957617e+001
1.412509e+003,4.095129e+001
1.413474e+003,4.010150e+001
1.414438e+003,3.817523e+001
1.415402e+003,3.835327e+001
1.416366e+003,4.034296e+001
1.417330e+003,4.029370e+001
1.418295e+003,3.624615e+001
1.419259e+003,3.148260e+001
1.420223e+003,2.977661e+001
1.421187e+003,3.049481e+001
1.422152e+003,3.066785e+001
1.423116e+003,3.010992e+001
1.424080e+003,3.050385e+001
1.425044e+003,3.249512e+001
1.426009e+003,3.478693e+001
1.426973e+003,3.747961e+001
1.427937e+003,3.977087e+001
1.428901e+003,4.050867e+001
1.429865e+003,4.004919e+001
1.430830e+003,3.987354e+001
1.431794e+003,4.083374e+001
1.432758e+003,4.236475e+001
1.433722e+003,4.365472e+001
1.434687e+003,4.500555e+001
1.435651e+003,4.803204e+001
1.436615e+003,5.493402e+001
1.437579e+003,5.818207e+001
1.438544e+003,5.475513e+001
1.439508e+003,5.016132e+001
1.440472e+003,4.714197e+001
1.441436e+003,4.636438e+001
1.442401e+003,4.907007e+001
1.443365e+003,5.494867e+001
1.444329e+003,5.985974e+001
1.445293e+003,6.069617e+001
1.446257e+003,5.934888e+001
1.447222e+003,5.900562e+001
1.448186e+003,5.941510e+001
1.449150e+003,5.960815e+001
1.450114e+003,5.960187e+001
1.451079e+003,5.857483e+001
1.452043e+003,5.518805e+001
1.453007e+003,5.159540e+001
1.453971e+003,5.134479e+001
1.454936e+003,5.370715e+001
1.455900e+003,5.324750e+001
1.456864e+003,4.761707e+001
1.457828e+003,4.404291e+001
1.458792e+003,4.962933e+001
1.459757e+003,5.594977e+001
1.460721e+003,5.526782e+001
1.461685e+003,5.025342e+001
1.462649e+003,4.683246e+001
1.463614e+003,4.669739e+001
1.464578e+003,4.782697e+001
1.465542e+003,4.859796e+001
1.466506e+003,4.861926e+001
1.467471e+003,4.653552e+001
1.468435e+003,4.169299e+001
1.469399e+003,3.974823e+001
1.470363e+003,4.204370e+001
1.471328e+003,4.521381e+001
1.472292e+003,4.982196e+001
1.473256e+003,5.320801e+001
1.474220e+003,5.337982e+001
1.475184e+003,5.160089e+001
1.476149e+003,4.974512e+001
1.477113e+003,4.852051e+001
1.478077e+003,4.808923e+001
1.479041e+003,4.886609e+001
1.480006e+003,5.087500e+001
1.480970e+003,5.366577e+001
1.481934e+003,5.745142e+001
1.482898e+003,5.962640e+001
1.483863e+003,5.961682e+001
1.484827e+003,5.886035e+001
1.485791e+003,5.619604e+001
1.486755e+003,5.475964e+001
1.487719e+003,5.836127e+001
1.488684e+003,6.517218e+001
1.489648e+003,7.012170e+001
1.490612e+003,7.177246e+001
1.491576e+003,7.283435e+001
1.492541e+003,7.502441e+001
1.493505e+003,7.854688e+001
1.494469e+003,8.529327e+001
1.495433e+003,9.408417e+001
1.496398e+003,9.884790e+001
1.497362e+003,9.811371e+001
1.498326e+003,9.745837e+001
1.499290e+003,9.877417e+001
1.500255e+003,1.023705e+002
1.501219e+003,1.090148e+002
1.502183e+003,1.182955e+002
1.503147e+003,1.284806e+002
1.504111e+003,1.392693e+002
1.505076e+003,1.504493e+002
1.506040e+003,1.612150e+002
1.507004e+003,1.733320e+002
1.507968e+003,1.887870e+002
1.508933e+003,2.066533e+002
1.509897e+003,2.241976e+002
1.510861e+003,2.417022e+002
1.511825e+003,2.640175e+002
1.512790e+003,2.950154e+002
1.513754e+003,3.309921e+002
1.514718e+003,3.653793e+002
1.515682e+003,3.978023e+002
1.516646e+003,4.320792e+002
1.517611e+003,4.699086e+002
1.518575e+003,5.069543e+002
1.519539e+003,5.428668e+002
1.520503e+003,5.773643e+002
1.521468e+003,6.132663e+002
1.522432e+003,6.459266e+002
1.523396e+003,6.701564e+002
1.524360e+003,6.844365e+002
1.525325e+003,6.892081e+002
1.526289e+003,6.848083e+002
1.527253e+003,6.730838e+002
1.528217e+003,6.568474e+002
1.529182e+003,6.364049e+002
1.530146e+003,6.138915e+002
1.531110e+003,5.914296e+002
1.532074e+003,5.617277e+002
1.533039e+003,5.207652e+002
1.534003e+003,4.757913e+002
1.534967e+003,4.297839e+002
1.535931e+003,3.832906e+002
1.536896e+003,3.339750e+002
1.537860e+003,2.843058e+002
1.538824e+003,2.404929e+002
1.539788e+003,2.055707e+002
1.540752e+003,1.776193e+002
1.541717e+003,1.543085e+002
1.542681e+003,1.357606e+002
1.543645e+003,1.207612e+002
1.544609e+003,1.106940e+002
1.545573e+003,1.020131e+002
1.546538e+003,9.530621e+001
1.547502e+003,8.823938e+001
1.548466e+003,7.890210e+001
1.549430e+003,7.045258e+001
1.550395e+003,6.609290e+001
1.551359e+003,6.509204e+001
1.552323e+003,6.547156e+001
1.553287e+003,6.636664e+001
1.554252e+003,6.616840e+001
1.555216e+003,6.320520e+001
1.556180e+003,5.875159e+001
1.557144e+003,5.572217e+001
1.558109e+003,5.431262e+001
1.559073e+003,5.352539e+001
1.560037e+003,5.336328e+001
1.561001e+003,5.278760e+001
1.561966e+003,5.160645e+001
1.562930e+003,5.055731e+001
1.563894e+003,5.028540e+001
1.564858e+003,5.031018e+001
1.565823e+003,4.935602e+001
1.566787e+003,4.724457e+001
1.567751e+003,4.587408e+001
1.568715e+003,4.665820e+001
1.569679e+003,4.797418e+001
1.570644e+003,4.769202e+001
1.571608e+003,4.599695e+001
1.572572e+003,4.347815e+001
1.573536e+003,4.027722e+001
1.574500e+003,3.968646e+001
1.575465e+003,4.420245e+001
1.576429e+003,4.915656e+001
1.577393e+003,5.093103e+001
1.578357e+003,5.024426e+001
1.579322e+003,4.785413e+001
1.580286e+003,4.423505e+001
1.581250e+003,4.294775e+001
1.582214e+003,4.566089e+001
1.583179e+003,4.859729e+001
1.584143e+003,4.847357e+001
1.585107e+003,4.722821e+001
1.586071e+003,4.789825e+001
1.587036e+003,5.027081e+001
1.588000e+003,5.293488e+001
1.588964e+003,5.547272e+001
1.589928e+003,5.675262e+001
1.590893e+003,5.535742e+001
1.591857e+003,5.303577e+001
1.592821e+003,5.260400e+001
1.593785e+003,5.375085e+001
1.594750e+003,5.420587e+001
1.595714e+003,5.339941e+001
1.596678e+003,5.296680e+001
1.597642e+003,5.395087e+001
1.598606e+003,5.500262e+001
1.599571e+003,5.474377e+001
1.600535e+003,5.426471e+001
1.601499e+003,5.505566e+001
1.602463e+003,5.691968e+001
1.603427e+003,5.865009e+001
1.604392e+003,5.982428e+001
1.605356e+003,6.044543e+001
1.606320e+003,6.040210e+001
1.607284e+003,5.988165e+001
1.608249e+003,5.959082e+001
1.609213e+003,5.957684e+001
1.610177e+003,5.811591e+001
1.611141e+003,5.425134e+001
1.612106e+003,5.063800e+001
1.613070e+003,4.859485e+001
1.614034e+003,4.719434e+001
1.614998e+003,4.594727e+001
1.615963e+003,4.485547e+001
1.616927e+003,4.394495e+001
1.617891e+003,4.313660e+001
1.618855e+003,4.216425e+001
1.619820e+003,4.066888e+001
1.620784e+003,3.910382e+001
1.621748e+003,3.880194e+001
1.622712e+003,3.987952e+001
1.623677e+003,4.081421e+001
1.624641e+003,4.181421e+001
1.625605e+003,4.138776e+001
1.626569e+003,3.683765e+001
1.627533e+003,3.339380e+001
1.628498e+003,3.494165e+001
1.629462e+003,3.803143e+001
1.630426e+003,4.004065e+001
1.631390e+003,4.102411e+001
1.632354e+003,4.173346e+001
1.633319e+003,4.233893e+001
1.634283e+003,4.252155e+001
1.635247e+003,4.201422e+001
1.636211e+003,4.087000e+001
1.637176e+003,3.902899e+001
1.638140e+003,3.671735e+001
1.639104e+003,3.552643e+001
1.640068e+003,3.565210e+001
1.641033e+003,3.575317e+001
1.641997e+003,3.511578e+001
1.642961e+003,3.525867e+001
1.643925e+003,3.777917e+001
1.644890e+003,4.063220e+001
1.645854e+003,4.198315e+001
1.646818e+003,4.179382e+001
1.647782e+003,4.014227e+001
1.648747e+003,3.722693e+001
1.649711e+003,3.492194e+001
1.650675e+003,3.480804e+001
1.651639e+003,3.672400e+001
1.652604e+003,4.132111e+001
1.653568e+003,4.819983e+001
1.654532e+003,4.900873e+001
1.655496e+003,4.106659e+001
1.656460e+003,3.519739e+001
1.657425e+003,3.596643e+001
1.658389e+003,3.771265e+001
1.659353e+003,3.822754e+001
1.660317e+003,3.739771e+001
1.661281e+003,3.363257e+001
1.662246e+003,2.847748e+001
1.663210e+003,2.684009e+001
1.664174e+003,3.026971e+001
1.665138e+003,3.417084e+001
1.666103e+003,3.474847e+001
1.667067e+003,3.280609e+001
1.668031e+003,2.934814e+001
1.668995e+003,2.468890e+001
1.669960e+003,2.255524e+001
1.670924e+003,2.388129e+001
1.671888e+003,2.528088e+001
1.672852e+003,2.581641e+001
1.673817e+003,2.573303e+001
1.674781e+003,2.429913e+001
1.675745e+003,2.297046e+001
1.676709e+003,2.399115e+001
1.677674e+003,2.651526e+001
1.678638e+003,2.754553e+001
1.679602e+003,2.616425e+001
1.680566e+003,2.422009e+001
1.681531e+003,2.308087e+001
1.682495e+003,2.265442e+001
1.683459e+003,2.274384e+001
1.684423e+003,2.306097e+001
1.685387e+003,2.274359e+001
1.686352e+003,2.178119e+001
1.687316e+003,2.028448e+001
1.688280e+003,1.762787e+001
1.689244e+003,1.565363e+001
1.690208e+003,1.583258e+001
1.691173e+003,1.724420e+001
1.692137e+003,2.015533e+001
1.693101e+003,2.373059e+001
1.694065e+003,2.440875e+001
1.695030e+003,2.096014e+001
1.695994e+003,1.785785e+001
1.696958e+003,1.864679e+001
1.697922e+003,2.051056e+001
1.698887e+003,1.992950e+001
1.699851e+003,1.760364e+001
1.700815e+003,1.505817e+001
1.701779e+003,1.236267e+001
1.702744e+003,1.080353e+001
1.703708e+003,1.115302e+001
1.704672e+003,1.247357e+001
1.705636e+003,1.413403e+001
1.706601e+003,1.561041e+001
1.707565e+003,1.706775e+001
1.708529e+003,1.825574e+001
1.709493e+003,1.716931e+001
1.710458e+003,1.318652e+001
1.711422e+003,1.028711e+001
1.712386e+003,1.125891e+001
1.713350e+003,1.289905e+001
1.714314e+003,1.185455e+001
1.715279e+003,9.775146e+000
1.716243e+003,9.992065e+000
1.717207e+003,1.222803e+001
1.718171e+003,1.398468e+001
1.719135e+003,1.462756e+001
1.720100e+003,1.378375e+001
1.721064e+003,1.054010e+001
1.722028e+003,7.224060e+000
1.722992e+003,7.952332e+000
1.723957e+003,1.201166e+001
1.724921e+003,1.348590e+001
1.725885e+003,1.146039e+001
1.726849e+003,1.008301e+001
1.727814e+003,1.135565e+001
1.728778e+003,1.249902e+001
1.729742e+003,1.188159e+001
1.730706e+003,1.081219e+001
1.731671e+003,1.066595e+001
1.732635e+003,1.056329e+001
1.733599e+003,8.830750e+000
1.734563e+003,5.678406e+000
1.735528e+003,2.558044e+000
1.736492e+003,1.207275e-001
1.737456e+003,-4.869995e-001
1.738420e+003,2.436890e+000
1.739385e+003,7.363403e+000
1.740349e+003,9.367432e+000
1.741313e+003,8.103210e+000
1.742277e+003,6.607483e+000
1.743241e+003,4.967102e+000
1.744206e+003,3.406799e+000
1.745170e+003,6.823730e-001
1.746134e+003,-7.567749e-001
1.747098e+003,1.908081e+000
1.748063e+003,5.446716e+000
1.749027e+003,5.729614e+000
1.749991e+003,3.564575e+000
1.750955e+003,2.330872e+000
1.751919e+003,3.119141e+000
1.752884e+003,4.447998e+000
1.753848e+003,5.095581e+000
1.754812e+003,5.354431e+000
1.755776e+003,6.111267e+000
1.756741e+003,7.531250e+000
1.757705e+003,7.481079e+000
1.758669e+003,5.239685e+000
1.759633e+003,2.969727e+000
1.760598e+003,-9.451294e-001
1.761562e+003,-2.520569e+000
1.762526e+003,2.819031e+000
1.763490e+003,7.849670e+000
1.764455e+003,6.218506e+000
1.765419e+003,1.581787e+000
1.766383e+003,-3.521729e-002
1.767347e+003,1.708191e+000
1.768312e+003,3.534546e+000
1.769276e+003,3.848450e+000
1.770240e+003,3.048401e+000
1.771204e+003,1.429626e+000
1.772168e+003,-1.370850e-001
1.773133e+003,8.721924e-002
1.774097e+003,1.871643e+000
1.775061e+003,2.862671e+000
1.776025e+003,2.436646e+000
1.776990e+003,2.397217e+000
1.777954e+003,4.193542e+000
1.778918e+003,5.446045e+000
1.779882e+003,3.402344e+000
1.780846e+003,1.913452e-001
1.781811e+003,-1.121033e+000
1.782775e+003,-8.477783e-001
1.783739e+003,-1.068115e-002
1.784703e+003,1.442810e+000
1.785668e+003,2.184204e+000
1.786632e+003,4.465332e-001
1.787596e+003,-1.154663e+000
1.788560e+003,4.299316e-001
1.789525e+003,3.161804e+000
1.790489e+003,3.704590e+000
1.791453e+003,2.399048e+000
1.792417e+003,1.339050e+000
1.793382e+003,9.907227e-001
1.794346e+003,6.450806e-001
1.795310e+003,-1.049194e-001
1.796274e+003,-1.182617e+000
1.797239e+003,-2.399170e+000
1.798203e+003,-3.412109e+000
1.799167e+003,-4.174011e+000
1.800131e+003,-5.359436e+000
1.801095e+003,-5.281433e+000
1.802060e+003,-2.302368e+000
1.803024e+003,1.630859e-001
1.803988e+003,1.865601e+000
1.804952e+003,2.543396e+000
1.805917e+003,9.882202e-001
1.806881e+003,-7.498169e-001
1.807845e+003,-3.024902e-001
1.808809e+003,1.649841e+000
1.809773e+003,3.195862e+000
1.810738e+003,3.907654e+000
1.811702e+003,4.806396e+000
1.812666e+003,6.484192e+000
1.813630e+003,7.968567e+000
1.814595e+003,7.944275e+000
1.815559e+003,6.580078e+000
1.816523e+003,4.566406e+000
1.817487e+003,1.798706e+000
1.818452e+003,6.084595e-001
1.819416e+003,2.296265e+000
1.820380e+003,2.639221e+000
1.821344e+003,-1.645203e+000
1.822309e+003,-4.986084e+000
1.823273e+003,-2.667969e+000
1.824237e+003,1.351563e+000
1.825201e+003,3.158020e+000
1.826166e+003,3.044983e+000
1.827130e+003,2.456543e+000
1.828094e+003,1.577759e+000
1.829058e+003,2.230225e-001
1.830022e+003,-1.845459e+000
1.830987e+003,-3.646851e+000
1.831951e+003,-4.062317e+000
1.832915e+003,-3.930969e+000
1.833879e+003,-4.856873e+000
1.834844e+003,-6.280884e+000
1.835808e+003,-5.988464e+000
1.836772e+003,-3.853821e+000
1.837736e+003,-2.524475e+000
1.838700e+003,-3.302734e+000
1.839665e+003,-4.379089e+000
1.840629e+003,-3.993652e+000
1.841593e+003,-2.655701e+000
1.842557e+003,-1.537598e+000
1.843522e+003,-6.560669e-001
1.844486e+003,-3.078613e-001
1.845450e+003,-2.883301e-001
1.846414e+003,-6.134033e-001
1.847379e+003,-2.213806e+000
1.848343e+003,-3.692932e+000
1.849307e+003,-4.601196e+000
1.850271e+003,-5.015289e+000
1.851236e+003,-4.388306e+000
1.852200e+003,-3.475891e+000
1.853164e+003,-3.813293e+000
1.854128e+003,-5.290985e+000
1.855093e+003,-6.309265e+000
1.856057e+003,-6.084839e+000
1.857021e+003,-5.425812e+000
1.857985e+003,-5.147919e+000
1.858949e+003,-4.964233e+000
1.859914e+003,-4.175232e+000
1.860878e+003,-2.865417e+000
1.861842e+003,-1.945007e+000
1.862806e+003,-1.516724e+000
1.863771e+003,-9.796753e-001
1.864735e+003,-3.074341e-001
1.865699e+003,4.063721e-001
1.866663e+003,1.752930e+000
1.867627e+003,2.322205e+000
1.868592e+003,-4.138794e-001
1.869556e+003,-4.405823e+000
1.870520e+003,-4.748047e+000
1.871484e+003,-2.174194e+000
1.872449e+003,-1.662537e+000
1.873413e+003,-3.769379e+000
1.874377e+003,-4.819916e+000
1.875341e+003,-3.987091e+000
1.876306e+003,-2.794617e+000
1.877270e+003,-1.499939e+000
1.878234e+003,-8.815918e-001
1.879198e+003,-2.365173e+000
1.880163e+003,-4.595398e+000
1.881127e+003,-4.979767e+000
1.882091e+003,-3.440094e+000
1.883055e+003,-1.331360e+000
1.884020e+003,5.169067e-001
1.884984e+003,7.815552e-001
1.885948e+003,-1.809998e+000
1.886912e+003,-5.536743e+000
1.887876e+003,-6.941376e+000
1.888841e+003,-6.137482e+000
1.889805e+003,-4.595734e+000
1.890769e+003,-2.037048e+000
1.891733e+003,-2.691040e-001
1.892698e+003,1.594849e-001
1.893662e+003,2.492065e-001
1.894626e+003,5.290527e-001
1.895590e+003,4.808350e-001
1.896554e+003,-8.380127e-001
1.897519e+003,-2.015869e+000
1.898483e+003,-8.286133e-001
1.899447e+003,1.591553e+000
1.900411e+003,1.642273e+000
1.901376e+003,-1.325317e+000
1.902340e+003,-3.771210e+000
1.903304e+003,-4.357147e+000
1.904268e+003,-4.228241e+000
1.905233e+003,-3.559082e+000
1.906197e+003,-2.821747e+000
1.907161e+003,-2.465179e+000
1.908125e+003,-2.319855e+000
1.909090e+003,-2.320770e+000
1.910054e+003,-2.502258e+000
1.911018e+003,-2.876831e+000
1.911982e+003,-3.196320e+000
1.912947e+003,-2.389954e+000
1.913911e+003,2.652588e-001
1.914875e+003,3.382996e+000
1.915839e+003,4.752808e+000
1.916803e+003,4.379761e+000
1.917768e+003,3.079102e+000
1.918732e+003,8.054199e-001
1.919696e+003,-1.120361e+000
1.920660e+003,-2.998291e+000
1.921625e+003,-3.044067e+000
1.922589e+003,5.701294e-001
1.923553e+003,3.389832e+000
1.924517e+003,1.668457e+000
1.925481e+003,-5.476074e-001
1.926446e+003,9.766846e-001
1.927410e+003,4.349487e+000
1.928374e+003,5.781494e+000
1.929338e+003,4.899841e+000
1.930303e+003,3.107849e+000
1.931267e+003,6.864014e-001
1.932231e+003,-1.201263e+000
1.933195e+003,-2.213257e+000
1.934160e+003,-2.852509e+000
1.935124e+003,-3.827759e+000
1.936088e+003,-4.500946e+000
1.937052e+003,-3.098297e+000
1.938017e+003,-7.142334e-001
1.938981e+003,-5.166626e-001
1.939945e+003,-2.484558e+000
1.940909e+003,-3.511444e+000
1.941874e+003,-2.298828e+000
1.942838e+003,-6.044006e-001
1.943802e+003,1.629028e-001
1.944766e+003,5.119019e-001
1.945730e+003,1.060059e+000
1.946695e+003,1.539307e+000
1.947659e+003,7.823792e-001
1.948623e+003,-1.508392e+000
1.949587e+003,-2.122559e+000
1.950552e+003,-1.943970e-002
1.951516e+003,1.309692e+000
1.952480e+003,1.542053e-001
1.953444e+003,-8.419189e-001
1.954408e+003,5.032959e-001
1.955373e+003,2.384216e+000
1.956337e+003,2.594635e+000
1.957301e+003,1.686584e+000
1.958265e+003,5.109253e-001
1.959230e+003,-1.008240e+000
1.960194e+003,-1.653259e+000
1.961158e+003,-9.561462e-001
1.962122e+003,-6.412659e-001
1.963087e+003,-1.472168e+000
1.964051e+003,-2.272125e+000
1.965015e+003,-1.694000e+000
1.965979e+003,-9.067993e-001
1.966944e+003,-1.794189e+000
1.967908e+003,-3.544556e+000
1.968872e+003,-4.096466e+000
1.969836e+003,-3.367889e+000
1.970801e+003,-3.187744e+000
1.971765e+003,-4.209534e+000
1.972729e+003,-4.393646e+000
1.973693e+003,-1.825226e+000
1.974657e+003,1.851440e+000
1.975622e+003,4.715942e+000
1.976586e+003,6.400604e+000
1.977550e+003,5.241394e+000
1.978514e+003,2.137878e+000
1.979479e+003,2.212921e+000
1.980443e+003,5.923401e+000
1.981407e+003,8.451843e+000
1.982371e+003,8.103729e+000
1.983335e+003,6.238281e+000
1.984300e+003,3.453308e+000
1.985264e+003,8.701477e-001
1.986228e+003,4.259033e-001
1.987192e+003,1.855011e+000
1.988157e+003,4.033295e+000
1.989121e+003,7.807312e+000
1.990085e+003,8.206055e+000
1.991049e+003,2.412323e+000
1.992014e+003,-7.524719e-001
1.992978e+003,2.253235e+000
1.993942e+003,4.332428e+000
1.994906e+003,2.118469e+000
1.995871e+003,-8.607178e-001
1.996835e+003,-3.035858e+000
1.997799e+003,-3.575317e+000
1.998763e+003,-3.473511e-001
1.999728e+003,5.338104e+000
