5.003444e+002,1.185229e+001
5.013087e+002,1.117969e+001
5.022729e+002,1.017493e+001
5.032371e+002,9.130127e+000
5.042014e+002,5.560669e+000
5.051656e+002,2.048340e-001
5.061298e+002,-3.432129e+000
5.070941e+002,-1.986328e+000
5.080583e+002,5.735596e+000
5.090225e+002,9.120117e+000
5.099868e+002,5.362671e+000
5.109510e+002,1.614624e+000
5.119152e+002,2.227417e+000
5.128795e+002,7.785522e+000
5.138437e+002,1.192664e+001
5.148079e+002,1.149475e+001
5.157722e+002,1.052954e+001
5.167364e+002,1.081348e+001
5.177006e+002,1.204480e+001
5.186649e+002,1.189185e+001
5.196291e+002,5.911011e+000
5.205933e+002,-2.409668e-001
5.215576e+002,-3.275146e-001
5.225218e+002,5.197021e+000
5.234860e+002,1.231482e+001
5.244503e+002,1.470093e+001
5.254145e+002,1.165259e+001
5.263787e+002,8.728638e+000
5.273430e+002,5.206421e+000
5.283072e+002,2.271851e+000
5.292714e+002,1.548706e+000
5.302357e+002,3.480591e+000
5.311999e+002,4.259888e+000
5.321641e+002,5.312866e+000
5.331284e+002,5.760620e+000
5.340926e+002,3.461426e+000
5.350568e+002,-3.092773e+000
5.360211e+002,-8.779053e+000
5.369853e+002,-5.908325e+000
5.379495e+002,-1.781006e-001
5.389138e+002,3.672363e+000
5.398780e+002,3.620483e+000
5.408422e+002,8.779297e-001
5.418065e+002,-1.560791e+000
5.427707e+002,-3.611572e+000
5.437349e+002,-3.828003e+000
5.446992e+002,-1.477051e+000
5.456634e+002,2.523071e+000
5.466276e+002,5.273193e+000
5.475919e+002,6.916138e+000
5.485561e+002,7.342773e+000
5.495203e+002,4.900757e+000
5.504846e+002,1.158203e+000
5.514488e+002,-1.392700e+000
5.524130e+002,-1.305298e+000
5.533773e+002,1.733398e-001
5.543415e+002,3.435547e+000
5.553057e+002,6.828613e+000
5.562700e+002,8.502319e+000
5.572342e+002,7.220093e+000
5.581984e+002,3.687012e+000
5.591627e+002,-7.701416e-001
5.601269e+002,-5.067505e+000
5.610911e+002,-7.446777e+000
5.620554e+002,-7.126831e+000
5.630196e+002,-4.787842e+000
5.639838e+002,-3.761475e+000
5.649481e+002,-4.790894e+000
5.659123e+002,-5.932739e+000
5.668765e+002,-6.467041e+000
5.678408e+002,-5.822998e+000
5.688050e+002,-3.386475e+000
5.697692e+002,2.473511e+000
5.707335e+002,5.376587e+000
5.716977e+002,2.712280e+000
5.726619e+002,-2.959106e+000
5.736262e+002,-8.692505e+000
5.745904e+002,-1.272327e+001
5.755546e+002,-1.428735e+001
5.765189e+002,-1.315198e+001
5.774831e+002,-1.055969e+001
5.784473e+002,-6.978760e+000
5.794116e+002,-2.433838e+000
5.803758e+002,3.268799e+000
5.813400e+002,4.972168e+000
5.823043e+002,6.004639e-001
5.832685e+002,-4.075684e+000
5.842327e+002,-6.607544e+000
5.851970e+002,-6.698364e+000
5.861612e+002,-5.803345e+000
5.871254e+002,-3.833252e+000
5.880897e+002,-2.276978e+000
5.890539e+002,-2.864258e+000
5.900181e+002,-4.242554e+000
5.909824e+002,-3.404419e+000
5.919466e+002,3.145752e+000
5.929108e+002,9.519775e+000
5.938751e+002,8.733643e+000
5.948393e+002,3.880981e+000
5.958035e+002,-3.491211e-001
5.967678e+002,-4.047852e-001
5.977320e+002,3.399536e+000
5.986962e+002,6.923706e+000
5.996605e+002,9.670654e+000
6.006247e+002,1.003821e+001
6.015889e+002,5.991943e+000
6.025532e+002,-1.907959e+000
6.035174e+002,-6.848389e+000
6.044816e+002,-7.192505e+000
6.054459e+002,-5.498047e+000
6.064101e+002,3.221436e-001
6.073743e+002,7.508057e+000
6.083386e+002,1.130664e+001
6.093028e+002,8.355713e+000
6.102670e+002,3.564087e+000
6.112313e+002,-5.078125e-001
6.121955e+002,-3.377930e+000
6.131597e+002,-3.937866e+000
6.141240e+002,-1.544189e+000
6.150882e+002,2.455688e+000
6.160524e+002,1.580444e+000
6.170167e+002,-2.878906e+000
6.179809e+002,-4.498291e+000
6.189451e+002,5.722656e-001
6.199094e+002,1.052905e+001
6.208736e+002,1.441565e+001
6.218378e+002,6.138428e+000
6.228021e+002,5.688477e-002
6.237663e+002,-1.436890e+000
6.247305e+002,-3.405762e-002
6.256948e+002,9.956055e-001
6.266590e+002,-5.390625e-001
6.276232e+002,-2.345581e+000
6.285875e+002,-2.180420e+000
6.295517e+002,-7.637939e-001
6.305159e+002,7.841797e-001
6.314802e+002,1.658569e+000
6.324444e+002,2.049194e+000
6.334086e+002,4.702271e+000
6.343729e+002,9.145142e+000
6.353371e+002,1.165466e+001
6.363013e+002,1.049011e+001
6.372656e+002,6.346436e+000
6.382298e+002,2.356201e+000
6.391940e+002,-2.837402e+000
6.401583e+002,-6.384399e+000
6.411225e+002,-6.527588e+000
6.420867e+002,-4.247314e+000
6.430510e+002,-9.346924e-001
6.440152e+002,2.883423e+000
6.449794e+002,5.332397e+000
6.459437e+002,5.732422e+000
6.469079e+002,4.661011e+000
6.478721e+002,2.096069e+000
6.488364e+002,-1.453369e+000
6.498006e+002,-4.506958e+000
6.507648e+002,-4.471191e+000
6.517291e+002,-2.497559e+000
6.526933e+002,-4.252930e-001
6.536575e+002,1.407227e+000
6.546218e+002,2.656006e+000
6.555860e+002,2.585693e+000
6.565502e+002,-5.125732e-001
6.575145e+002,-1.248169e+000
6.584787e+002,1.863159e+000
6.594429e+002,5.927856e+000
6.604072e+002,9.033447e+000
6.613714e+002,1.100464e+001
6.623356e+002,1.173206e+001
6.632999e+002,9.500122e+000
6.642641e+002,6.399292e+000
6.652283e+002,3.641357e+000
6.661926e+002,1.944458e+000
6.671568e+002,1.669556e+000
6.681210e+002,3.244507e+000
6.690853e+002,5.532593e+000
6.700495e+002,6.143921e+000
6.710137e+002,5.224609e+000
6.719780e+002,4.779419e+000
6.729422e+002,7.046021e+000
6.739064e+002,1.257910e+001
6.748707e+002,1.542664e+001
6.758349e+002,1.542529e+001
6.767991e+002,1.354126e+001
6.777634e+002,9.546997e+000
6.787276e+002,4.538818e+000
6.796918e+002,2.226318e+000
6.806561e+002,4.997803e+000
6.816203e+002,8.233643e+000
6.825845e+002,1.108728e+001
6.835488e+002,1.303284e+001
6.845130e+002,1.339270e+001
6.854772e+002,1.164734e+001
6.864415e+002,9.536377e+000
6.874057e+002,9.503296e+000
6.883699e+002,1.028027e+001
6.893342e+002,1.123193e+001
6.902984e+002,1.236157e+001
6.912626e+002,1.364832e+001
6.922269e+002,1.319592e+001
6.931911e+002,9.512573e+000
6.941553e+002,8.591919e+000
6.951196e+002,1.237646e+001
6.960838e+002,1.724146e+001
6.970480e+002,1.720874e+001
6.980123e+002,8.410645e+000
6.989765e+002,2.848633e+000
6.999407e+002,6.808716e+000
7.009050e+002,1.388135e+001
7.018692e+002,1.976721e+001
7.028334e+002,2.252881e+001
7.037977e+002,2.245911e+001
7.047619e+002,1.864014e+001
7.057261e+002,1.385547e+001
7.066904e+002,1.327466e+001
7.076546e+002,1.765991e+001
7.086188e+002,2.350073e+001
7.095831e+002,2.496179e+001
7.105473e+002,1.900220e+001
7.115115e+002,1.695520e+001
7.124758e+002,2.196887e+001
7.134400e+002,2.641699e+001
7.144042e+002,2.550684e+001
7.153685e+002,1.948718e+001
7.163327e+002,1.408215e+001
7.172969e+002,1.222449e+001
7.182612e+002,1.147351e+001
7.192254e+002,1.054456e+001
7.201896e+002,9.545288e+000
7.211539e+002,9.508667e+000
7.221181e+002,1.163611e+001
7.230823e+002,1.449573e+001
7.240466e+002,1.361609e+001
7.250108e+002,1.063281e+001
7.259750e+002,9.567871e+000
7.269393e+002,1.233313e+001
7.279035e+002,1.742065e+001
7.288677e+002,1.948157e+001
7.298320e+002,1.679260e+001
7.307962e+002,1.668640e+001
7.317604e+002,2.130920e+001
7.327247e+002,2.834546e+001
7.336889e+002,3.440344e+001
7.346531e+002,3.789905e+001
7.356174e+002,3.711926e+001
7.365816e+002,3.059302e+001
7.375458e+002,2.366003e+001
7.385101e+002,2.028845e+001
7.394743e+002,2.137695e+001
7.404385e+002,2.474316e+001
7.414028e+002,2.703174e+001
7.423670e+002,2.682471e+001
7.433312e+002,2.609534e+001
7.442955e+002,2.622729e+001
7.452597e+002,2.744141e+001
7.462239e+002,2.918506e+001
7.471882e+002,3.076038e+001
7.481524e+002,3.429871e+001
7.491166e+002,4.092847e+001
7.500809e+002,4.542249e+001
7.510451e+002,4.577954e+001
7.520093e+002,4.239880e+001
7.529736e+002,3.700195e+001
7.539378e+002,2.967761e+001
7.549020e+002,2.391919e+001
7.558663e+002,2.133032e+001
7.568306e+002,2.126343e+001
7.577948e+002,2.283423e+001
7.587590e+002,2.515161e+001
7.597233e+002,2.752539e+001
7.606875e+002,3.001147e+001
7.616517e+002,3.313464e+001
7.626160e+002,3.546484e+001
7.635802e+002,3.676672e+001
7.645444e+002,3.730762e+001
7.655087e+002,3.720569e+001
7.664729e+002,3.541174e+001
7.674371e+002,3.474597e+001
7.684014e+002,3.625159e+001
7.693656e+002,3.774951e+001
7.703298e+002,3.804431e+001
7.712941e+002,3.709351e+001
7.722583e+002,3.557043e+001
7.732225e+002,3.246277e+001
7.741868e+002,3.042456e+001
7.751510e+002,3.268225e+001
7.761152e+002,3.789221e+001
7.770795e+002,4.246362e+001
7.780437e+002,4.309216e+001
7.790079e+002,4.014319e+001
7.799722e+002,3.895068e+001
7.809364e+002,3.952612e+001
7.819006e+002,4.005054e+001
7.828649e+002,4.042273e+001
7.838291e+002,4.112976e+001
7.847933e+002,4.249683e+001
7.857576e+002,4.455176e+001
7.867218e+002,4.434583e+001
7.876860e+002,4.107251e+001
7.886503e+002,3.758191e+001
7.896145e+002,3.617383e+001
7.905787e+002,3.740515e+001
7.915430e+002,3.976514e+001
7.925072e+002,4.168921e+001
7.934714e+002,4.223669e+001
7.944357e+002,4.033875e+001
7.953999e+002,3.720044e+001
7.963641e+002,3.618420e+001
7.973284e+002,4.098096e+001
7.982926e+002,5.218188e+001
7.992568e+002,5.741138e+001
8.002211e+002,5.299023e+001
8.011853e+002,4.684290e+001
8.021495e+002,4.263489e+001
8.031138e+002,4.138477e+001
8.040780e+002,4.275806e+001
8.050422e+002,4.658301e+001
8.060065e+002,5.075989e+001
8.069707e+002,5.475317e+001
8.079349e+002,5.757214e+001
8.088992e+002,5.835730e+001
8.098634e+002,5.732715e+001
8.108276e+002,5.615332e+001
8.117919e+002,5.663269e+001
8.127561e+002,5.662366e+001
8.137203e+002,5.477698e+001
8.146846e+002,5.188794e+001
8.156488e+002,4.881763e+001
8.166130e+002,4.558728e+001
8.175773e+002,4.111633e+001
8.185415e+002,4.177136e+001
8.195057e+002,5.129126e+001
8.204700e+002,5.866675e+001
8.214342e+002,5.864014e+001
8.223984e+002,5.370996e+001
8.233627e+002,5.089502e+001
8.243269e+002,5.358130e+001
8.252911e+002,5.753369e+001
8.262554e+002,6.097766e+001
8.272196e+002,6.346594e+001
8.281838e+002,6.399268e+001
8.291481e+002,6.243530e+001
8.301123e+002,6.013745e+001
8.310765e+002,5.972253e+001
8.320408e+002,6.062427e+001
8.330050e+002,5.893274e+001
8.339692e+002,5.371362e+001
8.349335e+002,4.893469e+001
8.358977e+002,4.997168e+001
8.368619e+002,5.862964e+001
8.378262e+002,6.357581e+001
8.387904e+002,5.908704e+001
8.397546e+002,5.561450e+001
8.407189e+002,5.637549e+001
8.416831e+002,5.991565e+001
8.426473e+002,6.317834e+001
8.436116e+002,6.472766e+001
8.445758e+002,6.683118e+001
8.455400e+002,7.305383e+001
8.465043e+002,7.875659e+001
8.474685e+002,7.877026e+001
8.484327e+002,7.291016e+001
8.493970e+002,6.558020e+001
8.503612e+002,6.296887e+001
8.513254e+002,6.540759e+001
8.522897e+002,6.904346e+001
8.532539e+002,7.483923e+001
8.542181e+002,7.928784e+001
8.551824e+002,8.087646e+001
8.561466e+002,8.080835e+001
8.571108e+002,8.173669e+001
8.580751e+002,8.232483e+001
8.590393e+002,8.179102e+001
8.600035e+002,8.018115e+001
8.609678e+002,7.884155e+001
8.619320e+002,7.918237e+001
8.628962e+002,8.157068e+001
8.638605e+002,8.474573e+001
8.648247e+002,8.770593e+001
8.657889e+002,8.962292e+001
8.667532e+002,8.835315e+001
8.677174e+002,8.363062e+001
8.686816e+002,7.863684e+001
8.696459e+002,7.735242e+001
8.706101e+002,8.083777e+001
8.715743e+002,8.385327e+001
8.725386e+002,8.740906e+001
8.735028e+002,8.953345e+001
8.744670e+002,8.723315e+001
8.754313e+002,8.242834e+001
8.763955e+002,7.956946e+001
8.773597e+002,8.083020e+001
8.783240e+002,8.350549e+001
8.792882e+002,8.587134e+001
8.802524e+002,8.762451e+001
8.812167e+002,8.866650e+001
8.821809e+002,8.898145e+001
8.831451e+002,8.850439e+001
8.841094e+002,8.716455e+001
8.850736e+002,8.578491e+001
8.860378e+002,8.730176e+001
8.870021e+002,9.177197e+001
8.879663e+002,9.642505e+001
8.889305e+002,9.990405e+001
8.898948e+002,1.018763e+002
8.908590e+002,1.018678e+002
8.918232e+002,9.910034e+001
8.927875e+002,9.702368e+001
8.937517e+002,9.609021e+001
8.947159e+002,9.628882e+001
8.956802e+002,9.726648e+001
8.966444e+002,9.838770e+001
8.976086e+002,9.905908e+001
8.985729e+002,9.964465e+001
8.995371e+002,1.004559e+002
9.005013e+002,1.012339e+002
9.014656e+002,1.022186e+002
9.024298e+002,1.025260e+002
9.033940e+002,1.006802e+002
9.043583e+002,9.666968e+001
9.053225e+002,9.598462e+001
9.062867e+002,1.024108e+002
9.072510e+002,1.060576e+002
9.082152e+002,1.062842e+002
9.091794e+002,1.058757e+002
9.101437e+002,1.074630e+002
9.111079e+002,1.113813e+002
9.120721e+002,1.151343e+002
9.130364e+002,1.164427e+002
9.140006e+002,1.161943e+002
9.149648e+002,1.152546e+002
9.159291e+002,1.143699e+002
9.168933e+002,1.137856e+002
9.178575e+002,1.132738e+002
9.188218e+002,1.124519e+002
9.197860e+002,1.113356e+002
9.207502e+002,1.094607e+002
9.217145e+002,1.084709e+002
9.226787e+002,1.103396e+002
9.236429e+002,1.137678e+002
9.246072e+002,1.163368e+002
9.255714e+002,1.174093e+002
9.265356e+002,1.174387e+002
9.274999e+002,1.148440e+002
9.284641e+002,1.122330e+002
9.294283e+002,1.110919e+002
9.303926e+002,1.111508e+002
9.313568e+002,1.120873e+002
9.323210e+002,1.138527e+002
9.332853e+002,1.141969e+002
9.342495e+002,1.060012e+002
9.352137e+002,9.445874e+001
9.361780e+002,8.925513e+001
9.371422e+002,9.306201e+001
9.381064e+002,1.011807e+002
9.390707e+002,1.065435e+002
9.400349e+002,1.077683e+002
9.409991e+002,1.091770e+002
9.419634e+002,1.096912e+002
9.429276e+002,1.112325e+002
9.438918e+002,1.158678e+002
9.448561e+002,1.217208e+002
9.458203e+002,1.258683e+002
9.467845e+002,1.278295e+002
9.477488e+002,1.280624e+002
9.487130e+002,1.235021e+002
9.496772e+002,1.193621e+002
9.506415e+002,1.208064e+002
9.516057e+002,1.273064e+002
9.525699e+002,1.345857e+002
9.535342e+002,1.384139e+002
9.544984e+002,1.386300e+002
9.554626e+002,1.362260e+002
9.564269e+002,1.316140e+002
9.573911e+002,1.292856e+002
9.583553e+002,1.302893e+002
9.593196e+002,1.337473e+002
9.602838e+002,1.394839e+002
9.612480e+002,1.487540e+002
9.622123e+002,1.533724e+002
9.631765e+002,1.478574e+002
9.641407e+002,1.411355e+002
9.651050e+002,1.354324e+002
9.660692e+002,1.314476e+002
9.670334e+002,1.305800e+002
9.679977e+002,1.343341e+002
9.689619e+002,1.403402e+002
9.699261e+002,1.412054e+002
9.708904e+002,1.377982e+002
9.718546e+002,1.337872e+002
9.728188e+002,1.292169e+002
9.737831e+002,1.255162e+002
9.747473e+002,1.256176e+002
9.757115e+002,1.310084e+002
9.766758e+002,1.338149e+002
9.776400e+002,1.314709e+002
9.786042e+002,1.311835e+002
9.795685e+002,1.361290e+002
9.805327e+002,1.422062e+002
9.814969e+002,1.437567e+002
9.824612e+002,1.394399e+002
9.834254e+002,1.358650e+002
9.843896e+002,1.402233e+002
9.853539e+002,1.468622e+002
9.863181e+002,1.501667e+002
9.872823e+002,1.493892e+002
9.882466e+002,1.462542e+002
9.892108e+002,1.429943e+002
9.901750e+002,1.412345e+002
9.911393e+002,1.435402e+002
9.921035e+002,1.491495e+002
9.930677e+002,1.551251e+002
9.940320e+002,1.630599e+002
9.949962e+002,1.719099e+002
9.959604e+002,1.805333e+002
9.969247e+002,1.890424e+002
9.978889e+002,1.985538e+002
9.988531e+002,2.103743e+002
9.998174e+002,2.191205e+002
1.000782e+003,2.211445e+002
1.001746e+003,2.200433e+002
1.002710e+003,2.208033e+002
1.003674e+003,2.253126e+002
1.004639e+003,2.309132e+002
1.005603e+003,2.328228e+002
1.006567e+003,2.302659e+002
1.007531e+003,2.301300e+002
1.008495e+003,2.337600e+002
1.009460e+003,2.373485e+002
1.010424e+003,2.392350e+002
1.011388e+003,2.397104e+002
1.012352e+003,2.389596e+002
1.013317e+003,2.364268e+002
1.014281e+003,2.323796e+002
1.015245e+003,2.257178e+002
1.016209e+003,2.180814e+002
1.017174e+003,2.114386e+002
1.018138e+003,2.055847e+002
1.019102e+003,1.982389e+002
1.020066e+003,1.874429e+002
1.021031e+003,1.756842e+002
1.021995e+003,1.685980e+002
1.022959e+003,1.643904e+002
1.023923e+003,1.602245e+002
1.024887e+003,1.549967e+002
1.025852e+003,1.492697e+002
1.026816e+003,1.441919e+002
1.027780e+003,1.403781e+002
1.028744e+003,1.380365e+002
1.029709e+003,1.376017e+002
1.030673e+003,1.377106e+002
1.031637e+003,1.388925e+002
1.032601e+003,1.394008e+002
1.033566e+003,1.365422e+002
1.034530e+003,1.298031e+002
1.035494e+003,1.234680e+002
1.036458e+003,1.218923e+002
1.037422e+003,1.233643e+002
1.038387e+003,1.260676e+002
1.039351e+003,1.293209e+002
1.040315e+003,1.309778e+002
1.041279e+003,1.293829e+002
1.042244e+003,1.260876e+002
1.043208e+003,1.271135e+002
1.044172e+003,1.363910e+002
1.045136e+003,1.411563e+002
1.046101e+003,1.401399e+002
1.047065e+003,1.368975e+002
1.048029e+003,1.320951e+002
1.048993e+003,1.264922e+002
1.049958e+003,1.222067e+002
1.050922e+003,1.203560e+002
1.051886e+003,1.215846e+002
1.052850e+003,1.289865e+002
1.053814e+003,1.379855e+002
1.054779e+003,1.424080e+002
1.055743e+003,1.408949e+002
1.056707e+003,1.359865e+002
1.057671e+003,1.305260e+002
1.058636e+003,1.243015e+002
1.059600e+003,1.217881e+002
1.060564e+003,1.272892e+002
1.061528e+003,1.325065e+002
1.062493e+003,1.358794e+002
1.063457e+003,1.369220e+002
1.064421e+003,1.347821e+002
1.065385e+003,1.299169e+002
1.066349e+003,1.267015e+002
1.067314e+003,1.290446e+002
1.068278e+003,1.318086e+002
1.069242e+003,1.310157e+002
1.070206e+003,1.287527e+002
1.071171e+003,1.282153e+002
1.072135e+003,1.302064e+002
1.073099e+003,1.323215e+002
1.074063e+003,1.310856e+002
1.075028e+003,1.263260e+002
1.075992e+003,1.261361e+002
1.076956e+003,1.332648e+002
1.077920e+003,1.379773e+002
1.078885e+003,1.363755e+002
1.079849e+003,1.315405e+002
1.080813e+003,1.282964e+002
1.081777e+003,1.275138e+002
1.082741e+003,1.279125e+002
1.083706e+003,1.267391e+002
1.084670e+003,1.265277e+002
1.085634e+003,1.312673e+002
1.086598e+003,1.377113e+002
1.087563e+003,1.392242e+002
1.088527e+003,1.329193e+002
1.089491e+003,1.240961e+002
1.090455e+003,1.219717e+002
1.091420e+003,1.266874e+002
1.092384e+003,1.284602e+002
1.093348e+003,1.246439e+002
1.094312e+003,1.212861e+002
1.095276e+003,1.235269e+002
1.096241e+003,1.300417e+002
1.097205e+003,1.353618e+002
1.098169e+003,1.387710e+002
1.099133e+003,1.388828e+002
1.100098e+003,1.322765e+002
1.101062e+003,1.260868e+002
1.102026e+003,1.249841e+002
1.102990e+003,1.282351e+002
1.103955e+003,1.327993e+002
1.104919e+003,1.366173e+002
1.105883e+003,1.397932e+002
1.106847e+003,1.433785e+002
1.107812e+003,1.471201e+002
1.108776e+003,1.484022e+002
1.109740e+003,1.461069e+002
1.110704e+003,1.434905e+002
1.111668e+003,1.433450e+002
1.112633e+003,1.459731e+002
1.113597e+003,1.500847e+002
1.114561e+003,1.551051e+002
1.115525e+003,1.607665e+002
1.116490e+003,1.691677e+002
1.117454e+003,1.757985e+002
1.118418e+003,1.773364e+002
1.119382e+003,1.756903e+002
1.120347e+003,1.747118e+002
1.121311e+003,1.759777e+002
1.122275e+003,1.774594e+002
1.123239e+003,1.778218e+002
1.124203e+003,1.783276e+002
1.125168e+003,1.785367e+002
1.126132e+003,1.777152e+002
1.127096e+003,1.792761e+002
1.128060e+003,1.868907e+002
1.129025e+003,1.986201e+002
1.129989e+003,2.065458e+002
1.130953e+003,2.080765e+002
1.131917e+003,2.093998e+002
1.132882e+003,2.128634e+002
1.133846e+003,2.168866e+002
1.134810e+003,2.201261e+002
1.135774e+003,2.232982e+002
1.136739e+003,2.277957e+002
1.137703e+003,2.343416e+002
1.138667e+003,2.429373e+002
1.139631e+003,2.543223e+002
1.140595e+003,2.680828e+002
1.141560e+003,2.817687e+002
1.142524e+003,2.955151e+002
1.143488e+003,3.112827e+002
1.144452e+003,3.285804e+002
1.145417e+003,3.484982e+002
1.146381e+003,3.761520e+002
1.147345e+003,4.146548e+002
1.148309e+003,4.517810e+002
1.149274e+003,4.842009e+002
1.150238e+003,5.159677e+002
1.151202e+003,5.507356e+002
1.152166e+003,5.869595e+002
1.153130e+003,6.220281e+002
1.154095e+003,6.534446e+002
1.155059e+003,6.771578e+002
1.156023e+003,6.889451e+002
1.156987e+003,6.890183e+002
1.157952e+003,6.813538e+002
1.158916e+003,6.672972e+002
1.159880e+003,6.491534e+002
1.160844e+003,6.254333e+002
1.161809e+003,5.958945e+002
1.162773e+003,5.618645e+002
1.163737e+003,5.220133e+002
1.164701e+003,4.845073e+002
1.165666e+003,4.525127e+002
1.166630e+003,4.235225e+002
1.167594e+003,3.943196e+002
1.168558e+003,3.684067e+002
1.169522e+003,3.517080e+002
1.170487e+003,3.452777e+002
1.171451e+003,3.438645e+002
1.172415e+003,3.416967e+002
1.173379e+003,3.387310e+002
1.174344e+003,3.368832e+002
1.175308e+003,3.367534e+002
1.176272e+003,3.348419e+002
1.177236e+003,3.293374e+002
1.178201e+003,3.227030e+002
1.179165e+003,3.176007e+002
1.180129e+003,3.133262e+002
1.181093e+003,3.074341e+002
1.182057e+003,2.986394e+002
1.183022e+003,2.904268e+002
1.183986e+003,2.823472e+002
1.184950e+003,2.766991e+002
1.185914e+003,2.766279e+002
1.186879e+003,2.818403e+002
1.187843e+003,2.895969e+002
1.188807e+003,2.974885e+002
1.189771e+003,3.040475e+002
1.190736e+003,3.053317e+002
1.191700e+003,3.004951e+002
1.192664e+003,2.980924e+002
1.193628e+003,3.024369e+002
1.194593e+003,3.059410e+002
1.195557e+003,3.021237e+002
1.196521e+003,2.926892e+002
1.197485e+003,2.840885e+002
1.198449e+003,2.775397e+002
1.199414e+003,2.716071e+002
1.200378e+003,2.663566e+002
1.201342e+003,2.610120e+002
1.202306e+003,2.537316e+002
1.203271e+003,2.455756e+002
1.204235e+003,2.393073e+002
1.205199e+003,2.363646e+002
1.206163e+003,2.353679e+002
1.207128e+003,2.339033e+002
1.208092e+003,2.320889e+002
1.209056e+003,2.281836e+002
1.210020e+003,2.214818e+002
1.210984e+003,2.146835e+002
1.211949e+003,2.084996e+002
1.212913e+003,2.022126e+002
1.213877e+003,1.954458e+002
1.214841e+003,1.884240e+002
1.215806e+003,1.806595e+002
1.216770e+003,1.707841e+002
1.217734e+003,1.615222e+002
1.218698e+003,1.529767e+002
1.219663e+003,1.460797e+002
1.220627e+003,1.430426e+002
1.221591e+003,1.435811e+002
1.222555e+003,1.447158e+002
1.223520e+003,1.438795e+002
1.224484e+003,1.417959e+002
1.225448e+003,1.400105e+002
1.226412e+003,1.380846e+002
1.227376e+003,1.370532e+002
1.228341e+003,1.352991e+002
1.229305e+003,1.354838e+002
1.230269e+003,1.420989e+002
1.231233e+003,1.507214e+002
1.232198e+003,1.520317e+002
1.233162e+003,1.437740e+002
1.234126e+003,1.346346e+002
1.235090e+003,1.289750e+002
1.236055e+003,1.259784e+002
1.237019e+003,1.258453e+002
1.237983e+003,1.272289e+002
1.238947e+003,1.273896e+002
1.239911e+003,1.256793e+002
1.240876e+003,1.242585e+002
1.241840e+003,1.261375e+002
1.242804e+003,1.316726e+002
1.243768e+003,1.349525e+002
1.244733e+003,1.327285e+002
1.245697e+003,1.326432e+002
1.246661e+003,1.362455e+002
1.247625e+003,1.394618e+002
1.248590e+003,1.395175e+002
1.249554e+003,1.376646e+002
1.250518e+003,1.366727e+002
1.251482e+003,1.372162e+002
1.252447e+003,1.386522e+002
1.253411e+003,1.416647e+002
1.254375e+003,1.458666e+002
1.255339e+003,1.494479e+002
1.256303e+003,1.527806e+002
1.257268e+003,1.568717e+002
1.258232e+003,1.620238e+002
1.259196e+003,1.662927e+002
1.260160e+003,1.663616e+002
1.261125e+003,1.618491e+002
1.262089e+003,1.610934e+002
1.263053e+003,1.672574e+002
1.264017e+003,1.725549e+002
1.264982e+003,1.757504e+002
1.265946e+003,1.775876e+002
1.266910e+003,1.788649e+002
1.267874e+003,1.795894e+002
1.268839e+003,1.791085e+002
1.269803e+003,1.770206e+002
1.270767e+003,1.742030e+002
1.271731e+003,1.724238e+002
1.272695e+003,1.721362e+002
1.273660e+003,1.723607e+002
1.274624e+003,1.725135e+002
1.275588e+003,1.704755e+002
1.276552e+003,1.652107e+002
1.277517e+003,1.586367e+002
1.278481e+003,1.526986e+002
1.279445e+003,1.470696e+002
1.280409e+003,1.436631e+002
1.281374e+003,1.449545e+002
1.282338e+003,1.465188e+002
1.283302e+003,1.461608e+002
1.284266e+003,1.444912e+002
1.285230e+003,1.418113e+002
1.286195e+003,1.384414e+002
1.287159e+003,1.350166e+002
1.288123e+003,1.324489e+002
1.289087e+003,1.318792e+002
1.290052e+003,1.352372e+002
1.291016e+003,1.441427e+002
1.291980e+003,1.481643e+002
1.292944e+003,1.431865e+002
1.293909e+003,1.374377e+002
1.294873e+003,1.351499e+002
1.295837e+003,1.347986e+002
1.296801e+003,1.335728e+002
1.297766e+003,1.312190e+002
1.298730e+003,1.298075e+002
1.299694e+003,1.301638e+002
1.300658e+003,1.308748e+002
1.301622e+003,1.311223e+002
1.302587e+003,1.312286e+002
1.303551e+003,1.309531e+002
1.304515e+003,1.307036e+002
1.305479e+003,1.318412e+002
1.306444e+003,1.352650e+002
1.307408e+003,1.396770e+002
1.308372e+003,1.421394e+002
1.309336e+003,1.425397e+002
1.310301e+003,1.409723e+002
1.311265e+003,1.356869e+002
1.312229e+003,1.317703e+002
1.313193e+003,1.313903e+002
1.314157e+003,1.322469e+002
1.315122e+003,1.320865e+002
1.316086e+003,1.302261e+002
1.317050e+003,1.266967e+002
1.318014e+003,1.217284e+002
1.318979e+003,1.174589e+002
1.319943e+003,1.172919e+002
1.320907e+003,1.213618e+002
1.321871e+003,1.262220e+002
1.322836e+003,1.309886e+002
1.323800e+003,1.347374e+002
1.324764e+003,1.373916e+002
1.325728e+003,1.388997e+002
1.326693e+003,1.385468e+002
1.327657e+003,1.357787e+002
1.328621e+003,1.317953e+002
1.329585e+003,1.276951e+002
1.330549e+003,1.265775e+002
1.331514e+003,1.278607e+002
1.332478e+003,1.299396e+002
1.333442e+003,1.335664e+002
1.334406e+003,1.378469e+002
1.335371e+003,1.391267e+002
1.336335e+003,1.353204e+002
1.337299e+003,1.297579e+002
1.338263e+003,1.286571e+002
1.339228e+003,1.328674e+002
1.340192e+003,1.338773e+002
1.341156e+003,1.277722e+002
1.342120e+003,1.243452e+002
1.343084e+003,1.256780e+002
1.344049e+003,1.278380e+002
1.345013e+003,1.291758e+002
1.345977e+003,1.297661e+002
1.346941e+003,1.289208e+002
1.347906e+003,1.261685e+002
1.348870e+003,1.241290e+002
1.349834e+003,1.254803e+002
1.350798e+003,1.281709e+002
1.351763e+003,1.294911e+002
1.352727e+003,1.297010e+002
1.353691e+003,1.287454e+002
1.354655e+003,1.263636e+002
1.355620e+003,1.241146e+002
1.356584e+003,1.243759e+002
1.357548e+003,1.270872e+002
1.358512e+003,1.287675e+002
1.359476e+003,1.277555e+002
1.360441e+003,1.263993e+002
1.361405e+003,1.273226e+002
1.362369e+003,1.269231e+002
1.363333e+003,1.212688e+002
1.364298e+003,1.142803e+002
1.365262e+003,1.117511e+002
1.366226e+003,1.147468e+002
1.367190e+003,1.200256e+002
1.368155e+003,1.247836e+002
1.369119e+003,1.284186e+002
1.370083e+003,1.289791e+002
1.371047e+003,1.258268e+002
1.372011e+003,1.244197e+002
1.372976e+003,1.240494e+002
1.373940e+003,1.241422e+002
1.374904e+003,1.249680e+002
1.375868e+003,1.266741e+002
1.376833e+003,1.298345e+002
1.377797e+003,1.337637e+002
1.378761e+003,1.353492e+002
1.379725e+003,1.329153e+002
1.380690e+003,1.298759e+002
1.381654e+003,1.306382e+002
1.382618e+003,1.329475e+002
1.383582e+003,1.333281e+002
1.384547e+003,1.317906e+002
1.385511e+003,1.301298e+002
1.386475e+003,1.287476e+002
1.387439e+003,1.277461e+002
1.388403e+003,1.280863e+002
1.389368e+003,1.296566e+002
1.390332e+003,1.289846e+002
1.391296e+003,1.246826e+002
1.392260e+003,1.221294e+002
1.393225e+003,1.235723e+002
1.394189e+003,1.252872e+002
1.395153e+003,1.250797e+002
1.396117e+003,1.238473e+002
1.397082e+003,1.231915e+002
1.398046e+003,1.238490e+002
1.399010e+003,1.257921e+002
1.399974e+003,1.284834e+002
1.400938e+003,1.302198e+002
1.401903e+003,1.284891e+002
1.402867e+003,1.243212e+002
1.403831e+003,1.244076e+002
1.404795e+003,1.300271e+002
1.405760e+003,1.354845e+002
1.406724e+003,1.374955e+002
1.407688e+003,1.359978e+002
1.408652e+003,1.314111e+002
1.409617e+003,1.258383e+002
1.410581e+003,1.242196e+002
1.411545e+003,1.291368e+002
1.412509e+003,1.347474e+002
1.413474e+003,1.343209e+002
1.414438e+003,1.299404e+002
1.415402e+003,1.268883e+002
1.416366e+003,1.259363e+002
1.417330e+003,1.257867e+002
1.418295e+003,1.260203e+002
1.419259e+003,1.266948e+002
1.420223e+003,1.271641e+002
1.421187e+003,1.270352e+002
1.422152e+003,1.276595e+002
1.423116e+003,1.300673e+002
1.424080e+003,1.336771e+002
1.425044e+003,1.395883e+002
1.426009e+003,1.432444e+002
1.426973e+003,1.411212e+002
1.427937e+003,1.365299e+002
1.428901e+003,1.331412e+002
1.429865e+003,1.322230e+002
1.430830e+003,1.338949e+002
1.431794e+003,1.376902e+002
1.432758e+003,1.414694e+002
1.433722e+003,1.419583e+002
1.434687e+003,1.400165e+002
1.435651e+003,1.429945e+002
1.436615e+003,1.521760e+002
1.437579e+003,1.575906e+002
1.438544e+003,1.576798e+002
1.439508e+003,1.553604e+002
1.440472e+003,1.525551e+002
1.441436e+003,1.500591e+002
1.442401e+003,1.477473e+002
1.443365e+003,1.453904e+002
1.444329e+003,1.438271e+002
1.445293e+003,1.440587e+002
1.446257e+003,1.456497e+002
1.447222e+003,1.474287e+002
1.448186e+003,1.492159e+002
1.449150e+003,1.509985e+002
1.450114e+003,1.529955e+002
1.451079e+003,1.526982e+002
1.452043e+003,1.474805e+002
1.453007e+003,1.415337e+002
1.453971e+003,1.402870e+002
1.454936e+003,1.428352e+002
1.455900e+003,1.448790e+002
1.456864e+003,1.459067e+002
1.457828e+003,1.470161e+002
1.458792e+003,1.491490e+002
1.459757e+003,1.499608e+002
1.460721e+003,1.463973e+002
1.461685e+003,1.403907e+002
1.462649e+003,1.361931e+002
1.463614e+003,1.352695e+002
1.464578e+003,1.359902e+002
1.465542e+003,1.368591e+002
1.466506e+003,1.370482e+002
1.467471e+003,1.343701e+002
1.468435e+003,1.282832e+002
1.469399e+003,1.279584e+002
1.470363e+003,1.370975e+002
1.471328e+003,1.451477e+002
1.472292e+003,1.490214e+002
1.473256e+003,1.498323e+002
1.474220e+003,1.491639e+002
1.475184e+003,1.482228e+002
1.476149e+003,1.470859e+002
1.477113e+003,1.454481e+002
1.478077e+003,1.440385e+002
1.479041e+003,1.443939e+002
1.480006e+003,1.466875e+002
1.480970e+003,1.494650e+002
1.481934e+003,1.520270e+002
1.482898e+003,1.533507e+002
1.483863e+003,1.508655e+002
1.484827e+003,1.503993e+002
1.485791e+003,1.565504e+002
1.486755e+003,1.643835e+002
1.487719e+003,1.689181e+002
1.488684e+003,1.701403e+002
1.489648e+003,1.699805e+002
1.490612e+003,1.696543e+002
1.491576e+003,1.710861e+002
1.492541e+003,1.755061e+002
1.493505e+003,1.819042e+002
1.494469e+003,1.890066e+002
1.495433e+003,1.955563e+002
1.496398e+003,2.000033e+002
1.497362e+003,2.028297e+002
1.498326e+003,2.069121e+002
1.499290e+003,2.128591e+002
1.500255e+003,2.211501e+002
1.501219e+003,2.331963e+002
1.502183e+003,2.479493e+002
1.503147e+003,2.600188e+002
1.504111e+003,2.668225e+002
1.505076e+003,2.783562e+002
1.506040e+003,3.032953e+002
1.507004e+003,3.330942e+002
1.507968e+003,3.586851e+002
1.508933e+003,3.823977e+002
1.509897e+003,4.098955e+002
1.510861e+003,4.433705e+002
1.511825e+003,4.787280e+002
1.512790e+003,5.103945e+002
1.513754e+003,5.435042e+002
1.514718e+003,5.938326e+002
1.515682e+003,6.603862e+002
1.516646e+003,7.092715e+002
1.517611e+003,7.320762e+002
1.518575e+003,7.543857e+002
1.519539e+003,7.882687e+002
1.520503e+003,8.212581e+002
1.521468e+003,8.506882e+002
1.522432e+003,8.720527e+002
1.523396e+003,8.792367e+002
1.524360e+003,8.723477e+002
1.525325e+003,8.568208e+002
1.526289e+003,8.365613e+002
1.527253e+003,8.126558e+002
1.528217e+003,7.868356e+002
1.529182e+003,7.598735e+002
1.530146e+003,7.263501e+002
1.531110e+003,6.817073e+002
1.532074e+003,6.373617e+002
1.533039e+003,5.941198e+002
1.534003e+003,5.470403e+002
1.534967e+003,4.943230e+002
1.535931e+003,4.401638e+002
1.536896e+003,3.853273e+002
1.537860e+003,3.334385e+002
1.538824e+003,2.920271e+002
1.539788e+003,2.641731e+002
1.540752e+003,2.440751e+002
1.541717e+003,2.250692e+002
1.542681e+003,2.079624e+002
1.543645e+003,1.945537e+002
1.544609e+003,1.874993e+002
1.545573e+003,1.804264e+002
1.546538e+003,1.700914e+002
1.547502e+003,1.610164e+002
1.548466e+003,1.575378e+002
1.549430e+003,1.565248e+002
1.550395e+003,1.541406e+002
1.551359e+003,1.499291e+002
1.552323e+003,1.445259e+002
1.553287e+003,1.385663e+002
1.554252e+003,1.349210e+002
1.555216e+003,1.364738e+002
1.556180e+003,1.405481e+002
1.557144e+003,1.412399e+002
1.558109e+003,1.387642e+002
1.559073e+003,1.352849e+002
1.560037e+003,1.286940e+002
1.561001e+003,1.222889e+002
1.561966e+003,1.181156e+002
1.562930e+003,1.164720e+002
1.563894e+003,1.180095e+002
1.564858e+003,1.208759e+002
1.565823e+003,1.209032e+002
1.566787e+003,1.173840e+002
1.567751e+003,1.148412e+002
1.568715e+003,1.164094e+002
1.569679e+003,1.195310e+002
1.570644e+003,1.206707e+002
1.571608e+003,1.197294e+002
1.572572e+003,1.182505e+002
1.573536e+003,1.169008e+002
1.574500e+003,1.170359e+002
1.575465e+003,1.194489e+002
1.576429e+003,1.220847e+002
1.577393e+003,1.227932e+002
1.578357e+003,1.220928e+002
1.579322e+003,1.214257e+002
1.580286e+003,1.213073e+002
1.581250e+003,1.228679e+002
1.582214e+003,1.270646e+002
1.583179e+003,1.305446e+002
1.584143e+003,1.302389e+002
1.585107e+003,1.272710e+002
1.586071e+003,1.240269e+002
1.587036e+003,1.217098e+002
1.588000e+003,1.205087e+002
1.588964e+003,1.196995e+002
1.589928e+003,1.197981e+002
1.590893e+003,1.224008e+002
1.591857e+003,1.252782e+002
1.592821e+003,1.240953e+002
1.593785e+003,1.200608e+002
1.594750e+003,1.192131e+002
1.595714e+003,1.220553e+002
1.596678e+003,1.267570e+002
1.597642e+003,1.354630e+002
1.598606e+003,1.417645e+002
1.599571e+003,1.388311e+002
1.600535e+003,1.323533e+002
1.601499e+003,1.288210e+002
1.602463e+003,1.283662e+002
1.603427e+003,1.294105e+002
1.604392e+003,1.315944e+002
1.605356e+003,1.334677e+002
1.606320e+003,1.338521e+002
1.607284e+003,1.328114e+002
1.608249e+003,1.299532e+002
1.609213e+003,1.252112e+002
1.610177e+003,1.210773e+002
1.611141e+003,1.179763e+002
1.612106e+003,1.155463e+002
1.613070e+003,1.137220e+002
1.614034e+003,1.122294e+002
1.614998e+003,1.108535e+002
1.615963e+003,1.097893e+002
1.616927e+003,1.092020e+002
1.617891e+003,1.088636e+002
1.618855e+003,1.083328e+002
1.619820e+003,1.070424e+002
1.620784e+003,1.039458e+002
1.621748e+003,9.765637e+001
1.622712e+003,9.068030e+001
1.623677e+003,9.131458e+001
1.624641e+003,1.012825e+002
1.625605e+003,1.098014e+002
1.626569e+003,1.124432e+002
1.627533e+003,1.117679e+002
1.628498e+003,1.091708e+002
1.629462e+003,1.061931e+002
1.630426e+003,1.034388e+002
1.631390e+003,1.010032e+002
1.632354e+003,9.870032e+001
1.633319e+003,9.660156e+001
1.634283e+003,9.649194e+001
1.635247e+003,1.001213e+002
1.636211e+003,1.045137e+002
1.637176e+003,1.047137e+002
1.638140e+003,1.013857e+002
1.639104e+003,9.752295e+001
1.640068e+003,9.196655e+001
1.641033e+003,8.884863e+001
1.641997e+003,9.124280e+001
1.642961e+003,9.441748e+001
1.643925e+003,9.578320e+001
1.644890e+003,9.671362e+001
1.645854e+003,9.867493e+001
1.646818e+003,1.010614e+002
1.647782e+003,1.020720e+002
1.648747e+003,1.011934e+002
1.649711e+003,1.005261e+002
1.650675e+003,1.027299e+002
1.651639e+003,1.062141e+002
1.652604e+003,1.057466e+002
1.653568e+003,1.010138e+002
1.654532e+003,9.859473e+001
1.655496e+003,9.955908e+001
1.656460e+003,1.002856e+002
1.657425e+003,1.003287e+002
1.658389e+003,9.992810e+001
1.659353e+003,1.003041e+002
1.660317e+003,9.943066e+001
1.661281e+003,9.300745e+001
1.662246e+003,8.322571e+001
1.663210e+003,7.783386e+001
1.664174e+003,7.956567e+001
1.665138e+003,8.287988e+001
1.666103e+003,8.285388e+001
1.667067e+003,8.046350e+001
1.668031e+003,7.783447e+001
1.668995e+003,7.531409e+001
1.669960e+003,7.472839e+001
1.670924e+003,7.694812e+001
1.671888e+003,7.914526e+001
1.672852e+003,7.986890e+001
1.673817e+003,8.013098e+001
1.674781e+003,8.118591e+001
1.675745e+003,8.155945e+001
1.676709e+003,7.805115e+001
1.677674e+003,7.238721e+001
1.678638e+003,7.109961e+001
1.679602e+003,7.616357e+001
1.680566e+003,7.964465e+001
1.681531e+003,7.466199e+001
1.682495e+003,6.678369e+001
1.683459e+003,6.462939e+001
1.684423e+003,6.685327e+001
1.685387e+003,6.875671e+001
1.686352e+003,7.038562e+001
1.687316e+003,7.061975e+001
1.688280e+003,6.828137e+001
1.689244e+003,6.594409e+001
1.690208e+003,6.543506e+001
1.691173e+003,6.546802e+001
1.692137e+003,6.473657e+001
1.693101e+003,6.440430e+001
1.694065e+003,6.661877e+001
1.695030e+003,7.115991e+001
1.695994e+003,7.409741e+001
1.696958e+003,7.253992e+001
1.697922e+003,6.978406e+001
1.698887e+003,7.129822e+001
1.699851e+003,7.503101e+001
1.700815e+003,7.252515e+001
1.701779e+003,6.283484e+001
1.702744e+003,5.586011e+001
1.703708e+003,5.604114e+001
1.704672e+003,5.859692e+001
1.705636e+003,5.875916e+001
1.706601e+003,5.803333e+001
1.707565e+003,6.197937e+001
1.708529e+003,6.892151e+001
1.709493e+003,7.060840e+001
1.710458e+003,6.541919e+001
1.711422e+003,5.999524e+001
1.712386e+003,5.818359e+001
1.713350e+003,5.727246e+001
1.714314e+003,5.339099e+001
1.715279e+003,4.815271e+001
1.716243e+003,4.504370e+001
1.717207e+003,4.424292e+001
1.718171e+003,4.488000e+001
1.719135e+003,4.691162e+001
1.720100e+003,4.837341e+001
1.721064e+003,4.721045e+001
1.722028e+003,4.551794e+001
1.722992e+003,4.787097e+001
1.723957e+003,5.405371e+001
1.724921e+003,5.668481e+001
1.725885e+003,5.359204e+001
1.726849e+003,5.047961e+001
1.727814e+003,5.092200e+001
1.728778e+003,5.145142e+001
1.729742e+003,4.943567e+001
1.730706e+003,4.716479e+001
1.731671e+003,4.607727e+001
1.732635e+003,4.497205e+001
1.733599e+003,4.297192e+001
1.734563e+003,4.103455e+001
1.735528e+003,4.099756e+001
1.736492e+003,4.337561e+001
1.737456e+003,4.539221e+001
1.738420e+003,4.354529e+001
1.739385e+003,3.861499e+001
1.740349e+003,3.648022e+001
1.741313e+003,3.874731e+001
1.742277e+003,3.934351e+001
1.743241e+003,3.669299e+001
1.744206e+003,3.651721e+001
1.745170e+003,4.204626e+001
1.746134e+003,4.626294e+001
1.747098e+003,4.338647e+001
1.748063e+003,3.837903e+001
1.749027e+003,3.705273e+001
1.749991e+003,3.938940e+001
1.750955e+003,4.321802e+001
1.751919e+003,4.701245e+001
1.752884e+003,4.871399e+001
1.753848e+003,4.658276e+001
1.754812e+003,4.193176e+001
1.755776e+003,3.792249e+001
1.756741e+003,3.540161e+001
1.757705e+003,3.403699e+001
1.758669e+003,3.255847e+001
1.759633e+003,3.373816e+001
1.760598e+003,4.092004e+001
1.761562e+003,4.479858e+001
1.762526e+003,4.222754e+001
1.763490e+003,3.777527e+001
1.764455e+003,3.268201e+001
1.765419e+003,2.915552e+001
1.766383e+003,3.048474e+001
1.767347e+003,3.556006e+001
1.768312e+003,3.978052e+001
1.769276e+003,4.074805e+001
1.770240e+003,3.863574e+001
1.771204e+003,3.371362e+001
1.772168e+003,2.866687e+001
1.773133e+003,2.786243e+001
1.774097e+003,3.088354e+001
1.775061e+003,3.434033e+001
1.776025e+003,3.724011e+001
1.776990e+003,3.770569e+001
1.777954e+003,3.460632e+001
1.778918e+003,3.348022e+001
1.779882e+003,4.008826e+001
1.780846e+003,4.765076e+001
1.781811e+003,4.802722e+001
1.782775e+003,4.287744e+001
1.783739e+003,3.616309e+001
1.784703e+003,2.841174e+001
1.785668e+003,2.319580e+001
1.786632e+003,2.162427e+001
1.787596e+003,2.112585e+001
1.788560e+003,2.217712e+001
1.789525e+003,2.406018e+001
1.790489e+003,2.347668e+001
1.791453e+003,2.122375e+001
1.792417e+003,2.229382e+001
1.793382e+003,2.733179e+001
1.794346e+003,3.084509e+001
1.795310e+003,2.973718e+001
1.796274e+003,2.647571e+001
1.797239e+003,2.413464e+001
1.798203e+003,2.405237e+001
1.799167e+003,2.722791e+001
1.800131e+003,3.269592e+001
1.801095e+003,3.397009e+001
1.802060e+003,3.095215e+001
1.803024e+003,2.815430e+001
1.803988e+003,2.357678e+001
1.804952e+003,2.088672e+001
1.805917e+003,2.295105e+001
1.806881e+003,2.670557e+001
1.807845e+003,3.080920e+001
1.808809e+003,3.405725e+001
1.809773e+003,3.366675e+001
1.810738e+003,2.999011e+001
1.811702e+003,2.824304e+001
1.812666e+003,3.147559e+001
1.813630e+003,3.457263e+001
1.814595e+003,2.991467e+001
1.815559e+003,2.009058e+001
1.816523e+003,1.805457e+001
1.817487e+003,2.516992e+001
1.818452e+003,2.689612e+001
1.819416e+003,2.086096e+001
1.820380e+003,1.719128e+001
1.821344e+003,1.977649e+001
1.822309e+003,2.171155e+001
1.823273e+003,1.762219e+001
1.824237e+003,1.336572e+001
1.825201e+003,1.517419e+001
1.826166e+003,2.083130e+001
1.827130e+003,2.466492e+001
1.828094e+003,2.532874e+001
1.829058e+003,2.449792e+001
1.830022e+003,2.313135e+001
1.830987e+003,2.177942e+001
1.831951e+003,2.152954e+001
1.832915e+003,2.115027e+001
1.833879e+003,1.779163e+001
1.834844e+003,1.276624e+001
1.835808e+003,1.014575e+001
1.836772e+003,1.066333e+001
1.837736e+003,1.320959e+001
1.838700e+003,1.694788e+001
1.839665e+003,1.955566e+001
1.840629e+003,1.909204e+001
1.841593e+003,1.745862e+001
1.842557e+003,1.838135e+001
1.843522e+003,2.172485e+001
1.844486e+003,2.069263e+001
1.845450e+003,1.178284e+001
1.846414e+003,7.761841e+000
1.847379e+003,1.010583e+001
1.848343e+003,1.206433e+001
1.849307e+003,1.279077e+001
1.850271e+003,1.243274e+001
1.851236e+003,1.051367e+001
1.852200e+003,8.974365e+000
1.853164e+003,9.883423e+000
1.854128e+003,1.182361e+001
1.855093e+003,1.164490e+001
1.856057e+003,9.271851e+000
1.857021e+003,8.202271e+000
1.857985e+003,1.093030e+001
1.858949e+003,1.537158e+001
1.859914e+003,1.866406e+001
1.860878e+003,2.110730e+001
1.861842e+003,2.277124e+001
1.862806e+003,2.330103e+001
1.863771e+003,2.377759e+001
1.864735e+003,2.432996e+001
1.865699e+003,2.256226e+001
1.866663e+003,1.590076e+001
1.867627e+003,1.141760e+001
1.868592e+003,1.706897e+001
1.869556e+003,2.609058e+001
1.870520e+003,2.656140e+001
1.871484e+003,1.977295e+001
1.872449e+003,1.507825e+001
1.873413e+003,1.630078e+001
1.874377e+003,1.937976e+001
1.875341e+003,2.138159e+001
1.876306e+003,2.243408e+001
1.877270e+003,2.243774e+001
1.878234e+003,2.105444e+001
1.879198e+003,1.765356e+001
1.880163e+003,1.350415e+001
1.881127e+003,1.105225e+001
1.882091e+003,1.033936e+001
1.883055e+003,8.857422e+000
1.884020e+003,5.748901e+000
1.884984e+003,4.167480e+000
1.885948e+003,7.114014e+000
1.886912e+003,1.247705e+001
1.887876e+003,1.629163e+001
1.888841e+003,1.873193e+001
1.889805e+003,2.023364e+001
1.890769e+003,2.052930e+001
1.891733e+003,2.166089e+001
1.892698e+003,2.466492e+001
1.893662e+003,2.441724e+001
1.894626e+003,1.739087e+001
1.895590e+003,9.700684e+000
1.896554e+003,5.357910e+000
1.897519e+003,3.788696e+000
1.898483e+003,4.353149e+000
1.899447e+003,5.592285e+000
1.900411e+003,5.361450e+000
1.901376e+003,3.536133e+000
1.902340e+003,2.769775e+000
1.903304e+003,5.418579e+000
1.904268e+003,6.831787e+000
1.905233e+003,3.184814e+000
1.906197e+003,-1.377319e+000
1.907161e+003,-2.599854e+000
1.908125e+003,-1.175049e+000
1.909090e+003,6.722412e-001
1.910054e+003,2.069092e+000
1.911018e+003,3.066650e+000
1.911982e+003,4.310547e+000
1.912947e+003,7.310059e+000
1.913911e+003,1.291663e+001
1.914875e+003,1.886487e+001
1.915839e+003,2.137842e+001
1.916803e+003,1.999316e+001
1.917768e+003,1.552100e+001
1.918732e+003,7.699585e+000
1.919696e+003,2.902344e+000
1.920660e+003,1.921631e+000
1.921625e+003,3.863770e+000
1.922589e+003,1.007446e+001
1.923553e+003,1.530469e+001
1.924517e+003,1.607495e+001
1.925481e+003,1.553882e+001
1.926446e+003,1.751538e+001
1.927410e+003,1.989990e+001
1.928374e+003,1.673340e+001
1.929338e+003,7.839600e+000
1.930303e+003,2.781006e+000
1.931267e+003,6.334473e+000
1.932231e+003,1.092627e+001
1.933195e+003,1.223242e+001
1.934160e+003,1.239453e+001
1.935124e+003,1.296631e+001
1.936088e+003,1.272852e+001
1.937052e+003,1.028589e+001
1.938017e+003,7.353760e+000
1.938981e+003,7.708496e+000
1.939945e+003,1.059839e+001
1.940909e+003,1.006079e+001
1.941874e+003,3.518066e+000
1.942838e+003,-4.247803e+000
1.943802e+003,-8.179199e+000
1.944766e+003,-7.457275e+000
1.945730e+003,-1.039063e+000
1.946695e+003,9.109131e+000
1.947659e+003,1.143164e+001
1.948623e+003,4.927979e+000
1.949587e+003,-1.235840e+000
1.950552e+003,-6.334961e+000
1.951516e+003,-7.636230e+000
1.952480e+003,-2.372314e+000
1.953444e+003,2.695557e+000
1.954408e+003,1.191895e+000
1.955373e+003,-2.621582e+000
1.956337e+003,-1.452637e-001
1.957301e+003,6.937744e+000
1.958265e+003,8.216553e+000
1.959230e+003,2.555664e+000
1.960194e+003,1.525879e-001
1.961158e+003,4.236328e+000
1.962122e+003,5.594727e+000
1.963087e+003,-1.231689e+000
1.964051e+003,-7.072998e+000
1.965015e+003,-3.679199e+000
1.965979e+003,2.394043e+000
1.966944e+003,2.579102e+000
1.967908e+003,-9.045410e-001
1.968872e+003,-1.483887e+000
1.969836e+003,1.509766e+000
1.970801e+003,4.510254e+000
1.971765e+003,5.924805e+000
1.972729e+003,5.102539e+000
1.973693e+003,6.503906e-001
1.974657e+003,-4.140137e+000
1.975622e+003,-3.647705e+000
1.976586e+003,-5.239258e-001
1.977550e+003,-1.437256e+000
1.978514e+003,-5.320313e+000
1.979479e+003,-7.370605e+000
1.980443e+003,-7.079346e+000
1.981407e+003,-5.194824e+000
1.982371e+003,-1.507813e+000
1.983335e+003,2.339111e+000
1.984300e+003,4.719238e+000
1.985264e+003,4.830322e+000
1.986228e+003,1.522217e+000
1.987192e+003,-3.916260e+000
1.988157e+003,-4.239258e+000
1.989121e+003,2.773926e+000
1.990085e+003,5.346680e+000
1.991049e+003,2.003418e+000
1.992014e+003,-1.666016e+000
1.992978e+003,-7.362549e+000
1.993942e+003,-1.116431e+001
1.994906e+003,-1.031250e+001
1.995871e+003,-8.496338e+000
1.996835e+003,-8.858643e+000
1.997799e+003,-9.069336e+000
1.998763e+003,-5.682373e+000
1.999728e+003,2.729492e-001
