5.003444e+002,5.398772e+001
5.013087e+002,5.296384e+001
5.022729e+002,5.166258e+001
5.032371e+002,5.018935e+001
5.042014e+002,4.825407e+001
5.051656e+002,4.600302e+001
5.061298e+002,4.409357e+001
5.070941e+002,4.308640e+001
5.080583e+002,4.300844e+001
5.090225e+002,4.346324e+001
5.099868e+002,4.509322e+001
5.109510e+002,4.642157e+001
5.119152e+002,4.659512e+001
5.128795e+002,4.552699e+001
5.138437e+002,4.438942e+001
5.148079e+002,4.332964e+001
5.157722e+002,4.257378e+001
5.167364e+002,4.241266e+001
5.177006e+002,4.269403e+001
5.186649e+002,4.281425e+001
5.196291e+002,4.192593e+001
5.205933e+002,4.080234e+001
5.215576e+002,4.021045e+001
5.225218e+002,4.008359e+001
5.234860e+002,3.991640e+001
5.244503e+002,3.888300e+001
5.254145e+002,3.671130e+001
5.263787e+002,3.598262e+001
5.273430e+002,3.772635e+001
5.283072e+002,4.021454e+001
5.292714e+002,4.089322e+001
5.302357e+002,3.840550e+001
5.311999e+002,3.652834e+001
5.321641e+002,3.595789e+001
5.331284e+002,3.613542e+001
5.340926e+002,3.668018e+001
5.350568e+002,3.741266e+001
5.360211e+002,3.809917e+001
5.369853e+002,3.902017e+001
5.379495e+002,3.979633e+001
5.389138e+002,3.996674e+001
5.398780e+002,3.936142e+001
5.408422e+002,3.818307e+001
5.418065e+002,3.684196e+001
5.427707e+002,3.539458e+001
5.437349e+002,3.437939e+001
5.446992e+002,3.406508e+001
5.456634e+002,3.416945e+001
5.466276e+002,3.372339e+001
5.475919e+002,3.176791e+001
5.485561e+002,3.057393e+001
5.495203e+002,3.065419e+001
5.504846e+002,3.129297e+001
5.514488e+002,3.150931e+001
5.524130e+002,3.092177e+001
5.533773e+002,3.017047e+001
5.543415e+002,2.955891e+001
5.553057e+002,2.902710e+001
5.562700e+002,2.838472e+001
5.572342e+002,2.750594e+001
5.581984e+002,2.670950e+001
5.591627e+002,2.701541e+001
5.601269e+002,2.810573e+001
5.610911e+002,2.932538e+001
5.620554e+002,3.032201e+001
5.630196e+002,3.104175e+001
5.639838e+002,3.140884e+001
5.649481e+002,3.201018e+001
5.659123e+002,3.146294e+001
5.668765e+002,2.893980e+001
5.678408e+002,2.522566e+001
5.688050e+002,2.234842e+001
5.697692e+002,2.092674e+001
5.707335e+002,1.994278e+001
5.716977e+002,1.906784e+001
5.726619e+002,1.849396e+001
5.736262e+002,1.862215e+001
5.745904e+002,1.984694e+001
5.755546e+002,2.148589e+001
5.765189e+002,2.259918e+001
5.774831e+002,2.310942e+001
5.784473e+002,2.283643e+001
5.794116e+002,2.171428e+001
5.803758e+002,1.993993e+001
5.813400e+002,1.908774e+001
5.823043e+002,1.913539e+001
5.832685e+002,1.930415e+001
5.842327e+002,1.959694e+001
5.851970e+002,2.003328e+001
5.861612e+002,2.021831e+001
5.871254e+002,1.919637e+001
5.880897e+002,1.878441e+001
5.890539e+002,1.958621e+001
5.900181e+002,2.111301e+001
5.909824e+002,2.277232e+001
5.919466e+002,2.465550e+001
5.929108e+002,2.548741e+001
5.938751e+002,2.355298e+001
5.948393e+002,2.015401e+001
5.958035e+002,1.723215e+001
5.967678e+002,1.621764e+001
5.977320e+002,1.692732e+001
5.986962e+002,1.786238e+001
5.996605e+002,1.894824e+001
6.006247e+002,1.966367e+001
6.015889e+002,1.964011e+001
6.025532e+002,1.894931e+001
6.035174e+002,1.846902e+001
6.044816e+002,1.834583e+001
6.054459e+002,1.835384e+001
6.064101e+002,1.854971e+001
6.073743e+002,1.883182e+001
6.083386e+002,1.906036e+001
6.093028e+002,1.920576e+001
6.102670e+002,1.925581e+001
6.112313e+002,1.897417e+001
6.121955e+002,1.865155e+001
6.131597e+002,1.879536e+001
6.141240e+002,1.972684e+001
6.150882e+002,2.107191e+001
6.160524e+002,2.120970e+001
6.170167e+002,2.041791e+001
6.179809e+002,1.938698e+001
6.189451e+002,1.817258e+001
6.199094e+002,1.683078e+001
6.208736e+002,1.623674e+001
6.218378e+002,1.768736e+001
6.228021e+002,1.867186e+001
6.237663e+002,1.908008e+001
6.247305e+002,1.890529e+001
6.256948e+002,1.788675e+001
6.266590e+002,1.515691e+001
6.276232e+002,1.309599e+001
6.285875e+002,1.358031e+001
6.295517e+002,1.521837e+001
6.305159e+002,1.660831e+001
6.314802e+002,1.693437e+001
6.324444e+002,1.652585e+001
6.334086e+002,1.622935e+001
6.343729e+002,1.613051e+001
6.353371e+002,1.640701e+001
6.363013e+002,1.718823e+001
6.372656e+002,1.819814e+001
6.382298e+002,1.855072e+001
6.391940e+002,1.792630e+001
6.401583e+002,1.680556e+001
6.411225e+002,1.490544e+001
6.420867e+002,1.290797e+001
6.430510e+002,1.142790e+001
6.440152e+002,1.045071e+001
6.449794e+002,1.024762e+001
6.459437e+002,1.177553e+001
6.469079e+002,1.340959e+001
6.478721e+002,1.357848e+001
6.488364e+002,1.195107e+001
6.498006e+002,1.001865e+001
6.507648e+002,1.097275e+001
6.517291e+002,1.349524e+001
6.526933e+002,1.405278e+001
6.536575e+002,1.185135e+001
6.546218e+002,8.739090e+000
6.555860e+002,8.403000e+000
6.565502e+002,1.319107e+001
6.575145e+002,1.568680e+001
6.584787e+002,1.467183e+001
6.594429e+002,1.269896e+001
6.604072e+002,1.161909e+001
6.613714e+002,1.171722e+001
6.623356e+002,1.228629e+001
6.632999e+002,1.363864e+001
6.642641e+002,1.466731e+001
6.652283e+002,1.460359e+001
6.661926e+002,1.363962e+001
6.671568e+002,1.271071e+001
6.681210e+002,1.302490e+001
6.690853e+002,1.392473e+001
6.700495e+002,1.356975e+001
6.710137e+002,1.203307e+001
6.719780e+002,1.071642e+001
6.729422e+002,1.122362e+001
6.739064e+002,1.410612e+001
6.748707e+002,1.516110e+001
6.758349e+002,1.299406e+001
6.767991e+002,1.111356e+001
6.777634e+002,1.153012e+001
6.787276e+002,1.395697e+001
6.796918e+002,1.555157e+001
6.806561e+002,1.401283e+001
6.816203e+002,1.260869e+001
6.825845e+002,1.316512e+001
6.835488e+002,1.463484e+001
6.845130e+002,1.490442e+001
6.854772e+002,1.221725e+001
6.864415e+002,8.695206e+000
6.874057e+002,9.661865e+000
6.883699e+002,1.344281e+001
6.893342e+002,1.591643e+001
6.902984e+002,1.469133e+001
6.912626e+002,1.052040e+001
6.922269e+002,8.400604e+000
6.931911e+002,1.023285e+001
6.941553e+002,1.190771e+001
6.951196e+002,1.284607e+001
6.960838e+002,1.336900e+001
6.970480e+002,1.420804e+001
6.980123e+002,1.597047e+001
6.989765e+002,1.694749e+001
6.999407e+002,1.645259e+001
7.009050e+002,1.510326e+001
7.018692e+002,1.290729e+001
7.028334e+002,1.010135e+001
7.037977e+002,7.619522e+000
7.047619e+002,7.448044e+000
7.057261e+002,8.729874e+000
7.066904e+002,9.518539e+000
7.076546e+002,9.501724e+000
7.086188e+002,9.246094e+000
7.095831e+002,9.686890e+000
7.105473e+002,1.122322e+001
7.115115e+002,1.194221e+001
7.124758e+002,1.113501e+001
7.134400e+002,1.031477e+001
7.144042e+002,1.065031e+001
7.153685e+002,1.218004e+001
7.163327e+002,1.331342e+001
7.172969e+002,1.300574e+001
7.182612e+002,1.242850e+001
7.192254e+002,1.175200e+001
7.201896e+002,1.113704e+001
7.211539e+002,1.081432e+001
7.221181e+002,1.103133e+001
7.230823e+002,1.153714e+001
7.240466e+002,1.174644e+001
7.250108e+002,1.176523e+001
7.259750e+002,1.144914e+001
7.269393e+002,1.049825e+001
7.279035e+002,8.974518e+000
7.288677e+002,8.342621e+000
7.298320e+002,1.000975e+001
7.307962e+002,1.130365e+001
7.317604e+002,1.147147e+001
7.327247e+002,1.143661e+001
7.336889e+002,1.281261e+001
7.346531e+002,1.661179e+001
7.356174e+002,1.890775e+001
7.365816e+002,1.685078e+001
7.375458e+002,1.362372e+001
7.385101e+002,1.116579e+001
7.394743e+002,1.023495e+001
7.404385e+002,1.073264e+001
7.414028e+002,1.307011e+001
7.423670e+002,1.633998e+001
7.433312e+002,1.736105e+001
7.442955e+002,1.593918e+001
7.452597e+002,1.384912e+001
7.462239e+002,1.305190e+001
7.471882e+002,1.393439e+001
7.481524e+002,1.422957e+001
7.491166e+002,1.293571e+001
7.500809e+002,1.196953e+001
7.510451e+002,1.241078e+001
7.520093e+002,1.386354e+001
7.529736e+002,1.484564e+001
7.539378e+002,1.476991e+001
7.549020e+002,1.411079e+001
7.558663e+002,1.254588e+001
7.568306e+002,1.087230e+001
7.577948e+002,1.023273e+001
7.587590e+002,1.123039e+001
7.597233e+002,1.319159e+001
7.606875e+002,1.455974e+001
7.616517e+002,1.544505e+001
7.626160e+002,1.545349e+001
7.635802e+002,1.420554e+001
7.645444e+002,1.233707e+001
7.655087e+002,1.113133e+001
7.664729e+002,1.075079e+001
7.674371e+002,1.070982e+001
7.684014e+002,1.108652e+001
7.693656e+002,1.157928e+001
7.703298e+002,1.204694e+001
7.712941e+002,1.247302e+001
7.722583e+002,1.289104e+001
7.732225e+002,1.334534e+001
7.741868e+002,1.376001e+001
7.751510e+002,1.428448e+001
7.761152e+002,1.473409e+001
7.770795e+002,1.455725e+001
7.780437e+002,1.323358e+001
7.790079e+002,1.100427e+001
7.799722e+002,1.033662e+001
7.809364e+002,1.114946e+001
7.819006e+002,1.247012e+001
7.828649e+002,1.450601e+001
7.838291e+002,1.691528e+001
7.847933e+002,1.830908e+001
7.857576e+002,1.786308e+001
7.867218e+002,1.728072e+001
7.876860e+002,1.693353e+001
7.886503e+002,1.676596e+001
7.896145e+002,1.686641e+001
7.905787e+002,1.719696e+001
7.915430e+002,1.725259e+001
7.925072e+002,1.570039e+001
7.934714e+002,1.389400e+001
7.944357e+002,1.376172e+001
7.953999e+002,1.527757e+001
7.963641e+002,1.710620e+001
7.973284e+002,1.769873e+001
7.982926e+002,1.695822e+001
7.992568e+002,1.673805e+001
8.002211e+002,1.695288e+001
8.011853e+002,1.714011e+001
8.021495e+002,1.744196e+001
8.031138e+002,1.791937e+001
8.040780e+002,1.823117e+001
8.050422e+002,1.786211e+001
8.060065e+002,1.775009e+001
8.069707e+002,1.855945e+001
8.079349e+002,1.938852e+001
8.088992e+002,1.918916e+001
8.098634e+002,1.774419e+001
8.108276e+002,1.619939e+001
8.117919e+002,1.636887e+001
8.127561e+002,1.728522e+001
8.137203e+002,1.724272e+001
8.146846e+002,1.618410e+001
8.156488e+002,1.503668e+001
8.166130e+002,1.488826e+001
8.175773e+002,1.592749e+001
8.185415e+002,1.664114e+001
8.195057e+002,1.664034e+001
8.204700e+002,1.664549e+001
8.214342e+002,1.706941e+001
8.223984e+002,1.768536e+001
8.233627e+002,1.784935e+001
8.243269e+002,1.720551e+001
8.252911e+002,1.642448e+001
8.262554e+002,1.540338e+001
8.272196e+002,1.471277e+001
8.281838e+002,1.519794e+001
8.291481e+002,1.699251e+001
8.301123e+002,1.923177e+001
8.310765e+002,2.045712e+001
8.320408e+002,2.058681e+001
8.330050e+002,2.017580e+001
8.339692e+002,1.923735e+001
8.349335e+002,1.789017e+001
8.358977e+002,1.598695e+001
8.368619e+002,1.333643e+001
8.378262e+002,1.202112e+001
8.387904e+002,1.290755e+001
8.397546e+002,1.401927e+001
8.407189e+002,1.531897e+001
8.416831e+002,1.643884e+001
8.426473e+002,1.677992e+001
8.436116e+002,1.595297e+001
8.445758e+002,1.489182e+001
8.455400e+002,1.415128e+001
8.465043e+002,1.372237e+001
8.474685e+002,1.382666e+001
8.484327e+002,1.459077e+001
8.493970e+002,1.603085e+001
8.503612e+002,1.809836e+001
8.513254e+002,2.097687e+001
8.522897e+002,2.237128e+001
8.532539e+002,2.130019e+001
8.542181e+002,2.007204e+001
8.551824e+002,2.035115e+001
8.561466e+002,2.203302e+001
8.571108e+002,2.327107e+001
8.580751e+002,2.297032e+001
8.590393e+002,2.252425e+001
8.600035e+002,2.252182e+001
8.609678e+002,2.275293e+001
8.619320e+002,2.284058e+001
8.628962e+002,2.264409e+001
8.638605e+002,2.254294e+001
8.648247e+002,2.346143e+001
8.657889e+002,2.477979e+001
8.667532e+002,2.503401e+001
8.677174e+002,2.403711e+001
8.686816e+002,2.283441e+001
8.696459e+002,2.269197e+001
8.706101e+002,2.385791e+001
8.715743e+002,2.470000e+001
8.725386e+002,2.477129e+001
8.735028e+002,2.513771e+001
8.744670e+002,2.608398e+001
8.754313e+002,2.734302e+001
8.763955e+002,2.850786e+001
8.773597e+002,2.948311e+001
8.783240e+002,3.047025e+001
8.792882e+002,3.177469e+001
8.802524e+002,3.296437e+001
8.812167e+002,3.374042e+001
8.821809e+002,3.399449e+001
8.831451e+002,3.364244e+001
8.841094e+002,3.251570e+001
8.850736e+002,3.079123e+001
8.860378e+002,3.021887e+001
8.870021e+002,3.077432e+001
8.879663e+002,3.197882e+001
8.889305e+002,3.417520e+001
8.898948e+002,3.691835e+001
8.908590e+002,3.790085e+001
8.918232e+002,3.541338e+001
8.927875e+002,3.394006e+001
8.937517e+002,3.502107e+001
8.947159e+002,3.693704e+001
8.956802e+002,3.829086e+001
8.966444e+002,3.866698e+001
8.976086e+002,3.847636e+001
8.985729e+002,3.786137e+001
8.995371e+002,3.747313e+001
9.005013e+002,3.853117e+001
9.014656e+002,4.078716e+001
9.024298e+002,4.277272e+001
9.033940e+002,4.328664e+001
9.043583e+002,4.240805e+001
9.053225e+002,4.153789e+001
9.062867e+002,3.994286e+001
9.072510e+002,3.925511e+001
9.082152e+002,4.061121e+001
9.091794e+002,4.242775e+001
9.101437e+002,4.301930e+001
9.111079e+002,4.209822e+001
9.120721e+002,4.103139e+001
9.130364e+002,4.048215e+001
9.140006e+002,3.991281e+001
9.149648e+002,3.867589e+001
9.159291e+002,3.736610e+001
9.168933e+002,3.741177e+001
9.178575e+002,3.970433e+001
9.188218e+002,4.298654e+001
9.197860e+002,4.267146e+001
9.207502e+002,3.862248e+001
9.217145e+002,3.548779e+001
9.226787e+002,3.465311e+001
9.236429e+002,3.485686e+001
9.246072e+002,3.413933e+001
9.255714e+002,3.201949e+001
9.265356e+002,3.109061e+001
9.274999e+002,3.313783e+001
9.284641e+002,3.484932e+001
9.294283e+002,3.483701e+001
9.303926e+002,3.381395e+001
9.313568e+002,3.329874e+001
9.323210e+002,3.410474e+001
9.332853e+002,3.516289e+001
9.342495e+002,3.450731e+001
9.352137e+002,3.295580e+001
9.361780e+002,3.178543e+001
9.371422e+002,3.135768e+001
9.381064e+002,3.125336e+001
9.390707e+002,3.075426e+001
9.400349e+002,2.957545e+001
9.409991e+002,2.914578e+001
9.419634e+002,2.999207e+001
9.429276e+002,3.074200e+001
9.438918e+002,3.107759e+001
9.448561e+002,3.112756e+001
9.458203e+002,3.111916e+001
9.467845e+002,3.113489e+001
9.477488e+002,3.118071e+001
9.487130e+002,3.132861e+001
9.496772e+002,3.141066e+001
9.506415e+002,3.119980e+001
9.516057e+002,3.075133e+001
9.525699e+002,3.036490e+001
9.535342e+002,3.032678e+001
9.544984e+002,3.050858e+001
9.554626e+002,3.005850e+001
9.564269e+002,2.890695e+001
9.573911e+002,2.829985e+001
9.583553e+002,2.934053e+001
9.593196e+002,3.071188e+001
9.602838e+002,2.978816e+001
9.612480e+002,2.552878e+001
9.622123e+002,2.284787e+001
9.631765e+002,2.469728e+001
9.641407e+002,2.692799e+001
9.651050e+002,2.767952e+001
9.660692e+002,2.717509e+001
9.670334e+002,2.641495e+001
9.679977e+002,2.606464e+001
9.689619e+002,2.617493e+001
9.699261e+002,2.693918e+001
9.708904e+002,2.801886e+001
9.718546e+002,2.844162e+001
9.728188e+002,2.772163e+001
9.737831e+002,2.723967e+001
9.747473e+002,2.920264e+001
9.757115e+002,3.431187e+001
9.766758e+002,3.826953e+001
9.776400e+002,4.160756e+001
9.786042e+002,4.332251e+001
9.795685e+002,4.229314e+001
9.805327e+002,3.966539e+001
9.814969e+002,3.693352e+001
9.824612e+002,3.466837e+001
9.834254e+002,3.251451e+001
9.843896e+002,2.969963e+001
9.853539e+002,2.685333e+001
9.863181e+002,2.453777e+001
9.872823e+002,2.282591e+001
9.882466e+002,2.204012e+001
9.892108e+002,2.262938e+001
9.901750e+002,2.439279e+001
9.911393e+002,2.471667e+001
9.921035e+002,2.135226e+001
9.930677e+002,1.962454e+001
9.940320e+002,2.105849e+001
9.949962e+002,2.339597e+001
9.959604e+002,2.480031e+001
9.969247e+002,2.511841e+001
9.978889e+002,2.469673e+001
9.988531e+002,2.289024e+001
9.998174e+002,2.100200e+001
1.000782e+003,1.973480e+001
1.001746e+003,1.911676e+001
1.002710e+003,1.905858e+001
1.003674e+003,1.950027e+001
1.004639e+003,2.053348e+001
1.005603e+003,2.248959e+001
1.006567e+003,2.543806e+001
1.007531e+003,2.646585e+001
1.008495e+003,2.487111e+001
1.009460e+003,2.293727e+001
1.010424e+003,2.210909e+001
1.011388e+003,2.210556e+001
1.012352e+003,2.162192e+001
1.013317e+003,2.000526e+001
1.014281e+003,1.881825e+001
1.015245e+003,1.869598e+001
1.016209e+003,1.883716e+001
1.017174e+003,1.894102e+001
1.018138e+003,1.879381e+001
1.019102e+003,1.799889e+001
1.020066e+003,1.612828e+001
1.021031e+003,1.389873e+001
1.021995e+003,1.326512e+001
1.022959e+003,1.383643e+001
1.023923e+003,1.481094e+001
1.024887e+003,1.628497e+001
1.025852e+003,1.738130e+001
1.026816e+003,1.619620e+001
1.027780e+003,1.180487e+001
1.028744e+003,9.962738e+000
1.029709e+003,1.410286e+001
1.030673e+003,1.724625e+001
1.031637e+003,1.650215e+001
1.032601e+003,1.379324e+001
1.033566e+003,1.200131e+001
1.034530e+003,1.216582e+001
1.035494e+003,1.295273e+001
1.036458e+003,1.279822e+001
1.037422e+003,1.231570e+001
1.038387e+003,1.265166e+001
1.039351e+003,1.375165e+001
1.040315e+003,1.498817e+001
1.041279e+003,1.602718e+001
1.042244e+003,1.678780e+001
1.043208e+003,1.654620e+001
1.044172e+003,1.395152e+001
1.045136e+003,1.250101e+001
1.046101e+003,1.296890e+001
1.047065e+003,1.391476e+001
1.048029e+003,1.455521e+001
1.048993e+003,1.481421e+001
1.049958e+003,1.485106e+001
1.050922e+003,1.469009e+001
1.051886e+003,1.464491e+001
1.052850e+003,1.499376e+001
1.053814e+003,1.560649e+001
1.054779e+003,1.649178e+001
1.055743e+003,1.754918e+001
1.056707e+003,1.838135e+001
1.057671e+003,1.852113e+001
1.058636e+003,1.794186e+001
1.059600e+003,1.697276e+001
1.060564e+003,1.503783e+001
1.061528e+003,1.382347e+001
1.062493e+003,1.366866e+001
1.063457e+003,1.406970e+001
1.064421e+003,1.486447e+001
1.065385e+003,1.602783e+001
1.066349e+003,1.644142e+001
1.067314e+003,1.471054e+001
1.068278e+003,1.306073e+001
1.069242e+003,1.337573e+001
1.070206e+003,1.477336e+001
1.071171e+003,1.572246e+001
1.072135e+003,1.555965e+001
1.073099e+003,1.494434e+001
1.074063e+003,1.511652e+001
1.075028e+003,1.625999e+001
1.075992e+003,1.613647e+001
1.076956e+003,1.389494e+001
1.077920e+003,1.187663e+001
1.078885e+003,1.104208e+001
1.079849e+003,1.108200e+001
1.080813e+003,1.127692e+001
1.081777e+003,1.144009e+001
1.082741e+003,1.235135e+001
1.083706e+003,1.560181e+001
1.084670e+003,1.845503e+001
1.085634e+003,1.927434e+001
1.086598e+003,1.850140e+001
1.087563e+003,1.708014e+001
1.088527e+003,1.566638e+001
1.089491e+003,1.457281e+001
1.090455e+003,1.434225e+001
1.091420e+003,1.501190e+001
1.092384e+003,1.505849e+001
1.093348e+003,1.418132e+001
1.094312e+003,1.309665e+001
1.095276e+003,1.218912e+001
1.096241e+003,1.151692e+001
1.097205e+003,1.094835e+001
1.098169e+003,1.005292e+001
1.099133e+003,1.027129e+001
1.100098e+003,1.383911e+001
1.101062e+003,1.713838e+001
1.102026e+003,1.754039e+001
1.102990e+003,1.576819e+001
1.103955e+003,1.392859e+001
1.104919e+003,1.329599e+001
1.105883e+003,1.348747e+001
1.106847e+003,1.395885e+001
1.107812e+003,1.464925e+001
1.108776e+003,1.402367e+001
1.109740e+003,1.122643e+001
1.110704e+003,8.751801e+000
1.111668e+003,8.452576e+000
1.112633e+003,1.008125e+001
1.113597e+003,1.263496e+001
1.114561e+003,1.708456e+001
1.115525e+003,1.967043e+001
1.116490e+003,1.768292e+001
1.117454e+003,1.518166e+001
1.118418e+003,1.521831e+001
1.119382e+003,1.713976e+001
1.120347e+003,1.831653e+001
1.121311e+003,1.705377e+001
1.122275e+003,1.432526e+001
1.123239e+003,1.192976e+001
1.124203e+003,1.019348e+001
1.125168e+003,1.094815e+001
1.126132e+003,1.544518e+001
1.127096e+003,1.964154e+001
1.128060e+003,1.999474e+001
1.129025e+003,1.728714e+001
1.129989e+003,1.530600e+001
1.130953e+003,1.409666e+001
1.131917e+003,1.405898e+001
1.132882e+003,1.692719e+001
1.133846e+003,1.933575e+001
1.134810e+003,1.856906e+001
1.135774e+003,1.568095e+001
1.136739e+003,1.344923e+001
1.137703e+003,1.343405e+001
1.138667e+003,1.466849e+001
1.139631e+003,1.557967e+001
1.140595e+003,1.621776e+001
1.141560e+003,1.722098e+001
1.142524e+003,1.872629e+001
1.143488e+003,2.049716e+001
1.144452e+003,2.230392e+001
1.145417e+003,2.420747e+001
1.146381e+003,2.655301e+001
1.147345e+003,2.964215e+001
1.148309e+003,3.223483e+001
1.149274e+003,3.420912e+001
1.150238e+003,3.558675e+001
1.151202e+003,3.575784e+001
1.152166e+003,3.556047e+001
1.153130e+003,3.662988e+001
1.154095e+003,3.952916e+001
1.155059e+003,4.252423e+001
1.156023e+003,4.316949e+001
1.156987e+003,4.177574e+001
1.157952e+003,4.107391e+001
1.158916e+003,4.146565e+001
1.159880e+003,4.130235e+001
1.160844e+003,3.934439e+001
1.161809e+003,3.604694e+001
1.162773e+003,3.259569e+001
1.163737e+003,2.893781e+001
1.164701e+003,2.546631e+001
1.165666e+003,2.192203e+001
1.166630e+003,1.911414e+001
1.167594e+003,1.758711e+001
1.168558e+003,1.686803e+001
1.169522e+003,1.627107e+001
1.170487e+003,1.562811e+001
1.171451e+003,1.549655e+001
1.172415e+003,1.659825e+001
1.173379e+003,1.856706e+001
1.174344e+003,1.964940e+001
1.175308e+003,1.992163e+001
1.176272e+003,1.969331e+001
1.177236e+003,1.879401e+001
1.178201e+003,1.771176e+001
1.179165e+003,1.704700e+001
1.180129e+003,1.673520e+001
1.181093e+003,1.623557e+001
1.182057e+003,1.531895e+001
1.183022e+003,1.448485e+001
1.183986e+003,1.399503e+001
1.184950e+003,1.362503e+001
1.185914e+003,1.287845e+001
1.186879e+003,1.199200e+001
1.187843e+003,1.202168e+001
1.188807e+003,1.383173e+001
1.189771e+003,1.666145e+001
1.190736e+003,1.850066e+001
1.191700e+003,1.934772e+001
1.192664e+003,1.858707e+001
1.193628e+003,1.467903e+001
1.194593e+003,1.120337e+001
1.195557e+003,1.138004e+001
1.196521e+003,1.405501e+001
1.197485e+003,1.502165e+001
1.198449e+003,1.309967e+001
1.199414e+003,1.130167e+001
1.200378e+003,1.132123e+001
1.201342e+003,1.162553e+001
1.202306e+003,1.118481e+001
1.203271e+003,1.021442e+001
1.204235e+003,9.345551e+000
1.205199e+003,8.939072e+000
1.206163e+003,9.001709e+000
1.207128e+003,9.589661e+000
1.208092e+003,1.075999e+001
1.209056e+003,1.117911e+001
1.210020e+003,1.082036e+001
1.210984e+003,9.975006e+000
1.211949e+003,8.295181e+000
1.212913e+003,6.393570e+000
1.213877e+003,5.181717e+000
1.214841e+003,4.721878e+000
1.215806e+003,4.168457e+000
1.216770e+003,3.107132e+000
1.217734e+003,1.962387e+000
1.218698e+003,7.962952e-001
1.219663e+003,-2.202148e-001
1.220627e+003,-9.239349e-001
1.221591e+003,-1.235901e+000
1.222555e+003,-1.009232e+000
1.223520e+003,-6.568909e-002
1.224484e+003,1.431793e+000
1.225448e+003,2.540405e+000
1.226412e+003,3.253662e+000
1.227376e+003,3.413940e+000
1.228341e+003,2.742874e+000
1.229305e+003,1.793671e+000
1.230269e+003,4.668732e-001
1.231233e+003,-8.258209e-001
1.232198e+003,-1.177628e+000
1.233162e+003,-2.804871e-001
1.234126e+003,9.907990e-001
1.235090e+003,2.455536e+000
1.236055e+003,3.401917e+000
1.237019e+003,2.730270e+000
1.237983e+003,9.762268e-001
1.238947e+003,-4.167633e-001
1.239911e+003,-7.987366e-001
1.240876e+003,-4.764252e-001
1.241840e+003,1.471252e-001
1.242804e+003,1.121674e+000
1.243768e+003,1.586685e+000
1.244733e+003,1.256775e+000
1.245697e+003,7.416992e-001
1.246661e+003,-6.824799e-001
1.247625e+003,-1.762802e+000
1.248590e+003,-1.087585e+000
1.249554e+003,8.676758e-001
1.250518e+003,2.422180e+000
1.251482e+003,2.790054e+000
1.252447e+003,2.324493e+000
1.253411e+003,9.953918e-001
1.254375e+003,-5.122375e-001
1.255339e+003,-6.126099e-001
1.256303e+003,7.273254e-001
1.257268e+003,1.905807e+000
1.258232e+003,1.865082e+000
1.259196e+003,1.124161e+000
1.260160e+003,8.559570e-001
1.261125e+003,1.202881e+000
1.262089e+003,1.656921e+000
1.263053e+003,2.188507e+000
1.264017e+003,2.624008e+000
1.264982e+003,2.825394e+000
1.265946e+003,3.052719e+000
1.266910e+003,3.710403e+000
1.267874e+003,4.655121e+000
1.268839e+003,5.282196e+000
1.269803e+003,5.190414e+000
1.270767e+003,4.719482e+000
1.271731e+003,4.629181e+000
1.272695e+003,4.891022e+000
1.273660e+003,4.142670e+000
1.274624e+003,1.605072e+000
1.275588e+003,-3.160095e-001
1.276552e+003,4.844666e-001
1.277517e+003,2.559967e+000
1.278481e+003,2.905670e+000
1.279445e+003,1.195557e+000
1.280409e+003,-2.227020e-001
1.281374e+003,-5.730286e-001
1.282338e+003,-4.469452e-001
1.283302e+003,-2.613678e-001
1.284266e+003,2.127533e-001
1.285230e+003,1.779221e+000
1.286195e+003,4.061584e+000
1.287159e+003,5.264694e+000
1.288123e+003,3.933365e+000
1.289087e+003,1.152863e+000
1.290052e+003,1.212158e-001
1.291016e+003,1.504044e+000
1.291980e+003,2.030807e+000
1.292944e+003,1.068756e+000
1.293909e+003,3.570557e-003
1.294873e+003,-8.771057e-001
1.295837e+003,-1.289780e+000
1.296801e+003,-6.033936e-001
1.297766e+003,1.136276e+000
1.298730e+003,2.529617e+000
1.299694e+003,2.701111e+000
1.300658e+003,2.375137e+000
1.301622e+003,2.213898e+000
1.302587e+003,2.266510e+000
1.303551e+003,2.770432e+000
1.304515e+003,3.717773e+000
1.305479e+003,4.385025e+000
1.306444e+003,4.030487e+000
1.307408e+003,3.056213e+000
1.308372e+003,3.085770e+000
1.309336e+003,4.701767e+000
1.310301e+003,5.486801e+000
1.311265e+003,5.059494e+000
1.312229e+003,4.233810e+000
1.313193e+003,2.913223e+000
1.314157e+003,1.481323e+000
1.315122e+003,1.319122e-001
1.316086e+003,-9.847412e-001
1.317050e+003,-1.499207e+000
1.318014e+003,-1.088211e+000
1.318979e+003,-2.744446e-001
1.319943e+003,-1.753998e-001
1.320907e+003,-5.947571e-001
1.321871e+003,-4.606628e-002
1.322836e+003,1.787659e+000
1.323800e+003,3.254761e+000
1.324764e+003,3.128265e+000
1.325728e+003,2.306931e+000
1.326693e+003,2.565323e+000
1.327657e+003,3.935287e+000
1.328621e+003,4.064835e+000
1.329585e+003,1.474899e+000
1.330549e+003,-4.856720e-001
1.331514e+003,9.681702e-002
1.332478e+003,1.493881e+000
1.333442e+003,2.257950e+000
1.334406e+003,2.324844e+000
1.335371e+003,2.328751e+000
1.336335e+003,2.645172e+000
1.337299e+003,2.918869e+000
1.338263e+003,2.366699e+000
1.339228e+003,7.828217e-001
1.340192e+003,3.733368e-001
1.341156e+003,2.217453e+000
1.342120e+003,3.554703e+000
1.343084e+003,3.495453e+000
1.344049e+003,3.087234e+000
1.345013e+003,3.536407e+000
1.345977e+003,4.498901e+000
1.346941e+003,4.271469e+000
1.347906e+003,2.123016e+000
1.348870e+003,5.239410e-001
1.349834e+003,2.326630e+000
1.350798e+003,5.681610e+000
1.351763e+003,7.043060e+000
1.352727e+003,6.693878e+000
1.353691e+003,6.300903e+000
1.354655e+003,6.493729e+000
1.355620e+003,6.785263e+000
1.356584e+003,6.761612e+000
1.357548e+003,6.415970e+000
1.358512e+003,5.256226e+000
1.359476e+003,2.583801e+000
1.360441e+003,5.816193e-001
1.361405e+003,6.881714e-002
1.362369e+003,1.325073e-001
1.363333e+003,6.407166e-001
1.364298e+003,1.309845e+000
1.365262e+003,1.886459e+000
1.366226e+003,2.269806e+000
1.367190e+003,2.398453e+000
1.368155e+003,2.206253e+000
1.369119e+003,1.879486e+000
1.370083e+003,2.065918e+000
1.371047e+003,3.069992e+000
1.372011e+003,3.423843e+000
1.372976e+003,2.134369e+000
1.373940e+003,1.343033e+000
1.374904e+003,2.284607e+000
1.375868e+003,3.935074e+000
1.376833e+003,5.209656e+000
1.377797e+003,5.885269e+000
1.378761e+003,5.577301e+000
1.379725e+003,3.779831e+000
1.380690e+003,2.144928e+000
1.381654e+003,3.035522e+000
1.382618e+003,4.866974e+000
1.383582e+003,5.159149e+000
1.384547e+003,4.032303e+000
1.385511e+003,3.619202e+000
1.386475e+003,5.146729e+000
1.387439e+003,7.181168e+000
1.388403e+003,7.421188e+000
1.389368e+003,5.863708e+000
1.390332e+003,4.673569e+000
1.391296e+003,3.940018e+000
1.392260e+003,3.654037e+000
1.393225e+003,4.204941e+000
1.394189e+003,4.685211e+000
1.395153e+003,4.542480e+000
1.396117e+003,4.008255e+000
1.397082e+003,3.164093e+000
1.398046e+003,2.324417e+000
1.399010e+003,2.656937e+000
1.399974e+003,5.270859e+000
1.400938e+003,8.807327e+000
1.401903e+003,9.079178e+000
1.402867e+003,5.132278e+000
1.403831e+003,3.108521e+000
1.404795e+003,3.967392e+000
1.405760e+003,5.115524e+000
1.406724e+003,5.938644e+000
1.407688e+003,6.112640e+000
1.408652e+003,4.901062e+000
1.409617e+003,2.802383e+000
1.410581e+003,2.047913e+000
1.411545e+003,3.724594e+000
1.412509e+003,5.776917e+000
1.413474e+003,5.945496e+000
1.414438e+003,5.257126e+000
1.415402e+003,6.044586e+000
1.416366e+003,8.012268e+000
1.417330e+003,8.442566e+000
1.418295e+003,5.897842e+000
1.419259e+003,2.935669e+000
1.420223e+003,2.784470e+000
1.421187e+003,4.871765e+000
1.422152e+003,5.786530e+000
1.423116e+003,5.050552e+000
1.424080e+003,4.815292e+000
1.425044e+003,6.091309e+000
1.426009e+003,7.350388e+000
1.426973e+003,8.033249e+000
1.427937e+003,8.298203e+000
1.428901e+003,8.531311e+000
1.429865e+003,8.682480e+000
1.430830e+003,8.094391e+000
1.431794e+003,6.321320e+000
1.432758e+003,4.099075e+000
1.433722e+003,2.980392e+000
1.434687e+003,3.116562e+000
1.435651e+003,3.976471e+000
1.436615e+003,6.333740e+000
1.437579e+003,7.667725e+000
1.438544e+003,7.274963e+000
1.439508e+003,6.365540e+000
1.440472e+003,5.344894e+000
1.441436e+003,4.655319e+000
1.442401e+003,5.195251e+000
1.443365e+003,6.974274e+000
1.444329e+003,8.244644e+000
1.445293e+003,7.535187e+000
1.446257e+003,6.216095e+000
1.447222e+003,7.366104e+000
1.448186e+003,1.030661e+001
1.449150e+003,1.107268e+001
1.450114e+003,8.758011e+000
1.451079e+003,6.491150e+000
1.452043e+003,5.938553e+000
1.453007e+003,6.379761e+000
1.453971e+003,7.065140e+000
1.454936e+003,7.839905e+000
1.455900e+003,7.940552e+000
1.456864e+003,7.099701e+000
1.457828e+003,6.121857e+000
1.458792e+003,5.166550e+000
1.459757e+003,4.429825e+000
1.460721e+003,4.029510e+000
1.461685e+003,3.988220e+000
1.462649e+003,4.479477e+000
1.463614e+003,5.519379e+000
1.464578e+003,6.647247e+000
1.465542e+003,7.489929e+000
1.466506e+003,7.932343e+000
1.467471e+003,7.548813e+000
1.468435e+003,6.106400e+000
1.469399e+003,5.536743e+000
1.470363e+003,6.661316e+000
1.471328e+003,7.431396e+000
1.472292e+003,7.262222e+000
1.473256e+003,6.565475e+000
1.474220e+003,5.531403e+000
1.475184e+003,4.449890e+000
1.476149e+003,3.459518e+000
1.477113e+003,2.665283e+000
1.478077e+003,2.431473e+000
1.479041e+003,3.192352e+000
1.480006e+003,4.823364e+000
1.480970e+003,6.785568e+000
1.481934e+003,9.300308e+000
1.482898e+003,1.071294e+001
1.483863e+003,1.039584e+001
1.484827e+003,9.946625e+000
1.485791e+003,9.812363e+000
1.486755e+003,9.836655e+000
1.487719e+003,9.966278e+000
1.488684e+003,1.000795e+001
1.489648e+003,9.497833e+000
1.490612e+003,8.355743e+000
1.491576e+003,7.352997e+000
1.492541e+003,6.953522e+000
1.493505e+003,7.254837e+000
1.494469e+003,9.240738e+000
1.495433e+003,1.235039e+001
1.496398e+003,1.306767e+001
1.497362e+003,1.012350e+001
1.498326e+003,8.001678e+000
1.499290e+003,9.778503e+000
1.500255e+003,1.311542e+001
1.501219e+003,1.510965e+001
1.502183e+003,1.575117e+001
1.503147e+003,1.542783e+001
1.504111e+003,1.388942e+001
1.505076e+003,1.316763e+001
1.506040e+003,1.509464e+001
1.507004e+003,1.771222e+001
1.507968e+003,1.858028e+001
1.508933e+003,1.874069e+001
1.509897e+003,2.066429e+001
1.510861e+003,2.481735e+001
1.511825e+003,2.912274e+001
1.512790e+003,3.213397e+001
1.513754e+003,3.412514e+001
1.514718e+003,3.533217e+001
1.515682e+003,3.571173e+001
1.516646e+003,3.758835e+001
1.517611e+003,4.215407e+001
1.518575e+003,4.604816e+001
1.519539e+003,4.780983e+001
1.520503e+003,4.920128e+001
1.521468e+003,5.201466e+001
1.522432e+003,5.448094e+001
1.523396e+003,5.339319e+001
1.524360e+003,4.906607e+001
1.525325e+003,4.527292e+001
1.526289e+003,4.454712e+001
1.527253e+003,4.513451e+001
1.528217e+003,4.380191e+001
1.529182e+003,4.057475e+001
1.530146e+003,3.785587e+001
1.531110e+003,3.612817e+001
1.532074e+003,3.388759e+001
1.533039e+003,3.047911e+001
1.534003e+003,2.688840e+001
1.534967e+003,2.345480e+001
1.535931e+003,2.042735e+001
1.536896e+003,1.791902e+001
1.537860e+003,1.600781e+001
1.538824e+003,1.490555e+001
1.539788e+003,1.462691e+001
1.540752e+003,1.459158e+001
1.541717e+003,1.416000e+001
1.542681e+003,1.332954e+001
1.543645e+003,1.179857e+001
1.544609e+003,8.842133e+000
1.545573e+003,7.381683e+000
1.546538e+003,7.448715e+000
1.547502e+003,8.654312e+000
1.548466e+003,1.233560e+001
1.549430e+003,1.612297e+001
1.550395e+003,1.726935e+001
1.551359e+003,1.628975e+001
1.552323e+003,1.552861e+001
1.553287e+003,1.579718e+001
1.554252e+003,1.583575e+001
1.555216e+003,1.447661e+001
1.556180e+003,1.228185e+001
1.557144e+003,1.044620e+001
1.558109e+003,9.032013e+000
1.559073e+003,8.211243e+000
1.560037e+003,8.124847e+000
1.561001e+003,8.057983e+000
1.561966e+003,7.905182e+000
1.562930e+003,7.793747e+000
1.563894e+003,7.439713e+000
1.564858e+003,7.202652e+000
1.565823e+003,8.571365e+000
1.566787e+003,1.161685e+001
1.567751e+003,1.298360e+001
1.568715e+003,1.035855e+001
1.569679e+003,6.694519e+000
1.570644e+003,5.556686e+000
1.571608e+003,6.264709e+000
1.572572e+003,6.972183e+000
1.573536e+003,7.692642e+000
1.574500e+003,8.424042e+000
1.575465e+003,9.337097e+000
1.576429e+003,9.915604e+000
1.577393e+003,9.098419e+000
1.578357e+003,7.866074e+000
1.579322e+003,8.753403e+000
1.580286e+003,1.168739e+001
1.581250e+003,1.305725e+001
1.582214e+003,1.135184e+001
1.583179e+003,9.441360e+000
1.584143e+003,9.425674e+000
1.585107e+003,1.027278e+001
1.586071e+003,1.077943e+001
1.587036e+003,1.109180e+001
1.588000e+003,1.130162e+001
1.588964e+003,1.134142e+001
1.589928e+003,1.163177e+001
1.590893e+003,1.276962e+001
1.591857e+003,1.403638e+001
1.592821e+003,1.406715e+001
1.593785e+003,1.318060e+001
1.594750e+003,1.336353e+001
1.595714e+003,1.507173e+001
1.596678e+003,1.610324e+001
1.597642e+003,1.507045e+001
1.598606e+003,1.387170e+001
1.599571e+003,1.448820e+001
1.600535e+003,1.563454e+001
1.601499e+003,1.533864e+001
1.602463e+003,1.378128e+001
1.603427e+003,1.277965e+001
1.604392e+003,1.309267e+001
1.605356e+003,1.398575e+001
1.606320e+003,1.486806e+001
1.607284e+003,1.571158e+001
1.608249e+003,1.658919e+001
1.609213e+003,1.752374e+001
1.610177e+003,1.748647e+001
1.611141e+003,1.579962e+001
1.612106e+003,1.441153e+001
1.613070e+003,1.451154e+001
1.614034e+003,1.502293e+001
1.614998e+003,1.489709e+001
1.615963e+003,1.476971e+001
1.616927e+003,1.626372e+001
1.617891e+003,1.923181e+001
1.618855e+003,2.098482e+001
1.619820e+003,1.971892e+001
1.620784e+003,1.731105e+001
1.621748e+003,1.642104e+001
1.622712e+003,1.700398e+001
1.623677e+003,1.828922e+001
1.624641e+003,2.053786e+001
1.625605e+003,2.191879e+001
1.626569e+003,2.130099e+001
1.627533e+003,2.053177e+001
1.628498e+003,2.127019e+001
1.629462e+003,2.180588e+001
1.630426e+003,1.984503e+001
1.631390e+003,1.667778e+001
1.632354e+003,1.551048e+001
1.633319e+003,1.693877e+001
1.634283e+003,1.845676e+001
1.635247e+003,1.812035e+001
1.636211e+003,1.704350e+001
1.637176e+003,1.760730e+001
1.638140e+003,1.965985e+001
1.639104e+003,2.000662e+001
1.640068e+003,1.789684e+001
1.641033e+003,1.649416e+001
1.641997e+003,1.716263e+001
1.642961e+003,1.794336e+001
1.643925e+003,1.784393e+001
1.644890e+003,1.737767e+001
1.645854e+003,1.678778e+001
1.646818e+003,1.629173e+001
1.647782e+003,1.647864e+001
1.648747e+003,1.744025e+001
1.649711e+003,1.808788e+001
1.650675e+003,1.746346e+001
1.651639e+003,1.626505e+001
1.652604e+003,1.573378e+001
1.653568e+003,1.581432e+001
1.654532e+003,1.648221e+001
1.655496e+003,1.802028e+001
1.656460e+003,1.916035e+001
1.657425e+003,1.988454e+001
1.658389e+003,1.969891e+001
1.659353e+003,1.726576e+001
1.660317e+003,1.465527e+001
1.661281e+003,1.448763e+001
1.662246e+003,1.608015e+001
1.663210e+003,1.694286e+001
1.664174e+003,1.628935e+001
1.665138e+003,1.516824e+001
1.666103e+003,1.431279e+001
1.667067e+003,1.369374e+001
1.668031e+003,1.350302e+001
1.668995e+003,1.369141e+001
1.669960e+003,1.287987e+001
1.670924e+003,1.040952e+001
1.671888e+003,9.570343e+000
1.672852e+003,1.282375e+001
1.673817e+003,1.575102e+001
1.674781e+003,1.497957e+001
1.675745e+003,1.286455e+001
1.676709e+003,1.171674e+001
1.677674e+003,1.156136e+001
1.678638e+003,1.190329e+001
1.679602e+003,1.257831e+001
1.680566e+003,1.281473e+001
1.681531e+003,1.182150e+001
1.682495e+003,1.040887e+001
1.683459e+003,9.867142e+000
1.684423e+003,1.004424e+001
1.685387e+003,1.033446e+001
1.686352e+003,1.074632e+001
1.687316e+003,1.101428e+001
1.688280e+003,1.102319e+001
1.689244e+003,1.092256e+001
1.690208e+003,1.092863e+001
1.691173e+003,1.075708e+001
1.692137e+003,9.814636e+000
1.693101e+003,8.509537e+000
1.694065e+003,8.219223e+000
1.695030e+003,9.267578e+000
1.695994e+003,9.610092e+000
1.696958e+003,7.240631e+000
1.697922e+003,4.533493e+000
1.698887e+003,4.688324e+000
1.699851e+003,6.907013e+000
1.700815e+003,9.117188e+000
1.701779e+003,1.103629e+001
1.702744e+003,1.111847e+001
1.703708e+003,8.539017e+000
1.704672e+003,5.737686e+000
1.705636e+003,3.959091e+000
1.706601e+003,3.267746e+000
1.707565e+003,4.640549e+000
1.708529e+003,7.275940e+000
1.709493e+003,8.224686e+000
1.710458e+003,6.947174e+000
1.711422e+003,5.815765e+000
1.712386e+003,5.973724e+000
1.713350e+003,6.533691e+000
1.714314e+003,6.937180e+000
1.715279e+003,7.048172e+000
1.716243e+003,6.396851e+000
1.717207e+003,5.264420e+000
1.718171e+003,5.139984e+000
1.719135e+003,6.448746e+000
1.720100e+003,7.647995e+000
1.721064e+003,7.734070e+000
1.722028e+003,6.999374e+000
1.722992e+003,5.705551e+000
1.723957e+003,4.102219e+000
1.724921e+003,3.211685e+000
1.725885e+003,3.005356e+000
1.726849e+003,2.718246e+000
1.727814e+003,1.980209e+000
1.728778e+003,1.770386e+000
1.729742e+003,2.806107e+000
1.730706e+003,4.233749e+000
1.731671e+003,5.361145e+000
1.732635e+003,6.022797e+000
1.733599e+003,6.099045e+000
1.734563e+003,5.763092e+000
1.735528e+003,5.669281e+000
1.736492e+003,6.121811e+000
1.737456e+003,6.241318e+000
1.738420e+003,4.862473e+000
1.739385e+003,2.549103e+000
1.740349e+003,1.662109e+000
1.741313e+003,2.609589e+000
1.742277e+003,3.219193e+000
1.743241e+003,3.501617e+000
1.744206e+003,3.589355e+000
1.745170e+003,3.419708e+000
1.746134e+003,3.062790e+000
1.747098e+003,2.226974e+000
1.748063e+003,1.455383e+000
1.749027e+003,1.657715e+000
1.749991e+003,2.451630e+000
1.750955e+003,2.514008e+000
1.751919e+003,1.502823e+000
1.752884e+003,5.467072e-001
1.753848e+003,5.886536e-001
1.754812e+003,1.063278e+000
1.755776e+003,8.560028e-001
1.756741e+003,6.361389e-002
1.757705e+003,-3.861084e-001
1.758669e+003,-6.860962e-001
1.759633e+003,-2.373047e-001
1.760598e+003,1.747284e+000
1.761562e+003,3.318665e+000
1.762526e+003,4.115768e+000
1.763490e+003,4.248169e+000
1.764455e+003,3.601044e+000
1.765419e+003,2.470810e+000
1.766383e+003,8.275909e-001
1.767347e+003,-9.969330e-001
1.768312e+003,-1.639694e+000
1.769276e+003,-4.558868e-001
1.770240e+003,9.754486e-001
1.771204e+003,1.024796e+000
1.772168e+003,3.807526e-001
1.773133e+003,7.044220e-001
1.774097e+003,1.808426e+000
1.775061e+003,1.556839e+000
1.776025e+003,-6.059113e-001
1.776990e+003,-2.097534e+000
1.777954e+003,-1.941254e+000
1.778918e+003,-9.182892e-001
1.779882e+003,1.119736e+000
1.780846e+003,2.998795e+000
1.781811e+003,2.978638e+000
1.782775e+003,1.600266e+000
1.783739e+003,4.400635e-001
1.784703e+003,-3.112946e-001
1.785668e+003,-2.107086e-001
1.786632e+003,1.523117e+000
1.787596e+003,3.173859e+000
1.788560e+003,3.530457e+000
1.789525e+003,3.221344e+000
1.790489e+003,2.904327e+000
1.791453e+003,2.589767e+000
1.792417e+003,2.224075e+000
1.793382e+003,1.793518e+000
1.794346e+003,1.169876e+000
1.795310e+003,2.378540e-001
1.796274e+003,-4.969025e-001
1.797239e+003,-3.469238e-001
1.798203e+003,4.470062e-001
1.799167e+003,7.932892e-001
1.800131e+003,4.063721e-001
1.801095e+003,4.258270e-001
1.802060e+003,1.611816e+000
1.803024e+003,2.247711e+000
1.803988e+003,1.723618e+000
1.804952e+003,1.059128e+000
1.805917e+003,4.102325e-001
1.806881e+003,1.227112e-001
1.807845e+003,7.595673e-001
1.808809e+003,1.957840e+000
1.809773e+003,3.227081e+000
1.810738e+003,4.203186e+000
1.811702e+003,4.102371e+000
1.812666e+003,2.461090e+000
1.813630e+003,2.855377e-001
1.814595e+003,-1.224304e+000
1.815559e+003,-1.955872e+000
1.816523e+003,-8.767548e-001
1.817487e+003,2.352127e+000
1.818452e+003,3.490097e+000
1.819416e+003,1.406448e+000
1.820380e+003,2.214203e-001
1.821344e+003,1.866684e+000
1.822309e+003,3.339539e+000
1.823273e+003,2.439102e+000
1.824237e+003,9.722900e-001
1.825201e+003,6.925049e-001
1.826166e+003,1.324524e+000
1.827130e+003,2.179413e+000
1.828094e+003,3.064362e+000
1.829058e+003,3.063461e+000
1.830022e+003,1.402664e+000
1.830987e+003,-4.066315e-001
1.831951e+003,-1.020294e+000
1.832915e+003,-1.087677e+000
1.833879e+003,-1.758347e+000
1.834844e+003,-2.691467e+000
1.835808e+003,-2.450195e+000
1.836772e+003,-9.897308e-001
1.837736e+003,-3.351440e-001
1.838700e+003,-1.452301e+000
1.839665e+003,-2.283829e+000
1.840629e+003,-7.701874e-001
1.841593e+003,1.923370e+000
1.842557e+003,3.382446e+000
1.843522e+003,3.605362e+000
1.844486e+003,2.789795e+000
1.845450e+003,-5.737305e-001
1.846414e+003,-1.810822e+000
1.847379e+003,9.805450e-001
1.848343e+003,3.017578e+000
1.849307e+003,2.461502e+000
1.850271e+003,1.239594e+000
1.851236e+003,5.518188e-001
1.852200e+003,3.148041e-001
1.853164e+003,2.282715e-001
1.854128e+003,1.252136e-001
1.855093e+003,-1.422729e-001
1.856057e+003,-5.177765e-001
1.857021e+003,-5.272064e-001
1.857985e+003,2.638092e-001
1.858949e+003,1.203583e+000
1.859914e+003,9.959717e-001
1.860878e+003,-5.616760e-002
1.861842e+003,-3.988342e-001
1.862806e+003,-4.418945e-002
1.863771e+003,1.149033e+000
1.864735e+003,3.660492e+000
1.865699e+003,4.625763e+000
1.866663e+003,2.002701e+000
1.867627e+003,-8.663635e-001
1.868592e+003,-8.824921e-001
1.869556e+003,5.654602e-001
1.870520e+003,9.670105e-001
1.871484e+003,4.837799e-001
1.872449e+003,2.110901e-001
1.873413e+003,3.918304e-001
1.874377e+003,1.089127e+000
1.875341e+003,2.708832e+000
1.876306e+003,3.986023e+000
1.877270e+003,4.080063e+000
1.878234e+003,3.613617e+000
1.879198e+003,3.102798e+000
1.880163e+003,2.628403e+000
1.881127e+003,2.301102e+000
1.882091e+003,2.043304e+000
1.883055e+003,1.440475e+000
1.884020e+003,3.692474e-001
1.884984e+003,-5.990753e-001
1.885948e+003,-9.469757e-001
1.886912e+003,-7.948456e-001
1.887876e+003,-3.082123e-001
1.888841e+003,4.778137e-001
1.889805e+003,1.001511e+000
1.890769e+003,1.232376e+000
1.891733e+003,1.315735e+000
1.892698e+003,9.713440e-001
1.893662e+003,1.106308e+000
1.894626e+003,2.976852e+000
1.895590e+003,4.215607e+000
1.896554e+003,2.386124e+000
1.897519e+003,-3.029938e-001
1.898483e+003,-1.353500e+000
1.899447e+003,-1.056946e+000
1.900411e+003,-4.637299e-001
1.901376e+003,3.214264e-001
1.902340e+003,7.802887e-001
1.903304e+003,4.015045e-001
1.904268e+003,1.235352e-001
1.905233e+003,6.325073e-001
1.906197e+003,1.463699e+000
1.907161e+003,2.223099e+000
1.908125e+003,2.937958e+000
1.909090e+003,3.870529e+000
1.910054e+003,4.768433e+000
1.911018e+003,4.637085e+000
1.911982e+003,3.348190e+000
1.912947e+003,2.347580e+000
1.913911e+003,2.673630e+000
1.914875e+003,3.602264e+000
1.915839e+003,4.070755e+000
1.916803e+003,3.939697e+000
1.917768e+003,2.410034e+000
1.918732e+003,-1.038010e+000
1.919696e+003,-1.894165e+000
1.920660e+003,1.270279e+000
1.921625e+003,3.170685e+000
1.922589e+003,1.619995e+000
1.923553e+003,2.322235e-001
1.924517e+003,1.395523e+000
1.925481e+003,3.122040e+000
1.926446e+003,3.791428e+000
1.927410e+003,3.720764e+000
1.928374e+003,3.378906e+000
1.929338e+003,2.840179e+000
1.930303e+003,2.790176e+000
1.931267e+003,3.656021e+000
1.932231e+003,4.558746e+000
1.933195e+003,5.288162e+000
1.934160e+003,5.547684e+000
1.935124e+003,4.940002e+000
1.936088e+003,3.846542e+000
1.937052e+003,2.459732e+000
1.938017e+003,1.200195e+000
1.938981e+003,8.178558e-001
1.939945e+003,1.302521e+000
1.940909e+003,1.976196e+000
1.941874e+003,2.522568e+000
1.942838e+003,3.401718e+000
1.943802e+003,5.179459e+000
1.944766e+003,7.068115e+000
1.945730e+003,7.293503e+000
1.946695e+003,5.973984e+000
1.947659e+003,4.190048e+000
1.948623e+003,1.735214e+000
1.949587e+003,1.169708e+000
1.950552e+003,3.398041e+000
1.951516e+003,5.071243e+000
1.952480e+003,4.997849e+000
1.953444e+003,4.266159e+000
1.954408e+003,3.165283e+000
1.955373e+003,2.188309e+000
1.956337e+003,2.259216e+000
1.957301e+003,3.175507e+000
1.958265e+003,4.079453e+000
1.959230e+003,5.026581e+000
1.960194e+003,5.381180e+000
1.961158e+003,4.231277e+000
1.962122e+003,3.496689e+000
1.963087e+003,4.038879e+000
1.964051e+003,4.709579e+000
1.965015e+003,5.156647e+000
1.965979e+003,5.283279e+000
1.966944e+003,4.687805e+000
1.967908e+003,3.751862e+000
1.968872e+003,3.195877e+000
1.969836e+003,3.113647e+000
1.970801e+003,3.205322e+000
1.971765e+003,3.321350e+000
1.972729e+003,3.235641e+000
1.973693e+003,2.587143e+000
1.974657e+003,2.111801e+000
1.975622e+003,3.191498e+000
1.976586e+003,5.164474e+000
1.977550e+003,6.515015e+000
1.978514e+003,7.191040e+000
1.979479e+003,6.767105e+000
1.980443e+003,5.271088e+000
1.981407e+003,4.328110e+000
1.982371e+003,4.569778e+000
1.983335e+003,5.591324e+000
1.984300e+003,7.209030e+000
1.985264e+003,8.581467e+000
1.986228e+003,8.368317e+000
1.987192e+003,6.902145e+000
1.988157e+003,5.893539e+000
1.989121e+003,5.361526e+000
1.990085e+003,5.412338e+000
1.991049e+003,6.733459e+000
1.992014e+003,7.324493e+000
1.992978e+003,5.913727e+000
1.993942e+003,5.078949e+000
1.994906e+003,6.628708e+000
1.995871e+003,8.112793e+000
1.996835e+003,7.454132e+000
1.997799e+003,5.806046e+000
1.998763e+003,4.760208e+000
1.999728e+003,4.336868e+000
