5.003444e+002,3.326941e+001
5.013087e+002,3.226971e+001
5.022729e+002,2.936823e+001
5.032371e+002,2.571045e+001
5.042014e+002,2.304559e+001
5.051656e+002,2.145239e+001
5.061298e+002,2.151306e+001
5.070941e+002,2.392303e+001
5.080583e+002,2.927478e+001
5.090225e+002,3.196704e+001
5.099868e+002,3.072595e+001
5.109510e+002,2.906976e+001
5.119152e+002,2.937073e+001
5.128795e+002,3.198010e+001
5.138437e+002,3.263391e+001
5.148079e+002,2.793256e+001
5.157722e+002,2.301038e+001
5.167364e+002,1.948315e+001
5.177006e+002,1.763177e+001
5.186649e+002,1.680408e+001
5.196291e+002,1.742560e+001
5.205933e+002,1.882959e+001
5.215576e+002,1.929077e+001
5.225218e+002,1.847894e+001
5.234860e+002,1.738098e+001
5.244503e+002,1.841418e+001
5.254145e+002,2.336139e+001
5.263787e+002,2.384192e+001
5.273430e+002,1.649774e+001
5.283072e+002,6.965393e+000
5.292714e+002,3.409912e+000
5.302357e+002,9.570435e+000
5.311999e+002,1.230151e+001
5.321641e+002,8.302002e+000
5.331284e+002,3.203918e+000
5.340926e+002,1.102905e+000
5.350568e+002,3.356506e+000
5.360211e+002,6.891174e+000
5.369853e+002,1.164111e+001
5.379495e+002,1.555634e+001
5.389138e+002,1.554535e+001
5.398780e+002,1.087280e+001
5.408422e+002,4.064758e+000
5.418065e+002,2.638184e+000
5.427707e+002,5.826172e+000
5.437349e+002,9.043396e+000
5.446992e+002,1.128156e+001
5.456634e+002,1.253168e+001
5.466276e+002,1.294556e+001
5.475919e+002,1.224072e+001
5.485561e+002,1.120081e+001
5.495203e+002,9.376709e+000
5.504846e+002,7.037231e+000
5.514488e+002,4.446838e+000
5.524130e+002,1.169861e+000
5.533773e+002,-1.941528e-001
5.543415e+002,2.720276e+000
5.553057e+002,7.142761e+000
5.562700e+002,1.024792e+001
5.572342e+002,1.024542e+001
5.581984e+002,8.123718e+000
5.591627e+002,5.984802e+000
5.601269e+002,4.270752e+000
5.610911e+002,3.756714e+000
5.620554e+002,4.808228e+000
5.630196e+002,6.965332e+000
5.639838e+002,7.617065e+000
5.649481e+002,5.589111e+000
5.659123e+002,3.837219e+000
5.668765e+002,3.873413e+000
5.678408e+002,5.180176e+000
5.688050e+002,5.437195e+000
5.697692e+002,2.025269e+000
5.707335e+002,-1.042603e+000
5.716977e+002,-2.308960e+000
5.726619e+002,-2.263916e+000
5.736262e+002,-1.531860e+000
5.745904e+002,-3.670044e-001
5.755546e+002,1.075989e+000
5.765189e+002,2.305054e+000
5.774831e+002,2.960449e+000
5.784473e+002,2.821045e+000
5.794116e+002,1.928101e+000
5.803758e+002,6.989136e-001
5.813400e+002,7.255249e-001
5.823043e+002,1.967041e+000
5.832685e+002,2.401428e+000
5.842327e+002,9.253540e-001
5.851970e+002,-1.665894e+000
5.861612e+002,-2.020874e+000
5.871254e+002,3.449463e+000
5.880897e+002,7.048767e+000
5.890539e+002,5.509033e+000
5.900181e+002,1.201355e+000
5.909824e+002,-1.376709e+000
5.919466e+002,1.565125e+000
5.929108e+002,5.276184e+000
5.938751e+002,4.103455e+000
5.948393e+002,2.236938e-001
5.958035e+002,-2.884521e+000
5.967678e+002,-2.637512e+000
5.977320e+002,4.710083e-001
5.986962e+002,9.082642e-001
5.996605e+002,-1.803223e+000
6.006247e+002,-4.513000e+000
6.015889e+002,-5.772339e+000
6.025532e+002,-5.609009e+000
6.035174e+002,-5.344299e+000
6.044816e+002,-4.298035e+000
6.054459e+002,-3.767029e+000
6.064101e+002,-5.039001e+000
6.073743e+002,-6.827576e+000
6.083386e+002,-6.546387e+000
6.093028e+002,-1.754333e+000
6.102670e+002,3.481079e+000
6.112313e+002,5.863708e+000
6.121955e+002,6.526978e+000
6.131597e+002,7.141052e+000
6.141240e+002,8.802490e+000
6.150882e+002,1.078070e+001
6.160524e+002,9.720947e+000
6.170167e+002,6.405212e+000
6.179809e+002,3.319824e+000
6.189451e+002,1.577515e+000
6.199094e+002,6.573486e-001
6.208736e+002,-1.779602e+000
6.218378e+002,-8.512451e+000
6.228021e+002,-1.252496e+001
6.237663e+002,-1.189282e+001
6.247305e+002,-8.352295e+000
6.256948e+002,-4.777954e+000
6.266590e+002,-2.429810e+000
6.276232e+002,-8.986816e-001
6.285875e+002,5.640259e-001
6.295517e+002,1.999023e+000
6.305159e+002,3.513855e+000
6.314802e+002,4.972107e+000
6.324444e+002,5.676086e+000
6.334086e+002,3.185730e+000
6.343729e+002,-1.005310e+000
6.353371e+002,-3.532959e+000
6.363013e+002,-3.020996e+000
6.372656e+002,-6.760864e-001
6.382298e+002,-4.907837e-001
6.391940e+002,-6.225220e+000
6.401583e+002,-9.452209e+000
6.411225e+002,-7.439941e+000
6.420867e+002,-3.294250e+000
6.430510e+002,-1.127747e+000
6.440152e+002,-2.872559e+000
6.449794e+002,-5.290833e+000
6.459437e+002,-7.089783e+000
6.469079e+002,-8.406311e+000
6.478721e+002,-9.258545e+000
6.488364e+002,-9.526550e+000
6.498006e+002,-8.886963e+000
6.507648e+002,-6.020569e+000
6.517291e+002,-2.297607e+000
6.526933e+002,-1.385742e+000
6.536575e+002,-4.182190e+000
6.546218e+002,-8.231262e+000
6.555860e+002,-8.654480e+000
6.565502e+002,-2.753906e+000
6.575145e+002,1.035583e+000
6.584787e+002,2.055725e+000
6.594429e+002,1.895447e+000
6.604072e+002,1.625732e+000
6.613714e+002,1.389282e+000
6.623356e+002,1.175171e+000
6.632999e+002,4.704590e-001
6.642641e+002,-3.770752e-001
6.652283e+002,-8.789673e-001
6.661926e+002,-8.157959e-001
6.671568e+002,-2.325439e-001
6.681210e+002,6.787109e-001
6.690853e+002,1.604309e+000
6.700495e+002,2.095947e+000
6.710137e+002,2.229919e+000
6.719780e+002,2.777832e+000
6.729422e+002,4.661194e+000
6.739064e+002,8.231689e+000
6.748707e+002,9.770508e+000
6.758349e+002,9.209473e+000
6.767991e+002,7.242493e+000
6.777634e+002,3.528992e+000
6.787276e+002,-1.188843e+000
6.796918e+002,-4.001892e+000
6.806561e+002,-3.238831e+000
6.816203e+002,-1.684570e+000
6.825845e+002,8.112793e-001
6.835488e+002,3.127258e+000
6.845130e+002,3.555481e+000
6.854772e+002,7.377319e-001
6.864415e+002,-3.446594e+000
6.874057e+002,-5.959656e+000
6.883699e+002,-7.439880e+000
6.893342e+002,-7.903442e+000
6.902984e+002,-7.152771e+000
6.912626e+002,-5.215881e+000
6.922269e+002,-3.232117e+000
6.931911e+002,9.152222e-001
6.941553e+002,3.446106e+000
6.951196e+002,1.812622e+000
6.960838e+002,-1.659424e+000
6.970480e+002,-2.729126e+000
6.980123e+002,6.334839e-001
6.989765e+002,4.180603e+000
6.999407e+002,6.400330e+000
7.009050e+002,7.703125e+000
7.018692e+002,8.351257e+000
7.028334e+002,8.387146e+000
7.037977e+002,7.531982e+000
7.047619e+002,4.746094e+000
7.057261e+002,1.572266e+000
7.066904e+002,1.275757e+000
7.076546e+002,4.336182e+000
7.086188e+002,7.548035e+000
7.095831e+002,5.406982e+000
7.105473e+002,-5.787048e+000
7.115115e+002,-1.102759e+001
7.124758e+002,-7.689392e+000
7.134400e+002,-2.699585e+000
7.144042e+002,7.098999e-001
7.153685e+002,2.437378e+000
7.163327e+002,2.869263e+000
7.172969e+002,7.781982e-002
7.182612e+002,-1.978760e+000
7.192254e+002,-8.676758e-001
7.201896e+002,2.012634e+000
7.211539e+002,3.676514e+000
7.221181e+002,1.555115e+000
7.230823e+002,-2.790100e+000
7.240466e+002,-5.278076e+000
7.250108e+002,-5.825439e+000
7.259750e+002,-4.928650e+000
7.269393e+002,-3.080872e+000
7.279035e+002,-9.426880e-001
7.288677e+002,-7.641602e-002
7.298320e+002,-2.755737e-001
7.307962e+002,-1.959839e-001
7.317604e+002,-2.246704e-001
7.327247e+002,3.772583e-001
7.336889e+002,2.878662e+000
7.346531e+002,7.985718e+000
7.356174e+002,1.054517e+001
7.365816e+002,7.514099e+000
7.375458e+002,3.094849e+000
7.385101e+002,-3.190308e-001
7.394743e+002,-1.710144e+000
7.404385e+002,-9.336548e-001
7.414028e+002,3.027100e+000
7.423670e+002,8.091492e+000
7.433312e+002,8.986755e+000
7.442955e+002,5.763245e+000
7.452597e+002,1.805115e+000
7.462239e+002,5.441284e-001
7.471882e+002,2.360779e+000
7.481524e+002,4.482849e+000
7.491166e+002,6.799255e+000
7.500809e+002,8.171021e+000
7.510451e+002,7.681946e+000
7.520093e+002,5.847473e+000
7.529736e+002,4.554810e+000
7.539378e+002,5.617859e+000
7.549020e+002,7.232361e+000
7.558663e+002,8.330505e+000
7.568306e+002,8.987000e+000
7.577948e+002,9.411499e+000
7.587590e+002,9.521851e+000
7.597233e+002,8.571350e+000
7.606875e+002,4.077881e+000
7.616517e+002,-3.012939e+000
7.626160e+002,-6.601318e+000
7.635802e+002,-4.140686e+000
7.645444e+002,1.867371e+000
7.655087e+002,6.252075e+000
7.664729e+002,8.597778e+000
7.674371e+002,9.541870e+000
7.684014e+002,8.237061e+000
7.693656e+002,6.594238e+000
7.703298e+002,5.538208e+000
7.712941e+002,5.392395e+000
7.722583e+002,6.547546e+000
7.732225e+002,1.075867e+001
7.741868e+002,1.494653e+001
7.751510e+002,1.660712e+001
7.761152e+002,1.616827e+001
7.770795e+002,1.497961e+001
7.780437e+002,1.415710e+001
7.790079e+002,1.349310e+001
7.799722e+002,1.187054e+001
7.809364e+002,8.899536e+000
7.819006e+002,7.308838e+000
7.828649e+002,9.902649e+000
7.838291e+002,1.522522e+001
7.847933e+002,1.741852e+001
7.857576e+002,1.358905e+001
7.867218e+002,9.515625e+000
7.876860e+002,5.976135e+000
7.886503e+002,3.698792e+000
7.896145e+002,3.570496e+000
7.905787e+002,5.661926e+000
7.915430e+002,8.466003e+000
7.925072e+002,1.076202e+001
7.934714e+002,1.170563e+001
7.944357e+002,1.015814e+001
7.953999e+002,6.849060e+000
7.963641e+002,3.996277e+000
7.973284e+002,3.943665e+000
7.982926e+002,6.902649e+000
7.992568e+002,9.063904e+000
8.002211e+002,9.964478e+000
8.011853e+002,9.138733e+000
8.021495e+002,6.059509e+000
8.031138e+002,2.293518e+000
8.040780e+002,1.418457e+000
8.050422e+002,4.854309e+000
8.060065e+002,8.743530e+000
8.069707e+002,1.245795e+001
8.079349e+002,1.501776e+001
8.088992e+002,1.541510e+001
8.098634e+002,1.364825e+001
8.108276e+002,1.119122e+001
8.117919e+002,9.349365e+000
8.127561e+002,7.463074e+000
8.137203e+002,5.821045e+000
8.146846e+002,4.959595e+000
8.156488e+002,5.058777e+000
8.166130e+002,6.200684e+000
8.175773e+002,8.750183e+000
8.185415e+002,9.202698e+000
8.195057e+002,5.048035e+000
8.204700e+002,1.394653e+000
8.214342e+002,-3.511963e-001
8.223984e+002,-2.536011e-001
8.233627e+002,1.629578e+000
8.243269e+002,6.748657e+000
8.252911e+002,1.109937e+001
8.262554e+002,1.196716e+001
8.272196e+002,1.125348e+001
8.281838e+002,1.064050e+001
8.291481e+002,1.083990e+001
8.301123e+002,1.154828e+001
8.310765e+002,1.228156e+001
8.320408e+002,1.294684e+001
8.330050e+002,1.384882e+001
8.339692e+002,1.521936e+001
8.349335e+002,1.654059e+001
8.358977e+002,1.749017e+001
8.368619e+002,1.836578e+001
8.378262e+002,1.876636e+001
8.387904e+002,1.679681e+001
8.397546e+002,1.574969e+001
8.407189e+002,1.719739e+001
8.416831e+002,2.004138e+001
8.426473e+002,2.242676e+001
8.436116e+002,2.364276e+001
8.445758e+002,2.409558e+001
8.455400e+002,2.323822e+001
8.465043e+002,2.141803e+001
8.474685e+002,1.958276e+001
8.484327e+002,1.838989e+001
8.493970e+002,1.792706e+001
8.503612e+002,1.774823e+001
8.513254e+002,1.767523e+001
8.522897e+002,1.751794e+001
8.532539e+002,1.692792e+001
8.542181e+002,1.608832e+001
8.551824e+002,1.509467e+001
8.561466e+002,1.460669e+001
8.571108e+002,1.629999e+001
8.580751e+002,2.086621e+001
8.590393e+002,2.490735e+001
8.600035e+002,2.801239e+001
8.609678e+002,3.053998e+001
8.619320e+002,3.299078e+001
8.628962e+002,3.544769e+001
8.638605e+002,3.717169e+001
8.648247e+002,3.641962e+001
8.657889e+002,3.423303e+001
8.667532e+002,3.313007e+001
8.677174e+002,3.343628e+001
8.686816e+002,3.431482e+001
8.696459e+002,3.509534e+001
8.706101e+002,3.619739e+001
8.715743e+002,3.586212e+001
8.725386e+002,3.207861e+001
8.735028e+002,2.963257e+001
8.744670e+002,3.043988e+001
8.754313e+002,3.253070e+001
8.763955e+002,3.220605e+001
8.773597e+002,2.768121e+001
8.783240e+002,2.374628e+001
8.792882e+002,2.334290e+001
8.802524e+002,2.488562e+001
8.812167e+002,2.814111e+001
8.821809e+002,3.239819e+001
8.831451e+002,3.608209e+001
8.841094e+002,3.715320e+001
8.850736e+002,3.601587e+001
8.860378e+002,3.580261e+001
8.870021e+002,3.647180e+001
8.879663e+002,3.703644e+001
8.889305e+002,3.671484e+001
8.898948e+002,3.552032e+001
8.908590e+002,3.429163e+001
8.918232e+002,3.338507e+001
8.927875e+002,3.277753e+001
8.937517e+002,3.152435e+001
8.947159e+002,3.119440e+001
8.956802e+002,3.363928e+001
8.966444e+002,3.850256e+001
8.976086e+002,4.258667e+001
8.985729e+002,4.282861e+001
8.995371e+002,4.102362e+001
9.005013e+002,3.954047e+001
9.014656e+002,3.872906e+001
9.024298e+002,3.871063e+001
9.033940e+002,3.930646e+001
9.043583e+002,4.016254e+001
9.053225e+002,4.141302e+001
9.062867e+002,4.436719e+001
9.072510e+002,4.515076e+001
9.082152e+002,4.315991e+001
9.091794e+002,4.035065e+001
9.101437e+002,3.801691e+001
9.111079e+002,3.629535e+001
9.120721e+002,3.607086e+001
9.130364e+002,3.917236e+001
9.140006e+002,4.204218e+001
9.149648e+002,4.295032e+001
9.159291e+002,4.257190e+001
9.168933e+002,4.194727e+001
9.178575e+002,4.161902e+001
9.188218e+002,4.157837e+001
9.197860e+002,4.308966e+001
9.207502e+002,4.607898e+001
9.217145e+002,4.660608e+001
9.226787e+002,4.286151e+001
9.236429e+002,3.845642e+001
9.246072e+002,3.842883e+001
9.255714e+002,4.363361e+001
9.265356e+002,4.675555e+001
9.274999e+002,4.519574e+001
9.284641e+002,4.249841e+001
9.294283e+002,3.917865e+001
9.303926e+002,3.610101e+001
9.313568e+002,3.427362e+001
9.323210e+002,3.420984e+001
9.332853e+002,3.503979e+001
9.342495e+002,3.596075e+001
9.352137e+002,3.660681e+001
9.361780e+002,3.645966e+001
9.371422e+002,3.579395e+001
9.381064e+002,3.572070e+001
9.390707e+002,3.744531e+001
9.400349e+002,4.097125e+001
9.409991e+002,4.279315e+001
9.419634e+002,4.133667e+001
9.429276e+002,4.019293e+001
9.438918e+002,4.079877e+001
9.448561e+002,4.233417e+001
9.458203e+002,4.328687e+001
9.467845e+002,4.325256e+001
9.477488e+002,4.341742e+001
9.487130e+002,4.506213e+001
9.496772e+002,4.678308e+001
9.506415e+002,4.709125e+001
9.516057e+002,4.621057e+001
9.525699e+002,4.561353e+001
9.535342e+002,4.670325e+001
9.544984e+002,4.901917e+001
9.554626e+002,5.032037e+001
9.564269e+002,5.151080e+001
9.573911e+002,5.167157e+001
9.583553e+002,4.943805e+001
9.593196e+002,4.619177e+001
9.602838e+002,4.413910e+001
9.612480e+002,4.324536e+001
9.622123e+002,4.338977e+001
9.631765e+002,4.658392e+001
9.641407e+002,4.910352e+001
9.651050e+002,4.853357e+001
9.660692e+002,4.560522e+001
9.670334e+002,4.251782e+001
9.679977e+002,4.090131e+001
9.689619e+002,4.043182e+001
9.699261e+002,3.910400e+001
9.708904e+002,3.715002e+001
9.718546e+002,3.674622e+001
9.728188e+002,3.829523e+001
9.737831e+002,4.090997e+001
9.747473e+002,4.394690e+001
9.757115e+002,4.787756e+001
9.766758e+002,5.051965e+001
9.776400e+002,5.190912e+001
9.786042e+002,5.276160e+001
9.795685e+002,5.297406e+001
9.805327e+002,5.216730e+001
9.814969e+002,4.985870e+001
9.824612e+002,4.618323e+001
9.834254e+002,4.287903e+001
9.843896e+002,4.075995e+001
9.853539e+002,3.971539e+001
9.863181e+002,4.003564e+001
9.872823e+002,4.131964e+001
9.882466e+002,4.318408e+001
9.892108e+002,4.581537e+001
9.901750e+002,4.966272e+001
9.911393e+002,5.292902e+001
9.921035e+002,5.306415e+001
9.930677e+002,5.400244e+001
9.940320e+002,5.704926e+001
9.949962e+002,6.103705e+001
9.959604e+002,6.472406e+001
9.969247e+002,6.815021e+001
9.978889e+002,7.262714e+001
9.988531e+002,7.919147e+001
9.998174e+002,8.486420e+001
1.000782e+003,8.854889e+001
1.001746e+003,9.084320e+001
1.002710e+003,9.210480e+001
1.003674e+003,9.260461e+001
1.004639e+003,9.305121e+001
1.005603e+003,9.492255e+001
1.006567e+003,9.819745e+001
1.007531e+003,9.883307e+001
1.008495e+003,9.576898e+001
1.009460e+003,9.253656e+001
1.010424e+003,9.189984e+001
1.011388e+003,9.311444e+001
1.012352e+003,9.235315e+001
1.013317e+003,8.710388e+001
1.014281e+003,8.353540e+001
1.015245e+003,8.574780e+001
1.016209e+003,8.764569e+001
1.017174e+003,8.401245e+001
1.018138e+003,7.553381e+001
1.019102e+003,6.750671e+001
1.020066e+003,6.460516e+001
1.021031e+003,6.465320e+001
1.021995e+003,5.923755e+001
1.022959e+003,4.923486e+001
1.023923e+003,4.214514e+001
1.024887e+003,4.119934e+001
1.025852e+003,4.266125e+001
1.026816e+003,4.041736e+001
1.027780e+003,3.361926e+001
1.028744e+003,2.904614e+001
1.029709e+003,2.941876e+001
1.030673e+003,2.921759e+001
1.031637e+003,2.561145e+001
1.032601e+003,2.064105e+001
1.033566e+003,1.744232e+001
1.034530e+003,1.725055e+001
1.035494e+003,1.877484e+001
1.036458e+003,2.107306e+001
1.037422e+003,2.350531e+001
1.038387e+003,2.504889e+001
1.039351e+003,2.564661e+001
1.040315e+003,2.616345e+001
1.041279e+003,2.746667e+001
1.042244e+003,2.949670e+001
1.043208e+003,3.094775e+001
1.044172e+003,3.118658e+001
1.045136e+003,3.077948e+001
1.046101e+003,2.998718e+001
1.047065e+003,2.887366e+001
1.048029e+003,2.670410e+001
1.048993e+003,2.393677e+001
1.049958e+003,2.274945e+001
1.050922e+003,2.509088e+001
1.051886e+003,2.774237e+001
1.052850e+003,2.646881e+001
1.053814e+003,2.373578e+001
1.054779e+003,2.257611e+001
1.055743e+003,2.362787e+001
1.056707e+003,2.603516e+001
1.057671e+003,2.894366e+001
1.058636e+003,3.226123e+001
1.059600e+003,3.328613e+001
1.060564e+003,3.159930e+001
1.061528e+003,2.965558e+001
1.062493e+003,2.576923e+001
1.063457e+003,2.210132e+001
1.064421e+003,2.243616e+001
1.065385e+003,2.722662e+001
1.066349e+003,3.029126e+001
1.067314e+003,2.715698e+001
1.068278e+003,2.291882e+001
1.069242e+003,2.075677e+001
1.070206e+003,2.043079e+001
1.071171e+003,2.119507e+001
1.072135e+003,2.248035e+001
1.073099e+003,2.419568e+001
1.074063e+003,2.667773e+001
1.075028e+003,3.030701e+001
1.075992e+003,3.189526e+001
1.076956e+003,3.049701e+001
1.077920e+003,2.829669e+001
1.078885e+003,2.603278e+001
1.079849e+003,2.418665e+001
1.080813e+003,2.322015e+001
1.081777e+003,2.322827e+001
1.082741e+003,2.437897e+001
1.083706e+003,2.744751e+001
1.084670e+003,3.008759e+001
1.085634e+003,3.094830e+001
1.086598e+003,3.036841e+001
1.087563e+003,2.918463e+001
1.088527e+003,2.816058e+001
1.089491e+003,2.791583e+001
1.090455e+003,2.921014e+001
1.091420e+003,3.186560e+001
1.092384e+003,3.160931e+001
1.093348e+003,2.640997e+001
1.094312e+003,2.130933e+001
1.095276e+003,1.992743e+001
1.096241e+003,2.146094e+001
1.097205e+003,2.260400e+001
1.098169e+003,2.247546e+001
1.099133e+003,2.228058e+001
1.100098e+003,2.276483e+001
1.101062e+003,2.351794e+001
1.102026e+003,2.377228e+001
1.102990e+003,2.419354e+001
1.103955e+003,2.655750e+001
1.104919e+003,3.179791e+001
1.105883e+003,3.780157e+001
1.106847e+003,4.030511e+001
1.107812e+003,3.905267e+001
1.108776e+003,3.714703e+001
1.109740e+003,3.433484e+001
1.110704e+003,3.167603e+001
1.111668e+003,2.984113e+001
1.112633e+003,2.931494e+001
1.113597e+003,3.118164e+001
1.114561e+003,3.634943e+001
1.115525e+003,4.103540e+001
1.116490e+003,4.458386e+001
1.117454e+003,4.675085e+001
1.118418e+003,4.712494e+001
1.119382e+003,4.656555e+001
1.120347e+003,4.624915e+001
1.121311e+003,4.649841e+001
1.122275e+003,4.656689e+001
1.123239e+003,4.605762e+001
1.124203e+003,4.578326e+001
1.125168e+003,4.738104e+001
1.126132e+003,5.156256e+001
1.127096e+003,5.652777e+001
1.128060e+003,6.091492e+001
1.129025e+003,6.458508e+001
1.129989e+003,6.739771e+001
1.130953e+003,6.799042e+001
1.131917e+003,7.039673e+001
1.132882e+003,7.854773e+001
1.133846e+003,8.625134e+001
1.134810e+003,8.931305e+001
1.135774e+003,8.883362e+001
1.136739e+003,8.729974e+001
1.137703e+003,8.619794e+001
1.138667e+003,8.759534e+001
1.139631e+003,9.671759e+001
1.140595e+003,1.122903e+002
1.141560e+003,1.227729e+002
1.142524e+003,1.261365e+002
1.143488e+003,1.313663e+002
1.144452e+003,1.448874e+002
1.145417e+003,1.649482e+002
1.146381e+003,1.853395e+002
1.147345e+003,2.057836e+002
1.148309e+003,2.263372e+002
1.149274e+003,2.482444e+002
1.150238e+003,2.695844e+002
1.151202e+003,2.904557e+002
1.152166e+003,3.102412e+002
1.153130e+003,3.282549e+002
1.154095e+003,3.435581e+002
1.155059e+003,3.542033e+002
1.156023e+003,3.583495e+002
1.156987e+003,3.558953e+002
1.157952e+003,3.476055e+002
1.158916e+003,3.337139e+002
1.159880e+003,3.185257e+002
1.160844e+003,3.034369e+002
1.161809e+003,2.870928e+002
1.162773e+003,2.674148e+002
1.163737e+003,2.434302e+002
1.164701e+003,2.208084e+002
1.165666e+003,2.010337e+002
1.166630e+003,1.836169e+002
1.167594e+003,1.670839e+002
1.168558e+003,1.533098e+002
1.169522e+003,1.455917e+002
1.170487e+003,1.444149e+002
1.171451e+003,1.465686e+002
1.172415e+003,1.486748e+002
1.173379e+003,1.504467e+002
1.174344e+003,1.517112e+002
1.175308e+003,1.529453e+002
1.176272e+003,1.517167e+002
1.177236e+003,1.458913e+002
1.178201e+003,1.386038e+002
1.179165e+003,1.335219e+002
1.180129e+003,1.302821e+002
1.181093e+003,1.267415e+002
1.182057e+003,1.221603e+002
1.183022e+003,1.183087e+002
1.183986e+003,1.161151e+002
1.184950e+003,1.147372e+002
1.185914e+003,1.131461e+002
1.186879e+003,1.116245e+002
1.187843e+003,1.116329e+002
1.188807e+003,1.142448e+002
1.189771e+003,1.183900e+002
1.190736e+003,1.218813e+002
1.191700e+003,1.248259e+002
1.192664e+003,1.245738e+002
1.193628e+003,1.189822e+002
1.194593e+003,1.132966e+002
1.195557e+003,1.120361e+002
1.196521e+003,1.135685e+002
1.197485e+003,1.121987e+002
1.198449e+003,1.064921e+002
1.199414e+003,1.000682e+002
1.200378e+003,9.336963e+001
1.201342e+003,8.765710e+001
1.202306e+003,8.341010e+001
1.203271e+003,8.060645e+001
1.204235e+003,7.990582e+001
1.205199e+003,8.138342e+001
1.206163e+003,8.294879e+001
1.207128e+003,8.090564e+001
1.208092e+003,7.510577e+001
1.209056e+003,6.870996e+001
1.210020e+003,6.101929e+001
1.210984e+003,5.427765e+001
1.211949e+003,4.893549e+001
1.212913e+003,4.475970e+001
1.213877e+003,4.211060e+001
1.214841e+003,4.104907e+001
1.215806e+003,3.944513e+001
1.216770e+003,3.558868e+001
1.217734e+003,3.221613e+001
1.218698e+003,3.123907e+001
1.219663e+003,3.127960e+001
1.220627e+003,3.106030e+001
1.221591e+003,3.015686e+001
1.222555e+003,2.836011e+001
1.223520e+003,2.551416e+001
1.224484e+003,2.217383e+001
1.225448e+003,2.002173e+001
1.226412e+003,1.955585e+001
1.227376e+003,1.902698e+001
1.228341e+003,1.827856e+001
1.229305e+003,1.730359e+001
1.230269e+003,1.530963e+001
1.231233e+003,1.324298e+001
1.232198e+003,1.356433e+001
1.233162e+003,1.725641e+001
1.234126e+003,2.124426e+001
1.235090e+003,2.361053e+001
1.236055e+003,2.412067e+001
1.237019e+003,2.188062e+001
1.237983e+003,1.774445e+001
1.238947e+003,1.422662e+001
1.239911e+003,1.261462e+001
1.240876e+003,1.220026e+001
1.241840e+003,1.153259e+001
1.242804e+003,1.050189e+001
1.243768e+003,1.164569e+001
1.244733e+003,1.788000e+001
1.245697e+003,2.249658e+001
1.246661e+003,2.418335e+001
1.247625e+003,2.393927e+001
1.248590e+003,2.165601e+001
1.249554e+003,1.877386e+001
1.250518e+003,1.822943e+001
1.251482e+003,2.120496e+001
1.252447e+003,2.518976e+001
1.253411e+003,2.811407e+001
1.254375e+003,3.017444e+001
1.255339e+003,3.120300e+001
1.256303e+003,3.145624e+001
1.257268e+003,3.174219e+001
1.258232e+003,3.187616e+001
1.259196e+003,3.202002e+001
1.260160e+003,3.334540e+001
1.261125e+003,3.640002e+001
1.262089e+003,3.995245e+001
1.263053e+003,4.370197e+001
1.264017e+003,4.721704e+001
1.264982e+003,5.119690e+001
1.265946e+003,5.470374e+001
1.266910e+003,5.753986e+001
1.267874e+003,5.908063e+001
1.268839e+003,5.748999e+001
1.269803e+003,5.151062e+001
1.270767e+003,4.395074e+001
1.271731e+003,4.066260e+001
1.272695e+003,4.170007e+001
1.273660e+003,4.035577e+001
1.274624e+003,3.469482e+001
1.275588e+003,2.932404e+001
1.276552e+003,2.755487e+001
1.277517e+003,2.817230e+001
1.278481e+003,2.840222e+001
1.279445e+003,2.790973e+001
1.280409e+003,2.747070e+001
1.281374e+003,2.733917e+001
1.282338e+003,2.746039e+001
1.283302e+003,2.829095e+001
1.284266e+003,2.891406e+001
1.285230e+003,2.830829e+001
1.286195e+003,2.628540e+001
1.287159e+003,2.296875e+001
1.288123e+003,1.864075e+001
1.289087e+003,1.480792e+001
1.290052e+003,1.545282e+001
1.291016e+003,2.283704e+001
1.291980e+003,2.486786e+001
1.292944e+003,1.669672e+001
1.293909e+003,9.114502e+000
1.294873e+003,7.170471e+000
1.295837e+003,8.413147e+000
1.296801e+003,9.339844e+000
1.297766e+003,9.451660e+000
1.298730e+003,9.841309e+000
1.299694e+003,1.063110e+001
1.300658e+003,1.204620e+001
1.301622e+003,1.596423e+001
1.302587e+003,2.045190e+001
1.303551e+003,2.150153e+001
1.304515e+003,1.888245e+001
1.305479e+003,1.644012e+001
1.306444e+003,1.707751e+001
1.307408e+003,1.972357e+001
1.308372e+003,2.153638e+001
1.309336e+003,2.242670e+001
1.310301e+003,2.258777e+001
1.311265e+003,2.222968e+001
1.312229e+003,2.146729e+001
1.313193e+003,1.955597e+001
1.314157e+003,1.755151e+001
1.315122e+003,1.653766e+001
1.316086e+003,1.646735e+001
1.317050e+003,1.679266e+001
1.318014e+003,1.743671e+001
1.318979e+003,1.786707e+001
1.319943e+003,1.603320e+001
1.320907e+003,1.277527e+001
1.321871e+003,1.386078e+001
1.322836e+003,2.057446e+001
1.323800e+003,2.555823e+001
1.324764e+003,2.334564e+001
1.325728e+003,1.797729e+001
1.326693e+003,1.625934e+001
1.327657e+003,1.817944e+001
1.328621e+003,1.999969e+001
1.329585e+003,2.227313e+001
1.330549e+003,2.441968e+001
1.331514e+003,2.423651e+001
1.332478e+003,2.327405e+001
1.333442e+003,2.394788e+001
1.334406e+003,2.598865e+001
1.335371e+003,2.705823e+001
1.336335e+003,2.574487e+001
1.337299e+003,2.305206e+001
1.338263e+003,2.057056e+001
1.339228e+003,1.809882e+001
1.340192e+003,1.801178e+001
1.341156e+003,2.285522e+001
1.342120e+003,2.613336e+001
1.343084e+003,2.567657e+001
1.344049e+003,2.360162e+001
1.345013e+003,2.138690e+001
1.345977e+003,1.976636e+001
1.346941e+003,1.993158e+001
1.347906e+003,2.241302e+001
1.348870e+003,2.424518e+001
1.349834e+003,2.167163e+001
1.350798e+003,1.703632e+001
1.351763e+003,1.540509e+001
1.352727e+003,1.652344e+001
1.353691e+003,1.806488e+001
1.354655e+003,1.939819e+001
1.355620e+003,2.038831e+001
1.356584e+003,2.098425e+001
1.357548e+003,2.132635e+001
1.358512e+003,2.127704e+001
1.359476e+003,2.040521e+001
1.360441e+003,1.855377e+001
1.361405e+003,1.473474e+001
1.362369e+003,1.149561e+001
1.363333e+003,1.041272e+001
1.364298e+003,1.058197e+001
1.365262e+003,1.040338e+001
1.366226e+003,9.696045e+000
1.367190e+003,1.002808e+001
1.368155e+003,1.283923e+001
1.369119e+003,1.710339e+001
1.370083e+003,1.961981e+001
1.371047e+003,2.011328e+001
1.372011e+003,2.098541e+001
1.372976e+003,2.211420e+001
1.373940e+003,2.271649e+001
1.374904e+003,2.244220e+001
1.375868e+003,2.194861e+001
1.376833e+003,2.206830e+001
1.377797e+003,2.260376e+001
1.378761e+003,2.228613e+001
1.379725e+003,2.043140e+001
1.380690e+003,1.851160e+001
1.381654e+003,1.788324e+001
1.382618e+003,1.845654e+001
1.383582e+003,2.058795e+001
1.384547e+003,2.397955e+001
1.385511e+003,2.692151e+001
1.386475e+003,2.848407e+001
1.387439e+003,2.861157e+001
1.388403e+003,2.675635e+001
1.389368e+003,2.287994e+001
1.390332e+003,2.055975e+001
1.391296e+003,2.066058e+001
1.392260e+003,2.149615e+001
1.393225e+003,2.427173e+001
1.394189e+003,2.570172e+001
1.395153e+003,2.235229e+001
1.396117e+003,1.711908e+001
1.397082e+003,1.471332e+001
1.398046e+003,1.629242e+001
1.399010e+003,1.924524e+001
1.399974e+003,2.093872e+001
1.400938e+003,2.105096e+001
1.401903e+003,1.998419e+001
1.402867e+003,1.843799e+001
1.403831e+003,1.875787e+001
1.404795e+003,2.116534e+001
1.405760e+003,2.380762e+001
1.406724e+003,2.609290e+001
1.407688e+003,2.663312e+001
1.408652e+003,2.419324e+001
1.409617e+003,1.971985e+001
1.410581e+003,1.527051e+001
1.411545e+003,1.119153e+001
1.412509e+003,9.739319e+000
1.413474e+003,1.513580e+001
1.414438e+003,2.250049e+001
1.415402e+003,2.414282e+001
1.416366e+003,2.116949e+001
1.417330e+003,1.872058e+001
1.418295e+003,1.858539e+001
1.419259e+003,2.040753e+001
1.420223e+003,2.512842e+001
1.421187e+003,3.140247e+001
1.422152e+003,3.159698e+001
1.423116e+003,2.314539e+001
1.424080e+003,1.850293e+001
1.425044e+003,2.493219e+001
1.426009e+003,3.069299e+001
1.426973e+003,2.944604e+001
1.427937e+003,2.570410e+001
1.428901e+003,2.528748e+001
1.429865e+003,2.879828e+001
1.430830e+003,3.335779e+001
1.431794e+003,3.676453e+001
1.432758e+003,3.830347e+001
1.433722e+003,3.688843e+001
1.434687e+003,3.274475e+001
1.435651e+003,3.234900e+001
1.436615e+003,3.734949e+001
1.437579e+003,4.024542e+001
1.438544e+003,4.002863e+001
1.439508e+003,3.834894e+001
1.440472e+003,3.575983e+001
1.441436e+003,3.335010e+001
1.442401e+003,3.250616e+001
1.443365e+003,3.332776e+001
1.444329e+003,3.485492e+001
1.445293e+003,3.680017e+001
1.446257e+003,3.849268e+001
1.447222e+003,3.752258e+001
1.448186e+003,3.460248e+001
1.449150e+003,3.473810e+001
1.450114e+003,3.944238e+001
1.451079e+003,4.205780e+001
1.452043e+003,3.748517e+001
1.453007e+003,3.080408e+001
1.453971e+003,2.883807e+001
1.454936e+003,3.091870e+001
1.455900e+003,3.269543e+001
1.456864e+003,3.334998e+001
1.457828e+003,3.435211e+001
1.458792e+003,3.716296e+001
1.459757e+003,3.943115e+001
1.460721e+003,3.869135e+001
1.461685e+003,3.609430e+001
1.462649e+003,3.438263e+001
1.463614e+003,3.438373e+001
1.464578e+003,3.427356e+001
1.465542e+003,3.191296e+001
1.466506e+003,2.859979e+001
1.467471e+003,2.942883e+001
1.468435e+003,3.640704e+001
1.469399e+003,4.032800e+001
1.470363e+003,3.734955e+001
1.471328e+003,3.475287e+001
1.472292e+003,3.322485e+001
1.473256e+003,3.248169e+001
1.474220e+003,3.350122e+001
1.475184e+003,3.582758e+001
1.476149e+003,3.837262e+001
1.477113e+003,4.025757e+001
1.478077e+003,4.074207e+001
1.479041e+003,3.942767e+001
1.480006e+003,3.743848e+001
1.480970e+003,3.755054e+001
1.481934e+003,3.997168e+001
1.482898e+003,4.135162e+001
1.483863e+003,4.064880e+001
1.484827e+003,4.024939e+001
1.485791e+003,4.149927e+001
1.486755e+003,4.352423e+001
1.487719e+003,4.486462e+001
1.488684e+003,4.579688e+001
1.489648e+003,4.829517e+001
1.490612e+003,5.313977e+001
1.491576e+003,5.761426e+001
1.492541e+003,5.885864e+001
1.493505e+003,5.876276e+001
1.494469e+003,6.171515e+001
1.495433e+003,6.675781e+001
1.496398e+003,7.178418e+001
1.497362e+003,7.735956e+001
1.498326e+003,8.308008e+001
1.499290e+003,8.750134e+001
1.500255e+003,9.262964e+001
1.501219e+003,1.018900e+002
1.502183e+003,1.143478e+002
1.503147e+003,1.249180e+002
1.504111e+003,1.320806e+002
1.505076e+003,1.393293e+002
1.506040e+003,1.476219e+002
1.507004e+003,1.583958e+002
1.507968e+003,1.733087e+002
1.508933e+003,1.913207e+002
1.509897e+003,2.104182e+002
1.510861e+003,2.309213e+002
1.511825e+003,2.541257e+002
1.512790e+003,2.806072e+002
1.513754e+003,3.091666e+002
1.514718e+003,3.387775e+002
1.515682e+003,3.689729e+002
1.516646e+003,3.980618e+002
1.517611e+003,4.278284e+002
1.518575e+003,4.533901e+002
1.519539e+003,4.749130e+002
1.520503e+003,4.910486e+002
1.521468e+003,4.995404e+002
1.522432e+003,5.023180e+002
1.523396e+003,5.020350e+002
1.524360e+003,4.990441e+002
1.525325e+003,4.924744e+002
1.526289e+003,4.819030e+002
1.527253e+003,4.668210e+002
1.528217e+003,4.456953e+002
1.529182e+003,4.188613e+002
1.530146e+003,3.910195e+002
1.531110e+003,3.628303e+002
1.532074e+003,3.313014e+002
1.533039e+003,2.928705e+002
1.534003e+003,2.532954e+002
1.534967e+003,2.131376e+002
1.535931e+003,1.764531e+002
1.536896e+003,1.470444e+002
1.537860e+003,1.251788e+002
1.538824e+003,1.096263e+002
1.539788e+003,9.920184e+001
1.540752e+003,9.133118e+001
1.541717e+003,8.308069e+001
1.542681e+003,7.492603e+001
1.543645e+003,6.826123e+001
1.544609e+003,6.401697e+001
1.545573e+003,6.046674e+001
1.546538e+003,5.692285e+001
1.547502e+003,5.346118e+001
1.548466e+003,5.086084e+001
1.549430e+003,4.906165e+001
1.550395e+003,4.731598e+001
1.551359e+003,4.566980e+001
1.552323e+003,4.564618e+001
1.553287e+003,4.760175e+001
1.554252e+003,4.783923e+001
1.555216e+003,4.249219e+001
1.556180e+003,3.469635e+001
1.557144e+003,3.225348e+001
1.558109e+003,3.559540e+001
1.559073e+003,3.729431e+001
1.560037e+003,3.618982e+001
1.561001e+003,3.387292e+001
1.561966e+003,3.033545e+001
1.562930e+003,2.771136e+001
1.563894e+003,2.822931e+001
1.564858e+003,3.050598e+001
1.565823e+003,3.121069e+001
1.566787e+003,2.973334e+001
1.567751e+003,2.867999e+001
1.568715e+003,2.990210e+001
1.569679e+003,3.159167e+001
1.570644e+003,3.057025e+001
1.571608e+003,2.791748e+001
1.572572e+003,2.830414e+001
1.573536e+003,3.228223e+001
1.574500e+003,3.493738e+001
1.575465e+003,3.404639e+001
1.576429e+003,3.194006e+001
1.577393e+003,2.889429e+001
1.578357e+003,2.628217e+001
1.579322e+003,2.865668e+001
1.580286e+003,3.579651e+001
1.581250e+003,3.898743e+001
1.582214e+003,3.450073e+001
1.583179e+003,2.963281e+001
1.584143e+003,2.998029e+001
1.585107e+003,3.210522e+001
1.586071e+003,3.191809e+001
1.587036e+003,3.056891e+001
1.588000e+003,2.992975e+001
1.588964e+003,3.004254e+001
1.589928e+003,3.037842e+001
1.590893e+003,3.058514e+001
1.591857e+003,3.101556e+001
1.592821e+003,3.229218e+001
1.593785e+003,3.440198e+001
1.594750e+003,3.691925e+001
1.595714e+003,3.974469e+001
1.596678e+003,4.168561e+001
1.597642e+003,4.200745e+001
1.598606e+003,4.180042e+001
1.599571e+003,4.184570e+001
1.600535e+003,4.229132e+001
1.601499e+003,4.344666e+001
1.602463e+003,4.497565e+001
1.603427e+003,4.587689e+001
1.604392e+003,4.578131e+001
1.605356e+003,4.503033e+001
1.606320e+003,4.395337e+001
1.607284e+003,4.254913e+001
1.608249e+003,4.053516e+001
1.609213e+003,3.788715e+001
1.610177e+003,3.574231e+001
1.611141e+003,3.448761e+001
1.612106e+003,3.328143e+001
1.613070e+003,3.093433e+001
1.614034e+003,2.914148e+001
1.614998e+003,3.033911e+001
1.615963e+003,3.251532e+001
1.616927e+003,3.137689e+001
1.617891e+003,2.673352e+001
1.618855e+003,2.300751e+001
1.619820e+003,2.265875e+001
1.620784e+003,2.368146e+001
1.621748e+003,2.430640e+001
1.622712e+003,2.522968e+001
1.623677e+003,2.674951e+001
1.624641e+003,2.925677e+001
1.625605e+003,3.033026e+001
1.626569e+003,2.725049e+001
1.627533e+003,2.379993e+001
1.628498e+003,2.265765e+001
1.629462e+003,2.234015e+001
1.630426e+003,2.090692e+001
1.631390e+003,1.920471e+001
1.632354e+003,1.991711e+001
1.633319e+003,2.331873e+001
1.634283e+003,2.597229e+001
1.635247e+003,2.509216e+001
1.636211e+003,2.246594e+001
1.637176e+003,2.164154e+001
1.638140e+003,2.269049e+001
1.639104e+003,2.323901e+001
1.640068e+003,2.283630e+001
1.641033e+003,2.247937e+001
1.641997e+003,2.235162e+001
1.642961e+003,2.293274e+001
1.643925e+003,2.529156e+001
1.644890e+003,2.764777e+001
1.645854e+003,2.726239e+001
1.646818e+003,2.535010e+001
1.647782e+003,2.627130e+001
1.648747e+003,3.097955e+001
1.649711e+003,3.391998e+001
1.650675e+003,3.010315e+001
1.651639e+003,2.352252e+001
1.652604e+003,2.219116e+001
1.653568e+003,2.561444e+001
1.654532e+003,2.754999e+001
1.655496e+003,2.737048e+001
1.656460e+003,2.686377e+001
1.657425e+003,2.659125e+001
1.658389e+003,2.640564e+001
1.659353e+003,2.594794e+001
1.660317e+003,2.565326e+001
1.661281e+003,2.624408e+001
1.662246e+003,2.722552e+001
1.663210e+003,2.776965e+001
1.664174e+003,2.770612e+001
1.665138e+003,2.592950e+001
1.666103e+003,2.031836e+001
1.667067e+003,1.365717e+001
1.668031e+003,1.278723e+001
1.668995e+003,1.730151e+001
1.669960e+003,1.915845e+001
1.670924e+003,1.726868e+001
1.671888e+003,1.548108e+001
1.672852e+003,1.405377e+001
1.673817e+003,1.382068e+001
1.674781e+003,1.649225e+001
1.675745e+003,1.958551e+001
1.676709e+003,2.042639e+001
1.677674e+003,1.918207e+001
1.678638e+003,1.676105e+001
1.679602e+003,1.349426e+001
1.680566e+003,1.100092e+001
1.681531e+003,1.130334e+001
1.682495e+003,1.273273e+001
1.683459e+003,1.144342e+001
1.684423e+003,7.782349e+000
1.685387e+003,5.753235e+000
1.686352e+003,5.919434e+000
1.687316e+003,7.444031e+000
1.688280e+003,1.079620e+001
1.689244e+003,1.403937e+001
1.690208e+003,1.612714e+001
1.691173e+003,1.676648e+001
1.692137e+003,1.490198e+001
1.693101e+003,1.179565e+001
1.694065e+003,1.034094e+001
1.695030e+003,1.084180e+001
1.695994e+003,1.174316e+001
1.696958e+003,1.284595e+001
1.697922e+003,1.346545e+001
1.698887e+003,1.192969e+001
1.699851e+003,9.460876e+000
1.700815e+003,1.025989e+001
1.701779e+003,1.430603e+001
1.702744e+003,1.495776e+001
1.703708e+003,9.544495e+000
1.704672e+003,5.096680e+000
1.705636e+003,7.004578e+000
1.706601e+003,1.100665e+001
1.707565e+003,1.176917e+001
1.708529e+003,1.031488e+001
1.709493e+003,8.035645e+000
1.710458e+003,4.666016e+000
1.711422e+003,3.749451e+000
1.712386e+003,9.655457e+000
1.713350e+003,1.578754e+001
1.714314e+003,1.580237e+001
1.715279e+003,1.234967e+001
1.716243e+003,1.015442e+001
1.717207e+003,9.379578e+000
1.718171e+003,8.108948e+000
1.719135e+003,5.918945e+000
1.720100e+003,4.593811e+000
1.721064e+003,5.429871e+000
1.722028e+003,6.588867e+000
1.722992e+003,5.342163e+000
1.723957e+003,2.979736e+000
1.724921e+003,4.508240e+000
1.725885e+003,1.012543e+001
1.726849e+003,1.278925e+001
1.727814e+003,1.007593e+001
1.728778e+003,7.857239e+000
1.729742e+003,9.456543e+000
1.730706e+003,1.158893e+001
1.731671e+003,9.953186e+000
1.732635e+003,5.778259e+000
1.733599e+003,3.120911e+000
1.734563e+003,3.094177e+000
1.735528e+003,4.163208e+000
1.736492e+003,5.286987e+000
1.737456e+003,6.199585e+000
1.738420e+003,6.585815e+000
1.739385e+003,6.213318e+000
1.740349e+003,5.667236e+000
1.741313e+003,5.328613e+000
1.742277e+003,4.737915e+000
1.743241e+003,3.493774e+000
1.744206e+003,3.426392e+000
1.745170e+003,7.006531e+000
1.746134e+003,8.699402e+000
1.747098e+003,2.953735e+000
1.748063e+003,-4.536865e+000
1.749027e+003,-6.998352e+000
1.749991e+003,-4.904053e+000
1.750955e+003,-1.641479e+000
1.751919e+003,9.679565e-001
1.752884e+003,1.219055e+000
1.753848e+003,-2.395813e+000
1.754812e+003,-6.929382e+000
1.755776e+003,-5.562256e+000
1.756741e+003,1.826050e+000
1.757705e+003,4.728088e+000
1.758669e+003,6.914673e-001
1.759633e+003,-1.808350e+000
1.760598e+003,-1.146729e+000
1.761562e+003,-7.531128e-001
1.762526e+003,-1.920776e+000
1.763490e+003,-2.530518e+000
1.764455e+003,-5.120850e-001
1.765419e+003,2.920471e+000
1.766383e+003,5.967163e+000
1.767347e+003,7.827759e+000
1.768312e+003,7.692993e+000
1.769276e+003,5.003174e+000
1.770240e+003,1.908447e+000
1.771204e+003,1.622375e+000
1.772168e+003,3.017578e+000
1.773133e+003,1.791138e+000
1.774097e+003,-1.609253e+000
1.775061e+003,-1.942749e+000
1.776025e+003,1.331299e+000
1.776990e+003,3.577271e+000
1.777954e+003,3.567993e+000
1.778918e+003,3.221619e+000
1.779882e+003,4.066040e+000
1.780846e+003,4.267822e+000
1.781811e+003,5.411987e-001
1.782775e+003,-5.233337e+000
1.783739e+003,-6.428284e+000
1.784703e+003,-1.443481e+000
1.785668e+003,2.006592e+000
1.786632e+003,-1.638733e+000
1.787596e+003,-5.767090e+000
1.788560e+003,-4.098145e+000
1.789525e+003,2.593994e-001
1.790489e+003,2.507141e+000
1.791453e+003,2.640503e+000
1.792417e+003,2.513794e+000
1.793382e+003,2.584473e+000
1.794346e+003,2.385071e+000
1.795310e+003,1.589355e+000
1.796274e+003,4.495850e-001
1.797239e+003,-4.201050e-001
1.798203e+003,-7.023315e-001
1.799167e+003,-1.420593e+000
1.800131e+003,-3.939026e+000
1.801095e+003,-4.640503e+000
1.802060e+003,-5.429688e-001
1.803024e+003,2.331421e+000
1.803988e+003,1.944763e+000
1.804952e+003,1.331299e+000
1.805917e+003,2.289673e+000
1.806881e+003,3.369446e+000
1.807845e+003,3.302795e+000
1.808809e+003,2.355774e+000
1.809773e+003,1.016602e+000
1.810738e+003,-4.348145e-001
1.811702e+003,-1.731201e+000
1.812666e+003,-2.731750e+000
1.813630e+003,-2.946838e+000
1.814595e+003,-1.507507e+000
1.815559e+003,8.705444e-001
1.816523e+003,1.778381e+000
1.817487e+003,1.227112e+000
1.818452e+003,2.386475e-001
1.819416e+003,-1.212341e+000
1.820380e+003,-1.423523e+000
1.821344e+003,7.553711e-001
1.822309e+003,2.293579e+000
1.823273e+003,3.256836e-001
1.824237e+003,-1.561829e+000
1.825201e+003,1.503174e+000
1.826166e+003,7.024841e+000
1.827130e+003,7.920654e+000
1.828094e+003,2.922302e+000
1.829058e+003,-2.090393e+000
1.830022e+003,-4.472290e+000
1.830987e+003,-4.942932e+000
1.831951e+003,-2.894775e+000
1.832915e+003,-1.523438e-001
1.833879e+003,2.966919e-001
1.834844e+003,-8.936768e-001
1.835808e+003,-1.370361e+000
1.836772e+003,-7.222900e-001
1.837736e+003,1.208496e-001
1.838700e+003,5.231323e-001
1.839665e+003,9.667358e-001
1.840629e+003,2.353943e+000
1.841593e+003,3.630737e+000
1.842557e+003,1.926025e+000
1.843522e+003,-2.725647e+000
1.844486e+003,-5.848572e+000
1.845450e+003,-6.506226e+000
1.846414e+003,-6.112000e+000
1.847379e+003,-3.832031e+000
1.848343e+003,-3.289063e+000
1.849307e+003,-7.299316e+000
1.850271e+003,-1.100470e+001
1.851236e+003,-1.068146e+001
1.852200e+003,-7.539795e+000
1.853164e+003,-2.833008e+000
1.854128e+003,1.580444e+000
1.855093e+003,2.726257e+000
1.856057e+003,1.751099e-001
1.857021e+003,-3.245911e+000
1.857985e+003,-5.721191e+000
1.858949e+003,-6.775635e+000
1.859914e+003,-4.482300e+000
1.860878e+003,4.099121e-001
1.861842e+003,2.681641e+000
1.862806e+003,2.071289e+000
1.863771e+003,1.595947e+000
1.864735e+003,1.760864e+000
1.865699e+003,7.717285e-001
1.866663e+003,-2.797302e+000
1.867627e+003,-5.606323e+000
1.868592e+003,-4.379517e+000
1.869556e+003,-1.579956e+000
1.870520e+003,-1.032227e+000
1.871484e+003,-2.494263e+000
1.872449e+003,-4.091492e+000
1.873413e+003,-4.494629e+000
1.874377e+003,-3.913147e+000
1.875341e+003,-3.303528e+000
1.876306e+003,-2.988892e+000
1.877270e+003,-4.348938e+000
1.878234e+003,-5.294312e+000
1.879198e+003,-2.113892e+000
1.880163e+003,2.658081e+000
1.881127e+003,4.110596e+000
1.882091e+003,2.092529e+000
1.883055e+003,-8.095703e-001
1.884020e+003,-3.302368e+000
1.884984e+003,-4.734070e+000
1.885948e+003,-4.465942e+000
1.886912e+003,-3.038696e+000
1.887876e+003,-1.332275e+000
1.888841e+003,6.369629e-001
1.889805e+003,1.865723e+000
1.890769e+003,2.255859e+000
1.891733e+003,2.452637e+000
1.892698e+003,2.215698e+000
1.893662e+003,1.532837e+000
1.894626e+003,1.252441e-001
1.895590e+003,-1.000366e+000
1.896554e+003,-8.300781e-001
1.897519e+003,2.598877e-001
1.898483e+003,2.093872e+000
1.899447e+003,3.672119e+000
1.900411e+003,2.263306e+000
1.901376e+003,-2.758667e+000
1.902340e+003,-4.051636e+000
1.903304e+003,4.674683e+000
1.904268e+003,1.201062e+001
1.905233e+003,9.550049e+000
1.906197e+003,4.122925e+000
1.907161e+003,2.483765e+000
1.908125e+003,3.432373e+000
1.909090e+003,3.821045e+000
1.910054e+003,3.087402e+000
1.911018e+003,2.069092e+000
1.911982e+003,1.421631e+000
1.912947e+003,1.997192e+000
1.913911e+003,4.286865e+000
1.914875e+003,6.632080e+000
1.915839e+003,6.082275e+000
1.916803e+003,3.132935e+000
1.917768e+003,2.460327e+000
1.918732e+003,4.914307e+000
1.919696e+003,6.189331e+000
1.920660e+003,5.723389e+000
1.921625e+003,6.549561e+000
1.922589e+003,1.112817e+001
1.923553e+003,1.346460e+001
1.924517e+003,7.155151e+000
1.925481e+003,2.612305e-001
1.926446e+003,9.804688e-001
1.927410e+003,5.865479e+000
1.928374e+003,7.558594e+000
1.929338e+003,5.513428e+000
1.930303e+003,4.499512e+000
1.931267e+003,6.807373e+000
1.932231e+003,9.093628e+000
1.933195e+003,8.952881e+000
1.934160e+003,8.271362e+000
1.935124e+003,9.130737e+000
1.936088e+003,9.380127e+000
1.937052e+003,6.141113e+000
1.938017e+003,1.018311e+000
1.938981e+003,-3.307373e+000
1.939945e+003,-5.970581e+000
1.940909e+003,-5.931641e+000
1.941874e+003,-3.144531e+000
1.942838e+003,-3.149414e-001
1.943802e+003,5.186768e-001
1.944766e+003,-1.385498e-001
1.945730e+003,-2.824341e+000
1.946695e+003,-7.311646e+000
1.947659e+003,-8.539063e+000
1.948623e+003,-6.281616e+000
1.949587e+003,-4.802612e+000
1.950552e+003,-4.425415e+000
1.951516e+003,-4.234253e+000
1.952480e+003,-4.025024e+000
1.953444e+003,-3.823975e+000
1.954408e+003,-4.153076e+000
1.955373e+003,-4.599854e+000
1.956337e+003,-3.477295e+000
1.957301e+003,-1.032349e+000
1.958265e+003,-2.807617e-001
1.959230e+003,-1.601318e+000
1.960194e+003,-1.287109e+000
1.961158e+003,2.505493e+000
1.962122e+003,4.274536e+000
1.963087e+003,9.072266e-001
1.964051e+003,-2.507080e+000
1.965015e+003,-2.064941e+000
1.965979e+003,-2.243652e-001
1.966944e+003,-6.716309e-001
1.967908e+003,-2.195923e+000
1.968872e+003,-1.362915e+000
1.969836e+003,2.002441e+000
1.970801e+003,6.083374e+000
1.971765e+003,9.871216e+000
1.972729e+003,1.047192e+001
1.973693e+003,4.409546e+000
1.974657e+003,-3.217529e+000
1.975622e+003,-4.934570e+000
1.976586e+003,-2.489502e+000
1.977550e+003,6.408691e-001
1.978514e+003,4.211914e+000
1.979479e+003,6.735474e+000
1.980443e+003,7.880005e+000
1.981407e+003,8.167603e+000
1.982371e+003,8.007080e+000
1.983335e+003,6.303223e+000
1.984300e+003,1.504028e+000
1.985264e+003,-3.380981e+000
1.986228e+003,-3.006836e+000
1.987192e+003,1.275269e+000
1.988157e+003,2.394775e+000
1.989121e+003,-2.940674e-001
1.990085e+003,-1.827393e+000
1.991049e+003,-1.608643e+000
1.992014e+003,-8.618164e-001
1.992978e+003,3.754883e-001
1.993942e+003,1.428955e+000
1.994906e+003,1.825073e+000
1.995871e+003,2.249390e+000
1.996835e+003,4.405273e+000
1.997799e+003,6.509399e+000
1.998763e+003,4.441040e+000
1.999728e+003,-7.524414e-001
