5.003444e+002,3.697748e+001
5.013087e+002,3.777234e+001
5.022729e+002,3.476147e+001
5.032371e+002,2.965363e+001
5.042014e+002,2.677478e+001
5.051656e+002,2.594403e+001
5.061298e+002,2.618799e+001
5.070941e+002,2.661871e+001
5.080583e+002,2.708032e+001
5.090225e+002,2.723450e+001
5.099868e+002,2.730658e+001
5.109510e+002,2.694971e+001
5.119152e+002,2.557300e+001
5.128795e+002,2.307776e+001
5.138437e+002,2.177502e+001
5.148079e+002,2.386237e+001
5.157722e+002,2.620807e+001
5.167364e+002,2.757648e+001
5.177006e+002,2.759180e+001
5.186649e+002,2.657635e+001
5.196291e+002,2.454053e+001
5.205933e+002,2.280902e+001
5.215576e+002,2.252167e+001
5.225218e+002,2.334485e+001
5.234860e+002,2.425482e+001
5.244503e+002,2.387402e+001
5.254145e+002,2.232007e+001
5.263787e+002,2.052051e+001
5.273430e+002,1.740973e+001
5.283072e+002,1.474438e+001
5.292714e+002,1.537140e+001
5.302357e+002,2.169165e+001
5.311999e+002,2.456055e+001
5.321641e+002,2.208276e+001
5.331284e+002,1.807928e+001
5.340926e+002,1.505261e+001
5.350568e+002,1.369849e+001
5.360211e+002,1.278699e+001
5.369853e+002,1.170959e+001
5.379495e+002,1.100189e+001
5.389138e+002,1.114191e+001
5.398780e+002,1.215778e+001
5.408422e+002,1.351031e+001
5.418065e+002,1.378369e+001
5.427707e+002,1.314990e+001
5.437349e+002,1.291559e+001
5.446992e+002,1.343805e+001
5.456634e+002,1.443677e+001
5.466276e+002,1.506171e+001
5.475919e+002,1.415881e+001
5.485561e+002,1.482874e+001
5.495203e+002,1.958105e+001
5.504846e+002,2.483118e+001
5.514488e+002,2.500757e+001
5.524130e+002,1.593640e+001
5.533773e+002,7.277344e+000
5.543415e+002,3.538879e+000
5.553057e+002,2.874756e+000
5.562700e+002,3.865967e+000
5.572342e+002,5.551208e+000
5.581984e+002,7.189087e+000
5.591627e+002,7.399536e+000
5.601269e+002,6.766174e+000
5.610911e+002,5.424438e+000
5.620554e+002,3.177307e+000
5.630196e+002,1.931763e-001
5.639838e+002,-3.810425e-001
5.649481e+002,4.489929e+000
5.659123e+002,7.413391e+000
5.668765e+002,6.778809e+000
5.678408e+002,3.878906e+000
5.688050e+002,1.552979e+000
5.697692e+002,-1.023865e+000
5.707335e+002,-1.915405e+000
5.716977e+002,1.689087e+000
5.726619e+002,6.790649e+000
5.736262e+002,9.195313e+000
5.745904e+002,5.729126e+000
5.755546e+002,2.836304e-001
5.765189e+002,-1.658264e+000
5.774831e+002,-1.413208e+000
5.784473e+002,-3.150024e-001
5.794116e+002,8.969116e-001
5.803758e+002,2.403015e+000
5.813400e+002,2.674133e+000
5.823043e+002,1.050537e+000
5.832685e+002,-1.231812e+000
5.842327e+002,-4.499268e+000
5.851970e+002,-7.967957e+000
5.861612e+002,-8.211792e+000
5.871254e+002,-8.107300e-001
5.880897e+002,5.050903e+000
5.890539e+002,6.396423e+000
5.900181e+002,5.026672e+000
5.909824e+002,4.669189e+000
5.919466e+002,8.684021e+000
5.929108e+002,1.227118e+001
5.938751e+002,9.770935e+000
5.948393e+002,3.794617e+000
5.958035e+002,-2.053650e+000
5.967678e+002,-5.045837e+000
5.977320e+002,-5.112183e+000
5.986962e+002,-1.563660e+000
5.996605e+002,5.412170e+000
6.006247e+002,1.034381e+001
6.015889e+002,9.936890e+000
6.025532e+002,4.653442e+000
6.035174e+002,7.755737e-001
6.044816e+002,-4.709473e-001
6.054459e+002,-1.293152e+000
6.064101e+002,-2.237366e+000
6.073743e+002,-2.956482e+000
6.083386e+002,-2.457825e+000
6.093028e+002,6.818237e-001
6.102670e+002,3.522156e+000
6.112313e+002,3.482910e+000
6.121955e+002,1.826172e+000
6.131597e+002,5.493164e-003
6.141240e+002,-9.688721e-001
6.150882e+002,-1.175598e+000
6.160524e+002,-3.040161e-001
6.170167e+002,1.643066e+000
6.179809e+002,3.604980e+000
6.189451e+002,5.031433e+000
6.199094e+002,5.687988e+000
6.208736e+002,5.335938e+000
6.218378e+002,3.234009e+000
6.228021e+002,1.813354e+000
6.237663e+002,2.079773e+000
6.247305e+002,3.090332e+000
6.256948e+002,2.848328e+000
6.266590e+002,-6.918335e-001
6.276232e+002,-3.570374e+000
6.285875e+002,-2.255798e+000
6.295517e+002,8.119507e-001
6.305159e+002,2.992432e+000
6.314802e+002,2.724548e+000
6.324444e+002,7.434692e-001
6.334086e+002,-8.577881e-001
6.343729e+002,-1.794006e+000
6.353371e+002,-1.655457e+000
6.363013e+002,-1.255493e-001
6.372656e+002,1.988464e+000
6.382298e+002,2.089600e+000
6.391940e+002,-3.523254e+000
6.401583e+002,-6.495422e+000
6.411225e+002,-4.614075e+000
6.420867e+002,-2.925415e-001
6.430510e+002,3.527893e+000
6.440152e+002,5.852905e+000
6.449794e+002,6.927856e+000
6.459437e+002,7.337585e+000
6.469079e+002,6.678711e+000
6.478721e+002,4.067749e+000
6.488364e+002,-3.659668e-001
6.498006e+002,-4.859619e+000
6.507648e+002,-6.506836e+000
6.517291e+002,-6.012329e+000
6.526933e+002,-4.247498e+000
6.536575e+002,-1.297852e+000
6.546218e+002,1.976013e+000
6.555860e+002,3.987976e+000
6.565502e+002,4.304504e+000
6.575145e+002,3.778076e+000
6.584787e+002,1.806519e+000
6.594429e+002,-3.420410e-001
6.604072e+002,-1.874329e+000
6.613714e+002,-2.715271e+000
6.623356e+002,-2.462769e+000
6.632999e+002,8.775024e-001
6.642641e+002,3.265625e+000
6.652283e+002,2.023376e+000
6.661926e+002,-2.216248e+000
6.671568e+002,-6.449463e+000
6.681210e+002,-7.284607e+000
6.690853e+002,-5.752380e+000
6.700495e+002,-4.510193e+000
6.710137e+002,-3.593689e+000
6.719780e+002,-2.623108e+000
6.729422e+002,-1.167114e+000
6.739064e+002,8.557129e-001
6.748707e+002,1.764404e+000
6.758349e+002,9.212646e-001
6.767991e+002,-1.236572e-001
6.777634e+002,-2.950439e-001
6.787276e+002,5.489502e-001
6.796918e+002,1.374939e+000
6.806561e+002,8.281860e-001
6.816203e+002,4.938354e-001
6.825845e+002,1.459473e+000
6.835488e+002,3.000671e+000
6.845130e+002,3.848511e+000
6.854772e+002,3.062378e+000
6.864415e+002,1.802185e+000
6.874057e+002,2.151794e+000
6.883699e+002,3.196655e+000
6.893342e+002,3.717590e+000
6.902984e+002,3.130615e+000
6.912626e+002,1.742432e+000
6.922269e+002,7.796631e-001
6.931911e+002,1.617188e+000
6.941553e+002,2.208984e+000
6.951196e+002,1.217285e+000
6.960838e+002,-4.579468e-001
6.970480e+002,-8.767700e-001
6.980123e+002,1.206116e+000
6.989765e+002,2.988037e+000
6.999407e+002,3.366150e+000
7.009050e+002,2.890869e+000
7.018692e+002,1.629578e+000
7.028334e+002,-2.679443e-001
7.037977e+002,-2.273254e+000
7.047619e+002,-3.405090e+000
7.057261e+002,-3.451233e+000
7.066904e+002,-2.375916e+000
7.076546e+002,-2.004395e-001
7.086188e+002,2.413086e+000
7.095831e+002,4.470276e+000
7.105473e+002,5.935974e+000
7.115115e+002,5.850098e+000
7.124758e+002,2.313904e+000
7.134400e+002,-8.687134e-001
7.144042e+002,-3.294678e-001
7.153685e+002,4.020630e+000
7.163327e+002,6.696106e+000
7.172969e+002,2.887817e+000
7.182612e+002,-9.664307e-001
7.192254e+002,-2.656738e+000
7.201896e+002,-2.477173e+000
7.211539e+002,-1.259338e+000
7.221181e+002,6.115723e-001
7.230823e+002,2.189026e+000
7.240466e+002,5.003662e-001
7.250108e+002,-3.306213e+000
7.259750e+002,-6.089600e+000
7.269393e+002,-6.360046e+000
7.279035e+002,-4.797974e+000
7.288677e+002,-3.502380e+000
7.298320e+002,-1.284424e+000
7.307962e+002,9.080811e-001
7.317604e+002,2.837158e+000
7.327247e+002,4.895386e+000
7.336889e+002,7.616455e+000
7.346531e+002,1.105884e+001
7.356174e+002,1.251929e+001
7.365816e+002,1.077142e+001
7.375458e+002,8.182556e+000
7.385101e+002,5.855286e+000
7.394743e+002,4.431519e+000
7.404385e+002,4.547119e+000
7.414028e+002,7.905212e+000
7.423670e+002,1.241785e+001
7.433312e+002,1.251001e+001
7.442955e+002,8.138062e+000
7.452597e+002,2.878662e+000
7.462239e+002,3.222656e-001
7.471882e+002,7.648315e-001
7.481524e+002,2.046997e+000
7.491166e+002,3.551819e+000
7.500809e+002,5.172974e+000
7.510451e+002,7.605896e+000
7.520093e+002,1.028595e+001
7.529736e+002,1.134039e+001
7.539378e+002,9.442444e+000
7.549020e+002,7.460022e+000
7.558663e+002,7.183411e+000
7.568306e+002,7.873901e+000
7.577948e+002,8.195190e+000
7.587590e+002,7.261963e+000
7.597233e+002,5.585510e+000
7.606875e+002,6.036682e+000
7.616517e+002,8.601440e+000
7.626160e+002,1.035229e+001
7.635802e+002,1.048895e+001
7.645444e+002,9.680786e+000
7.655087e+002,9.262756e+000
7.664729e+002,9.707336e+000
7.674371e+002,9.093750e+000
7.684014e+002,5.777710e+000
7.693656e+002,2.834839e+000
7.703298e+002,2.920959e+000
7.712941e+002,6.068909e+000
7.722583e+002,8.860413e+000
7.732225e+002,8.242554e+000
7.741868e+002,6.697083e+000
7.751510e+002,5.644409e+000
7.761152e+002,5.408813e+000
7.770795e+002,6.489380e+000
7.780437e+002,9.308044e+000
7.790079e+002,1.323578e+001
7.799722e+002,1.313898e+001
7.809364e+002,8.763367e+000
7.819006e+002,4.814514e+000
7.828649e+002,3.445740e+000
7.838291e+002,4.293213e+000
7.847933e+002,5.546631e+000
7.857576e+002,7.337585e+000
7.867218e+002,7.779053e+000
7.876860e+002,5.489746e+000
7.886503e+002,3.477478e+000
7.896145e+002,4.987732e+000
7.905787e+002,1.054681e+001
7.915430e+002,1.605823e+001
7.925072e+002,1.591138e+001
7.934714e+002,1.316089e+001
7.944357e+002,1.158728e+001
7.953999e+002,1.168091e+001
7.963641e+002,1.216309e+001
7.973284e+002,1.138837e+001
7.982926e+002,9.234314e+000
7.992568e+002,8.473022e+000
8.002211e+002,9.161743e+000
8.011853e+002,8.826599e+000
8.021495e+002,6.255432e+000
8.031138e+002,3.021851e+000
8.040780e+002,3.035095e+000
8.050422e+002,8.608582e+000
8.060065e+002,1.361646e+001
8.069707e+002,1.613684e+001
8.079349e+002,1.668756e+001
8.088992e+002,1.539081e+001
8.098634e+002,1.276025e+001
8.108276e+002,1.046100e+001
8.117919e+002,1.086456e+001
8.127561e+002,1.228186e+001
8.137203e+002,1.288745e+001
8.146846e+002,1.291858e+001
8.156488e+002,1.274591e+001
8.166130e+002,1.246747e+001
8.175773e+002,1.191418e+001
8.185415e+002,1.149268e+001
8.195057e+002,1.043805e+001
8.204700e+002,9.578186e+000
8.214342e+002,9.076599e+000
8.223984e+002,9.014038e+000
8.233627e+002,9.736511e+000
8.243269e+002,1.214465e+001
8.252911e+002,1.412659e+001
8.262554e+002,1.452081e+001
8.272196e+002,1.389252e+001
8.281838e+002,1.198328e+001
8.291481e+002,9.157043e+000
8.301123e+002,7.250244e+000
8.310765e+002,1.025897e+001
8.320408e+002,1.742017e+001
8.330050e+002,2.021149e+001
8.339692e+002,1.708325e+001
8.349335e+002,1.334937e+001
8.358977e+002,1.546466e+001
8.368619e+002,2.500531e+001
8.378262e+002,3.060223e+001
8.387904e+002,2.855927e+001
8.397546e+002,2.568079e+001
8.407189e+002,2.308044e+001
8.416831e+002,2.096143e+001
8.426473e+002,1.918329e+001
8.436116e+002,1.765875e+001
8.445758e+002,1.693921e+001
8.455400e+002,1.803223e+001
8.465043e+002,1.905847e+001
8.474685e+002,1.771588e+001
8.484327e+002,1.411560e+001
8.493970e+002,1.112360e+001
8.503612e+002,1.320361e+001
8.513254e+002,2.147192e+001
8.522897e+002,2.471387e+001
8.532539e+002,1.926190e+001
8.542181e+002,1.362952e+001
8.551824e+002,1.388831e+001
8.561466e+002,1.970709e+001
8.571108e+002,2.462109e+001
8.580751e+002,2.541864e+001
8.590393e+002,2.534851e+001
8.600035e+002,2.607416e+001
8.609678e+002,2.701978e+001
8.619320e+002,2.662909e+001
8.628962e+002,2.446283e+001
8.638605e+002,2.311560e+001
8.648247e+002,2.842175e+001
8.657889e+002,3.687042e+001
8.667532e+002,4.086926e+001
8.677174e+002,3.942053e+001
8.686816e+002,3.560760e+001
8.696459e+002,3.285602e+001
8.706101e+002,3.149896e+001
8.715743e+002,3.069855e+001
8.725386e+002,2.959381e+001
8.735028e+002,3.010718e+001
8.744670e+002,3.388586e+001
8.754313e+002,3.872888e+001
8.763955e+002,4.061279e+001
8.773597e+002,3.762091e+001
8.783240e+002,3.462231e+001
8.792882e+002,3.525421e+001
8.802524e+002,3.702130e+001
8.812167e+002,3.808740e+001
8.821809e+002,3.797931e+001
8.831451e+002,3.734174e+001
8.841094e+002,3.716467e+001
8.850736e+002,3.758966e+001
8.860378e+002,3.568427e+001
8.870021e+002,3.016296e+001
8.879663e+002,2.601801e+001
8.889305e+002,2.642291e+001
8.898948e+002,3.042395e+001
8.908590e+002,3.388794e+001
8.918232e+002,3.713074e+001
8.927875e+002,3.950470e+001
8.937517e+002,4.058948e+001
8.947159e+002,4.113104e+001
8.956802e+002,4.117004e+001
8.966444e+002,4.068781e+001
8.976086e+002,4.025323e+001
8.985729e+002,4.106677e+001
8.995371e+002,4.269824e+001
9.005013e+002,4.406439e+001
9.014656e+002,4.524969e+001
9.024298e+002,4.587396e+001
9.033940e+002,4.524048e+001
9.043583e+002,4.335370e+001
9.053225e+002,4.298529e+001
9.062867e+002,4.509717e+001
9.072510e+002,4.701453e+001
9.082152e+002,5.071539e+001
9.091794e+002,5.380371e+001
9.101437e+002,5.257593e+001
9.111079e+002,4.632922e+001
9.120721e+002,4.191937e+001
9.130364e+002,4.517133e+001
9.140006e+002,4.926227e+001
9.149648e+002,5.138617e+001
9.159291e+002,5.164948e+001
9.168933e+002,5.008124e+001
9.178575e+002,4.660187e+001
9.188218e+002,4.247131e+001
9.197860e+002,4.358667e+001
9.207502e+002,4.990082e+001
9.217145e+002,5.436896e+001
9.226787e+002,5.639154e+001
9.236429e+002,5.642279e+001
9.246072e+002,5.421027e+001
9.255714e+002,4.898486e+001
9.265356e+002,4.373462e+001
9.274999e+002,3.734534e+001
9.284641e+002,3.238074e+001
9.294283e+002,3.031274e+001
9.303926e+002,3.053119e+001
9.313568e+002,3.197394e+001
9.323210e+002,3.414911e+001
9.332853e+002,3.630743e+001
9.342495e+002,3.667413e+001
9.352137e+002,3.623792e+001
9.361780e+002,3.741553e+001
9.371422e+002,4.098993e+001
9.381064e+002,4.466284e+001
9.390707e+002,4.457495e+001
9.400349e+002,3.923651e+001
9.409991e+002,3.720886e+001
9.419634e+002,4.117120e+001
9.429276e+002,4.430322e+001
9.438918e+002,4.441064e+001
9.448561e+002,4.289111e+001
9.458203e+002,4.216534e+001
9.467845e+002,4.306824e+001
9.477488e+002,4.464703e+001
9.487130e+002,4.671100e+001
9.496772e+002,4.856702e+001
9.506415e+002,4.957874e+001
9.516057e+002,4.975793e+001
9.525699e+002,4.943414e+001
9.535342e+002,4.886566e+001
9.544984e+002,4.792181e+001
9.554626e+002,4.688257e+001
9.564269e+002,4.609161e+001
9.573911e+002,4.641919e+001
9.583553e+002,4.874805e+001
9.593196e+002,5.177405e+001
9.602838e+002,5.315314e+001
9.612480e+002,5.210327e+001
9.622123e+002,5.171649e+001
9.631765e+002,5.438007e+001
9.641407e+002,5.673260e+001
9.651050e+002,5.732135e+001
9.660692e+002,5.598602e+001
9.670334e+002,5.259320e+001
9.679977e+002,4.720526e+001
9.689619e+002,4.225647e+001
9.699261e+002,4.361023e+001
9.708904e+002,4.880255e+001
9.718546e+002,5.193384e+001
9.728188e+002,5.133563e+001
9.737831e+002,4.910950e+001
9.747473e+002,4.831134e+001
9.757115e+002,4.954260e+001
9.766758e+002,4.974701e+001
9.776400e+002,4.783136e+001
9.786042e+002,4.694336e+001
9.795685e+002,4.826495e+001
9.805327e+002,5.026373e+001
9.814969e+002,5.117291e+001
9.824612e+002,5.067999e+001
9.834254e+002,5.007477e+001
9.843896e+002,5.072461e+001
9.853539e+002,5.103088e+001
9.863181e+002,4.818219e+001
9.872823e+002,4.271252e+001
9.882466e+002,3.869153e+001
9.892108e+002,4.007227e+001
9.901750e+002,4.658209e+001
9.911393e+002,5.170667e+001
9.921035e+002,5.164441e+001
9.930677e+002,5.395563e+001
9.940320e+002,6.108850e+001
9.949962e+002,6.990424e+001
9.959604e+002,7.803058e+001
9.969247e+002,8.525726e+001
9.978889e+002,9.111584e+001
9.988531e+002,9.371985e+001
9.998174e+002,9.535010e+001
1.000782e+003,9.775720e+001
1.001746e+003,1.008511e+002
1.002710e+003,1.043666e+002
1.003674e+003,1.079954e+002
1.004639e+003,1.112738e+002
1.005603e+003,1.134631e+002
1.006567e+003,1.142577e+002
1.007531e+003,1.136967e+002
1.008495e+003,1.115328e+002
1.009460e+003,1.087990e+002
1.010424e+003,1.054933e+002
1.011388e+003,1.022000e+002
1.012352e+003,1.013776e+002
1.013317e+003,1.054894e+002
1.014281e+003,1.068852e+002
1.015245e+003,1.023425e+002
1.016209e+003,9.528204e+001
1.017174e+003,8.726801e+001
1.018138e+003,7.934674e+001
1.019102e+003,7.252625e+001
1.020066e+003,6.774213e+001
1.021031e+003,6.493488e+001
1.021995e+003,6.389063e+001
1.022959e+003,6.372235e+001
1.023923e+003,6.176807e+001
1.024887e+003,5.668994e+001
1.025852e+003,5.005048e+001
1.026816e+003,4.421558e+001
1.027780e+003,3.937262e+001
1.028744e+003,3.624243e+001
1.029709e+003,3.548206e+001
1.030673e+003,3.550446e+001
1.031637e+003,3.641669e+001
1.032601e+003,3.733502e+001
1.033566e+003,3.734375e+001
1.034530e+003,3.625659e+001
1.035494e+003,3.461816e+001
1.036458e+003,3.245404e+001
1.037422e+003,3.007977e+001
1.038387e+003,2.782727e+001
1.039351e+003,2.576428e+001
1.040315e+003,2.493402e+001
1.041279e+003,2.641626e+001
1.042244e+003,2.989215e+001
1.043208e+003,3.299603e+001
1.044172e+003,3.627979e+001
1.045136e+003,3.695532e+001
1.046101e+003,3.295062e+001
1.047065e+003,2.896185e+001
1.048029e+003,2.773401e+001
1.048993e+003,2.901147e+001
1.049958e+003,3.158264e+001
1.050922e+003,3.600629e+001
1.051886e+003,3.945374e+001
1.052850e+003,3.799097e+001
1.053814e+003,3.429700e+001
1.054779e+003,3.145404e+001
1.055743e+003,3.019940e+001
1.056707e+003,2.995007e+001
1.057671e+003,3.009076e+001
1.058636e+003,3.053333e+001
1.059600e+003,3.039575e+001
1.060564e+003,2.987970e+001
1.061528e+003,2.966998e+001
1.062493e+003,2.907129e+001
1.063457e+003,2.846582e+001
1.064421e+003,2.922546e+001
1.065385e+003,3.158392e+001
1.066349e+003,3.218445e+001
1.067314e+003,2.669928e+001
1.068278e+003,2.224139e+001
1.069242e+003,2.569720e+001
1.070206e+003,3.307574e+001
1.071171e+003,3.766833e+001
1.072135e+003,3.653748e+001
1.073099e+003,3.213513e+001
1.074063e+003,2.883801e+001
1.075028e+003,2.688153e+001
1.075992e+003,2.596344e+001
1.076956e+003,2.644843e+001
1.077920e+003,2.642902e+001
1.078885e+003,2.517181e+001
1.079849e+003,2.358453e+001
1.080813e+003,2.312036e+001
1.081777e+003,2.419757e+001
1.082741e+003,2.554443e+001
1.083706e+003,2.588287e+001
1.084670e+003,2.595721e+001
1.085634e+003,2.658484e+001
1.086598e+003,2.720850e+001
1.087563e+003,2.644415e+001
1.088527e+003,2.389380e+001
1.089491e+003,2.147760e+001
1.090455e+003,2.251111e+001
1.091420e+003,2.710736e+001
1.092384e+003,3.052753e+001
1.093348e+003,3.297449e+001
1.094312e+003,3.334576e+001
1.095276e+003,2.935419e+001
1.096241e+003,2.337830e+001
1.097205e+003,2.265991e+001
1.098169e+003,3.003009e+001
1.099133e+003,3.578229e+001
1.100098e+003,3.574939e+001
1.101062e+003,3.403271e+001
1.102026e+003,3.227478e+001
1.102990e+003,3.113123e+001
1.103955e+003,3.083594e+001
1.104919e+003,3.144934e+001
1.105883e+003,3.300366e+001
1.106847e+003,3.635083e+001
1.107812e+003,4.134662e+001
1.108776e+003,4.332947e+001
1.109740e+003,4.118945e+001
1.110704e+003,3.795807e+001
1.111668e+003,3.529944e+001
1.112633e+003,3.376215e+001
1.113597e+003,3.484222e+001
1.114561e+003,3.951392e+001
1.115525e+003,4.398700e+001
1.116490e+003,4.693488e+001
1.117454e+003,4.932147e+001
1.118418e+003,5.218787e+001
1.119382e+003,5.554242e+001
1.120347e+003,5.855774e+001
1.121311e+003,6.037164e+001
1.122275e+003,6.091376e+001
1.123239e+003,6.133691e+001
1.124203e+003,6.210535e+001
1.125168e+003,6.159174e+001
1.126132e+003,5.886798e+001
1.127096e+003,5.735596e+001
1.128060e+003,5.971796e+001
1.129025e+003,6.518079e+001
1.129989e+003,7.126599e+001
1.130953e+003,7.922742e+001
1.131917e+003,8.389252e+001
1.132882e+003,8.075134e+001
1.133846e+003,7.784332e+001
1.134810e+003,8.082281e+001
1.135774e+003,8.820050e+001
1.136739e+003,9.499847e+001
1.137703e+003,9.839551e+001
1.138667e+003,1.008042e+002
1.139631e+003,1.066837e+002
1.140595e+003,1.156826e+002
1.141560e+003,1.244188e+002
1.142524e+003,1.325921e+002
1.143488e+003,1.424446e+002
1.144452e+003,1.549539e+002
1.145417e+003,1.701624e+002
1.146381e+003,1.885309e+002
1.147345e+003,2.108982e+002
1.148309e+003,2.338598e+002
1.149274e+003,2.570129e+002
1.150238e+003,2.805398e+002
1.151202e+003,3.064951e+002
1.152166e+003,3.329247e+002
1.153130e+003,3.563400e+002
1.154095e+003,3.746515e+002
1.155059e+003,3.880421e+002
1.156023e+003,3.978289e+002
1.156987e+003,4.035199e+002
1.157952e+003,4.032007e+002
1.158916e+003,3.977915e+002
1.159880e+003,3.872407e+002
1.160844e+003,3.683498e+002
1.161809e+003,3.435049e+002
1.162773e+003,3.195697e+002
1.163737e+003,2.969559e+002
1.164701e+003,2.737618e+002
1.165666e+003,2.457954e+002
1.166630e+003,2.218933e+002
1.167594e+003,2.067081e+002
1.168558e+003,1.969099e+002
1.169522e+003,1.880053e+002
1.170487e+003,1.785559e+002
1.171451e+003,1.706606e+002
1.172415e+003,1.667019e+002
1.173379e+003,1.659444e+002
1.174344e+003,1.657728e+002
1.175308e+003,1.666829e+002
1.176272e+003,1.650482e+002
1.177236e+003,1.575762e+002
1.178201e+003,1.489316e+002
1.179165e+003,1.460922e+002
1.180129e+003,1.488159e+002
1.181093e+003,1.464313e+002
1.182057e+003,1.315392e+002
1.183022e+003,1.196718e+002
1.183986e+003,1.185873e+002
1.184950e+003,1.214861e+002
1.185914e+003,1.218605e+002
1.186879e+003,1.192710e+002
1.187843e+003,1.176003e+002
1.188807e+003,1.198950e+002
1.189771e+003,1.246915e+002
1.190736e+003,1.283344e+002
1.191700e+003,1.306864e+002
1.192664e+003,1.324857e+002
1.193628e+003,1.341271e+002
1.194593e+003,1.353854e+002
1.195557e+003,1.362017e+002
1.196521e+003,1.363511e+002
1.197485e+003,1.355957e+002
1.198449e+003,1.346172e+002
1.199414e+003,1.306714e+002
1.200378e+003,1.195944e+002
1.201342e+003,1.079149e+002
1.202306e+003,9.840942e+001
1.203271e+003,9.157941e+001
1.204235e+003,8.807996e+001
1.205199e+003,8.799335e+001
1.206163e+003,8.945215e+001
1.207128e+003,8.937628e+001
1.208092e+003,8.778766e+001
1.209056e+003,8.325446e+001
1.210020e+003,7.409802e+001
1.210984e+003,6.597729e+001
1.211949e+003,6.120404e+001
1.212913e+003,5.766449e+001
1.213877e+003,5.257678e+001
1.214841e+003,4.593689e+001
1.215806e+003,4.038007e+001
1.216770e+003,3.730585e+001
1.217734e+003,3.475836e+001
1.218698e+003,3.034802e+001
1.219663e+003,2.575702e+001
1.220627e+003,2.335645e+001
1.221591e+003,2.337732e+001
1.222555e+003,2.434583e+001
1.223520e+003,2.502399e+001
1.224484e+003,2.548206e+001
1.225448e+003,2.522473e+001
1.226412e+003,2.434119e+001
1.227376e+003,2.203094e+001
1.228341e+003,1.551453e+001
1.229305e+003,1.041675e+001
1.230269e+003,1.132471e+001
1.231233e+003,1.535193e+001
1.232198e+003,1.624146e+001
1.233162e+003,1.241437e+001
1.234126e+003,9.066101e+000
1.235090e+003,1.016815e+001
1.236055e+003,1.276752e+001
1.237019e+003,1.392523e+001
1.237983e+003,1.378430e+001
1.238947e+003,1.353748e+001
1.239911e+003,1.388147e+001
1.240876e+003,1.384375e+001
1.241840e+003,1.126746e+001
1.242804e+003,5.816406e+000
1.243768e+003,4.408142e+000
1.244733e+003,1.215668e+001
1.245697e+003,1.730457e+001
1.246661e+003,1.692920e+001
1.247625e+003,1.473767e+001
1.248590e+003,1.258606e+001
1.249554e+003,1.170813e+001
1.250518e+003,1.456329e+001
1.251482e+003,2.246118e+001
1.252447e+003,2.949561e+001
1.253411e+003,2.714551e+001
1.254375e+003,2.017310e+001
1.255339e+003,1.868542e+001
1.256303e+003,2.313348e+001
1.257268e+003,2.828656e+001
1.258232e+003,3.102411e+001
1.259196e+003,3.190881e+001
1.260160e+003,3.231738e+001
1.261125e+003,3.223944e+001
1.262089e+003,3.423450e+001
1.263053e+003,4.067181e+001
1.264017e+003,4.572382e+001
1.264982e+003,4.771680e+001
1.265946e+003,4.831317e+001
1.266910e+003,4.931659e+001
1.267874e+003,5.060461e+001
1.268839e+003,5.046527e+001
1.269803e+003,4.776044e+001
1.270767e+003,4.404517e+001
1.271731e+003,4.266534e+001
1.272695e+003,4.366064e+001
1.273660e+003,4.267767e+001
1.274624e+003,3.859918e+001
1.275588e+003,3.339648e+001
1.276552e+003,2.757751e+001
1.277517e+003,2.229810e+001
1.278481e+003,1.930713e+001
1.279445e+003,1.864978e+001
1.280409e+003,1.897565e+001
1.281374e+003,2.114893e+001
1.282338e+003,2.260095e+001
1.283302e+003,2.145038e+001
1.284266e+003,1.916394e+001
1.285230e+003,1.700281e+001
1.286195e+003,1.543988e+001
1.287159e+003,1.517542e+001
1.288123e+003,1.698462e+001
1.289087e+003,1.963434e+001
1.290052e+003,1.833087e+001
1.291016e+003,1.063934e+001
1.291980e+003,6.680420e+000
1.292944e+003,8.703003e+000
1.293909e+003,1.042792e+001
1.294873e+003,9.211182e+000
1.295837e+003,7.108521e+000
1.296801e+003,7.148926e+000
1.297766e+003,9.573914e+000
1.298730e+003,1.158435e+001
1.299694e+003,1.136963e+001
1.300658e+003,1.017944e+001
1.301622e+003,9.076355e+000
1.302587e+003,8.495117e+000
1.303551e+003,9.413452e+000
1.304515e+003,1.195673e+001
1.305479e+003,1.445850e+001
1.306444e+003,1.537738e+001
1.307408e+003,1.489240e+001
1.308372e+003,1.399927e+001
1.309336e+003,1.212933e+001
1.310301e+003,1.154694e+001
1.311265e+003,1.471936e+001
1.312229e+003,1.671906e+001
1.313193e+003,1.476031e+001
1.314157e+003,1.162390e+001
1.315122e+003,1.088660e+001
1.316086e+003,1.222028e+001
1.317050e+003,1.161646e+001
1.318014e+003,6.400085e+000
1.318979e+003,2.009277e-001
1.319943e+003,-3.776245e-001
1.320907e+003,4.235901e+000
1.321871e+003,7.435059e+000
1.322836e+003,7.891479e+000
1.323800e+003,8.848389e+000
1.324764e+003,1.372119e+001
1.325728e+003,1.946539e+001
1.326693e+003,1.997668e+001
1.327657e+003,1.477197e+001
1.328621e+003,1.026471e+001
1.329585e+003,8.717834e+000
1.330549e+003,9.559814e+000
1.331514e+003,1.251648e+001
1.332478e+003,1.551147e+001
1.333442e+003,1.722369e+001
1.334406e+003,1.758264e+001
1.335371e+003,1.657379e+001
1.336335e+003,1.425250e+001
1.337299e+003,1.151459e+001
1.338263e+003,9.839661e+000
1.339228e+003,9.171387e+000
1.340192e+003,1.035718e+001
1.341156e+003,1.621021e+001
1.342120e+003,1.964264e+001
1.343084e+003,1.769299e+001
1.344049e+003,1.397150e+001
1.345013e+003,1.088159e+001
1.345977e+003,9.239624e+000
1.346941e+003,1.040356e+001
1.347906e+003,1.504309e+001
1.348870e+003,1.891968e+001
1.349834e+003,1.688977e+001
1.350798e+003,1.213977e+001
1.351763e+003,1.213116e+001
1.352727e+003,1.597040e+001
1.353691e+003,1.724768e+001
1.354655e+003,1.312842e+001
1.355620e+003,7.745911e+000
1.356584e+003,6.120728e+000
1.357548e+003,7.962280e+000
1.358512e+003,9.357605e+000
1.359476e+003,9.222961e+000
1.360441e+003,9.721497e+000
1.361405e+003,1.336554e+001
1.362369e+003,1.608783e+001
1.363333e+003,1.549365e+001
1.364298e+003,1.294617e+001
1.365262e+003,1.010175e+001
1.366226e+003,7.702393e+000
1.367190e+003,6.149780e+000
1.368155e+003,5.820313e+000
1.369119e+003,6.288757e+000
1.370083e+003,6.271545e+000
1.371047e+003,5.694946e+000
1.372011e+003,5.994080e+000
1.372976e+003,7.399475e+000
1.373940e+003,8.420898e+000
1.374904e+003,7.973389e+000
1.375868e+003,7.555054e+000
1.376833e+003,9.621155e+000
1.377797e+003,1.371948e+001
1.378761e+003,1.606183e+001
1.379725e+003,1.490350e+001
1.380690e+003,1.240930e+001
1.381654e+003,9.386780e+000
1.382618e+003,7.334656e+000
1.383582e+003,9.303467e+000
1.384547e+003,1.478333e+001
1.385511e+003,1.925415e+001
1.386475e+003,2.012885e+001
1.387439e+003,1.932129e+001
1.388403e+003,2.026074e+001
1.389368e+003,2.288892e+001
1.390332e+003,2.257483e+001
1.391296e+003,1.689874e+001
1.392260e+003,1.355975e+001
1.393225e+003,1.540613e+001
1.394189e+003,1.833130e+001
1.395153e+003,2.086237e+001
1.396117e+003,2.259222e+001
1.397082e+003,2.347266e+001
1.398046e+003,2.352545e+001
1.399010e+003,2.224280e+001
1.399974e+003,1.878845e+001
1.400938e+003,1.422388e+001
1.401903e+003,1.353497e+001
1.402867e+003,1.932361e+001
1.403831e+003,2.281726e+001
1.404795e+003,2.109393e+001
1.405760e+003,2.005231e+001
1.406724e+003,2.194196e+001
1.407688e+003,2.397589e+001
1.408652e+003,2.341284e+001
1.409617e+003,2.090771e+001
1.410581e+003,1.911682e+001
1.411545e+003,1.918591e+001
1.412509e+003,1.953833e+001
1.413474e+003,1.822168e+001
1.414438e+003,1.577429e+001
1.415402e+003,1.381024e+001
1.416366e+003,1.272461e+001
1.417330e+003,1.245422e+001
1.418295e+003,1.305420e+001
1.419259e+003,1.421283e+001
1.420223e+003,1.559058e+001
1.421187e+003,1.682526e+001
1.422152e+003,1.698834e+001
1.423116e+003,1.570239e+001
1.424080e+003,1.618756e+001
1.425044e+003,2.120563e+001
1.426009e+003,2.526392e+001
1.426973e+003,2.527930e+001
1.427937e+003,2.350385e+001
1.428901e+003,2.284094e+001
1.429865e+003,2.370819e+001
1.430830e+003,2.447113e+001
1.431794e+003,2.387250e+001
1.432758e+003,2.281445e+001
1.433722e+003,2.372040e+001
1.434687e+003,2.745007e+001
1.435651e+003,3.033929e+001
1.436615e+003,2.932019e+001
1.437579e+003,2.911780e+001
1.438544e+003,3.100214e+001
1.439508e+003,3.331836e+001
1.440472e+003,3.563745e+001
1.441436e+003,3.788507e+001
1.442401e+003,4.011096e+001
1.443365e+003,4.201410e+001
1.444329e+003,4.189441e+001
1.445293e+003,3.814886e+001
1.446257e+003,3.321094e+001
1.447222e+003,3.182294e+001
1.448186e+003,3.318427e+001
1.449150e+003,3.331818e+001
1.450114e+003,3.150354e+001
1.451079e+003,2.945062e+001
1.452043e+003,2.807355e+001
1.453007e+003,2.749194e+001
1.453971e+003,2.791095e+001
1.454936e+003,2.895154e+001
1.455900e+003,2.893286e+001
1.456864e+003,2.717340e+001
1.457828e+003,2.636859e+001
1.458792e+003,2.907391e+001
1.459757e+003,3.190710e+001
1.460721e+003,3.180493e+001
1.461685e+003,2.979834e+001
1.462649e+003,2.829114e+001
1.463614e+003,2.808575e+001
1.464578e+003,2.830457e+001
1.465542e+003,2.799738e+001
1.466506e+003,2.728522e+001
1.467471e+003,2.707880e+001
1.468435e+003,2.798389e+001
1.469399e+003,2.889624e+001
1.470363e+003,2.880890e+001
1.471328e+003,2.902472e+001
1.472292e+003,2.982892e+001
1.473256e+003,3.017255e+001
1.474220e+003,2.932855e+001
1.475184e+003,2.841199e+001
1.476149e+003,2.926154e+001
1.477113e+003,3.197327e+001
1.478077e+003,3.466687e+001
1.479041e+003,3.586163e+001
1.480006e+003,3.619269e+001
1.480970e+003,3.676074e+001
1.481934e+003,3.700366e+001
1.482898e+003,3.795654e+001
1.483863e+003,4.047308e+001
1.484827e+003,4.220880e+001
1.485791e+003,4.228467e+001
1.486755e+003,4.228821e+001
1.487719e+003,4.295819e+001
1.488684e+003,4.441309e+001
1.489648e+003,4.740875e+001
1.490612e+003,5.232617e+001
1.491576e+003,5.748511e+001
1.492541e+003,6.141492e+001
1.493505e+003,6.432941e+001
1.494469e+003,6.617261e+001
1.495433e+003,6.683795e+001
1.496398e+003,6.888434e+001
1.497362e+003,7.327209e+001
1.498326e+003,7.932184e+001
1.499290e+003,8.729156e+001
1.500255e+003,9.612952e+001
1.501219e+003,1.040758e+002
1.502183e+003,1.112380e+002
1.503147e+003,1.190482e+002
1.504111e+003,1.276699e+002
1.505076e+003,1.376655e+002
1.506040e+003,1.492748e+002
1.507004e+003,1.628464e+002
1.507968e+003,1.784091e+002
1.508933e+003,1.960059e+002
1.509897e+003,2.156887e+002
1.510861e+003,2.381597e+002
1.511825e+003,2.642251e+002
1.512790e+003,2.942984e+002
1.513754e+003,3.270736e+002
1.514718e+003,3.617308e+002
1.515682e+003,3.977890e+002
1.516646e+003,4.302964e+002
1.517611e+003,4.581693e+002
1.518575e+003,4.854722e+002
1.519539e+003,5.183233e+002
1.520503e+003,5.467920e+002
1.521468e+003,5.657067e+002
1.522432e+003,5.764426e+002
1.523396e+003,5.812876e+002
1.524360e+003,5.806570e+002
1.525325e+003,5.737465e+002
1.526289e+003,5.601646e+002
1.527253e+003,5.413966e+002
1.528217e+003,5.197752e+002
1.529182e+003,4.956976e+002
1.530146e+003,4.677769e+002
1.531110e+003,4.346749e+002
1.532074e+003,3.990758e+002
1.533039e+003,3.596321e+002
1.534003e+003,3.179096e+002
1.534967e+003,2.722938e+002
1.535931e+003,2.282115e+002
1.536896e+003,1.906548e+002
1.537860e+003,1.604588e+002
1.538824e+003,1.366736e+002
1.539788e+003,1.183261e+002
1.540752e+003,1.031307e+002
1.541717e+003,8.822705e+001
1.542681e+003,7.452936e+001
1.543645e+003,6.618158e+001
1.544609e+003,6.637842e+001
1.545573e+003,6.525714e+001
1.546538e+003,6.172772e+001
1.547502e+003,5.706274e+001
1.548466e+003,5.071545e+001
1.549430e+003,4.540930e+001
1.550395e+003,4.406628e+001
1.551359e+003,4.557117e+001
1.552323e+003,4.702661e+001
1.553287e+003,4.736914e+001
1.554252e+003,4.644672e+001
1.555216e+003,4.389459e+001
1.556180e+003,4.036365e+001
1.557144e+003,3.729175e+001
1.558109e+003,3.488721e+001
1.559073e+003,3.328082e+001
1.560037e+003,3.198077e+001
1.561001e+003,3.106354e+001
1.561966e+003,3.218109e+001
1.562930e+003,3.340851e+001
1.563894e+003,3.197308e+001
1.564858e+003,2.889142e+001
1.565823e+003,2.711859e+001
1.566787e+003,2.715155e+001
1.567751e+003,2.764063e+001
1.568715e+003,2.806952e+001
1.569679e+003,2.854559e+001
1.570644e+003,2.900824e+001
1.571608e+003,2.915802e+001
1.572572e+003,2.899469e+001
1.573536e+003,2.879919e+001
1.574500e+003,2.880133e+001
1.575465e+003,2.892523e+001
1.576429e+003,2.914294e+001
1.577393e+003,2.906708e+001
1.578357e+003,2.893304e+001
1.579322e+003,2.980908e+001
1.580286e+003,3.177209e+001
1.581250e+003,3.320142e+001
1.582214e+003,3.353137e+001
1.583179e+003,3.342908e+001
1.584143e+003,3.280902e+001
1.585107e+003,3.207471e+001
1.586071e+003,3.227087e+001
1.587036e+003,3.367932e+001
1.588000e+003,3.594775e+001
1.588964e+003,3.878455e+001
1.589928e+003,4.069531e+001
1.590893e+003,4.037805e+001
1.591857e+003,3.904565e+001
1.592821e+003,3.837439e+001
1.593785e+003,3.839459e+001
1.594750e+003,3.883600e+001
1.595714e+003,3.951086e+001
1.596678e+003,4.030084e+001
1.597642e+003,4.161371e+001
1.598606e+003,4.245514e+001
1.599571e+003,4.106921e+001
1.600535e+003,3.961066e+001
1.601499e+003,4.179938e+001
1.602463e+003,4.673633e+001
1.603427e+003,4.915869e+001
1.604392e+003,4.676959e+001
1.605356e+003,4.302710e+001
1.606320e+003,4.121234e+001
1.607284e+003,4.086554e+001
1.608249e+003,4.089056e+001
1.609213e+003,4.133148e+001
1.610177e+003,4.062531e+001
1.611141e+003,3.807574e+001
1.612106e+003,3.550110e+001
1.613070e+003,3.321942e+001
1.614034e+003,3.168530e+001
1.614998e+003,3.166187e+001
1.615963e+003,3.250323e+001
1.616927e+003,3.297839e+001
1.617891e+003,3.285321e+001
1.618855e+003,3.278430e+001
1.619820e+003,3.303143e+001
1.620784e+003,3.281097e+001
1.621748e+003,3.159998e+001
1.622712e+003,3.013885e+001
1.623677e+003,2.950055e+001
1.624641e+003,3.005200e+001
1.625605e+003,2.943475e+001
1.626569e+003,2.446240e+001
1.627533e+003,2.058911e+001
1.628498e+003,2.168750e+001
1.629462e+003,2.480420e+001
1.630426e+003,2.847809e+001
1.631390e+003,3.167426e+001
1.632354e+003,3.246600e+001
1.633319e+003,3.061206e+001
1.634283e+003,2.858099e+001
1.635247e+003,2.823041e+001
1.636211e+003,2.836475e+001
1.637176e+003,2.672430e+001
1.638140e+003,2.368903e+001
1.639104e+003,2.230389e+001
1.640068e+003,2.298749e+001
1.641033e+003,2.315509e+001
1.641997e+003,2.129553e+001
1.642961e+003,2.052863e+001
1.643925e+003,2.360925e+001
1.644890e+003,2.736084e+001
1.645854e+003,2.823340e+001
1.646818e+003,2.697748e+001
1.647782e+003,2.655676e+001
1.648747e+003,2.777759e+001
1.649711e+003,2.854962e+001
1.650675e+003,2.705884e+001
1.651639e+003,2.507825e+001
1.652604e+003,2.650494e+001
1.653568e+003,3.089252e+001
1.654532e+003,3.175702e+001
1.655496e+003,2.783441e+001
1.656460e+003,2.370178e+001
1.657425e+003,1.965314e+001
1.658389e+003,1.742761e+001
1.659353e+003,1.916919e+001
1.660317e+003,2.204419e+001
1.661281e+003,2.274402e+001
1.662246e+003,2.170398e+001
1.663210e+003,2.175623e+001
1.664174e+003,2.389380e+001
1.665138e+003,2.520752e+001
1.666103e+003,2.235413e+001
1.667067e+003,1.797296e+001
1.668031e+003,1.854266e+001
1.668995e+003,2.366400e+001
1.669960e+003,2.573529e+001
1.670924e+003,2.371399e+001
1.671888e+003,2.129138e+001
1.672852e+003,1.922937e+001
1.673817e+003,1.704944e+001
1.674781e+003,1.276111e+001
1.675745e+003,9.332886e+000
1.676709e+003,1.145612e+001
1.677674e+003,1.730127e+001
1.678638e+003,2.067358e+001
1.679602e+003,1.964972e+001
1.680566e+003,1.700061e+001
1.681531e+003,1.446143e+001
1.682495e+003,1.265515e+001
1.683459e+003,1.264838e+001
1.684423e+003,1.383051e+001
1.685387e+003,1.375305e+001
1.686352e+003,1.220978e+001
1.687316e+003,1.045953e+001
1.688280e+003,8.449341e+000
1.689244e+003,7.133362e+000
1.690208e+003,7.600464e+000
1.691173e+003,8.672119e+000
1.692137e+003,9.558167e+000
1.693101e+003,1.038879e+001
1.694065e+003,1.047119e+001
1.695030e+003,9.191772e+000
1.695994e+003,8.749329e+000
1.696958e+003,1.142389e+001
1.697922e+003,1.494946e+001
1.698887e+003,1.682727e+001
1.699851e+003,1.730786e+001
1.700815e+003,1.633026e+001
1.701779e+003,1.376318e+001
1.702744e+003,1.195685e+001
1.703708e+003,1.233685e+001
1.704672e+003,1.276935e+001
1.705636e+003,1.070856e+001
1.706601e+003,7.689331e+000
1.707565e+003,7.353516e+000
1.708529e+003,8.849060e+000
1.709493e+003,7.978882e+000
1.710458e+003,3.793518e+000
1.711422e+003,1.093811e+000
1.712386e+003,2.960999e+000
1.713350e+003,6.312378e+000
1.714314e+003,9.250488e+000
1.715279e+003,1.099963e+001
1.716243e+003,1.033844e+001
1.717207e+003,7.629761e+000
1.718171e+003,4.204590e+000
1.719135e+003,5.285034e-001
1.720100e+003,-1.296021e+000
1.721064e+003,4.423828e-001
1.722028e+003,3.234680e+000
1.722992e+003,3.843262e+000
1.723957e+003,3.064758e+000
1.724921e+003,2.942078e+000
1.725885e+003,2.807434e+000
1.726849e+003,2.823425e+000
1.727814e+003,4.433838e+000
1.728778e+003,5.830078e+000
1.729742e+003,5.509521e+000
1.730706e+003,4.982727e+000
1.731671e+003,5.598145e+000
1.732635e+003,6.435364e+000
1.733599e+003,6.421387e+000
1.734563e+003,5.721436e+000
1.735528e+003,4.577454e+000
1.736492e+003,2.930359e+000
1.737456e+003,1.221680e+000
1.738420e+003,-1.152344e-001
1.739385e+003,-1.118225e+000
1.740349e+003,-4.882202e-001
1.741313e+003,2.903809e+000
1.742277e+003,3.734741e+000
1.743241e+003,-8.139038e-001
1.744206e+003,-2.672668e+000
1.745170e+003,2.002136e+000
1.746134e+003,5.868958e+000
1.747098e+003,3.166260e+000
1.748063e+003,-1.321899e+000
1.749027e+003,-1.380005e+000
1.749991e+003,2.128906e+000
1.750955e+003,4.830505e+000
1.751919e+003,4.984802e+000
1.752884e+003,3.338013e+000
1.753848e+003,4.602661e-001
1.754812e+003,-2.649292e+000
1.755776e+003,-3.438843e+000
1.756741e+003,-1.669922e+000
1.757705e+003,-1.864990e+000
1.758669e+003,-5.740540e+000
1.759633e+003,-7.494324e+000
1.760598e+003,-4.786560e+000
1.761562e+003,-3.080872e+000
1.762526e+003,-5.043213e+000
1.763490e+003,-6.710815e+000
1.764455e+003,-4.435303e+000
1.765419e+003,-2.949219e-001
1.766383e+003,1.961243e+000
1.767347e+003,1.879211e+000
1.768312e+003,1.533081e+000
1.769276e+003,1.782654e+000
1.770240e+003,1.982788e+000
1.771204e+003,2.383179e+000
1.772168e+003,2.626648e+000
1.773133e+003,2.901611e-001
1.774097e+003,-4.234619e+000
1.775061e+003,-6.791260e+000
1.776025e+003,-7.333923e+000
1.776990e+003,-6.283264e+000
1.777954e+003,-2.502625e+000
1.778918e+003,1.454895e+000
1.779882e+003,3.669495e+000
1.780846e+003,4.297974e+000
1.781811e+003,3.797119e+000
1.782775e+003,2.501221e+000
1.783739e+003,8.385010e-001
1.784703e+003,-1.143616e+000
1.785668e+003,-1.646912e+000
1.786632e+003,1.021912e+000
1.787596e+003,3.081787e+000
1.788560e+003,1.500549e+000
1.789525e+003,-1.059570e+000
1.790489e+003,-1.549683e+000
1.791453e+003,-3.936157e-001
1.792417e+003,1.517883e+000
1.793382e+003,3.723145e+000
1.794346e+003,3.889160e+000
1.795310e+003,5.399780e-001
1.796274e+003,-3.098145e+000
1.797239e+003,-2.937012e+000
1.798203e+003,2.302246e-001
1.799167e+003,2.411133e+000
1.800131e+003,2.798523e+000
1.801095e+003,1.612000e+000
1.802060e+003,-2.391907e+000
1.803024e+003,-4.185486e+000
1.803988e+003,-2.579712e+000
1.804952e+003,-1.489868e-001
1.805917e+003,3.109375e+000
1.806881e+003,5.550598e+000
1.807845e+003,5.353455e+000
1.808809e+003,3.509033e+000
1.809773e+003,1.519836e+000
1.810738e+003,1.871948e-001
1.811702e+003,9.112549e-001
1.812666e+003,4.432800e+000
1.813630e+003,7.944885e+000
1.814595e+003,7.511963e+000
1.815559e+003,4.018555e+000
1.816523e+003,1.333191e+000
1.817487e+003,-4.819336e-001
1.818452e+003,-7.778931e-001
1.819416e+003,1.404114e+000
1.820380e+003,3.654053e+000
1.821344e+003,6.046021e+000
1.822309e+003,6.450378e+000
1.823273e+003,1.104004e+000
1.824237e+003,-4.172668e+000
1.825201e+003,-2.198120e+000
1.826166e+003,4.203918e+000
1.827130e+003,7.305542e+000
1.828094e+003,5.636536e+000
1.829058e+003,2.515259e+000
1.830022e+003,-1.100464e+000
1.830987e+003,-3.702393e+000
1.831951e+003,-3.555969e+000
1.832915e+003,-1.978821e+000
1.833879e+003,-5.424805e-001
1.834844e+003,5.414429e-001
1.835808e+003,1.023804e+000
1.836772e+003,9.223633e-001
1.837736e+003,1.828003e-001
1.838700e+003,-1.445801e+000
1.839665e+003,-3.177734e+000
1.840629e+003,-4.128662e+000
1.841593e+003,-4.426697e+000
1.842557e+003,-4.742615e+000
1.843522e+003,-5.084106e+000
1.844486e+003,-4.191162e+000
1.845450e+003,-1.844482e-001
1.846414e+003,2.455383e+000
1.847379e+003,1.689392e+000
1.848343e+003,9.690552e-001
1.849307e+003,2.406128e+000
1.850271e+003,3.557617e+000
1.851236e+003,2.170959e+000
1.852200e+003,8.264160e-002
1.853164e+003,-2.215576e-002
1.854128e+003,1.015503e+000
1.855093e+003,-4.327393e-002
1.856057e+003,-3.745911e+000
1.857021e+003,-6.429565e+000
1.857985e+003,-5.157349e+000
1.858949e+003,-2.002686e+000
1.859914e+003,-2.164307e-001
1.860878e+003,5.276489e-001
1.861842e+003,1.396179e+000
1.862806e+003,2.251343e+000
1.863771e+003,3.241943e+000
1.864735e+003,4.484924e+000
1.865699e+003,4.449463e+000
1.866663e+003,2.078796e+000
1.867627e+003,-2.464600e-001
1.868592e+003,-4.536743e-001
1.869556e+003,-1.580811e-002
1.870520e+003,-1.322937e+000
1.871484e+003,-4.038086e+000
1.872449e+003,-5.629028e+000
1.873413e+003,-4.773743e+000
1.874377e+003,-2.256042e+000
1.875341e+003,2.053223e+000
1.876306e+003,5.470642e+000
1.877270e+003,6.252625e+000
1.878234e+003,5.479065e+000
1.879198e+003,3.287781e+000
1.880163e+003,1.162659e+000
1.881127e+003,2.640259e+000
1.882091e+003,6.796570e+000
1.883055e+003,7.704224e+000
1.884020e+003,3.252502e+000
1.884984e+003,-1.327393e+000
1.885948e+003,-1.230652e+000
1.886912e+003,1.524292e+000
1.887876e+003,3.132629e+000
1.888841e+003,3.665161e+000
1.889805e+003,3.062805e+000
1.890769e+003,8.550415e-001
1.891733e+003,1.402588e-001
1.892698e+003,1.419495e+000
1.893662e+003,2.897766e+000
1.894626e+003,4.535156e+000
1.895590e+003,5.762695e+000
1.896554e+003,5.743164e+000
1.897519e+003,5.842041e+000
1.898483e+003,7.857971e+000
1.899447e+003,1.075665e+001
1.900411e+003,1.244202e+001
1.901376e+003,1.280023e+001
1.902340e+003,1.057123e+001
1.903304e+003,2.925110e+000
1.904268e+003,-3.879028e+000
1.905233e+003,-5.834717e+000
1.906197e+003,-4.998474e+000
1.907161e+003,-2.410278e+000
1.908125e+003,1.016296e+000
1.909090e+003,3.832581e+000
1.910054e+003,5.575317e+000
1.911018e+003,6.274475e+000
1.911982e+003,6.244080e+000
1.912947e+003,5.920044e+000
1.913911e+003,5.498352e+000
1.914875e+003,5.941406e+000
1.915839e+003,8.878906e+000
1.916803e+003,1.314618e+001
1.917768e+003,1.426385e+001
1.918732e+003,1.201318e+001
1.919696e+003,9.918884e+000
1.920660e+003,8.038574e+000
1.921625e+003,7.084229e+000
1.922589e+003,7.362427e+000
1.923553e+003,7.752075e+000
1.924517e+003,8.195618e+000
1.925481e+003,8.137390e+000
1.926446e+003,6.382507e+000
1.927410e+003,4.079590e+000
1.928374e+003,3.389771e+000
1.929338e+003,4.165771e+000
1.930303e+003,5.098328e+000
1.931267e+003,6.407043e+000
1.932231e+003,8.191406e+000
1.933195e+003,1.085724e+001
1.934160e+003,1.268518e+001
1.935124e+003,1.143835e+001
1.936088e+003,9.201355e+000
1.937052e+003,9.413330e+000
1.938017e+003,1.113281e+001
1.938981e+003,1.108331e+001
1.939945e+003,9.017761e+000
1.940909e+003,7.288513e+000
1.941874e+003,6.871948e+000
1.942838e+003,6.872192e+000
1.943802e+003,6.857788e+000
1.944766e+003,6.688354e+000
1.945730e+003,4.752014e+000
1.946695e+003,1.310242e+000
1.947659e+003,1.656616e+000
1.948623e+003,6.268127e+000
1.949587e+003,7.469116e+000
1.950552e+003,3.398315e+000
1.951516e+003,1.297913e+000
1.952480e+003,4.157104e+000
1.953444e+003,8.245422e+000
1.954408e+003,1.157880e+001
1.955373e+003,1.360553e+001
1.956337e+003,1.373187e+001
1.957301e+003,1.275433e+001
1.958265e+003,1.158673e+001
1.959230e+003,1.007690e+001
1.960194e+003,1.044635e+001
1.961158e+003,1.486206e+001
1.962122e+003,1.691034e+001
1.963087e+003,1.368353e+001
1.964051e+003,9.438416e+000
1.965015e+003,5.507568e+000
1.965979e+003,3.487061e+000
1.966944e+003,5.566345e+000
1.967908e+003,9.487976e+000
1.968872e+003,1.172168e+001
1.969836e+003,1.184082e+001
1.970801e+003,1.086206e+001
1.971765e+003,9.465820e+000
1.972729e+003,9.705505e+000
1.973693e+003,1.392853e+001
1.974657e+003,1.874353e+001
1.975622e+003,1.815088e+001
1.976586e+003,1.418951e+001
1.977550e+003,1.269800e+001
1.978514e+003,1.369458e+001
1.979479e+003,1.631470e+001
1.980443e+003,2.004968e+001
1.981407e+003,2.036829e+001
1.982371e+003,1.554120e+001
1.983335e+003,1.120959e+001
1.984300e+003,1.145435e+001
1.985264e+003,1.377264e+001
1.986228e+003,1.475195e+001
1.987192e+003,1.455780e+001
1.988157e+003,1.410596e+001
1.989121e+003,1.363324e+001
1.990085e+003,1.246912e+001
1.991049e+003,9.802551e+000
1.992014e+003,8.583801e+000
1.992978e+003,9.838501e+000
1.993942e+003,1.119922e+001
1.994906e+003,1.212231e+001
1.995871e+003,1.263684e+001
1.996835e+003,1.175745e+001
1.997799e+003,1.135059e+001
1.998763e+003,1.532941e+001
1.999728e+003,2.202942e+001
