5.003444e+002,8.170561e+001
5.013087e+002,7.764456e+001
5.022729e+002,7.767403e+001
5.032371e+002,8.052859e+001
5.042014e+002,8.093591e+001
5.051656e+002,7.927640e+001
5.061298e+002,7.704742e+001
5.070941e+002,7.553212e+001
5.080583e+002,7.480823e+001
5.090225e+002,7.406795e+001
5.099868e+002,7.336873e+001
5.109510e+002,7.259727e+001
5.119152e+002,7.145656e+001
5.128795e+002,6.988300e+001
5.138437e+002,6.914677e+001
5.148079e+002,7.062289e+001
5.157722e+002,7.220805e+001
5.167364e+002,7.323050e+001
5.177006e+002,7.342966e+001
5.186649e+002,7.279631e+001
5.196291e+002,7.072064e+001
5.205933e+002,6.840999e+001
5.215576e+002,6.709102e+001
5.225218e+002,6.678287e+001
5.234860e+002,6.700053e+001
5.244503e+002,6.699384e+001
5.254145e+002,6.680443e+001
5.263787e+002,6.692334e+001
5.273430e+002,6.752298e+001
5.283072e+002,6.831473e+001
5.292714e+002,6.887558e+001
5.302357e+002,6.901170e+001
5.311999e+002,6.890022e+001
5.321641e+002,6.904243e+001
5.331284e+002,6.895497e+001
5.340926e+002,6.805704e+001
5.350568e+002,6.602512e+001
5.360211e+002,6.374219e+001
5.369853e+002,6.210872e+001
5.379495e+002,6.081744e+001
5.389138e+002,5.952681e+001
5.398780e+002,5.811813e+001
5.408422e+002,5.681448e+001
5.418065e+002,5.639792e+001
5.427707e+002,5.674855e+001
5.437349e+002,5.720560e+001
5.446992e+002,5.767960e+001
5.456634e+002,5.806731e+001
5.466276e+002,5.803230e+001
5.475919e+002,5.676253e+001
5.485561e+002,5.620178e+001
5.495203e+002,5.690443e+001
5.504846e+002,5.810138e+001
5.514488e+002,5.875148e+001
5.524130e+002,5.848378e+001
5.533773e+002,5.778041e+001
5.543415e+002,5.658301e+001
5.553057e+002,5.536401e+001
5.562700e+002,5.471245e+001
5.572342e+002,5.496294e+001
5.581984e+002,5.551439e+001
5.591627e+002,5.473454e+001
5.601269e+002,5.323700e+001
5.610911e+002,5.218979e+001
5.620554e+002,5.218608e+001
5.630196e+002,5.304712e+001
5.639838e+002,5.354178e+001
5.649481e+002,5.384431e+001
5.659123e+002,5.356479e+001
5.668765e+002,5.217212e+001
5.678408e+002,5.025815e+001
5.688050e+002,4.943484e+001
5.697692e+002,5.111209e+001
5.707335e+002,5.216719e+001
5.716977e+002,5.130620e+001
5.726619e+002,4.950121e+001
5.736262e+002,4.816681e+001
5.745904e+002,4.837206e+001
5.755546e+002,4.899876e+001
5.765189e+002,4.780618e+001
5.774831e+002,4.560660e+001
5.784473e+002,4.405743e+001
5.794116e+002,4.432661e+001
5.803758e+002,4.624600e+001
5.813400e+002,4.672092e+001
5.823043e+002,4.521635e+001
5.832685e+002,4.377286e+001
5.842327e+002,4.310196e+001
5.851970e+002,4.320277e+001
5.861612e+002,4.364058e+001
5.871254e+002,4.464972e+001
5.880897e+002,4.557008e+001
5.890539e+002,4.650671e+001
5.900181e+002,4.716769e+001
5.909824e+002,4.704398e+001
5.919466e+002,4.556229e+001
5.929108e+002,4.385503e+001
5.938751e+002,4.307259e+001
5.948393e+002,4.291603e+001
5.958035e+002,4.304192e+001
5.967678e+002,4.319995e+001
5.977320e+002,4.338210e+001
5.986962e+002,4.309949e+001
5.996605e+002,4.225121e+001
6.006247e+002,4.136034e+001
6.015889e+002,4.065273e+001
6.025532e+002,4.013289e+001
6.035174e+002,3.965079e+001
6.044816e+002,3.912100e+001
6.054459e+002,3.877928e+001
6.064101e+002,3.856749e+001
6.073743e+002,3.857504e+001
6.083386e+002,3.911278e+001
6.093028e+002,4.082672e+001
6.102670e+002,4.212021e+001
6.112313e+002,4.153438e+001
6.121955e+002,3.995467e+001
6.131597e+002,3.841739e+001
6.141240e+002,3.764513e+001
6.150882e+002,3.755508e+001
6.160524e+002,3.812296e+001
6.170167e+002,3.927159e+001
6.179809e+002,4.028619e+001
6.189451e+002,4.085956e+001
6.199094e+002,4.093930e+001
6.208736e+002,4.049278e+001
6.218378e+002,3.851324e+001
6.228021e+002,3.740262e+001
6.237663e+002,3.790761e+001
6.247305e+002,3.930507e+001
6.256948e+002,4.041710e+001
6.266590e+002,4.072585e+001
6.276232e+002,4.057115e+001
6.285875e+002,4.006288e+001
6.295517e+002,3.954614e+001
6.305159e+002,3.936160e+001
6.314802e+002,3.966104e+001
6.324444e+002,4.023125e+001
6.334086e+002,4.087607e+001
6.343729e+002,4.155811e+001
6.353371e+002,4.170703e+001
6.363013e+002,4.102402e+001
6.372656e+002,3.971301e+001
6.382298e+002,3.858215e+001
6.391940e+002,3.774860e+001
6.401583e+002,3.690094e+001
6.411225e+002,3.620381e+001
6.420867e+002,3.560884e+001
6.430510e+002,3.485181e+001
6.440152e+002,3.356453e+001
6.449794e+002,3.283864e+001
6.459437e+002,3.402269e+001
6.469079e+002,3.535728e+001
6.478721e+002,3.518596e+001
6.488364e+002,3.313121e+001
6.498006e+002,3.065746e+001
6.507648e+002,3.063255e+001
6.517291e+002,3.209966e+001
6.526933e+002,3.267297e+001
6.536575e+002,3.184680e+001
6.546218e+002,3.055615e+001
6.555860e+002,3.069077e+001
6.565502e+002,3.360632e+001
6.575145e+002,3.492612e+001
6.584787e+002,3.361588e+001
6.594429e+002,3.178159e+001
6.604072e+002,3.106287e+001
6.613714e+002,3.176202e+001
6.623356e+002,3.271234e+001
6.632999e+002,3.386060e+001
6.642641e+002,3.456758e+001
6.652283e+002,3.438013e+001
6.661926e+002,3.342978e+001
6.671568e+002,3.220152e+001
6.681210e+002,3.105022e+001
6.690853e+002,3.016765e+001
6.700495e+002,3.013107e+001
6.710137e+002,3.089862e+001
6.719780e+002,3.181123e+001
6.729422e+002,3.215399e+001
6.739064e+002,3.176913e+001
6.748707e+002,3.149663e+001
6.758349e+002,3.135376e+001
6.767991e+002,3.122699e+001
6.777634e+002,3.121120e+001
6.787276e+002,3.132901e+001
6.796918e+002,3.133447e+001
6.806561e+002,3.061377e+001
6.816203e+002,3.019513e+001
6.825845e+002,3.073337e+001
6.835488e+002,3.179977e+001
6.845130e+002,3.268126e+001
6.854772e+002,3.285486e+001
6.864415e+002,3.269423e+001
6.874057e+002,3.306285e+001
6.883699e+002,3.363370e+001
6.893342e+002,3.362868e+001
6.902984e+002,3.255646e+001
6.912626e+002,3.074376e+001
6.922269e+002,3.025639e+001
6.931911e+002,3.289700e+001
6.941553e+002,3.467520e+001
6.951196e+002,3.463367e+001
6.960838e+002,3.362305e+001
6.970480e+002,3.324146e+001
6.980123e+002,3.447252e+001
6.989765e+002,3.467661e+001
6.999407e+002,3.158504e+001
7.009050e+002,2.806114e+001
7.018692e+002,2.654184e+001
7.028334e+002,2.773393e+001
7.037977e+002,3.010350e+001
7.047619e+002,3.179631e+001
7.057261e+002,3.275946e+001
7.066904e+002,3.226057e+001
7.076546e+002,3.017529e+001
7.086188e+002,2.794843e+001
7.095831e+002,2.797089e+001
7.105473e+002,3.129115e+001
7.115115e+002,3.347510e+001
7.124758e+002,3.482497e+001
7.134400e+002,3.500546e+001
7.144042e+002,3.307651e+001
7.153685e+002,2.919676e+001
7.163327e+002,2.653719e+001
7.172969e+002,2.774301e+001
7.182612e+002,2.949678e+001
7.192254e+002,3.102470e+001
7.201896e+002,3.194757e+001
7.211539e+002,3.177286e+001
7.221181e+002,2.991182e+001
7.230823e+002,2.740373e+001
7.240466e+002,2.735484e+001
7.250108e+002,2.924387e+001
7.259750e+002,3.075604e+001
7.269393e+002,3.034558e+001
7.279035e+002,2.825563e+001
7.288677e+002,2.732336e+001
7.298320e+002,2.907224e+001
7.307962e+002,3.051718e+001
7.317604e+002,3.133923e+001
7.327247e+002,3.183406e+001
7.336889e+002,3.242870e+001
7.346531e+002,3.325131e+001
7.356174e+002,3.343948e+001
7.365816e+002,3.225311e+001
7.375458e+002,3.088326e+001
7.385101e+002,3.033713e+001
7.394743e+002,3.077945e+001
7.404385e+002,3.147569e+001
7.414028e+002,3.127420e+001
7.423670e+002,3.012912e+001
7.433312e+002,2.870598e+001
7.442955e+002,2.706708e+001
7.452597e+002,2.622043e+001
7.462239e+002,2.763628e+001
7.471882e+002,3.230171e+001
7.481524e+002,3.462074e+001
7.491166e+002,3.251476e+001
7.500809e+002,3.061179e+001
7.510451e+002,3.113040e+001
7.520093e+002,3.341272e+001
7.529736e+002,3.470518e+001
7.539378e+002,3.325771e+001
7.549020e+002,3.144434e+001
7.558663e+002,3.079990e+001
7.568306e+002,3.078387e+001
7.577948e+002,3.048116e+001
7.587590e+002,2.935274e+001
7.597233e+002,2.785013e+001
7.606875e+002,2.770892e+001
7.616517e+002,2.881342e+001
7.626160e+002,2.990434e+001
7.635802e+002,3.095799e+001
7.645444e+002,3.158478e+001
7.655087e+002,3.064815e+001
7.664729e+002,2.652547e+001
7.674371e+002,2.446616e+001
7.684014e+002,2.577333e+001
7.693656e+002,2.788171e+001
7.703298e+002,2.922401e+001
7.712941e+002,2.962032e+001
7.722583e+002,3.009103e+001
7.732225e+002,3.190295e+001
7.741868e+002,3.351523e+001
7.751510e+002,3.348605e+001
7.761152e+002,3.221024e+001
7.770795e+002,3.068520e+001
7.780437e+002,2.976898e+001
7.790079e+002,2.944435e+001
7.799722e+002,3.005940e+001
7.809364e+002,3.167914e+001
7.819006e+002,3.310248e+001
7.828649e+002,3.385698e+001
7.838291e+002,3.416249e+001
7.847933e+002,3.463522e+001
7.857576e+002,3.546657e+001
7.867218e+002,3.583679e+001
7.876860e+002,3.570261e+001
7.886503e+002,3.524805e+001
7.896145e+002,3.456551e+001
7.905787e+002,3.369817e+001
7.915430e+002,3.267062e+001
7.925072e+002,3.064519e+001
7.934714e+002,2.894493e+001
7.944357e+002,2.988461e+001
7.953999e+002,3.316789e+001
7.963641e+002,3.638380e+001
7.973284e+002,3.674603e+001
7.982926e+002,3.402980e+001
7.992568e+002,3.257771e+001
8.002211e+002,3.255753e+001
8.011853e+002,3.266975e+001
8.021495e+002,3.291814e+001
8.031138e+002,3.322694e+001
8.040780e+002,3.275014e+001
8.050422e+002,3.014929e+001
8.060065e+002,2.850851e+001
8.069707e+002,2.921982e+001
8.079349e+002,3.085837e+001
8.088992e+002,3.214256e+001
8.098634e+002,3.262801e+001
8.108276e+002,3.285184e+001
8.117919e+002,3.361311e+001
8.127561e+002,3.439395e+001
8.137203e+002,3.430522e+001
8.146846e+002,3.336488e+001
8.156488e+002,3.237032e+001
8.166130e+002,3.229411e+001
8.175773e+002,3.337970e+001
8.185415e+002,3.372697e+001
8.195057e+002,3.262611e+001
8.204700e+002,3.163504e+001
8.214342e+002,3.160986e+001
8.223984e+002,3.209343e+001
8.233627e+002,3.171686e+001
8.243269e+002,2.948151e+001
8.252911e+002,2.748792e+001
8.262554e+002,2.652304e+001
8.272196e+002,2.653020e+001
8.281838e+002,2.788105e+001
8.291481e+002,3.044022e+001
8.301123e+002,3.321619e+001
8.310765e+002,3.448301e+001
8.320408e+002,3.416217e+001
8.330050e+002,3.305205e+001
8.339692e+002,3.093658e+001
8.349335e+002,2.888776e+001
8.358977e+002,2.823167e+001
8.368619e+002,2.928580e+001
8.378262e+002,2.973650e+001
8.387904e+002,2.832316e+001
8.397546e+002,2.753565e+001
8.407189e+002,2.855784e+001
8.416831e+002,3.050715e+001
8.426473e+002,3.176978e+001
8.436116e+002,3.154926e+001
8.445758e+002,3.091335e+001
8.455400e+002,3.047198e+001
8.465043e+002,3.034692e+001
8.474685e+002,3.124670e+001
8.484327e+002,3.321245e+001
8.493970e+002,3.517181e+001
8.503612e+002,3.514259e+001
8.513254e+002,3.259946e+001
8.522897e+002,3.152233e+001
8.532539e+002,3.289220e+001
8.542181e+002,3.414702e+001
8.551824e+002,3.355093e+001
8.561466e+002,3.147063e+001
8.571108e+002,3.025404e+001
8.580751e+002,3.055402e+001
8.590393e+002,3.117990e+001
8.600035e+002,3.219379e+001
8.609678e+002,3.323766e+001
8.619320e+002,3.367713e+001
8.628962e+002,3.333387e+001
8.638605e+002,3.319132e+001
8.648247e+002,3.536662e+001
8.657889e+002,3.864381e+001
8.667532e+002,4.036456e+001
8.677174e+002,4.017834e+001
8.686816e+002,3.914853e+001
8.696459e+002,3.843752e+001
8.706101e+002,3.811702e+001
8.715743e+002,3.801357e+001
8.725386e+002,3.817104e+001
8.735028e+002,3.847930e+001
8.744670e+002,3.890833e+001
8.754313e+002,3.934119e+001
8.763955e+002,3.964944e+001
8.773597e+002,3.981223e+001
8.783240e+002,3.996385e+001
8.792882e+002,3.997643e+001
8.802524e+002,4.008163e+001
8.812167e+002,4.037938e+001
8.821809e+002,4.099125e+001
8.831451e+002,4.233411e+001
8.841094e+002,4.512716e+001
8.850736e+002,4.920106e+001
8.860378e+002,5.023688e+001
8.870021e+002,4.745731e+001
8.879663e+002,4.468274e+001
8.889305e+002,4.402963e+001
8.898948e+002,4.510240e+001
8.908590e+002,4.605685e+001
8.918232e+002,4.687146e+001
8.927875e+002,4.756295e+001
8.937517e+002,4.811620e+001
8.947159e+002,4.858987e+001
8.956802e+002,4.905550e+001
8.966444e+002,4.943306e+001
8.976086e+002,4.938905e+001
8.985729e+002,4.829416e+001
8.995371e+002,4.708113e+001
9.005013e+002,4.756776e+001
9.014656e+002,4.944066e+001
9.024298e+002,5.073387e+001
9.033940e+002,4.976823e+001
9.043583e+002,4.692542e+001
9.053225e+002,4.587908e+001
9.062867e+002,4.858213e+001
9.072510e+002,5.052528e+001
9.082152e+002,5.149960e+001
9.091794e+002,5.195100e+001
9.101437e+002,5.223677e+001
9.111079e+002,5.239995e+001
9.120721e+002,5.240720e+001
9.130364e+002,5.190619e+001
9.140006e+002,5.135391e+001
9.149648e+002,5.119245e+001
9.159291e+002,5.131469e+001
9.168933e+002,5.115368e+001
9.178575e+002,5.029696e+001
9.188218e+002,4.930775e+001
9.197860e+002,5.080078e+001
9.207502e+002,5.486124e+001
9.217145e+002,5.701181e+001
9.226787e+002,5.602745e+001
9.236429e+002,5.338795e+001
9.246072e+002,5.067963e+001
9.255714e+002,4.765737e+001
9.265356e+002,4.543514e+001
9.274999e+002,4.422655e+001
9.284641e+002,4.372453e+001
9.294283e+002,4.447173e+001
9.303926e+002,4.578784e+001
9.313568e+002,4.647420e+001
9.323210e+002,4.587077e+001
9.332853e+002,4.484346e+001
9.342495e+002,4.489195e+001
9.352137e+002,4.542447e+001
9.361780e+002,4.566070e+001
9.371422e+002,4.549564e+001
9.381064e+002,4.519538e+001
9.390707e+002,4.506290e+001
9.400349e+002,4.510463e+001
9.409991e+002,4.456206e+001
9.419634e+002,4.274924e+001
9.429276e+002,4.126311e+001
9.438918e+002,4.038826e+001
9.448561e+002,4.017696e+001
9.458203e+002,4.089430e+001
9.467845e+002,4.286298e+001
9.477488e+002,4.466615e+001
9.487130e+002,4.579105e+001
9.496772e+002,4.589484e+001
9.506415e+002,4.376025e+001
9.516057e+002,3.999965e+001
9.525699e+002,3.688170e+001
9.535342e+002,3.663110e+001
9.544984e+002,3.878325e+001
9.554626e+002,3.960544e+001
9.564269e+002,3.910144e+001
9.573911e+002,3.842361e+001
9.583553e+002,3.741480e+001
9.593196e+002,3.654195e+001
9.602838e+002,3.687984e+001
9.612480e+002,3.893726e+001
9.622123e+002,4.005051e+001
9.631765e+002,3.853079e+001
9.641407e+002,3.690811e+001
9.651050e+002,3.636801e+001
9.660692e+002,3.661200e+001
9.670334e+002,3.680241e+001
9.679977e+002,3.647176e+001
9.689619e+002,3.590252e+001
9.699261e+002,3.526678e+001
9.708904e+002,3.465244e+001
9.718546e+002,3.464423e+001
9.728188e+002,3.532907e+001
9.737831e+002,3.667918e+001
9.747473e+002,3.887225e+001
9.757115e+002,4.217053e+001
9.766758e+002,4.505438e+001
9.776400e+002,4.848972e+001
9.786042e+002,5.047734e+001
9.795685e+002,4.996792e+001
9.805327e+002,4.781435e+001
9.814969e+002,4.501160e+001
9.824612e+002,4.194353e+001
9.834254e+002,3.899513e+001
9.843896e+002,3.601483e+001
9.853539e+002,3.355562e+001
9.863181e+002,3.259496e+001
9.872823e+002,3.289111e+001
9.882466e+002,3.339755e+001
9.892108e+002,3.333107e+001
9.901750e+002,3.284603e+001
9.911393e+002,3.219613e+001
9.921035e+002,3.070400e+001
9.930677e+002,2.970330e+001
9.940320e+002,2.979504e+001
9.949962e+002,3.014720e+001
9.959604e+002,2.988239e+001
9.969247e+002,2.899030e+001
9.978889e+002,2.849704e+001
9.988531e+002,2.952737e+001
9.998174e+002,2.997557e+001
1.000782e+003,2.781108e+001
1.001746e+003,2.468894e+001
1.002710e+003,2.321183e+001
1.003674e+003,2.436378e+001
1.004639e+003,2.658686e+001
1.005603e+003,2.712395e+001
1.006567e+003,2.574477e+001
1.007531e+003,2.474820e+001
1.008495e+003,2.393196e+001
1.009460e+003,2.384598e+001
1.010424e+003,2.584155e+001
1.011388e+003,2.903366e+001
1.012352e+003,2.932600e+001
1.013317e+003,2.406178e+001
1.014281e+003,2.024581e+001
1.015245e+003,2.090820e+001
1.016209e+003,2.264302e+001
1.017174e+003,2.325790e+001
1.018138e+003,2.245143e+001
1.019102e+003,2.098053e+001
1.020066e+003,1.937071e+001
1.021031e+003,1.794354e+001
1.021995e+003,1.744928e+001
1.022959e+003,1.768499e+001
1.023923e+003,1.869320e+001
1.024887e+003,2.087429e+001
1.025852e+003,2.312975e+001
1.026816e+003,2.361436e+001
1.027780e+003,2.197203e+001
1.028744e+003,2.053670e+001
1.029709e+003,1.908212e+001
1.030673e+003,1.827620e+001
1.031637e+003,1.896541e+001
1.032601e+003,2.011715e+001
1.033566e+003,2.011643e+001
1.034530e+003,1.846676e+001
1.035494e+003,1.683175e+001
1.036458e+003,1.724103e+001
1.037422e+003,1.869408e+001
1.038387e+003,1.975375e+001
1.039351e+003,2.026517e+001
1.040315e+003,1.994371e+001
1.041279e+003,1.843694e+001
1.042244e+003,1.619266e+001
1.043208e+003,1.534388e+001
1.044172e+003,1.703144e+001
1.045136e+003,1.806647e+001
1.046101e+003,1.808251e+001
1.047065e+003,1.784872e+001
1.048029e+003,1.769615e+001
1.048993e+003,1.768388e+001
1.049958e+003,1.787471e+001
1.050922e+003,1.836603e+001
1.051886e+003,1.904607e+001
1.052850e+003,1.994440e+001
1.053814e+003,2.084717e+001
1.054779e+003,2.159049e+001
1.055743e+003,2.205910e+001
1.056707e+003,2.193061e+001
1.057671e+003,2.075842e+001
1.058636e+003,1.851617e+001
1.059600e+003,1.713431e+001
1.060564e+003,1.693762e+001
1.061528e+003,1.725838e+001
1.062493e+003,1.862843e+001
1.063457e+003,1.994000e+001
1.064421e+003,1.951297e+001
1.065385e+003,1.727435e+001
1.066349e+003,1.623682e+001
1.067314e+003,1.906342e+001
1.068278e+003,2.223650e+001
1.069242e+003,2.361345e+001
1.070206e+003,2.356345e+001
1.071171e+003,2.243404e+001
1.072135e+003,2.051659e+001
1.073099e+003,1.844116e+001
1.074063e+003,1.732765e+001
1.075028e+003,1.727480e+001
1.075992e+003,1.780027e+001
1.076956e+003,1.953471e+001
1.077920e+003,2.060047e+001
1.078885e+003,1.993623e+001
1.079849e+003,1.840274e+001
1.080813e+003,1.746544e+001
1.081777e+003,1.734892e+001
1.082741e+003,1.771855e+001
1.083706e+003,1.912715e+001
1.084670e+003,2.019708e+001
1.085634e+003,1.979196e+001
1.086598e+003,1.850042e+001
1.087563e+003,1.764045e+001
1.088527e+003,1.794379e+001
1.089491e+003,1.876554e+001
1.090455e+003,1.869535e+001
1.091420e+003,1.754759e+001
1.092384e+003,1.674411e+001
1.093348e+003,1.643678e+001
1.094312e+003,1.606844e+001
1.095276e+003,1.500481e+001
1.096241e+003,1.373041e+001
1.097205e+003,1.380273e+001
1.098169e+003,1.594267e+001
1.099133e+003,1.767812e+001
1.100098e+003,1.786306e+001
1.101062e+003,1.766660e+001
1.102026e+003,1.807506e+001
1.102990e+003,1.870123e+001
1.103955e+003,1.817262e+001
1.104919e+003,1.567918e+001
1.105883e+003,1.261417e+001
1.106847e+003,1.217720e+001
1.107812e+003,1.442952e+001
1.108776e+003,1.586822e+001
1.109740e+003,1.611329e+001
1.110704e+003,1.603704e+001
1.111668e+003,1.631379e+001
1.112633e+003,1.688319e+001
1.113597e+003,1.726976e+001
1.114561e+003,1.736169e+001
1.115525e+003,1.726050e+001
1.116490e+003,1.658110e+001
1.117454e+003,1.611072e+001
1.118418e+003,1.705518e+001
1.119382e+003,1.869399e+001
1.120347e+003,1.891560e+001
1.121311e+003,1.637463e+001
1.122275e+003,1.263006e+001
1.123239e+003,1.093469e+001
1.124203e+003,1.135558e+001
1.125168e+003,1.280310e+001
1.126132e+003,1.582257e+001
1.127096e+003,1.833601e+001
1.128060e+003,1.828505e+001
1.129025e+003,1.624223e+001
1.129989e+003,1.503228e+001
1.130953e+003,1.488982e+001
1.131917e+003,1.545592e+001
1.132882e+003,1.754932e+001
1.133846e+003,1.938454e+001
1.134810e+003,1.964247e+001
1.135774e+003,1.875064e+001
1.136739e+003,1.800328e+001
1.137703e+003,1.811443e+001
1.138667e+003,1.834785e+001
1.139631e+003,1.722321e+001
1.140595e+003,1.495844e+001
1.141560e+003,1.363114e+001
1.142524e+003,1.351470e+001
1.143488e+003,1.390470e+001
1.144452e+003,1.397775e+001
1.145417e+003,1.413593e+001
1.146381e+003,1.621764e+001
1.147345e+003,2.144537e+001
1.148309e+003,2.529124e+001
1.149274e+003,2.626492e+001
1.150238e+003,2.618593e+001
1.151202e+003,2.507928e+001
1.152166e+003,2.388783e+001
1.153130e+003,2.405604e+001
1.154095e+003,2.613694e+001
1.155059e+003,2.906730e+001
1.156023e+003,3.174066e+001
1.156987e+003,3.389703e+001
1.157952e+003,3.414249e+001
1.158916e+003,3.240448e+001
1.159880e+003,2.996899e+001
1.160844e+003,2.677841e+001
1.161809e+003,2.334238e+001
1.162773e+003,2.108704e+001
1.163737e+003,2.023533e+001
1.164701e+003,1.962792e+001
1.165666e+003,1.984724e+001
1.166630e+003,1.940254e+001
1.167594e+003,1.672729e+001
1.168558e+003,1.347353e+001
1.169522e+003,1.208156e+001
1.170487e+003,1.312910e+001
1.171451e+003,1.490327e+001
1.172415e+003,1.555148e+001
1.173379e+003,1.516422e+001
1.174344e+003,1.427010e+001
1.175308e+003,1.286230e+001
1.176272e+003,1.164385e+001
1.177236e+003,1.098779e+001
1.178201e+003,1.056035e+001
1.179165e+003,9.544647e+000
1.180129e+003,7.869781e+000
1.181093e+003,7.770828e+000
1.182057e+003,1.164607e+001
1.183022e+003,1.428485e+001
1.183986e+003,1.281635e+001
1.184950e+003,1.004261e+001
1.185914e+003,8.399605e+000
1.186879e+003,8.340721e+000
1.187843e+003,9.217400e+000
1.188807e+003,1.051297e+001
1.189771e+003,1.188052e+001
1.190736e+003,1.228830e+001
1.191700e+003,1.162932e+001
1.192664e+003,1.093773e+001
1.193628e+003,1.037474e+001
1.194593e+003,9.780090e+000
1.195557e+003,8.971931e+000
1.196521e+003,8.012520e+000
1.197485e+003,7.099854e+000
1.198449e+003,6.165154e+000
1.199414e+003,5.642380e+000
1.200378e+003,5.848022e+000
1.201342e+003,6.420425e+000
1.202306e+003,7.506020e+000
1.203271e+003,8.683792e+000
1.204235e+003,9.174088e+000
1.205199e+003,8.651321e+000
1.206163e+003,7.667274e+000
1.207128e+003,7.128014e+000
1.208092e+003,7.073196e+000
1.209056e+003,6.773865e+000
1.210020e+003,6.193642e+000
1.210984e+003,5.512711e+000
1.211949e+003,4.969383e+000
1.212913e+003,4.204987e+000
1.213877e+003,2.315063e+000
1.214841e+003,-6.410675e-001
1.215806e+003,-2.132370e+000
1.216770e+003,-9.313202e-002
1.217734e+003,1.889786e+000
1.218698e+003,8.357010e-001
1.219663e+003,-1.440735e+000
1.220627e+003,-2.867554e+000
1.221591e+003,-2.974625e+000
1.222555e+003,-2.258949e+000
1.223520e+003,-1.134766e+000
1.224484e+003,2.750702e-001
1.225448e+003,1.277382e+000
1.226412e+003,1.896812e+000
1.227376e+003,1.878151e+000
1.228341e+003,6.796417e-001
1.229305e+003,-5.672455e-001
1.230269e+003,-1.235382e+000
1.231233e+003,-1.525558e+000
1.232198e+003,-1.932449e+000
1.233162e+003,-2.573540e+000
1.234126e+003,-2.917084e+000
1.235090e+003,-2.277733e+000
1.236055e+003,-1.531807e+000
1.237019e+003,-1.961464e+000
1.237983e+003,-3.053421e+000
1.238947e+003,-3.153587e+000
1.239911e+003,-1.562317e+000
1.240876e+003,3.497391e-001
1.241840e+003,3.973694e-001
1.242804e+003,-1.562523e+000
1.243768e+003,-2.654335e+000
1.244733e+003,-1.790070e+000
1.245697e+003,-1.472420e+000
1.246661e+003,-2.741707e+000
1.247625e+003,-3.965248e+000
1.248590e+003,-3.570160e+000
1.249554e+003,-1.959236e+000
1.250518e+003,-7.354431e-001
1.251482e+003,-6.495972e-001
1.252447e+003,-1.205101e+000
1.253411e+003,-2.201912e+000
1.254375e+003,-3.122673e+000
1.255339e+003,-2.709084e+000
1.256303e+003,-9.545364e-001
1.257268e+003,6.274338e-001
1.258232e+003,1.073593e+000
1.259196e+003,8.411484e-001
1.260160e+003,1.025963e+000
1.261125e+003,1.829613e+000
1.262089e+003,2.140495e+000
1.263053e+003,1.400818e+000
1.264017e+003,5.579147e-001
1.264982e+003,-9.215698e-001
1.265946e+003,-1.812912e+000
1.266910e+003,-2.118225e-001
1.267874e+003,3.191376e+000
1.268839e+003,5.538132e+000
1.269803e+003,4.921234e+000
1.270767e+003,2.701889e+000
1.271731e+003,1.412453e+000
1.272695e+003,1.072998e+000
1.273660e+003,5.910416e-001
1.274624e+003,-2.311325e-001
1.275588e+003,-9.959106e-001
1.276552e+003,-1.444801e+000
1.277517e+003,-1.610382e+000
1.278481e+003,-1.693199e+000
1.279445e+003,-1.752266e+000
1.280409e+003,-1.267784e+000
1.281374e+003,8.307877e-001
1.282338e+003,2.264427e+000
1.283302e+003,1.250336e+000
1.284266e+003,-6.450500e-001
1.285230e+003,-1.754456e+000
1.286195e+003,-1.769447e+000
1.287159e+003,-1.207161e+000
1.288123e+003,-4.612045e-001
1.289087e+003,3.786469e-001
1.290052e+003,9.290695e-001
1.291016e+003,1.144714e+000
1.291980e+003,9.780731e-001
1.292944e+003,-5.617065e-001
1.293909e+003,-1.297623e+000
1.294873e+003,6.946945e-001
1.295837e+003,3.459732e+000
1.296801e+003,4.082024e+000
1.297766e+003,2.286301e+000
1.298730e+003,1.953201e-001
1.299694e+003,-1.343750e+000
1.300658e+003,-2.375610e+000
1.301622e+003,-2.958656e+000
1.302587e+003,-3.084763e+000
1.303551e+003,-2.579620e+000
1.304515e+003,-1.456604e+000
1.305479e+003,-1.682663e-001
1.306444e+003,1.030251e+000
1.307408e+003,1.872528e+000
1.308372e+003,1.314110e+000
1.309336e+003,-1.435432e+000
1.310301e+003,-3.143143e+000
1.311265e+003,-3.104538e+000
1.312229e+003,-2.640404e+000
1.313193e+003,-1.604591e+000
1.314157e+003,-6.916504e-001
1.315122e+003,-7.179871e-001
1.316086e+003,-1.649330e+000
1.317050e+003,-2.930214e+000
1.318014e+003,-4.257851e+000
1.318979e+003,-4.887375e+000
1.319943e+003,-2.738770e+000
1.320907e+003,1.584366e+000
1.321871e+003,2.333740e+000
1.322836e+003,-1.883461e+000
1.323800e+003,-5.759033e+000
1.324764e+003,-6.307320e+000
1.325728e+003,-4.841156e+000
1.326693e+003,-3.431297e+000
1.327657e+003,-2.170029e+000
1.328621e+003,-9.979401e-001
1.329585e+003,3.956070e-001
1.330549e+003,1.515709e+000
1.331514e+003,1.903656e+000
1.332478e+003,1.872734e+000
1.333442e+003,1.659386e+000
1.334406e+003,1.397453e+000
1.335371e+003,1.254189e+000
1.336335e+003,1.316582e+000
1.337299e+003,1.362785e+000
1.338263e+003,9.111633e-001
1.339228e+003,-1.452026e-001
1.340192e+003,-6.631699e-001
1.341156e+003,-4.870605e-001
1.342120e+003,-5.666351e-002
1.343084e+003,1.003403e+000
1.344049e+003,1.804375e+000
1.345013e+003,1.396561e+000
1.345977e+003,1.821289e-001
1.346941e+003,-6.572495e-001
1.347906e+003,-7.112961e-001
1.348870e+003,-2.373505e-001
1.349834e+003,8.176956e-001
1.350798e+003,1.975143e+000
1.351763e+003,2.390343e+000
1.352727e+003,2.166351e+000
1.353691e+003,1.832703e+000
1.354655e+003,1.568527e+000
1.355620e+003,1.326088e+000
1.356584e+003,1.117287e+000
1.357548e+003,9.327316e-001
1.358512e+003,4.833527e-001
1.359476e+003,-4.118423e-001
1.360441e+003,-1.331558e+000
1.361405e+003,-2.680695e+000
1.362369e+003,-3.421753e+000
1.363333e+003,-2.831490e+000
1.364298e+003,-1.401688e+000
1.365262e+003,4.856339e-001
1.366226e+003,2.468582e+000
1.367190e+003,3.836533e+000
1.368155e+003,3.947777e+000
1.369119e+003,3.108704e+000
1.370083e+003,2.255638e+000
1.371047e+003,1.345436e+000
1.372011e+003,7.935791e-001
1.372976e+003,8.850708e-001
1.373940e+003,8.124008e-001
1.374904e+003,-1.550827e-001
1.375868e+003,-1.117653e+000
1.376833e+003,-6.776352e-001
1.377797e+003,1.033813e+000
1.378761e+003,2.357399e+000
1.379725e+003,2.590332e+000
1.380690e+003,2.315041e+000
1.381654e+003,2.033241e+000
1.382618e+003,1.675156e+000
1.383582e+003,8.969498e-001
1.384547e+003,-1.793442e-001
1.385511e+003,-6.406708e-001
1.386475e+003,6.780243e-002
1.387439e+003,1.177681e+000
1.388403e+003,1.441010e+000
1.389368e+003,8.552704e-001
1.390332e+003,7.492981e-001
1.391296e+003,1.555885e+000
1.392260e+003,2.117889e+000
1.393225e+003,2.091980e+000
1.394189e+003,1.847839e+000
1.395153e+003,1.258614e+000
1.396117e+003,7.387161e-001
1.397082e+003,1.047295e+000
1.398046e+003,2.233902e+000
1.399010e+003,3.445107e+000
1.399974e+003,3.865585e+000
1.400938e+003,3.576904e+000
1.401903e+003,2.981544e+000
1.402867e+003,2.089020e+000
1.403831e+003,1.633919e+000
1.404795e+003,1.683784e+000
1.405760e+003,1.898613e+000
1.406724e+003,2.194725e+000
1.407688e+003,2.375038e+000
1.408652e+003,2.413857e+000
1.409617e+003,2.310837e+000
1.410581e+003,1.697258e+000
1.411545e+003,2.737198e-001
1.412509e+003,-8.843689e-001
1.413474e+003,-6.333847e-001
1.414438e+003,4.245071e-001
1.415402e+003,1.809669e+000
1.416366e+003,3.324257e+000
1.417330e+003,3.530640e+000
1.418295e+003,1.554825e+000
1.419259e+003,-7.125626e-001
1.420223e+003,-9.336243e-001
1.421187e+003,5.078964e-001
1.422152e+003,1.408791e+000
1.423116e+003,1.645081e+000
1.424080e+003,1.813248e+000
1.425044e+003,1.773201e+000
1.426009e+003,1.904732e+000
1.426973e+003,2.914505e+000
1.427937e+003,3.848473e+000
1.428901e+003,3.237915e+000
1.429865e+003,1.335808e+000
1.430830e+003,-2.554779e-001
1.431794e+003,-4.912720e-001
1.432758e+003,3.951950e-001
1.433722e+003,2.131020e+000
1.434687e+003,4.969063e+000
1.435651e+003,6.601463e+000
1.436615e+003,6.037529e+000
1.437579e+003,5.339584e+000
1.438544e+003,4.699554e+000
1.439508e+003,4.010918e+000
1.440472e+003,3.094467e+000
1.441436e+003,2.185310e+000
1.442401e+003,1.721802e+000
1.443365e+003,1.753929e+000
1.444329e+003,1.824501e+000
1.445293e+003,1.556625e+000
1.446257e+003,1.326515e+000
1.447222e+003,1.990990e+000
1.448186e+003,3.341644e+000
1.449150e+003,4.335045e+000
1.450114e+003,4.959694e+000
1.451079e+003,4.844925e+000
1.452043e+003,2.914795e+000
1.453007e+003,8.346481e-001
1.453971e+003,1.396088e+000
1.454936e+003,4.145271e+000
1.455900e+003,5.521034e+000
1.456864e+003,4.479027e+000
1.457828e+003,3.217461e+000
1.458792e+003,2.756187e+000
1.459757e+003,2.743118e+000
1.460721e+003,3.063568e+000
1.461685e+003,3.567497e+000
1.462649e+003,4.112343e+000
1.463614e+003,4.638107e+000
1.464578e+003,4.837898e+000
1.465542e+003,4.332748e+000
1.466506e+003,3.427727e+000
1.467471e+003,3.103775e+000
1.468435e+003,3.517899e+000
1.469399e+003,4.066063e+000
1.470363e+003,4.681427e+000
1.471328e+003,5.347137e+000
1.472292e+003,6.249321e+000
1.473256e+003,6.899818e+000
1.474220e+003,7.215111e+000
1.475184e+003,7.065781e+000
1.476149e+003,5.822655e+000
1.477113e+003,3.549149e+000
1.478077e+003,1.765266e+000
1.479041e+003,2.032684e+000
1.480006e+003,3.733543e+000
1.480970e+003,4.719048e+000
1.481934e+003,4.810349e+000
1.482898e+003,4.588356e+000
1.483863e+003,3.591362e+000
1.484827e+003,2.939316e+000
1.485791e+003,3.039963e+000
1.486755e+003,3.608315e+000
1.487719e+003,4.571075e+000
1.488684e+003,5.677948e+000
1.489648e+003,6.524864e+000
1.490612e+003,7.001595e+000
1.491576e+003,7.013451e+000
1.492541e+003,6.244766e+000
1.493505e+003,5.291924e+000
1.494469e+003,5.821648e+000
1.495433e+003,7.447960e+000
1.496398e+003,8.055038e+000
1.497362e+003,7.215469e+000
1.498326e+003,6.272079e+000
1.499290e+003,5.554863e+000
1.500255e+003,5.360168e+000
1.501219e+003,6.340370e+000
1.502183e+003,8.268295e+000
1.503147e+003,9.954109e+000
1.504111e+003,1.115480e+001
1.505076e+003,1.200400e+001
1.506040e+003,1.236749e+001
1.507004e+003,1.265092e+001
1.507968e+003,1.320671e+001
1.508933e+003,1.399922e+001
1.509897e+003,1.491283e+001
1.510861e+003,1.601156e+001
1.511825e+003,1.766602e+001
1.512790e+003,2.024345e+001
1.513754e+003,2.312576e+001
1.514718e+003,2.497585e+001
1.515682e+003,2.576199e+001
1.516646e+003,2.766229e+001
1.517611e+003,3.170175e+001
1.518575e+003,3.495766e+001
1.519539e+003,3.617067e+001
1.520503e+003,3.682793e+001
1.521468e+003,3.792651e+001
1.522432e+003,3.876325e+001
1.523396e+003,3.794072e+001
1.524360e+003,3.564235e+001
1.525325e+003,3.372900e+001
1.526289e+003,3.345396e+001
1.527253e+003,3.365425e+001
1.528217e+003,3.216811e+001
1.529182e+003,2.901286e+001
1.530146e+003,2.593936e+001
1.531110e+003,2.247015e+001
1.532074e+003,1.993345e+001
1.533039e+003,1.918861e+001
1.534003e+003,1.813602e+001
1.534967e+003,1.540472e+001
1.535931e+003,1.238757e+001
1.536896e+003,1.075271e+001
1.537860e+003,1.045917e+001
1.538824e+003,1.040685e+001
1.539788e+003,9.986923e+000
1.540752e+003,9.526375e+000
1.541717e+003,9.591026e+000
1.542681e+003,9.917961e+000
1.543645e+003,8.583496e+000
1.544609e+003,4.151047e+000
1.545573e+003,2.013741e+000
1.546538e+003,3.503136e+000
1.547502e+003,5.279770e+000
1.548466e+003,6.217262e+000
1.549430e+003,6.959831e+000
1.550395e+003,8.312332e+000
1.551359e+003,1.002083e+001
1.552323e+003,1.136393e+001
1.553287e+003,1.205709e+001
1.554252e+003,1.185573e+001
1.555216e+003,1.041083e+001
1.556180e+003,8.238289e+000
1.557144e+003,6.324158e+000
1.558109e+003,4.723053e+000
1.559073e+003,4.563278e+000
1.560037e+003,7.001091e+000
1.561001e+003,8.267242e+000
1.561966e+003,5.908943e+000
1.562930e+003,3.174126e+000
1.563894e+003,3.095078e+000
1.564858e+003,4.947174e+000
1.565823e+003,7.192467e+000
1.566787e+003,9.366608e+000
1.567751e+003,9.777771e+000
1.568715e+003,6.895691e+000
1.569679e+003,3.699852e+000
1.570644e+003,4.462959e+000
1.571608e+003,7.653954e+000
1.572572e+003,8.688644e+000
1.573536e+003,7.429893e+000
1.574500e+003,6.654800e+000
1.575465e+003,7.597023e+000
1.576429e+003,8.704803e+000
1.577393e+003,8.453529e+000
1.578357e+003,7.573624e+000
1.579322e+003,7.697304e+000
1.580286e+003,8.858009e+000
1.581250e+003,9.732613e+000
1.582214e+003,9.979362e+000
1.583179e+003,9.592293e+000
1.584143e+003,7.918266e+000
1.585107e+003,6.128159e+000
1.586071e+003,6.121101e+000
1.587036e+003,7.383919e+000
1.588000e+003,8.101288e+000
1.588964e+003,7.826088e+000
1.589928e+003,7.266808e+000
1.590893e+003,6.569588e+000
1.591857e+003,6.181145e+000
1.592821e+003,7.039032e+000
1.593785e+003,8.905144e+000
1.594750e+003,1.031167e+001
1.595714e+003,1.100687e+001
1.596678e+003,1.156622e+001
1.597642e+003,1.236777e+001
1.598606e+003,1.288644e+001
1.599571e+003,1.250237e+001
1.600535e+003,1.177177e+001
1.601499e+003,1.113149e+001
1.602463e+003,1.076447e+001
1.603427e+003,1.140988e+001
1.604392e+003,1.351244e+001
1.605356e+003,1.557672e+001
1.606320e+003,1.592181e+001
1.607284e+003,1.512425e+001
1.608249e+003,1.481001e+001
1.609213e+003,1.499600e+001
1.610177e+003,1.523942e+001
1.611141e+003,1.556453e+001
1.612106e+003,1.570466e+001
1.613070e+003,1.517366e+001
1.614034e+003,1.472990e+001
1.614998e+003,1.517593e+001
1.615963e+003,1.599548e+001
1.616927e+003,1.611910e+001
1.617891e+003,1.549282e+001
1.618855e+003,1.522128e+001
1.619820e+003,1.602631e+001
1.620784e+003,1.694122e+001
1.621748e+003,1.635154e+001
1.622712e+003,1.472608e+001
1.623677e+003,1.476060e+001
1.624641e+003,1.690958e+001
1.625605e+003,1.811424e+001
1.626569e+003,1.681225e+001
1.627533e+003,1.569209e+001
1.628498e+003,1.667101e+001
1.629462e+003,1.798380e+001
1.630426e+003,1.783549e+001
1.631390e+003,1.686171e+001
1.632354e+003,1.688873e+001
1.633319e+003,1.822311e+001
1.634283e+003,1.912006e+001
1.635247e+003,1.811317e+001
1.636211e+003,1.644286e+001
1.637176e+003,1.656835e+001
1.638140e+003,1.836552e+001
1.639104e+003,1.950453e+001
1.640068e+003,1.984928e+001
1.641033e+003,1.968937e+001
1.641997e+003,1.887830e+001
1.642961e+003,1.793275e+001
1.643925e+003,1.700278e+001
1.644890e+003,1.614458e+001
1.645854e+003,1.498193e+001
1.646818e+003,1.398521e+001
1.647782e+003,1.472397e+001
1.648747e+003,1.748933e+001
1.649711e+003,1.973109e+001
1.650675e+003,1.926357e+001
1.651639e+003,1.726309e+001
1.652604e+003,1.575948e+001
1.653568e+003,1.473631e+001
1.654532e+003,1.516076e+001
1.655496e+003,1.780336e+001
1.656460e+003,1.929187e+001
1.657425e+003,1.792581e+001
1.658389e+003,1.623036e+001
1.659353e+003,1.542645e+001
1.660317e+003,1.511249e+001
1.661281e+003,1.507459e+001
1.662246e+003,1.508398e+001
1.663210e+003,1.453088e+001
1.664174e+003,1.328365e+001
1.665138e+003,1.250925e+001
1.666103e+003,1.341205e+001
1.667067e+003,1.497691e+001
1.668031e+003,1.513477e+001
1.668995e+003,1.399107e+001
1.669960e+003,1.277264e+001
1.670924e+003,1.143054e+001
1.671888e+003,1.068484e+001
1.672852e+003,1.099554e+001
1.673817e+003,1.155486e+001
1.674781e+003,1.210275e+001
1.675745e+003,1.242222e+001
1.676709e+003,1.221175e+001
1.677674e+003,1.155345e+001
1.678638e+003,1.054848e+001
1.679602e+003,9.249855e+000
1.680566e+003,8.620804e+000
1.681531e+003,9.850784e+000
1.682495e+003,1.167122e+001
1.683459e+003,1.179487e+001
1.684423e+003,1.041823e+001
1.685387e+003,8.820137e+000
1.686352e+003,7.005478e+000
1.687316e+003,6.042480e+000
1.688280e+003,6.572464e+000
1.689244e+003,7.453850e+000
1.690208e+003,8.365318e+000
1.691173e+003,8.784027e+000
1.692137e+003,7.753433e+000
1.693101e+003,5.772781e+000
1.694065e+003,4.207474e+000
1.695030e+003,3.323975e+000
1.695994e+003,3.273888e+000
1.696958e+003,4.611786e+000
1.697922e+003,6.328682e+000
1.698887e+003,7.221069e+000
1.699851e+003,7.472984e+000
1.700815e+003,7.663422e+000
1.701779e+003,7.802437e+000
1.702744e+003,7.165390e+000
1.703708e+003,5.311562e+000
1.704672e+003,3.768318e+000
1.705636e+003,3.696068e+000
1.706601e+003,4.352654e+000
1.707565e+003,4.911774e+000
1.708529e+003,5.365097e+000
1.709493e+003,5.506149e+000
1.710458e+003,5.277870e+000
1.711422e+003,4.974716e+000
1.712386e+003,4.841904e+000
1.713350e+003,4.614822e+000
1.714314e+003,3.758408e+000
1.715279e+003,2.747200e+000
1.716243e+003,2.339333e+000
1.717207e+003,2.598152e+000
1.718171e+003,3.705383e+000
1.719135e+003,5.717896e+000
1.720100e+003,7.056541e+000
1.721064e+003,6.586708e+000
1.722028e+003,5.022354e+000
1.722992e+003,3.072998e+000
1.723957e+003,1.037750e+000
1.724921e+003,4.367981e-001
1.725885e+003,1.429649e+000
1.726849e+003,2.083855e+000
1.727814e+003,1.938606e+000
1.728778e+003,1.824844e+000
1.729742e+003,2.480568e+000
1.730706e+003,2.944847e+000
1.731671e+003,1.461617e+000
1.732635e+003,-7.570953e-001
1.733599e+003,-4.213028e-001
1.734563e+003,2.512009e+000
1.735528e+003,4.264130e+000
1.736492e+003,2.824966e+000
1.737456e+003,3.305969e-001
1.738420e+003,-7.545853e-001
1.739385e+003,-7.675552e-001
1.740349e+003,-7.739868e-001
1.741313e+003,-7.534180e-001
1.742277e+003,-6.297073e-001
1.743241e+003,-3.063202e-001
1.744206e+003,4.513550e-002
1.745170e+003,6.469193e-001
1.746134e+003,9.337997e-001
1.747098e+003,4.229660e-001
1.748063e+003,-4.482269e-001
1.749027e+003,-1.563049e+000
1.749991e+003,-2.466965e+000
1.750955e+003,-2.013161e+000
1.751919e+003,-9.477234e-002
1.752884e+003,1.576523e+000
1.753848e+003,1.577911e+000
1.754812e+003,5.348434e-001
1.755776e+003,-3.399734e-001
1.756741e+003,-9.947281e-001
1.757705e+003,-1.186150e+000
1.758669e+003,-8.369904e-001
1.759633e+003,-3.652115e-001
1.760598e+003,4.471436e-001
1.761562e+003,9.144592e-001
1.762526e+003,6.799316e-001
1.763490e+003,2.990799e-001
1.764455e+003,8.881378e-002
1.765419e+003,4.800415e-002
1.766383e+003,8.520508e-002
1.767347e+003,1.728973e-001
1.768312e+003,4.695206e-001
1.769276e+003,1.048241e+000
1.770240e+003,1.276878e+000
1.771204e+003,2.848129e-001
1.772168e+003,-1.157265e+000
1.773133e+003,-1.176003e+000
1.774097e+003,4.089355e-002
1.775061e+003,6.037216e-001
1.776025e+003,2.329788e-001
1.776990e+003,-5.433426e-001
1.777954e+003,-1.849411e+000
1.778918e+003,-2.688316e+000
1.779882e+003,-2.198952e+000
1.780846e+003,-1.032784e+000
1.781811e+003,3.835297e-001
1.782775e+003,1.750732e+000
1.783739e+003,1.756538e+000
1.784703e+003,6.525421e-002
1.785668e+003,-9.408035e-001
1.786632e+003,6.068649e-001
1.787596e+003,1.813423e+000
1.788560e+003,-1.600037e-001
1.789525e+003,-3.100876e+000
1.790489e+003,-4.074852e+000
1.791453e+003,-3.308762e+000
1.792417e+003,-1.749100e+000
1.793382e+003,1.907501e-001
1.794346e+003,1.134354e+000
1.795310e+003,2.906342e-001
1.796274e+003,-1.098236e+000
1.797239e+003,-1.553391e+000
1.798203e+003,-1.435005e+000
1.799167e+003,-2.228340e+000
1.800131e+003,-4.414146e+000
1.801095e+003,-4.968590e+000
1.802060e+003,-2.377518e+000
1.803024e+003,-5.457230e-001
1.803988e+003,-4.042130e-001
1.804952e+003,-4.745331e-001
1.805917e+003,2.849579e-002
1.806881e+003,5.785675e-001
1.807845e+003,5.251541e-001
1.808809e+003,1.245041e-001
1.809773e+003,2.510834e-002
1.810738e+003,3.248825e-001
1.811702e+003,6.092300e-001
1.812666e+003,6.086502e-001
1.813630e+003,3.092575e-001
1.814595e+003,-4.260406e-001
1.815559e+003,-1.334610e+000
1.816523e+003,-9.998779e-001
1.817487e+003,8.058548e-001
1.818452e+003,1.208572e+000
1.819416e+003,-7.249832e-001
1.820380e+003,-1.521751e+000
1.821344e+003,7.536850e-001
1.822309e+003,2.853905e+000
1.823273e+003,2.912575e+000
1.824237e+003,1.933029e+000
1.825201e+003,2.873840e-001
1.826166e+003,-1.493050e+000
1.827130e+003,-1.981583e+000
1.828094e+003,-9.983673e-001
1.829058e+003,-2.982178e-001
1.830022e+003,-8.838882e-001
1.830987e+003,-1.530365e+000
1.831951e+003,-1.089302e+000
1.832915e+003,-1.907578e-001
1.833879e+003,3.892212e-001
1.834844e+003,5.964737e-001
1.835808e+003,2.576294e-001
1.836772e+003,-5.443649e-001
1.837736e+003,-9.898758e-001
1.838700e+003,-7.343216e-001
1.839665e+003,-3.339920e-001
1.840629e+003,-2.463303e-001
1.841593e+003,-4.150925e-001
1.842557e+003,-8.695984e-001
1.843522e+003,-1.596252e+000
1.844486e+003,-1.361374e+000
1.845450e+003,1.254791e+000
1.846414e+003,2.174171e+000
1.847379e+003,-2.133560e-001
1.848343e+003,-2.239098e+000
1.849307e+003,-2.799507e+000
1.850271e+003,-2.623337e+000
1.851236e+003,-1.878609e+000
1.852200e+003,-9.596329e-001
1.853164e+003,-1.388474e-001
1.854128e+003,3.099670e-001
1.855093e+003,-2.587357e-001
1.856057e+003,-1.873856e+000
1.857021e+003,-3.112350e+000
1.857985e+003,-2.778870e+000
1.858949e+003,-1.622902e+000
1.859914e+003,-8.656464e-001
1.860878e+003,-4.064484e-001
1.861842e+003,5.020370e-001
1.862806e+003,1.879501e+000
1.863771e+003,1.730629e+000
1.864735e+003,-7.570801e-001
1.865699e+003,-2.639221e+000
1.866663e+003,-2.366646e+000
1.867627e+003,-1.550522e+000
1.868592e+003,-1.791031e+000
1.869556e+003,-2.400925e+000
1.870520e+003,-1.793938e+000
1.871484e+003,-2.146301e-001
1.872449e+003,7.063599e-001
1.873413e+003,8.054428e-001
1.874377e+003,8.736877e-001
1.875341e+003,8.828583e-001
1.876306e+003,9.878006e-001
1.877270e+003,1.559044e+000
1.878234e+003,1.972183e+000
1.879198e+003,1.438499e+000
1.880163e+003,3.892975e-001
1.881127e+003,-4.268417e-001
1.882091e+003,-8.423767e-001
1.883055e+003,-9.645081e-001
1.884020e+003,-8.503342e-001
1.884984e+003,-4.285736e-001
1.885948e+003,3.890762e-001
1.886912e+003,1.286522e+000
1.887876e+003,1.622337e+000
1.888841e+003,1.441650e+000
1.889805e+003,1.169769e+000
1.890769e+003,7.435760e-001
1.891733e+003,6.255493e-001
1.892698e+003,1.117897e+000
1.893662e+003,1.158150e+000
1.894626e+003,-1.463699e-001
1.895590e+003,-1.262749e+000
1.896554e+003,-9.292984e-001
1.897519e+003,6.539917e-002
1.898483e+003,1.007538e+000
1.899447e+003,1.704979e+000
1.900411e+003,1.738319e+000
1.901376e+003,1.016548e+000
1.902340e+003,3.500671e-001
1.903304e+003,-3.868103e-002
1.904268e+003,-1.939545e-001
1.905233e+003,-3.057861e-002
1.906197e+003,2.837524e-001
1.907161e+003,7.654724e-001
1.908125e+003,1.194321e+000
1.909090e+003,9.411774e-001
1.910054e+003,1.963882e-001
1.911018e+003,8.740997e-002
1.911982e+003,9.048309e-001
1.912947e+003,1.505058e+000
1.913911e+003,1.033821e+000
1.914875e+003,2.241821e-001
1.915839e+003,2.900848e-001
1.916803e+003,8.325424e-001
1.917768e+003,-2.962265e-001
1.918732e+003,-3.599724e+000
1.919696e+003,-4.926163e+000
1.920660e+003,-3.403954e+000
1.921625e+003,-2.167412e+000
1.922589e+003,-2.285271e+000
1.923553e+003,-2.220314e+000
1.924517e+003,-7.699966e-001
1.925481e+003,8.665695e-001
1.926446e+003,1.864967e+000
1.927410e+003,2.208427e+000
1.928374e+003,1.504463e+000
1.929338e+003,-1.146088e-001
1.930303e+003,-6.707382e-001
1.931267e+003,7.267532e-001
1.932231e+003,2.164429e+000
1.933195e+003,2.910210e+000
1.934160e+003,3.156738e+000
1.935124e+003,2.942513e+000
1.936088e+003,2.363823e+000
1.937052e+003,1.402153e+000
1.938017e+003,2.990570e-001
1.938981e+003,-7.087173e-001
1.939945e+003,-1.435287e+000
1.940909e+003,-1.364258e+000
1.941874e+003,-3.423080e-001
1.942838e+003,9.177628e-001
1.943802e+003,1.819229e+000
1.944766e+003,2.443321e+000
1.945730e+003,2.858467e+000
1.946695e+003,3.030159e+000
1.947659e+003,2.827942e+000
1.948623e+003,2.155006e+000
1.949587e+003,2.199028e+000
1.950552e+003,3.419212e+000
1.951516e+003,4.058250e+000
1.952480e+003,3.307137e+000
1.953444e+003,2.283241e+000
1.954408e+003,1.247444e+000
1.955373e+003,8.184280e-001
1.956337e+003,2.805313e+000
1.957301e+003,6.197487e+000
1.958265e+003,6.995384e+000
1.959230e+003,4.780060e+000
1.960194e+003,2.872383e+000
1.961158e+003,1.607697e+000
1.962122e+003,6.953659e-001
1.963087e+003,-1.151962e-001
1.964051e+003,-3.388367e-001
1.965015e+003,8.802643e-001
1.965979e+003,2.400002e+000
1.966944e+003,3.083847e+000
1.967908e+003,3.078987e+000
1.968872e+003,2.886345e+000
1.969836e+003,2.648392e+000
1.970801e+003,2.251854e+000
1.971765e+003,1.677856e+000
1.972729e+003,1.229080e+000
1.973693e+003,1.038818e+000
1.974657e+003,1.448189e+000
1.975622e+003,3.618217e+000
1.976586e+003,6.529648e+000
1.977550e+003,7.259468e+000
1.978514e+003,6.134644e+000
1.979479e+003,5.258270e+000
1.980443e+003,4.925507e+000
1.981407e+003,4.433701e+000
1.982371e+003,3.516136e+000
1.983335e+003,2.918694e+000
1.984300e+003,3.238899e+000
1.985264e+003,3.804611e+000
1.986228e+003,3.554001e+000
1.987192e+003,2.750160e+000
1.988157e+003,2.847679e+000
1.989121e+003,4.248123e+000
1.990085e+003,4.530159e+000
1.991049e+003,2.956024e+000
1.992014e+003,1.816101e+000
1.992978e+003,1.615372e+000
1.993942e+003,1.509521e+000
1.994906e+003,8.110886e-001
1.995871e+003,5.116806e-001
1.996835e+003,1.734299e+000
1.997799e+003,3.614967e+000
1.998763e+003,4.910362e+000
1.999728e+003,5.589348e+000
