5.003444e+002,4.488422e+001
5.013087e+002,4.659177e+001
5.022729e+002,4.640364e+001
5.032371e+002,4.499821e+001
5.042014e+002,4.445346e+001
5.051656e+002,4.466119e+001
5.061298e+002,4.490312e+001
5.070941e+002,4.445061e+001
5.080583e+002,4.297755e+001
5.090225e+002,4.224872e+001
5.099868e+002,4.288831e+001
5.109510e+002,4.336971e+001
5.119152e+002,4.267033e+001
5.128795e+002,4.066127e+001
5.138437e+002,3.926656e+001
5.148079e+002,3.971481e+001
5.157722e+002,4.044682e+001
5.167364e+002,4.109120e+001
5.177006e+002,4.136395e+001
5.186649e+002,4.093497e+001
5.196291e+002,3.886569e+001
5.205933e+002,3.649857e+001
5.215576e+002,3.518213e+001
5.225218e+002,3.492131e+001
5.234860e+002,3.516205e+001
5.244503e+002,3.506058e+001
5.254145e+002,3.465993e+001
5.263787e+002,3.451161e+001
5.273430e+002,3.481779e+001
5.283072e+002,3.524159e+001
5.292714e+002,3.523087e+001
5.302357e+002,3.430667e+001
5.311999e+002,3.349983e+001
5.321641e+002,3.350722e+001
5.331284e+002,3.358194e+001
5.340926e+002,3.301399e+001
5.350568e+002,3.143959e+001
5.360211e+002,2.949600e+001
5.369853e+002,2.753783e+001
5.379495e+002,2.593578e+001
5.389138e+002,2.502016e+001
5.398780e+002,2.487579e+001
5.408422e+002,2.534000e+001
5.418065e+002,2.636816e+001
5.427707e+002,2.780861e+001
5.437349e+002,2.830516e+001
5.446992e+002,2.715771e+001
5.456634e+002,2.498769e+001
5.466276e+002,2.406241e+001
5.475919e+002,2.636818e+001
5.485561e+002,2.761060e+001
5.495203e+002,2.685945e+001
5.504846e+002,2.510518e+001
5.514488e+002,2.386714e+001
5.524130e+002,2.397969e+001
5.533773e+002,2.415115e+001
5.543415e+002,2.381232e+001
5.553057e+002,2.312956e+001
5.562700e+002,2.219598e+001
5.572342e+002,2.105200e+001
5.581984e+002,1.976160e+001
5.591627e+002,1.819608e+001
5.601269e+002,1.672017e+001
5.610911e+002,1.625630e+001
5.620554e+002,1.731346e+001
5.630196e+002,1.960551e+001
5.639838e+002,2.101636e+001
5.649481e+002,2.139774e+001
5.659123e+002,2.116461e+001
5.668765e+002,2.011627e+001
5.678408e+002,1.865533e+001
5.688050e+002,1.775093e+001
5.697692e+002,1.799106e+001
5.707335e+002,1.788820e+001
5.716977e+002,1.707457e+001
5.726619e+002,1.576407e+001
5.736262e+002,1.408276e+001
5.745904e+002,1.198093e+001
5.755546e+002,1.027911e+001
5.765189e+002,9.768036e+000
5.774831e+002,1.023782e+001
5.784473e+002,1.204123e+001
5.794116e+002,1.544684e+001
5.803758e+002,2.019054e+001
5.813400e+002,2.123016e+001
5.823043e+002,1.746950e+001
5.832685e+002,1.370412e+001
5.842327e+002,1.148135e+001
5.851970e+002,1.075168e+001
5.861612e+002,1.064000e+001
5.871254e+002,1.146848e+001
5.880897e+002,1.234673e+001
5.890539e+002,1.304207e+001
5.900181e+002,1.361179e+001
5.909824e+002,1.434412e+001
5.919466e+002,1.571088e+001
5.929108e+002,1.669214e+001
5.938751e+002,1.622876e+001
5.948393e+002,1.482149e+001
5.958035e+002,1.319380e+001
5.967678e+002,1.189294e+001
5.977320e+002,1.092128e+001
5.986962e+002,9.678452e+000
5.996605e+002,7.914978e+000
6.006247e+002,6.671906e+000
6.015889e+002,6.791672e+000
6.025532e+002,8.154663e+000
6.035174e+002,8.731873e+000
6.044816e+002,7.049088e+000
6.054459e+002,6.224976e+000
6.064101e+002,7.447693e+000
6.073743e+002,9.703629e+000
6.083386e+002,1.110623e+001
6.093028e+002,1.043353e+001
6.102670e+002,9.237198e+000
6.112313e+002,8.742691e+000
6.121955e+002,8.589630e+000
6.131597e+002,8.288651e+000
6.141240e+002,7.501251e+000
6.150882e+002,6.347763e+000
6.160524e+002,5.195496e+000
6.170167e+002,4.113037e+000
6.179809e+002,3.696671e+000
6.189451e+002,4.348801e+000
6.199094e+002,5.828247e+000
6.208736e+002,6.735184e+000
6.218378e+002,6.383652e+000
6.228021e+002,6.508606e+000
6.237663e+002,7.802673e+000
6.247305e+002,9.570267e+000
6.256948e+002,1.061536e+001
6.266590e+002,1.022624e+001
6.276232e+002,9.241089e+000
6.285875e+002,7.870239e+000
6.295517e+002,6.698410e+000
6.305159e+002,6.598602e+000
6.314802e+002,7.915482e+000
6.324444e+002,9.667984e+000
6.334086e+002,8.798660e+000
6.343729e+002,6.272064e+000
6.353371e+002,4.247437e+000
6.363013e+002,3.467422e+000
6.372656e+002,3.626541e+000
6.382298e+002,3.741577e+000
6.391940e+002,3.561615e+000
6.401583e+002,3.607513e+000
6.411225e+002,4.363083e+000
6.420867e+002,5.367661e+000
6.430510e+002,6.064957e+000
6.440152e+002,6.288605e+000
6.449794e+002,5.746613e+000
6.459437e+002,3.412003e+000
6.469079e+002,1.028427e+000
6.478721e+002,2.509918e-001
6.488364e+002,1.531555e+000
6.498006e+002,3.598679e+000
6.507648e+002,4.095917e+000
6.517291e+002,3.528595e+000
6.526933e+002,3.127518e+000
6.536575e+002,3.104202e+000
6.546218e+002,3.412186e+000
6.555860e+002,4.000809e+000
6.565502e+002,5.151962e+000
6.575145e+002,5.911224e+000
6.584787e+002,6.492096e+000
6.594429e+002,6.607910e+000
6.604072e+002,5.699738e+000
6.613714e+002,3.528259e+000
6.623356e+002,2.033127e+000
6.632999e+002,2.416107e+000
6.642641e+002,3.281464e+000
6.652283e+002,4.515121e+000
6.661926e+002,5.785446e+000
6.671568e+002,6.416000e+000
6.681210e+002,5.262772e+000
6.690853e+002,2.932022e+000
6.700495e+002,1.174728e+000
6.710137e+002,5.557251e-002
6.719780e+002,-3.512878e-001
6.729422e+002,9.140015e-002
6.739064e+002,1.581100e+000
6.748707e+002,2.440247e+000
6.758349e+002,2.828934e+000
6.767991e+002,2.592865e+000
6.777634e+002,1.337769e+000
6.787276e+002,-6.435699e-001
6.796918e+002,-1.917114e+000
6.806561e+002,-1.758163e+000
6.816203e+002,-1.146469e+000
6.825845e+002,-9.059143e-002
6.835488e+002,1.079391e+000
6.845130e+002,1.868530e+000
6.854772e+002,1.883102e+000
6.864415e+002,1.681381e+000
6.874057e+002,2.544174e+000
6.883699e+002,3.954163e+000
6.893342e+002,4.896484e+000
6.902984e+002,4.829025e+000
6.912626e+002,3.904083e+000
6.922269e+002,2.914078e+000
6.931911e+002,1.643631e+000
6.941553e+002,9.800720e-001
6.951196e+002,1.278214e+000
6.960838e+002,1.912048e+000
6.970480e+002,1.908783e+000
6.980123e+002,8.077698e-001
6.989765e+002,-8.424377e-002
6.999407e+002,-9.323730e-001
7.009050e+002,-1.021210e+000
7.018692e+002,9.690247e-001
7.028334e+002,5.065826e+000
7.037977e+002,9.082153e+000
7.047619e+002,9.344528e+000
7.057261e+002,7.062866e+000
7.066904e+002,3.845825e+000
7.076546e+002,-5.064392e-002
7.086188e+002,-3.279633e+000
7.095831e+002,-3.496674e+000
7.105473e+002,8.221588e-001
7.115115e+002,3.157883e+000
7.124758e+002,2.800705e+000
7.134400e+002,1.570496e+000
7.144042e+002,2.157593e-001
7.153685e+002,-1.112076e+000
7.163327e+002,-1.785004e+000
7.172969e+002,-8.320770e-001
7.182612e+002,2.941742e-001
7.192254e+002,1.221466e+000
7.201896e+002,1.769714e+000
7.211539e+002,1.770462e+000
7.221181e+002,1.047791e+000
7.230823e+002,-1.374054e-001
7.240466e+002,-1.330902e+000
7.250108e+002,-2.336258e+000
7.259750e+002,-2.394623e+000
7.269393e+002,-9.702759e-001
7.279035e+002,1.497437e+000
7.288677e+002,2.386826e+000
7.298320e+002,3.040009e-001
7.307962e+002,-1.194885e+000
7.317604e+002,-1.915497e+000
7.327247e+002,-1.889130e+000
7.336889e+002,-1.024689e+000
7.346531e+002,9.107208e-001
7.356174e+002,2.173828e+000
7.365816e+002,2.093353e+000
7.375458e+002,1.336151e+000
7.385101e+002,-8.500671e-002
7.394743e+002,-1.880661e+000
7.404385e+002,-3.259277e+000
7.414028e+002,-2.884247e+000
7.423670e+002,-1.284271e+000
7.433312e+002,4.235840e-002
7.442955e+002,1.231979e+000
7.452597e+002,2.037903e+000
7.462239e+002,1.896179e+000
7.471882e+002,2.855072e-001
7.481524e+002,-2.064972e-001
7.491166e+002,1.481400e+000
7.500809e+002,2.533600e+000
7.510451e+002,1.207611e+000
7.520093e+002,-1.752274e+000
7.529736e+002,-3.486099e+000
7.539378e+002,-1.673767e+000
7.549020e+002,5.036469e-001
7.558663e+002,1.136520e+000
7.568306e+002,7.190857e-001
7.577948e+002,-3.690186e-001
7.587590e+002,-1.837769e+000
7.597233e+002,-3.222153e+000
7.606875e+002,-2.269028e+000
7.616517e+002,7.521820e-001
7.626160e+002,2.574234e+000
7.635802e+002,1.948517e+000
7.645444e+002,1.710205e-001
7.655087e+002,3.742981e-002
7.664729e+002,2.727814e+000
7.674371e+002,4.406021e+000
7.684014e+002,4.787018e+000
7.693656e+002,4.341507e+000
7.703298e+002,2.928757e+000
7.712941e+002,7.684479e-001
7.722583e+002,-8.931580e-001
7.732225e+002,-1.092590e+000
7.741868e+002,-3.774261e-001
7.751510e+002,1.212906e+000
7.761152e+002,3.330750e+000
7.770795e+002,5.442352e+000
7.780437e+002,7.067703e+000
7.790079e+002,8.109314e+000
7.799722e+002,7.652145e+000
7.809364e+002,5.594406e+000
7.819006e+002,3.751389e+000
7.828649e+002,2.785049e+000
7.838291e+002,2.672028e+000
7.847933e+002,3.286209e+000
7.857576e+002,5.577621e+000
7.867218e+002,6.469177e+000
7.876860e+002,4.386948e+000
7.886503e+002,1.884842e+000
7.896145e+002,1.191284e+000
7.905787e+002,2.830078e+000
7.915430e+002,5.132721e+000
7.925072e+002,6.567535e+000
7.934714e+002,7.278442e+000
7.944357e+002,7.520798e+000
7.953999e+002,7.403961e+000
7.963641e+002,6.873810e+000
7.973284e+002,5.770126e+000
7.982926e+002,4.023361e+000
7.992568e+002,3.291840e+000
8.002211e+002,3.860474e+000
8.011853e+002,4.109436e+000
8.021495e+002,3.341980e+000
8.031138e+002,2.090500e+000
8.040780e+002,1.761658e+000
8.050422e+002,3.018127e+000
8.060065e+002,4.202881e+000
8.069707e+002,4.788147e+000
8.079349e+002,4.902649e+000
8.088992e+002,4.481430e+000
8.098634e+002,3.670868e+000
8.108276e+002,3.223572e+000
8.117919e+002,4.655716e+000
8.127561e+002,6.750671e+000
8.137203e+002,7.395569e+000
8.146846e+002,6.488617e+000
8.156488e+002,4.878204e+000
8.166130e+002,3.411072e+000
8.175773e+002,1.932419e+000
8.185415e+002,1.347397e+000
8.195057e+002,2.167984e+000
8.204700e+002,2.835251e+000
8.214342e+002,2.637619e+000
8.223984e+002,1.899902e+000
8.233627e+002,1.555832e+000
8.243269e+002,2.109634e+000
8.252911e+002,2.846283e+000
8.262554e+002,3.499420e+000
8.272196e+002,3.960434e+000
8.281838e+002,4.035446e+000
8.291481e+002,3.692398e+000
8.301123e+002,3.133331e+000
8.310765e+002,2.685516e+000
8.320408e+002,2.333069e+000
8.330050e+002,2.123840e+000
8.339692e+002,2.128586e+000
8.349335e+002,2.176880e+000
8.358977e+002,1.969131e+000
8.368619e+002,1.422012e+000
8.378262e+002,1.797073e+000
8.387904e+002,4.294769e+000
8.397546e+002,6.160309e+000
8.407189e+002,6.382339e+000
8.416831e+002,5.615723e+000
8.426473e+002,5.047119e+000
8.436116e+002,5.217133e+000
8.445758e+002,5.713196e+000
8.455400e+002,6.183685e+000
8.465043e+002,6.400955e+000
8.474685e+002,6.105957e+000
8.484327e+002,5.401459e+000
8.493970e+002,4.805664e+000
8.503612e+002,5.079269e+000
8.513254e+002,6.416611e+000
8.522897e+002,6.514023e+000
8.532539e+002,4.134018e+000
8.542181e+002,2.095062e+000
8.551824e+002,2.553024e+000
8.561466e+002,5.298096e+000
8.571108e+002,7.554749e+000
8.580751e+002,8.319458e+000
8.590393e+002,8.394485e+000
8.600035e+002,7.696793e+000
8.609678e+002,6.887039e+000
8.619320e+002,6.645752e+000
8.628962e+002,7.217773e+000
8.638605e+002,8.193222e+000
8.648247e+002,9.075851e+000
8.657889e+002,9.863190e+000
8.667532e+002,1.059096e+001
8.677174e+002,1.126031e+001
8.686816e+002,1.192711e+001
8.696459e+002,1.273485e+001
8.706101e+002,1.382327e+001
8.715743e+002,1.444553e+001
8.725386e+002,1.388997e+001
8.735028e+002,1.383377e+001
8.744670e+002,1.503615e+001
8.754313e+002,1.676636e+001
8.763955e+002,1.767574e+001
8.773597e+002,1.717989e+001
8.783240e+002,1.660634e+001
8.792882e+002,1.689589e+001
8.802524e+002,1.745880e+001
8.812167e+002,1.775302e+001
8.821809e+002,1.773167e+001
8.831451e+002,1.785875e+001
8.841094e+002,1.881517e+001
8.850736e+002,2.060144e+001
8.860378e+002,2.133719e+001
8.870021e+002,2.074886e+001
8.879663e+002,2.000455e+001
8.889305e+002,1.973170e+001
8.898948e+002,1.977203e+001
8.908590e+002,1.944093e+001
8.918232e+002,1.804413e+001
8.927875e+002,1.767108e+001
8.937517e+002,1.898077e+001
8.947159e+002,2.117783e+001
8.956802e+002,2.413947e+001
8.966444e+002,2.740617e+001
8.976086e+002,2.947493e+001
8.985729e+002,2.830788e+001
8.995371e+002,2.565263e+001
9.005013e+002,2.441039e+001
9.014656e+002,2.452753e+001
9.024298e+002,2.498105e+001
9.033940e+002,2.493260e+001
9.043583e+002,2.438072e+001
9.053225e+002,2.411461e+001
9.062867e+002,2.393835e+001
9.072510e+002,2.420833e+001
9.082152e+002,2.590088e+001
9.091794e+002,2.768150e+001
9.101437e+002,2.803081e+001
9.111079e+002,2.668224e+001
9.120721e+002,2.517467e+001
9.130364e+002,2.351286e+001
9.140006e+002,2.257098e+001
9.149648e+002,2.358925e+001
9.159291e+002,2.587810e+001
9.168933e+002,2.802095e+001
9.178575e+002,2.895212e+001
9.188218e+002,2.871832e+001
9.197860e+002,2.726500e+001
9.207502e+002,2.445599e+001
9.217145e+002,2.285794e+001
9.226787e+002,2.385071e+001
9.236429e+002,2.571170e+001
9.246072e+002,2.583563e+001
9.255714e+002,2.368123e+001
9.265356e+002,2.215918e+001
9.274999e+002,2.219331e+001
9.284641e+002,2.233107e+001
9.294283e+002,2.226752e+001
9.303926e+002,2.200441e+001
9.313568e+002,2.157980e+001
9.323210e+002,2.098788e+001
9.332853e+002,2.037886e+001
9.342495e+002,1.994038e+001
9.352137e+002,1.963918e+001
9.361780e+002,1.969226e+001
9.371422e+002,2.022360e+001
9.381064e+002,2.089597e+001
9.390707e+002,2.110115e+001
9.400349e+002,2.058913e+001
9.409991e+002,2.041560e+001
9.419634e+002,2.098225e+001
9.429276e+002,2.126508e+001
9.438918e+002,2.099385e+001
9.448561e+002,2.032263e+001
9.458203e+002,1.932639e+001
9.467845e+002,1.787166e+001
9.477488e+002,1.707059e+001
9.487130e+002,1.866222e+001
9.496772e+002,2.055042e+001
9.506415e+002,2.121332e+001
9.516057e+002,2.047151e+001
9.525699e+002,1.867447e+001
9.535342e+002,1.609982e+001
9.544984e+002,1.293756e+001
9.554626e+002,1.141747e+001
9.564269e+002,1.179260e+001
9.573911e+002,1.272388e+001
9.583553e+002,1.425711e+001
9.593196e+002,1.590843e+001
9.602838e+002,1.686945e+001
9.612480e+002,1.697113e+001
9.622123e+002,1.676932e+001
9.631765e+002,1.646007e+001
9.641407e+002,1.595113e+001
9.651050e+002,1.485271e+001
9.660692e+002,1.347079e+001
9.670334e+002,1.242117e+001
9.679977e+002,1.214677e+001
9.689619e+002,1.262401e+001
9.699261e+002,1.391420e+001
9.708904e+002,1.565984e+001
9.718546e+002,1.707222e+001
9.728188e+002,1.784364e+001
9.737831e+002,1.860081e+001
9.747473e+002,2.047899e+001
9.757115e+002,2.394403e+001
9.766758e+002,2.619620e+001
9.776400e+002,2.663635e+001
9.786042e+002,2.679778e+001
9.795685e+002,2.732214e+001
9.805327e+002,2.745108e+001
9.814969e+002,2.588118e+001
9.824612e+002,2.224712e+001
9.834254e+002,1.865257e+001
9.843896e+002,1.736595e+001
9.853539e+002,1.689096e+001
9.863181e+002,1.557487e+001
9.872823e+002,1.339795e+001
9.882466e+002,1.133087e+001
9.892108e+002,1.032794e+001
9.901750e+002,1.039017e+001
9.911393e+002,1.035197e+001
9.921035e+002,9.524216e+000
9.930677e+002,9.068390e+000
9.940320e+002,9.786072e+000
9.949962e+002,1.055397e+001
9.959604e+002,9.727814e+000
9.969247e+002,7.380920e+000
9.978889e+002,6.779480e+000
9.988531e+002,1.105794e+001
9.998174e+002,1.515778e+001
1.000782e+003,1.593874e+001
1.001746e+003,1.476825e+001
1.002710e+003,1.362357e+001
1.003674e+003,1.341090e+001
1.004639e+003,1.364297e+001
1.005603e+003,1.345825e+001
1.006567e+003,1.276440e+001
1.007531e+003,1.254286e+001
1.008495e+003,1.327037e+001
1.009460e+003,1.356726e+001
1.010424e+003,1.232507e+001
1.011388e+003,9.982880e+000
1.012352e+003,8.175797e+000
1.013317e+003,6.958542e+000
1.014281e+003,6.500916e+000
1.015245e+003,7.168793e+000
1.016209e+003,8.018967e+000
1.017174e+003,8.417404e+000
1.018138e+003,8.343506e+000
1.019102e+003,8.249084e+000
1.020066e+003,8.572311e+000
1.021031e+003,9.070755e+000
1.021995e+003,8.747101e+000
1.022959e+003,7.649933e+000
1.023923e+003,6.303925e+000
1.024887e+003,4.703156e+000
1.025852e+003,3.181839e+000
1.026816e+003,2.364990e+000
1.027780e+003,2.480072e+000
1.028744e+003,2.680130e+000
1.029709e+003,3.643906e+000
1.030673e+003,3.767120e+000
1.031637e+003,2.021805e+000
1.032601e+003,-7.115479e-001
1.033566e+003,-3.621460e+000
1.034530e+003,-6.313980e+000
1.035494e+003,-7.479187e+000
1.036458e+003,-4.317154e+000
1.037422e+003,3.981171e-001
1.038387e+003,1.560135e+000
1.039351e+003,-6.661072e-001
1.040315e+003,-2.727478e+000
1.041279e+003,-1.828064e+000
1.042244e+003,1.304092e+000
1.043208e+003,2.782028e+000
1.044172e+003,1.085953e+000
1.045136e+003,5.981445e-003
1.046101e+003,9.272766e-002
1.047065e+003,4.252625e-001
1.048029e+003,5.388031e-001
1.048993e+003,3.310547e-001
1.049958e+003,-3.972168e-001
1.050922e+003,-2.107925e+000
1.051886e+003,-3.180359e+000
1.052850e+003,-1.201645e+000
1.053814e+003,1.924042e+000
1.054779e+003,3.775452e+000
1.055743e+003,3.810791e+000
1.056707e+003,2.957367e+000
1.057671e+003,2.327194e+000
1.058636e+003,1.897964e+000
1.059600e+003,1.086090e+000
1.060564e+003,-2.961884e-001
1.061528e+003,-1.477951e+000
1.062493e+003,-2.945679e+000
1.063457e+003,-4.000381e+000
1.064421e+003,-3.388824e+000
1.065385e+003,-9.885101e-001
1.066349e+003,9.907227e-001
1.067314e+003,1.361008e+000
1.068278e+003,1.009277e+000
1.069242e+003,3.209229e-001
1.070206e+003,-4.384918e-001
1.071171e+003,-1.033905e+000
1.072135e+003,-1.380859e+000
1.073099e+003,-1.442108e+000
1.074063e+003,-1.028061e+000
1.075028e+003,-2.056885e-002
1.075992e+003,5.188293e-001
1.076956e+003,5.043488e-001
1.077920e+003,1.026917e-001
1.078885e+003,-1.145355e+000
1.079849e+003,-2.407578e+000
1.080813e+003,-1.778412e+000
1.081777e+003,1.527725e+000
1.082741e+003,3.857544e+000
1.083706e+003,1.213318e+000
1.084670e+003,-1.294128e+000
1.085634e+003,1.869354e-001
1.086598e+003,3.855499e+000
1.087563e+003,5.692383e+000
1.088527e+003,3.616425e+000
1.089491e+003,-2.834320e-001
1.090455e+003,-2.058334e+000
1.091420e+003,-1.505630e+000
1.092384e+003,-1.714691e+000
1.093348e+003,-3.253510e+000
1.094312e+003,-4.680283e+000
1.095276e+003,-5.204361e+000
1.096241e+003,-4.840759e+000
1.097205e+003,-3.605423e+000
1.098169e+003,-1.027557e+000
1.099133e+003,7.831421e-001
1.100098e+003,7.731323e-001
1.101062e+003,1.838837e-001
1.102026e+003,-7.435150e-001
1.102990e+003,-1.532303e+000
1.103955e+003,-1.242035e+000
1.104919e+003,6.351318e-001
1.105883e+003,2.901352e+000
1.106847e+003,2.910080e+000
1.107812e+003,5.783844e-001
1.108776e+003,-1.225708e+000
1.109740e+003,-2.447510e+000
1.110704e+003,-3.010468e+000
1.111668e+003,-2.274399e+000
1.112633e+003,-6.075287e-001
1.113597e+003,-1.183472e-001
1.114561e+003,-1.822647e+000
1.115525e+003,-2.995667e+000
1.116490e+003,-2.594955e+000
1.117454e+003,-1.703949e+000
1.118418e+003,-7.336273e-001
1.119382e+003,2.223663e-001
1.120347e+003,1.206421e+000
1.121311e+003,2.152100e+000
1.122275e+003,2.601334e+000
1.123239e+003,1.563797e+000
1.124203e+003,-5.898743e-001
1.125168e+003,-1.054611e+000
1.126132e+003,9.911194e-001
1.127096e+003,3.222488e+000
1.128060e+003,3.663910e+000
1.129025e+003,2.680481e+000
1.129989e+003,2.240692e+000
1.130953e+003,2.734665e+000
1.131917e+003,3.048462e+000
1.132882e+003,2.734940e+000
1.133846e+003,2.418732e+000
1.134810e+003,2.520477e+000
1.135774e+003,2.953583e+000
1.136739e+003,3.307220e+000
1.137703e+003,3.350998e+000
1.138667e+003,3.507523e+000
1.139631e+003,4.680969e+000
1.140595e+003,6.725250e+000
1.141560e+003,8.313995e+000
1.142524e+003,9.264374e+000
1.143488e+003,1.053831e+001
1.144452e+003,1.295735e+001
1.145417e+003,1.618196e+001
1.146381e+003,1.894601e+001
1.147345e+003,2.092923e+001
1.148309e+003,2.308426e+001
1.149274e+003,2.557939e+001
1.150238e+003,2.845995e+001
1.151202e+003,3.169383e+001
1.152166e+003,3.545352e+001
1.153130e+003,4.043680e+001
1.154095e+003,4.669130e+001
1.155059e+003,5.236388e+001
1.156023e+003,5.508621e+001
1.156987e+003,5.478162e+001
1.157952e+003,5.227927e+001
1.158916e+003,4.745012e+001
1.159880e+003,4.239857e+001
1.160844e+003,3.739769e+001
1.161809e+003,3.280304e+001
1.162773e+003,3.008830e+001
1.163737e+003,2.984270e+001
1.164701e+003,2.888620e+001
1.165666e+003,2.596375e+001
1.166630e+003,2.276654e+001
1.167594e+003,1.928601e+001
1.168558e+003,1.615462e+001
1.169522e+003,1.439252e+001
1.170487e+003,1.412299e+001
1.171451e+003,1.417291e+001
1.172415e+003,1.320052e+001
1.173379e+003,1.138202e+001
1.174344e+003,9.813675e+000
1.175308e+003,8.516968e+000
1.176272e+003,7.420670e+000
1.177236e+003,6.290543e+000
1.178201e+003,5.578964e+000
1.179165e+003,6.229401e+000
1.180129e+003,8.196716e+000
1.181093e+003,8.789764e+000
1.182057e+003,6.447235e+000
1.183022e+003,4.261230e+000
1.183986e+003,3.209152e+000
1.184950e+003,2.966064e+000
1.185914e+003,3.376495e+000
1.186879e+003,4.300308e+000
1.187843e+003,5.691635e+000
1.188807e+003,7.518936e+000
1.189771e+003,9.193130e+000
1.190736e+003,8.772842e+000
1.191700e+003,5.941437e+000
1.192664e+003,4.247711e+000
1.193628e+003,5.000015e+000
1.194593e+003,5.764465e+000
1.195557e+003,4.407669e+000
1.196521e+003,1.600922e+000
1.197485e+003,-1.121063e-001
1.198449e+003,2.095032e-002
1.199414e+003,1.260223e-001
1.200378e+003,-1.303574e+000
1.201342e+003,-2.433426e+000
1.202306e+003,-1.690567e+000
1.203271e+003,1.663361e-001
1.204235e+003,1.432999e+000
1.205199e+003,1.305084e+000
1.206163e+003,5.406342e-001
1.207128e+003,4.129639e-001
1.208092e+003,9.946594e-001
1.209056e+003,5.199585e-001
1.210020e+003,-1.680054e+000
1.210984e+003,-3.401627e+000
1.211949e+003,-3.615128e+000
1.212913e+003,-3.315720e+000
1.213877e+003,-3.577713e+000
1.214841e+003,-4.473038e+000
1.215806e+003,-6.151886e+000
1.216770e+003,-9.475723e+000
1.217734e+003,-1.236589e+001
1.218698e+003,-1.359084e+001
1.219663e+003,-1.366635e+001
1.220627e+003,-1.274028e+001
1.221591e+003,-1.119937e+001
1.222555e+003,-1.013005e+001
1.223520e+003,-1.054587e+001
1.224484e+003,-1.205061e+001
1.225448e+003,-1.294238e+001
1.226412e+003,-1.285628e+001
1.227376e+003,-1.298711e+001
1.228341e+003,-1.398775e+001
1.229305e+003,-1.454550e+001
1.230269e+003,-1.324188e+001
1.231233e+003,-1.119540e+001
1.232198e+003,-1.092383e+001
1.233162e+003,-1.312328e+001
1.234126e+003,-1.519441e+001
1.235090e+003,-1.521764e+001
1.236055e+003,-1.436882e+001
1.237019e+003,-1.357210e+001
1.237983e+003,-1.304852e+001
1.238947e+003,-1.320563e+001
1.239911e+003,-1.415518e+001
1.240876e+003,-1.550093e+001
1.241840e+003,-1.681593e+001
1.242804e+003,-1.814093e+001
1.243768e+003,-1.860182e+001
1.244733e+003,-1.777449e+001
1.245697e+003,-1.652327e+001
1.246661e+003,-1.444337e+001
1.247625e+003,-1.256157e+001
1.248590e+003,-1.165503e+001
1.249554e+003,-1.149783e+001
1.250518e+003,-1.130449e+001
1.251482e+003,-1.074597e+001
1.252447e+003,-1.046509e+001
1.253411e+003,-1.139952e+001
1.254375e+003,-1.293564e+001
1.255339e+003,-1.389284e+001
1.256303e+003,-1.417715e+001
1.257268e+003,-1.413948e+001
1.258232e+003,-1.410487e+001
1.259196e+003,-1.393321e+001
1.260160e+003,-1.301677e+001
1.261125e+003,-1.106981e+001
1.262089e+003,-9.621399e+000
1.263053e+003,-9.232300e+000
1.264017e+003,-9.092178e+000
1.264982e+003,-8.960983e+000
1.265946e+003,-8.947388e+000
1.266910e+003,-9.468185e+000
1.267874e+003,-1.025749e+001
1.268839e+003,-1.018515e+001
1.269803e+003,-8.465576e+000
1.270767e+003,-6.460938e+000
1.271731e+003,-7.208130e+000
1.272695e+003,-1.049522e+001
1.273660e+003,-1.149127e+001
1.274624e+003,-9.485397e+000
1.275588e+003,-7.218002e+000
1.276552e+003,-5.514282e+000
1.277517e+003,-4.598663e+000
1.278481e+003,-5.488388e+000
1.279445e+003,-8.468872e+000
1.280409e+003,-1.034010e+001
1.281374e+003,-8.840637e+000
1.282338e+003,-7.651260e+000
1.283302e+003,-9.318085e+000
1.284266e+003,-1.193573e+001
1.285230e+003,-1.342380e+001
1.286195e+003,-1.343184e+001
1.287159e+003,-1.261957e+001
1.288123e+003,-1.147632e+001
1.289087e+003,-1.030261e+001
1.290052e+003,-1.024995e+001
1.291016e+003,-1.183594e+001
1.291980e+003,-1.302991e+001
1.292944e+003,-1.355878e+001
1.293909e+003,-1.426015e+001
1.294873e+003,-1.583072e+001
1.295837e+003,-1.739368e+001
1.296801e+003,-1.750922e+001
1.297766e+003,-1.611115e+001
1.298730e+003,-1.500076e+001
1.299694e+003,-1.550108e+001
1.300658e+003,-1.605812e+001
1.301622e+003,-1.430058e+001
1.302587e+003,-1.160535e+001
1.303551e+003,-1.036186e+001
1.304515e+003,-1.086479e+001
1.305479e+003,-1.154707e+001
1.306444e+003,-1.114259e+001
1.307408e+003,-1.014400e+001
1.308372e+003,-1.014594e+001
1.309336e+003,-1.156190e+001
1.310301e+003,-1.273543e+001
1.311265e+003,-1.376527e+001
1.312229e+003,-1.421178e+001
1.313193e+003,-1.318622e+001
1.314157e+003,-1.204810e+001
1.315122e+003,-1.308107e+001
1.316086e+003,-1.574467e+001
1.317050e+003,-1.617624e+001
1.318014e+003,-1.154588e+001
1.318979e+003,-5.583832e+000
1.319943e+003,-5.525925e+000
1.320907e+003,-1.062268e+001
1.321871e+003,-1.380394e+001
1.322836e+003,-1.475519e+001
1.323800e+003,-1.444911e+001
1.324764e+003,-1.249750e+001
1.325728e+003,-1.002667e+001
1.326693e+003,-9.171097e+000
1.327657e+003,-1.006985e+001
1.328621e+003,-1.084094e+001
1.329585e+003,-1.051556e+001
1.330549e+003,-1.026041e+001
1.331514e+003,-1.131265e+001
1.332478e+003,-1.264252e+001
1.333442e+003,-1.311394e+001
1.334406e+003,-1.274602e+001
1.335371e+003,-1.226724e+001
1.336335e+003,-1.212637e+001
1.337299e+003,-1.210271e+001
1.338263e+003,-1.181975e+001
1.339228e+003,-1.127606e+001
1.340192e+003,-1.041881e+001
1.341156e+003,-8.449463e+000
1.342120e+003,-7.355255e+000
1.343084e+003,-8.162125e+000
1.344049e+003,-9.458679e+000
1.345013e+003,-1.004153e+001
1.345977e+003,-9.958237e+000
1.346941e+003,-9.963104e+000
1.347906e+003,-1.036877e+001
1.348870e+003,-1.033313e+001
1.349834e+003,-8.508804e+000
1.350798e+003,-6.282745e+000
1.351763e+003,-6.406403e+000
1.352727e+003,-8.465134e+000
1.353691e+003,-1.016844e+001
1.354655e+003,-1.073825e+001
1.355620e+003,-1.048637e+001
1.356584e+003,-9.411331e+000
1.357548e+003,-7.642426e+000
1.358512e+003,-6.728165e+000
1.359476e+003,-7.163879e+000
1.360441e+003,-7.646667e+000
1.361405e+003,-7.662659e+000
1.362369e+003,-7.736679e+000
1.363333e+003,-8.298553e+000
1.364298e+003,-8.990463e+000
1.365262e+003,-9.175690e+000
1.366226e+003,-8.808044e+000
1.367190e+003,-8.592728e+000
1.368155e+003,-9.178146e+000
1.369119e+003,-1.011845e+001
1.370083e+003,-9.915894e+000
1.371047e+003,-8.032623e+000
1.372011e+003,-7.104996e+000
1.372976e+003,-7.625061e+000
1.373940e+003,-8.608963e+000
1.374904e+003,-1.041431e+001
1.375868e+003,-1.194151e+001
1.376833e+003,-1.129796e+001
1.377797e+003,-8.770035e+000
1.378761e+003,-7.212997e+000
1.379725e+003,-7.976654e+000
1.380690e+003,-9.476273e+000
1.381654e+003,-1.054573e+001
1.382618e+003,-1.105261e+001
1.383582e+003,-1.056583e+001
1.384547e+003,-9.210861e+000
1.385511e+003,-7.893997e+000
1.386475e+003,-7.099289e+000
1.387439e+003,-6.624725e+000
1.388403e+003,-6.138535e+000
1.389368e+003,-5.652237e+000
1.390332e+003,-5.377731e+000
1.391296e+003,-5.283981e+000
1.392260e+003,-5.350113e+000
1.393225e+003,-5.597794e+000
1.394189e+003,-5.996109e+000
1.395153e+003,-6.686249e+000
1.396117e+003,-7.439697e+000
1.397082e+003,-7.803345e+000
1.398046e+003,-7.733932e+000
1.399010e+003,-7.910675e+000
1.399974e+003,-9.058609e+000
1.400938e+003,-1.058655e+001
1.401903e+003,-1.017085e+001
1.402867e+003,-6.779831e+000
1.403831e+003,-4.778702e+000
1.404795e+003,-5.625671e+000
1.405760e+003,-6.078979e+000
1.406724e+003,-4.404388e+000
1.407688e+003,-2.532974e+000
1.408652e+003,-2.854950e+000
1.409617e+003,-5.028030e+000
1.410581e+003,-6.724609e+000
1.411545e+003,-7.017151e+000
1.412509e+003,-6.725494e+000
1.413474e+003,-6.493271e+000
1.414438e+003,-6.421555e+000
1.415402e+003,-6.594116e+000
1.416366e+003,-6.845810e+000
1.417330e+003,-6.730957e+000
1.418295e+003,-6.077484e+000
1.419259e+003,-4.993027e+000
1.420223e+003,-3.264557e+000
1.421187e+003,-1.210297e+000
1.422152e+003,-5.723724e-001
1.423116e+003,-1.695206e+000
1.424080e+003,-2.821686e+000
1.425044e+003,-3.814926e+000
1.426009e+003,-4.557785e+000
1.426973e+003,-4.864578e+000
1.427937e+003,-4.973755e+000
1.428901e+003,-5.174515e+000
1.429865e+003,-5.407059e+000
1.430830e+003,-5.244598e+000
1.431794e+003,-4.473862e+000
1.432758e+003,-3.741959e+000
1.433722e+003,-4.291306e+000
1.434687e+003,-6.167038e+000
1.435651e+003,-6.767776e+000
1.436615e+003,-5.507446e+000
1.437579e+003,-4.540741e+000
1.438544e+003,-3.850113e+000
1.439508e+003,-3.616760e+000
1.440472e+003,-4.378830e+000
1.441436e+003,-5.406158e+000
1.442401e+003,-5.228973e+000
1.443365e+003,-3.660675e+000
1.444329e+003,-2.400940e+000
1.445293e+003,-2.861969e+000
1.446257e+003,-3.754700e+000
1.447222e+003,-2.028702e+000
1.448186e+003,1.549973e+000
1.449150e+003,2.469925e+000
1.450114e+003,-2.904510e-001
1.451079e+003,-3.221878e+000
1.452043e+003,-4.726883e+000
1.453007e+003,-5.146927e+000
1.453971e+003,-4.630630e+000
1.454936e+003,-3.415222e+000
1.455900e+003,-2.950638e+000
1.456864e+003,-3.768448e+000
1.457828e+003,-4.343750e+000
1.458792e+003,-3.742126e+000
1.459757e+003,-2.699356e+000
1.460721e+003,-1.469894e+000
1.461685e+003,-3.530426e-001
1.462649e+003,1.201477e-001
1.463614e+003,-1.191711e-001
1.464578e+003,-6.200714e-001
1.465542e+003,-1.017822e+000
1.466506e+003,-1.467239e+000
1.467471e+003,-2.259018e+000
1.468435e+003,-3.238602e+000
1.469399e+003,-4.803665e+000
1.470363e+003,-8.995880e+000
1.471328e+003,-1.103191e+001
1.472292e+003,-8.344391e+000
1.473256e+003,-4.870590e+000
1.474220e+003,-3.111877e+000
1.475184e+003,-2.685883e+000
1.476149e+003,-2.239853e+000
1.477113e+003,-1.446350e+000
1.478077e+003,-1.284958e+000
1.479041e+003,-2.673599e+000
1.480006e+003,-4.848541e+000
1.480970e+003,-5.428238e+000
1.481934e+003,-4.072678e+000
1.482898e+003,-2.941833e+000
1.483863e+003,-2.394547e+000
1.484827e+003,-1.600906e+000
1.485791e+003,4.083252e-001
1.486755e+003,2.273666e+000
1.487719e+003,2.232452e+000
1.488684e+003,9.278564e-001
1.489648e+003,4.907532e-001
1.490612e+003,1.636215e+000
1.491576e+003,3.243851e+000
1.492541e+003,4.547287e+000
1.493505e+003,5.332535e+000
1.494469e+003,4.589706e+000
1.495433e+003,2.599548e+000
1.496398e+003,2.075012e+000
1.497362e+003,3.905624e+000
1.498326e+003,5.929871e+000
1.499290e+003,7.125061e+000
1.500255e+003,7.781769e+000
1.501219e+003,7.773849e+000
1.502183e+003,7.393661e+000
1.503147e+003,8.446701e+000
1.504111e+003,1.149574e+001
1.505076e+003,1.516823e+001
1.506040e+003,1.936119e+001
1.507004e+003,2.311218e+001
1.507968e+003,2.536038e+001
1.508933e+003,2.657590e+001
1.509897e+003,2.728050e+001
1.510861e+003,2.785913e+001
1.511825e+003,3.013916e+001
1.512790e+003,3.564671e+001
1.513754e+003,4.278760e+001
1.514718e+003,4.883522e+001
1.515682e+003,5.370612e+001
1.516646e+003,5.789059e+001
1.517611e+003,6.142870e+001
1.518575e+003,6.456816e+001
1.519539e+003,6.717844e+001
1.520503e+003,6.981265e+001
1.521468e+003,7.358282e+001
1.522432e+003,7.701958e+001
1.523396e+003,7.794341e+001
1.524360e+003,7.628125e+001
1.525325e+003,7.362225e+001
1.526289e+003,7.105421e+001
1.527253e+003,6.863286e+001
1.528217e+003,6.648553e+001
1.529182e+003,6.469824e+001
1.530146e+003,6.214609e+001
1.531110e+003,5.916930e+001
1.532074e+003,5.454045e+001
1.533039e+003,4.631049e+001
1.534003e+003,3.838951e+001
1.534967e+003,3.307410e+001
1.535931e+003,2.896054e+001
1.536896e+003,2.397807e+001
1.537860e+003,1.839737e+001
1.538824e+003,1.416277e+001
1.539788e+003,1.217429e+001
1.540752e+003,1.118649e+001
1.541717e+003,9.651886e+000
1.542681e+003,7.796768e+000
1.543645e+003,6.759521e+000
1.544609e+003,7.029129e+000
1.545573e+003,7.199341e+000
1.546538e+003,6.966965e+000
1.547502e+003,6.730957e+000
1.548466e+003,6.978027e+000
1.549430e+003,7.287231e+000
1.550395e+003,6.893768e+000
1.551359e+003,6.059128e+000
1.552323e+003,5.991852e+000
1.553287e+003,7.041595e+000
1.554252e+003,7.712219e+000
1.555216e+003,6.596542e+000
1.556180e+003,4.417114e+000
1.557144e+003,2.663406e+000
1.558109e+003,1.411850e+000
1.559073e+003,1.351486e+000
1.560037e+003,3.261505e+000
1.561001e+003,4.383209e+000
1.561966e+003,3.000183e+000
1.562930e+003,1.510101e+000
1.563894e+003,2.364594e+000
1.564858e+003,4.689041e+000
1.565823e+003,6.376556e+000
1.566787e+003,6.968887e+000
1.567751e+003,6.656998e+000
1.568715e+003,5.278046e+000
1.569679e+003,3.983841e+000
1.570644e+003,4.460999e+000
1.571608e+003,5.981293e+000
1.572572e+003,6.661896e+000
1.573536e+003,6.513062e+000
1.574500e+003,5.964340e+000
1.575465e+003,4.724686e+000
1.576429e+003,3.713898e+000
1.577393e+003,3.514832e+000
1.578357e+003,4.069687e+000
1.579322e+003,5.850845e+000
1.580286e+003,8.710800e+000
1.581250e+003,1.015904e+001
1.582214e+003,9.042618e+000
1.583179e+003,7.905396e+000
1.584143e+003,9.018997e+000
1.585107e+003,1.063434e+001
1.586071e+003,1.033330e+001
1.587036e+003,8.800156e+000
1.588000e+003,7.787720e+000
1.588964e+003,7.593994e+000
1.589928e+003,7.764847e+000
1.590893e+003,8.261154e+000
1.591857e+003,8.747360e+000
1.592821e+003,8.216827e+000
1.593785e+003,7.101410e+000
1.594750e+003,8.475693e+000
1.595714e+003,1.338545e+001
1.596678e+003,1.587044e+001
1.597642e+003,1.186362e+001
1.598606e+003,7.225601e+000
1.599571e+003,6.831543e+000
1.600535e+003,8.559784e+000
1.601499e+003,9.755814e+000
1.602463e+003,1.032112e+001
1.603427e+003,1.152844e+001
1.604392e+003,1.403357e+001
1.605356e+003,1.630283e+001
1.606320e+003,1.641167e+001
1.607284e+003,1.522156e+001
1.608249e+003,1.559784e+001
1.609213e+003,1.764316e+001
1.610177e+003,1.767673e+001
1.611141e+003,1.409181e+001
1.612106e+003,1.098213e+001
1.613070e+003,1.075938e+001
1.614034e+003,1.133679e+001
1.614998e+003,1.128195e+001
1.615963e+003,1.097882e+001
1.616927e+003,1.120750e+001
1.617891e+003,1.202168e+001
1.618855e+003,1.293578e+001
1.619820e+003,1.369455e+001
1.620784e+003,1.392500e+001
1.621748e+003,1.260289e+001
1.622712e+003,1.040663e+001
1.623677e+003,1.132014e+001
1.624641e+003,1.623326e+001
1.625605e+003,1.911281e+001
1.626569e+003,1.711314e+001
1.627533e+003,1.496230e+001
1.628498e+003,1.533543e+001
1.629462e+003,1.645178e+001
1.630426e+003,1.675166e+001
1.631390e+003,1.653996e+001
1.632354e+003,1.692728e+001
1.633319e+003,1.808128e+001
1.634283e+003,1.887093e+001
1.635247e+003,1.839285e+001
1.636211e+003,1.721573e+001
1.637176e+003,1.621501e+001
1.638140e+003,1.547394e+001
1.639104e+003,1.580095e+001
1.640068e+003,1.782549e+001
1.641033e+003,1.828815e+001
1.641997e+003,1.482828e+001
1.642961e+003,1.199005e+001
1.643925e+003,1.257036e+001
1.644890e+003,1.431409e+001
1.645854e+003,1.515398e+001
1.646818e+003,1.514874e+001
1.647782e+003,1.510796e+001
1.648747e+003,1.527643e+001
1.649711e+003,1.533421e+001
1.650675e+003,1.505742e+001
1.651639e+003,1.462628e+001
1.652604e+003,1.412119e+001
1.653568e+003,1.351031e+001
1.654532e+003,1.380978e+001
1.655496e+003,1.559494e+001
1.656460e+003,1.637881e+001
1.657425e+003,1.456279e+001
1.658389e+003,1.288065e+001
1.659353e+003,1.319310e+001
1.660317e+003,1.407341e+001
1.661281e+003,1.361638e+001
1.662246e+003,1.232928e+001
1.663210e+003,1.261540e+001
1.664174e+003,1.518495e+001
1.665138e+003,1.691577e+001
1.666103e+003,1.468610e+001
1.667067e+003,1.057892e+001
1.668031e+003,8.943695e+000
1.668995e+003,9.640427e+000
1.669960e+003,1.025882e+001
1.670924e+003,1.083215e+001
1.671888e+003,1.053038e+001
1.672852e+003,8.126266e+000
1.673817e+003,6.076996e+000
1.674781e+003,6.527237e+000
1.675745e+003,7.667664e+000
1.676709e+003,7.101501e+000
1.677674e+003,5.444397e+000
1.678638e+003,5.415085e+000
1.679602e+003,7.831299e+000
1.680566e+003,9.808548e+000
1.681531e+003,8.880646e+000
1.682495e+003,6.653549e+000
1.683459e+003,5.907425e+000
1.684423e+003,6.264328e+000
1.685387e+003,5.371948e+000
1.686352e+003,2.773117e+000
1.687316e+003,1.336700e+000
1.688280e+003,2.230362e+000
1.689244e+003,4.002197e+000
1.690208e+003,6.370605e+000
1.691173e+003,8.455215e+000
1.692137e+003,9.059509e+000
1.693101e+003,8.628860e+000
1.694065e+003,8.595779e+000
1.695030e+003,9.245605e+000
1.695994e+003,9.222183e+000
1.696958e+003,6.981003e+000
1.697922e+003,4.626999e+000
1.698887e+003,5.535461e+000
1.699851e+003,8.386887e+000
1.700815e+003,8.783981e+000
1.701779e+003,6.356613e+000
1.702744e+003,4.129822e+000
1.703708e+003,3.114624e+000
1.704672e+003,2.690262e+000
1.705636e+003,2.443649e+000
1.706601e+003,2.248199e+000
1.707565e+003,2.026611e+000
1.708529e+003,1.901871e+000
1.709493e+003,2.163986e+000
1.710458e+003,2.906647e+000
1.711422e+003,3.297379e+000
1.712386e+003,2.674164e+000
1.713350e+003,2.123657e+000
1.714314e+003,2.890152e+000
1.715279e+003,3.903625e+000
1.716243e+003,2.758133e+000
1.717207e+003,8.280945e-002
1.718171e+003,6.964111e-002
1.719135e+003,3.890747e+000
1.720100e+003,6.471069e+000
1.721064e+003,3.972794e+000
1.722028e+003,-2.180786e-001
1.722992e+003,-1.031769e+000
1.723957e+003,9.230804e-001
1.724921e+003,1.390793e+000
1.725885e+003,-1.063690e-001
1.726849e+003,-9.991913e-001
1.727814e+003,-3.584442e-001
1.728778e+003,5.881500e-001
1.729742e+003,1.617691e+000
1.730706e+003,2.377716e+000
1.731671e+003,2.178696e+000
1.732635e+003,1.389084e+000
1.733599e+003,8.465118e-001
1.734563e+003,9.004059e-001
1.735528e+003,2.056931e+000
1.736492e+003,4.525711e+000
1.737456e+003,6.284821e+000
1.738420e+003,4.740891e+000
1.739385e+003,9.573212e-001
1.740349e+003,-8.120575e-001
1.741313e+003,-2.828979e-002
1.742277e+003,4.282227e-001
1.743241e+003,6.972046e-001
1.744206e+003,6.163177e-001
1.745170e+003,-4.680176e-001
1.746134e+003,-1.283417e+000
1.747098e+003,-1.040771e+000
1.748063e+003,-2.383270e-001
1.749027e+003,8.399200e-001
1.749991e+003,1.866501e+000
1.750955e+003,2.233521e+000
1.751919e+003,1.793793e+000
1.752884e+003,1.119064e+000
1.753848e+003,6.820374e-001
1.754812e+003,3.231049e-001
1.755776e+003,-2.361755e-001
1.756741e+003,-8.966370e-001
1.757705e+003,-1.116379e+000
1.758669e+003,-6.142426e-001
1.759633e+003,-7.597809e-001
1.760598e+003,-2.806595e+000
1.761562e+003,-4.024734e+000
1.762526e+003,-2.442627e+000
1.763490e+003,-7.824249e-001
1.764455e+003,-1.353638e+000
1.765419e+003,-2.914139e+000
1.766383e+003,-3.588303e+000
1.767347e+003,-3.106277e+000
1.768312e+003,-1.684814e+000
1.769276e+003,5.880585e-001
1.770240e+003,2.121460e+000
1.771204e+003,1.030273e+000
1.772168e+003,-1.442200e+000
1.773133e+003,-2.703827e+000
1.774097e+003,-2.855972e+000
1.775061e+003,-2.852798e+000
1.776025e+003,-2.890259e+000
1.776990e+003,-2.679871e+000
1.777954e+003,-1.892090e+000
1.778918e+003,-1.013901e+000
1.779882e+003,-2.389069e-001
1.780846e+003,1.135101e-001
1.781811e+003,-6.456146e-001
1.782775e+003,-2.031311e+000
1.783739e+003,-2.370987e+000
1.784703e+003,-1.295288e+000
1.785668e+003,-4.164124e-001
1.786632e+003,-8.634949e-001
1.787596e+003,-1.318497e+000
1.788560e+003,-3.984070e-002
1.789525e+003,1.516464e+000
1.790489e+003,4.794464e-001
1.791453e+003,-2.199966e+000
1.792417e+003,-2.725876e+000
1.793382e+003,-5.281525e-001
1.794346e+003,1.135757e+000
1.795310e+003,4.817047e-001
1.796274e+003,-6.792908e-001
1.797239e+003,-7.601929e-002
1.798203e+003,1.514114e+000
1.799167e+003,9.629822e-001
1.800131e+003,-2.668564e+000
1.801095e+003,-3.443939e+000
1.802060e+003,2.152054e+000
1.803024e+003,5.084290e+000
1.803988e+003,1.844543e+000
1.804952e+003,-1.099854e+000
1.805917e+003,1.714478e-001
1.806881e+003,2.468033e+000
1.807845e+003,2.376648e+000
1.808809e+003,6.642151e-001
1.809773e+003,-3.329163e-001
1.810738e+003,-1.413727e-001
1.811702e+003,-3.546143e-002
1.812666e+003,-8.111115e-001
1.813630e+003,-1.722916e+000
1.814595e+003,-1.779282e+000
1.815559e+003,-1.143524e+000
1.816523e+003,-1.255646e-001
1.817487e+003,1.439529e+000
1.818452e+003,1.559036e+000
1.819416e+003,-5.531616e-001
1.820380e+003,-1.779358e+000
1.821344e+003,-7.382965e-001
1.822309e+003,4.160461e-001
1.823273e+003,2.701416e-001
1.824237e+003,-1.273804e-001
1.825201e+003,5.436401e-001
1.826166e+003,1.716095e+000
1.827130e+003,1.679535e+000
1.828094e+003,1.438141e-001
1.829058e+003,-1.253708e+000
1.830022e+003,-1.735229e+000
1.830987e+003,-1.695648e+000
1.831951e+003,-1.365662e+000
1.832915e+003,-7.804718e-001
1.833879e+003,6.029358e-001
1.834844e+003,2.096619e+000
1.835808e+003,1.030350e+000
1.836772e+003,-2.562576e+000
1.837736e+003,-4.632370e+000
1.838700e+003,-3.429718e+000
1.839665e+003,-1.084518e+000
1.840629e+003,7.102814e-001
1.841593e+003,1.856781e+000
1.842557e+003,1.997116e+000
1.843522e+003,1.142868e+000
1.844486e+003,4.446869e-001
1.845450e+003,5.681305e-001
1.846414e+003,-2.348480e-001
1.847379e+003,-4.099167e+000
1.848343e+003,-6.242920e+000
1.849307e+003,-3.896027e+000
1.850271e+003,-6.930695e-001
1.851236e+003,1.389343e+000
1.852200e+003,2.338791e+000
1.853164e+003,1.849884e+000
1.854128e+003,4.627075e-001
1.855093e+003,-1.245422e-001
1.856057e+003,7.085876e-001
1.857021e+003,1.563416e+000
1.857985e+003,1.170776e+000
1.858949e+003,3.121796e-001
1.859914e+003,3.786163e-001
1.860878e+003,1.250992e+000
1.861842e+003,2.196289e+000
1.862806e+003,3.182846e+000
1.863771e+003,3.770279e+000
1.864735e+003,3.731369e+000
1.865699e+003,3.932281e+000
1.866663e+003,5.404190e+000
1.867627e+003,6.105362e+000
1.868592e+003,3.093658e+000
1.869556e+003,-1.348221e+000
1.870520e+003,-2.746094e+000
1.871484e+003,-1.443680e+000
1.872449e+003,7.396545e-001
1.873413e+003,4.652969e+000
1.874377e+003,6.646408e+000
1.875341e+003,3.362000e+000
1.876306e+003,4.246063e-001
1.877270e+003,1.611938e+000
1.878234e+003,3.794449e+000
1.879198e+003,3.698135e+000
1.880163e+003,2.290787e+000
1.881127e+003,1.768387e+000
1.882091e+003,2.356171e+000
1.883055e+003,3.146423e+000
1.884020e+003,3.666351e+000
1.884984e+003,3.662399e+000
1.885948e+003,2.885620e+000
1.886912e+003,1.797440e+000
1.887876e+003,1.336838e+000
1.888841e+003,1.469803e+000
1.889805e+003,1.670227e+000
1.890769e+003,1.928314e+000
1.891733e+003,2.334366e+000
1.892698e+003,2.947937e+000
1.893662e+003,3.388550e+000
1.894626e+003,3.388992e+000
1.895590e+003,3.428391e+000
1.896554e+003,3.960312e+000
1.897519e+003,4.719299e+000
1.898483e+003,5.756866e+000
1.899447e+003,6.578079e+000
1.900411e+003,5.385040e+000
1.901376e+003,1.725998e+000
1.902340e+003,-3.284760e-001
1.903304e+003,1.911835e+000
1.904268e+003,4.238220e+000
1.905233e+003,3.555969e+000
1.906197e+003,2.300888e+000
1.907161e+003,3.563110e+000
1.908125e+003,5.854568e+000
1.909090e+003,5.911163e+000
1.910054e+003,3.896408e+000
1.911018e+003,2.321579e+000
1.911982e+003,2.089539e+000
1.912947e+003,2.327835e+000
1.913911e+003,2.365768e+000
1.914875e+003,2.249359e+000
1.915839e+003,1.933105e+000
1.916803e+003,1.563446e+000
1.917768e+003,2.594269e+000
1.918732e+003,5.620834e+000
1.919696e+003,6.319946e+000
1.920660e+003,3.312241e+000
1.921625e+003,2.016830e+000
1.922589e+003,4.790039e+000
1.923553e+003,7.383896e+000
1.924517e+003,7.380783e+000
1.925481e+003,6.417572e+000
1.926446e+003,5.695358e+000
1.927410e+003,5.153839e+000
1.928374e+003,4.372375e+000
1.929338e+003,3.370438e+000
1.930303e+003,3.347900e+000
1.931267e+003,5.198853e+000
1.932231e+003,6.606903e+000
1.933195e+003,6.456879e+000
1.934160e+003,5.396408e+000
1.935124e+003,2.703262e+000
1.936088e+003,2.707214e-001
1.937052e+003,1.232574e+000
1.938017e+003,4.156418e+000
1.938981e+003,5.359802e+000
1.939945e+003,4.484726e+000
1.940909e+003,3.810364e+000
1.941874e+003,4.337845e+000
1.942838e+003,4.972366e+000
1.943802e+003,4.773941e+000
1.944766e+003,4.142288e+000
1.945730e+003,3.563843e+000
1.946695e+003,3.052856e+000
1.947659e+003,3.345810e+000
1.948623e+003,4.480927e+000
1.949587e+003,5.969467e+000
1.950552e+003,8.318085e+000
1.951516e+003,8.736511e+000
1.952480e+003,5.144150e+000
1.953444e+003,1.905350e+000
1.954408e+003,2.590775e+000
1.955373e+003,4.651138e+000
1.956337e+003,4.426239e+000
1.957301e+003,2.760422e+000
1.958265e+003,2.303284e+000
1.959230e+003,3.224625e+000
1.960194e+003,4.524033e+000
1.961158e+003,6.513657e+000
1.962122e+003,7.864288e+000
1.963087e+003,8.175720e+000
1.964051e+003,7.877686e+000
1.965015e+003,6.765549e+000
1.965979e+003,5.740723e+000
1.966944e+003,5.756485e+000
1.967908e+003,6.315811e+000
1.968872e+003,6.401474e+000
1.969836e+003,6.004547e+000
1.970801e+003,5.986465e+000
1.971765e+003,6.681992e+000
1.972729e+003,7.191238e+000
1.973693e+003,6.573502e+000
1.974657e+003,5.860428e+000
1.975622e+003,6.999878e+000
1.976586e+003,9.053818e+000
1.977550e+003,9.278290e+000
1.978514e+003,8.071823e+000
1.979479e+003,7.990204e+000
1.980443e+003,9.310059e+000
1.981407e+003,1.030354e+001
1.982371e+003,1.038197e+001
1.983335e+003,9.706741e+000
1.984300e+003,8.203598e+000
1.985264e+003,6.619156e+000
1.986228e+003,6.222672e+000
1.987192e+003,6.767670e+000
1.988157e+003,6.974045e+000
1.989121e+003,6.739975e+000
1.990085e+003,6.927551e+000
1.991049e+003,8.143631e+000
1.992014e+003,8.662399e+000
1.992978e+003,7.547684e+000
1.993942e+003,6.598801e+000
1.994906e+003,6.505875e+000
1.995871e+003,6.718979e+000
1.996835e+003,6.794434e+000
1.997799e+003,7.008011e+000
1.998763e+003,8.073486e+000
1.999728e+003,9.611893e+000
