5.003444e+002,3.836725e+001
5.013087e+002,3.565204e+001
5.022729e+002,3.517114e+001
5.032371e+002,3.655542e+001
5.042014e+002,3.665906e+001
5.051656e+002,3.575757e+001
5.061298e+002,3.461926e+001
5.070941e+002,3.377936e+001
5.080583e+002,3.296698e+001
5.090225e+002,3.285358e+001
5.099868e+002,3.435431e+001
5.109510e+002,3.537311e+001
5.119152e+002,3.459521e+001
5.128795e+002,3.188269e+001
5.138437e+002,2.949243e+001
5.148079e+002,2.840820e+001
5.157722e+002,2.779828e+001
5.167364e+002,2.680719e+001
5.177006e+002,2.550433e+001
5.186649e+002,2.511755e+001
5.196291e+002,2.939453e+001
5.205933e+002,3.471143e+001
5.215576e+002,3.548798e+001
5.225218e+002,3.132446e+001
5.234860e+002,2.522998e+001
5.244503e+002,2.307892e+001
5.254145e+002,2.699927e+001
5.263787e+002,2.933203e+001
5.273430e+002,2.928839e+001
5.283072e+002,2.821942e+001
5.292714e+002,2.782251e+001
5.302357e+002,2.802301e+001
5.311999e+002,2.776001e+001
5.321641e+002,2.778986e+001
5.331284e+002,2.771967e+001
5.340926e+002,2.677405e+001
5.350568e+002,2.437500e+001
5.360211e+002,2.181787e+001
5.369853e+002,2.125140e+001
5.379495e+002,2.139551e+001
5.389138e+002,2.067352e+001
5.398780e+002,1.860577e+001
5.408422e+002,1.627948e+001
5.418065e+002,1.755963e+001
5.427707e+002,2.182672e+001
5.437349e+002,2.487061e+001
5.446992e+002,2.547174e+001
5.456634e+002,2.405573e+001
5.466276e+002,2.225232e+001
5.475919e+002,1.910382e+001
5.485561e+002,1.720300e+001
5.495203e+002,1.671985e+001
5.504846e+002,1.716241e+001
5.514488e+002,1.834406e+001
5.524130e+002,2.141559e+001
5.533773e+002,2.297998e+001
5.543415e+002,2.021515e+001
5.553057e+002,1.601263e+001
5.562700e+002,1.347601e+001
5.572342e+002,1.442719e+001
5.581984e+002,1.681445e+001
5.591627e+002,1.566144e+001
5.601269e+002,1.251270e+001
5.610911e+002,9.954468e+000
5.620554e+002,9.238525e+000
5.630196e+002,9.917725e+000
5.639838e+002,9.360840e+000
5.649481e+002,5.625732e+000
5.659123e+002,3.502747e+000
5.668765e+002,5.718933e+000
5.678408e+002,1.076367e+001
5.688050e+002,1.351703e+001
5.697692e+002,9.894653e+000
5.707335e+002,6.431152e+000
5.716977e+002,5.763306e+000
5.726619e+002,6.555603e+000
5.736262e+002,6.844971e+000
5.745904e+002,5.295715e+000
5.755546e+002,3.198547e+000
5.765189e+002,1.784546e+000
5.774831e+002,8.348999e-001
5.784473e+002,6.458130e-001
5.794116e+002,1.585144e+000
5.803758e+002,3.848816e+000
5.813400e+002,6.593201e+000
5.823043e+002,1.017529e+001
5.832685e+002,1.181219e+001
5.842327e+002,9.792297e+000
5.851970e+002,5.086060e+000
5.861612e+002,2.313965e+000
5.871254e+002,2.916016e+000
5.880897e+002,4.198669e+000
5.890539e+002,6.272034e+000
5.900181e+002,8.343262e+000
5.909824e+002,9.318176e+000
5.919466e+002,8.316406e+000
5.929108e+002,6.829407e+000
5.938751e+002,6.384155e+000
5.948393e+002,6.621887e+000
5.958035e+002,7.305115e+000
5.967678e+002,8.289185e+000
5.977320e+002,9.481934e+000
5.986962e+002,8.157227e+000
5.996605e+002,3.725464e+000
6.006247e+002,1.090088e-001
6.015889e+002,-6.310425e-001
6.025532e+002,1.372864e+000
6.035174e+002,3.283508e+000
6.044816e+002,5.059326e+000
6.054459e+002,6.947815e+000
6.064101e+002,9.653015e+000
6.073743e+002,1.234027e+001
6.083386e+002,1.353864e+001
6.093028e+002,1.219257e+001
6.102670e+002,9.873230e+000
6.112313e+002,7.149231e+000
6.121955e+002,4.586487e+000
6.131597e+002,2.909119e+000
6.141240e+002,2.596313e+000
6.150882e+002,3.357971e+000
6.160524e+002,4.551086e+000
6.170167e+002,6.283569e+000
6.179809e+002,7.917725e+000
6.189451e+002,9.071716e+000
6.199094e+002,9.511597e+000
6.208736e+002,8.958191e+000
6.218378e+002,7.050781e+000
6.228021e+002,5.317993e+000
6.237663e+002,3.397888e+000
6.247305e+002,1.986938e+000
6.256948e+002,2.425171e+000
6.266590e+002,6.189392e+000
6.276232e+002,8.519470e+000
6.285875e+002,6.357605e+000
6.295517e+002,2.374023e+000
6.305159e+002,-9.811401e-001
6.314802e+002,-2.444336e+000
6.324444e+002,-2.820313e+000
6.334086e+002,-3.572693e+000
6.343729e+002,-4.280518e+000
6.353371e+002,-4.672974e+000
6.363013e+002,-4.764343e+000
6.372656e+002,-4.675720e+000
6.382298e+002,-4.481995e+000
6.391940e+002,-4.133606e+000
6.401583e+002,-4.047974e+000
6.411225e+002,-4.052551e+000
6.420867e+002,-3.578857e+000
6.430510e+002,-1.972595e+000
6.440152e+002,1.119141e+000
6.449794e+002,3.170715e+000
6.459437e+002,2.422180e+000
6.469079e+002,7.202759e-001
6.478721e+002,-4.199829e-001
6.488364e+002,-3.934326e-001
6.498006e+002,1.851196e-001
6.507648e+002,6.597900e-002
6.517291e+002,-6.869507e-001
6.526933e+002,-1.806885e+000
6.536575e+002,-3.322144e+000
6.546218e+002,-4.726257e+000
6.555860e+002,-4.940430e+000
6.565502e+002,-2.848694e+000
6.575145e+002,-2.169617e+000
6.584787e+002,-4.510803e+000
6.594429e+002,-6.746948e+000
6.604072e+002,-5.614929e+000
6.613714e+002,-1.610718e-001
6.623356e+002,3.523193e+000
6.632999e+002,8.929443e-002
6.642641e+002,-4.246277e+000
6.652283e+002,-5.943359e+000
6.661926e+002,-4.686096e+000
6.671568e+002,-2.582031e+000
6.681210e+002,-2.409607e+000
6.690853e+002,-3.445190e+000
6.700495e+002,-3.257568e+000
6.710137e+002,-1.803711e+000
6.719780e+002,3.685913e-001
6.729422e+002,2.777222e+000
6.739064e+002,5.541199e+000
6.748707e+002,6.592590e+000
6.758349e+002,5.731812e+000
6.767991e+002,3.829773e+000
6.777634e+002,5.549927e-001
6.787276e+002,-3.369751e+000
6.796918e+002,-4.913269e+000
6.806561e+002,-9.127808e-001
6.816203e+002,2.752075e+000
6.825845e+002,4.047729e+000
6.835488e+002,3.420959e+000
6.845130e+002,1.607483e+000
6.854772e+002,-9.811401e-001
6.864415e+002,-3.064026e+000
6.874057e+002,-1.946289e+000
6.883699e+002,9.029541e-001
6.893342e+002,2.843933e+000
6.902984e+002,2.495911e+000
6.912626e+002,2.823486e-001
6.922269e+002,-1.719177e+000
6.931911e+002,-3.921997e+000
6.941553e+002,-4.061584e+000
6.951196e+002,-7.803345e-001
6.960838e+002,3.576477e+000
6.970480e+002,5.378418e+000
6.980123e+002,3.003845e+000
6.989765e+002,8.203735e-001
6.999407e+002,4.353027e-001
7.009050e+002,9.313965e-001
7.018692e+002,1.659790e+000
7.028334e+002,2.313721e+000
7.037977e+002,3.078491e+000
7.047619e+002,5.453186e+000
7.057261e+002,8.167419e+000
7.066904e+002,7.012329e+000
7.076546e+002,1.293823e+000
7.086188e+002,-5.472107e+000
7.095831e+002,-7.591248e+000
7.105473e+002,-3.284485e+000
7.115115e+002,-2.780151e-001
7.124758e+002,1.387634e+000
7.134400e+002,1.881958e+000
7.144042e+002,9.511108e-001
7.153685e+002,-1.158264e+000
7.163327e+002,-2.562622e+000
7.172969e+002,-1.738647e+000
7.182612e+002,-4.843750e-001
7.192254e+002,1.084534e+000
7.201896e+002,2.244995e+000
7.211539e+002,1.594971e+000
7.221181e+002,-2.336121e+000
7.230823e+002,-7.411926e+000
7.240466e+002,-7.352234e+000
7.250108e+002,-3.026855e+000
7.259750e+002,1.146912e+000
7.269393e+002,2.189819e+000
7.279035e+002,1.062622e-001
7.288677e+002,-1.452026e+000
7.298320e+002,-4.532471e-001
7.307962e+002,2.324219e-001
7.317604e+002,-2.947998e-002
7.327247e+002,-4.210815e-001
7.336889e+002,9.216309e-003
7.346531e+002,1.191223e+000
7.356174e+002,1.571899e+000
7.365816e+002,1.530396e+000
7.375458e+002,1.096741e+000
7.385101e+002,-4.110718e-001
7.394743e+002,-2.784485e+000
7.404385e+002,-4.600220e+000
7.414028e+002,-3.492737e+000
7.423670e+002,-9.040527e-001
7.433312e+002,2.899170e-001
7.442955e+002,5.401611e-001
7.452597e+002,9.362793e-002
7.462239e+002,-1.470825e+000
7.471882e+002,-5.083923e+000
7.481524e+002,-6.449280e+000
7.491166e+002,-6.151855e+000
7.500809e+002,-4.651917e+000
7.510451e+002,-3.359375e-001
7.520093e+002,5.381104e+000
7.529736e+002,7.852722e+000
7.539378e+002,3.604980e+000
7.549020e+002,-1.497803e+000
7.558663e+002,-4.639648e+000
7.568306e+002,-5.959106e+000
7.577948e+002,-5.594238e+000
7.587590e+002,-3.860535e+000
7.597233e+002,-1.544128e+000
7.606875e+002,1.145630e-001
7.616517e+002,1.430603e+000
7.626160e+002,1.567688e+000
7.635802e+002,-1.862793e-001
7.645444e+002,-2.569580e+000
7.655087e+002,-2.867493e+000
7.664729e+002,2.933960e-001
7.674371e+002,2.268494e+000
7.684014e+002,2.262817e+000
7.693656e+002,1.607117e+000
7.703298e+002,1.014771e+000
7.712941e+002,7.084961e-001
7.722583e+002,7.109375e-001
7.732225e+002,8.654175e-001
7.741868e+002,1.535217e+000
7.751510e+002,3.700500e+000
7.761152e+002,6.661865e+000
7.770795e+002,8.677734e+000
7.780437e+002,8.132813e+000
7.790079e+002,5.315674e+000
7.799722e+002,3.779236e+000
7.809364e+002,3.585266e+000
7.819006e+002,3.228455e+000
7.828649e+002,2.659485e+000
7.838291e+002,1.954407e+000
7.847933e+002,3.980103e-001
7.857576e+002,-4.416626e+000
7.867218e+002,-7.032532e+000
7.876860e+002,-4.400452e+000
7.886503e+002,-2.632446e-001
7.896145e+002,2.016357e+000
7.905787e+002,1.637085e+000
7.915430e+002,1.220764e+000
7.925072e+002,4.097168e+000
7.934714e+002,7.371643e+000
7.944357e+002,8.208252e+000
7.953999e+002,6.852539e+000
7.963641e+002,4.891968e+000
7.973284e+002,3.893372e+000
7.982926e+002,3.887817e+000
7.992568e+002,4.858154e+000
8.002211e+002,7.449951e+000
8.011853e+002,7.937317e+000
8.021495e+002,4.095886e+000
8.031138e+002,-1.953552e+000
8.040780e+002,-4.390625e+000
8.050422e+002,-1.001038e+000
8.060065e+002,3.176392e+000
8.069707e+002,7.683777e+000
8.079349e+002,1.086755e+001
8.088992e+002,1.039246e+001
8.098634e+002,6.074036e+000
8.108276e+002,1.728210e+000
8.117919e+002,3.552124e+000
8.127561e+002,7.996765e+000
8.137203e+002,9.023926e+000
8.146846e+002,6.429932e+000
8.156488e+002,2.965820e+000
8.166130e+002,1.693054e+000
8.175773e+002,2.908081e+000
8.185415e+002,3.809326e+000
8.195057e+002,3.509827e+000
8.204700e+002,3.240662e+000
8.214342e+002,3.563599e+000
8.223984e+002,4.251953e+000
8.233627e+002,4.775452e+000
8.243269e+002,5.385315e+000
8.252911e+002,5.193115e+000
8.262554e+002,3.030701e+000
8.272196e+002,3.215942e-001
8.281838e+002,-1.994629e+000
8.291481e+002,-3.315002e+000
8.301123e+002,-2.876526e+000
8.310765e+002,1.574463e+000
8.320408e+002,9.183411e+000
8.330050e+002,1.165668e+001
8.339692e+002,7.456604e+000
8.349335e+002,1.861389e+000
8.358977e+002,5.054321e-001
8.368619e+002,4.275208e+000
8.378262e+002,7.539917e+000
8.387904e+002,9.042847e+000
8.397546e+002,1.057001e+001
8.407189e+002,1.317798e+001
8.416831e+002,1.604749e+001
8.426473e+002,1.759930e+001
8.436116e+002,1.697021e+001
8.445758e+002,1.588275e+001
8.455400e+002,1.543768e+001
8.465043e+002,1.505634e+001
8.474685e+002,1.497205e+001
8.484327e+002,1.542084e+001
8.493970e+002,1.601349e+001
8.503612e+002,1.552502e+001
8.513254e+002,1.350598e+001
8.522897e+002,1.192096e+001
8.532539e+002,1.029736e+001
8.542181e+002,9.059875e+000
8.551824e+002,8.855042e+000
8.561466e+002,1.006750e+001
8.571108e+002,1.249579e+001
8.580751e+002,1.634705e+001
8.590393e+002,1.888409e+001
8.600035e+002,1.927063e+001
8.609678e+002,1.870850e+001
8.619320e+002,1.822827e+001
8.628962e+002,1.826074e+001
8.638605e+002,1.881622e+001
8.648247e+002,2.033435e+001
8.657889e+002,2.226434e+001
8.667532e+002,2.362885e+001
8.677174e+002,2.429291e+001
8.686816e+002,2.462170e+001
8.696459e+002,2.528912e+001
8.706101e+002,2.680035e+001
8.715743e+002,2.644159e+001
8.725386e+002,2.163062e+001
8.735028e+002,1.847369e+001
8.744670e+002,1.857825e+001
8.754313e+002,2.073865e+001
8.763955e+002,2.318799e+001
8.773597e+002,2.582434e+001
8.783240e+002,2.797705e+001
8.792882e+002,2.931091e+001
8.802524e+002,2.958850e+001
8.812167e+002,2.798096e+001
8.821809e+002,2.481378e+001
8.831451e+002,2.168976e+001
8.841094e+002,2.078479e+001
8.850736e+002,2.238623e+001
8.860378e+002,2.418695e+001
8.870021e+002,2.592334e+001
8.879663e+002,2.777814e+001
8.889305e+002,2.973132e+001
8.898948e+002,3.163629e+001
8.908590e+002,3.350647e+001
8.918232e+002,3.659369e+001
8.927875e+002,3.810046e+001
8.937517e+002,3.616260e+001
8.947159e+002,3.358215e+001
8.956802e+002,3.234637e+001
8.966444e+002,3.270270e+001
8.976086e+002,3.359772e+001
8.985729e+002,3.470203e+001
8.995371e+002,3.597900e+001
9.005013e+002,3.680536e+001
9.014656e+002,3.743329e+001
9.024298e+002,3.843622e+001
9.033940e+002,4.011908e+001
9.043583e+002,4.186084e+001
9.053225e+002,4.134259e+001
9.062867e+002,3.430475e+001
9.072510e+002,3.003436e+001
9.082152e+002,3.082141e+001
9.091794e+002,3.403357e+001
9.101437e+002,3.744269e+001
9.111079e+002,4.067401e+001
9.120721e+002,4.310773e+001
9.130364e+002,4.377924e+001
9.140006e+002,4.316382e+001
9.149648e+002,4.124872e+001
9.159291e+002,3.886493e+001
9.168933e+002,3.693451e+001
9.178575e+002,3.592133e+001
9.188218e+002,3.558313e+001
9.197860e+002,3.606592e+001
9.207502e+002,3.721729e+001
9.217145e+002,3.775537e+001
9.226787e+002,3.809723e+001
9.236429e+002,3.811505e+001
9.246072e+002,3.675903e+001
9.255714e+002,3.312500e+001
9.265356e+002,3.123499e+001
9.274999e+002,3.438031e+001
9.284641e+002,3.612323e+001
9.294283e+002,3.309076e+001
9.303926e+002,2.763470e+001
9.313568e+002,2.393439e+001
9.323210e+002,2.411755e+001
9.332853e+002,2.639832e+001
9.342495e+002,2.892126e+001
9.352137e+002,3.130560e+001
9.361780e+002,3.345233e+001
9.371422e+002,3.563220e+001
9.381064e+002,3.728302e+001
9.390707e+002,3.711768e+001
9.400349e+002,3.436737e+001
9.409991e+002,3.188507e+001
9.419634e+002,2.798523e+001
9.429276e+002,2.618103e+001
9.438918e+002,2.912659e+001
9.448561e+002,3.436511e+001
9.458203e+002,3.781610e+001
9.467845e+002,3.835052e+001
9.477488e+002,3.791412e+001
9.487130e+002,3.666199e+001
9.496772e+002,3.579083e+001
9.506415e+002,3.665607e+001
9.516057e+002,3.902740e+001
9.525699e+002,4.157294e+001
9.535342e+002,4.295862e+001
9.544984e+002,4.308282e+001
9.554626e+002,4.234827e+001
9.564269e+002,4.121313e+001
9.573911e+002,4.040552e+001
9.583553e+002,3.932159e+001
9.593196e+002,3.874695e+001
9.602838e+002,4.069855e+001
9.612480e+002,4.622174e+001
9.622123e+002,4.943286e+001
9.631765e+002,4.662878e+001
9.641407e+002,4.353351e+001
9.651050e+002,4.299561e+001
9.660692e+002,4.398279e+001
9.670334e+002,4.365833e+001
9.679977e+002,4.043750e+001
9.689619e+002,3.690723e+001
9.699261e+002,3.899225e+001
9.708904e+002,4.441138e+001
9.718546e+002,4.774194e+001
9.728188e+002,4.749310e+001
9.737831e+002,4.531207e+001
9.747473e+002,4.308734e+001
9.757115e+002,4.061609e+001
9.766758e+002,4.013269e+001
9.776400e+002,4.495496e+001
9.786042e+002,4.842706e+001
9.795685e+002,4.781488e+001
9.805327e+002,4.485834e+001
9.814969e+002,4.220764e+001
9.824612e+002,4.101288e+001
9.834254e+002,4.066949e+001
9.843896e+002,4.016382e+001
9.853539e+002,3.972955e+001
9.863181e+002,4.004535e+001
9.872823e+002,4.067963e+001
9.882466e+002,4.056445e+001
9.892108e+002,3.915234e+001
9.901750e+002,3.742096e+001
9.911393e+002,3.820703e+001
9.921035e+002,4.175183e+001
9.930677e+002,4.516113e+001
9.940320e+002,4.886292e+001
9.949962e+002,5.285907e+001
9.959604e+002,5.729254e+001
9.969247e+002,6.219965e+001
9.978889e+002,6.672565e+001
9.988531e+002,6.916724e+001
9.998174e+002,7.135284e+001
1.000782e+003,7.545941e+001
1.001746e+003,8.043469e+001
1.002710e+003,8.452112e+001
1.003674e+003,8.687054e+001
1.004639e+003,8.800128e+001
1.005603e+003,8.886597e+001
1.006567e+003,8.926178e+001
1.007531e+003,8.852106e+001
1.008495e+003,8.590173e+001
1.009460e+003,8.381158e+001
1.010424e+003,8.453943e+001
1.011388e+003,8.728088e+001
1.012352e+003,8.821893e+001
1.013317e+003,8.586078e+001
1.014281e+003,8.314587e+001
1.015245e+003,8.187549e+001
1.016209e+003,7.959229e+001
1.017174e+003,7.365021e+001
1.018138e+003,6.487262e+001
1.019102e+003,5.670276e+001
1.020066e+003,5.202533e+001
1.021031e+003,5.029285e+001
1.021995e+003,5.004675e+001
1.022959e+003,5.045380e+001
1.023923e+003,4.877100e+001
1.024887e+003,4.336224e+001
1.025852e+003,3.655121e+001
1.026816e+003,3.235907e+001
1.027780e+003,3.177332e+001
1.028744e+003,3.084314e+001
1.029709e+003,2.876825e+001
1.030673e+003,2.671301e+001
1.031637e+003,2.447241e+001
1.032601e+003,2.240778e+001
1.033566e+003,2.122644e+001
1.034530e+003,2.128223e+001
1.035494e+003,2.204614e+001
1.036458e+003,2.315137e+001
1.037422e+003,2.406946e+001
1.038387e+003,2.363837e+001
1.039351e+003,2.197076e+001
1.040315e+003,2.100311e+001
1.041279e+003,2.244458e+001
1.042244e+003,2.591608e+001
1.043208e+003,2.871991e+001
1.044172e+003,3.081287e+001
1.045136e+003,3.110522e+001
1.046101e+003,2.923541e+001
1.047065e+003,2.652423e+001
1.048029e+003,2.273303e+001
1.048993e+003,1.853296e+001
1.049958e+003,1.622046e+001
1.050922e+003,1.735669e+001
1.051886e+003,2.025281e+001
1.052850e+003,2.475592e+001
1.053814e+003,2.890863e+001
1.054779e+003,2.916205e+001
1.055743e+003,2.518146e+001
1.056707e+003,2.057843e+001
1.057671e+003,1.978064e+001
1.058636e+003,2.272815e+001
1.059600e+003,2.450861e+001
1.060564e+003,2.592865e+001
1.061528e+003,2.624847e+001
1.062493e+003,2.357410e+001
1.063457e+003,2.003937e+001
1.064421e+003,1.867065e+001
1.065385e+003,1.992218e+001
1.066349e+003,2.057397e+001
1.067314e+003,1.777161e+001
1.068278e+003,1.547516e+001
1.069242e+003,1.750775e+001
1.070206e+003,2.176886e+001
1.071171e+003,2.457678e+001
1.072135e+003,2.425836e+001
1.073099e+003,2.216638e+001
1.074063e+003,2.086957e+001
1.075028e+003,2.059161e+001
1.075992e+003,2.092963e+001
1.076956e+003,2.174567e+001
1.077920e+003,2.253760e+001
1.078885e+003,2.434253e+001
1.079849e+003,2.620416e+001
1.080813e+003,2.561176e+001
1.081777e+003,2.175427e+001
1.082741e+003,1.854663e+001
1.083706e+003,1.804181e+001
1.084670e+003,1.777985e+001
1.085634e+003,1.568109e+001
1.086598e+003,1.294543e+001
1.087563e+003,1.270367e+001
1.088527e+003,1.665222e+001
1.089491e+003,2.245599e+001
1.090455e+003,2.486957e+001
1.091420e+003,2.307196e+001
1.092384e+003,2.109839e+001
1.093348e+003,1.823773e+001
1.094312e+003,1.579346e+001
1.095276e+003,1.497968e+001
1.096241e+003,1.567670e+001
1.097205e+003,1.691809e+001
1.098169e+003,1.868726e+001
1.099133e+003,1.969586e+001
1.100098e+003,1.921375e+001
1.101062e+003,1.853369e+001
1.102026e+003,1.809119e+001
1.102990e+003,1.822711e+001
1.103955e+003,1.943317e+001
1.104919e+003,2.189996e+001
1.105883e+003,2.471301e+001
1.106847e+003,2.599139e+001
1.107812e+003,2.565747e+001
1.108776e+003,2.680688e+001
1.109740e+003,3.093488e+001
1.110704e+003,3.374347e+001
1.111668e+003,3.063837e+001
1.112633e+003,2.386432e+001
1.113597e+003,2.260925e+001
1.114561e+003,3.000562e+001
1.115525e+003,3.671985e+001
1.116490e+003,4.005402e+001
1.117454e+003,4.158466e+001
1.118418e+003,4.187506e+001
1.119382e+003,4.180127e+001
1.120347e+003,4.214063e+001
1.121311e+003,4.301898e+001
1.122275e+003,4.399548e+001
1.123239e+003,4.551062e+001
1.124203e+003,4.807495e+001
1.125168e+003,5.081635e+001
1.126132e+003,5.420947e+001
1.127096e+003,5.675964e+001
1.128060e+003,5.575537e+001
1.129025e+003,5.229730e+001
1.129989e+003,5.305994e+001
1.130953e+003,6.131268e+001
1.131917e+003,6.674976e+001
1.132882e+003,6.474188e+001
1.133846e+003,6.175342e+001
1.134810e+003,6.146167e+001
1.135774e+003,6.363837e+001
1.136739e+003,6.592340e+001
1.137703e+003,6.699976e+001
1.138667e+003,6.909027e+001
1.139631e+003,7.700226e+001
1.140595e+003,8.995471e+001
1.141560e+003,1.008805e+002
1.142524e+003,1.092125e+002
1.143488e+003,1.177819e+002
1.144452e+003,1.270853e+002
1.145417e+003,1.379266e+002
1.146381e+003,1.541880e+002
1.147345e+003,1.788616e+002
1.148309e+003,2.005933e+002
1.149274e+003,2.137383e+002
1.150238e+003,2.268909e+002
1.151202e+003,2.451684e+002
1.152166e+003,2.670818e+002
1.153130e+003,2.900037e+002
1.154095e+003,3.118372e+002
1.155059e+003,3.289991e+002
1.156023e+003,3.366845e+002
1.156987e+003,3.354873e+002
1.157952e+003,3.328092e+002
1.158916e+003,3.301492e+002
1.159880e+003,3.231528e+002
1.160844e+003,3.065002e+002
1.161809e+003,2.832257e+002
1.162773e+003,2.612059e+002
1.163737e+003,2.404868e+002
1.164701e+003,2.212979e+002
1.165666e+003,2.056076e+002
1.166630e+003,1.901359e+002
1.167594e+003,1.712883e+002
1.168558e+003,1.528510e+002
1.169522e+003,1.403468e+002
1.170487e+003,1.351580e+002
1.171451e+003,1.338807e+002
1.172415e+003,1.328532e+002
1.173379e+003,1.320121e+002
1.174344e+003,1.319869e+002
1.175308e+003,1.330287e+002
1.176272e+003,1.334688e+002
1.177236e+003,1.325215e+002
1.178201e+003,1.312153e+002
1.179165e+003,1.315536e+002
1.180129e+003,1.332691e+002
1.181093e+003,1.302186e+002
1.182057e+003,1.170649e+002
1.183022e+003,1.055310e+002
1.183986e+003,1.002448e+002
1.184950e+003,9.824799e+001
1.185914e+003,9.710754e+001
1.186879e+003,9.635065e+001
1.187843e+003,9.679956e+001
1.188807e+003,9.902075e+001
1.189771e+003,1.021486e+002
1.190736e+003,1.041389e+002
1.191700e+003,1.048271e+002
1.192664e+003,1.054437e+002
1.193628e+003,1.071060e+002
1.194593e+003,1.079747e+002
1.195557e+003,1.063655e+002
1.196521e+003,1.027253e+002
1.197485e+003,9.874103e+001
1.198449e+003,9.455261e+001
1.199414e+003,9.065210e+001
1.200378e+003,8.732025e+001
1.201342e+003,8.436115e+001
1.202306e+003,8.187549e+001
1.203271e+003,7.935583e+001
1.204235e+003,7.572748e+001
1.205199e+003,7.072638e+001
1.206163e+003,6.595050e+001
1.207128e+003,6.420428e+001
1.208092e+003,6.579999e+001
1.209056e+003,6.369653e+001
1.210020e+003,5.611578e+001
1.210984e+003,4.918695e+001
1.211949e+003,4.479797e+001
1.212913e+003,4.168530e+001
1.213877e+003,3.837872e+001
1.214841e+003,3.491180e+001
1.215806e+003,3.229486e+001
1.216770e+003,3.137976e+001
1.217734e+003,3.047260e+001
1.218698e+003,2.839325e+001
1.219663e+003,2.532050e+001
1.220627e+003,2.059192e+001
1.221591e+003,1.488818e+001
1.222555e+003,1.127130e+001
1.223520e+003,1.280109e+001
1.224484e+003,1.806934e+001
1.225448e+003,1.942444e+001
1.226412e+003,1.411652e+001
1.227376e+003,1.062701e+001
1.228341e+003,9.516296e+000
1.229305e+003,9.204895e+000
1.230269e+003,9.097656e+000
1.231233e+003,9.064209e+000
1.232198e+003,9.204468e+000
1.233162e+003,9.761780e+000
1.234126e+003,1.030914e+001
1.235090e+003,9.834778e+000
1.236055e+003,9.289917e+000
1.237019e+003,1.027100e+001
1.237983e+003,1.194537e+001
1.238947e+003,1.245081e+001
1.239911e+003,1.122400e+001
1.240876e+003,9.024597e+000
1.241840e+003,6.460083e+000
1.242804e+003,3.409302e+000
1.243768e+003,2.617126e+000
1.244733e+003,5.598450e+000
1.245697e+003,9.108032e+000
1.246661e+003,1.362341e+001
1.247625e+003,1.716431e+001
1.248590e+003,1.813788e+001
1.249554e+003,1.738123e+001
1.250518e+003,1.714056e+001
1.251482e+003,1.827728e+001
1.252447e+003,1.884875e+001
1.253411e+003,1.554846e+001
1.254375e+003,1.120740e+001
1.255339e+003,1.252338e+001
1.256303e+003,1.962085e+001
1.257268e+003,2.506641e+001
1.258232e+003,2.349451e+001
1.259196e+003,1.835095e+001
1.260160e+003,1.742285e+001
1.261125e+003,2.176703e+001
1.262089e+003,2.625037e+001
1.263053e+003,3.032660e+001
1.264017e+003,3.366718e+001
1.264982e+003,3.711371e+001
1.265946e+003,3.948010e+001
1.266910e+003,3.889551e+001
1.267874e+003,3.602899e+001
1.268839e+003,3.378607e+001
1.269803e+003,3.414233e+001
1.270767e+003,3.539282e+001
1.271731e+003,3.410388e+001
1.272695e+003,3.054474e+001
1.273660e+003,2.811102e+001
1.274624e+003,2.661078e+001
1.275588e+003,2.512445e+001
1.276552e+003,2.351050e+001
1.277517e+003,2.218494e+001
1.278481e+003,2.162616e+001
1.279445e+003,2.181189e+001
1.280409e+003,2.145917e+001
1.281374e+003,2.052515e+001
1.282338e+003,1.849902e+001
1.283302e+003,1.256409e+001
1.284266e+003,6.928467e+000
1.285230e+003,7.892395e+000
1.286195e+003,1.482153e+001
1.287159e+003,2.080811e+001
1.288123e+003,2.033008e+001
1.289087e+003,1.573010e+001
1.290052e+003,1.337408e+001
1.291016e+003,1.382037e+001
1.291980e+003,1.335382e+001
1.292944e+003,1.093365e+001
1.293909e+003,8.288208e+000
1.294873e+003,6.335632e+000
1.295837e+003,5.056641e+000
1.296801e+003,4.143860e+000
1.297766e+003,3.596008e+000
1.298730e+003,3.898193e+000
1.299694e+003,5.473572e+000
1.300658e+003,7.037476e+000
1.301622e+003,7.164246e+000
1.302587e+003,6.720276e+000
1.303551e+003,6.944580e+000
1.304515e+003,8.153809e+000
1.305479e+003,9.696350e+000
1.306444e+003,1.089539e+001
1.307408e+003,1.160126e+001
1.308372e+003,1.190039e+001
1.309336e+003,1.174683e+001
1.310301e+003,1.119800e+001
1.311265e+003,1.008624e+001
1.312229e+003,9.285828e+000
1.313193e+003,9.099976e+000
1.314157e+003,9.135925e+000
1.315122e+003,9.194763e+000
1.316086e+003,8.938721e+000
1.317050e+003,7.608093e+000
1.318014e+003,4.775146e+000
1.318979e+003,1.832031e+000
1.319943e+003,9.663696e-001
1.320907e+003,2.273071e+000
1.321871e+003,4.507385e+000
1.322836e+003,7.588745e+000
1.323800e+003,9.739075e+000
1.324764e+003,9.205688e+000
1.325728e+003,7.736572e+000
1.326693e+003,8.798096e+000
1.327657e+003,1.232336e+001
1.328621e+003,1.316992e+001
1.329585e+003,9.135803e+000
1.330549e+003,6.042175e+000
1.331514e+003,5.571899e+000
1.332478e+003,6.487915e+000
1.333442e+003,9.182678e+000
1.334406e+003,1.273212e+001
1.335371e+003,1.418658e+001
1.336335e+003,1.185565e+001
1.337299e+003,8.114868e+000
1.338263e+003,7.393921e+000
1.339228e+003,1.009045e+001
1.340192e+003,1.227917e+001
1.341156e+003,1.439349e+001
1.342120e+003,1.539423e+001
1.343084e+003,1.436230e+001
1.344049e+003,1.209528e+001
1.345013e+003,8.848328e+000
1.345977e+003,5.550476e+000
1.346941e+003,3.846802e+000
1.347906e+003,4.289551e+000
1.348870e+003,6.275085e+000
1.349834e+003,9.937439e+000
1.350798e+003,1.393304e+001
1.351763e+003,1.675067e+001
1.352727e+003,1.833014e+001
1.353691e+003,1.758356e+001
1.354655e+003,1.380957e+001
1.355620e+003,8.885376e+000
1.356584e+003,4.294739e+000
1.357548e+003,4.023438e-001
1.358512e+003,-4.649658e-001
1.359476e+003,2.124695e+000
1.360441e+003,5.394897e+000
1.361405e+003,1.238922e+001
1.362369e+003,1.633490e+001
1.363333e+003,1.069507e+001
1.364298e+003,1.453979e+000
1.365262e+003,-2.410645e+000
1.366226e+003,7.034302e-001
1.367190e+003,4.946167e+000
1.368155e+003,5.088562e+000
1.369119e+003,2.601440e+000
1.370083e+003,2.235046e+000
1.371047e+003,4.960999e+000
1.372011e+003,6.710205e+000
1.372976e+003,5.949341e+000
1.373940e+003,5.361328e+000
1.374904e+003,6.925720e+000
1.375868e+003,8.926331e+000
1.376833e+003,8.453552e+000
1.377797e+003,5.638123e+000
1.378761e+003,3.804810e+000
1.379725e+003,4.468018e+000
1.380690e+003,6.537170e+000
1.381654e+003,1.015454e+001
1.382618e+003,1.403967e+001
1.383582e+003,1.615625e+001
1.384547e+003,1.654468e+001
1.385511e+003,1.664569e+001
1.386475e+003,1.714124e+001
1.387439e+003,1.707379e+001
1.388403e+003,1.422681e+001
1.389368e+003,8.576477e+000
1.390332e+003,6.576416e+000
1.391296e+003,1.108252e+001
1.392260e+003,1.441730e+001
1.393225e+003,1.389941e+001
1.394189e+003,1.270306e+001
1.395153e+003,1.278082e+001
1.396117e+003,1.333197e+001
1.397082e+003,1.214124e+001
1.398046e+003,9.353394e+000
1.399010e+003,8.645569e+000
1.399974e+003,1.328748e+001
1.400938e+003,2.034015e+001
1.401903e+003,2.175909e+001
1.402867e+003,1.705554e+001
1.403831e+003,1.353955e+001
1.404795e+003,9.679565e+000
1.405760e+003,7.843506e+000
1.406724e+003,9.631165e+000
1.407688e+003,1.189740e+001
1.408652e+003,1.150092e+001
1.409617e+003,9.097900e+000
1.410581e+003,7.617249e+000
1.411545e+003,8.339111e+000
1.412509e+003,9.389221e+000
1.413474e+003,8.068237e+000
1.414438e+003,5.809875e+000
1.415402e+003,6.457642e+000
1.416366e+003,9.816467e+000
1.417330e+003,1.188300e+001
1.418295e+003,1.071069e+001
1.419259e+003,9.274536e+000
1.420223e+003,1.166052e+001
1.421187e+003,1.666467e+001
1.422152e+003,1.778455e+001
1.423116e+003,1.358374e+001
1.424080e+003,1.146454e+001
1.425044e+003,1.483118e+001
1.426009e+003,1.834070e+001
1.426973e+003,2.043512e+001
1.427937e+003,2.102979e+001
1.428901e+003,1.908667e+001
1.429865e+003,1.585913e+001
1.430830e+003,1.545447e+001
1.431794e+003,2.028650e+001
1.432758e+003,2.683258e+001
1.433722e+003,2.849042e+001
1.434687e+003,2.536188e+001
1.435651e+003,2.473987e+001
1.436615e+003,2.714838e+001
1.437579e+003,2.828418e+001
1.438544e+003,2.788690e+001
1.439508e+003,2.640875e+001
1.440472e+003,2.270654e+001
1.441436e+003,1.921136e+001
1.442401e+003,2.131659e+001
1.443365e+003,2.937585e+001
1.444329e+003,3.514484e+001
1.445293e+003,3.213037e+001
1.446257e+003,2.508478e+001
1.447222e+003,2.261401e+001
1.448186e+003,2.385004e+001
1.449150e+003,2.475824e+001
1.450114e+003,2.490753e+001
1.451079e+003,2.451953e+001
1.452043e+003,2.377625e+001
1.453007e+003,2.309534e+001
1.453971e+003,2.269049e+001
1.454936e+003,2.238678e+001
1.455900e+003,2.202875e+001
1.456864e+003,2.149127e+001
1.457828e+003,2.210266e+001
1.458792e+003,2.592725e+001
1.459757e+003,2.946765e+001
1.460721e+003,2.920367e+001
1.461685e+003,2.664484e+001
1.462649e+003,2.542181e+001
1.463614e+003,2.652142e+001
1.464578e+003,2.748071e+001
1.465542e+003,2.577173e+001
1.466506e+003,2.240833e+001
1.467471e+003,2.089392e+001
1.468435e+003,2.196686e+001
1.469399e+003,2.371027e+001
1.470363e+003,2.511053e+001
1.471328e+003,2.750848e+001
1.472292e+003,3.286798e+001
1.473256e+003,3.684149e+001
1.474220e+003,3.578699e+001
1.475184e+003,3.211475e+001
1.476149e+003,3.048102e+001
1.477113e+003,3.190625e+001
1.478077e+003,3.312292e+001
1.479041e+003,3.128204e+001
1.480006e+003,2.782422e+001
1.480970e+003,2.668073e+001
1.481934e+003,2.810968e+001
1.482898e+003,2.881586e+001
1.483863e+003,2.638812e+001
1.484827e+003,2.646765e+001
1.485791e+003,3.340344e+001
1.486755e+003,4.172211e+001
1.487719e+003,4.649280e+001
1.488684e+003,4.779810e+001
1.489648e+003,4.729724e+001
1.490612e+003,4.585229e+001
1.491576e+003,4.519568e+001
1.492541e+003,4.655176e+001
1.493505e+003,4.929700e+001
1.494469e+003,5.224408e+001
1.495433e+003,5.500269e+001
1.496398e+003,5.849542e+001
1.497362e+003,6.381287e+001
1.498326e+003,6.914496e+001
1.499290e+003,7.281952e+001
1.500255e+003,7.633301e+001
1.501219e+003,8.146838e+001
1.502183e+003,8.804529e+001
1.503147e+003,9.531097e+001
1.504111e+003,1.029704e+002
1.505076e+003,1.119598e+002
1.506040e+003,1.228320e+002
1.507004e+003,1.355955e+002
1.507968e+003,1.503376e+002
1.508933e+003,1.666979e+002
1.509897e+003,1.839622e+002
1.510861e+003,2.026518e+002
1.511825e+003,2.236798e+002
1.512790e+003,2.471665e+002
1.513754e+003,2.727555e+002
1.514718e+003,3.013909e+002
1.515682e+003,3.326258e+002
1.516646e+003,3.609526e+002
1.517611e+003,3.862301e+002
1.518575e+003,4.092477e+002
1.519539e+003,4.321723e+002
1.520503e+003,4.517756e+002
1.521468e+003,4.665092e+002
1.522432e+003,4.762552e+002
1.523396e+003,4.809482e+002
1.524360e+003,4.806954e+002
1.525325e+003,4.758704e+002
1.526289e+003,4.668580e+002
1.527253e+003,4.547995e+002
1.528217e+003,4.418396e+002
1.529182e+003,4.283975e+002
1.530146e+003,4.087211e+002
1.531110e+003,3.814094e+002
1.532074e+003,3.492362e+002
1.533039e+003,3.070338e+002
1.534003e+003,2.650814e+002
1.534967e+003,2.274926e+002
1.535931e+003,1.945991e+002
1.536896e+003,1.659678e+002
1.537860e+003,1.417526e+002
1.538824e+003,1.230939e+002
1.539788e+003,1.100422e+002
1.540752e+003,9.898944e+001
1.541717e+003,8.531537e+001
1.542681e+003,7.029285e+001
1.543645e+003,6.039093e+001
1.544609e+003,5.829590e+001
1.545573e+003,5.608698e+001
1.546538e+003,5.263013e+001
1.547502e+003,4.922906e+001
1.548466e+003,4.662280e+001
1.549430e+003,4.524249e+001
1.550395e+003,4.610388e+001
1.551359e+003,4.786346e+001
1.552323e+003,4.700140e+001
1.553287e+003,4.255341e+001
1.554252e+003,3.806915e+001
1.555216e+003,3.661401e+001
1.556180e+003,3.709009e+001
1.557144e+003,3.703851e+001
1.558109e+003,3.661493e+001
1.559073e+003,3.741595e+001
1.560037e+003,4.049091e+001
1.561001e+003,4.107825e+001
1.561966e+003,3.632306e+001
1.562930e+003,3.092102e+001
1.563894e+003,2.892157e+001
1.564858e+003,2.920898e+001
1.565823e+003,2.900763e+001
1.566787e+003,2.772174e+001
1.567751e+003,2.638544e+001
1.568715e+003,2.578345e+001
1.569679e+003,2.532690e+001
1.570644e+003,2.361786e+001
1.571608e+003,2.115631e+001
1.572572e+003,2.030554e+001
1.573536e+003,2.145294e+001
1.574500e+003,2.316003e+001
1.575465e+003,2.515009e+001
1.576429e+003,2.689758e+001
1.577393e+003,2.743286e+001
1.578357e+003,2.734186e+001
1.579322e+003,2.848035e+001
1.580286e+003,3.092725e+001
1.581250e+003,3.212695e+001
1.582214e+003,3.087201e+001
1.583179e+003,2.979834e+001
1.584143e+003,3.078534e+001
1.585107e+003,3.260468e+001
1.586071e+003,3.519299e+001
1.587036e+003,3.807782e+001
1.588000e+003,3.730005e+001
1.588964e+003,3.134583e+001
1.589928e+003,2.693079e+001
1.590893e+003,2.991693e+001
1.591857e+003,3.572351e+001
1.592821e+003,3.705219e+001
1.593785e+003,3.490564e+001
1.594750e+003,3.499219e+001
1.595714e+003,3.822760e+001
1.596678e+003,4.074048e+001
1.597642e+003,4.063922e+001
1.598606e+003,3.997662e+001
1.599571e+003,4.087665e+001
1.600535e+003,4.223938e+001
1.601499e+003,4.229071e+001
1.602463e+003,4.105664e+001
1.603427e+003,3.998944e+001
1.604392e+003,3.972668e+001
1.605356e+003,3.963940e+001
1.606320e+003,3.911206e+001
1.607284e+003,3.830273e+001
1.608249e+003,3.764532e+001
1.609213e+003,3.715906e+001
1.610177e+003,3.627045e+001
1.611141e+003,3.468695e+001
1.612106e+003,3.322766e+001
1.613070e+003,3.219336e+001
1.614034e+003,3.143335e+001
1.614998e+003,3.058368e+001
1.615963e+003,3.008893e+001
1.616927e+003,3.127203e+001
1.617891e+003,3.376691e+001
1.618855e+003,3.422284e+001
1.619820e+003,3.007404e+001
1.620784e+003,2.457373e+001
1.621748e+003,2.336908e+001
1.622712e+003,2.632495e+001
1.623677e+003,2.888800e+001
1.624641e+003,3.104358e+001
1.625605e+003,3.307416e+001
1.626569e+003,3.446307e+001
1.627533e+003,3.436707e+001
1.628498e+003,3.207184e+001
1.629462e+003,2.951526e+001
1.630426e+003,2.839899e+001
1.631390e+003,2.808698e+001
1.632354e+003,2.682324e+001
1.633319e+003,2.429071e+001
1.634283e+003,2.235370e+001
1.635247e+003,2.250964e+001
1.636211e+003,2.338507e+001
1.637176e+003,2.228003e+001
1.638140e+003,1.963269e+001
1.639104e+003,1.947021e+001
1.640068e+003,2.246356e+001
1.641033e+003,2.499194e+001
1.641997e+003,2.653027e+001
1.642961e+003,2.735278e+001
1.643925e+003,2.674854e+001
1.644890e+003,2.616730e+001
1.645854e+003,2.728070e+001
1.646818e+003,2.947711e+001
1.647782e+003,3.114673e+001
1.648747e+003,3.172430e+001
1.649711e+003,3.153644e+001
1.650675e+003,3.104803e+001
1.651639e+003,3.045087e+001
1.652604e+003,2.927899e+001
1.653568e+003,2.735370e+001
1.654532e+003,2.676569e+001
1.655496e+003,2.822784e+001
1.656460e+003,2.890076e+001
1.657425e+003,2.806427e+001
1.658389e+003,2.647656e+001
1.659353e+003,2.319836e+001
1.660317e+003,2.036646e+001
1.661281e+003,2.106708e+001
1.662246e+003,2.405145e+001
1.663210e+003,2.555090e+001
1.664174e+003,2.448846e+001
1.665138e+003,2.237915e+001
1.666103e+003,1.972784e+001
1.667067e+003,1.752930e+001
1.668031e+003,1.922546e+001
1.668995e+003,2.442566e+001
1.669960e+003,2.534814e+001
1.670924e+003,2.038562e+001
1.671888e+003,1.617767e+001
1.672852e+003,1.483502e+001
1.673817e+003,1.411548e+001
1.674781e+003,1.189624e+001
1.675745e+003,9.927124e+000
1.676709e+003,1.083771e+001
1.677674e+003,1.367511e+001
1.678638e+003,1.499530e+001
1.679602e+003,1.374780e+001
1.680566e+003,1.229742e+001
1.681531e+003,1.278491e+001
1.682495e+003,1.429956e+001
1.683459e+003,1.491571e+001
1.684423e+003,1.449951e+001
1.685387e+003,1.359595e+001
1.686352e+003,1.224072e+001
1.687316e+003,1.180627e+001
1.688280e+003,1.336066e+001
1.689244e+003,1.470508e+001
1.690208e+003,1.351453e+001
1.691173e+003,1.148785e+001
1.692137e+003,1.091681e+001
1.693101e+003,1.159253e+001
1.694065e+003,1.127588e+001
1.695030e+003,8.979248e+000
1.695994e+003,7.273315e+000
1.696958e+003,8.356934e+000
1.697922e+003,1.056049e+001
1.698887e+003,1.247467e+001
1.699851e+003,1.381165e+001
1.700815e+003,1.263159e+001
1.701779e+003,8.678101e+000
1.702744e+003,5.978027e+000
1.703708e+003,6.265076e+000
1.704672e+003,8.195435e+000
1.705636e+003,1.095874e+001
1.706601e+003,1.344720e+001
1.707565e+003,1.530212e+001
1.708529e+003,1.644568e+001
1.709493e+003,1.483142e+001
1.710458e+003,9.710144e+000
1.711422e+003,6.073608e+000
1.712386e+003,7.070251e+000
1.713350e+003,9.613159e+000
1.714314e+003,1.170386e+001
1.715279e+003,1.268439e+001
1.716243e+003,1.085651e+001
1.717207e+003,7.146667e+000
1.718171e+003,6.616455e+000
1.719135e+003,1.074945e+001
1.720100e+003,1.343719e+001
1.721064e+003,1.012537e+001
1.722028e+003,4.078430e+000
1.722992e+003,-1.934204e-001
1.723957e+003,-2.279907e+000
1.724921e+003,-2.122314e+000
1.725885e+003,9.490967e-002
1.726849e+003,8.303833e-001
1.727814e+003,-1.280823e+000
1.728778e+003,-2.267700e+000
1.729742e+003,5.066528e-001
1.730706e+003,4.013794e+000
1.731671e+003,4.989868e+000
1.732635e+003,3.660217e+000
1.733599e+003,1.587952e+000
1.734563e+003,-2.427979e-001
1.735528e+003,-1.211914e+000
1.736492e+003,-1.189636e+000
1.737456e+003,-1.098633e-002
1.738420e+003,2.781128e+000
1.739385e+003,6.028320e+000
1.740349e+003,6.602112e+000
1.741313e+003,4.089355e+000
1.742277e+003,2.648743e+000
1.743241e+003,3.198975e+000
1.744206e+003,4.005676e+000
1.745170e+003,5.533142e+000
1.746134e+003,6.020752e+000
1.747098e+003,2.989624e+000
1.748063e+003,-5.490112e-001
1.749027e+003,-8.314209e-001
1.749991e+003,1.661133e+000
1.750955e+003,4.808289e+000
1.751919e+003,7.331909e+000
1.752884e+003,7.645813e+000
1.753848e+003,4.379089e+000
1.754812e+003,-5.740356e-001
1.755776e+003,-3.149048e+000
1.756741e+003,-3.021423e+000
1.757705e+003,-1.575989e+000
1.758669e+003,2.014038e+000
1.759633e+003,3.424561e+000
1.760598e+003,7.432251e-001
1.761562e+003,-2.759216e+000
1.762526e+003,-7.261536e+000
1.763490e+003,-1.026160e+001
1.764455e+003,-9.388916e+000
1.765419e+003,-6.065430e+000
1.766383e+003,-2.245667e+000
1.767347e+003,1.137695e+000
1.768312e+003,3.277222e+000
1.769276e+003,3.678833e+000
1.770240e+003,2.492798e+000
1.771204e+003,-3.280029e-001
1.772168e+003,-3.135620e+000
1.773133e+003,-2.363831e+000
1.774097e+003,1.465393e+000
1.775061e+003,2.912354e+000
1.776025e+003,6.418457e-001
1.776990e+003,-1.117981e+000
1.777954e+003,8.111572e-002
1.778918e+003,1.202148e+000
1.779882e+003,-1.020020e+000
1.780846e+003,-4.512085e+000
1.781811e+003,-5.882813e+000
1.782775e+003,-5.620178e+000
1.783739e+003,-5.988159e+000
1.784703e+003,-7.332336e+000
1.785668e+003,-7.165466e+000
1.786632e+003,-3.978088e+000
1.787596e+003,-6.890869e-001
1.788560e+003,2.094971e+000
1.789525e+003,3.756958e+000
1.790489e+003,1.259094e+000
1.791453e+003,-3.713623e+000
1.792417e+003,-4.629517e+000
1.793382e+003,-5.390015e-001
1.794346e+003,2.619019e+000
1.795310e+003,1.583618e+000
1.796274e+003,-8.624878e-001
1.797239e+003,-1.335266e+000
1.798203e+003,9.838867e-002
1.799167e+003,1.730896e+000
1.800131e+003,2.922180e+000
1.801095e+003,2.391174e+000
1.802060e+003,-7.587280e-001
1.803024e+003,-2.323975e+000
1.803988e+003,-1.203796e+000
1.804952e+003,9.167480e-002
1.805917e+003,-9.979248e-002
1.806881e+003,-3.122559e-001
1.807845e+003,1.968323e+000
1.808809e+003,5.405823e+000
1.809773e+003,6.804504e+000
1.810738e+003,5.604309e+000
1.811702e+003,3.684875e+000
1.812666e+003,2.204224e+000
1.813630e+003,9.658813e-001
1.814595e+003,-2.875366e-001
1.815559e+003,-1.633667e+000
1.816523e+003,-2.837402e+000
1.817487e+003,-3.773804e+000
1.818452e+003,-4.967529e+000
1.819416e+003,-6.925476e+000
1.820380e+003,-6.364258e+000
1.821344e+003,-4.974976e-001
1.822309e+003,4.507813e+000
1.823273e+003,5.361938e+000
1.824237e+003,4.044006e+000
1.825201e+003,5.703125e-001
1.826166e+003,-3.493530e+000
1.827130e+003,-3.453613e+000
1.828094e+003,1.179443e+000
1.829058e+003,4.461426e+000
1.830022e+003,3.785522e+000
1.830987e+003,1.270081e+000
1.831951e+003,-2.908447e+000
1.832915e+003,-6.707642e+000
1.833879e+003,-6.191711e+000
1.834844e+003,-2.895935e+000
1.835808e+003,-2.180847e+000
1.836772e+003,-4.500732e+000
1.837736e+003,-5.467285e+000
1.838700e+003,-3.308716e+000
1.839665e+003,-1.502380e+000
1.840629e+003,-3.251404e+000
1.841593e+003,-6.567993e+000
1.842557e+003,-7.570801e+000
1.843522e+003,-6.312073e+000
1.844486e+003,-4.986816e+000
1.845450e+003,-2.817383e+000
1.846414e+003,-1.012451e+000
1.847379e+003,-9.106445e-002
1.848343e+003,-2.742920e-001
1.849307e+003,-2.146729e+000
1.850271e+003,-4.103455e+000
1.851236e+003,-5.621216e+000
1.852200e+003,-5.705322e+000
1.853164e+003,-2.239563e+000
1.854128e+003,2.879822e+000
1.855093e+003,4.315735e+000
1.856057e+003,8.297729e-001
1.857021e+003,-2.446533e+000
1.857985e+003,-1.261536e+000
1.858949e+003,1.228882e+000
1.859914e+003,-1.167053e+000
1.860878e+003,-7.019287e+000
1.861842e+003,-8.551392e+000
1.862806e+003,-5.772522e+000
1.863771e+003,-2.836243e+000
1.864735e+003,-2.353516e-001
1.865699e+003,6.375122e-001
1.866663e+003,-1.520630e+000
1.867627e+003,-3.417664e+000
1.868592e+003,-1.729675e+000
1.869556e+003,1.045898e+000
1.870520e+003,4.614868e-001
1.871484e+003,-2.903503e+000
1.872449e+003,-4.781799e+000
1.873413e+003,-3.329651e+000
1.874377e+003,-1.026184e+000
1.875341e+003,6.878662e-001
1.876306e+003,1.899536e+000
1.877270e+003,2.864624e+000
1.878234e+003,2.880249e+000
1.879198e+003,6.217041e-001
1.880163e+003,-2.489990e+000
1.881127e+003,-3.645691e+000
1.882091e+003,-2.851624e+000
1.883055e+003,-2.273132e+000
1.884020e+003,-2.892212e+000
1.884984e+003,-4.293518e+000
1.885948e+003,-6.161011e+000
1.886912e+003,-7.302673e+000
1.887876e+003,-4.904114e+000
1.888841e+003,6.759644e-001
1.889805e+003,4.296265e+000
1.890769e+003,5.766846e+000
1.891733e+003,6.298462e+000
1.892698e+003,5.660767e+000
1.893662e+003,3.985229e+000
1.894626e+003,2.023315e-001
1.895590e+003,-2.806152e+000
1.896554e+003,-2.011597e+000
1.897519e+003,3.247681e-001
1.898483e+003,1.004272e+000
1.899447e+003,1.807861e-001
1.900411e+003,2.789917e-001
1.901376e+003,1.937378e+000
1.902340e+003,2.808044e+000
1.903304e+003,1.408691e+000
1.904268e+003,-2.103882e-001
1.905233e+003,-1.125854e+000
1.906197e+003,-1.026917e+000
1.907161e+003,1.348633e+000
1.908125e+003,4.672302e+000
1.909090e+003,6.313293e+000
1.910054e+003,5.908325e+000
1.911018e+003,4.280640e+000
1.911982e+003,2.157959e+000
1.912947e+003,7.079468e-001
1.913911e+003,6.552734e-001
1.914875e+003,1.532654e+000
1.915839e+003,2.496826e+000
1.916803e+003,3.274902e+000
1.917768e+003,4.452637e+000
1.918732e+003,6.710754e+000
1.919696e+003,6.489563e+000
1.920660e+003,1.983582e+000
1.921625e+003,1.058655e+000
1.922589e+003,8.263550e+000
1.923553e+003,1.405664e+001
1.924517e+003,1.204010e+001
1.925481e+003,7.762024e+000
1.926446e+003,5.256775e+000
1.927410e+003,4.377380e+000
1.928374e+003,4.970093e+000
1.929338e+003,6.562378e+000
1.930303e+003,7.177063e+000
1.931267e+003,6.962341e+000
1.932231e+003,5.891541e+000
1.933195e+003,1.541687e+000
1.934160e+003,-1.813782e+000
1.935124e+003,-1.460571e-001
1.936088e+003,3.281067e+000
1.937052e+003,5.780945e+000
1.938017e+003,6.906250e+000
1.938981e+003,5.477356e+000
1.939945e+003,1.981689e+000
1.940909e+003,-9.580078e-001
1.941874e+003,-2.217346e+000
1.942838e+003,-2.651611e+000
1.943802e+003,-2.689270e+000
1.944766e+003,-1.968384e+000
1.945730e+003,-5.122681e-001
1.946695e+003,1.280701e+000
1.947659e+003,2.678223e+000
1.948623e+003,3.619202e+000
1.949587e+003,3.419556e+000
1.950552e+003,1.797241e+000
1.951516e+003,8.851318e-001
1.952480e+003,1.509460e+000
1.953444e+003,2.698669e+000
1.954408e+003,3.898315e+000
1.955373e+003,4.641846e+000
1.956337e+003,4.847351e+000
1.957301e+003,4.912170e+000
1.958265e+003,4.355347e+000
1.959230e+003,2.999634e+000
1.960194e+003,3.038391e+000
1.961158e+003,5.487000e+000
1.962122e+003,6.791626e+000
1.963087e+003,4.763306e+000
1.964051e+003,3.147766e+000
1.965015e+003,5.662781e+000
1.965979e+003,9.052429e+000
1.966944e+003,8.719543e+000
1.967908e+003,6.395630e+000
1.968872e+003,7.052063e+000
1.969836e+003,1.045441e+001
1.970801e+003,1.134113e+001
1.971765e+003,7.667847e+000
1.972729e+003,3.334351e+000
1.973693e+003,1.377136e+000
1.974657e+003,1.146484e+000
1.975622e+003,1.954285e+000
1.976586e+003,3.322021e+000
1.977550e+003,4.646973e+000
1.978514e+003,5.954224e+000
1.979479e+003,6.687744e+000
1.980443e+003,6.676331e+000
1.981407e+003,6.131042e+000
1.982371e+003,5.280151e+000
1.983335e+003,4.212097e+000
1.984300e+003,2.568604e+000
1.985264e+003,1.338379e+000
1.986228e+003,2.591919e+000
1.987192e+003,5.598389e+000
1.988157e+003,6.515442e+000
1.989121e+003,4.922058e+000
1.990085e+003,4.329590e+000
1.991049e+003,5.680847e+000
1.992014e+003,6.634766e+000
1.992978e+003,6.216187e+000
1.993942e+003,5.824585e+000
1.994906e+003,5.754944e+000
1.995871e+003,6.098755e+000
1.996835e+003,7.493225e+000
1.997799e+003,9.287537e+000
1.998763e+003,1.008307e+001
1.999728e+003,9.921570e+000
