5.003444e+002,4.271463e+001
5.013087e+002,4.375081e+001
5.022729e+002,4.289465e+001
5.032371e+002,4.071864e+001
5.042014e+002,3.884288e+001
5.051656e+002,3.729788e+001
5.061298e+002,3.629990e+001
5.070941e+002,3.607387e+001
5.080583e+002,3.674422e+001
5.090225e+002,3.716518e+001
5.099868e+002,3.716455e+001
5.109510e+002,3.716959e+001
5.119152e+002,3.752042e+001
5.128795e+002,3.827829e+001
5.138437e+002,3.869490e+001
5.148079e+002,3.836348e+001
5.157722e+002,3.784634e+001
5.167364e+002,3.724023e+001
5.177006e+002,3.658044e+001
5.186649e+002,3.588548e+001
5.196291e+002,3.522923e+001
5.205933e+002,3.476767e+001
5.215576e+002,3.465312e+001
5.225218e+002,3.474321e+001
5.234860e+002,3.469391e+001
5.244503e+002,3.399741e+001
5.254145e+002,3.258733e+001
5.263787e+002,3.100308e+001
5.273430e+002,2.830640e+001
5.283072e+002,2.603825e+001
5.292714e+002,2.672681e+001
5.302357e+002,3.259442e+001
5.311999e+002,3.622678e+001
5.321641e+002,3.638191e+001
5.331284e+002,3.502263e+001
5.340926e+002,3.323372e+001
5.350568e+002,3.127847e+001
5.360211e+002,2.968494e+001
5.369853e+002,2.960201e+001
5.379495e+002,2.990916e+001
5.389138e+002,2.939967e+001
5.398780e+002,2.771553e+001
5.408422e+002,2.566994e+001
5.418065e+002,2.597966e+001
5.427707e+002,2.822993e+001
5.437349e+002,2.945686e+001
5.446992e+002,2.878091e+001
5.456634e+002,2.659657e+001
5.466276e+002,2.430540e+001
5.475919e+002,2.127101e+001
5.485561e+002,1.911943e+001
5.495203e+002,1.802672e+001
5.504846e+002,1.771419e+001
5.514488e+002,1.792645e+001
5.524130e+002,1.892274e+001
5.533773e+002,1.987538e+001
5.543415e+002,2.038451e+001
5.553057e+002,2.063002e+001
5.562700e+002,2.076910e+001
5.572342e+002,2.088402e+001
5.581984e+002,2.089388e+001
5.591627e+002,2.089215e+001
5.601269e+002,2.080562e+001
5.610911e+002,1.997479e+001
5.620554e+002,1.792563e+001
5.630196e+002,1.491925e+001
5.639838e+002,1.376636e+001
5.649481e+002,1.597057e+001
5.659123e+002,1.782597e+001
5.668765e+002,1.901100e+001
5.678408e+002,1.958447e+001
5.688050e+002,1.947287e+001
5.697692e+002,1.781876e+001
5.707335e+002,1.624486e+001
5.716977e+002,1.551109e+001
5.726619e+002,1.515300e+001
5.736262e+002,1.445461e+001
5.745904e+002,1.287990e+001
5.755546e+002,1.113002e+001
5.765189e+002,9.696503e+000
5.774831e+002,8.772293e+000
5.784473e+002,9.232635e+000
5.794116e+002,1.169775e+001
5.803758e+002,1.592308e+001
5.813400e+002,1.764871e+001
5.823043e+002,1.616536e+001
5.832685e+002,1.458426e+001
5.842327e+002,1.416360e+001
5.851970e+002,1.474652e+001
5.861612e+002,1.486476e+001
5.871254e+002,1.340356e+001
5.880897e+002,1.234204e+001
5.890539e+002,1.222787e+001
5.900181e+002,1.267630e+001
5.909824e+002,1.302205e+001
5.919466e+002,1.284358e+001
5.929108e+002,1.256996e+001
5.938751e+002,1.291330e+001
5.948393e+002,1.344080e+001
5.958035e+002,1.341383e+001
5.967678e+002,1.231749e+001
5.977320e+002,1.040479e+001
5.986962e+002,9.358047e+000
5.996605e+002,9.048523e+000
6.006247e+002,8.717529e+000
6.015889e+002,7.779312e+000
6.025532e+002,6.345566e+000
6.035174e+002,5.854889e+000
6.044816e+002,7.810669e+000
6.054459e+002,9.161682e+000
6.064101e+002,9.062775e+000
6.073743e+002,8.117783e+000
6.083386e+002,7.572067e+000
6.093028e+002,8.399414e+000
6.102670e+002,9.088242e+000
6.112313e+002,7.867966e+000
6.121955e+002,5.984390e+000
6.131597e+002,5.315018e+000
6.141240e+002,7.097092e+000
6.150882e+002,1.038388e+001
6.160524e+002,1.102261e+001
6.170167e+002,9.541733e+000
6.179809e+002,7.611053e+000
6.189451e+002,5.653885e+000
6.199094e+002,3.740936e+000
6.208736e+002,2.775314e+000
6.218378e+002,4.289719e+000
6.228021e+002,5.224075e+000
6.237663e+002,4.788910e+000
6.247305e+002,3.781189e+000
6.256948e+002,3.581329e+000
6.266590e+002,5.054199e+000
6.276232e+002,6.370407e+000
6.285875e+002,6.111465e+000
6.295517e+002,5.412613e+000
6.305159e+002,5.624237e+000
6.314802e+002,7.392395e+000
6.324444e+002,9.765808e+000
6.334086e+002,1.008621e+001
6.343729e+002,9.011887e+000
6.353371e+002,7.650070e+000
6.363013e+002,6.246628e+000
6.372656e+002,4.931549e+000
6.382298e+002,4.267776e+000
6.391940e+002,5.159729e+000
6.401583e+002,5.464783e+000
6.411225e+002,4.584045e+000
6.420867e+002,3.581467e+000
6.430510e+002,3.973831e+000
6.440152e+002,6.729309e+000
6.449794e+002,8.512405e+000
6.459437e+002,6.790909e+000
6.469079e+002,4.188080e+000
6.478721e+002,2.877441e+000
6.488364e+002,3.547699e+000
6.498006e+002,4.872360e+000
6.507648e+002,4.123871e+000
6.517291e+002,2.178299e+000
6.526933e+002,1.493607e+000
6.536575e+002,2.600021e+000
6.546218e+002,4.306580e+000
6.555860e+002,4.232407e+000
6.565502e+002,7.427063e-001
6.575145e+002,-9.916992e-001
6.584787e+002,-3.532410e-002
6.594429e+002,1.679062e+000
6.604072e+002,2.710236e+000
6.613714e+002,2.825302e+000
6.623356e+002,2.795242e+000
6.632999e+002,2.779984e+000
6.642641e+002,2.775955e+000
6.652283e+002,2.991409e+000
6.661926e+002,3.364639e+000
6.671568e+002,3.585571e+000
6.681210e+002,3.201065e+000
6.690853e+002,2.299927e+000
6.700495e+002,1.217941e+000
6.710137e+002,5.920410e-003
6.719780e+002,-9.283295e-001
6.729422e+002,-1.138794e+000
6.739064e+002,-4.936523e-001
6.748707e+002,-6.101990e-002
6.758349e+002,4.598083e-001
6.767991e+002,4.865875e-001
6.777634e+002,-8.066254e-001
6.787276e+002,-3.018005e+000
6.796918e+002,-3.717285e+000
6.806561e+002,-1.538239e-001
6.816203e+002,2.901047e+000
6.825845e+002,3.044525e+000
6.835488e+002,1.521667e+000
6.845130e+002,5.616760e-001
6.854772e+002,1.877167e+000
6.864415e+002,4.501801e+000
6.874057e+002,6.538895e+000
6.883699e+002,7.838348e+000
6.893342e+002,7.749512e+000
6.902984e+002,5.773239e+000
6.912626e+002,2.407181e+000
6.922269e+002,8.997040e-001
6.931911e+002,3.159058e+000
6.941553e+002,4.976273e+000
6.951196e+002,6.114670e+000
6.960838e+002,6.470245e+000
6.970480e+002,5.789703e+000
6.980123e+002,3.605240e+000
6.989765e+002,1.532455e+000
6.999407e+002,-2.184296e-001
7.009050e+002,-1.364700e+000
7.018692e+002,-1.472534e+000
7.028334e+002,-5.132141e-001
7.037977e+002,9.107666e-001
7.047619e+002,2.107941e+000
7.057261e+002,3.072784e+000
7.066904e+002,3.700348e+000
7.076546e+002,3.956665e+000
7.086188e+002,3.668747e+000
7.095831e+002,2.411758e+000
7.105473e+002,-7.373505e-001
7.115115e+002,-1.832428e+000
7.124758e+002,4.069214e-001
7.134400e+002,2.912750e+000
7.144042e+002,3.822617e+000
7.153685e+002,3.113312e+000
7.163327e+002,2.484238e+000
7.172969e+002,2.934143e+000
7.182612e+002,3.420197e+000
7.192254e+002,3.356567e+000
7.201896e+002,2.950455e+000
7.211539e+002,2.824677e+000
7.221181e+002,3.588562e+000
7.230823e+002,4.658005e+000
7.240466e+002,4.301529e+000
7.250108e+002,2.923798e+000
7.259750e+002,1.780624e+000
7.269393e+002,1.552170e+000
7.279035e+002,2.022766e+000
7.288677e+002,2.135117e+000
7.298320e+002,1.470215e+000
7.307962e+002,1.347565e+000
7.317604e+002,2.284439e+000
7.327247e+002,3.665314e+000
7.336889e+002,4.630493e+000
7.346531e+002,4.864578e+000
7.356174e+002,4.390640e+000
7.365816e+002,3.185745e+000
7.375458e+002,1.781723e+000
7.385101e+002,6.526184e-002
7.394743e+002,-1.671494e+000
7.404385e+002,-2.358124e+000
7.414028e+002,2.716370e-001
7.423670e+002,5.034119e+000
7.433312e+002,6.951111e+000
7.442955e+002,5.633896e+000
7.452597e+002,3.441513e+000
7.462239e+002,3.035477e+000
7.471882e+002,4.951920e+000
7.481524e+002,6.195572e+000
7.491166e+002,6.940231e+000
7.500809e+002,6.734375e+000
7.510451e+002,4.750549e+000
7.520093e+002,1.566406e+000
7.529736e+002,-9.530945e-001
7.539378e+002,-1.844681e+000
7.549020e+002,-1.631073e+000
7.558663e+002,-1.485291e-001
7.568306e+002,1.804825e+000
7.577948e+002,3.081207e+000
7.587590e+002,2.995865e+000
7.597233e+002,2.054764e+000
7.606875e+002,2.035492e+000
7.616517e+002,2.865814e+000
7.626160e+002,3.328049e+000
7.635802e+002,3.043732e+000
7.645444e+002,2.345291e+000
7.655087e+002,1.860291e+000
7.664729e+002,1.508606e+000
7.674371e+002,1.559753e+000
7.684014e+002,2.591309e+000
7.693656e+002,3.433121e+000
7.703298e+002,2.773376e+000
7.712941e+002,7.581787e-001
7.722583e+002,-1.686249e-001
7.732225e+002,2.986725e+000
7.741868e+002,6.846085e+000
7.751510e+002,8.827484e+000
7.761152e+002,9.181534e+000
7.770795e+002,9.115723e+000
7.780437e+002,9.683731e+000
7.790079e+002,1.066228e+001
7.799722e+002,1.002649e+001
7.809364e+002,7.725067e+000
7.819006e+002,5.437149e+000
7.828649e+002,3.566727e+000
7.838291e+002,2.264511e+000
7.847933e+002,1.997467e+000
7.857576e+002,3.551575e+000
7.867218e+002,4.592163e+000
7.876860e+002,4.336456e+000
7.886503e+002,3.906479e+000
7.896145e+002,4.398865e+000
7.905787e+002,6.032364e+000
7.915430e+002,7.712921e+000
7.925072e+002,8.204178e+000
7.934714e+002,7.920517e+000
7.944357e+002,7.308701e+000
7.953999e+002,6.508591e+000
7.963641e+002,5.486542e+000
7.973284e+002,4.114120e+000
7.982926e+002,2.317520e+000
7.992568e+002,1.969177e+000
8.002211e+002,3.541275e+000
8.011853e+002,4.916336e+000
8.021495e+002,5.397293e+000
8.031138e+002,5.307388e+000
8.040780e+002,5.447968e+000
8.050422e+002,6.079544e+000
8.060065e+002,6.458664e+000
8.069707e+002,5.878662e+000
8.079349e+002,5.134933e+000
8.088992e+002,5.182465e+000
8.098634e+002,6.323822e+000
8.108276e+002,7.775742e+000
8.117919e+002,8.295898e+000
8.127561e+002,8.116211e+000
8.137203e+002,8.271194e+000
8.146846e+002,8.935226e+000
8.156488e+002,8.989624e+000
8.166130e+002,6.656357e+000
8.175773e+002,9.039917e-001
8.185415e+002,-1.026886e+000
8.195057e+002,3.747803e+000
8.204700e+002,7.853043e+000
8.214342e+002,8.272308e+000
8.223984e+002,6.153015e+000
8.233627e+002,4.850479e+000
8.243269e+002,5.928909e+000
8.252911e+002,7.170364e+000
8.262554e+002,7.307129e+000
8.272196e+002,6.866699e+000
8.281838e+002,6.186325e+000
8.291481e+002,5.500305e+000
8.301123e+002,5.116821e+000
8.310765e+002,5.858704e+000
8.320408e+002,7.442841e+000
8.330050e+002,7.186707e+000
8.339692e+002,4.530365e+000
8.349335e+002,1.414063e+000
8.358977e+002,-2.917786e-001
8.368619e+002,-4.710388e-001
8.378262e+002,2.607117e-001
8.387904e+002,2.856262e+000
8.397546e+002,5.084915e+000
8.407189e+002,6.424408e+000
8.416831e+002,7.039261e+000
8.426473e+002,7.363510e+000
8.436116e+002,7.639420e+000
8.445758e+002,7.470184e+000
8.455400e+002,5.511093e+000
8.465043e+002,3.163925e+000
8.474685e+002,2.449310e+000
8.484327e+002,3.823883e+000
8.493970e+002,6.006332e+000
8.503612e+002,6.736465e+000
8.513254e+002,5.684357e+000
8.522897e+002,4.894669e+000
8.532539e+002,4.087250e+000
8.542181e+002,3.724182e+000
8.551824e+002,4.491806e+000
8.561466e+002,6.292557e+000
8.571108e+002,7.558334e+000
8.580751e+002,7.068741e+000
8.590393e+002,6.767975e+000
8.600035e+002,7.307465e+000
8.609678e+002,8.477676e+000
8.619320e+002,1.023747e+001
8.628962e+002,1.246394e+001
8.638605e+002,1.449586e+001
8.648247e+002,1.512798e+001
8.657889e+002,1.481999e+001
8.667532e+002,1.457480e+001
8.677174e+002,1.451988e+001
8.686816e+002,1.437791e+001
8.696459e+002,1.373450e+001
8.706101e+002,1.244023e+001
8.715743e+002,1.221820e+001
8.725386e+002,1.380914e+001
8.735028e+002,1.542648e+001
8.744670e+002,1.671819e+001
8.754313e+002,1.759581e+001
8.763955e+002,1.793954e+001
8.773597e+002,1.756856e+001
8.783240e+002,1.733095e+001
8.792882e+002,1.808847e+001
8.802524e+002,1.900600e+001
8.812167e+002,1.923506e+001
8.821809e+002,1.872197e+001
8.831451e+002,1.811118e+001
8.841094e+002,1.824443e+001
8.850736e+002,1.919769e+001
8.860378e+002,2.054628e+001
8.870021e+002,2.253685e+001
8.879663e+002,2.390855e+001
8.889305e+002,2.333134e+001
8.898948e+002,2.131911e+001
8.908590e+002,2.080409e+001
8.918232e+002,2.344185e+001
8.927875e+002,2.531491e+001
8.937517e+002,2.524301e+001
8.947159e+002,2.444339e+001
8.956802e+002,2.371844e+001
8.966444e+002,2.329169e+001
8.976086e+002,2.306100e+001
8.985729e+002,2.300136e+001
8.995371e+002,2.326068e+001
9.005013e+002,2.404640e+001
9.014656e+002,2.529008e+001
9.024298e+002,2.652670e+001
9.033940e+002,2.735257e+001
9.043583e+002,2.773299e+001
9.053225e+002,2.798097e+001
9.062867e+002,2.804581e+001
9.072510e+002,2.787665e+001
9.082152e+002,2.732956e+001
9.091794e+002,2.684682e+001
9.101437e+002,2.687636e+001
9.111079e+002,2.748332e+001
9.120721e+002,2.820367e+001
9.130364e+002,2.906453e+001
9.140006e+002,2.950977e+001
9.149648e+002,2.886504e+001
9.159291e+002,2.769203e+001
9.168933e+002,2.716939e+001
9.178575e+002,2.805743e+001
9.188218e+002,2.965012e+001
9.197860e+002,2.943912e+001
9.207502e+002,2.732527e+001
9.217145e+002,2.595494e+001
9.226787e+002,2.626181e+001
9.236429e+002,2.730965e+001
9.246072e+002,2.784694e+001
9.255714e+002,2.777586e+001
9.265356e+002,2.733916e+001
9.274999e+002,2.610619e+001
9.284641e+002,2.495201e+001
9.294283e+002,2.439513e+001
9.303926e+002,2.415065e+001
9.313568e+002,2.351321e+001
9.323210e+002,2.206799e+001
9.332853e+002,2.058798e+001
9.342495e+002,2.044337e+001
9.352137e+002,2.107645e+001
9.361780e+002,2.208788e+001
9.371422e+002,2.342097e+001
9.381064e+002,2.450977e+001
9.390707e+002,2.444011e+001
9.400349e+002,2.290433e+001
9.409991e+002,2.163799e+001
9.419634e+002,2.082257e+001
9.429276e+002,1.995969e+001
9.438918e+002,1.846545e+001
9.448561e+002,1.702063e+001
9.458203e+002,1.701553e+001
9.467845e+002,1.916182e+001
9.477488e+002,2.123119e+001
9.487130e+002,2.138432e+001
9.496772e+002,2.084436e+001
9.506415e+002,2.053577e+001
9.516057e+002,2.048578e+001
9.525699e+002,2.016656e+001
9.535342e+002,1.904446e+001
9.544984e+002,1.716153e+001
9.554626e+002,1.497160e+001
9.564269e+002,1.225896e+001
9.573911e+002,1.062477e+001
9.583553e+002,1.088246e+001
9.593196e+002,1.225703e+001
9.602838e+002,1.369092e+001
9.612480e+002,1.528531e+001
9.622123e+002,1.618275e+001
9.631765e+002,1.588643e+001
9.641407e+002,1.518330e+001
9.651050e+002,1.372702e+001
9.660692e+002,1.218172e+001
9.670334e+002,1.192195e+001
9.679977e+002,1.388039e+001
9.689619e+002,1.691193e+001
9.699261e+002,1.824947e+001
9.708904e+002,1.841396e+001
9.718546e+002,1.910634e+001
9.728188e+002,2.076306e+001
9.737831e+002,2.261627e+001
9.747473e+002,2.363354e+001
9.757115e+002,2.364684e+001
9.766758e+002,2.389230e+001
9.776400e+002,2.529573e+001
9.786042e+002,2.594751e+001
9.795685e+002,2.486008e+001
9.805327e+002,2.286424e+001
9.814969e+002,2.106125e+001
9.824612e+002,1.987225e+001
9.834254e+002,1.913985e+001
9.843896e+002,1.924776e+001
9.853539e+002,1.921448e+001
9.863181e+002,1.773819e+001
9.872823e+002,1.492409e+001
9.882466e+002,1.181705e+001
9.892108e+002,9.370224e+000
9.901750e+002,7.667877e+000
9.911393e+002,6.626465e+000
9.921035e+002,6.428543e+000
9.930677e+002,6.205856e+000
9.940320e+002,6.050232e+000
9.949962e+002,5.928391e+000
9.959604e+002,5.516922e+000
9.969247e+002,4.882034e+000
9.978889e+002,5.307114e+000
9.988531e+002,8.381561e+000
9.998174e+002,1.122672e+001
1.000782e+003,1.204901e+001
1.001746e+003,1.166980e+001
1.002710e+003,1.134540e+001
1.003674e+003,1.160713e+001
1.004639e+003,1.195479e+001
1.005603e+003,1.150063e+001
1.006567e+003,1.011305e+001
1.007531e+003,8.700485e+000
1.008495e+003,7.167740e+000
1.009460e+003,5.807922e+000
1.010424e+003,4.619675e+000
1.011388e+003,3.747421e+000
1.012352e+003,3.880295e+000
1.013317e+003,5.818008e+000
1.014281e+003,7.195419e+000
1.015245e+003,7.230026e+000
1.016209e+003,6.567673e+000
1.017174e+003,5.324219e+000
1.018138e+003,3.843246e+000
1.019102e+003,2.858627e+000
1.020066e+003,3.076355e+000
1.021031e+003,3.951660e+000
1.021995e+003,3.488022e+000
1.022959e+003,1.940536e+000
1.023923e+003,1.113373e+000
1.024887e+003,1.917252e+000
1.025852e+003,3.109634e+000
1.026816e+003,2.471909e+000
1.027780e+003,-5.766144e-001
1.028744e+003,-2.397797e+000
1.029709e+003,-1.672806e+000
1.030673e+003,-9.716492e-001
1.031637e+003,-1.277542e+000
1.032601e+003,-2.010727e+000
1.033566e+003,-2.182724e+000
1.034530e+003,-1.438828e+000
1.035494e+003,-4.701080e-001
1.036458e+003,9.796143e-002
1.037422e+003,2.208862e-001
1.038387e+003,-6.077118e-001
1.039351e+003,-2.169693e+000
1.040315e+003,-2.583786e+000
1.041279e+003,-1.129913e-001
1.042244e+003,4.302643e+000
1.043208e+003,5.642654e+000
1.044172e+003,4.588013e-001
1.045136e+003,-2.028015e+000
1.046101e+003,7.589722e-001
1.047065e+003,3.827011e+000
1.048029e+003,3.560333e+000
1.048993e+003,5.991364e-001
1.049958e+003,-1.741165e+000
1.050922e+003,-1.990845e+000
1.051886e+003,-8.403473e-001
1.052850e+003,1.953415e+000
1.053814e+003,5.080048e+000
1.054779e+003,6.749908e+000
1.055743e+003,6.608307e+000
1.056707e+003,5.508926e+000
1.057671e+003,4.463058e+000
1.058636e+003,3.454697e+000
1.059600e+003,2.202560e+000
1.060564e+003,2.076874e-001
1.061528e+003,-1.119705e+000
1.062493e+003,-1.467285e+000
1.063457e+003,-1.274765e+000
1.064421e+003,-8.066711e-001
1.065385e+003,-8.815002e-002
1.066349e+003,4.183044e-001
1.067314e+003,8.412170e-002
1.068278e+003,-2.337646e-002
1.069242e+003,1.514236e+000
1.070206e+003,3.592499e+000
1.071171e+003,4.220276e+000
1.072135e+003,2.652924e+000
1.073099e+003,1.203003e-001
1.074063e+003,-1.260498e+000
1.075028e+003,-1.355743e+000
1.075992e+003,-1.242722e+000
1.076956e+003,-7.107086e-001
1.077920e+003,-4.657135e-001
1.078885e+003,-1.021393e+000
1.079849e+003,-1.841721e+000
1.080813e+003,-1.993408e+000
1.081777e+003,-1.297501e+000
1.082741e+003,-1.916199e-001
1.083706e+003,1.719925e+000
1.084670e+003,3.292816e+000
1.085634e+003,3.965317e+000
1.086598e+003,3.765091e+000
1.087563e+003,2.671967e+000
1.088527e+003,8.040771e-001
1.089491e+003,-1.185501e+000
1.090455e+003,-2.141815e+000
1.091420e+003,-1.986008e+000
1.092384e+003,-1.256546e+000
1.093348e+003,4.532928e-001
1.094312e+003,1.887253e+000
1.095276e+003,2.398972e+000
1.096241e+003,2.165695e+000
1.097205e+003,1.494659e+000
1.098169e+003,1.744385e-001
1.099133e+003,-1.056870e+000
1.100098e+003,-2.393173e+000
1.101062e+003,-3.085922e+000
1.102026e+003,-2.132523e+000
1.102990e+003,-1.591187e-001
1.103955e+003,1.395706e+000
1.104919e+003,1.648087e+000
1.105883e+003,1.090759e+000
1.106847e+003,8.473511e-001
1.107812e+003,8.899231e-001
1.108776e+003,2.436981e-001
1.109740e+003,-1.394089e+000
1.110704e+003,-3.181061e+000
1.111668e+003,-4.853958e+000
1.112633e+003,-6.158615e+000
1.113597e+003,-5.961220e+000
1.114561e+003,-3.483292e+000
1.115525e+003,-1.196426e+000
1.116490e+003,8.098755e-001
1.117454e+003,1.787491e+000
1.118418e+003,4.639130e-001
1.119382e+003,-2.185379e+000
1.120347e+003,-3.834137e+000
1.121311e+003,-3.123581e+000
1.122275e+003,-1.486938e+000
1.123239e+003,-1.861313e+000
1.124203e+003,-3.918159e+000
1.125168e+003,-4.435143e+000
1.126132e+003,-2.587814e+000
1.127096e+003,-6.790924e-001
1.128060e+003,-7.415314e-001
1.129025e+003,-2.324905e+000
1.129989e+003,-3.100830e+000
1.130953e+003,-2.527527e+000
1.131917e+003,-2.107437e+000
1.132882e+003,-2.816925e+000
1.133846e+003,-3.190689e+000
1.134810e+003,-1.619080e+000
1.135774e+003,9.762115e-001
1.136739e+003,2.070435e+000
1.137703e+003,2.848663e-001
1.138667e+003,-2.262848e+000
1.139631e+003,-1.490128e+000
1.140595e+003,2.119934e+000
1.141560e+003,3.799637e+000
1.142524e+003,2.855209e+000
1.143488e+003,1.927063e+000
1.144452e+003,2.851288e+000
1.145417e+003,5.190079e+000
1.146381e+003,7.430832e+000
1.147345e+003,9.601608e+000
1.148309e+003,1.136670e+001
1.149274e+003,1.189037e+001
1.150238e+003,1.285188e+001
1.151202e+003,1.558707e+001
1.152166e+003,1.936243e+001
1.153130e+003,2.300572e+001
1.154095e+003,2.580403e+001
1.155059e+003,2.714429e+001
1.156023e+003,2.589182e+001
1.156987e+003,2.248303e+001
1.157952e+003,2.043065e+001
1.158916e+003,2.009624e+001
1.159880e+003,1.975160e+001
1.160844e+003,1.837169e+001
1.161809e+003,1.618532e+001
1.162773e+003,1.386700e+001
1.163737e+003,1.142807e+001
1.164701e+003,8.864655e+000
1.165666e+003,5.488800e+000
1.166630e+003,2.819748e+000
1.167594e+003,1.935013e+000
1.168558e+003,1.869034e+000
1.169522e+003,1.106003e+000
1.170487e+003,-6.692505e-001
1.171451e+003,-2.147911e+000
1.172415e+003,-1.833000e+000
1.173379e+003,-4.470825e-002
1.174344e+003,2.033997e+000
1.175308e+003,4.674759e+000
1.176272e+003,5.322739e+000
1.177236e+003,1.680435e+000
1.178201e+003,-3.181557e+000
1.179165e+003,-5.208382e+000
1.180129e+003,-4.421425e+000
1.181093e+003,-3.975815e+000
1.182057e+003,-5.151299e+000
1.183022e+003,-5.652168e+000
1.183986e+003,-4.055191e+000
1.184950e+003,-1.861488e+000
1.185914e+003,-4.510651e-001
1.186879e+003,3.291321e-002
1.187843e+003,3.075104e-001
1.188807e+003,9.469910e-001
1.189771e+003,1.627121e+000
1.190736e+003,1.338516e+000
1.191700e+003,-5.297852e-002
1.192664e+003,-1.100548e+000
1.193628e+003,-1.340195e+000
1.194593e+003,-1.578636e+000
1.195557e+003,-2.451363e+000
1.196521e+003,-3.812988e+000
1.197485e+003,-5.225555e+000
1.198449e+003,-6.816040e+000
1.199414e+003,-7.790245e+000
1.200378e+003,-7.513527e+000
1.201342e+003,-6.755836e+000
1.202306e+003,-5.618774e+000
1.203271e+003,-4.477074e+000
1.204235e+003,-3.914528e+000
1.205199e+003,-4.180954e+000
1.206163e+003,-4.896133e+000
1.207128e+003,-5.424232e+000
1.208092e+003,-5.730064e+000
1.209056e+003,-6.772720e+000
1.210020e+003,-9.202660e+000
1.210984e+003,-1.095634e+001
1.211949e+003,-1.126588e+001
1.212913e+003,-1.072913e+001
1.213877e+003,-9.525009e+000
1.214841e+003,-7.766937e+000
1.215806e+003,-7.805389e+000
1.216770e+003,-1.204572e+001
1.217734e+003,-1.595123e+001
1.218698e+003,-1.576198e+001
1.219663e+003,-1.393723e+001
1.220627e+003,-1.363547e+001
1.221591e+003,-1.524708e+001
1.222555e+003,-1.691943e+001
1.223520e+003,-1.692970e+001
1.224484e+003,-1.551509e+001
1.225448e+003,-1.390311e+001
1.226412e+003,-1.143045e+001
1.227376e+003,-1.048059e+001
1.228341e+003,-1.193185e+001
1.229305e+003,-1.389290e+001
1.230269e+003,-1.601216e+001
1.231233e+003,-1.773593e+001
1.232198e+003,-1.777108e+001
1.233162e+003,-1.566902e+001
1.234126e+003,-1.349314e+001
1.235090e+003,-1.285696e+001
1.236055e+003,-1.283478e+001
1.237019e+003,-1.232316e+001
1.237983e+003,-1.156436e+001
1.238947e+003,-1.123935e+001
1.239911e+003,-1.160048e+001
1.240876e+003,-1.234473e+001
1.241840e+003,-1.310130e+001
1.242804e+003,-1.387930e+001
1.243768e+003,-1.443137e+001
1.244733e+003,-1.467189e+001
1.245697e+003,-1.476189e+001
1.246661e+003,-1.485653e+001
1.247625e+003,-1.478676e+001
1.248590e+003,-1.412280e+001
1.249554e+003,-1.311333e+001
1.250518e+003,-1.271167e+001
1.251482e+003,-1.344653e+001
1.252447e+003,-1.415966e+001
1.253411e+003,-1.269052e+001
1.254375e+003,-1.052174e+001
1.255339e+003,-1.161699e+001
1.256303e+003,-1.588746e+001
1.257268e+003,-1.854469e+001
1.258232e+003,-1.641696e+001
1.259196e+003,-1.185440e+001
1.260160e+003,-9.523933e+000
1.261125e+003,-9.738998e+000
1.262089e+003,-1.000932e+001
1.263053e+003,-1.046526e+001
1.264017e+003,-1.059007e+001
1.264982e+003,-9.842102e+000
1.265946e+003,-8.979904e+000
1.266910e+003,-8.631317e+000
1.267874e+003,-8.886810e+000
1.268839e+003,-9.664474e+000
1.269803e+003,-1.092050e+001
1.270767e+003,-1.220934e+001
1.271731e+003,-1.255470e+001
1.272695e+003,-1.196207e+001
1.273660e+003,-1.181753e+001
1.274624e+003,-1.239980e+001
1.275588e+003,-1.301923e+001
1.276552e+003,-1.327518e+001
1.277517e+003,-1.324208e+001
1.278481e+003,-1.310107e+001
1.279445e+003,-1.287446e+001
1.280409e+003,-1.260445e+001
1.281374e+003,-1.201340e+001
1.282338e+003,-1.178841e+001
1.283302e+003,-1.274521e+001
1.284266e+003,-1.395763e+001
1.285230e+003,-1.419621e+001
1.286195e+003,-1.347089e+001
1.287159e+003,-1.288567e+001
1.288123e+003,-1.332738e+001
1.289087e+003,-1.433175e+001
1.290052e+003,-1.458656e+001
1.291016e+003,-1.396268e+001
1.291980e+003,-1.309372e+001
1.292944e+003,-1.139897e+001
1.293909e+003,-1.031855e+001
1.294873e+003,-1.059572e+001
1.295837e+003,-1.160616e+001
1.296801e+003,-1.262943e+001
1.297766e+003,-1.352656e+001
1.298730e+003,-1.435805e+001
1.299694e+003,-1.543056e+001
1.300658e+003,-1.598936e+001
1.301622e+003,-1.430416e+001
1.302587e+003,-1.188564e+001
1.303551e+003,-1.157370e+001
1.304515e+003,-1.365308e+001
1.305479e+003,-1.564112e+001
1.306444e+003,-1.554269e+001
1.307408e+003,-1.395077e+001
1.308372e+003,-1.265978e+001
1.309336e+003,-1.148384e+001
1.310301e+003,-1.124298e+001
1.311265e+003,-1.363144e+001
1.312229e+003,-1.481952e+001
1.313193e+003,-1.225830e+001
1.314157e+003,-8.916161e+000
1.315122e+003,-8.404266e+000
1.316086e+003,-1.064855e+001
1.317050e+003,-1.248777e+001
1.318014e+003,-1.179182e+001
1.318979e+003,-9.890091e+000
1.319943e+003,-8.979034e+000
1.320907e+003,-9.056213e+000
1.321871e+003,-1.013776e+001
1.322836e+003,-1.286194e+001
1.323800e+003,-1.458844e+001
1.324764e+003,-1.320553e+001
1.325728e+003,-1.029981e+001
1.326693e+003,-8.355392e+000
1.327657e+003,-7.475655e+000
1.328621e+003,-7.813942e+000
1.329585e+003,-1.018435e+001
1.330549e+003,-1.217404e+001
1.331514e+003,-1.272179e+001
1.332478e+003,-1.249397e+001
1.333442e+003,-1.152281e+001
1.334406e+003,-1.029900e+001
1.335371e+003,-1.017672e+001
1.336335e+003,-1.191073e+001
1.337299e+003,-1.417522e+001
1.338263e+003,-1.439057e+001
1.339228e+003,-1.223332e+001
1.340192e+003,-1.105017e+001
1.341156e+003,-1.191393e+001
1.342120e+003,-1.210735e+001
1.343084e+003,-1.052994e+001
1.344049e+003,-8.891876e+000
1.345013e+003,-8.737160e+000
1.345977e+003,-9.675957e+000
1.346941e+003,-1.031137e+001
1.347906e+003,-1.014645e+001
1.348870e+003,-9.679321e+000
1.349834e+003,-9.459053e+000
1.350798e+003,-9.179398e+000
1.351763e+003,-7.779755e+000
1.352727e+003,-5.597466e+000
1.353691e+003,-4.843864e+000
1.354655e+003,-6.592934e+000
1.355620e+003,-9.016411e+000
1.356584e+003,-1.011237e+001
1.357548e+003,-9.944046e+000
1.358512e+003,-9.016655e+000
1.359476e+003,-6.699684e+000
1.360441e+003,-5.516533e+000
1.361405e+003,-7.051514e+000
1.362369e+003,-8.746864e+000
1.363333e+003,-9.329582e+000
1.364298e+003,-9.295181e+000
1.365262e+003,-9.569344e+000
1.366226e+003,-1.029559e+001
1.367190e+003,-1.075887e+001
1.368155e+003,-1.031315e+001
1.369119e+003,-9.262184e+000
1.370083e+003,-8.556236e+000
1.371047e+003,-8.276917e+000
1.372011e+003,-7.880974e+000
1.372976e+003,-6.824699e+000
1.373940e+003,-6.485718e+000
1.374904e+003,-8.265625e+000
1.375868e+003,-1.041200e+001
1.376833e+003,-1.023031e+001
1.377797e+003,-7.931877e+000
1.378761e+003,-6.705727e+000
1.379725e+003,-8.106041e+000
1.380690e+003,-1.022041e+001
1.381654e+003,-1.175127e+001
1.382618e+003,-1.238623e+001
1.383582e+003,-1.102326e+001
1.384547e+003,-7.995148e+000
1.385511e+003,-5.805733e+000
1.386475e+003,-5.901604e+000
1.387439e+003,-6.865524e+000
1.388403e+003,-6.333839e+000
1.389368e+003,-4.320335e+000
1.390332e+003,-3.344711e+000
1.391296e+003,-3.637352e+000
1.392260e+003,-4.619370e+000
1.393225e+003,-6.923454e+000
1.394189e+003,-9.005745e+000
1.395153e+003,-1.005271e+001
1.396117e+003,-1.025745e+001
1.397082e+003,-9.831985e+000
1.398046e+003,-8.990219e+000
1.399010e+003,-8.185333e+000
1.399974e+003,-7.871552e+000
1.400938e+003,-7.969955e+000
1.401903e+003,-8.093414e+000
1.402867e+003,-8.211563e+000
1.403831e+003,-7.681358e+000
1.404795e+003,-5.951004e+000
1.405760e+003,-4.482361e+000
1.406724e+003,-3.934288e+000
1.407688e+003,-3.988586e+000
1.408652e+003,-4.263733e+000
1.409617e+003,-4.614151e+000
1.410581e+003,-4.894081e+000
1.411545e+003,-5.024971e+000
1.412509e+003,-5.198662e+000
1.413474e+003,-5.704254e+000
1.414438e+003,-6.399239e+000
1.415402e+003,-6.961571e+000
1.416366e+003,-7.335495e+000
1.417330e+003,-7.567871e+000
1.418295e+003,-7.715195e+000
1.419259e+003,-7.573914e+000
1.420223e+003,-6.654999e+000
1.421187e+003,-5.210915e+000
1.422152e+003,-4.742455e+000
1.423116e+003,-5.601723e+000
1.424080e+003,-6.156174e+000
1.425044e+003,-5.859245e+000
1.426009e+003,-5.384407e+000
1.426973e+003,-4.730751e+000
1.427937e+003,-4.219986e+000
1.428901e+003,-4.326920e+000
1.429865e+003,-4.933556e+000
1.430830e+003,-5.468773e+000
1.431794e+003,-5.575836e+000
1.432758e+003,-5.328560e+000
1.433722e+003,-4.737755e+000
1.434687e+003,-3.627060e+000
1.435651e+003,-3.350861e+000
1.436615e+003,-5.358292e+000
1.437579e+003,-6.413536e+000
1.438544e+003,-5.522987e+000
1.439508e+003,-4.276711e+000
1.440472e+003,-3.452431e+000
1.441436e+003,-3.083847e+000
1.442401e+003,-3.344971e+000
1.443365e+003,-4.163788e+000
1.444329e+003,-4.482353e+000
1.445293e+003,-3.329323e+000
1.446257e+003,-1.697701e+000
1.447222e+003,-1.756500e+000
1.448186e+003,-3.130829e+000
1.449150e+003,-3.553963e+000
1.450114e+003,-2.467690e+000
1.451079e+003,-2.007706e+000
1.452043e+003,-3.949532e+000
1.453007e+003,-6.562851e+000
1.453971e+003,-7.460228e+000
1.454936e+003,-6.812202e+000
1.455900e+003,-5.950264e+000
1.456864e+003,-5.010033e+000
1.457828e+003,-4.247978e+000
1.458792e+003,-3.844330e+000
1.459757e+003,-3.742737e+000
1.460721e+003,-3.869873e+000
1.461685e+003,-4.266953e+000
1.462649e+003,-5.305267e+000
1.463614e+003,-6.916435e+000
1.464578e+003,-7.833534e+000
1.465542e+003,-6.814812e+000
1.466506e+003,-4.600380e+000
1.467471e+003,-3.210800e+000
1.468435e+003,-2.590172e+000
1.469399e+003,-2.760239e+000
1.470363e+003,-5.348068e+000
1.471328e+003,-6.496155e+000
1.472292e+003,-3.890411e+000
1.473256e+003,-1.112122e+000
1.474220e+003,-8.806534e-001
1.475184e+003,-2.332069e+000
1.476149e+003,-3.391983e+000
1.477113e+003,-3.405563e+000
1.478077e+003,-3.331711e+000
1.479041e+003,-4.068810e+000
1.480006e+003,-5.166153e+000
1.480970e+003,-5.175972e+000
1.481934e+003,-3.717415e+000
1.482898e+003,-3.051949e+000
1.483863e+003,-3.896309e+000
1.484827e+003,-4.461594e+000
1.485791e+003,-4.186325e+000
1.486755e+003,-3.427917e+000
1.487719e+003,-2.294769e+000
1.488684e+003,-1.063683e+000
1.489648e+003,-3.295670e-001
1.490612e+003,-2.347260e-001
1.491576e+003,-9.641266e-002
1.492541e+003,7.163162e-001
1.493505e+003,1.735596e+000
1.494469e+003,1.926575e+000
1.495433e+003,1.338814e+000
1.496398e+003,3.592911e-001
1.497362e+003,-1.269798e+000
1.498326e+003,-2.019516e+000
1.499290e+003,-3.823547e-001
1.500255e+003,2.055809e+000
1.501219e+003,2.929459e+000
1.502183e+003,2.513947e+000
1.503147e+003,2.862709e+000
1.504111e+003,4.515884e+000
1.505076e+003,6.476753e+000
1.506040e+003,8.336685e+000
1.507004e+003,1.009727e+001
1.507968e+003,1.196887e+001
1.508933e+003,1.370933e+001
1.509897e+003,1.447931e+001
1.510861e+003,1.431509e+001
1.511825e+003,1.510748e+001
1.512790e+003,1.838917e+001
1.513754e+003,2.282757e+001
1.514718e+003,2.583963e+001
1.515682e+003,2.738963e+001
1.516646e+003,2.949836e+001
1.517611e+003,3.253928e+001
1.518575e+003,3.576559e+001
1.519539e+003,4.060124e+001
1.520503e+003,4.392825e+001
1.521468e+003,4.301464e+001
1.522432e+003,4.005124e+001
1.523396e+003,3.801485e+001
1.524360e+003,3.737110e+001
1.525325e+003,3.687950e+001
1.526289e+003,3.573997e+001
1.527253e+003,3.416317e+001
1.528217e+003,3.247837e+001
1.529182e+003,3.072443e+001
1.530146e+003,2.891676e+001
1.531110e+003,2.679958e+001
1.532074e+003,2.504626e+001
1.533039e+003,2.452754e+001
1.534003e+003,2.312170e+001
1.534967e+003,1.902929e+001
1.535931e+003,1.436459e+001
1.536896e+003,1.173076e+001
1.537860e+003,1.096387e+001
1.538824e+003,9.995293e+000
1.539788e+003,7.759903e+000
1.540752e+003,5.264336e+000
1.541717e+003,3.840950e+000
1.542681e+003,3.413330e+000
1.543645e+003,3.282318e+000
1.544609e+003,3.651321e+000
1.545573e+003,3.963387e+000
1.546538e+003,3.871651e+000
1.547502e+003,4.012276e+000
1.548466e+003,5.118523e+000
1.549430e+003,6.309792e+000
1.550395e+003,6.581413e+000
1.551359e+003,6.056709e+000
1.552323e+003,5.442513e+000
1.553287e+003,4.998253e+000
1.554252e+003,4.374794e+000
1.555216e+003,3.139130e+000
1.556180e+003,1.864212e+000
1.557144e+003,2.282738e+000
1.558109e+003,4.474266e+000
1.559073e+003,4.513435e+000
1.560037e+003,6.779175e-001
1.561001e+003,-1.999405e+000
1.561966e+003,-1.252655e+000
1.562930e+003,9.026871e-001
1.563894e+003,3.228783e+000
1.564858e+003,5.253532e+000
1.565823e+003,6.034157e+000
1.566787e+003,5.436172e+000
1.567751e+003,4.403320e+000
1.568715e+003,3.312286e+000
1.569679e+003,2.532898e+000
1.570644e+003,2.707108e+000
1.571608e+003,3.454399e+000
1.572572e+003,3.781044e+000
1.573536e+003,3.692940e+000
1.574500e+003,3.425034e+000
1.575465e+003,2.567444e+000
1.576429e+003,2.269608e+000
1.577393e+003,4.061272e+000
1.578357e+003,6.766914e+000
1.579322e+003,8.115532e+000
1.580286e+003,8.022888e+000
1.581250e+003,7.497581e+000
1.582214e+003,6.691734e+000
1.583179e+003,6.074608e+000
1.584143e+003,6.056396e+000
1.585107e+003,6.305542e+000
1.586071e+003,6.485443e+000
1.587036e+003,6.653732e+000
1.588000e+003,6.860184e+000
1.588964e+003,7.096107e+000
1.589928e+003,6.967087e+000
1.590893e+003,5.780754e+000
1.591857e+003,4.523117e+000
1.592821e+003,4.780945e+000
1.593785e+003,6.362022e+000
1.594750e+003,8.454559e+000
1.595714e+003,1.128271e+001
1.596678e+003,1.216882e+001
1.597642e+003,8.478485e+000
1.598606e+003,4.855263e+000
1.599571e+003,5.453011e+000
1.600535e+003,8.058838e+000
1.601499e+003,1.018018e+001
1.602463e+003,1.152724e+001
1.603427e+003,1.229011e+001
1.604392e+003,1.253867e+001
1.605356e+003,1.237453e+001
1.606320e+003,1.160851e+001
1.607284e+003,1.061045e+001
1.608249e+003,1.059743e+001
1.609213e+003,1.161592e+001
1.610177e+003,1.211893e+001
1.611141e+003,1.157166e+001
1.612106e+003,1.120601e+001
1.613070e+003,1.208132e+001
1.614034e+003,1.290778e+001
1.614998e+003,1.245274e+001
1.615963e+003,1.142654e+001
1.616927e+003,1.111900e+001
1.617891e+003,1.165709e+001
1.618855e+003,1.219086e+001
1.619820e+003,1.216603e+001
1.620784e+003,1.198325e+001
1.621748e+003,1.233831e+001
1.622712e+003,1.322295e+001
1.623677e+003,1.424733e+001
1.624641e+003,1.560565e+001
1.625605e+003,1.586413e+001
1.626569e+003,1.348260e+001
1.627533e+003,1.173013e+001
1.628498e+003,1.293762e+001
1.629462e+003,1.487958e+001
1.630426e+003,1.583736e+001
1.631390e+003,1.594015e+001
1.632354e+003,1.565293e+001
1.633319e+003,1.518635e+001
1.634283e+003,1.503202e+001
1.635247e+003,1.563190e+001
1.636211e+003,1.646716e+001
1.637176e+003,1.654918e+001
1.638140e+003,1.596853e+001
1.639104e+003,1.577991e+001
1.640068e+003,1.616087e+001
1.641033e+003,1.623683e+001
1.641997e+003,1.562639e+001
1.642961e+003,1.496510e+001
1.643925e+003,1.449474e+001
1.644890e+003,1.417317e+001
1.645854e+003,1.386283e+001
1.646818e+003,1.365813e+001
1.647782e+003,1.391485e+001
1.648747e+003,1.469634e+001
1.649711e+003,1.549979e+001
1.650675e+003,1.606853e+001
1.651639e+003,1.617413e+001
1.652604e+003,1.483348e+001
1.653568e+003,1.211082e+001
1.654532e+003,1.103050e+001
1.655496e+003,1.227556e+001
1.656460e+003,1.326965e+001
1.657425e+003,1.306708e+001
1.658389e+003,1.280175e+001
1.659353e+003,1.325542e+001
1.660317e+003,1.383449e+001
1.661281e+003,1.388852e+001
1.662246e+003,1.346982e+001
1.663210e+003,1.290697e+001
1.664174e+003,1.234219e+001
1.665138e+003,1.195312e+001
1.666103e+003,1.199613e+001
1.667067e+003,1.205416e+001
1.668031e+003,1.093299e+001
1.668995e+003,8.817329e+000
1.669960e+003,8.428444e+000
1.670924e+003,1.048424e+001
1.671888e+003,1.211020e+001
1.672852e+003,1.234119e+001
1.673817e+003,1.198335e+001
1.674781e+003,1.161543e+001
1.675745e+003,1.092906e+001
1.676709e+003,9.178307e+000
1.677674e+003,6.815765e+000
1.678638e+003,5.180550e+000
1.679602e+003,4.703606e+000
1.680566e+003,5.081268e+000
1.681531e+003,6.585396e+000
1.682495e+003,8.201286e+000
1.683459e+003,7.656425e+000
1.684423e+003,5.414276e+000
1.685387e+003,4.866768e+000
1.686352e+003,6.566338e+000
1.687316e+003,8.017136e+000
1.688280e+003,8.494781e+000
1.689244e+003,8.412872e+000
1.690208e+003,7.474075e+000
1.691173e+003,6.513504e+000
1.692137e+003,6.739494e+000
1.693101e+003,7.806458e+000
1.694065e+003,8.356987e+000
1.695030e+003,8.005310e+000
1.695994e+003,7.427361e+000
1.696958e+003,6.949936e+000
1.697922e+003,6.627754e+000
1.698887e+003,6.705002e+000
1.699851e+003,6.976234e+000
1.700815e+003,6.578842e+000
1.701779e+003,5.446953e+000
1.702744e+003,4.851273e+000
1.703708e+003,5.290558e+000
1.704672e+003,6.230804e+000
1.705636e+003,7.756096e+000
1.706601e+003,8.927750e+000
1.707565e+003,8.045280e+000
1.708529e+003,5.800598e+000
1.709493e+003,4.191666e+000
1.710458e+003,3.454483e+000
1.711422e+003,3.180901e+000
1.712386e+003,3.587250e+000
1.713350e+003,4.020058e+000
1.714314e+003,3.860687e+000
1.715279e+003,3.348053e+000
1.716243e+003,2.838211e+000
1.717207e+003,2.409225e+000
1.718171e+003,2.140167e+000
1.719135e+003,2.062614e+000
1.720100e+003,2.449280e+000
1.721064e+003,3.683556e+000
1.722028e+003,4.792595e+000
1.722992e+003,4.221260e+000
1.723957e+003,2.379898e+000
1.724921e+003,1.339394e+000
1.725885e+003,1.067802e+000
1.726849e+003,1.084442e+000
1.727814e+003,1.791428e+000
1.728778e+003,2.316391e+000
1.729742e+003,2.096153e+000
1.730706e+003,1.661690e+000
1.731671e+003,1.417725e+000
1.732635e+003,1.318932e+000
1.733599e+003,1.245842e+000
1.734563e+003,1.254700e+000
1.735528e+003,1.684044e+000
1.736492e+003,2.684967e+000
1.737456e+003,3.373528e+000
1.738420e+003,2.594818e+000
1.739385e+003,8.880539e-001
1.740349e+003,4.591293e-001
1.741313e+003,1.765831e+000
1.742277e+003,2.209038e+000
1.743241e+003,1.019119e+000
1.744206e+003,3.124084e-001
1.745170e+003,5.314789e-001
1.746134e+003,1.033417e+000
1.747098e+003,1.537453e+000
1.748063e+003,2.065948e+000
1.749027e+003,2.961853e+000
1.749991e+003,3.898003e+000
1.750955e+003,3.817490e+000
1.751919e+003,2.556686e+000
1.752884e+003,1.560852e+000
1.753848e+003,2.046425e+000
1.754812e+003,3.058578e+000
1.755776e+003,2.612228e+000
1.756741e+003,8.180466e-001
1.757705e+003,-1.928711e-002
1.758669e+003,4.919739e-001
1.759633e+003,6.912842e-001
1.760598e+003,6.241608e-002
1.761562e+003,-4.524841e-001
1.762526e+003,-3.844452e-001
1.763490e+003,-2.119293e-001
1.764455e+003,-2.389221e-001
1.765419e+003,-3.973312e-001
1.766383e+003,-8.324890e-001
1.767347e+003,-1.339485e+000
1.768312e+003,-8.159332e-001
1.769276e+003,1.280098e+000
1.770240e+003,3.041443e+000
1.771204e+003,2.330688e+000
1.772168e+003,1.903992e-001
1.773133e+003,-1.374001e+000
1.774097e+003,-2.328629e+000
1.775061e+003,-1.998337e+000
1.776025e+003,-1.042633e-001
1.776990e+003,1.103874e+000
1.777954e+003,7.941437e-001
1.778918e+003,-3.734589e-002
1.779882e+003,-1.520432e+000
1.780846e+003,-2.515572e+000
1.781811e+003,-6.755676e-001
1.782775e+003,2.921982e+000
1.783739e+003,4.512100e+000
1.784703e+003,3.446594e+000
1.785668e+003,2.073326e+000
1.786632e+003,9.073334e-001
1.787596e+003,2.036057e-001
1.788560e+003,6.355286e-001
1.789525e+003,1.423561e+000
1.790489e+003,1.145271e+000
1.791453e+003,1.892319e-001
1.792417e+003,2.826157e-001
1.793382e+003,1.643990e+000
1.794346e+003,2.392670e+000
1.795310e+003,1.463242e+000
1.796274e+003,3.980026e-001
1.797239e+003,1.119850e+000
1.798203e+003,2.919731e+000
1.799167e+003,3.258347e+000
1.800131e+003,1.695747e+000
1.801095e+003,9.523697e-001
1.802060e+003,1.786278e+000
1.803024e+003,2.335739e+000
1.803988e+003,2.223846e+000
1.804952e+003,1.971291e+000
1.805917e+003,1.557983e+000
1.806881e+003,1.344467e+000
1.807845e+003,2.116966e+000
1.808809e+003,3.228249e+000
1.809773e+003,3.167885e+000
1.810738e+003,1.808617e+000
1.811702e+003,4.928665e-001
1.812666e+003,6.291962e-002
1.813630e+003,2.521439e-001
1.814595e+003,8.808136e-001
1.815559e+003,1.585625e+000
1.816523e+003,4.484406e-001
1.817487e+003,-2.882553e+000
1.818452e+003,-3.708183e+000
1.819416e+003,-8.428192e-001
1.820380e+003,1.874512e+000
1.821344e+003,3.568634e+000
1.822309e+003,4.555382e+000
1.823273e+003,5.092758e+000
1.824237e+003,5.079216e+000
1.825201e+003,3.967125e+000
1.826166e+003,2.237450e+000
1.827130e+003,1.060623e+000
1.828094e+003,6.346054e-001
1.829058e+003,8.906326e-001
1.830022e+003,2.180328e+000
1.830987e+003,3.407791e+000
1.831951e+003,3.565331e+000
1.832915e+003,3.185135e+000
1.833879e+003,2.960587e+000
1.834844e+003,2.883347e+000
1.835808e+003,2.867752e+000
1.836772e+003,2.870689e+000
1.837736e+003,2.592834e+000
1.838700e+003,1.867958e+000
1.839665e+003,1.188454e+000
1.840629e+003,1.036598e+000
1.841593e+003,1.218964e+000
1.842557e+003,1.274437e+000
1.843522e+003,1.206024e+000
1.844486e+003,1.448418e+000
1.845450e+003,2.519272e+000
1.846414e+003,3.002586e+000
1.847379e+003,2.108452e+000
1.848343e+003,1.563080e+000
1.849307e+003,2.095482e+000
1.850271e+003,2.961647e+000
1.851236e+003,4.025169e+000
1.852200e+003,4.863190e+000
1.853164e+003,4.761314e+000
1.854128e+003,3.883980e+000
1.855093e+003,3.067268e+000
1.856057e+003,2.679863e+000
1.857021e+003,2.441208e+000
1.857985e+003,2.061920e+000
1.858949e+003,1.798187e+000
1.859914e+003,2.287285e+000
1.860878e+003,3.344574e+000
1.861842e+003,3.909119e+000
1.862806e+003,3.958305e+000
1.863771e+003,3.286392e+000
1.864735e+003,1.559952e+000
1.865699e+003,3.761597e-001
1.866663e+003,5.554428e-001
1.867627e+003,1.327759e+000
1.868592e+003,2.177841e+000
1.869556e+003,2.987946e+000
1.870520e+003,3.707672e+000
1.871484e+003,4.286812e+000
1.872449e+003,4.335678e+000
1.873413e+003,3.742012e+000
1.874377e+003,3.446106e+000
1.875341e+003,3.763496e+000
1.876306e+003,4.145103e+000
1.877270e+003,4.470909e+000
1.878234e+003,4.537323e+000
1.879198e+003,3.831078e+000
1.880163e+003,2.904671e+000
1.881127e+003,2.898079e+000
1.882091e+003,3.740639e+000
1.883055e+003,4.305901e+000
1.884020e+003,4.166946e+000
1.884984e+003,4.145981e+000
1.885948e+003,5.007698e+000
1.886912e+003,6.307640e+000
1.887876e+003,7.224739e+000
1.888841e+003,7.752892e+000
1.889805e+003,7.683296e+000
1.890769e+003,6.957420e+000
1.891733e+003,5.863022e+000
1.892698e+003,4.004967e+000
1.893662e+003,2.715881e+000
1.894626e+003,2.544731e+000
1.895590e+003,2.996864e+000
1.896554e+003,4.355118e+000
1.897519e+003,5.744560e+000
1.898483e+003,5.847267e+000
1.899447e+003,4.984772e+000
1.900411e+003,4.629852e+000
1.901376e+003,5.089119e+000
1.902340e+003,5.064529e+000
1.903304e+003,3.593346e+000
1.904268e+003,2.251648e+000
1.905233e+003,1.951187e+000
1.906197e+003,2.317444e+000
1.907161e+003,3.480911e+000
1.908125e+003,4.780029e+000
1.909090e+003,4.836075e+000
1.910054e+003,3.839455e+000
1.911018e+003,3.209076e+000
1.911982e+003,3.431694e+000
1.912947e+003,3.835350e+000
1.913911e+003,3.911797e+000
1.914875e+003,4.126480e+000
1.915839e+003,5.288780e+000
1.916803e+003,7.017769e+000
1.917768e+003,7.455406e+000
1.918732e+003,6.404839e+000
1.919696e+003,5.506973e+000
1.920660e+003,4.615509e+000
1.921625e+003,4.501999e+000
1.922589e+003,5.874039e+000
1.923553e+003,7.106895e+000
1.924517e+003,7.237213e+000
1.925481e+003,6.962997e+000
1.926446e+003,6.749557e+000
1.927410e+003,6.636368e+000
1.928374e+003,6.686081e+000
1.929338e+003,6.863304e+000
1.930303e+003,7.073807e+000
1.931267e+003,7.536667e+000
1.932231e+003,7.490990e+000
1.933195e+003,5.699150e+000
1.934160e+003,4.228004e+000
1.935124e+003,4.890175e+000
1.936088e+003,6.446602e+000
1.937052e+003,7.817619e+000
1.938017e+003,8.699608e+000
1.938981e+003,8.375755e+000
1.939945e+003,7.156601e+000
1.940909e+003,6.880859e+000
1.941874e+003,8.243462e+000
1.942838e+003,9.391914e+000
1.943802e+003,8.594315e+000
1.944766e+003,6.987801e+000
1.945730e+003,6.842407e+000
1.946695e+003,7.901688e+000
1.947659e+003,8.191681e+000
1.948623e+003,7.581596e+000
1.949587e+003,7.714081e+000
1.950552e+003,9.119873e+000
1.951516e+003,9.845131e+000
1.952480e+003,8.933029e+000
1.953444e+003,7.853432e+000
1.954408e+003,7.608269e+000
1.955373e+003,7.718361e+000
1.956337e+003,7.537796e+000
1.957301e+003,7.237808e+000
1.958265e+003,7.258881e+000
1.959230e+003,7.636253e+000
1.960194e+003,8.178276e+000
1.961158e+003,9.332840e+000
1.962122e+003,9.769669e+000
1.963087e+003,8.355621e+000
1.964051e+003,7.123512e+000
1.965015e+003,7.448799e+000
1.965979e+003,8.415871e+000
1.966944e+003,9.384285e+000
1.967908e+003,9.983353e+000
1.968872e+003,9.585800e+000
1.969836e+003,8.441811e+000
1.970801e+003,7.748024e+000
1.971765e+003,8.001823e+000
1.972729e+003,8.527954e+000
1.973693e+003,8.708328e+000
1.974657e+003,8.969490e+000
1.975622e+003,1.018065e+001
1.976586e+003,1.186478e+001
1.977550e+003,1.286253e+001
1.978514e+003,1.318668e+001
1.979479e+003,1.286449e+001
1.980443e+003,1.194790e+001
1.981407e+003,1.133297e+001
1.982371e+003,1.139269e+001
1.983335e+003,1.123653e+001
1.984300e+003,1.003708e+001
1.985264e+003,8.937057e+000
1.986228e+003,9.922173e+000
1.987192e+003,1.236592e+001
1.988157e+003,1.290652e+001
1.989121e+003,1.096840e+001
1.990085e+003,1.023690e+001
1.991049e+003,1.165377e+001
1.992014e+003,1.242321e+001
1.992978e+003,1.165672e+001
1.993942e+003,1.091085e+001
1.994906e+003,1.078999e+001
1.995871e+003,1.080429e+001
1.996835e+003,1.034518e+001
1.997799e+003,9.972511e+000
1.998763e+003,1.091120e+001
1.999728e+003,1.271334e+001
