5.003444e+002,3.323895e+001
5.013087e+002,3.436118e+001
5.022729e+002,3.320050e+001
5.032371e+002,3.063443e+001
5.042014e+002,2.891257e+001
5.051656e+002,2.795441e+001
5.061298e+002,2.685739e+001
5.070941e+002,2.456711e+001
5.080583e+002,2.030188e+001
5.090225e+002,1.865695e+001
5.099868e+002,2.075986e+001
5.109510e+002,2.333630e+001
5.119152e+002,2.485666e+001
5.128795e+002,2.522754e+001
5.138437e+002,2.536176e+001
5.148079e+002,2.543951e+001
5.157722e+002,2.562994e+001
5.167364e+002,2.615509e+001
5.177006e+002,2.678711e+001
5.186649e+002,2.684137e+001
5.196291e+002,2.528906e+001
5.205933e+002,2.341595e+001
5.215576e+002,2.203284e+001
5.225218e+002,2.109546e+001
5.234860e+002,2.059308e+001
5.244503e+002,2.089771e+001
5.254145e+002,2.284778e+001
5.263787e+002,2.327588e+001
5.273430e+002,2.098553e+001
5.283072e+002,1.798633e+001
5.292714e+002,1.710883e+001
5.302357e+002,1.939221e+001
5.311999e+002,2.065613e+001
5.321641e+002,2.043347e+001
5.331284e+002,1.987677e+001
5.340926e+002,1.968683e+001
5.350568e+002,1.997070e+001
5.360211e+002,2.015863e+001
5.369853e+002,2.066736e+001
5.379495e+002,2.095569e+001
5.389138e+002,2.014441e+001
5.398780e+002,1.796747e+001
5.408422e+002,1.503162e+001
5.418065e+002,1.306866e+001
5.427707e+002,1.196619e+001
5.437349e+002,1.109088e+001
5.446992e+002,1.014197e+001
5.456634e+002,9.322449e+000
5.466276e+002,9.497070e+000
5.475919e+002,1.274036e+001
5.485561e+002,1.459418e+001
5.495203e+002,1.352759e+001
5.504846e+002,1.119269e+001
5.514488e+002,1.022437e+001
5.524130e+002,1.237024e+001
5.533773e+002,1.453876e+001
5.543415e+002,1.500128e+001
5.553057e+002,1.470404e+001
5.562700e+002,1.472308e+001
5.572342e+002,1.566211e+001
5.581984e+002,1.656628e+001
5.591627e+002,1.495056e+001
5.601269e+002,1.192725e+001
5.610911e+002,9.236633e+000
5.620554e+002,7.670898e+000
5.630196e+002,7.028137e+000
5.639838e+002,6.599487e+000
5.649481e+002,6.479858e+000
5.659123e+002,6.463806e+000
5.668765e+002,7.408142e+000
5.678408e+002,8.892517e+000
5.688050e+002,9.149841e+000
5.697692e+002,6.303040e+000
5.707335e+002,3.093933e+000
5.716977e+002,-3.139038e-001
5.726619e+002,-3.102356e+000
5.736262e+002,-4.078064e+000
5.745904e+002,-2.132324e+000
5.755546e+002,1.010620e+000
5.765189e+002,2.370483e+000
5.774831e+002,2.344543e+000
5.784473e+002,1.754639e+000
5.794116e+002,1.289001e+000
5.803758e+002,1.233154e+000
5.813400e+002,2.933594e+000
5.823043e+002,6.945435e+000
5.832685e+002,9.616760e+000
5.842327e+002,9.260376e+000
5.851970e+002,6.608398e+000
5.861612e+002,5.178040e+000
5.871254e+002,6.625610e+000
5.880897e+002,7.568115e+000
5.890539e+002,7.110107e+000
5.900181e+002,5.595032e+000
5.909824e+002,3.630981e+000
5.919466e+002,1.326477e+000
5.929108e+002,-3.036499e-001
5.938751e+002,-4.397583e-001
5.948393e+002,5.311279e-001
5.958035e+002,2.319336e+000
5.967678e+002,4.732178e+000
5.977320e+002,7.635498e+000
5.986962e+002,8.762634e+000
5.996605e+002,7.776428e+000
6.006247e+002,6.846375e+000
6.015889e+002,7.301819e+000
6.025532e+002,9.021362e+000
6.035174e+002,9.663208e+000
6.044816e+002,8.187134e+000
6.054459e+002,6.744385e+000
6.064101e+002,5.031860e+000
6.073743e+002,3.619019e+000
6.083386e+002,3.860229e+000
6.093028e+002,7.846252e+000
6.102670e+002,1.085004e+001
6.112313e+002,7.951599e+000
6.121955e+002,2.445801e+000
6.131597e+002,-1.226440e+000
6.141240e+002,-6.835938e-002
6.150882e+002,4.449829e+000
6.160524e+002,6.116577e+000
6.170167e+002,5.590820e+000
6.179809e+002,5.523315e+000
6.189451e+002,7.273193e+000
6.199094e+002,1.029297e+001
6.208736e+002,1.147351e+001
6.218378e+002,9.131531e+000
6.228021e+002,7.379150e+000
6.237663e+002,7.069885e+000
6.247305e+002,7.531006e+000
6.256948e+002,7.386047e+000
6.266590e+002,5.443176e+000
6.276232e+002,3.657471e+000
6.285875e+002,4.264343e+000
6.295517e+002,5.550964e+000
6.305159e+002,5.309937e+000
6.314802e+002,2.352783e+000
6.324444e+002,-2.005554e+000
6.334086e+002,-3.418640e+000
6.343729e+002,-2.614563e+000
6.353371e+002,-2.024414e+000
6.363013e+002,-2.693359e+000
6.372656e+002,-4.154724e+000
6.382298e+002,-4.450134e+000
6.391940e+002,-2.063477e+000
6.401583e+002,-6.766357e-001
6.411225e+002,-3.393555e-002
6.420867e+002,8.898926e-002
6.430510e+002,-6.293335e-001
6.440152e+002,-3.112244e+000
6.449794e+002,-4.653015e+000
6.459437e+002,-2.855225e+000
6.469079e+002,-4.160767e-001
6.478721e+002,5.260010e-001
6.488364e+002,-6.194458e-001
6.498006e+002,-2.444702e+000
6.507648e+002,-2.747620e+000
6.517291e+002,-1.943604e+000
6.526933e+002,-3.860474e-001
6.536575e+002,1.934265e+000
6.546218e+002,4.065125e+000
6.555860e+002,4.095520e+000
6.565502e+002,2.727051e-001
6.575145e+002,-2.027771e+000
6.584787e+002,-2.409546e+000
6.594429e+002,-1.787720e+000
6.604072e+002,-5.546265e-001
6.613714e+002,1.362000e+000
6.623356e+002,2.849426e+000
6.632999e+002,3.165527e+000
6.642641e+002,2.731079e+000
6.652283e+002,1.441406e+000
6.661926e+002,-2.147217e-001
6.671568e+002,-1.253723e+000
6.681210e+002,-4.254761e-001
6.690853e+002,1.471069e+000
6.700495e+002,2.732178e+000
6.710137e+002,3.313660e+000
6.719780e+002,3.182251e+000
6.729422e+002,2.162598e+000
6.739064e+002,-1.348877e-001
6.748707e+002,-1.594543e+000
6.758349e+002,-2.381165e+000
6.767991e+002,-2.578308e+000
6.777634e+002,-1.412537e+000
6.787276e+002,1.001709e+000
6.796918e+002,2.656006e+000
6.806561e+002,1.638000e+000
6.816203e+002,3.591919e-001
6.825845e+002,-4.199219e-001
6.835488e+002,-7.456055e-001
6.845130e+002,-9.958496e-001
6.854772e+002,-1.492371e+000
6.864415e+002,-1.260437e+000
6.874057e+002,2.592590e+000
6.883699e+002,8.208374e+000
6.893342e+002,1.091357e+001
6.902984e+002,7.869019e+000
6.912626e+002,4.202881e-001
6.922269e+002,-2.732239e+000
6.931911e+002,3.723083e+000
6.941553e+002,8.138000e+000
6.951196e+002,8.549194e+000
6.960838e+002,6.293030e+000
6.970480e+002,3.328796e+000
6.980123e+002,-6.314697e-001
6.989765e+002,-2.979126e+000
6.999407e+002,-2.298279e+000
7.009050e+002,-4.274902e-001
7.018692e+002,1.560486e+000
7.028334e+002,3.072998e+000
7.037977e+002,3.808228e+000
7.047619e+002,3.077148e+000
7.057261e+002,1.622620e+000
7.066904e+002,3.400879e-001
7.076546e+002,-6.431274e-001
7.086188e+002,-1.186829e+000
7.095831e+002,-1.021790e+000
7.105473e+002,3.363037e-002
7.115115e+002,7.307739e-001
7.124758e+002,1.025085e+000
7.134400e+002,9.110107e-001
7.144042e+002,4.715576e-001
7.153685e+002,-1.734009e-001
7.163327e+002,-9.495850e-001
7.172969e+002,-2.889526e+000
7.182612e+002,-3.809998e+000
7.192254e+002,-2.253662e+000
7.201896e+002,8.928223e-001
7.211539e+002,4.111450e+000
7.221181e+002,6.341125e+000
7.230823e+002,7.190125e+000
7.240466e+002,5.262146e+000
7.250108e+002,1.508728e+000
7.259750e+002,-1.170776e+000
7.269393e+002,-1.189636e+000
7.279035e+002,7.233887e-001
7.288677e+002,1.050293e+000
7.298320e+002,-1.685791e+000
7.307962e+002,-2.933289e+000
7.317604e+002,-1.411377e+000
7.327247e+002,1.449951e+000
7.336889e+002,3.370728e+000
7.346531e+002,3.079346e+000
7.356174e+002,2.285645e+000
7.365816e+002,2.789795e+000
7.375458e+002,3.725891e+000
7.385101e+002,4.418701e+000
7.394743e+002,4.665894e+000
7.404385e+002,4.706787e+000
7.414028e+002,4.771729e+000
7.423670e+002,4.218750e+000
7.433312e+002,3.020996e+000
7.442955e+002,1.554260e+000
7.452597e+002,5.740967e-001
7.462239e+002,6.921387e-001
7.471882e+002,1.910156e+000
7.481524e+002,3.717590e+000
7.491166e+002,6.266602e+000
7.500809e+002,8.244873e+000
7.510451e+002,9.389221e+000
7.520093e+002,9.607056e+000
7.529736e+002,8.747620e+000
7.539378e+002,6.646606e+000
7.549020e+002,4.282837e+000
7.558663e+002,1.279236e+000
7.568306e+002,-1.336365e+000
7.577948e+002,-1.960266e+000
7.587590e+002,1.580811e-001
7.597233e+002,3.661743e+000
7.606875e+002,4.897888e+000
7.616517e+002,4.394714e+000
7.626160e+002,4.982666e+000
7.635802e+002,8.303162e+000
7.645444e+002,1.226685e+001
7.655087e+002,1.182373e+001
7.664729e+002,3.056824e+000
7.674371e+002,-1.609131e+000
7.684014e+002,8.526611e-001
7.693656e+002,4.679321e+000
7.703298e+002,6.309753e+000
7.712941e+002,5.375549e+000
7.722583e+002,4.278076e+000
7.732225e+002,5.124451e+000
7.741868e+002,6.060120e+000
7.751510e+002,5.185364e+000
7.761152e+002,3.145386e+000
7.770795e+002,1.626343e+000
7.780437e+002,2.084595e+000
7.790079e+002,4.166565e+000
7.799722e+002,5.747070e+000
7.809364e+002,6.916504e+000
7.819006e+002,7.518555e+000
7.828649e+002,7.568848e+000
7.838291e+002,7.317566e+000
7.847933e+002,7.047302e+000
7.857576e+002,6.167603e+000
7.867218e+002,5.374634e+000
7.876860e+002,5.054199e+000
7.886503e+002,5.237122e+000
7.896145e+002,6.130066e+000
7.905787e+002,7.697876e+000
7.915430e+002,9.252747e+000
7.925072e+002,9.892334e+000
7.934714e+002,9.594116e+000
7.944357e+002,8.486633e+000
7.953999e+002,6.905029e+000
7.963641e+002,5.149658e+000
7.973284e+002,3.331970e+000
7.982926e+002,1.321716e+000
7.992568e+002,2.737610e+000
8.002211e+002,9.665283e+000
8.011853e+002,1.425842e+001
8.021495e+002,1.240820e+001
8.031138e+002,6.593872e+000
8.040780e+002,4.623718e+000
8.050422e+002,1.021582e+001
8.060065e+002,1.507166e+001
8.069707e+002,1.648120e+001
8.079349e+002,1.563159e+001
8.088992e+002,1.322437e+001
8.098634e+002,9.938232e+000
8.108276e+002,7.183594e+000
8.117919e+002,7.257874e+000
8.127561e+002,8.486328e+000
8.137203e+002,8.515747e+000
8.146846e+002,7.406128e+000
8.156488e+002,5.969910e+000
8.166130e+002,4.898010e+000
8.175773e+002,4.026794e+000
8.185415e+002,4.017395e+000
8.195057e+002,5.290710e+000
8.204700e+002,6.157227e+000
8.214342e+002,5.350830e+000
8.223984e+002,3.731018e+000
8.233627e+002,3.916016e+000
8.243269e+002,8.281616e+000
8.252911e+002,1.175323e+001
8.262554e+002,1.026288e+001
8.272196e+002,7.192688e+000
8.281838e+002,6.419678e+000
8.291481e+002,9.054077e+000
8.301123e+002,1.243079e+001
8.310765e+002,1.136566e+001
8.320408e+002,6.389648e+000
8.330050e+002,5.474915e+000
8.339692e+002,1.022150e+001
8.349335e+002,1.561041e+001
8.358977e+002,1.608997e+001
8.368619e+002,1.090424e+001
8.378262e+002,7.827637e+000
8.387904e+002,7.724121e+000
8.397546e+002,8.523560e+000
8.407189e+002,1.121375e+001
8.416831e+002,1.418262e+001
8.426473e+002,1.421576e+001
8.436116e+002,9.115662e+000
8.445758e+002,4.384705e+000
8.455400e+002,6.451843e+000
8.465043e+002,1.117480e+001
8.474685e+002,1.486530e+001
8.484327e+002,1.651569e+001
8.493970e+002,1.683960e+001
8.503612e+002,1.658710e+001
8.513254e+002,1.549097e+001
8.522897e+002,1.442139e+001
8.532539e+002,1.260193e+001
8.542181e+002,1.135107e+001
8.551824e+002,1.232690e+001
8.561466e+002,1.548486e+001
8.571108e+002,1.782831e+001
8.580751e+002,1.710327e+001
8.590393e+002,1.601392e+001
8.600035e+002,1.528564e+001
8.609678e+002,1.529102e+001
8.619320e+002,1.646436e+001
8.628962e+002,1.886200e+001
8.638605e+002,2.174237e+001
8.648247e+002,2.420959e+001
8.657889e+002,2.620325e+001
8.667532e+002,2.799310e+001
8.677174e+002,2.959296e+001
8.686816e+002,3.000201e+001
8.696459e+002,2.775494e+001
8.706101e+002,2.236163e+001
8.715743e+002,1.946753e+001
8.725386e+002,2.022870e+001
8.735028e+002,2.176929e+001
8.744670e+002,2.359509e+001
8.754313e+002,2.523987e+001
8.763955e+002,2.605206e+001
8.773597e+002,2.561243e+001
8.783240e+002,2.571643e+001
8.792882e+002,2.880615e+001
8.802524e+002,3.197595e+001
8.812167e+002,3.217438e+001
8.821809e+002,2.923969e+001
8.831451e+002,2.562970e+001
8.841094e+002,2.462036e+001
8.850736e+002,2.634570e+001
8.860378e+002,2.715698e+001
8.870021e+002,2.645319e+001
8.879663e+002,2.630188e+001
8.889305e+002,2.823541e+001
8.898948e+002,3.163483e+001
8.908590e+002,3.378821e+001
8.918232e+002,3.445074e+001
8.927875e+002,3.432983e+001
8.937517e+002,3.237067e+001
8.947159e+002,3.067859e+001
8.956802e+002,3.101508e+001
8.966444e+002,3.345349e+001
8.976086e+002,3.653802e+001
8.985729e+002,4.000647e+001
8.995371e+002,4.260510e+001
9.005013e+002,4.137476e+001
9.014656e+002,3.714813e+001
9.024298e+002,3.336621e+001
9.033940e+002,3.246686e+001
9.043583e+002,3.387756e+001
9.053225e+002,3.488861e+001
9.062867e+002,3.428723e+001
9.072510e+002,3.446997e+001
9.082152e+002,3.680109e+001
9.091794e+002,3.974701e+001
9.101437e+002,4.151947e+001
9.111079e+002,4.178864e+001
9.120721e+002,4.233307e+001
9.130364e+002,4.505627e+001
9.140006e+002,4.699481e+001
9.149648e+002,4.582520e+001
9.159291e+002,4.294507e+001
9.168933e+002,4.123468e+001
9.178575e+002,4.253674e+001
9.188218e+002,4.549738e+001
9.197860e+002,4.587592e+001
9.207502e+002,4.351611e+001
9.217145e+002,4.091736e+001
9.226787e+002,3.857532e+001
9.236429e+002,3.686786e+001
9.246072e+002,3.627441e+001
9.255714e+002,3.687836e+001
9.265356e+002,3.688336e+001
9.274999e+002,3.618286e+001
9.284641e+002,3.437756e+001
9.294283e+002,2.984937e+001
9.303926e+002,2.467297e+001
9.313568e+002,2.254187e+001
9.323210e+002,2.548236e+001
9.332853e+002,3.023737e+001
9.342495e+002,3.220374e+001
9.352137e+002,3.221222e+001
9.361780e+002,3.106866e+001
9.371422e+002,2.922900e+001
9.381064e+002,2.737488e+001
9.390707e+002,2.604779e+001
9.400349e+002,2.483960e+001
9.409991e+002,2.475226e+001
9.419634e+002,2.631512e+001
9.429276e+002,2.798303e+001
9.438918e+002,2.986383e+001
9.448561e+002,3.156458e+001
9.458203e+002,3.222705e+001
9.467845e+002,3.142603e+001
9.477488e+002,3.108569e+001
9.487130e+002,3.308502e+001
9.496772e+002,3.568677e+001
9.506415e+002,3.800018e+001
9.516057e+002,3.962549e+001
9.525699e+002,3.999921e+001
9.535342e+002,3.849603e+001
9.544984e+002,3.532385e+001
9.554626e+002,3.341394e+001
9.564269e+002,3.326831e+001
9.573911e+002,3.366675e+001
9.583553e+002,3.391077e+001
9.593196e+002,3.449286e+001
9.602838e+002,3.669312e+001
9.612480e+002,4.118689e+001
9.622123e+002,4.412653e+001
9.631765e+002,4.429169e+001
9.641407e+002,4.308746e+001
9.651050e+002,4.012384e+001
9.660692e+002,3.617859e+001
9.670334e+002,3.241199e+001
9.679977e+002,2.967651e+001
9.689619e+002,2.860193e+001
9.699261e+002,3.146161e+001
9.708904e+002,3.650970e+001
9.718546e+002,3.912445e+001
9.728188e+002,3.784454e+001
9.737831e+002,3.517395e+001
9.747473e+002,3.472345e+001
9.757115e+002,3.721704e+001
9.766758e+002,3.858435e+001
9.776400e+002,3.792883e+001
9.786042e+002,3.774872e+001
9.795685e+002,3.903156e+001
9.805327e+002,4.052008e+001
9.814969e+002,4.060364e+001
9.824612e+002,3.893781e+001
9.834254e+002,3.706445e+001
9.843896e+002,3.574152e+001
9.853539e+002,3.497046e+001
9.863181e+002,3.527130e+001
9.872823e+002,3.620618e+001
9.882466e+002,3.649432e+001
9.892108e+002,3.527338e+001
9.901750e+002,3.346814e+001
9.911393e+002,3.475201e+001
9.921035e+002,4.137726e+001
9.930677e+002,4.568567e+001
9.940320e+002,4.535559e+001
9.949962e+002,4.479651e+001
9.959604e+002,4.923608e+001
9.969247e+002,5.873999e+001
9.978889e+002,6.550739e+001
9.988531e+002,6.267163e+001
9.998174e+002,5.905750e+001
1.000782e+003,6.079755e+001
1.001746e+003,6.563391e+001
1.002710e+003,7.011121e+001
1.003674e+003,7.251001e+001
1.004639e+003,7.330896e+001
1.005603e+003,7.329095e+001
1.006567e+003,7.223364e+001
1.007531e+003,7.103070e+001
1.008495e+003,6.932153e+001
1.009460e+003,6.825726e+001
1.010424e+003,6.914520e+001
1.011388e+003,7.146558e+001
1.012352e+003,7.292145e+001
1.013317e+003,7.351294e+001
1.014281e+003,7.202838e+001
1.015245e+003,6.670013e+001
1.016209e+003,6.061078e+001
1.017174e+003,5.630798e+001
1.018138e+003,5.375073e+001
1.019102e+003,5.082056e+001
1.020066e+003,4.569696e+001
1.021031e+003,3.981866e+001
1.021995e+003,3.694958e+001
1.022959e+003,3.620654e+001
1.023923e+003,3.567200e+001
1.024887e+003,3.488379e+001
1.025852e+003,3.360095e+001
1.026816e+003,3.134796e+001
1.027780e+003,2.798010e+001
1.028744e+003,2.556281e+001
1.029709e+003,2.466626e+001
1.030673e+003,2.408813e+001
1.031637e+003,2.394281e+001
1.032601e+003,2.351868e+001
1.033566e+003,2.170563e+001
1.034530e+003,1.826678e+001
1.035494e+003,1.499310e+001
1.036458e+003,1.364624e+001
1.037422e+003,1.369751e+001
1.038387e+003,1.455432e+001
1.039351e+003,1.599939e+001
1.040315e+003,1.749554e+001
1.041279e+003,1.881134e+001
1.042244e+003,2.001074e+001
1.043208e+003,2.068317e+001
1.044172e+003,1.960931e+001
1.045136e+003,1.952313e+001
1.046101e+003,2.166699e+001
1.047065e+003,2.387738e+001
1.048029e+003,2.482050e+001
1.048993e+003,2.444562e+001
1.049958e+003,2.331323e+001
1.050922e+003,2.167041e+001
1.051886e+003,1.989545e+001
1.052850e+003,1.696539e+001
1.053814e+003,1.461072e+001
1.054779e+003,1.639606e+001
1.055743e+003,2.237494e+001
1.056707e+003,2.783319e+001
1.057671e+003,2.685522e+001
1.058636e+003,1.931995e+001
1.059600e+003,1.653937e+001
1.060564e+003,2.396442e+001
1.061528e+003,2.878156e+001
1.062493e+003,2.716266e+001
1.063457e+003,2.295471e+001
1.064421e+003,2.047498e+001
1.065385e+003,2.034930e+001
1.066349e+003,2.049420e+001
1.067314e+003,2.008667e+001
1.068278e+003,1.938879e+001
1.069242e+003,1.817328e+001
1.070206e+003,1.711536e+001
1.071171e+003,1.727600e+001
1.072135e+003,1.886340e+001
1.073099e+003,2.091766e+001
1.074063e+003,2.212549e+001
1.075028e+003,2.259375e+001
1.075992e+003,2.171783e+001
1.076956e+003,1.774670e+001
1.077920e+003,1.499561e+001
1.078885e+003,1.644049e+001
1.079849e+003,2.006433e+001
1.080813e+003,2.192981e+001
1.081777e+003,2.134430e+001
1.082741e+003,2.027991e+001
1.083706e+003,1.741699e+001
1.084670e+003,1.573572e+001
1.085634e+003,1.837897e+001
1.086598e+003,2.332251e+001
1.087563e+003,2.682153e+001
1.088527e+003,2.690619e+001
1.089491e+003,2.474536e+001
1.090455e+003,2.185370e+001
1.091420e+003,1.786542e+001
1.092384e+003,1.605951e+001
1.093348e+003,1.714648e+001
1.094312e+003,1.855829e+001
1.095276e+003,1.914233e+001
1.096241e+003,1.928027e+001
1.097205e+003,1.949261e+001
1.098169e+003,1.951990e+001
1.099133e+003,1.982092e+001
1.100098e+003,2.149768e+001
1.101062e+003,2.292865e+001
1.102026e+003,2.244421e+001
1.102990e+003,2.093597e+001
1.103955e+003,2.063824e+001
1.104919e+003,2.282837e+001
1.105883e+003,2.620276e+001
1.106847e+003,2.837347e+001
1.107812e+003,2.916504e+001
1.108776e+003,2.827997e+001
1.109740e+003,2.466394e+001
1.110704e+003,2.153723e+001
1.111668e+003,2.159717e+001
1.112633e+003,2.447809e+001
1.113597e+003,2.797540e+001
1.114561e+003,3.242590e+001
1.115525e+003,3.552258e+001
1.116490e+003,3.627313e+001
1.117454e+003,3.587299e+001
1.118418e+003,3.424811e+001
1.119382e+003,3.257300e+001
1.120347e+003,3.298273e+001
1.121311e+003,3.651813e+001
1.122275e+003,4.093884e+001
1.123239e+003,4.247150e+001
1.124203e+003,4.168835e+001
1.125168e+003,4.128851e+001
1.126132e+003,4.164105e+001
1.127096e+003,4.217535e+001
1.128060e+003,4.171332e+001
1.129025e+003,4.068640e+001
1.129989e+003,4.198792e+001
1.130953e+003,4.697321e+001
1.131917e+003,5.131848e+001
1.132882e+003,5.437646e+001
1.133846e+003,5.635883e+001
1.134810e+003,5.646185e+001
1.135774e+003,5.575452e+001
1.136739e+003,5.597809e+001
1.137703e+003,5.812073e+001
1.138667e+003,6.243054e+001
1.139631e+003,7.043988e+001
1.140595e+003,8.134717e+001
1.141560e+003,8.858435e+001
1.142524e+003,9.077808e+001
1.143488e+003,9.411859e+001
1.144452e+003,1.033057e+002
1.145417e+003,1.168784e+002
1.146381e+003,1.292006e+002
1.147345e+003,1.386645e+002
1.148309e+003,1.506141e+002
1.149274e+003,1.686841e+002
1.150238e+003,1.873185e+002
1.151202e+003,2.052366e+002
1.152166e+003,2.215233e+002
1.153130e+003,2.349242e+002
1.154095e+003,2.446451e+002
1.155059e+003,2.512493e+002
1.156023e+003,2.563881e+002
1.156987e+003,2.595930e+002
1.157952e+003,2.580858e+002
1.158916e+003,2.523028e+002
1.159880e+003,2.434487e+002
1.160844e+003,2.300662e+002
1.161809e+003,2.134832e+002
1.162773e+003,1.977643e+002
1.163737e+003,1.832264e+002
1.164701e+003,1.683582e+002
1.165666e+003,1.516334e+002
1.166630e+003,1.362125e+002
1.167594e+003,1.214186e+002
1.168558e+003,1.094017e+002
1.169522e+003,1.038321e+002
1.170487e+003,1.051367e+002
1.171451e+003,1.092609e+002
1.172415e+003,1.118793e+002
1.173379e+003,1.129691e+002
1.174344e+003,1.133602e+002
1.175308e+003,1.134136e+002
1.176272e+003,1.114007e+002
1.177236e+003,1.050717e+002
1.178201e+003,9.791791e+001
1.179165e+003,9.484644e+001
1.180129e+003,9.567255e+001
1.181093e+003,9.430658e+001
1.182057e+003,8.760767e+001
1.183022e+003,8.177612e+001
1.183986e+003,7.922906e+001
1.184950e+003,7.846844e+001
1.185914e+003,7.846838e+001
1.186879e+003,7.885498e+001
1.187843e+003,7.939679e+001
1.188807e+003,7.979565e+001
1.189771e+003,8.019049e+001
1.190736e+003,8.159906e+001
1.191700e+003,8.416980e+001
1.192664e+003,8.574799e+001
1.193628e+003,8.656995e+001
1.194593e+003,8.624060e+001
1.195557e+003,8.419220e+001
1.196521e+003,8.063690e+001
1.197485e+003,7.615741e+001
1.198449e+003,7.023663e+001
1.199414e+003,6.554285e+001
1.200378e+003,6.380157e+001
1.201342e+003,6.323767e+001
1.202306e+003,6.325000e+001
1.203271e+003,6.330566e+001
1.204235e+003,6.299976e+001
1.205199e+003,6.213049e+001
1.206163e+003,6.047540e+001
1.207128e+003,5.747382e+001
1.208092e+003,5.306848e+001
1.209056e+003,4.929553e+001
1.210020e+003,4.655176e+001
1.210984e+003,4.359741e+001
1.211949e+003,3.957007e+001
1.212913e+003,3.530920e+001
1.213877e+003,3.248865e+001
1.214841e+003,3.119598e+001
1.215806e+003,2.846619e+001
1.216770e+003,2.165906e+001
1.217734e+003,1.538135e+001
1.218698e+003,1.222583e+001
1.219663e+003,1.130853e+001
1.220627e+003,1.260474e+001
1.221591e+003,1.533551e+001
1.222555e+003,1.700665e+001
1.223520e+003,1.529883e+001
1.224484e+003,1.116772e+001
1.225448e+003,8.586121e+000
1.226412e+003,7.958130e+000
1.227376e+003,8.098572e+000
1.228341e+003,9.796265e+000
1.229305e+003,1.113672e+001
1.230269e+003,1.147260e+001
1.231233e+003,1.057330e+001
1.232198e+003,7.310669e+000
1.233162e+003,1.291016e+000
1.234126e+003,-2.622681e+000
1.235090e+003,5.619507e-001
1.236055e+003,5.818848e+000
1.237019e+003,8.001221e+000
1.237983e+003,7.602295e+000
1.238947e+003,6.386414e+000
1.239911e+003,5.264893e+000
1.240876e+003,4.652893e+000
1.241840e+003,5.069824e+000
1.242804e+003,6.588196e+000
1.243768e+003,8.070496e+000
1.244733e+003,1.008307e+001
1.245697e+003,1.124976e+001
1.246661e+003,9.813843e+000
1.247625e+003,8.414246e+000
1.248590e+003,1.005859e+001
1.249554e+003,1.386774e+001
1.250518e+003,1.596417e+001
1.251482e+003,1.429388e+001
1.252447e+003,1.181708e+001
1.253411e+003,1.208716e+001
1.254375e+003,1.461230e+001
1.255339e+003,1.887952e+001
1.256303e+003,2.476898e+001
1.257268e+003,2.864581e+001
1.258232e+003,2.755225e+001
1.259196e+003,2.373590e+001
1.260160e+003,2.227148e+001
1.261125e+003,2.383618e+001
1.262089e+003,2.534369e+001
1.263053e+003,2.591888e+001
1.264017e+003,2.653369e+001
1.264982e+003,2.790314e+001
1.265946e+003,2.928687e+001
1.266910e+003,3.027942e+001
1.267874e+003,3.059180e+001
1.268839e+003,2.947522e+001
1.269803e+003,2.640625e+001
1.270767e+003,2.306793e+001
1.271731e+003,2.323645e+001
1.272695e+003,2.686804e+001
1.273660e+003,2.812726e+001
1.274624e+003,2.590942e+001
1.275588e+003,2.259766e+001
1.276552e+003,1.859253e+001
1.277517e+003,1.520276e+001
1.278481e+003,1.531976e+001
1.279445e+003,1.936377e+001
1.280409e+003,2.157056e+001
1.281374e+003,1.882367e+001
1.282338e+003,1.558374e+001
1.283302e+003,1.396777e+001
1.284266e+003,1.321692e+001
1.285230e+003,1.229474e+001
1.286195e+003,1.113275e+001
1.287159e+003,1.072809e+001
1.288123e+003,1.203375e+001
1.289087e+003,1.439703e+001
1.290052e+003,1.525250e+001
1.291016e+003,1.407080e+001
1.291980e+003,1.217126e+001
1.292944e+003,8.372986e+000
1.293909e+003,4.917419e+000
1.294873e+003,2.668091e+000
1.295837e+003,1.710449e+000
1.296801e+003,2.464722e+000
1.297766e+003,4.800232e+000
1.298730e+003,6.938965e+000
1.299694e+003,7.858643e+000
1.300658e+003,7.933655e+000
1.301622e+003,7.359070e+000
1.302587e+003,6.649414e+000
1.303551e+003,6.585876e+000
1.304515e+003,7.358948e+000
1.305479e+003,8.370911e+000
1.306444e+003,8.928955e+000
1.307408e+003,9.216003e+000
1.308372e+003,1.059564e+001
1.309336e+003,1.420068e+001
1.310301e+003,1.524164e+001
1.311265e+003,1.135193e+001
1.312229e+003,7.917603e+000
1.313193e+003,6.035767e+000
1.314157e+003,5.559570e+000
1.315122e+003,7.271484e+000
1.316086e+003,1.021356e+001
1.317050e+003,1.091095e+001
1.318014e+003,6.986938e+000
1.318979e+003,1.814819e+000
1.319943e+003,1.566589e+000
1.320907e+003,5.810120e+000
1.321871e+003,8.880676e+000
1.322836e+003,1.023535e+001
1.323800e+003,1.020819e+001
1.324764e+003,7.587708e+000
1.325728e+003,4.514771e+000
1.326693e+003,5.422546e+000
1.327657e+003,1.036230e+001
1.328621e+003,1.251208e+001
1.329585e+003,8.701599e+000
1.330549e+003,5.852173e+000
1.331514e+003,7.369995e+000
1.332478e+003,1.024261e+001
1.333442e+003,1.269012e+001
1.334406e+003,1.408099e+001
1.335371e+003,1.324371e+001
1.336335e+003,9.606689e+000
1.337299e+003,5.416199e+000
1.338263e+003,4.972168e+000
1.339228e+003,8.819946e+000
1.340192e+003,1.142932e+001
1.341156e+003,1.244092e+001
1.342120e+003,1.283789e+001
1.343084e+003,1.207788e+001
1.344049e+003,1.082373e+001
1.345013e+003,9.794006e+000
1.345977e+003,9.148987e+000
1.346941e+003,8.601685e+000
1.347906e+003,7.990173e+000
1.348870e+003,7.935669e+000
1.349834e+003,9.339539e+000
1.350798e+003,1.118842e+001
1.351763e+003,1.197498e+001
1.352727e+003,1.183160e+001
1.353691e+003,1.108221e+001
1.354655e+003,9.766479e+000
1.355620e+003,8.291016e+000
1.356584e+003,6.943787e+000
1.357548e+003,5.895874e+000
1.358512e+003,6.067749e+000
1.359476e+003,7.986755e+000
1.360441e+003,8.793457e+000
1.361405e+003,7.030640e+000
1.362369e+003,5.135681e+000
1.363333e+003,4.370422e+000
1.364298e+003,4.212769e+000
1.365262e+003,3.654480e+000
1.366226e+003,2.582825e+000
1.367190e+003,1.937805e+000
1.368155e+003,2.572388e+000
1.369119e+003,4.024292e+000
1.370083e+003,4.890869e+000
1.371047e+003,5.161011e+000
1.372011e+003,5.494385e+000
1.372976e+003,5.456299e+000
1.373940e+003,5.410461e+000
1.374904e+003,5.445068e+000
1.375868e+003,5.828430e+000
1.376833e+003,7.232849e+000
1.377797e+003,9.333801e+000
1.378761e+003,1.005609e+001
1.379725e+003,8.124268e+000
1.380690e+003,6.137695e+000
1.381654e+003,7.037964e+000
1.382618e+003,9.582153e+000
1.383582e+003,1.248712e+001
1.384547e+003,1.548053e+001
1.385511e+003,1.792725e+001
1.386475e+003,1.953339e+001
1.387439e+003,1.982007e+001
1.388403e+003,1.734570e+001
1.389368e+003,1.209625e+001
1.390332e+003,9.456299e+000
1.391296e+003,1.171838e+001
1.392260e+003,1.262354e+001
1.393225e+003,9.135254e+000
1.394189e+003,5.658142e+000
1.395153e+003,4.341431e+000
1.396117e+003,4.874634e+000
1.397082e+003,6.923767e+000
1.398046e+003,1.004486e+001
1.399010e+003,1.312567e+001
1.399974e+003,1.496350e+001
1.400938e+003,1.545898e+001
1.401903e+003,1.521179e+001
1.402867e+003,1.483948e+001
1.403831e+003,1.457172e+001
1.404795e+003,1.341595e+001
1.405760e+003,1.291656e+001
1.406724e+003,1.359607e+001
1.407688e+003,1.421643e+001
1.408652e+003,1.391754e+001
1.409617e+003,1.299951e+001
1.410581e+003,1.187555e+001
1.411545e+003,1.056024e+001
1.412509e+003,9.799377e+000
1.413474e+003,1.055334e+001
1.414438e+003,1.168799e+001
1.415402e+003,1.173505e+001
1.416366e+003,1.111932e+001
1.417330e+003,1.128375e+001
1.418295e+003,1.308264e+001
1.419259e+003,1.475977e+001
1.420223e+003,1.320264e+001
1.421187e+003,9.109680e+000
1.422152e+003,8.538635e+000
1.423116e+003,1.334149e+001
1.424080e+003,1.707800e+001
1.425044e+003,1.568634e+001
1.426009e+003,1.480707e+001
1.426973e+003,1.789954e+001
1.427937e+003,2.208295e+001
1.428901e+003,2.414185e+001
1.429865e+003,2.375134e+001
1.430830e+003,2.210449e+001
1.431794e+003,1.989221e+001
1.432758e+003,1.713208e+001
1.433722e+003,1.404340e+001
1.434687e+003,1.073254e+001
1.435651e+003,1.140253e+001
1.436615e+003,1.983246e+001
1.437579e+003,2.452759e+001
1.438544e+003,2.172589e+001
1.439508e+003,1.799426e+001
1.440472e+003,1.794604e+001
1.441436e+003,2.050146e+001
1.442401e+003,2.271136e+001
1.443365e+003,2.376532e+001
1.444329e+003,2.501459e+001
1.445293e+003,2.776917e+001
1.446257e+003,3.079059e+001
1.447222e+003,3.140930e+001
1.448186e+003,2.991827e+001
1.449150e+003,2.784344e+001
1.450114e+003,2.497241e+001
1.451079e+003,2.245593e+001
1.452043e+003,2.102325e+001
1.453007e+003,2.058490e+001
1.453971e+003,2.142017e+001
1.454936e+003,2.306146e+001
1.455900e+003,2.258936e+001
1.456864e+003,1.852783e+001
1.457828e+003,1.598846e+001
1.458792e+003,1.914941e+001
1.459757e+003,2.360138e+001
1.460721e+003,2.662451e+001
1.461685e+003,2.793567e+001
1.462649e+003,2.691022e+001
1.463614e+003,2.378882e+001
1.464578e+003,2.076129e+001
1.465542e+003,1.938782e+001
1.466506e+003,1.981500e+001
1.467471e+003,2.413507e+001
1.468435e+003,3.488513e+001
1.469399e+003,3.848584e+001
1.470363e+003,2.599921e+001
1.471328e+003,1.722162e+001
1.472292e+003,1.679846e+001
1.473256e+003,2.048163e+001
1.474220e+003,2.902051e+001
1.475184e+003,3.856451e+001
1.476149e+003,4.207953e+001
1.477113e+003,3.774390e+001
1.478077e+003,3.083246e+001
1.479041e+003,2.660120e+001
1.480006e+003,2.505225e+001
1.480970e+003,2.583545e+001
1.481934e+003,2.953687e+001
1.482898e+003,3.166858e+001
1.483863e+003,3.138538e+001
1.484827e+003,3.076215e+001
1.485791e+003,2.973615e+001
1.486755e+003,2.962616e+001
1.487719e+003,3.266058e+001
1.488684e+003,3.714063e+001
1.489648e+003,3.820160e+001
1.490612e+003,3.459100e+001
1.491576e+003,3.158728e+001
1.492541e+003,3.340137e+001
1.493505e+003,3.833704e+001
1.494469e+003,4.380420e+001
1.495433e+003,4.917230e+001
1.496398e+003,5.166608e+001
1.497362e+003,5.007977e+001
1.498326e+003,5.009338e+001
1.499290e+003,5.593402e+001
1.500255e+003,6.399896e+001
1.501219e+003,6.911487e+001
1.502183e+003,7.167328e+001
1.503147e+003,7.494910e+001
1.504111e+003,7.937610e+001
1.505076e+003,8.600403e+001
1.506040e+003,9.607678e+001
1.507004e+003,1.082407e+002
1.507968e+003,1.213817e+002
1.508933e+003,1.352874e+002
1.509897e+003,1.494417e+002
1.510861e+003,1.642694e+002
1.511825e+003,1.809182e+002
1.512790e+003,2.001091e+002
1.513754e+003,2.206832e+002
1.514718e+003,2.405954e+002
1.515682e+003,2.595593e+002
1.516646e+003,2.812930e+002
1.517611e+003,3.101223e+002
1.518575e+003,3.328833e+002
1.519539e+003,3.421620e+002
1.520503e+003,3.484116e+002
1.521468e+003,3.573633e+002
1.522432e+003,3.661457e+002
1.523396e+003,3.712454e+002
1.524360e+003,3.714547e+002
1.525325e+003,3.661023e+002
1.526289e+003,3.548410e+002
1.527253e+003,3.402871e+002
1.528217e+003,3.271813e+002
1.529182e+003,3.158524e+002
1.530146e+003,3.000663e+002
1.531110e+003,2.781749e+002
1.532074e+003,2.540632e+002
1.533039e+003,2.245849e+002
1.534003e+003,1.959603e+002
1.534967e+003,1.721227e+002
1.535931e+003,1.510075e+002
1.536896e+003,1.292056e+002
1.537860e+003,1.073950e+002
1.538824e+003,8.879883e+001
1.539788e+003,7.496454e+001
1.540752e+003,6.520129e+001
1.541717e+003,5.904559e+001
1.542681e+003,5.611676e+001
1.543645e+003,5.284991e+001
1.544609e+003,4.928668e+001
1.545573e+003,4.616766e+001
1.546538e+003,4.266113e+001
1.547502e+003,3.975146e+001
1.548466e+003,3.930835e+001
1.549430e+003,3.921997e+001
1.550395e+003,3.621631e+001
1.551359e+003,3.130121e+001
1.552323e+003,2.862439e+001
1.553287e+003,2.954230e+001
1.554252e+003,3.085925e+001
1.555216e+003,2.972430e+001
1.556180e+003,2.710156e+001
1.557144e+003,2.514825e+001
1.558109e+003,2.402448e+001
1.559073e+003,2.342462e+001
1.560037e+003,2.325153e+001
1.561001e+003,2.276324e+001
1.561966e+003,2.227051e+001
1.562930e+003,2.170831e+001
1.563894e+003,2.015637e+001
1.564858e+003,1.828760e+001
1.565823e+003,1.832648e+001
1.566787e+003,2.051569e+001
1.567751e+003,2.190820e+001
1.568715e+003,2.049963e+001
1.569679e+003,1.915686e+001
1.570644e+003,2.233514e+001
1.571608e+003,2.779962e+001
1.572572e+003,2.949060e+001
1.573536e+003,2.736700e+001
1.574500e+003,2.515875e+001
1.575465e+003,2.377832e+001
1.576429e+003,2.286890e+001
1.577393e+003,2.175861e+001
1.578357e+003,2.090228e+001
1.579322e+003,2.215283e+001
1.580286e+003,2.540155e+001
1.581250e+003,2.639600e+001
1.582214e+003,2.307593e+001
1.583179e+003,2.017291e+001
1.584143e+003,2.187854e+001
1.585107e+003,2.492242e+001
1.586071e+003,2.530951e+001
1.587036e+003,2.395001e+001
1.588000e+003,2.216437e+001
1.588964e+003,1.985382e+001
1.589928e+003,1.935498e+001
1.590893e+003,2.367987e+001
1.591857e+003,2.938184e+001
1.592821e+003,3.093335e+001
1.593785e+003,2.910016e+001
1.594750e+003,2.807080e+001
1.595714e+003,2.831854e+001
1.596678e+003,2.855835e+001
1.597642e+003,2.815625e+001
1.598606e+003,2.786194e+001
1.599571e+003,2.830908e+001
1.600535e+003,2.937152e+001
1.601499e+003,3.105719e+001
1.602463e+003,3.309613e+001
1.603427e+003,3.486328e+001
1.604392e+003,3.623706e+001
1.605356e+003,3.649078e+001
1.606320e+003,3.443506e+001
1.607284e+003,3.087830e+001
1.608249e+003,2.790503e+001
1.609213e+003,2.552850e+001
1.610177e+003,2.383478e+001
1.611141e+003,2.309991e+001
1.612106e+003,2.241431e+001
1.613070e+003,2.054584e+001
1.614034e+003,1.927533e+001
1.614998e+003,2.050378e+001
1.615963e+003,2.302008e+001
1.616927e+003,2.503625e+001
1.617891e+003,2.598804e+001
1.618855e+003,2.503680e+001
1.619820e+003,2.117480e+001
1.620784e+003,1.684875e+001
1.621748e+003,1.675922e+001
1.622712e+003,2.039429e+001
1.623677e+003,2.156177e+001
1.624641e+003,1.962842e+001
1.625605e+003,1.902881e+001
1.626569e+003,2.102203e+001
1.627533e+003,2.238055e+001
1.628498e+003,2.128992e+001
1.629462e+003,1.985443e+001
1.630426e+003,1.987842e+001
1.631390e+003,2.082916e+001
1.632354e+003,2.132855e+001
1.633319e+003,2.103638e+001
1.634283e+003,2.057013e+001
1.635247e+003,2.019843e+001
1.636211e+003,2.030334e+001
1.637176e+003,2.260925e+001
1.638140e+003,2.690320e+001
1.639104e+003,2.712158e+001
1.640068e+003,2.119012e+001
1.641033e+003,1.807831e+001
1.641997e+003,2.246942e+001
1.642961e+003,2.689581e+001
1.643925e+003,2.750116e+001
1.644890e+003,2.644281e+001
1.645854e+003,2.542377e+001
1.646818e+003,2.458813e+001
1.647782e+003,2.364178e+001
1.648747e+003,2.250360e+001
1.649711e+003,2.176038e+001
1.650675e+003,2.220435e+001
1.651639e+003,2.326062e+001
1.652604e+003,2.314502e+001
1.653568e+003,2.176648e+001
1.654532e+003,2.132428e+001
1.655496e+003,2.231677e+001
1.656460e+003,2.287701e+001
1.657425e+003,2.241815e+001
1.658389e+003,2.172632e+001
1.659353e+003,2.138190e+001
1.660317e+003,2.089050e+001
1.661281e+003,1.952692e+001
1.662246e+003,1.744885e+001
1.663210e+003,1.516681e+001
1.664174e+003,1.301819e+001
1.665138e+003,1.219348e+001
1.666103e+003,1.416089e+001
1.667067e+003,1.692865e+001
1.668031e+003,1.598669e+001
1.668995e+003,1.179022e+001
1.669960e+003,1.026611e+001
1.670924e+003,1.256464e+001
1.671888e+003,1.483112e+001
1.672852e+003,1.617712e+001
1.673817e+003,1.644391e+001
1.674781e+003,1.466486e+001
1.675745e+003,1.242932e+001
1.676709e+003,1.137177e+001
1.677674e+003,1.141730e+001
1.678638e+003,1.202429e+001
1.679602e+003,1.301862e+001
1.680566e+003,1.383765e+001
1.681531e+003,1.434302e+001
1.682495e+003,1.441083e+001
1.683459e+003,1.323175e+001
1.684423e+003,1.088904e+001
1.685387e+003,8.795959e+000
1.686352e+003,7.031189e+000
1.687316e+003,6.844604e+000
1.688280e+003,9.366516e+000
1.689244e+003,1.215472e+001
1.690208e+003,1.372650e+001
1.691173e+003,1.420270e+001
1.692137e+003,1.315051e+001
1.693101e+003,1.140961e+001
1.694065e+003,1.113983e+001
1.695030e+003,1.266962e+001
1.695994e+003,1.361542e+001
1.696958e+003,1.197845e+001
1.697922e+003,9.987427e+000
1.698887e+003,1.109412e+001
1.699851e+003,1.409540e+001
1.700815e+003,1.485675e+001
1.701779e+003,1.292615e+001
1.702744e+003,1.074225e+001
1.703708e+003,9.160889e+000
1.704672e+003,8.528259e+000
1.705636e+003,9.356812e+000
1.706601e+003,1.018463e+001
1.707565e+003,8.612976e+000
1.708529e+003,5.863464e+000
1.709493e+003,5.767639e+000
1.710458e+003,9.169189e+000
1.711422e+003,1.085046e+001
1.712386e+003,6.977722e+000
1.713350e+003,3.146606e+000
1.714314e+003,4.303650e+000
1.715279e+003,7.608093e+000
1.716243e+003,8.273438e+000
1.717207e+003,6.654602e+000
1.718171e+003,6.681824e+000
1.719135e+003,9.500854e+000
1.720100e+003,1.131055e+001
1.721064e+003,9.233276e+000
1.722028e+003,5.437500e+000
1.722992e+003,3.079285e+000
1.723957e+003,2.272461e+000
1.724921e+003,1.834717e+000
1.725885e+003,1.200134e+000
1.726849e+003,1.175964e+000
1.727814e+003,3.450256e+000
1.728778e+003,5.319336e+000
1.729742e+003,5.015259e+000
1.730706e+003,4.128906e+000
1.731671e+003,3.890686e+000
1.732635e+003,3.874878e+000
1.733599e+003,3.789673e+000
1.734563e+003,3.702576e+000
1.735528e+003,2.846069e+000
1.736492e+003,6.951294e-001
1.737456e+003,-7.322388e-001
1.738420e+003,1.235657e+000
1.739385e+003,4.994019e+000
1.740349e+003,5.274841e+000
1.741313e+003,1.107849e+000
1.742277e+003,-4.714966e-001
1.743241e+003,3.839478e+000
1.744206e+003,5.891174e+000
1.745170e+003,2.405212e+000
1.746134e+003,-1.271057e+000
1.747098e+003,-2.532288e+000
1.748063e+003,-2.190491e+000
1.749027e+003,-6.569824e-001
1.749991e+003,1.324280e+000
1.750955e+003,2.203674e+000
1.751919e+003,1.604675e+000
1.752884e+003,1.156921e+000
1.753848e+003,2.229675e+000
1.754812e+003,3.737976e+000
1.755776e+003,3.649963e+000
1.756741e+003,2.270813e+000
1.757705e+003,1.140503e+000
1.758669e+003,-5.737305e-002
1.759633e+003,-7.639771e-001
1.760598e+003,-7.332764e-001
1.761562e+003,-9.122314e-001
1.762526e+003,-1.654663e+000
1.763490e+003,-2.087280e+000
1.764455e+003,-1.125793e+000
1.765419e+003,3.987427e-001
1.766383e+003,7.598267e-001
1.767347e+003,-9.570313e-002
1.768312e+003,-4.656372e-001
1.769276e+003,3.870239e-001
1.770240e+003,1.161804e+000
1.771204e+003,9.184570e-001
1.772168e+003,1.181030e-001
1.773133e+003,-1.188782e+000
1.774097e+003,-2.853943e+000
1.775061e+003,-3.017700e+000
1.776025e+003,-1.565369e+000
1.776990e+003,-3.321533e-001
1.777954e+003,4.973145e-001
1.778918e+003,1.007385e+000
1.779882e+003,4.090576e-001
1.780846e+003,-3.287354e-001
1.781811e+003,1.056152e+000
1.782775e+003,3.715698e+000
1.783739e+003,4.374146e+000
1.784703e+003,2.506409e+000
1.785668e+003,6.547241e-001
1.786632e+003,-9.316406e-001
1.787596e+003,-1.841919e+000
1.788560e+003,-4.337769e-001
1.789525e+003,1.648071e+000
1.790489e+003,1.408447e+000
1.791453e+003,-7.073364e-001
1.792417e+003,-2.562561e+000
1.793382e+003,-3.585815e+000
1.794346e+003,-3.738281e+000
1.795310e+003,-2.988708e+000
1.796274e+003,-2.017639e+000
1.797239e+003,-1.346741e+000
1.798203e+003,-7.283936e-001
1.799167e+003,-5.352173e-001
1.800131e+003,-1.459900e+000
1.801095e+003,-2.305664e+000
1.802060e+003,-3.311768e+000
1.803024e+003,-2.738647e+000
1.803988e+003,1.702332e+000
1.804952e+003,4.726074e+000
1.805917e+003,1.551514e+000
1.806881e+003,-2.326904e+000
1.807845e+003,3.729248e-001
1.808809e+003,6.480896e+000
1.809773e+003,7.616394e+000
1.810738e+003,2.791931e+000
1.811702e+003,-9.934082e-001
1.812666e+003,5.658569e-001
1.813630e+003,3.689026e+000
1.814595e+003,3.218323e+000
1.815559e+003,8.264160e-002
1.816523e+003,-1.679016e+000
1.817487e+003,-1.941833e+000
1.818452e+003,-1.238708e+000
1.819416e+003,1.150452e+000
1.820380e+003,3.166565e+000
1.821344e+003,4.158936e+000
1.822309e+003,4.187988e+000
1.823273e+003,2.240051e+000
1.824237e+003,6.357422e-001
1.825201e+003,2.444458e+000
1.826166e+003,6.180359e+000
1.827130e+003,7.788635e+000
1.828094e+003,6.504150e+000
1.829058e+003,4.929626e+000
1.830022e+003,4.635864e+000
1.830987e+003,4.180237e+000
1.831951e+003,1.332336e+000
1.832915e+003,-1.641479e+000
1.833879e+003,-4.033203e-001
1.834844e+003,3.403809e+000
1.835808e+003,4.079956e+000
1.836772e+003,1.091858e+000
1.837736e+003,-1.696289e+000
1.838700e+003,-2.791931e+000
1.839665e+003,-2.080200e+000
1.840629e+003,1.166443e+000
1.841593e+003,5.116760e+000
1.842557e+003,5.590454e+000
1.843522e+003,2.616211e+000
1.844486e+003,-5.178223e-001
1.845450e+003,-4.959290e+000
1.846414e+003,-6.483337e+000
1.847379e+003,-3.182983e+000
1.848343e+003,-5.689697e-001
1.849307e+003,-9.210205e-001
1.850271e+003,-1.457703e+000
1.851236e+003,5.734863e-001
1.852200e+003,3.549377e+000
1.853164e+003,5.079712e+000
1.854128e+003,4.553101e+000
1.855093e+003,1.847595e+000
1.856057e+003,-2.435974e+000
1.857021e+003,-5.427429e+000
1.857985e+003,-4.701965e+000
1.858949e+003,-2.502075e+000
1.859914e+003,-3.021179e+000
1.860878e+003,-5.425476e+000
1.861842e+003,-5.185791e+000
1.862806e+003,-2.317261e+000
1.863771e+003,5.059814e-001
1.864735e+003,2.973450e+000
1.865699e+003,4.159363e+000
1.866663e+003,3.315430e+000
1.867627e+003,2.292297e+000
1.868592e+003,2.861145e+000
1.869556e+003,3.677979e+000
1.870520e+003,2.290344e+000
1.871484e+003,-8.820190e-001
1.872449e+003,-2.745239e+000
1.873413e+003,-1.965210e+000
1.874377e+003,-6.182861e-001
1.875341e+003,-2.553101e-001
1.876306e+003,3.457031e-001
1.877270e+003,3.098694e+000
1.878234e+003,5.067627e+000
1.879198e+003,1.879517e+000
1.880163e+003,-3.424866e+000
1.881127e+003,-4.711121e+000
1.882091e+003,-1.885864e+000
1.883055e+003,7.944336e-001
1.884020e+003,1.462402e+000
1.884984e+003,1.512512e+000
1.885948e+003,2.248047e+000
1.886912e+003,3.049316e+000
1.887876e+003,2.563477e+000
1.888841e+003,9.929199e-001
1.889805e+003,4.517212e-001
1.890769e+003,1.021240e+000
1.891733e+003,2.454407e+000
1.892698e+003,5.773132e+000
1.893662e+003,6.698181e+000
1.894626e+003,1.405457e+000
1.895590e+003,-3.360962e+000
1.896554e+003,-1.943604e+000
1.897519e+003,2.092529e+000
1.898483e+003,4.920410e+000
1.899447e+003,6.172424e+000
1.900411e+003,5.941956e+000
1.901376e+003,4.245239e+000
1.902340e+003,2.854126e+000
1.903304e+003,2.655090e+000
1.904268e+003,2.447266e+000
1.905233e+003,1.606262e+000
1.906197e+003,5.262451e-001
1.907161e+003,-1.192993e+000
1.908125e+003,-2.322510e+000
1.909090e+003,5.126953e-002
1.910054e+003,4.758423e+000
1.911018e+003,7.164429e+000
1.911982e+003,5.939880e+000
1.912947e+003,3.110901e+000
1.913911e+003,6.982422e-002
1.914875e+003,-1.847229e+000
1.915839e+003,-4.326172e-001
1.916803e+003,3.316528e+000
1.917768e+003,5.509338e+000
1.918732e+003,6.221008e+000
1.919696e+003,6.152771e+000
1.920660e+003,5.051025e+000
1.921625e+003,4.472656e+000
1.922589e+003,4.894409e+000
1.923553e+003,5.244812e+000
1.924517e+003,4.216431e+000
1.925481e+003,3.631714e+000
1.926446e+003,6.140015e+000
1.927410e+003,9.886841e+000
1.928374e+003,1.131946e+001
1.929338e+003,1.000916e+001
1.930303e+003,6.630493e+000
1.931267e+003,4.738159e-001
1.932231e+003,-3.489319e+000
1.933195e+003,-1.585510e+000
1.934160e+003,9.163208e-001
1.935124e+003,-5.321045e-001
1.936088e+003,-3.142273e+000
1.937052e+003,-2.988647e+000
1.938017e+003,-7.645264e-001
1.938981e+003,1.431702e+000
1.939945e+003,2.797913e+000
1.940909e+003,2.442505e+000
1.941874e+003,1.322632e-001
1.942838e+003,-2.027039e+000
1.943802e+003,-1.837463e+000
1.944766e+003,1.574707e-001
1.945730e+003,2.650391e+000
1.946695e+003,5.203064e+000
1.947659e+003,5.505859e+000
1.948623e+003,3.228821e+000
1.949587e+003,1.608704e+000
1.950552e+003,1.188660e+000
1.951516e+003,1.300537e+000
1.952480e+003,2.068726e+000
1.953444e+003,2.449707e+000
1.954408e+003,4.301147e-001
1.955373e+003,-1.448914e+000
1.956337e+003,2.390991e+000
1.957301e+003,9.890198e+000
1.958265e+003,1.213971e+001
1.959230e+003,8.214661e+000
1.960194e+003,5.672791e+000
1.961158e+003,5.228821e+000
1.962122e+003,5.748840e+000
1.963087e+003,8.837646e+000
1.964051e+003,1.068359e+001
1.965015e+003,8.656738e+000
1.965979e+003,5.274963e+000
1.966944e+003,1.891663e+000
1.967908e+003,-7.672729e-001
1.968872e+003,-1.842712e+000
1.969836e+003,-1.184875e+000
1.970801e+003,1.428894e+000
1.971765e+003,5.864014e+000
1.972729e+003,8.965637e+000
1.973693e+003,7.673157e+000
1.974657e+003,4.720764e+000
1.975622e+003,4.084106e+000
1.976586e+003,4.854065e+000
1.977550e+003,4.729858e+000
1.978514e+003,4.029846e+000
1.979479e+003,4.605896e+000
1.980443e+003,6.542297e+000
1.981407e+003,7.340088e+000
1.982371e+003,6.108215e+000
1.983335e+003,5.289551e+000
1.984300e+003,6.676575e+000
1.985264e+003,8.613953e+000
1.986228e+003,8.705750e+000
1.987192e+003,7.348022e+000
1.988157e+003,6.684509e+000
1.989121e+003,7.127686e+000
1.990085e+003,6.695190e+000
1.991049e+003,4.799072e+000
1.992014e+003,3.554993e+000
1.992978e+003,3.030640e+000
1.993942e+003,3.126404e+000
1.994906e+003,5.159790e+000
1.995871e+003,6.445374e+000
1.996835e+003,3.554626e+000
1.997799e+003,-2.766724e-001
1.998763e+003,2.791138e-001
1.999728e+003,4.217041e+000
