9.922330e+001,0.000000e+000
1.001875e+002,0.000000e+000
1.011518e+002,0.000000e+000
1.021160e+002,0.000000e+000
1.030802e+002,0.000000e+000
1.040445e+002,0.000000e+000
1.050087e+002,0.000000e+000
1.059729e+002,0.000000e+000
1.069372e+002,0.000000e+000
1.079014e+002,0.000000e+000
1.088656e+002,0.000000e+000
1.098299e+002,0.000000e+000
1.107941e+002,0.000000e+000
1.117583e+002,0.000000e+000
1.127226e+002,0.000000e+000
1.136868e+002,0.000000e+000
1.146510e+002,0.000000e+000
1.156153e+002,0.000000e+000
1.165795e+002,0.000000e+000
1.175437e+002,0.000000e+000
1.185080e+002,0.000000e+000
1.194722e+002,0.000000e+000
1.204364e+002,0.000000e+000
1.214007e+002,0.000000e+000
1.223649e+002,0.000000e+000
1.233291e+002,0.000000e+000
1.242934e+002,0.000000e+000
1.252576e+002,0.000000e+000
1.262218e+002,0.000000e+000
1.271861e+002,0.000000e+000
1.281503e+002,0.000000e+000
1.291145e+002,0.000000e+000
1.300788e+002,0.000000e+000
1.310430e+002,0.000000e+000
1.320072e+002,0.000000e+000
1.329715e+002,0.000000e+000
1.339357e+002,0.000000e+000
1.348999e+002,0.000000e+000
1.358642e+002,0.000000e+000
1.368284e+002,0.000000e+000
1.377926e+002,0.000000e+000
1.387569e+002,0.000000e+000
1.397211e+002,0.000000e+000
1.406853e+002,0.000000e+000
1.416496e+002,0.000000e+000
1.426138e+002,0.000000e+000
1.435780e+002,0.000000e+000
1.445423e+002,0.000000e+000
1.455065e+002,0.000000e+000
1.464707e+002,0.000000e+000
1.474350e+002,0.000000e+000
1.483992e+002,0.000000e+000
1.493634e+002,0.000000e+000
1.503277e+002,0.000000e+000
1.512919e+002,0.000000e+000
1.522561e+002,0.000000e+000
1.532204e+002,0.000000e+000
1.541846e+002,0.000000e+000
1.551488e+002,0.000000e+000
1.561131e+002,0.000000e+000
1.570773e+002,0.000000e+000
1.580415e+002,0.000000e+000
1.590058e+002,0.000000e+000
1.599700e+002,0.000000e+000
1.609342e+002,0.000000e+000
1.618985e+002,0.000000e+000
1.628627e+002,0.000000e+000
1.638269e+002,0.000000e+000
1.647912e+002,0.000000e+000
1.657554e+002,0.000000e+000
1.667196e+002,0.000000e+000
1.676839e+002,0.000000e+000
1.686481e+002,0.000000e+000
1.696123e+002,0.000000e+000
1.705766e+002,0.000000e+000
1.715408e+002,0.000000e+000
1.725050e+002,0.000000e+000
1.734693e+002,0.000000e+000
1.744335e+002,0.000000e+000
1.753977e+002,0.000000e+000
1.763620e+002,0.000000e+000
1.773262e+002,0.000000e+000
1.782904e+002,0.000000e+000
1.792547e+002,0.000000e+000
1.802189e+002,0.000000e+000
1.811831e+002,0.000000e+000
1.821474e+002,0.000000e+000
1.831116e+002,0.000000e+000
1.840758e+002,0.000000e+000
1.850401e+002,0.000000e+000
1.860043e+002,0.000000e+000
1.869685e+002,0.000000e+000
1.879328e+002,0.000000e+000
1.888970e+002,0.000000e+000
1.898612e+002,0.000000e+000
1.908255e+002,0.000000e+000
1.917897e+002,0.000000e+000
1.927540e+002,0.000000e+000
1.937182e+002,0.000000e+000
1.946824e+002,0.000000e+000
1.956467e+002,0.000000e+000
1.966109e+002,0.000000e+000
1.975751e+002,0.000000e+000
1.985394e+002,0.000000e+000
1.995036e+002,0.000000e+000
2.004678e+002,0.000000e+000
2.014321e+002,0.000000e+000
2.023963e+002,0.000000e+000
2.033605e+002,0.000000e+000
2.043248e+002,0.000000e+000
2.052890e+002,0.000000e+000
2.062532e+002,0.000000e+000
2.072175e+002,0.000000e+000
2.081817e+002,0.000000e+000
2.091459e+002,0.000000e+000
2.101102e+002,0.000000e+000
2.110744e+002,0.000000e+000
2.120386e+002,0.000000e+000
2.130029e+002,0.000000e+000
2.139671e+002,0.000000e+000
2.149313e+002,0.000000e+000
2.158956e+002,0.000000e+000
2.168598e+002,0.000000e+000
2.178240e+002,0.000000e+000
2.187883e+002,0.000000e+000
2.197525e+002,0.000000e+000
2.207167e+002,0.000000e+000
2.216810e+002,0.000000e+000
2.226452e+002,0.000000e+000
2.236094e+002,0.000000e+000
2.245737e+002,0.000000e+000
2.255379e+002,0.000000e+000
2.265021e+002,0.000000e+000
2.274664e+002,0.000000e+000
2.284306e+002,0.000000e+000
2.293948e+002,0.000000e+000
2.303591e+002,0.000000e+000
2.313233e+002,0.000000e+000
2.322875e+002,0.000000e+000
2.332518e+002,0.000000e+000
2.342160e+002,0.000000e+000
2.351802e+002,0.000000e+000
2.361445e+002,0.000000e+000
2.371087e+002,0.000000e+000
2.380729e+002,0.000000e+000
2.390372e+002,0.000000e+000
2.400014e+002,0.000000e+000
2.409656e+002,0.000000e+000
2.419299e+002,0.000000e+000
2.428941e+002,0.000000e+000
2.438583e+002,0.000000e+000
2.448226e+002,0.000000e+000
2.457868e+002,0.000000e+000
2.467510e+002,0.000000e+000
2.477153e+002,0.000000e+000
2.486795e+002,0.000000e+000
2.496437e+002,0.000000e+000
2.506080e+002,0.000000e+000
2.515722e+002,0.000000e+000
2.525364e+002,0.000000e+000
2.535007e+002,0.000000e+000
2.544649e+002,0.000000e+000
2.554291e+002,0.000000e+000
2.563934e+002,0.000000e+000
2.573576e+002,0.000000e+000
2.583218e+002,0.000000e+000
2.592861e+002,0.000000e+000
2.602503e+002,0.000000e+000
2.612145e+002,0.000000e+000
2.621788e+002,0.000000e+000
2.631430e+002,0.000000e+000
2.641072e+002,0.000000e+000
2.650715e+002,0.000000e+000
2.660357e+002,0.000000e+000
2.669999e+002,0.000000e+000
2.679642e+002,0.000000e+000
2.689284e+002,0.000000e+000
2.698926e+002,0.000000e+000
2.708569e+002,0.000000e+000
2.718211e+002,0.000000e+000
2.727853e+002,0.000000e+000
2.737496e+002,0.000000e+000
2.747138e+002,0.000000e+000
2.756780e+002,0.000000e+000
2.766423e+002,0.000000e+000
2.776065e+002,0.000000e+000
2.785707e+002,0.000000e+000
2.795350e+002,0.000000e+000
2.804992e+002,0.000000e+000
2.814634e+002,0.000000e+000
2.824277e+002,0.000000e+000
2.833919e+002,0.000000e+000
2.843561e+002,0.000000e+000
2.853204e+002,0.000000e+000
2.862846e+002,0.000000e+000
2.872488e+002,0.000000e+000
2.882131e+002,0.000000e+000
2.891773e+002,0.000000e+000
2.901415e+002,0.000000e+000
2.911058e+002,0.000000e+000
2.920700e+002,0.000000e+000
2.930342e+002,0.000000e+000
2.939985e+002,0.000000e+000
2.949627e+002,0.000000e+000
2.959269e+002,0.000000e+000
2.968912e+002,0.000000e+000
2.978554e+002,0.000000e+000
2.988196e+002,0.000000e+000
2.997839e+002,0.000000e+000
3.007481e+002,0.000000e+000
3.017123e+002,0.000000e+000
3.026766e+002,0.000000e+000
3.036408e+002,0.000000e+000
3.046050e+002,0.000000e+000
3.055693e+002,0.000000e+000
3.065335e+002,0.000000e+000
3.074977e+002,0.000000e+000
3.084620e+002,0.000000e+000
3.094262e+002,0.000000e+000
3.103904e+002,0.000000e+000
3.113547e+002,0.000000e+000
3.123189e+002,0.000000e+000
3.132831e+002,0.000000e+000
3.142474e+002,0.000000e+000
3.152116e+002,0.000000e+000
3.161758e+002,0.000000e+000
3.171401e+002,0.000000e+000
3.181043e+002,0.000000e+000
3.190685e+002,0.000000e+000
3.200328e+002,0.000000e+000
3.209970e+002,0.000000e+000
3.219612e+002,0.000000e+000
3.229255e+002,0.000000e+000
3.238897e+002,0.000000e+000
3.248539e+002,0.000000e+000
3.258182e+002,0.000000e+000
3.267824e+002,0.000000e+000
3.277466e+002,0.000000e+000
3.287109e+002,0.000000e+000
3.296751e+002,0.000000e+000
3.306393e+002,0.000000e+000
3.316036e+002,0.000000e+000
3.325678e+002,0.000000e+000
3.335320e+002,0.000000e+000
3.344963e+002,0.000000e+000
3.354605e+002,0.000000e+000
3.364247e+002,0.000000e+000
3.373890e+002,0.000000e+000
3.383532e+002,0.000000e+000
3.393174e+002,0.000000e+000
3.402817e+002,0.000000e+000
3.412459e+002,0.000000e+000
3.422101e+002,0.000000e+000
3.431744e+002,0.000000e+000
3.441386e+002,0.000000e+000
3.451028e+002,0.000000e+000
3.460671e+002,0.000000e+000
3.470313e+002,0.000000e+000
3.479955e+002,0.000000e+000
3.489598e+002,0.000000e+000
3.499240e+002,0.000000e+000
3.508882e+002,0.000000e+000
3.518525e+002,0.000000e+000
3.528167e+002,0.000000e+000
3.537809e+002,0.000000e+000
3.547452e+002,0.000000e+000
3.557094e+002,0.000000e+000
3.566736e+002,0.000000e+000
3.576379e+002,0.000000e+000
3.586021e+002,0.000000e+000
3.595663e+002,0.000000e+000
3.605306e+002,0.000000e+000
3.614948e+002,0.000000e+000
3.624590e+002,0.000000e+000
3.634233e+002,0.000000e+000
3.643875e+002,0.000000e+000
3.653517e+002,0.000000e+000
3.663160e+002,0.000000e+000
3.672802e+002,0.000000e+000
3.682444e+002,0.000000e+000
3.692087e+002,0.000000e+000
3.701729e+002,0.000000e+000
3.711371e+002,0.000000e+000
3.721014e+002,0.000000e+000
3.730656e+002,0.000000e+000
3.740298e+002,0.000000e+000
3.749941e+002,0.000000e+000
3.759583e+002,0.000000e+000
3.769225e+002,0.000000e+000
3.778868e+002,0.000000e+000
3.788510e+002,0.000000e+000
3.798152e+002,0.000000e+000
3.807795e+002,0.000000e+000
3.817437e+002,0.000000e+000
3.827079e+002,0.000000e+000
3.836722e+002,0.000000e+000
3.846364e+002,0.000000e+000
3.856006e+002,0.000000e+000
3.865649e+002,0.000000e+000
3.875291e+002,0.000000e+000
3.884933e+002,0.000000e+000
3.894576e+002,0.000000e+000
3.904218e+002,0.000000e+000
3.913860e+002,0.000000e+000
3.923503e+002,0.000000e+000
3.933145e+002,0.000000e+000
3.942787e+002,0.000000e+000
3.952430e+002,0.000000e+000
3.962072e+002,0.000000e+000
3.971714e+002,0.000000e+000
3.981357e+002,0.000000e+000
3.990999e+002,0.000000e+000
4.000641e+002,0.000000e+000
4.010284e+002,0.000000e+000
4.019926e+002,0.000000e+000
4.029568e+002,0.000000e+000
4.039211e+002,0.000000e+000
4.048853e+002,0.000000e+000
4.058495e+002,0.000000e+000
4.068138e+002,0.000000e+000
4.077780e+002,0.000000e+000
4.087422e+002,0.000000e+000
4.097065e+002,0.000000e+000
4.106707e+002,0.000000e+000
4.116349e+002,0.000000e+000
4.125992e+002,0.000000e+000
4.135634e+002,0.000000e+000
4.145276e+002,0.000000e+000
4.154919e+002,0.000000e+000
4.164561e+002,0.000000e+000
4.174203e+002,0.000000e+000
4.183846e+002,0.000000e+000
4.193488e+002,0.000000e+000
4.203130e+002,0.000000e+000
4.212773e+002,0.000000e+000
4.222415e+002,0.000000e+000
4.232057e+002,0.000000e+000
4.241700e+002,0.000000e+000
4.251342e+002,0.000000e+000
4.260984e+002,0.000000e+000
4.270627e+002,0.000000e+000
4.280269e+002,0.000000e+000
4.289911e+002,0.000000e+000
4.299554e+002,0.000000e+000
4.309196e+002,0.000000e+000
4.318839e+002,0.000000e+000
4.328481e+002,0.000000e+000
4.338123e+002,0.000000e+000
4.347766e+002,0.000000e+000
4.357408e+002,0.000000e+000
4.367050e+002,0.000000e+000
4.376693e+002,0.000000e+000
4.386335e+002,0.000000e+000
4.395977e+002,0.000000e+000
4.405620e+002,0.000000e+000
4.415262e+002,0.000000e+000
4.424904e+002,0.000000e+000
4.434547e+002,0.000000e+000
4.444189e+002,0.000000e+000
4.453831e+002,0.000000e+000
4.463474e+002,0.000000e+000
4.473116e+002,0.000000e+000
4.482758e+002,0.000000e+000
4.492401e+002,0.000000e+000
4.502043e+002,0.000000e+000
4.511685e+002,0.000000e+000
4.521328e+002,0.000000e+000
4.530970e+002,0.000000e+000
4.540612e+002,0.000000e+000
4.550255e+002,0.000000e+000
4.559897e+002,0.000000e+000
4.569539e+002,0.000000e+000
4.579182e+002,0.000000e+000
4.588824e+002,0.000000e+000
4.598466e+002,0.000000e+000
4.608109e+002,0.000000e+000
4.617751e+002,0.000000e+000
4.627393e+002,0.000000e+000
4.637036e+002,0.000000e+000
4.646678e+002,0.000000e+000
4.656320e+002,0.000000e+000
4.665963e+002,0.000000e+000
4.675605e+002,0.000000e+000
4.685247e+002,0.000000e+000
4.694890e+002,0.000000e+000
4.704532e+002,0.000000e+000
4.714174e+002,0.000000e+000
4.723817e+002,0.000000e+000
4.733459e+002,0.000000e+000
4.743102e+002,0.000000e+000
4.752744e+002,0.000000e+000
4.762386e+002,0.000000e+000
4.772029e+002,0.000000e+000
4.781671e+002,0.000000e+000
4.791313e+002,0.000000e+000
4.800956e+002,0.000000e+000
4.810598e+002,0.000000e+000
4.820240e+002,0.000000e+000
4.829883e+002,0.000000e+000
4.839525e+002,0.000000e+000
4.849167e+002,0.000000e+000
4.858810e+002,0.000000e+000
4.868452e+002,0.000000e+000
4.878094e+002,0.000000e+000
4.887737e+002,0.000000e+000
4.897379e+002,0.000000e+000
4.907021e+002,0.000000e+000
4.916664e+002,0.000000e+000
4.926306e+002,0.000000e+000
4.935948e+002,0.000000e+000
4.945591e+002,0.000000e+000
4.955233e+002,0.000000e+000
4.964875e+002,0.000000e+000
4.974518e+002,0.000000e+000
4.984160e+002,0.000000e+000
4.993802e+002,0.000000e+000
5.003445e+002,5.780810e+000
5.013087e+002,1.051782e+001
5.022729e+002,1.765713e+001
5.032372e+002,2.488003e+001
5.042014e+002,2.305752e+001
5.051656e+002,1.377842e+001
5.061299e+002,4.371973e+000
5.070941e+002,1.522022e+000
5.080583e+002,6.669629e+000
5.090226e+002,9.275439e+000
5.099868e+002,8.209620e+000
5.109510e+002,6.666358e+000
5.119153e+002,6.696094e+000
5.128795e+002,8.588623e+000
5.138438e+002,8.965625e+000
5.148080e+002,4.697510e+000
5.157722e+002,6.861817e-001
5.167365e+002,-1.575488e+000
5.177007e+002,-1.748438e+000
5.186649e+002,-1.187500e-001
5.196292e+002,5.613721e+000
5.205934e+002,1.197485e+001
5.215576e+002,1.408223e+001
5.225219e+002,1.134731e+001
5.234861e+002,5.378272e+000
5.244503e+002,-7.866699e-001
5.254146e+002,-7.222852e+000
5.263788e+002,-7.863818e+000
5.273430e+002,1.120068e+000
5.283073e+002,1.329814e+001
5.292715e+002,1.957124e+001
5.302357e+002,1.662061e+001
5.312000e+002,1.287217e+001
5.321642e+002,8.874365e+000
5.331284e+002,5.913476e+000
5.340927e+002,5.153076e+000
5.350569e+002,6.952832e+000
5.360211e+002,8.767041e+000
5.369854e+002,8.969971e+000
5.379496e+002,8.483154e+000
5.389138e+002,7.953516e+000
5.398781e+002,7.494824e+000
5.408423e+002,6.511914e+000
5.418065e+002,2.566504e+000
5.427708e+002,-3.711328e+000
5.437350e+002,-7.140479e+000
5.446992e+002,-5.634375e+000
5.456635e+002,-9.198242e-001
5.466277e+002,1.039404e+000
5.475919e+002,-2.535303e+000
5.485562e+002,-5.494678e+000
5.495204e+002,-8.386328e+000
5.504846e+002,-1.059741e+001
5.514489e+002,-1.085869e+001
5.524131e+002,-7.519483e+000
5.533773e+002,-4.198535e+000
5.543416e+002,-3.130957e+000
5.553058e+002,-2.898877e+000
5.562700e+002,-1.723633e+000
5.572343e+002,1.400098e+000
5.581985e+002,4.596191e+000
5.591627e+002,2.829053e+000
5.601270e+002,-1.811719e+000
5.610912e+002,-6.043408e+000
5.620554e+002,-8.436279e+000
5.630197e+002,-9.020556e+000
5.639839e+002,-6.397510e+000
5.649481e+002,5.029981e+000
5.659124e+002,1.164604e+001
5.668766e+002,9.072070e+000
5.678408e+002,4.998535e-001
5.688051e+002,-5.711768e+000
5.697693e+002,-7.462744e+000
5.707335e+002,-7.716406e+000
5.716978e+002,-6.160058e+000
5.726620e+002,-3.892432e+000
5.736262e+002,-1.839258e+000
5.745905e+002,-3.241211e-001
5.755547e+002,-3.311523e-001
5.765189e+002,-6.086279e+000
5.774832e+002,-1.433877e+001
5.784474e+002,-1.795991e+001
5.794116e+002,-1.197764e+001
5.803759e+002,2.666065e+000
5.813401e+002,1.020952e+001
5.823043e+002,9.631739e+000
5.832686e+002,6.177979e+000
5.842328e+002,1.114600e+000
5.851970e+002,-5.135352e+000
5.861613e+002,-1.156025e+001
5.871255e+002,-2.142598e+001
5.880897e+002,-2.801963e+001
5.890540e+002,-2.850308e+001
5.900182e+002,-2.535493e+001
5.909824e+002,-2.310933e+001
5.919467e+002,-2.567583e+001
5.929109e+002,-2.666645e+001
5.938751e+002,-1.709458e+001
5.948394e+002,-2.587891e+000
5.958036e+002,7.993164e+000
5.967678e+002,8.325732e+000
5.977321e+002,2.312500e-001
5.986963e+002,-3.491894e+000
5.996605e+002,-3.373779e+000
6.006248e+002,-3.434131e+000
6.015890e+002,-5.594824e+000
6.025532e+002,-9.643359e+000
6.035175e+002,-1.312832e+001
6.044817e+002,-1.684653e+001
6.054459e+002,-1.875034e+001
6.064102e+002,-1.719297e+001
6.073744e+002,-1.384785e+001
6.083386e+002,-1.192647e+001
6.093029e+002,-1.412637e+001
6.102671e+002,-1.554072e+001
6.112313e+002,-1.087446e+001
6.121956e+002,-3.917871e+000
6.131598e+002,-1.993164e-001
6.141240e+002,-3.408203e+000
6.150883e+002,-1.109463e+001
6.160525e+002,-1.173843e+001
6.170167e+002,-6.442041e+000
6.179810e+002,-1.130127e+000
6.189452e+002,1.634717e+000
6.199094e+002,1.803125e+000
6.208737e+002,4.797851e-001
6.218379e+002,-5.387891e+000
6.228021e+002,-8.257421e+000
6.237664e+002,-4.987305e+000
6.247306e+002,1.186523e+000
6.256948e+002,4.780371e+000
6.266591e+002,2.644922e+000
6.276233e+002,-1.055176e+000
6.285875e+002,-3.238183e+000
6.295518e+002,-4.752002e+000
6.305160e+002,-7.081006e+000
6.314802e+002,-1.100684e+001
6.324445e+002,-1.527720e+001
6.334087e+002,-1.477070e+001
6.343729e+002,-1.080200e+001
6.353372e+002,-7.501563e+000
6.363014e+002,-6.522315e+000
6.372656e+002,-7.281446e+000
6.382299e+002,-7.296875e+000
6.391941e+002,-4.172119e+000
6.401583e+002,-4.064551e+000
6.411226e+002,-9.170850e+000
6.420868e+002,-1.540781e+001
6.430510e+002,-1.830859e+001
6.440153e+002,-1.669600e+001
6.449795e+002,-1.305640e+001
6.459437e+002,-5.334229e+000
6.469080e+002,1.257666e+000
6.478722e+002,1.057910e+000
6.488364e+002,-6.895947e+000
6.498007e+002,-1.650962e+001
6.507649e+002,-1.597695e+001
6.517291e+002,-9.076221e+000
6.526934e+002,-4.216162e+000
6.536576e+002,-2.953906e+000
6.546218e+002,-4.666894e+000
6.555861e+002,-8.415430e+000
6.565503e+002,-1.690684e+001
6.575145e+002,-2.125322e+001
6.584788e+002,-2.000952e+001
6.594430e+002,-1.637500e+001
6.604072e+002,-1.219917e+001
6.613715e+002,-7.531054e+000
6.623357e+002,-3.869238e+000
6.632999e+002,-2.962598e+000
6.642642e+002,-2.839648e+000
6.652284e+002,-1.768457e+000
6.661926e+002,1.460449e-001
6.671569e+002,1.044824e+000
6.681211e+002,-2.354102e+000
6.690853e+002,-7.926562e+000
6.700496e+002,-9.585401e+000
6.710138e+002,-7.328809e+000
6.719780e+002,-3.263184e+000
6.729423e+002,6.213867e-001
6.739065e+002,4.592090e+000
6.748707e+002,5.244433e+000
6.758350e+002,5.082520e-001
6.767992e+002,-4.270947e+000
6.777634e+002,-6.553271e+000
6.787277e+002,-6.289160e+000
6.796919e+002,-5.499072e+000
6.806561e+002,-5.263721e+000
6.816204e+002,-4.929297e+000
6.825846e+002,-4.330322e+000
6.835488e+002,-3.412549e+000
6.845131e+002,-1.841357e+000
6.854773e+002,8.625488e-001
6.864415e+002,3.822266e+000
6.874058e+002,4.066406e+000
6.883700e+002,2.103418e+000
6.893342e+002,2.787109e-001
6.902985e+002,7.895508e-002
6.912627e+002,1.221045e+000
6.922269e+002,8.609864e-001
6.931912e+002,-1.872803e+000
6.941554e+002,-3.800928e+000
6.951196e+002,-5.450635e+000
6.960839e+002,-6.626611e+000
6.970481e+002,-6.129492e+000
6.980123e+002,-1.951123e+000
6.989766e+002,-2.592285e-001
6.999408e+002,-5.958545e+000
7.009050e+002,-1.302061e+001
7.018693e+002,-1.697309e+001
7.028335e+002,-1.623164e+001
7.037977e+002,-1.234927e+001
7.047620e+002,-5.182031e+000
7.057262e+002,2.876904e+000
7.066904e+002,5.123242e+000
7.076547e+002,4.413086e-001
7.086189e+002,-6.363281e+000
7.095831e+002,-7.439404e+000
7.105474e+002,1.729980e-001
7.115116e+002,3.417090e+000
7.124758e+002,-1.322559e+000
7.134401e+002,-6.172217e+000
7.144043e+002,-4.828857e+000
7.153685e+002,2.793750e+000
7.163328e+002,7.273193e+000
7.172970e+002,-5.833008e-001
7.182612e+002,-7.949853e+000
7.192255e+002,-8.910303e+000
7.201897e+002,-5.396192e+000
7.211539e+002,-2.363232e+000
7.221182e+002,-3.981787e+000
7.230824e+002,-8.225635e+000
7.240466e+002,-9.666308e+000
7.250109e+002,-8.471240e+000
7.259751e+002,-5.624316e+000
7.269393e+002,-1.545801e+000
7.279036e+002,2.788379e+000
7.288678e+002,2.741846e+000
7.298320e+002,-6.488428e+000
7.307963e+002,-1.256626e+001
7.317605e+002,-1.329360e+001
7.327247e+002,-1.089897e+001
7.336890e+002,-8.910840e+000
7.346532e+002,-9.210498e+000
7.356174e+002,-8.878027e+000
7.365817e+002,-3.030664e+000
7.375459e+002,3.080176e+000
7.385101e+002,4.238037e+000
7.394744e+002,-1.287598e-001
7.404386e+002,-5.353125e+000
7.414028e+002,-3.979150e+000
7.423671e+002,1.641846e+000
7.433313e+002,3.618262e+000
7.442955e+002,1.838818e+000
7.452598e+002,-8.565429e-001
7.462240e+002,-1.554150e+000
7.471882e+002,1.299316e-001
7.481525e+002,1.389355e+000
7.491167e+002,2.489648e+000
7.500809e+002,1.855664e+000
7.510452e+002,-2.996533e+000
7.520094e+002,-1.035986e+001
7.529736e+002,-1.440400e+001
7.539379e+002,-1.046670e+001
7.549021e+002,-4.170410e+000
7.558663e+002,2.653955e+000
7.568306e+002,8.448389e+000
7.577948e+002,1.052236e+001
7.587590e+002,7.348047e+000
7.597233e+002,8.564941e-001
7.606875e+002,-2.183643e+000
7.616517e+002,-1.926563e+000
7.626160e+002,-2.090186e+000
7.635802e+002,-4.044678e+000
7.645444e+002,-6.243213e+000
7.655087e+002,-5.019629e+000
7.664729e+002,2.838965e+000
7.674371e+002,6.544873e+000
7.684014e+002,2.812598e+000
7.693656e+002,-2.114600e+000
7.703298e+002,-4.645606e+000
7.712941e+002,-4.143164e+000
7.722583e+002,-1.868164e+000
7.732225e+002,2.921875e+000
7.741868e+002,7.549853e+000
7.751510e+002,1.003345e+001
7.761152e+002,1.055439e+001
7.770795e+002,9.510401e+000
7.780437e+002,7.149170e+000
7.790079e+002,3.853711e+000
7.799722e+002,5.096289e+000
7.809364e+002,1.145273e+001
7.819006e+002,1.586382e+001
7.828649e+002,1.464141e+001
7.838291e+002,9.821045e+000
7.847933e+002,7.778516e+000
7.857576e+002,1.078740e+001
7.867218e+002,1.172759e+001
7.876860e+002,8.327393e+000
7.886503e+002,4.194531e+000
7.896145e+002,2.484521e+000
7.905787e+002,3.931348e+000
7.915430e+002,6.069726e+000
7.925072e+002,5.475781e+000
7.934714e+002,3.936279e+000
7.944357e+002,4.403467e+000
7.953999e+002,6.959473e+000
7.963641e+002,9.390234e+000
7.973284e+002,8.927734e+000
7.982926e+002,5.239502e+000
7.992568e+002,5.596826e+000
8.002211e+002,1.173613e+001
8.011853e+002,1.599785e+001
8.021495e+002,1.601812e+001
8.031138e+002,1.309106e+001
8.040780e+002,9.744385e+000
8.050422e+002,4.478027e+000
8.060065e+002,9.220215e-001
8.069707e+002,7.033691e-001
8.079349e+002,1.683398e+000
8.088992e+002,1.811816e+000
8.098634e+002,6.052734e-001
8.108276e+002,-2.404297e-001
8.117919e+002,2.016748e+000
8.127561e+002,5.248535e+000
8.137203e+002,6.585693e+000
8.146846e+002,6.126318e+000
8.156488e+002,4.651416e+000
8.166130e+002,2.505225e+000
8.175773e+002,-1.062598e+000
8.185415e+002,-1.318457e+000
8.195057e+002,3.561719e+000
8.204700e+002,8.035254e+000
8.214342e+002,1.062436e+001
8.223984e+002,1.140859e+001
8.233627e+002,1.059907e+001
8.243269e+002,7.320361e+000
8.252911e+002,4.704443e+000
8.262554e+002,5.483301e+000
8.272196e+002,7.069678e+000
8.281838e+002,6.044189e+000
8.291481e+002,1.602881e+000
8.301123e+002,-3.412598e+000
8.310765e+002,-3.928320e+000
8.320408e+002,-6.391601e-002
8.330050e+002,4.842725e+000
8.339692e+002,1.141289e+001
8.349335e+002,1.692270e+001
8.358977e+002,1.804853e+001
8.368619e+002,1.425073e+001
8.378262e+002,1.194956e+001
8.387904e+002,1.107778e+001
8.397546e+002,1.135166e+001
8.407189e+002,1.389214e+001
8.416831e+002,1.735283e+001
8.426473e+002,1.950488e+001
8.436116e+002,1.927637e+001
8.445758e+002,1.818125e+001
8.455400e+002,1.702398e+001
8.465043e+002,1.551875e+001
8.474685e+002,1.392832e+001
8.484327e+002,1.262983e+001
8.493970e+002,1.168384e+001
8.503612e+002,1.060835e+001
8.513254e+002,9.035791e+000
8.522897e+002,9.186914e+000
8.532539e+002,1.109370e+001
8.542181e+002,1.382446e+001
8.551824e+002,1.765122e+001
8.561466e+002,2.283081e+001
8.571108e+002,2.817227e+001
8.580751e+002,3.334473e+001
8.590393e+002,3.642149e+001
8.600035e+002,3.756963e+001
8.609678e+002,3.683955e+001
8.619320e+002,3.254946e+001
8.628962e+002,2.454990e+001
8.638605e+002,1.794712e+001
8.648247e+002,2.358545e+001
8.657889e+002,3.552236e+001
8.667532e+002,4.088579e+001
8.677174e+002,3.799580e+001
8.686816e+002,3.169956e+001
8.696459e+002,2.726406e+001
8.706101e+002,2.497857e+001
8.715743e+002,2.447881e+001
8.725386e+002,2.764941e+001
8.735028e+002,3.012954e+001
8.744670e+002,2.916821e+001
8.754313e+002,2.656899e+001
8.763955e+002,2.669614e+001
8.773597e+002,3.219717e+001
8.783240e+002,3.703296e+001
8.792882e+002,3.454878e+001
8.802524e+002,3.058843e+001
8.812167e+002,3.133984e+001
8.821809e+002,3.721441e+001
8.831451e+002,4.353399e+001
8.841094e+002,4.428491e+001
8.850736e+002,3.979775e+001
8.860378e+002,3.498481e+001
8.870021e+002,2.862891e+001
8.879663e+002,2.487222e+001
8.889305e+002,2.723989e+001
8.898948e+002,3.428838e+001
8.908590e+002,3.927363e+001
8.918232e+002,4.178955e+001
8.927875e+002,4.257002e+001
8.937517e+002,4.135737e+001
8.947159e+002,3.909917e+001
8.956802e+002,3.550928e+001
8.966444e+002,3.081084e+001
8.976086e+002,2.694087e+001
8.985729e+002,2.682222e+001
8.995371e+002,2.893731e+001
9.005013e+002,2.951318e+001
9.014656e+002,2.913477e+001
9.024298e+002,3.045142e+001
9.033940e+002,3.543901e+001
9.043583e+002,4.312471e+001
9.053225e+002,4.833062e+001
9.062867e+002,4.857744e+001
9.072510e+002,4.866782e+001
9.082152e+002,4.938882e+001
9.091794e+002,5.044458e+001
9.101437e+002,5.212368e+001
9.111079e+002,5.446377e+001
9.120721e+002,5.433486e+001
9.130364e+002,4.398921e+001
9.140006e+002,3.509521e+001
9.149648e+002,3.726377e+001
9.159291e+002,4.679331e+001
9.168933e+002,5.474053e+001
9.178575e+002,5.465596e+001
9.188218e+002,4.867803e+001
9.197860e+002,4.423516e+001
9.207502e+002,4.107407e+001
9.217145e+002,3.918764e+001
9.226787e+002,3.970879e+001
9.236429e+002,4.144707e+001
9.246072e+002,4.267344e+001
9.255714e+002,4.320791e+001
9.265356e+002,4.250230e+001
9.274999e+002,3.867002e+001
9.284641e+002,3.519043e+001
9.294283e+002,3.316670e+001
9.303926e+002,3.270674e+001
9.313568e+002,3.401817e+001
9.323210e+002,3.732373e+001
9.332853e+002,4.069697e+001
9.342495e+002,4.094170e+001
9.352137e+002,3.905561e+001
9.361780e+002,3.614775e+001
9.371422e+002,3.282080e+001
9.381064e+002,2.990967e+001
9.390707e+002,2.814478e+001
9.400349e+002,2.718076e+001
9.409991e+002,2.674375e+001
9.419634e+002,2.572397e+001
9.429276e+002,2.630361e+001
9.438918e+002,3.064575e+001
9.448561e+002,3.661103e+001
9.458203e+002,4.100913e+001
9.467845e+002,4.329297e+001
9.477488e+002,4.309272e+001
9.487130e+002,3.738935e+001
9.496772e+002,3.088931e+001
9.506415e+002,2.722017e+001
9.516057e+002,2.658457e+001
9.525699e+002,2.730894e+001
9.535342e+002,2.771089e+001
9.544984e+002,2.766816e+001
9.554626e+002,2.741352e+001
9.564269e+002,2.724136e+001
9.573911e+002,2.813496e+001
9.583553e+002,3.050786e+001
9.593196e+002,3.377441e+001
9.602838e+002,3.728721e+001
9.612480e+002,4.122212e+001
9.622123e+002,4.390005e+001
9.631765e+002,4.525391e+001
9.641407e+002,4.522090e+001
9.651050e+002,4.234429e+001
9.660692e+002,3.789482e+001
9.670334e+002,3.467295e+001
9.679977e+002,3.467764e+001
9.689619e+002,3.663286e+001
9.699261e+002,3.644141e+001
9.708904e+002,3.488515e+001
9.718546e+002,3.591201e+001
9.728188e+002,4.065469e+001
9.737831e+002,4.629990e+001
9.747473e+002,4.960210e+001
9.757115e+002,5.063232e+001
9.766758e+002,4.954180e+001
9.776400e+002,4.386362e+001
9.786042e+002,3.977383e+001
9.795685e+002,3.983525e+001
9.805327e+002,4.130019e+001
9.814969e+002,4.013350e+001
9.824612e+002,3.523804e+001
9.834254e+002,3.113320e+001
9.843896e+002,3.277476e+001
9.853539e+002,3.668301e+001
9.863181e+002,4.015112e+001
9.872823e+002,4.229624e+001
9.882466e+002,4.194106e+001
9.892108e+002,3.832021e+001
9.901750e+002,3.289131e+001
9.911393e+002,3.230772e+001
9.921035e+002,3.763252e+001
9.930677e+002,4.425527e+001
9.940320e+002,5.532158e+001
9.949962e+002,6.595571e+001
9.959604e+002,7.090385e+001
9.969247e+002,7.010332e+001
9.978889e+002,6.926670e+001
9.988531e+002,7.084224e+001
9.998174e+002,7.184790e+001
1.000782e+003,6.998174e+001
1.001746e+003,6.730127e+001
1.002710e+003,6.700932e+001
1.003674e+003,7.019399e+001
1.004639e+003,7.450142e+001
1.005603e+003,7.564888e+001
1.006567e+003,7.311880e+001
1.007531e+003,7.314561e+001
1.008495e+003,7.727720e+001
1.009460e+003,8.092705e+001
1.010424e+003,8.122451e+001
1.011388e+003,7.896187e+001
1.012352e+003,7.713584e+001
1.013317e+003,7.711050e+001
1.014281e+003,7.464473e+001
1.015245e+003,6.537241e+001
1.016209e+003,5.594477e+001
1.017174e+003,5.261729e+001
1.018138e+003,5.456562e+001
1.019102e+003,5.532656e+001
1.020066e+003,4.944614e+001
1.021031e+003,4.004424e+001
1.021995e+003,3.460786e+001
1.022959e+003,3.217671e+001
1.023923e+003,3.292720e+001
1.024887e+003,3.817393e+001
1.025852e+003,4.425674e+001
1.026816e+003,4.545181e+001
1.027780e+003,4.124702e+001
1.028744e+003,3.614082e+001
1.029709e+003,2.723433e+001
1.030673e+003,2.103545e+001
1.031637e+003,2.093721e+001
1.032601e+003,2.387871e+001
1.033566e+003,2.598794e+001
1.034530e+003,2.598618e+001
1.035494e+003,2.483291e+001
1.036458e+003,2.203135e+001
1.037422e+003,1.945762e+001
1.038387e+003,2.136602e+001
1.039351e+003,2.717578e+001
1.040315e+003,3.197632e+001
1.041279e+003,3.212305e+001
1.042244e+003,2.881060e+001
1.043208e+003,2.700274e+001
1.044172e+003,2.674858e+001
1.045136e+003,2.731016e+001
1.046101e+003,2.991372e+001
1.047065e+003,3.244941e+001
1.048029e+003,3.407471e+001
1.048993e+003,3.428843e+001
1.049958e+003,3.177178e+001
1.050922e+003,2.486294e+001
1.051886e+003,1.849839e+001
1.052850e+003,1.854238e+001
1.053814e+003,2.148887e+001
1.054779e+003,2.299399e+001
1.055743e+003,2.202534e+001
1.056707e+003,2.028960e+001
1.057671e+003,1.996099e+001
1.058636e+003,2.096563e+001
1.059600e+003,1.935586e+001
1.060564e+003,1.074370e+001
1.061528e+003,7.030908e+000
1.062493e+003,1.346245e+001
1.063457e+003,2.235098e+001
1.064421e+003,2.497720e+001
1.065385e+003,2.063848e+001
1.066349e+003,1.670215e+001
1.067314e+003,1.684072e+001
1.068278e+003,1.871733e+001
1.069242e+003,2.143042e+001
1.070206e+003,2.452896e+001
1.071171e+003,2.777192e+001
1.072135e+003,3.060195e+001
1.073099e+003,3.139878e+001
1.074063e+003,2.746934e+001
1.075028e+003,1.825322e+001
1.075992e+003,1.407168e+001
1.076956e+003,1.647236e+001
1.077920e+003,1.948565e+001
1.078885e+003,2.200679e+001
1.079849e+003,2.394263e+001
1.080813e+003,2.445444e+001
1.081777e+003,2.307676e+001
1.082741e+003,2.261782e+001
1.083706e+003,2.595308e+001
1.084670e+003,2.842231e+001
1.085634e+003,2.655420e+001
1.086598e+003,2.193154e+001
1.087563e+003,1.788555e+001
1.088527e+003,1.651699e+001
1.089491e+003,1.745137e+001
1.090455e+003,1.969722e+001
1.091420e+003,2.310503e+001
1.092384e+003,2.334595e+001
1.093348e+003,1.820684e+001
1.094312e+003,1.335371e+001
1.095276e+003,1.221968e+001
1.096241e+003,1.438853e+001
1.097205e+003,1.854292e+001
1.098169e+003,2.586856e+001
1.099133e+003,3.027524e+001
1.100098e+003,2.744160e+001
1.101062e+003,2.354160e+001
1.102026e+003,2.198555e+001
1.102990e+003,2.274521e+001
1.103955e+003,2.472026e+001
1.104919e+003,2.709492e+001
1.105883e+003,2.882485e+001
1.106847e+003,2.732007e+001
1.107812e+003,2.254341e+001
1.108776e+003,2.112329e+001
1.109740e+003,2.437578e+001
1.110704e+003,2.884809e+001
1.111668e+003,3.298647e+001
1.112633e+003,3.690991e+001
1.113597e+003,3.993203e+001
1.114561e+003,4.184321e+001
1.115525e+003,4.217300e+001
1.116490e+003,3.990303e+001
1.117454e+003,3.701748e+001
1.118418e+003,3.430537e+001
1.119382e+003,3.262334e+001
1.120347e+003,3.299321e+001
1.121311e+003,3.568921e+001
1.122275e+003,3.907915e+001
1.123239e+003,4.114424e+001
1.124203e+003,4.241782e+001
1.125168e+003,4.311675e+001
1.126132e+003,4.310278e+001
1.127096e+003,4.325933e+001
1.128060e+003,4.325459e+001
1.129025e+003,4.347300e+001
1.129989e+003,4.722363e+001
1.130953e+003,5.770493e+001
1.131917e+003,6.427695e+001
1.132882e+003,6.118916e+001
1.133846e+003,5.716470e+001
1.134810e+003,5.738086e+001
1.135774e+003,6.127021e+001
1.136739e+003,6.581010e+001
1.137703e+003,6.924512e+001
1.138667e+003,7.245976e+001
1.139631e+003,7.729195e+001
1.140595e+003,8.344922e+001
1.141560e+003,8.838008e+001
1.142524e+003,9.104272e+001
1.143488e+003,9.709141e+001
1.144452e+003,1.116930e+002
1.145417e+003,1.326351e+002
1.146381e+003,1.520838e+002
1.147345e+003,1.698757e+002
1.148309e+003,1.854095e+002
1.149274e+003,1.955434e+002
1.150238e+003,2.071017e+002
1.151202e+003,2.275079e+002
1.152166e+003,2.514394e+002
1.153130e+003,2.688284e+002
1.154095e+003,2.746559e+002
1.155059e+003,2.722067e+002
1.156023e+003,2.660939e+002
1.156987e+003,2.568915e+002
1.157952e+003,2.476882e+002
1.158916e+003,2.396628e+002
1.159880e+003,2.297884e+002
1.160844e+003,2.144681e+002
1.161809e+003,1.953701e+002
1.162773e+003,1.770632e+002
1.163737e+003,1.592496e+002
1.164701e+003,1.439801e+002
1.165666e+003,1.334591e+002
1.166630e+003,1.245022e+002
1.167594e+003,1.145405e+002
1.168558e+003,1.060097e+002
1.169522e+003,1.035791e+002
1.170487e+003,1.078057e+002
1.171451e+003,1.131635e+002
1.172415e+003,1.133347e+002
1.173379e+003,1.092140e+002
1.174344e+003,1.071254e+002
1.175308e+003,1.076683e+002
1.176272e+003,1.049712e+002
1.177236e+003,9.387846e+001
1.178201e+003,8.140303e+001
1.179165e+003,7.692002e+001
1.180129e+003,8.020591e+001
1.181093e+003,8.263926e+001
1.182057e+003,8.248193e+001
1.183022e+003,8.170024e+001
1.183986e+003,7.978428e+001
1.184950e+003,7.861601e+001
1.185914e+003,8.165444e+001
1.186879e+003,8.782988e+001
1.187843e+003,9.114986e+001
1.188807e+003,8.645161e+001
1.189771e+003,7.742471e+001
1.190736e+003,7.633813e+001
1.191700e+003,8.421352e+001
1.192664e+003,8.918379e+001
1.193628e+003,8.966801e+001
1.194593e+003,8.838823e+001
1.195557e+003,8.688525e+001
1.196521e+003,8.501255e+001
1.197485e+003,8.233174e+001
1.198449e+003,7.852285e+001
1.199414e+003,7.498637e+001
1.200378e+003,7.292812e+001
1.201342e+003,7.089922e+001
1.202306e+003,6.767671e+001
1.203271e+003,6.352861e+001
1.204235e+003,5.947627e+001
1.205199e+003,5.606929e+001
1.206163e+003,5.268164e+001
1.207128e+003,4.802007e+001
1.208092e+003,4.201055e+001
1.209056e+003,3.804614e+001
1.210020e+003,3.727114e+001
1.210984e+003,3.594024e+001
1.211949e+003,3.211118e+001
1.212913e+003,2.751289e+001
1.213877e+003,2.416704e+001
1.214841e+003,2.239629e+001
1.215806e+003,2.293984e+001
1.216770e+003,2.872598e+001
1.217734e+003,3.238227e+001
1.218698e+003,2.594209e+001
1.219663e+003,1.621807e+001
1.220627e+003,1.204541e+001
1.221591e+003,1.456191e+001
1.222555e+003,1.899917e+001
1.223520e+003,2.113262e+001
1.224484e+003,2.099634e+001
1.225448e+003,1.785220e+001
1.226412e+003,7.999560e+000
1.227376e+003,3.649414e+000
1.228341e+003,9.828272e+000
1.229305e+003,1.537300e+001
1.230269e+003,1.330098e+001
1.231233e+003,6.514746e+000
1.232198e+003,9.499512e-001
1.233162e+003,-1.780420e+000
1.234126e+003,-1.756152e+000
1.235090e+003,2.557812e+000
1.236055e+003,7.623731e+000
1.237019e+003,9.717334e+000
1.237983e+003,9.341846e+000
1.238947e+003,8.447558e+000
1.239911e+003,8.056055e+000
1.240876e+003,7.552197e+000
1.241840e+003,5.302002e+000
1.242804e+003,9.708984e-001
1.243768e+003,1.326514e+000
1.244733e+003,1.294546e+001
1.245697e+003,2.059336e+001
1.246661e+003,2.199985e+001
1.247625e+003,1.937588e+001
1.248590e+003,1.213013e+001
1.249554e+003,2.967041e+000
1.250518e+003,-2.084863e+000
1.251482e+003,-3.934082e-001
1.252447e+003,4.056348e+000
1.253411e+003,7.534424e+000
1.254375e+003,1.055107e+001
1.255339e+003,1.411152e+001
1.256303e+003,1.835674e+001
1.257268e+003,2.174146e+001
1.258232e+003,2.271157e+001
1.259196e+003,2.224834e+001
1.260160e+003,2.322935e+001
1.261125e+003,2.643638e+001
1.262089e+003,2.849414e+001
1.263053e+003,2.622861e+001
1.264017e+003,2.558340e+001
1.264982e+003,2.991938e+001
1.265946e+003,3.533686e+001
1.266910e+003,3.823613e+001
1.267874e+003,3.842124e+001
1.268839e+003,3.850708e+001
1.269803e+003,4.032041e+001
1.270767e+003,4.055127e+001
1.271731e+003,3.091709e+001
1.272695e+003,1.229292e+001
1.273660e+003,2.937402e+000
1.274624e+003,5.170264e+000
1.275588e+003,9.921631e+000
1.276552e+003,1.434038e+001
1.277517e+003,1.798369e+001
1.278481e+003,1.904570e+001
1.279445e+003,1.706421e+001
1.280409e+003,1.589937e+001
1.281374e+003,1.781543e+001
1.282338e+003,1.951196e+001
1.283302e+003,1.826841e+001
1.284266e+003,1.638989e+001
1.285230e+003,1.788838e+001
1.286195e+003,2.202280e+001
1.287159e+003,2.285986e+001
1.288123e+003,1.564497e+001
1.289087e+003,4.468946e+000
1.290052e+003,1.382080e+000
1.291016e+003,9.833252e+000
1.291980e+003,1.279590e+001
1.292944e+003,4.172754e+000
1.293909e+003,-2.282764e+000
1.294873e+003,7.308105e-001
1.295837e+003,8.408936e+000
1.296801e+003,1.507495e+001
1.297766e+003,1.953223e+001
1.298730e+003,2.004219e+001
1.299694e+003,1.393364e+001
1.300658e+003,6.063232e+000
1.301622e+003,1.563135e+000
1.302587e+003,-5.629395e-001
1.303551e+003,-1.770215e+000
1.304515e+003,-2.230225e+000
1.305479e+003,-1.660938e+000
1.306444e+003,4.184570e-002
1.307408e+003,2.502100e+000
1.308372e+003,5.237549e+000
1.309336e+003,8.885351e+000
1.310301e+003,1.066196e+001
1.311265e+003,9.228857e+000
1.312229e+003,7.911035e+000
1.313193e+003,6.427100e+000
1.314157e+003,6.173193e+000
1.315122e+003,1.057373e+001
1.316086e+003,1.798413e+001
1.317050e+003,2.060444e+001
1.318014e+003,1.303975e+001
1.318979e+003,2.298193e+000
1.319943e+003,1.209668e+000
1.320907e+003,8.856153e+000
1.321871e+003,1.408779e+001
1.322836e+003,1.586514e+001
1.323800e+003,1.554331e+001
1.324764e+003,1.241646e+001
1.325728e+003,8.516113e+000
1.326693e+003,7.638623e+000
1.327657e+003,9.732519e+000
1.328621e+003,1.026064e+001
1.329585e+003,6.964355e+000
1.330549e+003,6.119922e+000
1.331514e+003,1.217544e+001
1.332478e+003,1.918911e+001
1.333442e+003,2.182344e+001
1.334406e+003,2.031885e+001
1.335371e+003,1.758105e+001
1.336335e+003,1.543618e+001
1.337299e+003,1.374951e+001
1.338263e+003,1.207051e+001
1.339228e+003,1.028096e+001
1.340192e+003,9.813965e+000
1.341156e+003,1.222241e+001
1.342120e+003,1.354385e+001
1.343084e+003,1.216250e+001
1.344049e+003,9.730810e+000
1.345013e+003,7.648779e+000
1.345977e+003,6.273974e+000
1.346941e+003,5.211768e+000
1.347906e+003,4.192090e+000
1.348870e+003,4.963769e+000
1.349834e+003,1.061582e+001
1.350798e+003,1.764238e+001
1.351763e+003,1.941328e+001
1.352727e+003,1.683648e+001
1.353691e+003,1.496343e+001
1.354655e+003,1.592163e+001
1.355620e+003,1.729107e+001
1.356584e+003,1.614165e+001
1.357548e+003,1.288076e+001
1.358512e+003,9.716064e+000
1.359476e+003,5.429932e+000
1.360441e+003,3.231543e+000
1.361405e+003,5.390185e+000
1.362369e+003,8.595850e+000
1.363333e+003,1.322583e+001
1.364298e+003,1.699150e+001
1.365262e+003,1.650830e+001
1.366226e+003,1.149033e+001
1.367190e+003,4.448682e+000
1.368155e+003,-2.526221e+000
1.369119e+003,-7.808154e+000
1.370083e+003,-5.438086e+000
1.371047e+003,8.549952e+000
1.372011e+003,1.343867e+001
1.372976e+003,-2.651855e-001
1.373940e+003,-1.097319e+001
1.374904e+003,-8.278076e+000
1.375868e+003,4.385742e-001
1.376833e+003,7.122949e+000
1.377797e+003,1.039780e+001
1.378761e+003,9.146826e+000
1.379725e+003,1.333643e+000
1.380690e+003,-5.733447e+000
1.381654e+003,-2.623877e+000
1.382618e+003,5.244141e+000
1.383582e+003,1.159277e+001
1.384547e+003,1.564917e+001
1.385511e+003,1.615937e+001
1.386475e+003,1.156787e+001
1.387439e+003,5.583301e+000
1.388403e+003,3.895508e+000
1.389368e+003,6.456055e+000
1.390332e+003,1.076553e+001
1.391296e+003,2.013813e+001
1.392260e+003,2.480195e+001
1.393225e+003,1.938579e+001
1.394189e+003,1.251318e+001
1.395153e+003,8.149610e+000
1.396117e+003,6.003418e+000
1.397082e+003,4.909570e+000
1.398046e+003,4.581494e+000
1.399010e+003,5.682519e+000
1.399974e+003,8.666162e+000
1.400938e+003,1.204668e+001
1.401903e+003,1.228442e+001
1.402867e+003,9.365332e+000
1.403831e+003,8.219922e+000
1.404795e+003,7.399414e+000
1.405760e+003,9.114697e+000
1.406724e+003,1.718213e+001
1.407688e+003,2.470352e+001
1.408652e+003,2.245430e+001
1.409617e+003,1.233296e+001
1.410581e+003,6.113135e+000
1.411545e+003,9.083984e+000
1.412509e+003,1.328623e+001
1.413474e+003,1.000493e+001
1.414438e+003,3.064746e+000
1.415402e+003,-5.997559e-001
1.416366e+003,-7.626953e-001
1.417330e+003,8.132324e-001
1.418295e+003,3.805615e+000
1.419259e+003,7.013281e+000
1.420223e+003,8.690478e+000
1.421187e+003,8.855860e+000
1.422152e+003,9.039063e+000
1.423116e+003,9.325781e+000
1.424080e+003,1.104087e+001
1.425044e+003,1.526187e+001
1.426009e+003,1.943106e+001
1.426973e+003,2.399380e+001
1.427937e+003,2.696186e+001
1.428901e+003,2.490889e+001
1.429865e+003,1.897090e+001
1.430830e+003,1.446328e+001
1.431794e+003,1.466118e+001
1.432758e+003,1.658594e+001
1.433722e+003,1.454863e+001
1.434687e+003,8.401709e+000
1.435651e+003,8.178515e+000
1.436615e+003,1.829077e+001
1.437579e+003,2.492031e+001
1.438544e+003,2.567012e+001
1.439508e+003,2.419536e+001
1.440472e+003,2.236978e+001
1.441436e+003,2.086353e+001
1.442401e+003,2.009809e+001
1.443365e+003,1.999653e+001
1.444329e+003,2.000581e+001
1.445293e+003,1.978564e+001
1.446257e+003,1.981602e+001
1.447222e+003,2.151753e+001
1.448186e+003,2.417925e+001
1.449150e+003,2.352305e+001
1.450114e+003,1.803555e+001
1.451079e+003,1.334409e+001
1.452043e+003,1.389048e+001
1.453007e+003,1.628003e+001
1.453971e+003,1.482231e+001
1.454936e+003,1.002290e+001
1.455900e+003,7.747851e+000
1.456864e+003,1.000361e+001
1.457828e+003,1.281323e+001
1.458792e+003,1.249917e+001
1.459757e+003,1.261851e+001
1.460721e+003,1.882236e+001
1.461685e+003,2.697871e+001
1.462649e+003,2.707017e+001
1.463614e+003,1.755371e+001
1.464578e+003,9.591700e+000
1.465542e+003,1.371797e+001
1.466506e+003,2.468184e+001
1.467471e+003,2.640264e+001
1.468435e+003,1.635508e+001
1.469399e+003,1.236025e+001
1.470363e+003,1.961274e+001
1.471328e+003,2.601558e+001
1.472292e+003,2.888037e+001
1.473256e+003,2.925015e+001
1.474220e+003,2.765493e+001
1.475184e+003,2.530742e+001
1.476149e+003,2.361958e+001
1.477113e+003,2.270015e+001
1.478077e+003,2.105664e+001
1.479041e+003,1.748794e+001
1.480006e+003,1.354097e+001
1.480970e+003,1.368599e+001
1.481934e+003,1.870361e+001
1.482898e+003,2.279258e+001
1.483863e+003,2.685420e+001
1.484827e+003,2.864048e+001
1.485791e+003,2.484521e+001
1.486755e+003,2.155488e+001
1.487719e+003,2.583804e+001
1.488684e+003,3.473682e+001
1.489648e+003,3.945635e+001
1.490612e+003,3.748091e+001
1.491576e+003,3.448213e+001
1.492541e+003,3.455908e+001
1.493505e+003,3.693159e+001
1.494469e+003,4.056435e+001
1.495433e+003,4.481689e+001
1.496398e+003,4.867446e+001
1.497362e+003,5.274150e+001
1.498326e+003,5.638271e+001
1.499290e+003,5.788257e+001
1.500255e+003,5.959199e+001
1.501219e+003,6.364101e+001
1.502183e+003,7.037378e+001
1.503147e+003,8.349404e+001
1.504111e+003,1.058593e+002
1.505076e+003,1.237606e+002
1.506040e+003,1.257874e+002
1.507004e+003,1.235391e+002
1.507968e+003,1.268050e+002
1.508933e+003,1.353057e+002
1.509897e+003,1.494866e+002
1.510861e+003,1.695791e+002
1.511825e+003,1.912019e+002
1.512790e+003,2.102915e+002
1.513754e+003,2.294429e+002
1.514718e+003,2.565990e+002
1.515682e+003,2.912917e+002
1.516646e+003,3.162447e+002
1.517611e+003,3.280751e+002
1.518575e+003,3.364296e+002
1.519539e+003,3.439449e+002
1.520503e+003,3.499470e+002
1.521468e+003,3.537172e+002
1.522432e+003,3.553824e+002
1.523396e+003,3.565811e+002
1.524360e+003,3.562572e+002
1.525325e+003,3.497847e+002
1.526289e+003,3.342220e+002
1.527253e+003,3.128497e+002
1.528217e+003,2.906898e+002
1.529182e+003,2.680079e+002
1.530146e+003,2.493239e+002
1.531110e+003,2.402360e+002
1.532074e+003,2.238113e+002
1.533038e+003,1.916087e+002
1.534003e+003,1.594729e+002
1.534967e+003,1.348836e+002
1.535931e+003,1.152121e+002
1.536895e+003,9.630737e+001
1.537860e+003,7.846670e+001
1.538824e+003,6.511797e+001
1.539788e+003,5.766870e+001
1.540752e+003,5.334541e+001
1.541717e+003,4.903306e+001
1.542681e+003,4.481773e+001
1.543645e+003,3.988242e+001
1.544609e+003,3.264058e+001
1.545573e+003,3.033208e+001
1.546538e+003,3.830430e+001
1.547502e+003,4.280317e+001
1.548466e+003,3.632652e+001
1.549430e+003,2.718936e+001
1.550395e+003,2.340591e+001
1.551359e+003,2.422100e+001
1.552323e+003,2.534072e+001
1.553287e+003,2.523921e+001
1.554252e+003,2.474219e+001
1.555216e+003,2.441816e+001
1.556180e+003,2.438892e+001
1.557144e+003,2.548252e+001
1.558109e+003,2.788174e+001
1.559073e+003,2.754009e+001
1.560037e+003,2.176152e+001
1.561001e+003,1.739063e+001
1.561965e+003,1.914888e+001
1.562930e+003,2.209658e+001
1.563894e+003,2.087910e+001
1.564858e+003,1.684263e+001
1.565822e+003,1.372920e+001
1.566787e+003,1.230137e+001
1.567751e+003,1.229712e+001
1.568715e+003,1.386924e+001
1.569679e+003,1.655547e+001
1.570644e+003,2.052661e+001
1.571608e+003,2.441191e+001
1.572572e+003,2.476523e+001
1.573536e+003,2.166978e+001
1.574500e+003,1.944756e+001
1.575465e+003,1.930723e+001
1.576429e+003,2.040112e+001
1.577393e+003,2.294805e+001
1.578357e+003,2.559980e+001
1.579322e+003,2.583521e+001
1.580286e+003,2.374609e+001
1.581250e+003,2.105752e+001
1.582214e+003,1.785845e+001
1.583179e+003,1.566504e+001
1.584143e+003,1.548174e+001
1.585107e+003,1.665063e+001
1.586071e+003,2.020771e+001
1.587036e+003,2.505410e+001
1.588000e+003,2.542192e+001
1.588964e+003,1.943584e+001
1.589928e+003,1.422129e+001
1.590893e+003,1.489614e+001
1.591857e+003,1.873906e+001
1.592821e+003,2.217578e+001
1.593785e+003,2.528569e+001
1.594750e+003,2.837021e+001
1.595714e+003,3.152705e+001
1.596678e+003,3.285669e+001
1.597642e+003,3.092734e+001
1.598606e+003,2.800469e+001
1.599571e+003,2.541772e+001
1.600535e+003,2.352412e+001
1.601499e+003,2.285498e+001
1.602463e+003,2.316089e+001
1.603428e+003,2.357520e+001
1.604392e+003,2.374063e+001
1.605356e+003,2.423921e+001
1.606320e+003,2.641104e+001
1.607285e+003,2.917627e+001
1.608249e+003,2.856851e+001
1.609213e+003,2.439893e+001
1.610177e+003,2.354043e+001
1.611141e+003,2.930356e+001
1.612106e+003,3.299961e+001
1.613070e+003,2.719712e+001
1.614034e+003,2.065991e+001
1.614998e+003,2.039238e+001
1.615963e+003,2.355659e+001
1.616927e+003,2.448579e+001
1.617891e+003,2.256660e+001
1.618855e+003,2.219668e+001
1.619820e+003,2.633603e+001
1.620784e+003,3.009600e+001
1.621748e+003,2.610430e+001
1.622712e+003,1.640361e+001
1.623677e+003,9.800879e+000
1.624641e+003,6.306250e+000
1.625605e+003,6.952637e+000
1.626569e+003,1.482734e+001
1.627533e+003,1.999380e+001
1.628498e+003,1.481494e+001
1.629462e+003,8.464844e+000
1.630426e+003,9.797998e+000
1.631390e+003,1.572822e+001
1.632355e+003,1.832100e+001
1.633319e+003,1.579238e+001
1.634283e+003,1.258936e+001
1.635247e+003,1.183555e+001
1.636212e+003,1.252930e+001
1.637176e+003,1.321328e+001
1.638140e+003,1.407305e+001
1.639104e+003,1.530576e+001
1.640068e+003,1.695957e+001
1.641033e+003,1.805713e+001
1.641997e+003,1.837207e+001
1.642961e+003,1.847422e+001
1.643925e+003,1.798066e+001
1.644890e+003,1.787481e+001
1.645854e+003,1.960928e+001
1.646818e+003,2.236006e+001
1.647782e+003,2.424443e+001
1.648747e+003,2.457685e+001
1.649711e+003,2.313086e+001
1.650675e+003,1.918037e+001
1.651639e+003,1.536397e+001
1.652604e+003,1.792119e+001
1.653568e+003,2.627353e+001
1.654532e+003,3.003164e+001
1.655496e+003,2.787852e+001
1.656460e+003,2.386777e+001
1.657425e+003,1.710713e+001
1.658389e+003,1.182305e+001
1.659353e+003,1.017334e+001
1.660317e+003,1.097666e+001
1.661282e+003,1.499443e+001
1.662246e+003,1.997725e+001
1.663210e+003,1.955635e+001
1.664174e+003,1.207041e+001
1.665139e+003,5.236621e+000
1.666103e+003,5.821485e+000
1.667067e+003,1.026113e+001
1.668031e+003,1.165859e+001
1.668995e+003,1.032617e+001
1.669960e+003,9.671289e+000
1.670924e+003,1.032656e+001
1.671888e+003,1.038203e+001
1.672852e+003,8.226465e+000
1.673817e+003,6.373145e+000
1.674781e+003,7.655469e+000
1.675745e+003,9.090039e+000
1.676709e+003,5.393555e+000
1.677674e+003,-1.053418e+000
1.678638e+003,-1.179199e+000
1.679602e+003,7.744141e+000
1.680566e+003,1.580410e+001
1.681531e+003,1.482568e+001
1.682495e+003,9.702929e+000
1.683459e+003,8.425488e+000
1.684423e+003,1.007676e+001
1.685387e+003,1.007852e+001
1.686352e+003,7.902832e+000
1.687316e+003,6.531738e+000
1.688280e+003,7.922754e+000
1.689244e+003,8.375781e+000
1.690209e+003,2.341895e+000
1.691173e+003,-4.345117e+000
1.692137e+003,-4.178223e+000
1.693101e+003,1.385547e+000
1.694066e+003,6.408105e+000
1.695030e+003,9.169238e+000
1.695994e+003,9.404004e+000
1.696958e+003,5.374804e+000
1.697922e+003,1.104785e+000
1.698887e+003,3.232617e+000
1.699851e+003,9.076953e+000
1.700815e+003,9.639257e+000
1.701779e+003,4.051562e+000
1.702744e+003,-2.958203e+000
1.703708e+003,-1.101973e+001
1.704672e+003,-1.351738e+001
1.705636e+003,-1.605176e+000
1.706601e+003,1.328320e+001
1.707565e+003,1.259326e+001
1.708529e+003,1.618848e+000
1.709493e+003,-3.673242e+000
1.710458e+003,-9.844726e-001
1.711422e+003,2.103125e+000
1.712386e+003,3.428809e+000
1.713350e+003,3.591797e+000
1.714314e+003,1.805371e+000
1.715279e+003,-8.434570e-001
1.716243e+003,-2.014941e+000
1.717207e+003,-1.805176e+000
1.718171e+003,-1.785059e+000
1.719136e+003,-2.302344e+000
1.720100e+003,-2.872754e+000
1.721064e+003,-3.124316e+000
1.722028e+003,-4.121289e+000
1.722993e+003,-7.734375e+000
1.723957e+003,-1.271509e+001
1.724921e+003,-1.400903e+001
1.725885e+003,-1.167617e+001
1.726849e+003,-1.012588e+001
1.727814e+003,-9.328516e+000
1.728778e+003,-8.904004e+000
1.729742e+003,-9.058496e+000
1.730706e+003,-9.470019e+000
1.731671e+003,-1.064951e+001
1.732635e+003,-1.228984e+001
1.733599e+003,-1.308242e+001
1.734563e+003,-1.237852e+001
1.735528e+003,-9.862597e+000
1.736492e+003,-5.561816e+000
1.737456e+003,-2.141406e+000
1.738420e+003,-2.888867e+000
1.739385e+003,-6.992480e+000
1.740349e+003,-1.028750e+001
1.741313e+003,-1.221719e+001
1.742277e+003,-1.462207e+001
1.743241e+003,-2.150264e+001
1.744206e+003,-2.204595e+001
1.745170e+003,-8.142187e+000
1.746134e+003,4.199512e+000
1.747098e+003,4.832617e+000
1.748063e+003,9.755860e-002
1.749027e+003,-3.523828e+000
1.749991e+003,-4.790820e+000
1.750955e+003,-3.369531e+000
1.751920e+003,-6.103516e-002
1.752884e+003,5.369141e-001
1.753848e+003,-5.508399e+000
1.754812e+003,-1.348174e+001
1.755776e+003,-1.291758e+001
1.756741e+003,-3.876758e+000
1.757705e+003,-4.481445e-001
1.758669e+003,-5.291406e+000
1.759633e+003,-8.957227e+000
1.760598e+003,-1.097559e+001
1.761562e+003,-1.162334e+001
1.762526e+003,-8.527344e+000
1.763490e+003,-5.877734e+000
1.764455e+003,-7.927442e+000
1.765419e+003,-1.161924e+001
1.766383e+003,-1.133418e+001
1.767347e+003,-7.610156e+000
1.768312e+003,-6.858106e+000
1.769276e+003,-1.229932e+001
1.770240e+003,-1.766152e+001
1.771204e+003,-1.526973e+001
1.772168e+003,-8.145899e+000
1.773133e+003,-3.895606e+000
1.774097e+003,-2.291016e+000
1.775061e+003,-8.169922e-001
1.776025e+003,5.085937e-001
1.776990e+003,2.378906e-001
1.777954e+003,-2.564258e+000
1.778918e+003,-4.643750e+000
1.779882e+003,-2.917187e+000
1.780847e+003,-5.200195e-001
1.781811e+003,-1.696582e+000
1.782775e+003,-5.270215e+000
1.783739e+003,-7.713477e+000
1.784703e+003,-8.381739e+000
1.785668e+003,-8.152637e+000
1.786632e+003,-7.548926e+000
1.787596e+003,-6.926856e+000
1.788560e+003,-5.535449e+000
1.789525e+003,-3.936426e+000
1.790489e+003,-3.597852e+000
1.791453e+003,-4.456250e+000
1.792417e+003,-5.737597e+000
1.793382e+003,-7.101172e+000
1.794346e+003,-7.805176e+000
1.795310e+003,-7.522461e+000
1.796274e+003,-6.097266e+000
1.797239e+003,-2.482129e+000
1.798203e+003,1.940039e+000
1.799167e+003,6.611328e-001
1.800131e+003,-8.604589e+000
1.801095e+003,-1.397402e+001
1.802060e+003,-1.237578e+001
1.803024e+003,-1.060176e+001
1.803988e+003,-9.658887e+000
1.804952e+003,-8.791895e+000
1.805917e+003,-7.937793e+000
1.806881e+003,-6.765527e+000
1.807845e+003,-3.521680e+000
1.808809e+003,3.046875e-002
1.809774e+003,-8.194336e-001
1.810738e+003,-5.957617e+000
1.811702e+003,-9.023829e+000
1.812666e+003,-6.143750e+000
1.813630e+003,-1.303320e+000
1.814595e+003,2.373047e-002
1.815559e+003,-1.130273e+000
1.816523e+003,4.984375e-001
1.817487e+003,5.532422e+000
1.818452e+003,7.278320e+000
1.819416e+003,5.133594e+000
1.820380e+003,1.501758e+000
1.821344e+003,-5.609571e+000
1.822309e+003,-1.112734e+001
1.823273e+003,-1.084775e+001
1.824237e+003,-8.027051e+000
1.825201e+003,-4.634277e+000
1.826166e+003,-2.071484e+000
1.827130e+003,-4.504981e+000
1.828094e+003,-1.249961e+001
1.829058e+003,-1.683818e+001
1.830022e+003,-1.088291e+001
1.830987e+003,-4.194531e+000
1.831951e+003,-5.821191e+000
1.832915e+003,-1.067813e+001
1.833879e+003,-1.054697e+001
1.834844e+003,-7.335938e+000
1.835808e+003,-8.844043e+000
1.836772e+003,-1.551992e+001
1.837736e+003,-1.968994e+001
1.838701e+003,-1.817022e+001
1.839665e+003,-1.430928e+001
1.840629e+003,-1.054463e+001
1.841593e+003,-7.451758e+000
1.842557e+003,-6.864258e+000
1.843522e+003,-8.747266e+000
1.844486e+003,-8.553808e+000
1.845450e+003,-4.117090e+000
1.846414e+003,-7.453125e-001
1.847379e+003,2.564355e+000
1.848343e+003,2.046777e+000
1.849307e+003,-7.959082e+000
1.850271e+003,-1.694248e+001
1.851236e+003,-1.528379e+001
1.852200e+003,-8.836817e+000
1.853164e+003,-6.804883e+000
1.854128e+003,-9.532031e+000
1.855093e+003,-1.183496e+001
1.856057e+003,-1.135156e+001
1.857021e+003,-9.665039e+000
1.857985e+003,-8.148046e+000
1.858949e+003,-7.282715e+000
1.859914e+003,-8.346484e+000
1.860878e+003,-1.064951e+001
1.861842e+003,-1.070859e+001
1.862806e+003,-8.594336e+000
1.863771e+003,-6.425000e+000
1.864735e+003,-4.512891e+000
1.865699e+003,-3.397168e+000
1.866663e+003,-2.653320e+000
1.867628e+003,-3.372656e+000
1.868592e+003,-8.507324e+000
1.869556e+003,-1.525850e+001
1.870520e+003,-1.734717e+001
1.871484e+003,-1.545762e+001
1.872449e+003,-1.373203e+001
1.873413e+003,-1.144570e+001
1.874377e+003,-9.054004e+000
1.875341e+003,-6.883789e+000
1.876306e+003,-6.365723e+000
1.877270e+003,-1.080205e+001
1.878234e+003,-1.520742e+001
1.879198e+003,-1.367129e+001
1.880163e+003,-8.436914e+000
1.881127e+003,-2.866016e+000
1.882091e+003,1.391406e+000
1.883055e+003,9.409180e-001
1.884020e+003,-4.915039e+000
1.884984e+003,-9.434961e+000
1.885948e+003,-6.323633e+000
1.886912e+003,1.082031e-001
1.887876e+003,1.075586e+000
1.888841e+003,-2.838574e+000
1.889805e+003,-5.044629e+000
1.890769e+003,-5.296289e+000
1.891733e+003,-5.360644e+000
1.892698e+003,-6.695508e+000
1.893662e+003,-5.245019e+000
1.894626e+003,4.293164e+000
1.895590e+003,1.211602e+001
1.896555e+003,1.042930e+001
1.897519e+003,4.561816e+000
1.898483e+003,-1.336231e+000
1.899447e+003,-6.468262e+000
1.900411e+003,-7.354004e+000
1.901376e+003,-2.961231e+000
1.902340e+003,1.328125e-002
1.903304e+003,-1.927148e+000
1.904268e+003,-4.486621e+000
1.905233e+003,-5.160547e+000
1.906197e+003,-4.783789e+000
1.907161e+003,-3.994336e+000
1.908125e+003,-2.740723e+000
1.909090e+003,-6.905273e-001
1.910054e+003,1.478613e+000
1.911018e+003,2.394141e+000
1.911982e+003,1.723438e+000
1.912947e+003,-7.702149e-001
1.913911e+003,-5.394238e+000
1.914875e+003,-9.630078e+000
1.915839e+003,-9.555371e+000
1.916803e+003,-6.227149e+000
1.917768e+003,-3.096777e+000
1.918732e+003,4.266602e-001
1.919696e+003,1.471777e+000
1.920660e+003,-1.213574e+000
1.921625e+003,-1.994141e+000
1.922589e+003,2.356250e+000
1.923553e+003,4.946777e+000
1.924517e+003,-2.145313e+000
1.925482e+003,-8.599218e+000
1.926446e+003,-2.216992e+000
1.927410e+003,1.022852e+001
1.928374e+003,1.512656e+001
1.929339e+003,1.155967e+001
1.930303e+003,5.967773e+000
1.931267e+003,-1.151562e+000
1.932231e+003,-4.697461e+000
1.933195e+003,-2.011719e-002
1.934160e+003,5.329394e+000
1.935124e+003,5.154004e+000
1.936088e+003,2.878223e+000
1.937052e+003,3.417383e+000
1.938017e+003,5.920508e+000
1.938981e+003,7.732910e+000
1.939945e+003,7.852441e+000
1.940909e+003,5.266113e+000
1.941874e+003,-3.112305e-001
1.942838e+003,-6.737305e+000
1.943802e+003,-1.188115e+001
1.944766e+003,-1.462148e+001
1.945730e+003,-1.297559e+001
1.946695e+003,-7.869141e+000
1.947659e+003,-4.945703e+000
1.948623e+003,-4.582520e+000
1.949587e+003,-2.889062e+000
1.950552e+003,1.411035e+000
1.951516e+003,4.334863e+000
1.952480e+003,4.242188e+000
1.953444e+003,3.110254e+000
1.954409e+003,1.952344e+000
1.955373e+003,3.513672e-001
1.956337e+003,-2.857812e+000
1.957301e+003,-6.165235e+000
1.958266e+003,-4.816504e+000
1.959230e+003,2.214942e+000
1.960194e+003,6.359473e+000
1.961158e+003,2.185937e+000
1.962122e+003,2.003906e-001
1.963087e+003,6.180469e+000
1.964051e+003,1.146865e+001
1.965015e+003,1.039082e+001
1.965979e+003,7.617676e+000
1.966944e+003,8.209277e+000
1.967908e+003,1.010088e+001
1.968872e+003,8.409082e+000
1.969836e+003,3.411914e+000
1.970801e+003,-4.179688e-001
1.971765e+003,-1.129199e+000
1.972729e+003,-3.035156e-001
1.973693e+003,7.736328e-001
1.974657e+003,2.326660e+000
1.975622e+003,5.188672e+000
1.976586e+003,8.344043e+000
1.977550e+003,9.910156e+000
1.978514e+003,9.812891e+000
1.979479e+003,5.904004e+000
1.980443e+003,-1.734668e+000
1.981407e+003,-4.933398e+000
1.982371e+003,-2.724609e-001
1.983336e+003,5.245898e+000
1.984300e+003,6.442578e+000
1.985264e+003,3.540332e+000
1.986228e+003,-3.822656e+000
1.987193e+003,-1.370322e+001
1.988157e+003,-1.555166e+001
1.989121e+003,-7.363086e+000
1.990085e+003,-5.314453e-001
1.991049e+003,5.486719e+000
1.992014e+003,9.524219e+000
1.992978e+003,1.013721e+001
1.993942e+003,1.002139e+001
1.994906e+003,1.047090e+001
1.995871e+003,1.018965e+001
1.996835e+003,6.860254e+000
1.997799e+003,3.268848e+000
1.998763e+003,3.686816e+000
1.999728e+003,7.336621e+000
2.000692e+003,0.000000e+000
2.001656e+003,0.000000e+000
2.002620e+003,0.000000e+000
2.003584e+003,0.000000e+000
2.004549e+003,0.000000e+000
2.005513e+003,0.000000e+000
2.006477e+003,0.000000e+000
2.007441e+003,0.000000e+000
2.008406e+003,0.000000e+000
2.009370e+003,0.000000e+000
2.010334e+003,0.000000e+000
2.011298e+003,0.000000e+000
2.012263e+003,0.000000e+000
2.013227e+003,0.000000e+000
2.014191e+003,0.000000e+000
2.015155e+003,0.000000e+000
2.016120e+003,0.000000e+000
2.017084e+003,0.000000e+000
2.018048e+003,0.000000e+000
2.019012e+003,0.000000e+000
2.019976e+003,0.000000e+000
2.020941e+003,0.000000e+000
2.021905e+003,0.000000e+000
2.022869e+003,0.000000e+000
2.023833e+003,0.000000e+000
2.024798e+003,0.000000e+000
2.025762e+003,0.000000e+000
2.026726e+003,0.000000e+000
2.027690e+003,0.000000e+000
2.028655e+003,0.000000e+000
2.029619e+003,0.000000e+000
2.030583e+003,0.000000e+000
2.031547e+003,0.000000e+000
2.032511e+003,0.000000e+000
2.033476e+003,0.000000e+000
2.034440e+003,0.000000e+000
2.035404e+003,0.000000e+000
2.036368e+003,0.000000e+000
2.037333e+003,0.000000e+000
2.038297e+003,0.000000e+000
2.039261e+003,0.000000e+000
2.040225e+003,0.000000e+000
2.041190e+003,0.000000e+000
2.042154e+003,0.000000e+000
2.043118e+003,0.000000e+000
2.044082e+003,0.000000e+000
2.045047e+003,0.000000e+000
2.046011e+003,0.000000e+000
2.046975e+003,0.000000e+000
2.047939e+003,0.000000e+000
2.048904e+003,0.000000e+000
2.049868e+003,0.000000e+000
2.050832e+003,0.000000e+000
2.051796e+003,0.000000e+000
2.052760e+003,0.000000e+000
2.053725e+003,0.000000e+000
2.054689e+003,0.000000e+000
2.055653e+003,0.000000e+000
2.056617e+003,0.000000e+000
2.057582e+003,0.000000e+000
2.058546e+003,0.000000e+000
2.059510e+003,0.000000e+000
2.060474e+003,0.000000e+000
2.061438e+003,0.000000e+000
2.062403e+003,0.000000e+000
2.063367e+003,0.000000e+000
2.064331e+003,0.000000e+000
2.065295e+003,0.000000e+000
2.066260e+003,0.000000e+000
2.067224e+003,0.000000e+000
2.068188e+003,0.000000e+000
2.069152e+003,0.000000e+000
2.070117e+003,0.000000e+000
2.071081e+003,0.000000e+000
2.072045e+003,0.000000e+000
2.073009e+003,0.000000e+000
2.073974e+003,0.000000e+000
2.074938e+003,0.000000e+000
2.075902e+003,0.000000e+000
2.076866e+003,0.000000e+000
2.077831e+003,0.000000e+000
2.078795e+003,0.000000e+000
2.079759e+003,0.000000e+000
2.080723e+003,0.000000e+000
2.081688e+003,0.000000e+000
2.082652e+003,0.000000e+000
2.083616e+003,0.000000e+000
2.084580e+003,0.000000e+000
2.085544e+003,0.000000e+000
2.086509e+003,0.000000e+000
2.087473e+003,0.000000e+000
2.088437e+003,0.000000e+000
2.089401e+003,0.000000e+000
2.090365e+003,0.000000e+000
2.091330e+003,0.000000e+000
2.092294e+003,0.000000e+000
2.093258e+003,0.000000e+000
2.094222e+003,0.000000e+000
2.095187e+003,0.000000e+000
2.096151e+003,0.000000e+000
2.097115e+003,0.000000e+000
2.098079e+003,0.000000e+000
2.099044e+003,0.000000e+000
2.100008e+003,0.000000e+000
2.100972e+003,0.000000e+000
2.101936e+003,0.000000e+000
2.102901e+003,0.000000e+000
2.103865e+003,0.000000e+000
2.104829e+003,0.000000e+000
2.105793e+003,0.000000e+000
2.106758e+003,0.000000e+000
2.107722e+003,0.000000e+000
2.108686e+003,0.000000e+000
2.109650e+003,0.000000e+000
2.110615e+003,0.000000e+000
2.111579e+003,0.000000e+000
2.112543e+003,0.000000e+000
2.113507e+003,0.000000e+000
2.114471e+003,0.000000e+000
2.115436e+003,0.000000e+000
2.116400e+003,0.000000e+000
2.117364e+003,0.000000e+000
2.118328e+003,0.000000e+000
2.119292e+003,0.000000e+000
2.120257e+003,0.000000e+000
2.121221e+003,0.000000e+000
2.122185e+003,0.000000e+000
2.123149e+003,0.000000e+000
2.124114e+003,0.000000e+000
2.125078e+003,0.000000e+000
2.126042e+003,0.000000e+000
2.127006e+003,0.000000e+000
2.127971e+003,0.000000e+000
2.128935e+003,0.000000e+000
2.129899e+003,0.000000e+000
2.130863e+003,0.000000e+000
2.131828e+003,0.000000e+000
2.132792e+003,0.000000e+000
2.133756e+003,0.000000e+000
2.134720e+003,0.000000e+000
2.135685e+003,0.000000e+000
2.136649e+003,0.000000e+000
2.137613e+003,0.000000e+000
2.138577e+003,0.000000e+000
2.139542e+003,0.000000e+000
2.140506e+003,0.000000e+000
2.141470e+003,0.000000e+000
2.142434e+003,0.000000e+000
2.143398e+003,0.000000e+000
2.144363e+003,0.000000e+000
2.145327e+003,0.000000e+000
2.146291e+003,0.000000e+000
2.147255e+003,0.000000e+000
2.148220e+003,0.000000e+000
2.149184e+003,0.000000e+000
2.150148e+003,0.000000e+000
2.151112e+003,0.000000e+000
2.152077e+003,0.000000e+000
2.153041e+003,0.000000e+000
2.154005e+003,0.000000e+000
2.154969e+003,0.000000e+000
2.155934e+003,0.000000e+000
2.156898e+003,0.000000e+000
2.157862e+003,0.000000e+000
2.158826e+003,0.000000e+000
2.159791e+003,0.000000e+000
2.160755e+003,0.000000e+000
2.161719e+003,0.000000e+000
2.162683e+003,0.000000e+000
2.163647e+003,0.000000e+000
2.164612e+003,0.000000e+000
2.165576e+003,0.000000e+000
2.166540e+003,0.000000e+000
2.167504e+003,0.000000e+000
2.168469e+003,0.000000e+000
2.169433e+003,0.000000e+000
2.170397e+003,0.000000e+000
2.171361e+003,0.000000e+000
2.172325e+003,0.000000e+000
2.173290e+003,0.000000e+000
2.174254e+003,0.000000e+000
2.175218e+003,0.000000e+000
2.176182e+003,0.000000e+000
2.177147e+003,0.000000e+000
2.178111e+003,0.000000e+000
2.179075e+003,0.000000e+000
2.180039e+003,0.000000e+000
2.181004e+003,0.000000e+000
2.181968e+003,0.000000e+000
2.182932e+003,0.000000e+000
2.183896e+003,0.000000e+000
2.184861e+003,0.000000e+000
2.185825e+003,0.000000e+000
2.186789e+003,0.000000e+000
2.187753e+003,0.000000e+000
2.188718e+003,0.000000e+000
2.189682e+003,0.000000e+000
2.190646e+003,0.000000e+000
2.191610e+003,0.000000e+000
2.192574e+003,0.000000e+000
2.193539e+003,0.000000e+000
2.194503e+003,0.000000e+000
2.195467e+003,0.000000e+000
2.196431e+003,0.000000e+000
2.197396e+003,0.000000e+000
2.198360e+003,0.000000e+000
2.199324e+003,0.000000e+000
2.200288e+003,0.000000e+000
2.201252e+003,0.000000e+000
2.202217e+003,0.000000e+000
2.203181e+003,0.000000e+000
2.204145e+003,0.000000e+000
2.205109e+003,0.000000e+000
2.206074e+003,0.000000e+000
2.207038e+003,0.000000e+000
2.208002e+003,0.000000e+000
2.208966e+003,0.000000e+000
2.209931e+003,0.000000e+000
2.210895e+003,0.000000e+000
2.211859e+003,0.000000e+000
2.212823e+003,0.000000e+000
2.213788e+003,0.000000e+000
2.214752e+003,0.000000e+000
2.215716e+003,0.000000e+000
2.216680e+003,0.000000e+000
2.217645e+003,0.000000e+000
2.218609e+003,0.000000e+000
2.219573e+003,0.000000e+000
2.220537e+003,0.000000e+000
2.221501e+003,0.000000e+000
2.222466e+003,0.000000e+000
2.223430e+003,0.000000e+000
2.224394e+003,0.000000e+000
2.225358e+003,0.000000e+000
2.226323e+003,0.000000e+000
2.227287e+003,0.000000e+000
2.228251e+003,0.000000e+000
2.229215e+003,0.000000e+000
2.230179e+003,0.000000e+000
2.231144e+003,0.000000e+000
2.232108e+003,0.000000e+000
2.233072e+003,0.000000e+000
2.234036e+003,0.000000e+000
2.235001e+003,0.000000e+000
2.235965e+003,0.000000e+000
2.236929e+003,0.000000e+000
2.237893e+003,0.000000e+000
2.238858e+003,0.000000e+000
2.239822e+003,0.000000e+000
2.240786e+003,0.000000e+000
2.241750e+003,0.000000e+000
2.242715e+003,0.000000e+000
2.243679e+003,0.000000e+000
2.244643e+003,0.000000e+000
2.245607e+003,0.000000e+000
2.246572e+003,0.000000e+000
2.247536e+003,0.000000e+000
2.248500e+003,0.000000e+000
2.249464e+003,0.000000e+000
2.250428e+003,0.000000e+000
2.251393e+003,0.000000e+000
2.252357e+003,0.000000e+000
2.253321e+003,0.000000e+000
2.254285e+003,0.000000e+000
2.255250e+003,0.000000e+000
2.256214e+003,0.000000e+000
2.257178e+003,0.000000e+000
2.258142e+003,0.000000e+000
2.259106e+003,0.000000e+000
2.260071e+003,0.000000e+000
2.261035e+003,0.000000e+000
2.261999e+003,0.000000e+000
2.262963e+003,0.000000e+000
2.263928e+003,0.000000e+000
2.264892e+003,0.000000e+000
2.265856e+003,0.000000e+000
2.266820e+003,0.000000e+000
2.267785e+003,0.000000e+000
2.268749e+003,0.000000e+000
2.269713e+003,0.000000e+000
2.270677e+003,0.000000e+000
2.271642e+003,0.000000e+000
2.272606e+003,0.000000e+000
2.273570e+003,0.000000e+000
2.274534e+003,0.000000e+000
2.275499e+003,0.000000e+000
2.276463e+003,0.000000e+000
2.277427e+003,0.000000e+000
2.278391e+003,0.000000e+000
2.279355e+003,0.000000e+000
2.280320e+003,0.000000e+000
2.281284e+003,0.000000e+000
2.282248e+003,0.000000e+000
2.283212e+003,0.000000e+000
2.284177e+003,0.000000e+000
2.285141e+003,0.000000e+000
2.286105e+003,0.000000e+000
2.287069e+003,0.000000e+000
2.288033e+003,0.000000e+000
2.288998e+003,0.000000e+000
2.289962e+003,0.000000e+000
2.290926e+003,0.000000e+000
2.291890e+003,0.000000e+000
2.292855e+003,0.000000e+000
2.293819e+003,0.000000e+000
2.294783e+003,0.000000e+000
2.295747e+003,0.000000e+000
2.296712e+003,0.000000e+000
2.297676e+003,0.000000e+000
2.298640e+003,0.000000e+000
2.299604e+003,0.000000e+000
2.300569e+003,0.000000e+000
2.301533e+003,0.000000e+000
2.302497e+003,0.000000e+000
2.303461e+003,0.000000e+000
2.304426e+003,0.000000e+000
2.305390e+003,0.000000e+000
2.306354e+003,0.000000e+000
2.307318e+003,0.000000e+000
2.308282e+003,0.000000e+000
2.309247e+003,0.000000e+000
2.310211e+003,0.000000e+000
2.311175e+003,0.000000e+000
2.312139e+003,0.000000e+000
2.313104e+003,0.000000e+000
2.314068e+003,0.000000e+000
2.315032e+003,0.000000e+000
2.315996e+003,0.000000e+000
2.316960e+003,0.000000e+000
2.317925e+003,0.000000e+000
2.318889e+003,0.000000e+000
2.319853e+003,0.000000e+000
2.320817e+003,0.000000e+000
2.321782e+003,0.000000e+000
2.322746e+003,0.000000e+000
2.323710e+003,0.000000e+000
2.324674e+003,0.000000e+000
2.325639e+003,0.000000e+000
2.326603e+003,0.000000e+000
2.327567e+003,0.000000e+000
2.328531e+003,0.000000e+000
2.329496e+003,0.000000e+000
2.330460e+003,0.000000e+000
2.331424e+003,0.000000e+000
2.332388e+003,0.000000e+000
2.333353e+003,0.000000e+000
2.334317e+003,0.000000e+000
2.335281e+003,0.000000e+000
2.336245e+003,0.000000e+000
2.337209e+003,0.000000e+000
2.338174e+003,0.000000e+000
2.339138e+003,0.000000e+000
2.340102e+003,0.000000e+000
2.341066e+003,0.000000e+000
2.342031e+003,0.000000e+000
2.342995e+003,0.000000e+000
2.343959e+003,0.000000e+000
2.344923e+003,0.000000e+000
2.345887e+003,0.000000e+000
2.346852e+003,0.000000e+000
2.347816e+003,0.000000e+000
2.348780e+003,0.000000e+000
2.349744e+003,0.000000e+000
2.350709e+003,0.000000e+000
2.351673e+003,0.000000e+000
2.352637e+003,0.000000e+000
2.353601e+003,0.000000e+000
2.354566e+003,0.000000e+000
2.355530e+003,0.000000e+000
2.356494e+003,0.000000e+000
2.357458e+003,0.000000e+000
2.358423e+003,0.000000e+000
2.359387e+003,0.000000e+000
2.360351e+003,0.000000e+000
2.361315e+003,0.000000e+000
2.362280e+003,0.000000e+000
2.363244e+003,0.000000e+000
2.364208e+003,0.000000e+000
2.365172e+003,0.000000e+000
2.366136e+003,0.000000e+000
2.367101e+003,0.000000e+000
2.368065e+003,0.000000e+000
2.369029e+003,0.000000e+000
2.369993e+003,0.000000e+000
2.370958e+003,0.000000e+000
2.371922e+003,0.000000e+000
2.372886e+003,0.000000e+000
2.373850e+003,0.000000e+000
2.374814e+003,0.000000e+000
2.375779e+003,0.000000e+000
2.376743e+003,0.000000e+000
2.377707e+003,0.000000e+000
2.378671e+003,0.000000e+000
2.379636e+003,0.000000e+000
2.380600e+003,0.000000e+000
2.381564e+003,0.000000e+000
2.382528e+003,0.000000e+000
2.383493e+003,0.000000e+000
2.384457e+003,0.000000e+000
2.385421e+003,0.000000e+000
2.386385e+003,0.000000e+000
2.387350e+003,0.000000e+000
2.388314e+003,0.000000e+000
2.389278e+003,0.000000e+000
2.390242e+003,0.000000e+000
2.391207e+003,0.000000e+000
2.392171e+003,0.000000e+000
2.393135e+003,0.000000e+000
2.394099e+003,0.000000e+000
2.395063e+003,0.000000e+000
2.396028e+003,0.000000e+000
2.396992e+003,0.000000e+000
2.397956e+003,0.000000e+000
2.398920e+003,0.000000e+000
2.399885e+003,0.000000e+000
2.400849e+003,0.000000e+000
2.401813e+003,0.000000e+000
2.402777e+003,0.000000e+000
2.403741e+003,0.000000e+000
2.404706e+003,0.000000e+000
2.405670e+003,0.000000e+000
2.406634e+003,0.000000e+000
2.407598e+003,0.000000e+000
2.408563e+003,0.000000e+000
2.409527e+003,0.000000e+000
2.410491e+003,0.000000e+000
2.411455e+003,0.000000e+000
2.412420e+003,0.000000e+000
2.413384e+003,0.000000e+000
2.414348e+003,0.000000e+000
2.415312e+003,0.000000e+000
2.416277e+003,0.000000e+000
2.417241e+003,0.000000e+000
2.418205e+003,0.000000e+000
2.419169e+003,0.000000e+000
2.420134e+003,0.000000e+000
2.421098e+003,0.000000e+000
2.422062e+003,0.000000e+000
2.423026e+003,0.000000e+000
2.423990e+003,0.000000e+000
2.424955e+003,0.000000e+000
2.425919e+003,0.000000e+000
2.426883e+003,0.000000e+000
2.427847e+003,0.000000e+000
2.428812e+003,0.000000e+000
2.429776e+003,0.000000e+000
2.430740e+003,0.000000e+000
2.431704e+003,0.000000e+000
2.432668e+003,0.000000e+000
2.433633e+003,0.000000e+000
2.434597e+003,0.000000e+000
2.435561e+003,0.000000e+000
2.436525e+003,0.000000e+000
2.437490e+003,0.000000e+000
2.438454e+003,0.000000e+000
2.439418e+003,0.000000e+000
2.440382e+003,0.000000e+000
2.441347e+003,0.000000e+000
2.442311e+003,0.000000e+000
2.443275e+003,0.000000e+000
2.444239e+003,0.000000e+000
2.445204e+003,0.000000e+000
2.446168e+003,0.000000e+000
2.447132e+003,0.000000e+000
2.448096e+003,0.000000e+000
2.449061e+003,0.000000e+000
2.450025e+003,0.000000e+000
2.450989e+003,0.000000e+000
2.451953e+003,0.000000e+000
2.452917e+003,0.000000e+000
2.453882e+003,0.000000e+000
2.454846e+003,0.000000e+000
2.455810e+003,0.000000e+000
2.456774e+003,0.000000e+000
2.457739e+003,0.000000e+000
2.458703e+003,0.000000e+000
2.459667e+003,0.000000e+000
2.460631e+003,0.000000e+000
2.461595e+003,0.000000e+000
2.462560e+003,0.000000e+000
2.463524e+003,0.000000e+000
2.464488e+003,0.000000e+000
2.465452e+003,0.000000e+000
2.466417e+003,0.000000e+000
2.467381e+003,0.000000e+000
2.468345e+003,0.000000e+000
2.469309e+003,0.000000e+000
2.470274e+003,0.000000e+000
2.471238e+003,0.000000e+000
2.472202e+003,0.000000e+000
2.473166e+003,0.000000e+000
2.474131e+003,0.000000e+000
2.475095e+003,0.000000e+000
2.476059e+003,0.000000e+000
2.477023e+003,0.000000e+000
2.477988e+003,0.000000e+000
2.478952e+003,0.000000e+000
2.479916e+003,0.000000e+000
2.480880e+003,0.000000e+000
2.481844e+003,0.000000e+000
2.482809e+003,0.000000e+000
2.483773e+003,0.000000e+000
2.484737e+003,0.000000e+000
2.485701e+003,0.000000e+000
2.486666e+003,0.000000e+000
2.487630e+003,0.000000e+000
2.488594e+003,0.000000e+000
2.489558e+003,0.000000e+000
2.490522e+003,0.000000e+000
2.491487e+003,0.000000e+000
2.492451e+003,0.000000e+000
2.493415e+003,0.000000e+000
2.494379e+003,0.000000e+000
2.495344e+003,0.000000e+000
2.496308e+003,0.000000e+000
2.497272e+003,0.000000e+000
2.498236e+003,0.000000e+000
2.499201e+003,0.000000e+000
2.500165e+003,0.000000e+000
2.501129e+003,0.000000e+000
2.502093e+003,0.000000e+000
2.503058e+003,0.000000e+000
2.504022e+003,0.000000e+000
2.504986e+003,0.000000e+000
2.505950e+003,0.000000e+000
2.506915e+003,0.000000e+000
2.507879e+003,0.000000e+000
2.508843e+003,0.000000e+000
2.509807e+003,0.000000e+000
2.510771e+003,0.000000e+000
2.511736e+003,0.000000e+000
2.512700e+003,0.000000e+000
2.513664e+003,0.000000e+000
2.514628e+003,0.000000e+000
2.515593e+003,0.000000e+000
2.516557e+003,0.000000e+000
2.517521e+003,0.000000e+000
2.518485e+003,0.000000e+000
2.519449e+003,0.000000e+000
2.520414e+003,0.000000e+000
2.521378e+003,0.000000e+000
2.522342e+003,0.000000e+000
2.523306e+003,0.000000e+000
2.524271e+003,0.000000e+000
2.525235e+003,0.000000e+000
2.526199e+003,0.000000e+000
2.527163e+003,0.000000e+000
2.528128e+003,0.000000e+000
2.529092e+003,0.000000e+000
2.530056e+003,0.000000e+000
2.531020e+003,0.000000e+000
2.531985e+003,0.000000e+000
2.532949e+003,0.000000e+000
2.533913e+003,0.000000e+000
2.534877e+003,0.000000e+000
2.535842e+003,0.000000e+000
2.536806e+003,0.000000e+000
2.537770e+003,0.000000e+000
2.538734e+003,0.000000e+000
2.539698e+003,0.000000e+000
2.540663e+003,0.000000e+000
2.541627e+003,0.000000e+000
2.542591e+003,0.000000e+000
2.543555e+003,0.000000e+000
2.544520e+003,0.000000e+000
2.545484e+003,0.000000e+000
2.546448e+003,0.000000e+000
2.547412e+003,0.000000e+000
2.548376e+003,0.000000e+000
2.549341e+003,0.000000e+000
2.550305e+003,0.000000e+000
2.551269e+003,0.000000e+000
2.552233e+003,0.000000e+000
2.553198e+003,0.000000e+000
2.554162e+003,0.000000e+000
2.555126e+003,0.000000e+000
2.556090e+003,0.000000e+000
2.557055e+003,0.000000e+000
2.558019e+003,0.000000e+000
2.558983e+003,0.000000e+000
2.559947e+003,0.000000e+000
2.560912e+003,0.000000e+000
2.561876e+003,0.000000e+000
2.562840e+003,0.000000e+000
2.563804e+003,0.000000e+000
2.564769e+003,0.000000e+000
2.565733e+003,0.000000e+000
2.566697e+003,0.000000e+000
2.567661e+003,0.000000e+000
2.568625e+003,0.000000e+000
2.569590e+003,0.000000e+000
2.570554e+003,0.000000e+000
2.571518e+003,0.000000e+000
2.572482e+003,0.000000e+000
2.573447e+003,0.000000e+000
2.574411e+003,0.000000e+000
2.575375e+003,0.000000e+000
2.576339e+003,0.000000e+000
2.577303e+003,0.000000e+000
2.578268e+003,0.000000e+000
2.579232e+003,0.000000e+000
2.580196e+003,0.000000e+000
2.581160e+003,0.000000e+000
2.582125e+003,0.000000e+000
2.583089e+003,0.000000e+000
2.584053e+003,0.000000e+000
2.585017e+003,0.000000e+000
2.585982e+003,0.000000e+000
2.586946e+003,0.000000e+000
2.587910e+003,0.000000e+000
2.588874e+003,0.000000e+000
2.589839e+003,0.000000e+000
2.590803e+003,0.000000e+000
2.591767e+003,0.000000e+000
2.592731e+003,0.000000e+000
2.593696e+003,0.000000e+000
2.594660e+003,0.000000e+000
2.595624e+003,0.000000e+000
2.596588e+003,0.000000e+000
2.597552e+003,0.000000e+000
2.598517e+003,0.000000e+000
2.599481e+003,0.000000e+000
2.600445e+003,0.000000e+000
2.601409e+003,0.000000e+000
2.602374e+003,0.000000e+000
2.603338e+003,0.000000e+000
2.604302e+003,0.000000e+000
2.605266e+003,0.000000e+000
2.606230e+003,0.000000e+000
2.607195e+003,0.000000e+000
2.608159e+003,0.000000e+000
2.609123e+003,0.000000e+000
2.610087e+003,0.000000e+000
2.611052e+003,0.000000e+000
2.612016e+003,0.000000e+000
2.612980e+003,0.000000e+000
2.613944e+003,0.000000e+000
2.614909e+003,0.000000e+000
2.615873e+003,0.000000e+000
2.616837e+003,0.000000e+000
2.617801e+003,0.000000e+000
2.618766e+003,0.000000e+000
2.619730e+003,0.000000e+000
2.620694e+003,0.000000e+000
2.621658e+003,0.000000e+000
2.622623e+003,0.000000e+000
2.623587e+003,0.000000e+000
2.624551e+003,0.000000e+000
2.625515e+003,0.000000e+000
2.626479e+003,0.000000e+000
2.627444e+003,0.000000e+000
2.628408e+003,0.000000e+000
2.629372e+003,0.000000e+000
2.630336e+003,0.000000e+000
2.631301e+003,0.000000e+000
2.632265e+003,0.000000e+000
2.633229e+003,0.000000e+000
2.634193e+003,0.000000e+000
2.635157e+003,0.000000e+000
2.636122e+003,0.000000e+000
2.637086e+003,0.000000e+000
2.638050e+003,0.000000e+000
2.639014e+003,0.000000e+000
2.639979e+003,0.000000e+000
2.640943e+003,0.000000e+000
2.641907e+003,0.000000e+000
2.642871e+003,0.000000e+000
2.643836e+003,0.000000e+000
2.644800e+003,0.000000e+000
2.645764e+003,0.000000e+000
2.646728e+003,0.000000e+000
2.647693e+003,0.000000e+000
2.648657e+003,0.000000e+000
2.649621e+003,0.000000e+000
2.650585e+003,0.000000e+000
2.651550e+003,0.000000e+000
2.652514e+003,0.000000e+000
2.653478e+003,0.000000e+000
2.654442e+003,0.000000e+000
2.655406e+003,0.000000e+000
2.656371e+003,0.000000e+000
2.657335e+003,0.000000e+000
2.658299e+003,0.000000e+000
2.659263e+003,0.000000e+000
2.660228e+003,0.000000e+000
2.661192e+003,0.000000e+000
2.662156e+003,0.000000e+000
2.663120e+003,0.000000e+000
2.664084e+003,0.000000e+000
2.665049e+003,0.000000e+000
2.666013e+003,0.000000e+000
2.666977e+003,0.000000e+000
2.667941e+003,0.000000e+000
2.668906e+003,0.000000e+000
2.669870e+003,0.000000e+000
2.670834e+003,0.000000e+000
2.671798e+003,0.000000e+000
2.672763e+003,0.000000e+000
2.673727e+003,0.000000e+000
2.674691e+003,0.000000e+000
2.675655e+003,0.000000e+000
2.676620e+003,0.000000e+000
2.677584e+003,0.000000e+000
2.678548e+003,0.000000e+000
2.679512e+003,0.000000e+000
2.680477e+003,0.000000e+000
2.681441e+003,0.000000e+000
2.682405e+003,0.000000e+000
2.683369e+003,0.000000e+000
2.684333e+003,0.000000e+000
2.685298e+003,0.000000e+000
2.686262e+003,0.000000e+000
2.687226e+003,0.000000e+000
2.688190e+003,0.000000e+000
2.689155e+003,0.000000e+000
2.690119e+003,0.000000e+000
2.691083e+003,0.000000e+000
2.692047e+003,0.000000e+000
2.693011e+003,0.000000e+000
2.693976e+003,0.000000e+000
2.694940e+003,0.000000e+000
2.695904e+003,0.000000e+000
2.696868e+003,0.000000e+000
2.697833e+003,0.000000e+000
2.698797e+003,0.000000e+000
2.699761e+003,0.000000e+000
2.700725e+003,0.000000e+000
2.701690e+003,0.000000e+000
2.702654e+003,0.000000e+000
2.703618e+003,0.000000e+000
2.704582e+003,0.000000e+000
2.705547e+003,0.000000e+000
2.706511e+003,0.000000e+000
2.707475e+003,0.000000e+000
2.708439e+003,0.000000e+000
2.709404e+003,0.000000e+000
2.710368e+003,0.000000e+000
2.711332e+003,0.000000e+000
2.712296e+003,0.000000e+000
2.713260e+003,0.000000e+000
2.714225e+003,0.000000e+000
2.715189e+003,0.000000e+000
2.716153e+003,0.000000e+000
2.717117e+003,0.000000e+000
2.718082e+003,0.000000e+000
2.719046e+003,0.000000e+000
2.720010e+003,0.000000e+000
2.720974e+003,0.000000e+000
2.721938e+003,0.000000e+000
2.722903e+003,0.000000e+000
2.723867e+003,0.000000e+000
2.724831e+003,0.000000e+000
2.725795e+003,0.000000e+000
2.726760e+003,0.000000e+000
2.727724e+003,0.000000e+000
2.728688e+003,0.000000e+000
2.729652e+003,0.000000e+000
2.730617e+003,0.000000e+000
2.731581e+003,0.000000e+000
2.732545e+003,0.000000e+000
2.733509e+003,0.000000e+000
2.734474e+003,0.000000e+000
2.735438e+003,0.000000e+000
2.736402e+003,0.000000e+000
2.737366e+003,0.000000e+000
2.738331e+003,0.000000e+000
2.739295e+003,0.000000e+000
2.740259e+003,0.000000e+000
2.741223e+003,0.000000e+000
2.742188e+003,0.000000e+000
2.743152e+003,0.000000e+000
2.744116e+003,0.000000e+000
2.745080e+003,0.000000e+000
2.746044e+003,0.000000e+000
2.747009e+003,0.000000e+000
2.747973e+003,0.000000e+000
2.748937e+003,0.000000e+000
2.749901e+003,0.000000e+000
2.750865e+003,0.000000e+000
2.751830e+003,0.000000e+000
2.752794e+003,0.000000e+000
2.753758e+003,0.000000e+000
2.754722e+003,0.000000e+000
2.755687e+003,0.000000e+000
2.756651e+003,0.000000e+000
2.757615e+003,0.000000e+000
2.758579e+003,0.000000e+000
2.759544e+003,0.000000e+000
2.760508e+003,0.000000e+000
2.761472e+003,0.000000e+000
2.762436e+003,0.000000e+000
2.763401e+003,0.000000e+000
2.764365e+003,0.000000e+000
2.765329e+003,0.000000e+000
2.766293e+003,0.000000e+000
2.767258e+003,0.000000e+000
2.768222e+003,0.000000e+000
2.769186e+003,0.000000e+000
2.770150e+003,0.000000e+000
2.771115e+003,0.000000e+000
2.772079e+003,0.000000e+000
2.773043e+003,0.000000e+000
2.774007e+003,0.000000e+000
2.774971e+003,0.000000e+000
2.775936e+003,0.000000e+000
2.776900e+003,0.000000e+000
2.777864e+003,0.000000e+000
2.778828e+003,0.000000e+000
2.779792e+003,0.000000e+000
2.780757e+003,0.000000e+000
2.781721e+003,0.000000e+000
2.782685e+003,0.000000e+000
2.783649e+003,0.000000e+000
2.784614e+003,0.000000e+000
2.785578e+003,0.000000e+000
2.786542e+003,0.000000e+000
2.787506e+003,0.000000e+000
2.788471e+003,0.000000e+000
2.789435e+003,0.000000e+000
2.790399e+003,0.000000e+000
2.791363e+003,0.000000e+000
2.792328e+003,0.000000e+000
2.793292e+003,0.000000e+000
2.794256e+003,0.000000e+000
2.795220e+003,0.000000e+000
2.796185e+003,0.000000e+000
2.797149e+003,0.000000e+000
2.798113e+003,0.000000e+000
2.799077e+003,0.000000e+000
2.800042e+003,0.000000e+000
2.801006e+003,0.000000e+000
2.801970e+003,0.000000e+000
2.802934e+003,0.000000e+000
2.803898e+003,0.000000e+000
2.804863e+003,0.000000e+000
2.805827e+003,0.000000e+000
2.806791e+003,0.000000e+000
2.807755e+003,0.000000e+000
2.808719e+003,0.000000e+000
2.809684e+003,0.000000e+000
2.810648e+003,0.000000e+000
2.811612e+003,0.000000e+000
2.812576e+003,0.000000e+000
2.813541e+003,0.000000e+000
2.814505e+003,0.000000e+000
2.815469e+003,0.000000e+000
2.816433e+003,0.000000e+000
2.817398e+003,0.000000e+000
2.818362e+003,0.000000e+000
2.819326e+003,0.000000e+000
2.820290e+003,0.000000e+000
2.821255e+003,0.000000e+000
2.822219e+003,0.000000e+000
2.823183e+003,0.000000e+000
2.824147e+003,0.000000e+000
2.825112e+003,0.000000e+000
2.826076e+003,0.000000e+000
2.827040e+003,0.000000e+000
2.828004e+003,0.000000e+000
2.828969e+003,0.000000e+000
2.829933e+003,0.000000e+000
2.830897e+003,0.000000e+000
2.831861e+003,0.000000e+000
2.832825e+003,0.000000e+000
2.833790e+003,0.000000e+000
2.834754e+003,0.000000e+000
2.835718e+003,0.000000e+000
2.836682e+003,0.000000e+000
2.837646e+003,0.000000e+000
2.838611e+003,0.000000e+000
2.839575e+003,0.000000e+000
2.840539e+003,0.000000e+000
2.841503e+003,0.000000e+000
2.842468e+003,0.000000e+000
2.843432e+003,0.000000e+000
2.844396e+003,0.000000e+000
2.845360e+003,0.000000e+000
2.846325e+003,0.000000e+000
2.847289e+003,0.000000e+000
2.848253e+003,0.000000e+000
2.849217e+003,0.000000e+000
2.850182e+003,0.000000e+000
2.851146e+003,0.000000e+000
2.852110e+003,0.000000e+000
2.853074e+003,0.000000e+000
2.854039e+003,0.000000e+000
2.855003e+003,0.000000e+000
2.855967e+003,0.000000e+000
2.856931e+003,0.000000e+000
2.857896e+003,0.000000e+000
2.858860e+003,0.000000e+000
2.859824e+003,0.000000e+000
2.860788e+003,0.000000e+000
2.861752e+003,0.000000e+000
2.862717e+003,0.000000e+000
2.863681e+003,0.000000e+000
2.864645e+003,0.000000e+000
2.865609e+003,0.000000e+000
2.866573e+003,0.000000e+000
2.867538e+003,0.000000e+000
2.868502e+003,0.000000e+000
2.869466e+003,0.000000e+000
2.870430e+003,0.000000e+000
2.871395e+003,0.000000e+000
2.872359e+003,0.000000e+000
2.873323e+003,0.000000e+000
2.874287e+003,0.000000e+000
2.875252e+003,0.000000e+000
2.876216e+003,0.000000e+000
2.877180e+003,0.000000e+000
2.878144e+003,0.000000e+000
2.879109e+003,0.000000e+000
2.880073e+003,0.000000e+000
2.881037e+003,0.000000e+000
2.882001e+003,0.000000e+000
2.882966e+003,0.000000e+000
2.883930e+003,0.000000e+000
2.884894e+003,0.000000e+000
2.885858e+003,0.000000e+000
2.886823e+003,0.000000e+000
2.887787e+003,0.000000e+000
2.888751e+003,0.000000e+000
2.889715e+003,0.000000e+000
2.890679e+003,0.000000e+000
2.891644e+003,0.000000e+000
2.892608e+003,0.000000e+000
2.893572e+003,0.000000e+000
2.894536e+003,0.000000e+000
2.895500e+003,0.000000e+000
2.896465e+003,0.000000e+000
2.897429e+003,0.000000e+000
2.898393e+003,0.000000e+000
2.899357e+003,0.000000e+000
2.900322e+003,0.000000e+000
2.901286e+003,0.000000e+000
2.902250e+003,0.000000e+000
2.903214e+003,0.000000e+000
2.904179e+003,0.000000e+000
2.905143e+003,0.000000e+000
2.906107e+003,0.000000e+000
2.907071e+003,0.000000e+000
2.908036e+003,0.000000e+000
2.909000e+003,0.000000e+000
2.909964e+003,0.000000e+000
2.910928e+003,0.000000e+000
2.911893e+003,0.000000e+000
2.912857e+003,0.000000e+000
2.913821e+003,0.000000e+000
2.914785e+003,0.000000e+000
2.915750e+003,0.000000e+000
2.916714e+003,0.000000e+000
2.917678e+003,0.000000e+000
2.918642e+003,0.000000e+000
2.919606e+003,0.000000e+000
2.920571e+003,0.000000e+000
2.921535e+003,0.000000e+000
2.922499e+003,0.000000e+000
2.923463e+003,0.000000e+000
2.924427e+003,0.000000e+000
2.925392e+003,0.000000e+000
2.926356e+003,0.000000e+000
2.927320e+003,0.000000e+000
2.928284e+003,0.000000e+000
2.929249e+003,0.000000e+000
2.930213e+003,0.000000e+000
2.931177e+003,0.000000e+000
2.932141e+003,0.000000e+000
2.933106e+003,0.000000e+000
2.934070e+003,0.000000e+000
2.935034e+003,0.000000e+000
2.935998e+003,0.000000e+000
2.936963e+003,0.000000e+000
2.937927e+003,0.000000e+000
2.938891e+003,0.000000e+000
2.939855e+003,0.000000e+000
2.940820e+003,0.000000e+000
2.941784e+003,0.000000e+000
2.942748e+003,0.000000e+000
2.943712e+003,0.000000e+000
2.944677e+003,0.000000e+000
2.945641e+003,0.000000e+000
2.946605e+003,0.000000e+000
2.947569e+003,0.000000e+000
2.948533e+003,0.000000e+000
2.949498e+003,0.000000e+000
2.950462e+003,0.000000e+000
2.951426e+003,0.000000e+000
2.952390e+003,0.000000e+000
2.953354e+003,0.000000e+000
2.954319e+003,0.000000e+000
2.955283e+003,0.000000e+000
2.956247e+003,0.000000e+000
2.957211e+003,0.000000e+000
2.958176e+003,0.000000e+000
2.959140e+003,0.000000e+000
2.960104e+003,0.000000e+000
2.961068e+003,0.000000e+000
2.962033e+003,0.000000e+000
2.962997e+003,0.000000e+000
2.963961e+003,0.000000e+000
2.964925e+003,0.000000e+000
2.965890e+003,0.000000e+000
2.966854e+003,0.000000e+000
2.967818e+003,0.000000e+000
2.968782e+003,0.000000e+000
2.969747e+003,0.000000e+000
2.970711e+003,0.000000e+000
2.971675e+003,0.000000e+000
2.972639e+003,0.000000e+000
2.973604e+003,0.000000e+000
2.974568e+003,0.000000e+000
2.975532e+003,0.000000e+000
2.976496e+003,0.000000e+000
2.977460e+003,0.000000e+000
2.978425e+003,0.000000e+000
2.979389e+003,0.000000e+000
2.980353e+003,0.000000e+000
2.981317e+003,0.000000e+000
2.982281e+003,0.000000e+000
2.983246e+003,0.000000e+000
2.984210e+003,0.000000e+000
2.985174e+003,0.000000e+000
2.986138e+003,0.000000e+000
2.987103e+003,0.000000e+000
2.988067e+003,0.000000e+000
2.989031e+003,0.000000e+000
2.989995e+003,0.000000e+000
2.990960e+003,0.000000e+000
2.991924e+003,0.000000e+000
2.992888e+003,0.000000e+000
2.993852e+003,0.000000e+000
2.994817e+003,0.000000e+000
2.995781e+003,0.000000e+000
2.996745e+003,0.000000e+000
2.997709e+003,0.000000e+000
2.998674e+003,0.000000e+000
2.999638e+003,0.000000e+000
3.000602e+003,0.000000e+000
3.001566e+003,0.000000e+000
3.002531e+003,0.000000e+000
3.003495e+003,0.000000e+000
3.004459e+003,0.000000e+000
3.005423e+003,0.000000e+000
3.006387e+003,0.000000e+000
3.007352e+003,0.000000e+000
3.008316e+003,0.000000e+000
3.009280e+003,0.000000e+000
3.010244e+003,0.000000e+000
3.011208e+003,0.000000e+000
3.012173e+003,0.000000e+000
3.013137e+003,0.000000e+000
3.014101e+003,0.000000e+000
3.015065e+003,0.000000e+000
3.016030e+003,0.000000e+000
3.016994e+003,0.000000e+000
3.017958e+003,0.000000e+000
3.018922e+003,0.000000e+000
3.019887e+003,0.000000e+000
3.020851e+003,0.000000e+000
3.021815e+003,0.000000e+000
3.022779e+003,0.000000e+000
3.023744e+003,0.000000e+000
3.024708e+003,0.000000e+000
3.025672e+003,0.000000e+000
3.026636e+003,0.000000e+000
3.027601e+003,0.000000e+000
3.028565e+003,0.000000e+000
3.029529e+003,0.000000e+000
3.030493e+003,0.000000e+000
3.031458e+003,0.000000e+000
3.032422e+003,0.000000e+000
3.033386e+003,0.000000e+000
3.034350e+003,0.000000e+000
3.035314e+003,0.000000e+000
3.036279e+003,0.000000e+000
3.037243e+003,0.000000e+000
3.038207e+003,0.000000e+000
3.039171e+003,0.000000e+000
3.040135e+003,0.000000e+000
3.041100e+003,0.000000e+000
3.042064e+003,0.000000e+000
3.043028e+003,0.000000e+000
3.043992e+003,0.000000e+000
3.044957e+003,0.000000e+000
3.045921e+003,0.000000e+000
3.046885e+003,0.000000e+000
3.047849e+003,0.000000e+000
3.048814e+003,0.000000e+000
3.049778e+003,0.000000e+000
3.050742e+003,0.000000e+000
3.051706e+003,0.000000e+000
3.052671e+003,0.000000e+000
3.053635e+003,0.000000e+000
3.054599e+003,0.000000e+000
3.055563e+003,0.000000e+000
3.056528e+003,0.000000e+000
3.057492e+003,0.000000e+000
3.058456e+003,0.000000e+000
3.059420e+003,0.000000e+000
3.060385e+003,0.000000e+000
3.061349e+003,0.000000e+000
3.062313e+003,0.000000e+000
3.063277e+003,0.000000e+000
3.064241e+003,0.000000e+000
3.065206e+003,0.000000e+000
3.066170e+003,0.000000e+000
3.067134e+003,0.000000e+000
3.068098e+003,0.000000e+000
3.069063e+003,0.000000e+000
3.070027e+003,0.000000e+000
3.070991e+003,0.000000e+000
3.071955e+003,0.000000e+000
3.072920e+003,0.000000e+000
3.073884e+003,0.000000e+000
3.074848e+003,0.000000e+000
3.075812e+003,0.000000e+000
3.076777e+003,0.000000e+000
3.077741e+003,0.000000e+000
3.078705e+003,0.000000e+000
3.079669e+003,0.000000e+000
3.080634e+003,0.000000e+000
3.081598e+003,0.000000e+000
3.082562e+003,0.000000e+000
3.083526e+003,0.000000e+000
3.084490e+003,0.000000e+000
3.085455e+003,0.000000e+000
3.086419e+003,0.000000e+000
3.087383e+003,0.000000e+000
3.088347e+003,0.000000e+000
3.089312e+003,0.000000e+000
3.090276e+003,0.000000e+000
3.091240e+003,0.000000e+000
3.092204e+003,0.000000e+000
3.093168e+003,0.000000e+000
3.094133e+003,0.000000e+000
3.095097e+003,0.000000e+000
3.096061e+003,0.000000e+000
3.097025e+003,0.000000e+000
3.097990e+003,0.000000e+000
3.098954e+003,0.000000e+000
3.099918e+003,0.000000e+000
3.100882e+003,0.000000e+000
3.101847e+003,0.000000e+000
3.102811e+003,0.000000e+000
3.103775e+003,0.000000e+000
3.104739e+003,0.000000e+000
3.105704e+003,0.000000e+000
3.106668e+003,0.000000e+000
3.107632e+003,0.000000e+000
3.108596e+003,0.000000e+000
3.109561e+003,0.000000e+000
3.110525e+003,0.000000e+000
3.111489e+003,0.000000e+000
3.112453e+003,0.000000e+000
3.113417e+003,0.000000e+000
3.114382e+003,0.000000e+000
3.115346e+003,0.000000e+000
3.116310e+003,0.000000e+000
3.117274e+003,0.000000e+000
3.118239e+003,0.000000e+000
3.119203e+003,0.000000e+000
3.120167e+003,0.000000e+000
3.121131e+003,0.000000e+000
3.122095e+003,0.000000e+000
3.123060e+003,0.000000e+000
3.124024e+003,0.000000e+000
3.124988e+003,0.000000e+000
3.125952e+003,0.000000e+000
3.126917e+003,0.000000e+000
3.127881e+003,0.000000e+000
3.128845e+003,0.000000e+000
3.129809e+003,0.000000e+000
3.130774e+003,0.000000e+000
3.131738e+003,0.000000e+000
3.132702e+003,0.000000e+000
3.133666e+003,0.000000e+000
3.134631e+003,0.000000e+000
3.135595e+003,0.000000e+000
3.136559e+003,0.000000e+000
3.137523e+003,0.000000e+000
3.138488e+003,0.000000e+000
3.139452e+003,0.000000e+000
3.140416e+003,0.000000e+000
3.141380e+003,0.000000e+000
3.142344e+003,0.000000e+000
3.143309e+003,0.000000e+000
3.144273e+003,0.000000e+000
3.145237e+003,0.000000e+000
3.146201e+003,0.000000e+000
3.147166e+003,0.000000e+000
3.148130e+003,0.000000e+000
3.149094e+003,0.000000e+000
3.150058e+003,0.000000e+000
3.151022e+003,0.000000e+000
3.151987e+003,0.000000e+000
3.152951e+003,0.000000e+000
3.153915e+003,0.000000e+000
3.154879e+003,0.000000e+000
3.155844e+003,0.000000e+000
3.156808e+003,0.000000e+000
3.157772e+003,0.000000e+000
3.158736e+003,0.000000e+000
3.159701e+003,0.000000e+000
3.160665e+003,0.000000e+000
3.161629e+003,0.000000e+000
3.162593e+003,0.000000e+000
3.163558e+003,0.000000e+000
3.164522e+003,0.000000e+000
3.165486e+003,0.000000e+000
3.166450e+003,0.000000e+000
3.167415e+003,0.000000e+000
3.168379e+003,0.000000e+000
3.169343e+003,0.000000e+000
3.170307e+003,0.000000e+000
3.171271e+003,0.000000e+000
3.172236e+003,0.000000e+000
3.173200e+003,0.000000e+000
3.174164e+003,0.000000e+000
3.175128e+003,0.000000e+000
3.176093e+003,0.000000e+000
3.177057e+003,0.000000e+000
3.178021e+003,0.000000e+000
3.178985e+003,0.000000e+000
3.179949e+003,0.000000e+000
3.180914e+003,0.000000e+000
3.181878e+003,0.000000e+000
3.182842e+003,0.000000e+000
3.183806e+003,0.000000e+000
3.184771e+003,0.000000e+000
3.185735e+003,0.000000e+000
3.186699e+003,0.000000e+000
3.187663e+003,0.000000e+000
3.188628e+003,0.000000e+000
3.189592e+003,0.000000e+000
3.190556e+003,0.000000e+000
3.191520e+003,0.000000e+000
3.192485e+003,0.000000e+000
3.193449e+003,0.000000e+000
3.194413e+003,0.000000e+000
3.195377e+003,0.000000e+000
3.196342e+003,0.000000e+000
3.197306e+003,0.000000e+000
3.198270e+003,0.000000e+000
3.199234e+003,0.000000e+000
3.200198e+003,0.000000e+000
3.201163e+003,0.000000e+000
3.202127e+003,0.000000e+000
3.203091e+003,0.000000e+000
3.204055e+003,0.000000e+000
3.205020e+003,0.000000e+000
3.205984e+003,0.000000e+000
3.206948e+003,0.000000e+000
3.207912e+003,0.000000e+000
3.208876e+003,0.000000e+000
3.209841e+003,0.000000e+000
3.210805e+003,0.000000e+000
3.211769e+003,0.000000e+000
3.212733e+003,0.000000e+000
3.213698e+003,0.000000e+000
3.214662e+003,0.000000e+000
3.215626e+003,0.000000e+000
3.216590e+003,0.000000e+000
3.217555e+003,0.000000e+000
3.218519e+003,0.000000e+000
3.219483e+003,0.000000e+000
3.220447e+003,0.000000e+000
3.221412e+003,0.000000e+000
3.222376e+003,0.000000e+000
3.223340e+003,0.000000e+000
3.224304e+003,0.000000e+000
3.225269e+003,0.000000e+000
3.226233e+003,0.000000e+000
3.227197e+003,0.000000e+000
3.228161e+003,0.000000e+000
3.229125e+003,0.000000e+000
3.230090e+003,0.000000e+000
3.231054e+003,0.000000e+000
3.232018e+003,0.000000e+000
3.232982e+003,0.000000e+000
3.233947e+003,0.000000e+000
3.234911e+003,0.000000e+000
3.235875e+003,0.000000e+000
3.236839e+003,0.000000e+000
3.237803e+003,0.000000e+000
3.238768e+003,0.000000e+000
3.239732e+003,0.000000e+000
3.240696e+003,0.000000e+000
3.241660e+003,0.000000e+000
3.242625e+003,0.000000e+000
3.243589e+003,0.000000e+000
3.244553e+003,0.000000e+000
3.245517e+003,0.000000e+000
3.246482e+003,0.000000e+000
3.247446e+003,0.000000e+000
3.248410e+003,0.000000e+000
3.249374e+003,0.000000e+000
3.250339e+003,0.000000e+000
3.251303e+003,0.000000e+000
3.252267e+003,0.000000e+000
3.253231e+003,0.000000e+000
3.254196e+003,0.000000e+000
3.255160e+003,0.000000e+000
3.256124e+003,0.000000e+000
3.257088e+003,0.000000e+000
3.258052e+003,0.000000e+000
3.259017e+003,0.000000e+000
3.259981e+003,0.000000e+000
3.260945e+003,0.000000e+000
3.261909e+003,0.000000e+000
3.262874e+003,0.000000e+000
3.263838e+003,0.000000e+000
3.264802e+003,0.000000e+000
3.265766e+003,0.000000e+000
3.266730e+003,0.000000e+000
3.267695e+003,0.000000e+000
3.268659e+003,0.000000e+000
3.269623e+003,0.000000e+000
3.270587e+003,0.000000e+000
3.271552e+003,0.000000e+000
3.272516e+003,0.000000e+000
3.273480e+003,0.000000e+000
3.274444e+003,0.000000e+000
3.275409e+003,0.000000e+000
3.276373e+003,0.000000e+000
3.277337e+003,0.000000e+000
3.278301e+003,0.000000e+000
3.279266e+003,0.000000e+000
3.280230e+003,0.000000e+000
3.281194e+003,0.000000e+000
3.282158e+003,0.000000e+000
3.283123e+003,0.000000e+000
3.284087e+003,0.000000e+000
3.285051e+003,0.000000e+000
3.286015e+003,0.000000e+000
3.286979e+003,0.000000e+000
3.287944e+003,0.000000e+000
3.288908e+003,0.000000e+000
3.289872e+003,0.000000e+000
3.290836e+003,0.000000e+000
3.291801e+003,0.000000e+000
3.292765e+003,0.000000e+000
3.293729e+003,0.000000e+000
3.294693e+003,0.000000e+000
3.295657e+003,0.000000e+000
3.296622e+003,0.000000e+000
3.297586e+003,0.000000e+000
3.298550e+003,0.000000e+000
3.299514e+003,0.000000e+000
3.300479e+003,0.000000e+000
3.301443e+003,0.000000e+000
3.302407e+003,0.000000e+000
3.303371e+003,0.000000e+000
3.304336e+003,0.000000e+000
3.305300e+003,0.000000e+000
3.306264e+003,0.000000e+000
3.307228e+003,0.000000e+000
3.308193e+003,0.000000e+000
3.309157e+003,0.000000e+000
3.310121e+003,0.000000e+000
3.311085e+003,0.000000e+000
3.312050e+003,0.000000e+000
3.313014e+003,0.000000e+000
3.313978e+003,0.000000e+000
3.314942e+003,0.000000e+000
3.315906e+003,0.000000e+000
3.316871e+003,0.000000e+000
3.317835e+003,0.000000e+000
3.318799e+003,0.000000e+000
3.319763e+003,0.000000e+000
3.320728e+003,0.000000e+000
3.321692e+003,0.000000e+000
3.322656e+003,0.000000e+000
3.323620e+003,0.000000e+000
3.324584e+003,0.000000e+000
3.325549e+003,0.000000e+000
3.326513e+003,0.000000e+000
3.327477e+003,0.000000e+000
3.328441e+003,0.000000e+000
3.329406e+003,0.000000e+000
3.330370e+003,0.000000e+000
3.331334e+003,0.000000e+000
3.332298e+003,0.000000e+000
3.333263e+003,0.000000e+000
3.334227e+003,0.000000e+000
3.335191e+003,0.000000e+000
3.336155e+003,0.000000e+000
3.337120e+003,0.000000e+000
3.338084e+003,0.000000e+000
3.339048e+003,0.000000e+000
3.340012e+003,0.000000e+000
3.340977e+003,0.000000e+000
3.341941e+003,0.000000e+000
3.342905e+003,0.000000e+000
3.343869e+003,0.000000e+000
3.344833e+003,0.000000e+000
3.345798e+003,0.000000e+000
3.346762e+003,0.000000e+000
3.347726e+003,0.000000e+000
3.348690e+003,0.000000e+000
3.349655e+003,0.000000e+000
3.350619e+003,0.000000e+000
3.351583e+003,0.000000e+000
3.352547e+003,0.000000e+000
3.353511e+003,0.000000e+000
3.354476e+003,0.000000e+000
3.355440e+003,0.000000e+000
3.356404e+003,0.000000e+000
3.357368e+003,0.000000e+000
3.358333e+003,0.000000e+000
3.359297e+003,0.000000e+000
3.360261e+003,0.000000e+000
3.361225e+003,0.000000e+000
3.362190e+003,0.000000e+000
3.363154e+003,0.000000e+000
3.364118e+003,0.000000e+000
3.365082e+003,0.000000e+000
3.366047e+003,0.000000e+000
3.367011e+003,0.000000e+000
3.367975e+003,0.000000e+000
3.368939e+003,0.000000e+000
3.369904e+003,0.000000e+000
3.370868e+003,0.000000e+000
3.371832e+003,0.000000e+000
3.372796e+003,0.000000e+000
3.373760e+003,0.000000e+000
3.374725e+003,0.000000e+000
3.375689e+003,0.000000e+000
3.376653e+003,0.000000e+000
3.377617e+003,0.000000e+000
3.378582e+003,0.000000e+000
3.379546e+003,0.000000e+000
3.380510e+003,0.000000e+000
3.381474e+003,0.000000e+000
3.382438e+003,0.000000e+000
3.383403e+003,0.000000e+000
3.384367e+003,0.000000e+000
3.385331e+003,0.000000e+000
3.386295e+003,0.000000e+000
3.387260e+003,0.000000e+000
3.388224e+003,0.000000e+000
3.389188e+003,0.000000e+000
3.390152e+003,0.000000e+000
3.391117e+003,0.000000e+000
3.392081e+003,0.000000e+000
3.393045e+003,0.000000e+000
3.394009e+003,0.000000e+000
3.394974e+003,0.000000e+000
3.395938e+003,0.000000e+000
3.396902e+003,0.000000e+000
3.397866e+003,0.000000e+000
3.398831e+003,0.000000e+000
3.399795e+003,0.000000e+000
3.400759e+003,0.000000e+000
3.401723e+003,0.000000e+000
3.402688e+003,0.000000e+000
3.403652e+003,0.000000e+000
3.404616e+003,0.000000e+000
3.405580e+003,0.000000e+000
3.406544e+003,0.000000e+000
3.407509e+003,0.000000e+000
3.408473e+003,0.000000e+000
3.409437e+003,0.000000e+000
3.410401e+003,0.000000e+000
3.411365e+003,0.000000e+000
3.412330e+003,0.000000e+000
3.413294e+003,0.000000e+000
3.414258e+003,0.000000e+000
3.415222e+003,0.000000e+000
3.416187e+003,0.000000e+000
3.417151e+003,0.000000e+000
3.418115e+003,0.000000e+000
3.419079e+003,0.000000e+000
3.420044e+003,0.000000e+000
3.421008e+003,0.000000e+000
3.421972e+003,0.000000e+000
3.422936e+003,0.000000e+000
3.423901e+003,0.000000e+000
3.424865e+003,0.000000e+000
3.425829e+003,0.000000e+000
3.426793e+003,0.000000e+000
3.427758e+003,0.000000e+000
3.428722e+003,0.000000e+000
3.429686e+003,0.000000e+000
3.430650e+003,0.000000e+000
3.431615e+003,0.000000e+000
3.432579e+003,0.000000e+000
3.433543e+003,0.000000e+000
3.434507e+003,0.000000e+000
3.435471e+003,0.000000e+000
3.436436e+003,0.000000e+000
3.437400e+003,0.000000e+000
3.438364e+003,0.000000e+000
3.439328e+003,0.000000e+000
3.440292e+003,0.000000e+000
3.441257e+003,0.000000e+000
3.442221e+003,0.000000e+000
3.443185e+003,0.000000e+000
3.444149e+003,0.000000e+000
3.445114e+003,0.000000e+000
3.446078e+003,0.000000e+000
3.447042e+003,0.000000e+000
3.448006e+003,0.000000e+000
3.448971e+003,0.000000e+000
3.449935e+003,0.000000e+000
3.450899e+003,0.000000e+000
3.451863e+003,0.000000e+000
3.452828e+003,0.000000e+000
3.453792e+003,0.000000e+000
3.454756e+003,0.000000e+000
3.455720e+003,0.000000e+000
3.456685e+003,0.000000e+000
3.457649e+003,0.000000e+000
3.458613e+003,0.000000e+000
3.459577e+003,0.000000e+000
3.460542e+003,0.000000e+000
3.461506e+003,0.000000e+000
3.462470e+003,0.000000e+000
3.463434e+003,0.000000e+000
3.464398e+003,0.000000e+000
3.465363e+003,0.000000e+000
3.466327e+003,0.000000e+000
3.467291e+003,0.000000e+000
3.468255e+003,0.000000e+000
3.469219e+003,0.000000e+000
3.470184e+003,0.000000e+000
3.471148e+003,0.000000e+000
3.472112e+003,0.000000e+000
3.473076e+003,0.000000e+000
3.474041e+003,0.000000e+000
3.475005e+003,0.000000e+000
3.475969e+003,0.000000e+000
3.476933e+003,0.000000e+000
3.477898e+003,0.000000e+000
3.478862e+003,0.000000e+000
3.479826e+003,0.000000e+000
3.480790e+003,0.000000e+000
3.481755e+003,0.000000e+000
3.482719e+003,0.000000e+000
3.483683e+003,0.000000e+000
3.484647e+003,0.000000e+000
3.485612e+003,0.000000e+000
3.486576e+003,0.000000e+000
3.487540e+003,0.000000e+000
3.488504e+003,0.000000e+000
3.489469e+003,0.000000e+000
3.490433e+003,0.000000e+000
3.491397e+003,0.000000e+000
3.492361e+003,0.000000e+000
3.493325e+003,0.000000e+000
3.494290e+003,0.000000e+000
3.495254e+003,0.000000e+000
3.496218e+003,0.000000e+000
3.497182e+003,0.000000e+000
3.498146e+003,0.000000e+000
3.499111e+003,0.000000e+000
3.500075e+003,0.000000e+000
