5.003444e+002,8.052569e+001
5.013087e+002,8.138011e+001
5.022729e+002,8.100830e+001
5.032371e+002,7.981202e+001
5.042014e+002,7.888741e+001
5.051656e+002,7.823312e+001
5.061298e+002,7.780137e+001
5.070941e+002,7.756154e+001
5.080583e+002,7.755089e+001
5.090225e+002,7.713287e+001
5.099868e+002,7.564296e+001
5.109510e+002,7.453265e+001
5.119152e+002,7.495798e+001
5.128795e+002,7.710487e+001
5.138437e+002,7.836223e+001
5.148079e+002,7.711199e+001
5.157722e+002,7.552831e+001
5.167364e+002,7.454758e+001
5.177006e+002,7.417656e+001
5.186649e+002,7.352662e+001
5.196291e+002,7.083537e+001
5.205933e+002,6.798833e+001
5.215576e+002,6.738204e+001
5.225218e+002,6.896330e+001
5.234860e+002,7.123218e+001
5.244503e+002,7.159791e+001
5.254145e+002,6.947231e+001
5.263787e+002,6.771002e+001
5.273430e+002,6.595963e+001
5.283072e+002,6.478379e+001
5.292714e+002,6.526276e+001
5.302357e+002,6.882111e+001
5.311999e+002,7.049416e+001
5.321641e+002,6.905731e+001
5.331284e+002,6.664626e+001
5.340926e+002,6.458468e+001
5.350568e+002,6.326311e+001
5.360211e+002,6.269058e+001
5.369853e+002,6.393781e+001
5.379495e+002,6.544681e+001
5.389138e+002,6.566531e+001
5.398780e+002,6.408364e+001
5.408422e+002,6.154182e+001
5.418065e+002,6.042090e+001
5.427707e+002,6.051545e+001
5.437349e+002,6.045411e+001
5.446992e+002,5.974753e+001
5.456634e+002,5.871375e+001
5.466276e+002,5.854429e+001
5.475919e+002,6.119322e+001
5.485561e+002,6.225871e+001
5.495203e+002,6.017680e+001
5.504846e+002,5.681664e+001
5.514488e+002,5.500896e+001
5.524130e+002,5.641378e+001
5.533773e+002,5.810511e+001
5.543415e+002,5.859540e+001
5.553057e+002,5.847836e+001
5.562700e+002,5.834184e+001
5.572342e+002,5.853214e+001
5.581984e+002,5.877899e+001
5.591627e+002,5.868092e+001
5.601269e+002,5.828647e+001
5.610911e+002,5.722887e+001
5.620554e+002,5.521180e+001
5.630196e+002,5.241646e+001
5.639838e+002,5.086839e+001
5.649481e+002,5.104411e+001
5.659123e+002,5.174403e+001
5.668765e+002,5.384642e+001
5.678408e+002,5.654111e+001
5.688050e+002,5.718143e+001
5.697692e+002,5.287285e+001
5.707335e+002,4.918642e+001
5.716977e+002,4.814011e+001
5.726619e+002,4.865646e+001
5.736262e+002,4.928477e+001
5.745904e+002,4.912572e+001
5.755546e+002,4.849500e+001
5.765189e+002,4.729581e+001
5.774831e+002,4.600603e+001
5.784473e+002,4.594081e+001
5.794116e+002,4.801706e+001
5.803758e+002,5.195414e+001
5.813400e+002,5.308976e+001
5.823043e+002,5.065482e+001
5.832685e+002,4.811677e+001
5.842327e+002,4.659368e+001
5.851970e+002,4.604465e+001
5.861612e+002,4.581624e+001
5.871254e+002,4.586291e+001
5.880897e+002,4.613284e+001
5.890539e+002,4.689737e+001
5.900181e+002,4.777525e+001
5.909824e+002,4.811067e+001
5.919466e+002,4.728662e+001
5.929108e+002,4.636497e+001
5.938751e+002,4.674290e+001
5.948393e+002,4.773146e+001
5.958035e+002,4.827981e+001
5.967678e+002,4.763570e+001
5.977320e+002,4.601147e+001
5.986962e+002,4.462243e+001
5.996605e+002,4.333497e+001
6.006247e+002,4.217636e+001
6.015889e+002,4.089928e+001
6.025532e+002,3.959754e+001
6.035174e+002,3.941803e+001
6.044816e+002,4.146971e+001
6.054459e+002,4.362275e+001
6.064101e+002,4.616148e+001
6.073743e+002,4.850096e+001
6.083386e+002,4.968609e+001
6.093028e+002,4.899465e+001
6.102670e+002,4.738979e+001
6.112313e+002,4.492968e+001
6.121955e+002,4.248667e+001
6.131597e+002,4.145230e+001
6.141240e+002,4.272826e+001
6.150882e+002,4.543783e+001
6.160524e+002,4.564616e+001
6.170167e+002,4.385394e+001
6.179809e+002,4.195966e+001
6.189451e+002,4.066797e+001
6.199094e+002,3.990572e+001
6.208736e+002,3.943229e+001
6.218378e+002,3.963414e+001
6.228021e+002,3.989818e+001
6.237663e+002,4.010931e+001
6.247305e+002,4.039838e+001
6.256948e+002,4.102032e+001
6.266590e+002,4.222024e+001
6.276232e+002,4.319207e+001
6.285875e+002,4.365092e+001
6.295517e+002,4.372935e+001
6.305159e+002,4.344253e+001
6.314802e+002,4.279977e+001
6.324444e+002,4.192487e+001
6.334086e+002,4.139030e+001
6.343729e+002,4.109781e+001
6.353371e+002,4.035889e+001
6.363013e+002,3.876900e+001
6.372656e+002,3.671606e+001
6.382298e+002,3.566866e+001
6.391940e+002,3.647683e+001
6.401583e+002,3.727276e+001
6.411225e+002,3.824185e+001
6.420867e+002,3.925446e+001
6.430510e+002,4.028043e+001
6.440152e+002,4.151790e+001
6.449794e+002,4.164561e+001
6.459437e+002,3.911967e+001
6.469079e+002,3.607605e+001
6.478721e+002,3.413774e+001
6.488364e+002,3.390110e+001
6.498006e+002,3.468910e+001
6.507648e+002,3.554068e+001
6.517291e+002,3.639686e+001
6.526933e+002,3.719559e+001
6.536575e+002,3.792822e+001
6.546218e+002,3.853831e+001
6.555860e+002,3.894712e+001
6.565502e+002,3.924927e+001
6.575145e+002,3.896741e+001
6.584787e+002,3.776174e+001
6.594429e+002,3.634367e+001
6.604072e+002,3.519975e+001
6.613714e+002,3.438941e+001
6.623356e+002,3.389175e+001
6.632999e+002,3.357776e+001
6.642641e+002,3.355036e+001
6.652283e+002,3.435297e+001
6.661926e+002,3.573537e+001
6.671568e+002,3.671993e+001
6.681210e+002,3.584310e+001
6.690853e+002,3.383438e+001
6.700495e+002,3.275552e+001
6.710137e+002,3.264176e+001
6.719780e+002,3.316493e+001
6.729422e+002,3.405679e+001
6.739064e+002,3.548479e+001
6.748707e+002,3.596432e+001
6.758349e+002,3.504076e+001
6.767991e+002,3.396980e+001
6.777634e+002,3.315410e+001
6.787276e+002,3.269186e+001
6.796918e+002,3.275251e+001
6.806561e+002,3.389507e+001
6.816203e+002,3.489772e+001
6.825845e+002,3.547204e+001
6.835488e+002,3.555308e+001
6.845130e+002,3.502353e+001
6.854772e+002,3.374428e+001
6.864415e+002,3.219482e+001
6.874057e+002,3.122966e+001
6.883699e+002,3.066666e+001
6.893342e+002,3.032662e+001
6.902984e+002,3.013622e+001
6.912626e+002,3.014261e+001
6.922269e+002,3.050614e+001
6.931911e+002,3.189345e+001
6.941553e+002,3.295648e+001
6.951196e+002,3.339577e+001
6.960838e+002,3.338375e+001
6.970480e+002,3.317041e+001
6.980123e+002,3.264165e+001
6.989765e+002,3.247657e+001
6.999407e+002,3.288145e+001
7.009050e+002,3.366072e+001
7.018692e+002,3.495084e+001
7.028334e+002,3.663293e+001
7.037977e+002,3.803275e+001
7.047619e+002,3.797404e+001
7.057261e+002,3.692178e+001
7.066904e+002,3.539670e+001
7.076546e+002,3.348119e+001
7.086188e+002,3.182786e+001
7.095831e+002,3.156787e+001
7.105473e+002,3.340231e+001
7.115115e+002,3.428449e+001
7.124758e+002,3.378130e+001
7.134400e+002,3.293105e+001
7.144042e+002,3.217197e+001
7.153685e+002,3.159268e+001
7.163327e+002,3.152470e+001
7.172969e+002,3.287182e+001
7.182612e+002,3.411107e+001
7.192254e+002,3.459589e+001
7.201896e+002,3.442171e+001
7.211539e+002,3.390999e+001
7.221181e+002,3.329451e+001
7.230823e+002,3.267074e+001
7.240466e+002,3.216660e+001
7.250108e+002,3.186726e+001
7.259750e+002,3.205598e+001
7.269393e+002,3.293587e+001
7.279035e+002,3.426563e+001
7.288677e+002,3.472318e+001
7.298320e+002,3.353553e+001
7.307962e+002,3.273222e+001
7.317604e+002,3.268240e+001
7.327247e+002,3.301080e+001
7.336889e+002,3.314267e+001
7.346531e+002,3.279462e+001
7.356174e+002,3.220373e+001
7.365816e+002,3.154600e+001
7.375458e+002,3.099628e+001
7.385101e+002,3.063245e+001
7.394743e+002,3.049876e+001
7.404385e+002,3.064163e+001
7.414028e+002,3.119121e+001
7.423670e+002,3.189837e+001
7.433312e+002,3.226376e+001
7.442955e+002,3.233496e+001
7.452597e+002,3.256248e+001
7.462239e+002,3.356631e+001
7.471882e+002,3.573309e+001
7.481524e+002,3.673240e+001
7.491166e+002,3.579739e+001
7.500809e+002,3.457759e+001
7.510451e+002,3.353139e+001
7.520093e+002,3.270536e+001
7.529736e+002,3.202606e+001
7.539378e+002,3.152114e+001
7.549020e+002,3.132221e+001
7.558663e+002,3.156024e+001
7.568306e+002,3.204926e+001
7.577948e+002,3.259148e+001
7.587590e+002,3.302138e+001
7.597233e+002,3.322366e+001
7.606875e+002,3.293377e+001
7.616517e+002,3.226843e+001
7.626160e+002,3.145175e+001
7.635802e+002,3.033509e+001
7.645444e+002,2.933889e+001
7.655087e+002,2.941061e+001
7.664729e+002,3.113309e+001
7.674371e+002,3.266390e+001
7.684014e+002,3.436656e+001
7.693656e+002,3.546059e+001
7.703298e+002,3.495385e+001
7.712941e+002,3.299370e+001
7.722583e+002,3.159354e+001
7.732225e+002,3.291737e+001
7.741868e+002,3.474846e+001
7.751510e+002,3.534818e+001
7.761152e+002,3.492928e+001
7.770795e+002,3.434604e+001
7.780437e+002,3.434053e+001
7.790079e+002,3.478515e+001
7.799722e+002,3.469080e+001
7.809364e+002,3.403343e+001
7.819006e+002,3.339077e+001
7.828649e+002,3.272572e+001
7.838291e+002,3.230278e+001
7.847933e+002,3.312975e+001
7.857576e+002,3.702494e+001
7.867218e+002,3.867545e+001
7.876860e+002,3.546037e+001
7.886503e+002,3.134948e+001
7.896145e+002,2.976216e+001
7.905787e+002,3.152690e+001
7.915430e+002,3.423757e+001
7.925072e+002,3.586170e+001
7.934714e+002,3.648973e+001
7.944357e+002,3.590934e+001
7.953999e+002,3.440121e+001
7.963641e+002,3.279028e+001
7.973284e+002,3.194189e+001
7.982926e+002,3.187019e+001
7.992568e+002,3.270554e+001
8.002211e+002,3.507449e+001
8.011853e+002,3.671772e+001
8.021495e+002,3.665979e+001
8.031138e+002,3.541493e+001
8.040780e+002,3.445698e+001
8.050422e+002,3.397369e+001
8.060065e+002,3.370273e+001
8.069707e+002,3.343345e+001
8.079349e+002,3.326594e+001
8.088992e+002,3.340575e+001
8.098634e+002,3.392507e+001
8.108276e+002,3.462211e+001
8.117919e+002,3.533934e+001
8.127561e+002,3.573459e+001
8.137203e+002,3.525179e+001
8.146846e+002,3.393111e+001
8.156488e+002,3.240430e+001
8.166130e+002,3.137765e+001
8.175773e+002,3.089088e+001
8.185415e+002,3.052606e+001
8.195057e+002,2.995638e+001
8.204700e+002,2.971525e+001
8.214342e+002,3.027580e+001
8.223984e+002,3.130689e+001
8.233627e+002,3.188914e+001
8.243269e+002,3.148270e+001
8.252911e+002,3.111751e+001
8.262554e+002,3.142046e+001
8.272196e+002,3.202332e+001
8.281838e+002,3.269524e+001
8.291481e+002,3.325779e+001
8.301123e+002,3.348560e+001
8.310765e+002,3.290602e+001
8.320408e+002,3.152381e+001
8.330050e+002,3.004195e+001
8.339692e+002,2.830617e+001
8.349335e+002,2.713372e+001
8.358977e+002,2.759315e+001
8.368619e+002,2.998018e+001
8.378262e+002,3.216180e+001
8.387904e+002,3.431139e+001
8.397546e+002,3.583569e+001
8.407189e+002,3.654214e+001
8.416831e+002,3.654249e+001
8.426473e+002,3.593889e+001
8.436116e+002,3.466544e+001
8.445758e+002,3.331316e+001
8.455400e+002,3.187848e+001
8.465043e+002,3.083365e+001
8.474685e+002,3.131901e+001
8.484327e+002,3.346960e+001
8.493970e+002,3.605864e+001
8.503612e+002,3.691668e+001
8.513254e+002,3.567544e+001
8.522897e+002,3.457753e+001
8.532539e+002,3.341783e+001
8.542181e+002,3.252551e+001
8.551824e+002,3.223024e+001
8.561466e+002,3.255827e+001
8.571108e+002,3.310033e+001
8.580751e+002,3.382944e+001
8.590393e+002,3.428651e+001
8.600035e+002,3.408825e+001
8.609678e+002,3.381123e+001
8.619320e+002,3.417230e+001
8.628962e+002,3.541013e+001
8.638605e+002,3.692401e+001
8.648247e+002,3.796590e+001
8.657889e+002,3.851448e+001
8.667532e+002,3.830656e+001
8.677174e+002,3.731215e+001
8.686816e+002,3.641751e+001
8.696459e+002,3.676411e+001
8.706101e+002,3.865262e+001
8.715743e+002,3.981976e+001
8.725386e+002,3.964594e+001
8.735028e+002,3.963293e+001
8.744670e+002,4.020119e+001
8.754313e+002,4.105772e+001
8.763955e+002,4.172598e+001
8.773597e+002,4.210568e+001
8.783240e+002,4.225420e+001
8.792882e+002,4.171149e+001
8.802524e+002,4.123265e+001
8.812167e+002,4.158972e+001
8.821809e+002,4.287280e+001
8.831451e+002,4.468024e+001
8.841094e+002,4.656485e+001
8.850736e+002,4.850842e+001
8.860378e+002,4.954532e+001
8.870021e+002,4.955420e+001
8.879663e+002,4.913960e+001
8.889305e+002,4.842931e+001
8.898948e+002,4.746999e+001
8.908590e+002,4.662391e+001
8.918232e+002,4.578317e+001
8.927875e+002,4.548880e+001
8.937517e+002,4.598299e+001
8.947159e+002,4.689309e+001
8.956802e+002,4.813429e+001
8.966444e+002,4.948546e+001
8.976086e+002,5.028330e+001
8.985729e+002,4.960901e+001
8.995371e+002,4.834293e+001
9.005013e+002,4.783858e+001
9.014656e+002,4.810759e+001
9.024298e+002,4.886496e+001
9.033940e+002,4.991883e+001
9.043583e+002,5.109962e+001
9.053225e+002,5.157462e+001
9.062867e+002,5.062344e+001
9.072510e+002,4.971667e+001
9.082152e+002,4.898302e+001
9.091794e+002,4.842970e+001
9.101437e+002,4.790575e+001
9.111079e+002,4.737328e+001
9.120721e+002,4.740233e+001
9.130364e+002,4.909338e+001
9.140006e+002,5.065544e+001
9.149648e+002,5.087088e+001
9.159291e+002,5.023707e+001
9.168933e+002,4.987234e+001
9.178575e+002,5.051727e+001
9.188218e+002,5.177934e+001
9.197860e+002,5.248398e+001
9.207502e+002,5.260959e+001
9.217145e+002,5.236297e+001
9.226787e+002,5.188836e+001
9.236429e+002,5.114871e+001
9.246072e+002,4.976772e+001
9.255714e+002,4.737002e+001
9.265356e+002,4.598462e+001
9.274999e+002,4.677834e+001
9.284641e+002,4.764661e+001
9.294283e+002,4.829208e+001
9.303926e+002,4.845857e+001
9.313568e+002,4.768043e+001
9.323210e+002,4.564348e+001
9.332853e+002,4.332553e+001
9.342495e+002,4.224461e+001
9.352137e+002,4.195771e+001
9.361780e+002,4.228337e+001
9.371422e+002,4.320126e+001
9.381064e+002,4.403753e+001
9.390707e+002,4.370398e+001
9.400349e+002,4.180537e+001
9.409991e+002,4.087322e+001
9.419634e+002,4.177579e+001
9.429276e+002,4.235435e+001
9.438918e+002,4.171235e+001
9.448561e+002,4.053294e+001
9.458203e+002,4.007773e+001
9.467845e+002,4.084504e+001
9.477488e+002,4.169563e+001
9.487130e+002,4.187138e+001
9.496772e+002,4.167040e+001
9.506415e+002,4.125443e+001
9.516057e+002,4.065794e+001
9.525699e+002,3.980714e+001
9.535342e+002,3.860250e+001
9.544984e+002,3.709761e+001
9.554626e+002,3.598563e+001
9.564269e+002,3.521095e+001
9.573911e+002,3.522389e+001
9.583553e+002,3.672635e+001
9.593196e+002,3.879636e+001
9.602838e+002,4.006584e+001
9.612480e+002,4.051836e+001
9.622123e+002,3.983424e+001
9.631765e+002,3.664739e+001
9.641407e+002,3.365276e+001
9.651050e+002,3.198466e+001
9.660692e+002,3.149566e+001
9.670334e+002,3.158502e+001
9.679977e+002,3.192308e+001
9.689619e+002,3.267542e+001
9.699261e+002,3.450194e+001
9.708904e+002,3.690083e+001
9.718546e+002,3.832098e+001
9.728188e+002,3.816632e+001
9.737831e+002,3.790936e+001
9.747473e+002,4.010215e+001
9.757115e+002,4.574036e+001
9.766758e+002,4.846729e+001
9.776400e+002,4.594778e+001
9.786042e+002,4.348397e+001
9.795685e+002,4.259512e+001
9.805327e+002,4.222258e+001
9.814969e+002,4.050484e+001
9.824612e+002,3.686351e+001
9.834254e+002,3.368204e+001
9.843896e+002,3.431019e+001
9.853539e+002,3.591563e+001
9.863181e+002,3.515712e+001
9.872823e+002,3.216169e+001
9.882466e+002,2.904410e+001
9.892108e+002,2.766022e+001
9.901750e+002,2.790386e+001
9.911393e+002,2.835163e+001
9.921035e+002,2.906674e+001
9.930677e+002,2.946927e+001
9.940320e+002,2.967850e+001
9.949962e+002,2.960399e+001
9.959604e+002,2.876006e+001
9.969247e+002,2.722994e+001
9.978889e+002,2.674783e+001
9.988531e+002,2.908707e+001
9.998174e+002,3.130314e+001
1.000782e+003,3.155984e+001
1.001746e+003,3.066858e+001
1.002710e+003,2.980698e+001
1.003674e+003,2.951030e+001
1.004639e+003,2.950746e+001
1.005603e+003,2.938743e+001
1.006567e+003,2.910146e+001
1.007531e+003,2.793163e+001
1.008495e+003,2.522047e+001
1.009460e+003,2.297002e+001
1.010424e+003,2.275520e+001
1.011388e+003,2.406145e+001
1.012352e+003,2.468196e+001
1.013317e+003,2.386208e+001
1.014281e+003,2.328676e+001
1.015245e+003,2.364525e+001
1.016209e+003,2.417471e+001
1.017174e+003,2.443604e+001
1.018138e+003,2.433999e+001
1.019102e+003,2.405363e+001
1.020066e+003,2.376615e+001
1.021031e+003,2.329865e+001
1.021995e+003,2.145988e+001
1.022959e+003,1.856337e+001
1.023923e+003,1.699114e+001
1.024887e+003,1.782980e+001
1.025852e+003,1.976807e+001
1.026816e+003,2.086621e+001
1.027780e+003,2.111411e+001
1.028744e+003,2.079569e+001
1.029709e+003,1.923586e+001
1.030673e+003,1.790002e+001
1.031637e+003,1.700285e+001
1.032601e+003,1.664165e+001
1.033566e+003,1.707616e+001
1.034530e+003,1.838634e+001
1.035494e+003,1.995576e+001
1.036458e+003,2.156838e+001
1.037422e+003,2.258490e+001
1.038387e+003,2.136667e+001
1.039351e+003,1.820885e+001
1.040315e+003,1.583333e+001
1.041279e+003,1.642093e+001
1.042244e+003,1.930126e+001
1.043208e+003,2.101948e+001
1.044172e+003,2.066068e+001
1.045136e+003,2.046394e+001
1.046101e+003,2.046604e+001
1.047065e+003,2.070374e+001
1.048029e+003,2.165066e+001
1.048993e+003,2.288191e+001
1.049958e+003,2.283469e+001
1.050922e+003,2.027711e+001
1.051886e+003,1.765997e+001
1.052850e+003,1.765611e+001
1.053814e+003,1.897288e+001
1.054779e+003,2.027263e+001
1.055743e+003,2.111446e+001
1.056707e+003,2.136240e+001
1.057671e+003,2.081742e+001
1.058636e+003,1.945876e+001
1.059600e+003,1.844794e+001
1.060564e+003,1.771553e+001
1.061528e+003,1.756237e+001
1.062493e+003,1.816009e+001
1.063457e+003,1.915589e+001
1.064421e+003,2.049307e+001
1.065385e+003,2.214919e+001
1.066349e+003,2.305999e+001
1.067314e+003,2.214948e+001
1.068278e+003,2.093822e+001
1.069242e+003,2.067456e+001
1.070206e+003,2.085261e+001
1.071171e+003,2.037913e+001
1.072135e+003,1.888602e+001
1.073099e+003,1.730901e+001
1.074063e+003,1.732596e+001
1.075028e+003,1.915884e+001
1.075992e+003,2.027208e+001
1.076956e+003,2.032454e+001
1.077920e+003,2.027831e+001
1.078885e+003,2.057774e+001
1.079849e+003,2.106754e+001
1.080813e+003,2.145586e+001
1.081777e+003,2.173296e+001
1.082741e+003,2.181319e+001
1.083706e+003,2.102891e+001
1.084670e+003,2.044201e+001
1.085634e+003,2.124538e+001
1.086598e+003,2.261226e+001
1.087563e+003,2.276238e+001
1.088527e+003,2.082556e+001
1.089491e+003,1.800320e+001
1.090455e+003,1.652709e+001
1.091420e+003,1.652754e+001
1.092384e+003,1.683495e+001
1.093348e+003,1.768220e+001
1.094312e+003,1.831773e+001
1.095276e+003,1.817207e+001
1.096241e+003,1.756253e+001
1.097205e+003,1.743755e+001
1.098169e+003,1.816257e+001
1.099133e+003,1.845789e+001
1.100098e+003,1.697422e+001
1.101062e+003,1.579095e+001
1.102026e+003,1.680482e+001
1.102990e+003,1.919412e+001
1.103955e+003,2.079873e+001
1.104919e+003,2.029988e+001
1.105883e+003,1.853555e+001
1.106847e+003,1.726443e+001
1.107812e+003,1.649751e+001
1.108776e+003,1.558353e+001
1.109740e+003,1.426804e+001
1.110704e+003,1.327224e+001
1.111668e+003,1.325999e+001
1.112633e+003,1.408959e+001
1.113597e+003,1.509949e+001
1.114561e+003,1.659525e+001
1.115525e+003,1.723814e+001
1.116490e+003,1.609955e+001
1.117454e+003,1.459782e+001
1.118418e+003,1.349625e+001
1.119382e+003,1.291608e+001
1.120347e+003,1.270228e+001
1.121311e+003,1.270713e+001
1.122275e+003,1.279631e+001
1.123239e+003,1.282577e+001
1.124203e+003,1.290714e+001
1.125168e+003,1.341129e+001
1.126132e+003,1.459521e+001
1.127096e+003,1.565826e+001
1.128060e+003,1.598997e+001
1.129025e+003,1.564481e+001
1.129989e+003,1.485001e+001
1.130953e+003,1.308678e+001
1.131917e+003,1.206734e+001
1.132882e+003,1.270095e+001
1.133846e+003,1.369863e+001
1.134810e+003,1.454047e+001
1.135774e+003,1.505439e+001
1.136739e+003,1.492707e+001
1.137703e+003,1.401009e+001
1.138667e+003,1.320602e+001
1.139631e+003,1.447791e+001
1.140595e+003,1.745522e+001
1.141560e+003,1.873283e+001
1.142524e+003,1.770145e+001
1.143488e+003,1.679063e+001
1.144452e+003,1.798776e+001
1.145417e+003,2.060455e+001
1.146381e+003,2.201752e+001
1.147345e+003,2.154624e+001
1.148309e+003,2.142703e+001
1.149274e+003,2.194493e+001
1.150238e+003,2.323186e+001
1.151202e+003,2.619281e+001
1.152166e+003,2.982642e+001
1.153130e+003,3.229991e+001
1.154095e+003,3.276059e+001
1.155059e+003,3.221256e+001
1.156023e+003,3.222798e+001
1.156987e+003,3.265721e+001
1.157952e+003,3.206092e+001
1.158916e+003,3.038578e+001
1.159880e+003,2.860778e+001
1.160844e+003,2.682870e+001
1.161809e+003,2.523216e+001
1.162773e+003,2.479536e+001
1.163737e+003,2.614627e+001
1.164701e+003,2.583694e+001
1.165666e+003,2.035018e+001
1.166630e+003,1.589241e+001
1.167594e+003,1.574773e+001
1.168558e+003,1.759190e+001
1.169522e+003,1.801198e+001
1.170487e+003,1.606396e+001
1.171451e+003,1.379006e+001
1.172415e+003,1.356235e+001
1.173379e+003,1.481439e+001
1.174344e+003,1.440310e+001
1.175308e+003,1.227098e+001
1.176272e+003,1.050896e+001
1.177236e+003,9.576195e+000
1.178201e+003,9.531441e+000
1.179165e+003,1.091797e+001
1.180129e+003,1.373285e+001
1.181093e+003,1.519734e+001
1.182057e+003,1.393906e+001
1.183022e+003,1.246497e+001
1.183986e+003,1.130718e+001
1.184950e+003,1.069216e+001
1.185914e+003,1.127686e+001
1.186879e+003,1.271820e+001
1.187843e+003,1.362582e+001
1.188807e+003,1.283163e+001
1.189771e+003,1.095234e+001
1.190736e+003,9.887634e+000
1.191700e+003,9.716370e+000
1.192664e+003,9.596581e+000
1.193628e+003,9.432022e+000
1.194593e+003,9.410362e+000
1.195557e+003,1.000771e+001
1.196521e+003,1.085870e+001
1.197485e+003,1.043986e+001
1.198449e+003,7.928902e+000
1.199414e+003,6.084618e+000
1.200378e+003,6.394730e+000
1.201342e+003,7.555023e+000
1.202306e+003,9.599907e+000
1.203271e+003,1.168356e+001
1.204235e+003,1.230046e+001
1.205199e+003,1.081479e+001
1.206163e+003,8.253975e+000
1.207128e+003,6.246834e+000
1.208092e+003,4.816330e+000
1.209056e+003,4.186768e+000
1.210020e+003,4.661766e+000
1.210984e+003,5.166603e+000
1.211949e+003,5.433060e+000
1.212913e+003,5.522644e+000
1.213877e+003,5.709999e+000
1.214841e+003,5.991570e+000
1.215806e+003,5.402351e+000
1.216770e+003,2.739967e+000
1.217734e+003,4.198761e-001
1.218698e+003,6.245956e-001
1.219663e+003,1.712234e+000
1.220627e+003,1.460258e+000
1.221591e+003,-3.166580e-001
1.222555e+003,-2.054878e+000
1.223520e+003,-2.299950e+000
1.224484e+003,-1.243515e+000
1.225448e+003,1.229706e-001
1.226412e+003,2.621941e+000
1.227376e+003,3.337936e+000
1.228341e+003,4.013824e-001
1.229305e+003,-2.192787e+000
1.230269e+003,-1.722473e+000
1.231233e+003,4.691315e-001
1.232198e+003,1.444214e+000
1.233162e+003,4.240646e-001
1.234126e+003,-7.559433e-001
1.235090e+003,-9.673691e-001
1.236055e+003,-5.708008e-001
1.237019e+003,4.110947e-001
1.237983e+003,1.600708e+000
1.238947e+003,2.020393e+000
1.239911e+003,1.299408e+000
1.240876e+003,2.211838e-001
1.241840e+003,-1.103210e-002
1.242804e+003,6.909103e-001
1.243768e+003,6.859207e-001
1.244733e+003,-1.338997e+000
1.245697e+003,-2.285110e+000
1.246661e+003,-1.024384e+000
1.247625e+003,4.856033e-001
1.248590e+003,6.912003e-001
1.249554e+003,-1.075211e-001
1.250518e+003,-6.253738e-001
1.251482e+003,-3.033981e-001
1.252447e+003,3.120270e-001
1.253411e+003,7.234573e-001
1.254375e+003,9.631805e-001
1.255339e+003,8.937149e-001
1.256303e+003,5.747070e-001
1.257268e+003,8.027039e-001
1.258232e+003,2.296089e+000
1.259196e+003,4.111908e+000
1.260160e+003,4.099747e+000
1.261125e+003,1.816498e+000
1.262089e+003,7.674026e-001
1.263053e+003,2.347435e+000
1.264017e+003,3.844994e+000
1.264982e+003,4.888840e+000
1.265946e+003,5.417992e+000
1.266910e+003,5.410324e+000
1.267874e+003,4.878548e+000
1.268839e+003,3.629868e+000
1.269803e+003,1.517128e+000
1.270767e+003,-5.891800e-001
1.271731e+003,-7.789078e-001
1.272695e+003,9.107056e-001
1.273660e+003,1.726974e+000
1.274624e+003,1.188362e+000
1.275588e+003,6.729584e-001
1.276552e+003,1.233025e+000
1.277517e+003,2.251366e+000
1.278481e+003,2.379456e+000
1.279445e+003,1.449753e+000
1.280409e+003,8.259583e-001
1.281374e+003,1.464447e+000
1.282338e+003,1.789543e+000
1.283302e+003,3.467560e-001
1.284266e+003,-1.447678e+000
1.285230e+003,-1.793900e+000
1.286195e+003,-6.348801e-001
1.287159e+003,7.316208e-001
1.288123e+003,1.261467e+000
1.289087e+003,1.114159e+000
1.290052e+003,6.301727e-001
1.291016e+003,-5.643082e-001
1.291980e+003,-7.826080e-001
1.292944e+003,6.138077e-001
1.293909e+003,1.972618e+000
1.294873e+003,3.316711e+000
1.295837e+003,3.981140e+000
1.296801e+003,2.240959e+000
1.297766e+003,-1.779541e+000
1.298730e+003,-4.159683e+000
1.299694e+003,-2.100800e+000
1.300658e+003,9.121246e-001
1.301622e+003,7.922668e-001
1.302587e+003,-8.892975e-001
1.303551e+003,-1.810051e+000
1.304515e+003,-1.527763e+000
1.305479e+003,-6.694489e-001
1.306444e+003,3.238220e-001
1.307408e+003,1.351120e+000
1.308372e+003,2.217758e+000
1.309336e+003,3.174309e+000
1.310301e+003,3.139763e+000
1.311265e+003,8.822784e-001
1.312229e+003,-8.276291e-001
1.313193e+003,-8.090210e-001
1.314157e+003,-1.101151e-001
1.315122e+003,1.058426e-001
1.316086e+003,-2.629852e-001
1.317050e+003,-4.970779e-001
1.318014e+003,-8.758545e-002
1.318979e+003,5.818710e-001
1.319943e+003,7.887497e-001
1.320907e+003,5.964584e-001
1.321871e+003,4.406967e-001
1.322836e+003,2.350311e-001
1.323800e+003,2.002869e-001
1.324764e+003,8.515091e-001
1.325728e+003,1.563881e+000
1.326693e+003,1.035255e+000
1.327657e+003,-8.179932e-001
1.328621e+003,-2.325706e+000
1.329585e+003,-2.954712e+000
1.330549e+003,-3.045998e+000
1.331514e+003,-2.803513e+000
1.332478e+003,-2.396461e+000
1.333442e+003,-1.851860e+000
1.334406e+003,-1.234009e+000
1.335371e+003,-6.747971e-001
1.336335e+003,-2.613525e-001
1.337299e+003,-8.074188e-002
1.338263e+003,-4.081650e-001
1.339228e+003,-1.453918e+000
1.340192e+003,-9.491043e-001
1.341156e+003,3.770477e+000
1.342120e+003,6.040199e+000
1.343084e+003,2.848648e+000
1.344049e+003,-1.364113e+000
1.345013e+003,-2.999008e+000
1.345977e+003,-2.376358e+000
1.346941e+003,-1.587280e+000
1.347906e+003,-1.391899e+000
1.348870e+003,-9.917450e-001
1.349834e+003,7.856140e-001
1.350798e+003,2.852928e+000
1.351763e+003,3.146393e+000
1.352727e+003,1.914749e+000
1.353691e+003,4.524994e-001
1.354655e+003,-9.911880e-001
1.355620e+003,-1.740288e+000
1.356584e+003,-3.864517e-001
1.357548e+003,2.707268e+000
1.358512e+003,3.928505e+000
1.359476e+003,2.322258e+000
1.360441e+003,8.599777e-001
1.361405e+003,8.950806e-002
1.362369e+003,-1.033478e-001
1.363333e+003,6.604538e-001
1.364298e+003,1.771912e+000
1.365262e+003,2.549866e+000
1.366226e+003,2.745766e+000
1.367190e+003,2.200836e+000
1.368155e+003,7.276382e-001
1.369119e+003,-9.641800e-001
1.370083e+003,-4.911652e-001
1.371047e+003,3.033821e+000
1.372011e+003,5.065582e+000
1.372976e+003,4.868088e+000
1.373940e+003,4.132080e+000
1.374904e+003,3.082924e+000
1.375868e+003,2.127861e+000
1.376833e+003,1.933365e+000
1.377797e+003,2.403519e+000
1.378761e+003,2.553688e+000
1.379725e+003,1.905128e+000
1.380690e+003,1.072052e+000
1.381654e+003,3.353806e-001
1.382618e+003,2.205658e-002
1.383582e+003,9.604950e-001
1.384547e+003,2.964417e+000
1.385511e+003,4.559235e+000
1.386475e+003,4.942635e+000
1.387439e+003,4.698097e+000
1.388403e+003,4.714241e+000
1.389368e+003,4.984299e+000
1.390332e+003,4.993172e+000
1.391296e+003,4.676865e+000
1.392260e+003,4.256516e+000
1.393225e+003,3.350594e+000
1.394189e+003,2.790321e+000
1.395153e+003,3.640129e+000
1.396117e+003,4.899757e+000
1.397082e+003,4.721893e+000
1.398046e+003,2.911125e+000
1.399010e+003,1.298622e+000
1.399974e+003,1.552544e+000
1.400938e+003,3.017105e+000
1.401903e+003,3.795654e+000
1.402867e+003,3.836761e+000
1.403831e+003,3.919327e+000
1.404795e+003,3.968224e+000
1.405760e+003,4.031166e+000
1.406724e+003,4.187752e+000
1.407688e+003,4.156555e+000
1.408652e+003,3.649857e+000
1.409617e+003,2.763145e+000
1.410581e+003,1.753609e+000
1.411545e+003,6.411057e-001
1.412509e+003,-1.426315e-001
1.413474e+003,-1.411438e-003
1.414438e+003,5.704727e-001
1.415402e+003,8.296585e-001
1.416366e+003,8.507233e-001
1.417330e+003,9.424591e-001
1.418295e+003,1.181984e+000
1.419259e+003,1.691193e+000
1.420223e+003,2.855293e+000
1.421187e+003,4.442963e+000
1.422152e+003,5.138649e+000
1.423116e+003,4.781830e+000
1.424080e+003,4.160271e+000
1.425044e+003,3.135567e+000
1.426009e+003,2.152016e+000
1.426973e+003,1.109680e+000
1.427937e+003,3.825455e-001
1.428901e+003,5.926285e-001
1.429865e+003,1.635925e+000
1.430830e+003,2.795319e+000
1.431794e+003,3.568901e+000
1.432758e+003,4.068359e+000
1.433722e+003,4.579544e+000
1.434687e+003,5.197426e+000
1.435651e+003,5.583839e+000
1.436615e+003,5.328949e+000
1.437579e+003,5.115753e+000
1.438544e+003,5.235176e+000
1.439508e+003,5.222084e+000
1.440472e+003,4.588890e+000
1.441436e+003,3.719322e+000
1.442401e+003,3.253647e+000
1.443365e+003,3.349106e+000
1.444329e+003,3.952881e+000
1.445293e+003,5.177567e+000
1.446257e+003,6.530602e+000
1.447222e+003,6.985146e+000
1.448186e+003,6.672607e+000
1.449150e+003,6.250290e+000
1.450114e+003,5.707733e+000
1.451079e+003,5.245964e+000
1.452043e+003,5.082870e+000
1.453007e+003,5.045715e+000
1.453971e+003,4.684769e+000
1.454936e+003,4.095818e+000
1.455900e+003,4.383606e+000
1.456864e+003,6.238174e+000
1.457828e+003,7.442200e+000
1.458792e+003,5.830238e+000
1.459757e+003,3.762436e+000
1.460721e+003,3.271332e+000
1.461685e+003,3.787880e+000
1.462649e+003,4.011719e+000
1.463614e+003,3.621445e+000
1.464578e+003,3.144623e+000
1.465542e+003,3.017281e+000
1.466506e+003,3.131424e+000
1.467471e+003,3.358673e+000
1.468435e+003,3.949158e+000
1.469399e+003,3.651039e+000
1.470363e+003,9.351044e-001
1.471328e+003,-6.749420e-001
1.472292e+003,5.945587e-002
1.473256e+003,1.575333e+000
1.474220e+003,3.549469e+000
1.475184e+003,5.249168e+000
1.476149e+003,5.145409e+000
1.477113e+003,3.089661e+000
1.478077e+003,1.322578e+000
1.479041e+003,2.093124e+000
1.480006e+003,4.573982e+000
1.480970e+003,5.923973e+000
1.481934e+003,5.851517e+000
1.482898e+003,5.556633e+000
1.483863e+003,4.895378e+000
1.484827e+003,4.222679e+000
1.485791e+003,3.591751e+000
1.486755e+003,3.105553e+000
1.487719e+003,2.816490e+000
1.488684e+003,2.700836e+000
1.489648e+003,2.614326e+000
1.490612e+003,2.558678e+000
1.491576e+003,3.224564e+000
1.492541e+003,5.512810e+000
1.493505e+003,8.254387e+000
1.494469e+003,8.633186e+000
1.495433e+003,6.992958e+000
1.496398e+003,5.464180e+000
1.497362e+003,4.127785e+000
1.498326e+003,3.688942e+000
1.499290e+003,5.167366e+000
1.500255e+003,7.272949e+000
1.501219e+003,8.163414e+000
1.502183e+003,8.001976e+000
1.503147e+003,8.032776e+000
1.504111e+003,8.482758e+000
1.505076e+003,9.377998e+000
1.506040e+003,1.099635e+001
1.507004e+003,1.282156e+001
1.507968e+003,1.447930e+001
1.508933e+003,1.590655e+001
1.509897e+003,1.682541e+001
1.510861e+003,1.730442e+001
1.511825e+003,1.821971e+001
1.512790e+003,2.028127e+001
1.513754e+003,2.278813e+001
1.514718e+003,2.420327e+001
1.515682e+003,2.450313e+001
1.516646e+003,2.610238e+001
1.517611e+003,2.996880e+001
1.518575e+003,3.338911e+001
1.519539e+003,3.603231e+001
1.520503e+003,3.755530e+001
1.521468e+003,3.702348e+001
1.522432e+003,3.557577e+001
1.523396e+003,3.483770e+001
1.524360e+003,3.492428e+001
1.525325e+003,3.472276e+001
1.526289e+003,3.351204e+001
1.527253e+003,3.180465e+001
1.528217e+003,3.051019e+001
1.529182e+003,2.967053e+001
1.530146e+003,2.857174e+001
1.531110e+003,2.722598e+001
1.532074e+003,2.550834e+001
1.533039e+003,2.316589e+001
1.534003e+003,2.058453e+001
1.534967e+003,1.777964e+001
1.535931e+003,1.510808e+001
1.536896e+003,1.282059e+001
1.537860e+003,1.102487e+001
1.538824e+003,9.971420e+000
1.539788e+003,9.691628e+000
1.540752e+003,9.301537e+000
1.541717e+003,7.580116e+000
1.542681e+003,4.940117e+000
1.543645e+003,3.866943e+000
1.544609e+003,5.118431e+000
1.545573e+003,6.228424e+000
1.546538e+003,7.101295e+000
1.547502e+003,7.823341e+000
1.548466e+003,8.319740e+000
1.549430e+003,8.894150e+000
1.550395e+003,1.009646e+001
1.551359e+003,1.155879e+001
1.552323e+003,1.224903e+001
1.553287e+003,1.183073e+001
1.554252e+003,1.082786e+001
1.555216e+003,9.601204e+000
1.556180e+003,8.335312e+000
1.557144e+003,7.468872e+000
1.558109e+003,7.044342e+000
1.559073e+003,6.786674e+000
1.560037e+003,6.626404e+000
1.561001e+003,6.606186e+000
1.561966e+003,7.181053e+000
1.562930e+003,7.629593e+000
1.563894e+003,6.874733e+000
1.564858e+003,5.494858e+000
1.565823e+003,4.982101e+000
1.566787e+003,5.602776e+000
1.567751e+003,6.727692e+000
1.568715e+003,8.254761e+000
1.569679e+003,9.440971e+000
1.570644e+003,8.846489e+000
1.571608e+003,7.257347e+000
1.572572e+003,7.388420e+000
1.573536e+003,9.403633e+000
1.574500e+003,1.038198e+001
1.575465e+003,8.878242e+000
1.576429e+003,6.806007e+000
1.577393e+003,5.010628e+000
1.578357e+003,3.990654e+000
1.579322e+003,5.510529e+000
1.580286e+003,9.368294e+000
1.581250e+003,1.142672e+001
1.582214e+003,9.952591e+000
1.583179e+003,8.285187e+000
1.584143e+003,9.152939e+000
1.585107e+003,1.084820e+001
1.586071e+003,1.099126e+001
1.587036e+003,1.011514e+001
1.588000e+003,9.810555e+000
1.588964e+003,1.042197e+001
1.589928e+003,1.087947e+001
1.590893e+003,1.034998e+001
1.591857e+003,9.414848e+000
1.592821e+003,8.699600e+000
1.593785e+003,8.318550e+000
1.594750e+003,9.178024e+000
1.595714e+003,1.168359e+001
1.596678e+003,1.326633e+001
1.597642e+003,1.215111e+001
1.598606e+003,1.093057e+001
1.599571e+003,1.211888e+001
1.600535e+003,1.420564e+001
1.601499e+003,1.532554e+001
1.602463e+003,1.538550e+001
1.603427e+003,1.482496e+001
1.604392e+003,1.369389e+001
1.605356e+003,1.306232e+001
1.606320e+003,1.466844e+001
1.607284e+003,1.740413e+001
1.608249e+003,1.778672e+001
1.609213e+003,1.571658e+001
1.610177e+003,1.433654e+001
1.611141e+003,1.427091e+001
1.612106e+003,1.465381e+001
1.613070e+003,1.559042e+001
1.614034e+003,1.633469e+001
1.614998e+003,1.635157e+001
1.615963e+003,1.579806e+001
1.616927e+003,1.462720e+001
1.617891e+003,1.304439e+001
1.618855e+003,1.226830e+001
1.619820e+003,1.313435e+001
1.620784e+003,1.440365e+001
1.621748e+003,1.400340e+001
1.622712e+003,1.246450e+001
1.623677e+003,1.315752e+001
1.624641e+003,1.677070e+001
1.625605e+003,1.854943e+001
1.626569e+003,1.566888e+001
1.627533e+003,1.360683e+001
1.628498e+003,1.643385e+001
1.629462e+003,2.003834e+001
1.630426e+003,2.096658e+001
1.631390e+003,1.983156e+001
1.632354e+003,1.823193e+001
1.633319e+003,1.673577e+001
1.634283e+003,1.588294e+001
1.635247e+003,1.614056e+001
1.636211e+003,1.701545e+001
1.637176e+003,1.760191e+001
1.638140e+003,1.796774e+001
1.639104e+003,1.912290e+001
1.640068e+003,2.169167e+001
1.641033e+003,2.258145e+001
1.641997e+003,1.966769e+001
1.642961e+003,1.691257e+001
1.643925e+003,1.656538e+001
1.644890e+003,1.705492e+001
1.645854e+003,1.689535e+001
1.646818e+003,1.618315e+001
1.647782e+003,1.557303e+001
1.648747e+003,1.527685e+001
1.649711e+003,1.518800e+001
1.650675e+003,1.528154e+001
1.651639e+003,1.548023e+001
1.652604e+003,1.563065e+001
1.653568e+003,1.569529e+001
1.654532e+003,1.533445e+001
1.655496e+003,1.443152e+001
1.656460e+003,1.343710e+001
1.657425e+003,1.201563e+001
1.658389e+003,1.122250e+001
1.659353e+003,1.185563e+001
1.660317e+003,1.315333e+001
1.661281e+003,1.473849e+001
1.662246e+003,1.618978e+001
1.663210e+003,1.654680e+001
1.664174e+003,1.555379e+001
1.665138e+003,1.431371e+001
1.666103e+003,1.377573e+001
1.667067e+003,1.348934e+001
1.668031e+003,1.233544e+001
1.668995e+003,1.044550e+001
1.669960e+003,9.592705e+000
1.670924e+003,1.010842e+001
1.671888e+003,1.091360e+001
1.672852e+003,1.221621e+001
1.673817e+003,1.288596e+001
1.674781e+003,1.155984e+001
1.675745e+003,9.747475e+000
1.676709e+003,9.189850e+000
1.677674e+003,9.635818e+000
1.678638e+003,9.790695e+000
1.679602e+003,9.262253e+000
1.680566e+003,9.018318e+000
1.681531e+003,1.005004e+001
1.682495e+003,1.154488e+001
1.683459e+003,1.212830e+001
1.684423e+003,1.185031e+001
1.685387e+003,1.119552e+001
1.686352e+003,1.022065e+001
1.687316e+003,8.741600e+000
1.688280e+003,6.024353e+000
1.689244e+003,4.048943e+000
1.690208e+003,5.254593e+000
1.691173e+003,7.307808e+000
1.692137e+003,7.326347e+000
1.693101e+003,6.026871e+000
1.694065e+003,6.199974e+000
1.695030e+003,8.543976e+000
1.695994e+003,1.041013e+001
1.696958e+003,1.001321e+001
1.697922e+003,8.543854e+000
1.698887e+003,7.218758e+000
1.699851e+003,6.092918e+000
1.700815e+003,5.237030e+000
1.701779e+003,4.647461e+000
1.702744e+003,4.707672e+000
1.703708e+003,5.801628e+000
1.704672e+003,6.725471e+000
1.705636e+003,6.520142e+000
1.706601e+003,5.609894e+000
1.707565e+003,4.431946e+000
1.708529e+003,3.202286e+000
1.709493e+003,2.595840e+000
1.710458e+003,2.741013e+000
1.711422e+003,2.942093e+000
1.712386e+003,2.903557e+000
1.713350e+003,2.904739e+000
1.714314e+003,3.189850e+000
1.715279e+003,3.569160e+000
1.716243e+003,3.693832e+000
1.717207e+003,3.635689e+000
1.718171e+003,3.974060e+000
1.719135e+003,4.877434e+000
1.720100e+003,5.312210e+000
1.721064e+003,4.434593e+000
1.722028e+003,3.125343e+000
1.722992e+003,2.672188e+000
1.723957e+003,2.984795e+000
1.724921e+003,3.354630e+000
1.725885e+003,3.813423e+000
1.726849e+003,3.699936e+000
1.727814e+003,1.869591e+000
1.728778e+003,1.019279e+000
1.729742e+003,3.426392e+000
1.730706e+003,6.289703e+000
1.731671e+003,6.769058e+000
1.732635e+003,5.497986e+000
1.733599e+003,4.033066e+000
1.734563e+003,2.915192e+000
1.735528e+003,2.598480e+000
1.736492e+003,3.289833e+000
1.737456e+003,3.965118e+000
1.738420e+003,3.351852e+000
1.739385e+003,1.863693e+000
1.740349e+003,1.183891e+000
1.741313e+003,1.575394e+000
1.742277e+003,1.608978e+000
1.743241e+003,1.112396e+000
1.744206e+003,6.288147e-001
1.745170e+003,8.791351e-002
1.746134e+003,-3.125687e-001
1.747098e+003,-4.681778e-001
1.748063e+003,-4.315262e-001
1.749027e+003,-1.978149e-001
1.749991e+003,1.642609e-001
1.750955e+003,5.770340e-001
1.751919e+003,9.588089e-001
1.752884e+003,1.091652e+000
1.753848e+003,7.887497e-001
1.754812e+003,2.758484e-001
1.755776e+003,4.624176e-002
1.756741e+003,1.256332e-001
1.757705e+003,1.464539e-001
1.758669e+003,1.079559e-001
1.759633e+003,-1.024246e-001
1.760598e+003,-9.553757e-001
1.761562e+003,-1.368225e+000
1.762526e+003,-5.757446e-001
1.763490e+003,3.733826e-001
1.764455e+003,9.486618e-001
1.765419e+003,1.090012e+000
1.766383e+003,4.214096e-001
1.767347e+003,-7.761459e-001
1.768312e+003,-1.063080e+000
1.769276e+003,2.521591e-001
1.770240e+003,1.537888e+000
1.771204e+003,9.944305e-001
1.772168e+003,-5.450287e-001
1.773133e+003,-1.366074e+000
1.774097e+003,-1.499916e+000
1.775061e+003,-1.012589e+000
1.776025e+003,2.368698e-001
1.776990e+003,6.214447e-001
1.777954e+003,-6.720657e-001
1.778918e+003,-2.217056e+000
1.779882e+003,-3.449379e+000
1.780846e+003,-4.053062e+000
1.781811e+003,-3.238892e+000
1.782775e+003,-1.455719e+000
1.783739e+003,-1.319046e-001
1.784703e+003,5.687637e-001
1.785668e+003,5.816803e-001
1.786632e+003,-8.020096e-001
1.787596e+003,-2.072067e+000
1.788560e+003,-1.753670e+000
1.789525e+003,-8.104935e-001
1.790489e+003,-6.989899e-001
1.791453e+003,-1.242645e+000
1.792417e+003,-1.517319e+000
1.793382e+003,-1.333199e+000
1.794346e+003,-1.060303e+000
1.795310e+003,-8.877716e-001
1.796274e+003,-8.945770e-001
1.797239e+003,-1.225044e+000
1.798203e+003,-1.596840e+000
1.799167e+003,-1.215706e+000
1.800131e+003,-1.154327e-002
1.801095e+003,8.977432e-001
1.802060e+003,1.509865e+000
1.803024e+003,2.020515e+000
1.803988e+003,2.514320e+000
1.804952e+003,2.768509e+000
1.805917e+003,2.612160e+000
1.806881e+003,2.218391e+000
1.807845e+003,1.629883e+000
1.808809e+003,1.028145e+000
1.809773e+003,7.466354e-001
1.810738e+003,7.845154e-001
1.811702e+003,7.325897e-001
1.812666e+003,3.337555e-001
1.813630e+003,-1.954803e-001
1.814595e+003,-5.915146e-001
1.815559e+003,-8.483810e-001
1.816523e+003,-8.456879e-001
1.817487e+003,-5.443497e-001
1.818452e+003,-2.611389e-001
1.819416e+003,1.898346e-001
1.820380e+003,1.251984e-001
1.821344e+003,-1.058533e+000
1.822309e+003,-2.291206e+000
1.823273e+003,-3.188728e+000
1.824237e+003,-3.587799e+000
1.825201e+003,-3.028458e+000
1.826166e+003,-1.910988e+000
1.827130e+003,-1.240822e+000
1.828094e+003,-1.202751e+000
1.829058e+003,-1.334526e+000
1.830022e+003,-1.472107e+000
1.830987e+003,-1.536316e+000
1.831951e+003,-1.610153e+000
1.832915e+003,-1.463341e+000
1.833879e+003,-3.466644e-001
1.834844e+003,1.218117e+000
1.835808e+003,1.385017e+000
1.836772e+003,6.327820e-002
1.837736e+003,-7.644653e-001
1.838700e+003,-2.491760e-001
1.839665e+003,7.787933e-001
1.840629e+003,1.700638e+000
1.841593e+003,2.325890e+000
1.842557e+003,2.163101e+000
1.843522e+003,1.222832e+000
1.844486e+003,4.187698e-001
1.845450e+003,-2.429504e-001
1.846414e+003,-6.601486e-001
1.847379e+003,-7.278519e-001
1.848343e+003,-8.304138e-001
1.849307e+003,-1.518318e+000
1.850271e+003,-1.776863e+000
1.851236e+003,-1.009369e-001
1.852200e+003,2.009262e+000
1.853164e+003,2.122459e+000
1.854128e+003,5.405655e-001
1.855093e+003,-6.015396e-001
1.856057e+003,-4.548569e-001
1.857021e+003,1.937027e-001
1.857985e+003,7.297974e-001
1.858949e+003,1.049858e+000
1.859914e+003,8.672562e-001
1.860878e+003,3.152237e-001
1.861842e+003,9.020233e-002
1.862806e+003,1.877060e-001
1.863771e+003,3.894730e-001
1.864735e+003,6.722183e-001
1.865699e+003,9.225464e-001
1.866663e+003,1.106293e+000
1.867627e+003,1.297112e+000
1.868592e+003,1.639542e+000
1.869556e+003,1.901146e+000
1.870520e+003,1.636322e+000
1.871484e+003,9.300842e-001
1.872449e+003,3.500137e-001
1.873413e+003,1.683807e-002
1.874377e+003,5.035400e-003
1.875341e+003,5.078354e-001
1.876306e+003,9.141083e-001
1.877270e+003,7.816391e-001
1.878234e+003,4.784775e-001
1.879198e+003,6.696396e-001
1.880163e+003,8.666840e-001
1.881127e+003,-4.249802e-001
1.882091e+003,-2.716858e+000
1.883055e+003,-3.297615e+000
1.884020e+003,-1.216293e+000
1.884984e+003,1.177513e+000
1.885948e+003,1.740974e+000
1.886912e+003,1.409920e+000
1.887876e+003,2.231880e+000
1.888841e+003,3.994034e+000
1.889805e+003,3.621307e+000
1.890769e+003,4.142914e-001
1.891733e+003,-1.020271e+000
1.892698e+003,5.227280e-001
1.893662e+003,1.889114e+000
1.894626e+003,2.118607e+000
1.895590e+003,1.764595e+000
1.896554e+003,7.892609e-001
1.897519e+003,-2.106400e-001
1.898483e+003,-3.421249e-001
1.899447e+003,6.539154e-002
1.900411e+003,-2.017822e-001
1.901376e+003,-1.381447e+000
1.902340e+003,-2.167007e+000
1.903304e+003,-1.934212e+000
1.904268e+003,-1.421547e+000
1.905233e+003,-8.737183e-001
1.906197e+003,-4.257813e-001
1.907161e+003,-2.364502e-001
1.908125e+003,-2.227859e-001
1.909090e+003,-3.938446e-001
1.910054e+003,-6.313248e-001
1.911018e+003,-4.366226e-001
1.911982e+003,2.970428e-001
1.912947e+003,8.341980e-001
1.913911e+003,6.230164e-001
1.914875e+003,3.774185e-001
1.915839e+003,1.296318e+000
1.916803e+003,2.955002e+000
1.917768e+003,3.195457e+000
1.918732e+003,1.726967e+000
1.919696e+003,9.902649e-001
1.920660e+003,1.371758e+000
1.921625e+003,1.530060e+000
1.922589e+003,8.326721e-001
1.923553e+003,3.712769e-001
1.924517e+003,1.282814e+000
1.925481e+003,2.186333e+000
1.926446e+003,1.611671e+000
1.927410e+003,2.515564e-001
1.928374e+003,-6.586914e-001
1.929338e+003,-1.012962e+000
1.930303e+003,-7.507324e-001
1.931267e+003,4.766998e-001
1.932231e+003,1.446892e+000
1.933195e+003,1.421631e+000
1.934160e+003,1.093956e+000
1.935124e+003,5.615921e-001
1.936088e+003,3.148804e-001
1.937052e+003,1.616325e+000
1.938017e+003,3.484375e+000
1.938981e+003,3.323372e+000
1.939945e+003,1.208054e+000
1.940909e+003,-2.407074e-001
1.941874e+003,1.307526e-001
1.942838e+003,1.022491e+000
1.943802e+003,1.268318e+000
1.944766e+003,1.207809e+000
1.945730e+003,1.495995e+000
1.946695e+003,2.017906e+000
1.947659e+003,1.919983e+000
1.948623e+003,1.090256e+000
1.949587e+003,9.123077e-001
1.950552e+003,1.815125e+000
1.951516e+003,2.228699e+000
1.952480e+003,1.289925e+000
1.953444e+003,5.118637e-001
1.954408e+003,1.392868e+000
1.955373e+003,2.518402e+000
1.956337e+003,1.299660e+000
1.957301e+003,-1.243668e+000
1.958265e+003,-1.350777e+000
1.959230e+003,1.428581e+000
1.960194e+003,3.508331e+000
1.961158e+003,4.235672e+000
1.962122e+003,4.341911e+000
1.963087e+003,3.755928e+000
1.964051e+003,2.921570e+000
1.965015e+003,1.549255e+000
1.965979e+003,6.037064e-001
1.966944e+003,1.522850e+000
1.967908e+003,3.284073e+000
1.968872e+003,3.814934e+000
1.969836e+003,3.097672e+000
1.970801e+003,2.871719e+000
1.971765e+003,3.834290e+000
1.972729e+003,4.651146e+000
1.973693e+003,4.091270e+000
1.974657e+003,3.071594e+000
1.975622e+003,2.897514e+000
1.976586e+003,3.340668e+000
1.977550e+003,3.986893e+000
1.978514e+003,4.743309e+000
1.979479e+003,5.189285e+000
1.980443e+003,5.238144e+000
1.981407e+003,4.605042e+000
1.982371e+003,3.144257e+000
1.983335e+003,2.048546e+000
1.984300e+003,2.252480e+000
1.985264e+003,2.969994e+000
1.986228e+003,3.003128e+000
1.987192e+003,2.538528e+000
1.988157e+003,2.572891e+000
1.989121e+003,3.254494e+000
1.990085e+003,3.766151e+000
1.991049e+003,4.237312e+000
1.992014e+003,4.325043e+000
1.992978e+003,3.804405e+000
1.993942e+003,3.093102e+000
1.994906e+003,1.941338e+000
1.995871e+003,1.054184e+000
1.996835e+003,8.082733e-001
1.997799e+003,1.265999e+000
1.998763e+003,3.105263e+000
1.999728e+003,5.709824e+000
