5.003444e+002,3.201099e+001
5.013087e+002,3.288782e+001
5.022729e+002,3.006055e+001
5.032371e+002,2.537878e+001
5.042014e+002,2.328577e+001
5.051656e+002,2.357263e+001
5.061298e+002,2.528168e+001
5.070941e+002,2.768176e+001
5.080583e+002,3.102069e+001
5.090225e+002,3.170990e+001
5.099868e+002,2.800928e+001
5.109510e+002,2.434131e+001
5.119152e+002,2.318433e+001
5.128795e+002,2.483801e+001
5.138437e+002,2.642920e+001
5.148079e+002,2.728571e+001
5.157722e+002,2.784601e+001
5.167364e+002,2.812189e+001
5.177006e+002,2.796954e+001
5.186649e+002,2.716809e+001
5.196291e+002,2.569006e+001
5.205933e+002,2.418201e+001
5.215576e+002,2.227289e+001
5.225218e+002,1.977435e+001
5.234860e+002,1.725647e+001
5.244503e+002,1.629272e+001
5.254145e+002,1.816797e+001
5.263787e+002,1.915277e+001
5.273430e+002,1.843164e+001
5.283072e+002,1.737836e+001
5.292714e+002,1.784314e+001
5.302357e+002,2.026587e+001
5.311999e+002,2.175854e+001
5.321641e+002,2.326392e+001
5.331284e+002,2.413330e+001
5.340926e+002,2.315326e+001
5.350568e+002,1.948260e+001
5.360211e+002,1.542810e+001
5.369853e+002,1.343921e+001
5.379495e+002,1.287256e+001
5.389138e+002,1.367090e+001
5.398780e+002,1.545374e+001
5.408422e+002,1.727063e+001
5.418065e+002,1.605780e+001
5.427707e+002,1.236420e+001
5.437349e+002,1.035419e+001
5.446992e+002,1.132428e+001
5.456634e+002,1.442590e+001
5.466276e+002,1.687756e+001
5.475919e+002,1.894812e+001
5.485561e+002,2.016986e+001
5.495203e+002,2.007123e+001
5.504846e+002,1.888690e+001
5.514488e+002,1.707135e+001
5.524130e+002,1.485834e+001
5.533773e+002,1.253271e+001
5.543415e+002,9.417480e+000
5.553057e+002,6.664185e+000
5.562700e+002,5.621582e+000
5.572342e+002,7.031250e+000
5.581984e+002,9.582703e+000
5.591627e+002,1.088989e+001
5.601269e+002,1.144617e+001
5.610911e+002,1.124829e+001
5.620554e+002,1.007916e+001
5.630196e+002,7.905762e+000
5.639838e+002,6.145691e+000
5.649481e+002,4.807251e+000
5.659123e+002,3.905334e+000
5.668765e+002,4.508118e+000
5.678408e+002,6.260742e+000
5.688050e+002,7.345947e+000
5.697692e+002,6.130188e+000
5.707335e+002,4.223328e+000
5.716977e+002,2.181641e+000
5.726619e+002,1.713257e-001
5.736262e+002,-1.879211e+000
5.745904e+002,-4.120850e+000
5.755546e+002,-5.440613e+000
5.765189e+002,-4.692261e+000
5.774831e+002,-2.768555e+000
5.784473e+002,-1.082764e-001
5.794116e+002,3.163513e+000
5.803758e+002,7.120056e+000
5.813400e+002,8.006836e+000
5.823043e+002,4.553589e+000
5.832685e+002,5.993042e-001
5.842327e+002,-2.826050e+000
5.851970e+002,-5.254272e+000
5.861612e+002,-5.629883e+000
5.871254e+002,-1.876404e+000
5.880897e+002,1.281555e+000
5.890539e+002,2.548889e+000
5.900181e+002,2.420959e+000
5.909824e+002,1.985596e+000
5.919466e+002,1.979004e+000
5.929108e+002,2.227844e+000
5.938751e+002,2.746948e+000
5.948393e+002,3.226013e+000
5.958035e+002,3.119385e+000
5.967678e+002,2.117615e+000
5.977320e+002,6.223145e-001
5.986962e+002,4.951782e-001
5.996605e+002,1.234375e+000
6.006247e+002,1.428894e+000
6.015889e+002,-3.592529e-001
6.025532e+002,-3.772827e+000
6.035174e+002,-4.451111e+000
6.044816e+002,2.042603e+000
6.054459e+002,6.780884e+000
6.064101e+002,8.166626e+000
6.073743e+002,6.923340e+000
6.083386e+002,4.440491e+000
6.093028e+002,8.557739e-001
6.102670e+002,-2.413086e+000
6.112313e+002,-4.951355e+000
6.121955e+002,-6.561035e+000
6.131597e+002,-6.776245e+000
6.141240e+002,-5.327698e+000
6.150882e+002,-2.797913e+000
6.160524e+002,-1.327393e+000
6.170167e+002,-4.997559e-001
6.179809e+002,4.536133e-001
6.189451e+002,1.800171e+000
6.199094e+002,3.144836e+000
6.208736e+002,3.235901e+000
6.218378e+002,1.371216e+000
6.228021e+002,-1.885986e-002
6.237663e+002,-5.933228e-001
6.247305e+002,-4.428711e-001
6.256948e+002,1.528320e-001
6.266590e+002,9.693604e-001
6.276232e+002,1.269958e+000
6.285875e+002,9.431763e-001
6.295517e+002,5.394897e-001
6.305159e+002,5.063477e-001
6.314802e+002,9.363403e-001
6.324444e+002,1.330688e+000
6.334086e+002,1.055969e+000
6.343729e+002,5.722656e-001
6.353371e+002,-3.195190e-001
6.363013e+002,-1.927734e+000
6.372656e+002,-4.091370e+000
6.382298e+002,-5.827393e+000
6.391940e+002,-7.270447e+000
6.401583e+002,-8.314270e+000
6.411225e+002,-8.467346e+000
6.420867e+002,-7.499756e+000
6.430510e+002,-5.099731e+000
6.440152e+002,-9.135132e-001
6.449794e+002,1.966797e+000
6.459437e+002,2.121338e+000
6.469079e+002,6.376343e-001
6.478721e+002,-2.144775e+000
6.488364e+002,-5.699402e+000
6.498006e+002,-8.954041e+000
6.507648e+002,-1.006091e+001
6.517291e+002,-9.743347e+000
6.526933e+002,-9.373718e+000
6.536575e+002,-9.258057e+000
6.546218e+002,-8.892029e+000
6.555860e+002,-7.132996e+000
6.565502e+002,-2.426270e+000
6.575145e+002,-3.881836e-002
6.584787e+002,-1.747314e+000
6.594429e+002,-3.960327e+000
6.604072e+002,-3.114746e+000
6.613714e+002,1.773254e+000
6.623356e+002,4.659790e+000
6.632999e+002,5.948486e-001
6.642641e+002,-4.997009e+000
6.652283e+002,-1.025641e+001
6.661926e+002,-1.394946e+001
6.671568e+002,-1.495422e+001
6.681210e+002,-1.130774e+001
6.690853e+002,-4.929077e+000
6.700495e+002,-4.900513e-001
6.710137e+002,1.963257e+000
6.719780e+002,3.229736e+000
6.729422e+002,4.056091e+000
6.739064e+002,4.188477e+000
6.748707e+002,4.204590e+000
6.758349e+002,5.719849e+000
6.767991e+002,5.234680e+000
6.777634e+002,-1.207275e-001
6.787276e+002,-9.036865e+000
6.796918e+002,-1.443634e+001
6.806561e+002,-1.181335e+001
6.816203e+002,-7.840576e+000
6.825845e+002,-3.828064e+000
6.835488e+002,-5.085449e-001
6.845130e+002,1.365906e+000
6.854772e+002,1.227966e+000
6.864415e+002,1.987305e-001
6.874057e+002,-8.325195e-002
6.883699e+002,-2.393188e-001
6.893342e+002,-3.782349e-001
6.902984e+002,-3.455200e-001
6.912626e+002,-1.901855e-001
6.922269e+002,-1.294128e+000
6.931911e+002,-5.720032e+000
6.941553e+002,-7.078674e+000
6.951196e+002,-2.763367e+000
6.960838e+002,3.355103e+000
6.970480e+002,5.005493e+000
6.980123e+002,-9.702148e-001
6.989765e+002,-5.990234e+000
6.999407e+002,-5.537415e+000
7.009050e+002,-3.718750e+000
7.018692e+002,-4.364014e+000
7.028334e+002,-8.492188e+000
7.037977e+002,-1.307147e+001
7.047619e+002,-1.257172e+001
7.057261e+002,-8.464966e+000
7.066904e+002,-3.835938e+000
7.076546e+002,7.750244e-001
7.086188e+002,4.321106e+000
7.095831e+002,4.945862e+000
7.105473e+002,1.127258e+000
7.115115e+002,-1.894836e+000
7.124758e+002,-5.063354e+000
7.134400e+002,-7.080261e+000
7.144042e+002,-6.285156e+000
7.153685e+002,-2.583557e+000
7.163327e+002,6.470337e-001
7.172969e+002,1.717407e+000
7.182612e+002,2.178650e+000
7.192254e+002,1.897400e+000
7.201896e+002,1.264038e+000
7.211539e+002,1.121033e+000
7.221181e+002,2.374939e+000
7.230823e+002,4.078674e+000
7.240466e+002,3.401794e+000
7.250108e+002,1.305725e+000
7.259750e+002,-2.514648e-002
7.269393e+002,3.095703e-001
7.279035e+002,1.597778e+000
7.288677e+002,2.113220e+000
7.298320e+002,3.353333e+000
7.307962e+002,3.849426e+000
7.317604e+002,3.017822e+000
7.327247e+002,1.698120e+000
7.336889e+002,6.389771e-001
7.346531e+002,-6.605225e-001
7.356174e+002,-2.521423e+000
7.365816e+002,-4.375977e+000
7.375458e+002,-5.585510e+000
7.385101e+002,-5.588989e+000
7.394743e+002,-4.364685e+000
7.404385e+002,-2.534729e+000
7.414028e+002,-1.282837e+000
7.423670e+002,-1.288208e+000
7.433312e+002,-7.706909e-001
7.442955e+002,1.230713e+000
7.452597e+002,3.715942e+000
7.462239e+002,5.029663e+000
7.471882e+002,4.403931e+000
7.481524e+002,4.909607e+000
7.491166e+002,7.198181e+000
7.500809e+002,8.261597e+000
7.510451e+002,6.245605e+000
7.520093e+002,1.973572e+000
7.529736e+002,-1.496216e+000
7.539378e+002,-1.882446e+000
7.549020e+002,-1.041870e+000
7.558663e+002,1.586914e-002
7.568306e+002,1.091125e+000
7.577948e+002,1.513184e+000
7.587590e+002,8.227539e-001
7.597233e+002,-3.490601e-001
7.606875e+002,2.060730e+000
7.616517e+002,7.785583e+000
7.626160e+002,1.009564e+001
7.635802e+002,6.126343e+000
7.645444e+002,-7.761230e-001
7.655087e+002,-3.597656e+000
7.664729e+002,-1.878052e-001
7.674371e+002,2.532898e+000
7.684014e+002,4.328430e+000
7.693656e+002,5.159729e+000
7.703298e+002,4.507202e+000
7.712941e+002,2.653137e+000
7.722583e+002,1.474915e+000
7.732225e+002,2.813721e+000
7.741868e+002,4.946167e+000
7.751510e+002,6.833252e+000
7.761152e+002,8.354187e+000
7.770795e+002,9.568542e+000
7.780437e+002,1.046326e+001
7.790079e+002,1.082251e+001
7.799722e+002,9.564819e+000
7.809364e+002,6.561768e+000
7.819006e+002,3.783508e+000
7.828649e+002,2.277771e+000
7.838291e+002,2.075378e+000
7.847933e+002,2.521545e+000
7.857576e+002,3.498413e+000
7.867218e+002,3.759705e+000
7.876860e+002,3.292969e+000
7.886503e+002,2.938721e+000
7.896145e+002,3.574280e+000
7.905787e+002,5.328674e+000
7.915430e+002,7.023743e+000
7.925072e+002,6.446594e+000
7.934714e+002,4.798950e+000
7.944357e+002,4.061951e+000
7.953999e+002,4.614380e+000
7.963641e+002,5.773132e+000
7.973284e+002,6.587524e+000
7.982926e+002,7.034607e+000
7.992568e+002,7.649536e+000
8.002211e+002,7.926758e+000
8.011853e+002,6.994141e+000
8.021495e+002,4.531799e+000
8.031138e+002,1.908203e+000
8.040780e+002,1.745422e+000
8.050422e+002,4.499817e+000
8.060065e+002,8.592529e+000
8.069707e+002,1.507300e+001
8.079349e+002,2.090533e+001
8.088992e+002,2.320520e+001
8.098634e+002,2.128925e+001
8.108276e+002,1.726923e+001
8.117919e+002,1.235791e+001
8.127561e+002,6.949524e+000
8.137203e+002,4.075500e+000
8.146846e+002,4.552063e+000
8.156488e+002,6.163818e+000
8.166130e+002,5.650330e+000
8.175773e+002,2.061890e+000
8.185415e+002,1.309631e+000
8.195057e+002,4.924194e+000
8.204700e+002,7.954651e+000
8.214342e+002,8.595764e+000
8.223984e+002,7.419067e+000
8.233627e+002,5.942078e+000
8.243269e+002,4.182739e+000
8.252911e+002,3.729980e+000
8.262554e+002,5.989197e+000
8.272196e+002,9.217407e+000
8.281838e+002,1.170154e+001
8.291481e+002,1.273151e+001
8.301123e+002,1.272308e+001
8.310765e+002,1.219855e+001
8.320408e+002,1.111890e+001
8.330050e+002,1.051630e+001
8.339692e+002,1.052985e+001
8.349335e+002,1.118176e+001
8.358977e+002,1.310913e+001
8.368619e+002,1.700995e+001
8.378262e+002,1.924377e+001
8.387904e+002,1.725470e+001
8.397546e+002,1.558319e+001
8.407189e+002,1.532123e+001
8.416831e+002,1.623926e+001
8.426473e+002,1.791125e+001
8.436116e+002,2.040369e+001
8.445758e+002,2.290826e+001
8.455400e+002,2.454150e+001
8.465043e+002,2.468658e+001
8.474685e+002,2.263782e+001
8.484327e+002,1.890399e+001
8.493970e+002,1.521375e+001
8.503612e+002,1.384106e+001
8.513254e+002,1.497833e+001
8.522897e+002,1.587085e+001
8.532539e+002,1.646429e+001
8.542181e+002,1.628339e+001
8.551824e+002,1.510486e+001
8.561466e+002,1.363635e+001
8.571108e+002,1.361237e+001
8.580751e+002,1.443164e+001
8.590393e+002,1.560229e+001
8.600035e+002,1.812177e+001
8.609678e+002,2.117944e+001
8.619320e+002,2.356812e+001
8.628962e+002,2.480121e+001
8.638605e+002,2.588977e+001
8.648247e+002,2.846851e+001
8.657889e+002,3.201660e+001
8.667532e+002,3.679266e+001
8.677174e+002,4.277637e+001
8.686816e+002,4.608441e+001
8.696459e+002,4.135773e+001
8.706101e+002,2.697498e+001
8.715743e+002,1.925592e+001
8.725386e+002,2.143390e+001
8.735028e+002,2.543506e+001
8.744670e+002,3.062994e+001
8.754313e+002,3.529578e+001
8.763955e+002,3.651416e+001
8.773597e+002,3.252191e+001
8.783240e+002,2.888794e+001
8.792882e+002,2.971234e+001
8.802524e+002,3.216412e+001
8.812167e+002,3.460254e+001
8.821809e+002,3.626245e+001
8.831451e+002,3.658112e+001
8.841094e+002,3.472412e+001
8.850736e+002,3.127887e+001
8.860378e+002,3.097217e+001
8.870021e+002,3.420581e+001
8.879663e+002,3.750415e+001
8.889305e+002,3.879822e+001
8.898948e+002,3.824829e+001
8.908590e+002,3.740686e+001
8.918232e+002,3.629755e+001
8.927875e+002,3.593854e+001
8.937517e+002,3.680994e+001
8.947159e+002,3.824683e+001
8.956802e+002,3.957837e+001
8.966444e+002,4.031104e+001
8.976086e+002,4.015979e+001
8.985729e+002,3.897034e+001
8.995371e+002,3.769464e+001
9.005013e+002,3.707697e+001
9.014656e+002,3.741632e+001
9.024298e+002,3.907648e+001
9.033940e+002,4.220215e+001
9.043583e+002,4.607288e+001
9.053225e+002,4.809253e+001
9.062867e+002,4.627454e+001
9.072510e+002,4.426025e+001
9.082152e+002,4.248444e+001
9.091794e+002,4.142847e+001
9.101437e+002,4.130042e+001
9.111079e+002,4.207935e+001
9.120721e+002,4.389337e+001
9.130364e+002,4.798859e+001
9.140006e+002,5.124249e+001
9.149648e+002,5.202087e+001
9.159291e+002,5.114917e+001
9.168933e+002,4.973926e+001
9.178575e+002,4.838525e+001
9.188218e+002,4.727795e+001
9.197860e+002,4.852795e+001
9.207502e+002,5.204901e+001
9.217145e+002,5.320123e+001
9.226787e+002,5.031427e+001
9.236429e+002,4.664026e+001
9.246072e+002,4.658850e+001
9.255714e+002,5.081451e+001
9.265356e+002,5.312347e+001
9.274999e+002,5.020355e+001
9.284641e+002,4.727832e+001
9.294283e+002,4.694543e+001
9.303926e+002,4.810651e+001
9.313568e+002,4.836847e+001
9.323210e+002,4.644537e+001
9.332853e+002,4.331201e+001
9.342495e+002,3.952216e+001
9.352137e+002,3.570099e+001
9.361780e+002,3.367487e+001
9.371422e+002,3.417743e+001
9.381064e+002,3.629504e+001
9.390707e+002,3.844342e+001
9.400349e+002,4.022046e+001
9.409991e+002,4.109009e+001
9.419634e+002,3.994879e+001
9.429276e+002,3.917511e+001
9.438918e+002,4.000897e+001
9.448561e+002,4.160510e+001
9.458203e+002,4.245288e+001
9.467845e+002,4.216364e+001
9.477488e+002,4.187274e+001
9.487130e+002,4.126855e+001
9.496772e+002,4.158905e+001
9.506415e+002,4.492175e+001
9.516057e+002,5.055640e+001
9.525699e+002,5.544110e+001
9.535342e+002,5.652570e+001
9.544984e+002,5.408783e+001
9.554626e+002,5.205145e+001
9.564269e+002,5.089130e+001
9.573911e+002,5.104730e+001
9.583553e+002,5.262054e+001
9.593196e+002,5.527362e+001
9.602838e+002,5.897839e+001
9.612480e+002,6.422247e+001
9.622123e+002,6.761462e+001
9.631765e+002,6.875116e+001
9.641407e+002,6.775098e+001
9.651050e+002,6.251654e+001
9.660692e+002,5.502020e+001
9.670334e+002,4.927740e+001
9.679977e+002,4.808136e+001
9.689619e+002,5.011548e+001
9.699261e+002,5.267261e+001
9.708904e+002,5.500775e+001
9.718546e+002,5.581781e+001
9.728188e+002,5.445758e+001
9.737831e+002,5.196906e+001
9.747473e+002,4.957043e+001
9.757115e+002,4.714313e+001
9.766758e+002,4.652539e+001
9.776400e+002,5.041577e+001
9.786042e+002,5.366681e+001
9.795685e+002,5.450586e+001
9.805327e+002,5.355493e+001
9.814969e+002,5.166437e+001
9.824612e+002,4.941913e+001
9.834254e+002,4.861932e+001
9.843896e+002,5.241901e+001
9.853539e+002,5.688440e+001
9.863181e+002,5.686737e+001
9.872823e+002,5.270868e+001
9.882466e+002,4.888007e+001
9.892108e+002,4.964142e+001
9.901750e+002,5.524512e+001
9.911393e+002,6.228656e+001
9.921035e+002,7.099719e+001
9.930677e+002,7.770758e+001
9.940320e+002,8.173828e+001
9.949962e+002,8.517316e+001
9.959604e+002,8.966016e+001
9.969247e+002,9.544031e+001
9.978889e+002,1.021053e+002
9.988531e+002,1.097858e+002
9.998174e+002,1.161672e+002
1.000782e+003,1.200101e+002
1.001746e+003,1.226292e+002
1.002710e+003,1.262112e+002
1.003674e+003,1.313436e+002
1.004639e+003,1.358360e+002
1.005603e+003,1.356761e+002
1.006567e+003,1.300945e+002
1.007531e+003,1.254381e+002
1.008495e+003,1.216516e+002
1.009460e+003,1.189393e+002
1.010424e+003,1.176542e+002
1.011388e+003,1.177926e+002
1.012352e+003,1.193241e+002
1.013317e+003,1.241612e+002
1.014281e+003,1.255145e+002
1.015245e+003,1.190466e+002
1.016209e+003,1.106453e+002
1.017174e+003,1.051704e+002
1.018138e+003,1.025291e+002
1.019102e+003,9.870099e+001
1.020066e+003,9.021667e+001
1.021031e+003,7.976611e+001
1.021995e+003,7.487689e+001
1.022959e+003,7.381775e+001
1.023923e+003,7.115375e+001
1.024887e+003,6.457074e+001
1.025852e+003,5.629413e+001
1.026816e+003,4.993829e+001
1.027780e+003,4.611987e+001
1.028744e+003,4.339502e+001
1.029709e+003,4.138135e+001
1.030673e+003,4.051465e+001
1.031637e+003,4.226422e+001
1.032601e+003,4.437762e+001
1.033566e+003,4.356775e+001
1.034530e+003,3.892938e+001
1.035494e+003,3.382025e+001
1.036458e+003,3.124713e+001
1.037422e+003,3.070154e+001
1.038387e+003,3.208514e+001
1.039351e+003,3.492102e+001
1.040315e+003,3.713843e+001
1.041279e+003,3.734338e+001
1.042244e+003,3.612451e+001
1.043208e+003,3.520013e+001
1.044172e+003,3.320978e+001
1.045136e+003,3.303503e+001
1.046101e+003,3.719153e+001
1.047065e+003,4.114221e+001
1.048029e+003,4.168073e+001
1.048993e+003,3.911816e+001
1.049958e+003,3.564111e+001
1.050922e+003,3.175421e+001
1.051886e+003,2.951685e+001
1.052850e+003,3.213177e+001
1.053814e+003,3.670001e+001
1.054779e+003,3.960602e+001
1.055743e+003,3.995453e+001
1.056707e+003,3.892621e+001
1.057671e+003,3.793488e+001
1.058636e+003,3.687158e+001
1.059600e+003,3.567267e+001
1.060564e+003,3.428931e+001
1.061528e+003,3.417773e+001
1.062493e+003,3.600812e+001
1.063457e+003,3.788220e+001
1.064421e+003,3.790540e+001
1.065385e+003,3.611115e+001
1.066349e+003,3.433838e+001
1.067314e+003,3.330664e+001
1.068278e+003,3.292572e+001
1.069242e+003,3.319678e+001
1.070206e+003,3.423676e+001
1.071171e+003,3.634045e+001
1.072135e+003,3.922083e+001
1.073099e+003,4.171356e+001
1.074063e+003,4.230548e+001
1.075028e+003,4.109448e+001
1.075992e+003,3.828748e+001
1.076956e+003,3.147473e+001
1.077920e+003,2.637073e+001
1.078885e+003,2.648682e+001
1.079849e+003,2.986890e+001
1.080813e+003,3.270673e+001
1.081777e+003,3.450391e+001
1.082741e+003,3.620728e+001
1.083706e+003,3.804053e+001
1.084670e+003,3.896649e+001
1.085634e+003,3.827740e+001
1.086598e+003,3.623108e+001
1.087563e+003,3.328882e+001
1.088527e+003,3.005359e+001
1.089491e+003,2.732739e+001
1.090455e+003,2.580774e+001
1.091420e+003,2.522034e+001
1.092384e+003,2.661676e+001
1.093348e+003,3.054694e+001
1.094312e+003,3.460718e+001
1.095276e+003,3.826501e+001
1.096241e+003,4.160339e+001
1.097205e+003,4.387842e+001
1.098169e+003,4.468250e+001
1.099133e+003,4.405408e+001
1.100098e+003,4.120184e+001
1.101062e+003,3.830261e+001
1.102026e+003,3.649402e+001
1.102990e+003,3.588513e+001
1.103955e+003,3.604340e+001
1.104919e+003,3.660565e+001
1.105883e+003,3.774786e+001
1.106847e+003,4.055530e+001
1.107812e+003,4.490216e+001
1.108776e+003,4.682849e+001
1.109740e+003,4.490735e+001
1.110704e+003,4.321033e+001
1.111668e+003,4.551581e+001
1.112633e+003,5.120996e+001
1.113597e+003,5.630798e+001
1.114561e+003,6.054718e+001
1.115525e+003,6.271381e+001
1.116490e+003,6.076959e+001
1.117454e+003,5.839655e+001
1.118418e+003,5.775385e+001
1.119382e+003,5.941486e+001
1.120347e+003,6.376428e+001
1.121311e+003,7.058197e+001
1.122275e+003,7.658411e+001
1.123239e+003,7.541724e+001
1.124203e+003,6.855865e+001
1.125168e+003,6.644171e+001
1.126132e+003,7.127539e+001
1.127096e+003,7.753558e+001
1.128060e+003,8.047485e+001
1.129025e+003,8.081488e+001
1.129989e+003,8.322198e+001
1.130953e+003,8.945636e+001
1.131917e+003,9.376038e+001
1.132882e+003,9.239648e+001
1.133846e+003,9.149817e+001
1.134810e+003,9.534698e+001
1.135774e+003,1.028792e+002
1.136739e+003,1.103618e+002
1.137703e+003,1.156677e+002
1.138667e+003,1.207457e+002
1.139631e+003,1.295574e+002
1.140595e+003,1.415449e+002
1.141560e+003,1.518850e+002
1.142524e+003,1.596320e+002
1.143488e+003,1.699963e+002
1.144452e+003,1.864390e+002
1.145417e+003,2.081130e+002
1.146381e+003,2.325265e+002
1.147345e+003,2.611356e+002
1.148309e+003,2.877632e+002
1.149274e+003,3.069962e+002
1.150238e+003,3.285641e+002
1.151202e+003,3.612712e+002
1.152166e+003,3.997956e+002
1.153130e+003,4.345949e+002
1.154095e+003,4.603861e+002
1.155059e+003,4.770826e+002
1.156023e+003,4.851125e+002
1.156987e+003,4.845309e+002
1.157952e+003,4.783235e+002
1.158916e+003,4.672312e+002
1.159880e+003,4.531807e+002
1.160844e+003,4.360038e+002
1.161809e+003,4.148810e+002
1.162773e+003,3.889871e+002
1.163737e+003,3.571516e+002
1.164701e+003,3.261725e+002
1.165666e+003,2.964412e+002
1.166630e+003,2.702048e+002
1.167594e+003,2.475461e+002
1.168558e+003,2.291371e+002
1.169522e+003,2.168305e+002
1.170487e+003,2.105272e+002
1.171451e+003,2.071190e+002
1.172415e+003,2.031150e+002
1.173379e+003,1.986701e+002
1.174344e+003,1.956807e+002
1.175308e+003,1.943964e+002
1.176272e+003,1.929916e+002
1.177236e+003,1.911450e+002
1.178201e+003,1.890716e+002
1.179165e+003,1.869133e+002
1.180129e+003,1.842728e+002
1.181093e+003,1.798024e+002
1.182057e+003,1.719631e+002
1.183022e+003,1.647270e+002
1.183986e+003,1.589169e+002
1.184950e+003,1.548287e+002
1.185914e+003,1.534896e+002
1.186879e+003,1.544796e+002
1.187843e+003,1.557596e+002
1.188807e+003,1.554680e+002
1.189771e+003,1.544364e+002
1.190736e+003,1.564012e+002
1.191700e+003,1.618654e+002
1.192664e+003,1.640670e+002
1.193628e+003,1.617360e+002
1.194593e+003,1.576670e+002
1.195557e+003,1.531646e+002
1.196521e+003,1.482958e+002
1.197485e+003,1.434019e+002
1.198449e+003,1.382389e+002
1.199414e+003,1.343752e+002
1.200378e+003,1.348400e+002
1.201342e+003,1.348174e+002
1.202306e+003,1.297606e+002
1.203271e+003,1.216487e+002
1.204235e+003,1.156855e+002
1.205199e+003,1.143203e+002
1.206163e+003,1.143788e+002
1.207128e+003,1.102312e+002
1.208092e+003,1.016253e+002
1.209056e+003,9.579840e+001
1.210020e+003,9.484485e+001
1.210984e+003,9.215125e+001
1.211949e+003,8.470709e+001
1.212913e+003,7.496381e+001
1.213877e+003,6.550500e+001
1.214841e+003,5.679724e+001
1.215806e+003,5.084119e+001
1.216770e+003,5.020996e+001
1.217734e+003,4.940863e+001
1.218698e+003,4.274902e+001
1.219663e+003,3.439203e+001
1.220627e+003,2.948285e+001
1.221591e+003,2.892688e+001
1.222555e+003,3.085071e+001
1.223520e+003,3.375110e+001
1.224484e+003,3.714258e+001
1.225448e+003,3.766974e+001
1.226412e+003,3.342346e+001
1.227376e+003,3.010864e+001
1.228341e+003,2.832532e+001
1.229305e+003,2.640088e+001
1.230269e+003,2.299847e+001
1.231233e+003,1.887994e+001
1.232198e+003,1.552264e+001
1.233162e+003,1.347198e+001
1.234126e+003,1.360760e+001
1.235090e+003,1.797131e+001
1.236055e+003,2.281714e+001
1.237019e+003,2.418152e+001
1.237983e+003,2.264099e+001
1.238947e+003,1.997308e+001
1.239911e+003,1.721716e+001
1.240876e+003,1.562494e+001
1.241840e+003,1.705591e+001
1.242804e+003,2.176672e+001
1.243768e+003,2.524121e+001
1.244733e+003,2.706183e+001
1.245697e+003,2.805817e+001
1.246661e+003,2.714496e+001
1.247625e+003,2.548822e+001
1.248590e+003,2.309357e+001
1.249554e+003,2.140186e+001
1.250518e+003,2.424353e+001
1.251482e+003,3.358173e+001
1.252447e+003,4.203040e+001
1.253411e+003,3.865009e+001
1.254375e+003,2.982599e+001
1.255339e+003,2.954468e+001
1.256303e+003,3.828906e+001
1.257268e+003,4.716461e+001
1.258232e+003,5.094849e+001
1.259196e+003,5.091229e+001
1.260160e+003,4.948352e+001
1.261125e+003,4.627960e+001
1.262089e+003,4.717340e+001
1.263053e+003,5.782544e+001
1.264017e+003,6.524792e+001
1.264982e+003,6.467651e+001
1.265946e+003,6.125226e+001
1.266910e+003,5.912677e+001
1.267874e+003,5.913623e+001
1.268839e+003,6.102673e+001
1.269803e+003,6.473547e+001
1.270767e+003,6.813013e+001
1.271731e+003,6.672998e+001
1.272695e+003,6.081372e+001
1.273660e+003,5.552924e+001
1.274624e+003,4.997864e+001
1.275588e+003,4.558087e+001
1.276552e+003,4.493048e+001
1.277517e+003,4.607941e+001
1.278481e+003,4.437427e+001
1.279445e+003,3.916187e+001
1.280409e+003,3.452832e+001
1.281374e+003,3.145148e+001
1.282338e+003,2.997803e+001
1.283302e+003,3.146808e+001
1.284266e+003,3.345453e+001
1.285230e+003,3.269861e+001
1.286195e+003,2.915399e+001
1.287159e+003,2.560608e+001
1.288123e+003,2.455695e+001
1.289087e+003,2.560645e+001
1.290052e+003,2.662915e+001
1.291016e+003,2.752783e+001
1.291980e+003,2.711945e+001
1.292944e+003,2.300311e+001
1.293909e+003,1.987750e+001
1.294873e+003,2.151154e+001
1.295837e+003,2.486902e+001
1.296801e+003,2.497308e+001
1.297766e+003,2.144788e+001
1.298730e+003,1.869653e+001
1.299694e+003,1.861304e+001
1.300658e+003,2.018927e+001
1.301622e+003,2.456232e+001
1.302587e+003,2.932129e+001
1.303551e+003,2.926904e+001
1.304515e+003,2.414587e+001
1.305479e+003,1.947852e+001
1.306444e+003,1.946722e+001
1.307408e+003,2.278662e+001
1.308372e+003,2.612891e+001
1.309336e+003,3.040631e+001
1.310301e+003,3.163379e+001
1.311265e+003,2.748682e+001
1.312229e+003,2.357184e+001
1.313193e+003,2.088019e+001
1.314157e+003,1.941479e+001
1.315122e+003,2.007123e+001
1.316086e+003,2.187292e+001
1.317050e+003,2.109198e+001
1.318014e+003,1.518719e+001
1.318979e+003,8.579346e+000
1.319943e+003,9.761230e+000
1.320907e+003,1.789209e+001
1.321871e+003,2.248730e+001
1.322836e+003,2.178619e+001
1.323800e+003,2.005847e+001
1.324764e+003,1.920258e+001
1.325728e+003,1.910236e+001
1.326693e+003,1.955194e+001
1.327657e+003,2.028644e+001
1.328621e+003,2.042834e+001
1.329585e+003,2.110773e+001
1.330549e+003,2.165570e+001
1.331514e+003,1.931525e+001
1.332478e+003,1.642944e+001
1.333442e+003,1.603815e+001
1.334406e+003,1.803339e+001
1.335371e+003,2.006897e+001
1.336335e+003,2.072284e+001
1.337299e+003,2.117999e+001
1.338263e+003,2.372876e+001
1.339228e+003,2.892462e+001
1.340192e+003,3.114117e+001
1.341156e+003,2.785712e+001
1.342120e+003,2.548517e+001
1.343084e+003,2.544690e+001
1.344049e+003,2.526984e+001
1.345013e+003,2.257843e+001
1.345977e+003,1.868451e+001
1.346941e+003,1.736676e+001
1.347906e+003,2.004974e+001
1.348870e+003,2.355048e+001
1.349834e+003,2.507971e+001
1.350798e+003,2.493915e+001
1.351763e+003,2.440540e+001
1.352727e+003,2.361255e+001
1.353691e+003,2.233679e+001
1.354655e+003,2.030634e+001
1.355620e+003,1.866418e+001
1.356584e+003,1.900854e+001
1.357548e+003,2.129333e+001
1.358512e+003,2.382642e+001
1.359476e+003,2.663336e+001
1.360441e+003,2.769012e+001
1.361405e+003,2.531201e+001
1.362369e+003,2.293018e+001
1.363333e+003,2.262610e+001
1.364298e+003,2.322711e+001
1.365262e+003,2.287756e+001
1.366226e+003,2.120612e+001
1.367190e+003,1.923059e+001
1.368155e+003,1.784357e+001
1.369119e+003,1.699835e+001
1.370083e+003,1.667670e+001
1.371047e+003,1.721118e+001
1.372011e+003,1.813837e+001
1.372976e+003,1.873553e+001
1.373940e+003,1.954578e+001
1.374904e+003,2.188446e+001
1.375868e+003,2.427209e+001
1.376833e+003,2.403918e+001
1.377797e+003,2.132697e+001
1.378761e+003,1.949841e+001
1.379725e+003,2.022998e+001
1.380690e+003,2.188251e+001
1.381654e+003,2.360492e+001
1.382618e+003,2.498926e+001
1.383582e+003,2.454285e+001
1.384547e+003,2.267401e+001
1.385511e+003,2.263782e+001
1.386475e+003,2.624084e+001
1.387439e+003,3.096582e+001
1.388403e+003,3.304767e+001
1.389368e+003,3.243896e+001
1.390332e+003,3.193646e+001
1.391296e+003,3.239380e+001
1.392260e+003,3.203790e+001
1.393225e+003,2.909662e+001
1.394189e+003,2.653571e+001
1.395153e+003,2.665027e+001
1.396117e+003,2.804169e+001
1.397082e+003,2.805713e+001
1.398046e+003,2.644226e+001
1.399010e+003,2.586768e+001
1.399974e+003,2.855402e+001
1.400938e+003,3.250189e+001
1.401903e+003,3.292859e+001
1.402867e+003,3.003192e+001
1.403831e+003,2.885370e+001
1.404795e+003,2.937665e+001
1.405760e+003,3.022449e+001
1.406724e+003,3.032074e+001
1.407688e+003,2.920209e+001
1.408652e+003,2.680225e+001
1.409617e+003,2.405389e+001
1.410581e+003,2.290918e+001
1.411545e+003,2.432684e+001
1.412509e+003,2.636603e+001
1.413474e+003,2.691217e+001
1.414438e+003,2.614911e+001
1.415402e+003,2.506165e+001
1.416366e+003,2.428381e+001
1.417330e+003,2.513556e+001
1.418295e+003,2.874945e+001
1.419259e+003,3.187421e+001
1.420223e+003,2.870453e+001
1.421187e+003,2.059521e+001
1.422152e+003,1.886505e+001
1.423116e+003,2.659161e+001
1.424080e+003,3.325659e+001
1.425044e+003,3.521667e+001
1.426009e+003,3.527820e+001
1.426973e+003,3.291699e+001
1.427937e+003,3.019427e+001
1.428901e+003,2.987787e+001
1.429865e+003,3.210785e+001
1.430830e+003,3.484113e+001
1.431794e+003,3.647583e+001
1.432758e+003,3.726117e+001
1.433722e+003,3.829993e+001
1.434687e+003,4.032813e+001
1.435651e+003,4.324866e+001
1.436615e+003,4.644049e+001
1.437579e+003,4.788257e+001
1.438544e+003,4.629712e+001
1.439508e+003,4.449866e+001
1.440472e+003,4.526465e+001
1.441436e+003,4.754425e+001
1.442401e+003,4.837634e+001
1.443365e+003,4.703979e+001
1.444329e+003,4.580347e+001
1.445293e+003,4.649091e+001
1.446257e+003,4.850110e+001
1.447222e+003,5.126660e+001
1.448186e+003,5.418018e+001
1.449150e+003,5.352087e+001
1.450114e+003,4.782098e+001
1.451079e+003,4.250269e+001
1.452043e+003,4.038367e+001
1.453007e+003,4.084033e+001
1.453971e+003,4.391180e+001
1.454936e+003,4.870703e+001
1.455900e+003,5.004993e+001
1.456864e+003,4.602869e+001
1.457828e+003,4.249023e+001
1.458792e+003,4.362799e+001
1.459757e+003,4.518005e+001
1.460721e+003,4.301331e+001
1.461685e+003,3.878040e+001
1.462649e+003,3.660858e+001
1.463614e+003,3.757422e+001
1.464578e+003,3.841272e+001
1.465542e+003,3.570300e+001
1.466506e+003,3.108423e+001
1.467471e+003,3.025507e+001
1.468435e+003,3.461035e+001
1.469399e+003,3.877515e+001
1.470363e+003,4.118298e+001
1.471328e+003,4.397394e+001
1.472292e+003,4.958276e+001
1.473256e+003,5.284668e+001
1.474220e+003,4.847192e+001
1.475184e+003,4.059790e+001
1.476149e+003,3.684479e+001
1.477113e+003,3.916553e+001
1.478077e+003,4.325281e+001
1.479041e+003,4.539636e+001
1.480006e+003,4.651337e+001
1.480970e+003,4.845483e+001
1.481934e+003,5.083984e+001
1.482898e+003,5.330688e+001
1.483863e+003,5.523474e+001
1.484827e+003,5.782526e+001
1.485791e+003,6.354468e+001
1.486755e+003,6.908984e+001
1.487719e+003,7.064758e+001
1.488684e+003,6.892731e+001
1.489648e+003,6.650330e+001
1.490612e+003,6.459070e+001
1.491576e+003,6.516846e+001
1.492541e+003,7.006104e+001
1.493505e+003,7.739008e+001
1.494469e+003,8.365356e+001
1.495433e+003,8.837549e+001
1.496398e+003,9.161450e+001
1.497362e+003,9.349896e+001
1.498326e+003,9.640710e+001
1.499290e+003,1.001023e+002
1.500255e+003,1.063519e+002
1.501219e+003,1.193171e+002
1.502183e+003,1.373242e+002
1.503147e+003,1.506488e+002
1.504111e+003,1.558650e+002
1.505076e+003,1.630961e+002
1.506040e+003,1.791437e+002
1.507004e+003,1.992421e+002
1.507968e+003,2.174492e+002
1.508933e+003,2.359899e+002
1.509897e+003,2.602219e+002
1.510861e+003,2.917233e+002
1.511825e+003,3.259254e+002
1.512790e+003,3.587035e+002
1.513754e+003,3.921443e+002
1.514718e+003,4.326819e+002
1.515682e+003,4.797052e+002
1.516646e+003,5.212399e+002
1.517611e+003,5.560963e+002
1.518575e+003,5.877109e+002
1.519539e+003,6.187872e+002
1.520503e+003,6.463259e+002
1.521468e+003,6.708215e+002
1.522432e+003,6.890896e+002
1.523396e+003,6.963986e+002
1.524360e+003,6.928414e+002
1.525325e+003,6.831660e+002
1.526289e+003,6.706836e+002
1.527253e+003,6.538561e+002
1.528217e+003,6.292638e+002
1.529182e+003,5.972971e+002
1.530146e+003,5.634875e+002
1.531110e+003,5.285891e+002
1.532074e+003,4.890735e+002
1.533039e+003,4.412716e+002
1.534003e+003,3.909882e+002
1.534967e+003,3.388464e+002
1.535931e+003,2.891572e+002
1.536896e+003,2.447693e+002
1.537860e+003,2.071632e+002
1.538824e+003,1.786179e+002
1.539788e+003,1.595570e+002
1.540752e+003,1.443525e+002
1.541717e+003,1.257410e+002
1.542681e+003,1.054584e+002
1.543645e+003,9.253430e+001
1.544609e+003,9.111090e+001
1.545573e+003,8.840234e+001
1.546538e+003,8.322095e+001
1.547502e+003,7.677979e+001
1.548466e+003,6.865295e+001
1.549430e+003,6.156805e+001
1.550395e+003,5.797437e+001
1.551359e+003,5.714441e+001
1.552323e+003,5.775342e+001
1.553287e+003,5.914142e+001
1.554252e+003,5.854822e+001
1.555216e+003,5.293335e+001
1.556180e+003,4.511938e+001
1.557144e+003,4.207874e+001
1.558109e+003,4.423529e+001
1.559073e+003,4.531372e+001
1.560037e+003,4.392993e+001
1.561001e+003,4.233459e+001
1.561966e+003,4.273419e+001
1.562930e+003,4.336292e+001
1.563894e+003,4.135474e+001
1.564858e+003,3.786804e+001
1.565823e+003,3.706360e+001
1.566787e+003,3.938898e+001
1.567751e+003,3.889160e+001
1.568715e+003,3.116882e+001
1.569679e+003,2.322412e+001
1.570644e+003,2.423053e+001
1.571608e+003,3.133423e+001
1.572572e+003,3.771509e+001
1.573536e+003,4.357520e+001
1.574500e+003,4.705927e+001
1.575465e+003,4.660162e+001
1.576429e+003,4.463708e+001
1.577393e+003,4.208630e+001
1.578357e+003,3.946948e+001
1.579322e+003,3.814886e+001
1.580286e+003,3.837732e+001
1.581250e+003,3.998193e+001
1.582214e+003,4.329785e+001
1.583179e+003,4.649725e+001
1.584143e+003,4.839911e+001
1.585107e+003,4.867908e+001
1.586071e+003,4.712244e+001
1.587036e+003,4.489465e+001
1.588000e+003,4.351740e+001
1.588964e+003,4.284753e+001
1.589928e+003,4.388770e+001
1.590893e+003,4.895581e+001
1.591857e+003,5.470966e+001
1.592821e+003,5.541797e+001
1.593785e+003,5.213660e+001
1.594750e+003,5.060022e+001
1.595714e+003,5.150732e+001
1.596678e+003,5.236017e+001
1.597642e+003,5.186743e+001
1.598606e+003,5.162036e+001
1.599571e+003,5.404321e+001
1.600535e+003,5.710919e+001
1.601499e+003,5.782068e+001
1.602463e+003,5.616772e+001
1.603427e+003,5.400110e+001
1.604392e+003,5.201794e+001
1.605356e+003,5.043243e+001
1.606320e+003,4.994763e+001
1.607284e+003,4.991760e+001
1.608249e+003,4.808740e+001
1.609213e+003,4.438531e+001
1.610177e+003,4.123792e+001
1.611141e+003,3.866101e+001
1.612106e+003,3.766345e+001
1.613070e+003,4.093506e+001
1.614034e+003,4.382794e+001
1.614998e+003,4.244141e+001
1.615963e+003,3.859656e+001
1.616927e+003,3.504419e+001
1.617891e+003,3.231305e+001
1.618855e+003,3.025452e+001
1.619820e+003,2.862683e+001
1.620784e+003,2.684180e+001
1.621748e+003,2.439868e+001
1.622712e+003,2.240784e+001
1.623677e+003,2.393701e+001
1.624641e+003,2.983582e+001
1.625605e+003,3.477478e+001
1.626569e+003,3.651453e+001
1.627533e+003,3.627051e+001
1.628498e+003,3.409314e+001
1.629462e+003,3.199634e+001
1.630426e+003,3.232971e+001
1.631390e+003,3.367273e+001
1.632354e+003,3.206238e+001
1.633319e+003,2.699414e+001
1.634283e+003,2.368164e+001
1.635247e+003,2.631641e+001
1.636211e+003,3.151050e+001
1.637176e+003,3.375818e+001
1.638140e+003,3.338586e+001
1.639104e+003,3.140930e+001
1.640068e+003,2.659888e+001
1.641033e+003,2.410425e+001
1.641997e+003,2.702441e+001
1.642961e+003,3.046912e+001
1.643925e+003,3.261597e+001
1.644890e+003,3.350989e+001
1.645854e+003,3.204114e+001
1.646818e+003,2.939673e+001
1.647782e+003,2.889490e+001
1.648747e+003,3.134521e+001
1.649711e+003,3.369104e+001
1.650675e+003,3.364832e+001
1.651639e+003,3.242285e+001
1.652604e+003,3.156030e+001
1.653568e+003,3.079822e+001
1.654532e+003,3.127625e+001
1.655496e+003,3.410242e+001
1.656460e+003,3.433032e+001
1.657425e+003,2.826575e+001
1.658389e+003,2.281128e+001
1.659353e+003,2.213123e+001
1.660317e+003,2.346375e+001
1.661281e+003,2.428540e+001
1.662246e+003,2.419287e+001
1.663210e+003,2.317322e+001
1.664174e+003,2.148218e+001
1.665138e+003,2.066431e+001
1.666103e+003,2.249133e+001
1.667067e+003,2.457715e+001
1.668031e+003,2.107910e+001
1.668995e+003,1.278235e+001
1.669960e+003,9.998291e+000
1.670924e+003,1.508948e+001
1.671888e+003,1.935010e+001
1.672852e+003,1.927698e+001
1.673817e+003,1.839539e+001
1.674781e+003,1.884973e+001
1.675745e+003,1.970154e+001
1.676709e+003,2.015344e+001
1.677674e+003,2.002271e+001
1.678638e+003,1.887500e+001
1.679602e+003,1.661047e+001
1.680566e+003,1.461963e+001
1.681531e+003,1.439722e+001
1.682495e+003,1.519812e+001
1.683459e+003,1.525024e+001
1.684423e+003,1.439038e+001
1.685387e+003,1.351587e+001
1.686352e+003,1.292029e+001
1.687316e+003,1.179419e+001
1.688280e+003,8.994141e+000
1.689244e+003,7.229248e+000
1.690208e+003,9.676758e+000
1.691173e+003,1.316565e+001
1.692137e+003,1.496814e+001
1.693101e+003,1.533801e+001
1.694065e+003,1.392859e+001
1.695030e+003,1.009436e+001
1.695994e+003,6.783325e+000
1.696958e+003,6.153320e+000
1.697922e+003,7.123657e+000
1.698887e+003,8.608521e+000
1.699851e+003,1.066418e+001
1.700815e+003,1.396643e+001
1.701779e+003,1.817529e+001
1.702744e+003,1.739526e+001
1.703708e+003,8.624390e+000
1.704672e+003,1.652222e+000
1.705636e+003,4.197510e+000
1.706601e+003,1.041528e+001
1.707565e+003,1.280432e+001
1.708529e+003,1.257507e+001
1.709493e+003,1.219543e+001
1.710458e+003,1.188342e+001
1.711422e+003,1.120398e+001
1.712386e+003,9.860229e+000
1.713350e+003,9.039795e+000
1.714314e+003,9.717407e+000
1.715279e+003,1.058899e+001
1.716243e+003,9.820068e+000
1.717207e+003,7.622192e+000
1.718171e+003,5.334595e+000
1.719135e+003,3.441650e+000
1.720100e+003,2.040405e+000
1.721064e+003,1.012573e+000
1.722028e+003,3.007813e-001
1.722992e+003,3.726807e-001
1.723957e+003,1.593506e+000
1.724921e+003,2.968750e+000
1.725885e+003,3.661743e+000
1.726849e+003,4.205688e+000
1.727814e+003,5.822144e+000
1.728778e+003,7.644775e+000
1.729742e+003,1.047839e+001
1.730706e+003,1.193311e+001
1.731671e+003,7.399048e+000
1.732635e+003,-4.687500e-001
1.733599e+003,-4.392578e+000
1.734563e+003,-3.222290e+000
1.735528e+003,-2.317139e+000
1.736492e+003,-4.738037e+000
1.737456e+003,-7.596191e+000
1.738420e+003,-7.547729e+000
1.739385e+003,-5.297729e+000
1.740349e+003,-1.693237e+000
1.741313e+003,4.496460e+000
1.742277e+003,7.633301e+000
1.743241e+003,8.291992e+000
1.744206e+003,6.155151e+000
1.745170e+003,-3.427979e+000
1.746134e+003,-1.106689e+001
1.747098e+003,-1.030750e+001
1.748063e+003,-5.885254e+000
1.749027e+003,-2.896606e+000
1.749991e+003,-1.576538e+000
1.750955e+003,2.551270e-001
1.751919e+003,2.965210e+000
1.752884e+003,3.989014e+000
1.753848e+003,1.144531e+000
1.754812e+003,-3.407349e+000
1.755776e+003,-5.024414e+000
1.756741e+003,-3.324341e+000
1.757705e+003,2.954102e-001
1.758669e+003,7.622925e+000
1.759633e+003,1.027014e+001
1.760598e+003,3.040649e+000
1.761562e+003,-3.518433e+000
1.762526e+003,-5.295044e+000
1.763490e+003,-5.398438e+000
1.764455e+003,-5.553833e+000
1.765419e+003,-5.673340e+000
1.766383e+003,-5.846558e+000
1.767347e+003,-6.098145e+000
1.768312e+003,-5.636475e+000
1.769276e+003,-4.206177e+000
1.770240e+003,-2.996582e+000
1.771204e+003,-2.721558e+000
1.772168e+003,-2.528076e+000
1.773133e+003,-1.219238e+000
1.774097e+003,9.704590e-001
1.775061e+003,1.549316e+000
1.776025e+003,-5.461426e-001
1.776990e+003,-1.927490e+000
1.777954e+003,-4.832764e-001
1.778918e+003,1.453003e+000
1.779882e+003,1.825317e+000
1.780846e+003,1.080078e+000
1.781811e+003,2.031250e-001
1.782775e+003,-6.151123e-001
1.783739e+003,-1.311768e+000
1.784703e+003,-1.774170e+000
1.785668e+003,-1.267456e+000
1.786632e+003,5.550537e-001
1.787596e+003,2.119507e+000
1.788560e+003,3.080811e+000
1.789525e+003,3.869873e+000
1.790489e+003,4.364136e+000
1.791453e+003,4.326782e+000
1.792417e+003,3.468872e+000
1.793382e+003,1.938965e+000
1.794346e+003,1.289307e+000
1.795310e+003,2.358398e+000
1.796274e+003,3.322266e+000
1.797239e+003,2.231567e+000
1.798203e+003,5.588379e-001
1.799167e+003,1.220093e+000
1.800131e+003,3.735229e+000
1.801095e+003,4.485596e+000
1.802060e+003,4.335205e+000
1.803024e+003,3.236206e+000
1.803988e+003,-7.065430e-001
1.804952e+003,-4.008545e+000
1.805917e+003,-5.091553e+000
1.806881e+003,-4.718994e+000
1.807845e+003,-2.559814e+000
1.808809e+003,2.399902e-001
1.809773e+003,1.391357e+000
1.810738e+003,6.098633e-001
1.811702e+003,-4.191895e-001
1.812666e+003,-6.632080e-001
1.813630e+003,-3.002930e-002
1.814595e+003,1.923950e+000
1.815559e+003,4.313599e+000
1.816523e+003,3.558228e+000
1.817487e+003,-6.768799e-001
1.818452e+003,-2.527466e+000
1.819416e+003,5.224609e-002
1.820380e+003,1.186890e+000
1.821344e+003,-2.732300e+000
1.822309e+003,-6.621094e+000
1.823273e+003,-6.907104e+000
1.824237e+003,-5.455933e+000
1.825201e+003,-4.235229e+000
1.826166e+003,-3.322876e+000
1.827130e+003,-2.133667e+000
1.828094e+003,-7.685547e-001
1.829058e+003,-1.149902e-001
1.830022e+003,-4.014893e-001
1.830987e+003,-1.066406e+000
1.831951e+003,-2.057495e+000
1.832915e+003,-2.831543e+000
1.833879e+003,-2.308594e+000
1.834844e+003,-9.837646e-001
1.835808e+003,-3.686523e-001
1.836772e+003,-6.198730e-001
1.837736e+003,-1.360840e+000
1.838700e+003,-2.714355e+000
1.839665e+003,-3.538086e+000
1.840629e+003,-2.300415e+000
1.841593e+003,-2.779541e-001
1.842557e+003,-6.621094e-001
1.843522e+003,-3.442017e+000
1.844486e+003,-5.762329e+000
1.845450e+003,-8.007446e+000
1.846414e+003,-7.632935e+000
1.847379e+003,-2.654785e+000
1.848343e+003,4.871826e-001
1.849307e+003,-8.836670e-001
1.850271e+003,-3.290649e+000
1.851236e+003,-4.266235e+000
1.852200e+003,-4.126953e+000
1.853164e+003,-4.174438e+000
1.854128e+003,-4.856445e+000
1.855093e+003,-5.443726e+000
1.856057e+003,-5.279785e+000
1.857021e+003,-4.946167e+000
1.857985e+003,-5.263794e+000
1.858949e+003,-5.775757e+000
1.859914e+003,-5.114014e+000
1.860878e+003,-3.565674e+000
1.861842e+003,-4.150879e+000
1.862806e+003,-7.150513e+000
1.863771e+003,-7.619995e+000
1.864735e+003,-4.281616e+000
1.865699e+003,-1.521484e+000
1.866663e+003,-7.520752e-001
1.867627e+003,-1.163696e+000
1.868592e+003,-3.187378e+000
1.869556e+003,-6.172485e+000
1.870520e+003,-8.223267e+000
1.871484e+003,-9.387329e+000
1.872449e+003,-9.478027e+000
1.873413e+003,-6.921997e+000
1.874377e+003,-3.507813e+000
1.875341e+003,-1.018066e+000
1.876306e+003,1.348511e+000
1.877270e+003,4.785889e+000
1.878234e+003,7.279541e+000
1.879198e+003,6.384033e+000
1.880163e+003,3.586304e+000
1.881127e+003,1.696655e+000
1.882091e+003,1.070435e+000
1.883055e+003,3.033447e-001
1.884020e+003,-1.182007e+000
1.884984e+003,-2.233765e+000
1.885948e+003,-1.726074e+000
1.886912e+003,-7.591553e-001
1.887876e+003,-1.670288e+000
1.888841e+003,-4.153809e+000
1.889805e+003,-5.096191e+000
1.890769e+003,-4.354736e+000
1.891733e+003,-2.487549e+000
1.892698e+003,1.698486e+000
1.893662e+003,2.768311e+000
1.894626e+003,-4.646240e+000
1.895590e+003,-1.068835e+001
1.896554e+003,-5.891235e+000
1.897519e+003,2.569580e+000
1.898483e+003,6.237549e+000
1.899447e+003,5.221191e+000
1.900411e+003,1.918945e+000
1.901376e+003,-3.385620e+000
1.902340e+003,-5.854614e+000
1.903304e+003,-1.540649e+000
1.904268e+003,2.459351e+000
1.905233e+003,1.118652e+000
1.906197e+003,-1.554932e+000
1.907161e+003,-1.660645e+000
1.908125e+003,2.841797e-001
1.909090e+003,3.388550e+000
1.910054e+003,6.401611e+000
1.911018e+003,6.284668e+000
1.911982e+003,2.855347e+000
1.912947e+003,1.224365e+000
1.913911e+003,5.002441e+000
1.914875e+003,1.056079e+001
1.915839e+003,1.199780e+001
1.916803e+003,9.846436e+000
1.917768e+003,9.289429e+000
1.918732e+003,1.152002e+001
1.919696e+003,9.177734e+000
1.920660e+003,-8.509521e-001
1.921625e+003,-5.623047e+000
1.922589e+003,1.193848e+000
1.923553e+003,7.217163e+000
1.924517e+003,4.399048e+000
1.925481e+003,-5.109863e-001
1.926446e+003,-2.051270e+000
1.927410e+003,-1.162354e+000
1.928374e+003,2.639160e-001
1.929338e+003,1.687012e+000
1.930303e+003,2.557251e+000
1.931267e+003,3.346191e+000
1.932231e+003,4.175415e+000
1.933195e+003,4.272949e+000
1.934160e+003,4.279541e+000
1.935124e+003,5.095947e+000
1.936088e+003,5.446167e+000
1.937052e+003,3.873657e+000
1.938017e+003,1.373047e+000
1.938981e+003,-5.654297e-001
1.939945e+003,-1.560303e+000
1.940909e+003,-1.088135e+000
1.941874e+003,7.117920e-001
1.942838e+003,1.415771e+000
1.943802e+003,-9.141846e-001
1.944766e+003,-4.100220e+000
1.945730e+003,-4.850098e+000
1.946695e+003,-3.687500e+000
1.947659e+003,-1.687744e+000
1.948623e+003,1.219849e+000
1.949587e+003,2.502319e+000
1.950552e+003,1.632568e+000
1.951516e+003,1.472656e+000
1.952480e+003,3.539429e+000
1.953444e+003,5.226685e+000
1.954408e+003,4.306396e+000
1.955373e+003,1.785278e+000
1.956337e+003,-9.609375e-001
1.957301e+003,-3.080933e+000
1.958265e+003,-3.235840e+000
1.959230e+003,-1.092651e+000
1.960194e+003,1.044922e+000
1.961158e+003,1.540527e+000
1.962122e+003,2.314575e+000
1.963087e+003,5.219482e+000
1.964051e+003,7.133179e+000
1.965015e+003,5.870605e+000
1.965979e+003,4.060181e+000
1.966944e+003,3.860596e+000
1.967908e+003,4.497803e+000
1.968872e+003,4.632202e+000
1.969836e+003,4.155273e+000
1.970801e+003,3.559204e+000
1.971765e+003,3.126587e+000
1.972729e+003,2.965576e+000
1.973693e+003,3.149048e+000
1.974657e+003,3.522461e+000
1.975622e+003,3.606934e+000
1.976586e+003,3.437134e+000
1.977550e+003,3.987671e+000
1.978514e+003,5.158203e+000
1.979479e+003,4.840088e+000
1.980443e+003,2.789307e+000
1.981407e+003,2.493530e+000
1.982371e+003,5.563354e+000
1.983335e+003,8.551147e+000
1.984300e+003,8.547363e+000
1.985264e+003,6.792969e+000
1.986228e+003,5.492188e+000
1.987192e+003,4.474121e+000
1.988157e+003,2.895630e+000
1.989121e+003,8.071289e-001
1.990085e+003,-1.129395e+000
1.991049e+003,-3.879883e+000
1.992014e+003,-3.892822e+000
1.992978e+003,2.543457e+000
1.993942e+003,6.684204e+000
1.994906e+003,2.734375e+000
1.995871e+003,-1.602295e+000
1.996835e+003,7.271729e-001
1.997799e+003,5.740723e+000
1.998763e+003,6.330078e+000
1.999728e+003,3.196289e+000
