5.003444e+002,4.734862e+001
5.013087e+002,4.623547e+001
5.022729e+002,4.628674e+001
5.032371e+002,4.703493e+001
5.042014e+002,4.614096e+001
5.051656e+002,4.392763e+001
5.061298e+002,4.191083e+001
5.070941e+002,4.148181e+001
5.080583e+002,4.296507e+001
5.090225e+002,4.386995e+001
5.099868e+002,4.428085e+001
5.109510e+002,4.425606e+001
5.119152e+002,4.370535e+001
5.128795e+002,4.260709e+001
5.138437e+002,4.154018e+001
5.148079e+002,4.064912e+001
5.157722e+002,3.993460e+001
5.167364e+002,3.939285e+001
5.177006e+002,3.897171e+001
5.186649e+002,3.860658e+001
5.196291e+002,3.853052e+001
5.205933e+002,3.850072e+001
5.215576e+002,3.785933e+001
5.225218e+002,3.655144e+001
5.234860e+002,3.509203e+001
5.244503e+002,3.456085e+001
5.254145e+002,3.554498e+001
5.263787e+002,3.564291e+001
5.273430e+002,3.411705e+001
5.283072e+002,3.220317e+001
5.292714e+002,3.164470e+001
5.302357e+002,3.308620e+001
5.311999e+002,3.420703e+001
5.321641e+002,3.513582e+001
5.331284e+002,3.570386e+001
5.340926e+002,3.569429e+001
5.350568e+002,3.495154e+001
5.360211e+002,3.362010e+001
5.369853e+002,3.143024e+001
5.379495e+002,2.925954e+001
5.389138e+002,2.778227e+001
5.398780e+002,2.724644e+001
5.408422e+002,2.744931e+001
5.418065e+002,2.815018e+001
5.427707e+002,2.924744e+001
5.437349e+002,3.001147e+001
5.446992e+002,3.021077e+001
5.456634e+002,2.993065e+001
5.466276e+002,2.951331e+001
5.475919e+002,2.882825e+001
5.485561e+002,2.825449e+001
5.495203e+002,2.799751e+001
5.504846e+002,2.770149e+001
5.514488e+002,2.671178e+001
5.524130e+002,2.424649e+001
5.533773e+002,2.261160e+001
5.543415e+002,2.354039e+001
5.553057e+002,2.540138e+001
5.562700e+002,2.664478e+001
5.572342e+002,2.629703e+001
5.581984e+002,2.470413e+001
5.591627e+002,2.207111e+001
5.601269e+002,1.905795e+001
5.610911e+002,1.716576e+001
5.620554e+002,1.720662e+001
5.630196e+002,1.887125e+001
5.639838e+002,1.977260e+001
5.649481e+002,1.947377e+001
5.659123e+002,1.907813e+001
5.668765e+002,1.884865e+001
5.678408e+002,1.880107e+001
5.688050e+002,1.881512e+001
5.697692e+002,1.885895e+001
5.707335e+002,1.857092e+001
5.716977e+002,1.757558e+001
5.726619e+002,1.638602e+001
5.736262e+002,1.578870e+001
5.745904e+002,1.645912e+001
5.755546e+002,1.740982e+001
5.765189e+002,1.677135e+001
5.774831e+002,1.514822e+001
5.784473e+002,1.365282e+001
5.794116e+002,1.309372e+001
5.803758e+002,1.348872e+001
5.813400e+002,1.427449e+001
5.823043e+002,1.557329e+001
5.832685e+002,1.642438e+001
5.842327e+002,1.651895e+001
5.851970e+002,1.600925e+001
5.861612e+002,1.540637e+001
5.871254e+002,1.434909e+001
5.880897e+002,1.349515e+001
5.890539e+002,1.308748e+001
5.900181e+002,1.288324e+001
5.909824e+002,1.251794e+001
5.919466e+002,1.179913e+001
5.929108e+002,1.086340e+001
5.938751e+002,9.417587e+000
5.948393e+002,7.985336e+000
5.958035e+002,7.624557e+000
5.967678e+002,9.089676e+000
5.977320e+002,1.199605e+001
5.986962e+002,1.289853e+001
5.996605e+002,1.182288e+001
6.006247e+002,1.019341e+001
6.015889e+002,8.132370e+000
6.025532e+002,5.772186e+000
6.035174e+002,4.769562e+000
6.044816e+002,6.493225e+000
6.054459e+002,8.300247e+000
6.064101e+002,9.930679e+000
6.073743e+002,1.137222e+001
6.083386e+002,1.290326e+001
6.093028e+002,1.520189e+001
6.102670e+002,1.640015e+001
6.112313e+002,1.415155e+001
6.121955e+002,1.051727e+001
6.131597e+002,8.391876e+000
6.141240e+002,9.710785e+000
6.150882e+002,1.330591e+001
6.160524e+002,1.409271e+001
6.170167e+002,1.263457e+001
6.179809e+002,1.102916e+001
6.189451e+002,1.018503e+001
6.199094e+002,9.909958e+000
6.208736e+002,9.119965e+000
6.218378e+002,6.444946e+000
6.228021e+002,5.136932e+000
6.237663e+002,6.612228e+000
6.247305e+002,9.377213e+000
6.256948e+002,1.084204e+001
6.266590e+002,9.338181e+000
6.276232e+002,7.714554e+000
6.285875e+002,7.870499e+000
6.295517e+002,8.936005e+000
6.305159e+002,1.013574e+001
6.314802e+002,1.097095e+001
6.324444e+002,1.137749e+001
6.334086e+002,1.123866e+001
6.343729e+002,1.073351e+001
6.353371e+002,9.745163e+000
6.363013e+002,8.059433e+000
6.372656e+002,6.005524e+000
6.382298e+002,4.857864e+000
6.391940e+002,5.369873e+000
6.401583e+002,5.867767e+000
6.411225e+002,6.995239e+000
6.420867e+002,7.994080e+000
6.430510e+002,7.525558e+000
6.440152e+002,4.462723e+000
6.449794e+002,2.235275e+000
6.459437e+002,3.528214e+000
6.469079e+002,5.579514e+000
6.478721e+002,6.217560e+000
6.488364e+002,4.761093e+000
6.498006e+002,2.450180e+000
6.507648e+002,1.222031e+000
6.517291e+002,8.185577e-001
6.526933e+002,7.871552e-001
6.536575e+002,1.047409e+000
6.546218e+002,1.612228e+000
6.555860e+002,2.600754e+000
6.565502e+002,4.819366e+000
6.575145e+002,5.449097e+000
6.584787e+002,2.994705e+000
6.594429e+002,3.704529e-001
6.604072e+002,2.288361e-001
6.613714e+002,3.216141e+000
6.623356e+002,5.699280e+000
6.632999e+002,5.280350e+000
6.642641e+002,4.368454e+000
6.652283e+002,4.137283e+000
6.661926e+002,4.787689e+000
6.671568e+002,5.908371e+000
6.681210e+002,7.201614e+000
6.690853e+002,8.244598e+000
6.700495e+002,8.060104e+000
6.710137e+002,6.720703e+000
6.719780e+002,5.279495e+000
6.729422e+002,4.861938e+000
6.739064e+002,5.681335e+000
6.748707e+002,6.075775e+000
6.758349e+002,5.961288e+000
6.767991e+002,5.624634e+000
6.777634e+002,5.099213e+000
6.787276e+002,4.518738e+000
6.796918e+002,4.336304e+000
6.806561e+002,5.339249e+000
6.816203e+002,5.846863e+000
6.825845e+002,4.593704e+000
6.835488e+002,2.533249e+000
6.845130e+002,1.362762e+000
6.854772e+002,2.457336e+000
6.864415e+002,4.684555e+000
6.874057e+002,5.435944e+000
6.883699e+002,4.951385e+000
6.893342e+002,3.722885e+000
6.902984e+002,1.939041e+000
6.912626e+002,-1.164246e-001
6.922269e+002,-7.051392e-001
6.931911e+002,2.445175e+000
6.941553e+002,4.224426e+000
6.951196e+002,2.875259e+000
6.960838e+002,2.199249e-001
6.970480e+002,-5.150909e-001
6.980123e+002,2.401169e+000
6.989765e+002,4.625565e+000
6.999407e+002,3.863052e+000
7.009050e+002,2.169235e+000
7.018692e+002,9.293365e-001
7.028334e+002,7.101593e-001
7.037977e+002,1.294983e+000
7.047619e+002,3.023224e+000
7.057261e+002,5.197021e+000
7.066904e+002,5.877380e+000
7.076546e+002,4.747086e+000
7.086188e+002,3.267441e+000
7.095831e+002,3.886887e+000
7.105473e+002,7.859253e+000
7.115115e+002,9.666580e+000
7.124758e+002,8.450272e+000
7.134400e+002,6.379089e+000
7.144042e+002,4.372208e+000
7.153685e+002,2.585358e+000
7.163327e+002,1.601486e+000
7.172969e+002,2.843658e+000
7.182612e+002,3.939545e+000
7.192254e+002,3.587234e+000
7.201896e+002,2.268753e+000
7.211539e+002,1.128860e+000
7.221181e+002,1.120789e+000
7.230823e+002,1.980499e+000
7.240466e+002,3.176041e+000
7.250108e+002,4.637253e+000
7.259750e+002,5.611206e+000
7.269393e+002,5.530106e+000
7.279035e+002,4.411514e+000
7.288677e+002,3.284576e+000
7.298320e+002,2.002090e+000
7.307962e+002,1.344513e+000
7.317604e+002,1.711060e+000
7.327247e+002,2.620895e+000
7.336889e+002,3.329834e+000
7.346531e+002,3.446304e+000
7.356174e+002,3.433395e+000
7.365816e+002,3.950485e+000
7.375458e+002,4.532135e+000
7.385101e+002,4.804733e+000
7.394743e+002,4.669937e+000
7.404385e+002,4.252808e+000
7.414028e+002,3.522278e+000
7.423670e+002,2.516769e+000
7.433312e+002,2.356842e+000
7.442955e+002,3.347900e+000
7.452597e+002,4.653168e+000
7.462239e+002,5.271606e+000
7.471882e+002,5.030060e+000
7.481524e+002,4.557495e+000
7.491166e+002,3.205017e+000
7.500809e+002,2.107483e+000
7.510451e+002,1.960510e+000
7.520093e+002,2.487625e+000
7.529736e+002,2.605209e+000
7.539378e+002,1.548080e+000
7.549020e+002,6.486969e-001
7.558663e+002,9.563904e-001
7.568306e+002,1.828323e+000
7.577948e+002,2.171066e+000
7.587590e+002,1.357590e+000
7.597233e+002,4.718018e-002
7.606875e+002,8.338928e-001
7.616517e+002,3.475510e+000
7.626160e+002,5.256012e+000
7.635802e+002,5.333511e+000
7.645444e+002,4.391983e+000
7.655087e+002,3.847717e+000
7.664729e+002,4.082703e+000
7.674371e+002,3.773239e+000
7.684014e+002,2.181610e+000
7.693656e+002,6.886139e-001
7.703298e+002,3.005676e-001
7.712941e+002,1.081024e+000
7.722583e+002,2.070038e+000
7.732225e+002,2.778610e+000
7.741868e+002,3.191528e+000
7.751510e+002,2.960815e+000
7.761152e+002,2.429062e+000
7.770795e+002,2.483093e+000
7.780437e+002,3.911850e+000
7.790079e+002,6.355408e+000
7.799722e+002,6.503082e+000
7.809364e+002,4.151245e+000
7.819006e+002,2.317062e+000
7.828649e+002,2.468750e+000
7.838291e+002,4.110641e+000
7.847933e+002,5.458878e+000
7.857576e+002,6.375320e+000
7.867218e+002,6.748322e+000
7.876860e+002,6.516830e+000
7.886503e+002,6.057236e+000
7.896145e+002,5.579895e+000
7.905787e+002,5.169403e+000
7.915430e+002,4.904999e+000
7.925072e+002,4.708282e+000
7.934714e+002,4.674759e+000
7.944357e+002,5.516129e+000
7.953999e+002,7.021927e+000
7.963641e+002,7.824036e+000
7.973284e+002,6.238510e+000
7.982926e+002,2.021072e+000
7.992568e+002,4.040527e-001
8.002211e+002,1.977432e+000
8.011853e+002,3.825867e+000
8.021495e+002,5.595169e+000
8.031138e+002,7.149658e+000
8.040780e+002,7.363419e+000
8.050422e+002,4.370193e+000
8.060065e+002,2.540726e+000
8.069707e+002,4.108154e+000
8.079349e+002,6.725876e+000
8.088992e+002,8.116501e+000
8.098634e+002,7.538330e+000
8.108276e+002,6.264038e+000
8.117919e+002,5.988190e+000
8.127561e+002,6.121918e+000
8.137203e+002,5.672165e+000
8.146846e+002,4.649399e+000
8.156488e+002,3.798141e+000
8.166130e+002,4.020172e+000
8.175773e+002,5.544754e+000
8.185415e+002,6.600891e+000
8.195057e+002,6.313217e+000
8.204700e+002,6.514648e+000
8.214342e+002,8.665543e+000
8.223984e+002,1.176877e+001
8.233627e+002,1.308769e+001
8.243269e+002,1.111153e+001
8.252911e+002,8.355453e+000
8.262554e+002,5.512955e+000
8.272196e+002,3.266068e+000
8.281838e+002,2.482300e+000
8.291481e+002,3.360260e+000
8.301123e+002,5.275116e+000
8.310765e+002,7.452316e+000
8.320408e+002,9.619965e+000
8.330050e+002,9.872482e+000
8.339692e+002,7.658371e+000
8.349335e+002,4.989182e+000
8.358977e+002,4.069885e+000
8.368619e+002,5.255096e+000
8.378262e+002,5.950363e+000
8.387904e+002,5.177216e+000
8.397546e+002,4.789337e+000
8.407189e+002,5.606613e+000
8.416831e+002,7.053726e+000
8.426473e+002,8.171021e+000
8.436116e+002,8.589294e+000
8.445758e+002,8.402008e+000
8.455400e+002,7.011765e+000
8.465043e+002,5.265854e+000
8.474685e+002,4.202240e+000
8.484327e+002,4.213135e+000
8.493970e+002,5.166443e+000
8.503612e+002,6.772964e+000
8.513254e+002,9.180283e+000
8.522897e+002,1.072549e+001
8.532539e+002,1.115195e+001
8.542181e+002,1.106583e+001
8.551824e+002,1.074883e+001
8.561466e+002,1.034233e+001
8.571108e+002,1.024222e+001
8.580751e+002,1.068208e+001
8.590393e+002,1.070207e+001
8.600035e+002,9.306091e+000
8.609678e+002,7.869141e+000
8.619320e+002,8.273666e+000
8.628962e+002,1.111832e+001
8.638605e+002,1.446765e+001
8.648247e+002,1.514397e+001
8.657889e+002,1.417120e+001
8.667532e+002,1.390250e+001
8.677174e+002,1.463480e+001
8.686816e+002,1.521460e+001
8.696459e+002,1.411232e+001
8.706101e+002,1.092068e+001
8.715743e+002,9.641724e+000
8.725386e+002,1.184190e+001
8.735028e+002,1.377701e+001
8.744670e+002,1.399648e+001
8.754313e+002,1.330861e+001
8.763955e+002,1.355775e+001
8.773597e+002,1.570625e+001
8.783240e+002,1.774223e+001
8.792882e+002,1.770129e+001
8.802524e+002,1.714096e+001
8.812167e+002,1.748357e+001
8.821809e+002,1.895377e+001
8.831451e+002,2.085190e+001
8.841094e+002,2.232542e+001
8.850736e+002,2.340109e+001
8.860378e+002,2.379599e+001
8.870021e+002,2.311412e+001
8.879663e+002,2.292635e+001
8.889305e+002,2.455951e+001
8.898948e+002,2.749605e+001
8.908590e+002,2.916960e+001
8.918232e+002,2.884862e+001
8.927875e+002,2.825484e+001
8.937517e+002,2.747684e+001
8.947159e+002,2.682396e+001
8.956802e+002,2.646042e+001
8.966444e+002,2.637845e+001
8.976086e+002,2.646475e+001
8.985729e+002,2.665239e+001
8.995371e+002,2.718018e+001
9.005013e+002,2.849335e+001
9.014656e+002,3.044843e+001
9.024298e+002,3.219128e+001
9.033940e+002,3.299341e+001
9.043583e+002,3.288646e+001
9.053225e+002,3.280112e+001
9.062867e+002,3.275882e+001
9.072510e+002,3.255219e+001
9.082152e+002,3.195653e+001
9.091794e+002,3.157391e+001
9.101437e+002,3.226859e+001
9.111079e+002,3.418405e+001
9.120721e+002,3.557719e+001
9.130364e+002,3.476434e+001
9.140006e+002,3.345726e+001
9.149648e+002,3.272348e+001
9.159291e+002,3.243307e+001
9.168933e+002,3.183763e+001
9.178575e+002,3.038812e+001
9.188218e+002,2.856152e+001
9.197860e+002,2.840831e+001
9.207502e+002,2.991951e+001
9.217145e+002,3.102690e+001
9.226787e+002,3.157880e+001
9.236429e+002,3.160384e+001
9.246072e+002,3.092149e+001
9.255714e+002,2.931871e+001
9.265356e+002,2.769292e+001
9.274999e+002,2.546449e+001
9.284641e+002,2.393980e+001
9.294283e+002,2.435855e+001
9.303926e+002,2.571141e+001
9.313568e+002,2.596333e+001
9.323210e+002,2.397099e+001
9.332853e+002,2.152649e+001
9.342495e+002,2.217667e+001
9.352137e+002,2.418323e+001
9.361780e+002,2.490993e+001
9.371422e+002,2.386749e+001
9.381064e+002,2.229501e+001
9.390707e+002,2.180197e+001
9.400349e+002,2.253476e+001
9.409991e+002,2.260597e+001
9.419634e+002,2.115335e+001
9.429276e+002,2.017859e+001
9.438918e+002,2.064513e+001
9.448561e+002,2.181389e+001
9.458203e+002,2.245287e+001
9.467845e+002,2.223169e+001
9.477488e+002,2.160934e+001
9.487130e+002,2.039180e+001
9.496772e+002,1.926024e+001
9.506415e+002,1.895741e+001
9.516057e+002,1.936208e+001
9.525699e+002,1.969472e+001
9.535342e+002,1.916531e+001
9.544984e+002,1.789810e+001
9.554626e+002,1.738150e+001
9.564269e+002,1.789827e+001
9.573911e+002,1.830821e+001
9.583553e+002,1.831860e+001
9.593196e+002,1.798766e+001
9.602838e+002,1.722296e+001
9.612480e+002,1.571101e+001
9.622123e+002,1.497182e+001
9.631765e+002,1.660793e+001
9.641407e+002,1.800339e+001
9.651050e+002,1.749829e+001
9.660692e+002,1.574771e+001
9.670334e+002,1.451341e+001
9.679977e+002,1.495926e+001
9.689619e+002,1.617334e+001
9.699261e+002,1.537416e+001
9.708904e+002,1.344356e+001
9.718546e+002,1.361543e+001
9.728188e+002,1.684459e+001
9.737831e+002,2.116989e+001
9.747473e+002,2.408820e+001
9.757115e+002,2.537820e+001
9.766758e+002,2.660454e+001
9.776400e+002,2.838087e+001
9.786042e+002,2.951276e+001
9.795685e+002,2.991832e+001
9.805327e+002,2.927272e+001
9.814969e+002,2.677736e+001
9.824612e+002,2.221353e+001
9.834254e+002,1.784602e+001
9.843896e+002,1.595258e+001
9.853539e+002,1.529758e+001
9.863181e+002,1.482535e+001
9.872823e+002,1.433540e+001
9.882466e+002,1.396208e+001
9.892108e+002,1.394983e+001
9.901750e+002,1.423619e+001
9.911393e+002,1.339954e+001
9.921035e+002,9.414948e+000
9.930677e+002,7.150940e+000
9.940320e+002,8.002579e+000
9.949962e+002,9.892761e+000
9.959604e+002,1.102702e+001
9.969247e+002,1.128281e+001
9.978889e+002,1.152000e+001
9.988531e+002,1.240709e+001
9.998174e+002,1.268466e+001
1.000782e+003,1.119814e+001
1.001746e+003,8.957687e+000
1.002710e+003,7.292419e+000
1.003674e+003,6.807816e+000
1.004639e+003,7.237274e+000
1.005603e+003,8.229660e+000
1.006567e+003,9.819550e+000
1.007531e+003,1.043515e+001
1.008495e+003,9.575165e+000
1.009460e+003,8.823669e+000
1.010424e+003,9.617203e+000
1.011388e+003,1.140327e+001
1.012352e+003,1.167001e+001
1.013317e+003,9.084976e+000
1.014281e+003,6.962280e+000
1.015245e+003,6.860077e+000
1.016209e+003,6.971176e+000
1.017174e+003,5.704468e+000
1.018138e+003,3.271179e+000
1.019102e+003,1.312805e+000
1.020066e+003,1.284454e+000
1.021031e+003,2.379883e+000
1.021995e+003,1.784302e+000
1.022959e+003,-1.664124e-001
1.023923e+003,-1.216171e+000
1.024887e+003,-3.795013e-001
1.025852e+003,1.211563e+000
1.026816e+003,1.670761e+000
1.027780e+003,6.723022e-001
1.028744e+003,4.198456e-001
1.029709e+003,1.894287e+000
1.030673e+003,3.132629e+000
1.031637e+003,3.582031e+000
1.032601e+003,3.379791e+000
1.033566e+003,2.749786e+000
1.034530e+003,1.809433e+000
1.035494e+003,7.136536e-001
1.036458e+003,-6.813507e-001
1.037422e+003,-1.979584e+000
1.038387e+003,-2.515091e+000
1.039351e+003,-2.303207e+000
1.040315e+003,-1.533478e+000
1.041279e+003,-2.120056e-001
1.042244e+003,1.484467e+000
1.043208e+003,2.491699e+000
1.044172e+003,2.452454e+000
1.045136e+003,2.040649e+000
1.046101e+003,1.375229e+000
1.047065e+003,3.793182e-001
1.048029e+003,-1.784409e+000
1.048993e+003,-4.460587e+000
1.049958e+003,-5.165466e+000
1.050922e+003,-2.065491e+000
1.051886e+003,1.752396e+000
1.052850e+003,3.251907e+000
1.053814e+003,3.425705e+000
1.054779e+003,3.344467e+000
1.055743e+003,3.293442e+000
1.056707e+003,3.066147e+000
1.057671e+003,2.382629e+000
1.058636e+003,1.220337e+000
1.059600e+003,7.093506e-001
1.060564e+003,1.711838e+000
1.061528e+003,2.297668e+000
1.062493e+003,1.488510e+000
1.063457e+003,4.541016e-001
1.064421e+003,7.887268e-001
1.065385e+003,2.665466e+000
1.066349e+003,4.221359e+000
1.067314e+003,4.546509e+000
1.068278e+003,4.175705e+000
1.069242e+003,3.042618e+000
1.070206e+003,1.739578e+000
1.071171e+003,1.262146e+000
1.072135e+003,1.902664e+000
1.073099e+003,2.829819e+000
1.074063e+003,2.698242e+000
1.075028e+003,1.420639e+000
1.075992e+003,4.109344e-001
1.076956e+003,-7.946777e-001
1.077920e+003,-1.226990e+000
1.078885e+003,2.118225e-001
1.079849e+003,2.507599e+000
1.080813e+003,3.704071e+000
1.081777e+003,3.415405e+000
1.082741e+003,2.824142e+000
1.083706e+003,1.705734e+000
1.084670e+003,9.833984e-001
1.085634e+003,1.776886e+000
1.086598e+003,3.287201e+000
1.087563e+003,3.886658e+000
1.088527e+003,2.764984e+000
1.089491e+003,8.776093e-001
1.090455e+003,-4.901123e-002
1.091420e+003,4.754639e-002
1.092384e+003,3.295441e-001
1.093348e+003,1.076248e+000
1.094312e+003,1.389206e+000
1.095276e+003,4.020691e-001
1.096241e+003,-1.308182e+000
1.097205e+003,-2.116730e+000
1.098169e+003,-1.780457e+000
1.099133e+003,-8.803101e-001
1.100098e+003,1.514099e+000
1.101062e+003,3.389984e+000
1.102026e+003,3.037552e+000
1.102990e+003,1.122192e+000
1.103955e+003,-7.433777e-001
1.104919e+003,-1.579483e+000
1.105883e+003,-1.500443e+000
1.106847e+003,-3.741302e-001
1.107812e+003,1.745041e+000
1.108776e+003,2.003403e+000
1.109740e+003,-6.207275e-001
1.110704e+003,-3.233948e+000
1.111668e+003,-3.477127e+000
1.112633e+003,-1.842270e+000
1.113597e+003,-6.379700e-001
1.114561e+003,-6.192017e-002
1.115525e+003,-1.567383e-001
1.116490e+003,-1.594513e+000
1.117454e+003,-2.996002e+000
1.118418e+003,-3.320145e+000
1.119382e+003,-2.741898e+000
1.120347e+003,-2.120239e+000
1.121311e+003,-2.044052e+000
1.122275e+003,-2.188873e+000
1.123239e+003,-1.533539e+000
1.124203e+003,-9.454346e-002
1.125168e+003,5.984955e-001
1.126132e+003,2.622528e-001
1.127096e+003,-3.068695e-001
1.128060e+003,-7.298431e-001
1.129025e+003,-9.810028e-001
1.129989e+003,-7.201691e-001
1.130953e+003,3.502655e-001
1.131917e+003,1.226349e+000
1.132882e+003,1.919891e+000
1.133846e+003,2.186783e+000
1.134810e+003,1.455612e+000
1.135774e+003,2.283173e-001
1.136739e+003,-4.495544e-001
1.137703e+003,1.785278e-003
1.138667e+003,1.171722e+000
1.139631e+003,2.549164e+000
1.140595e+003,4.026688e+000
1.141560e+003,4.997772e+000
1.142524e+003,5.416748e+000
1.143488e+003,5.625351e+000
1.144452e+003,5.110107e+000
1.145417e+003,4.505707e+000
1.146381e+003,6.659058e+000
1.147345e+003,1.334305e+001
1.148309e+003,1.802394e+001
1.149274e+003,1.733464e+001
1.150238e+003,1.629860e+001
1.151202e+003,1.743433e+001
1.152166e+003,2.024994e+001
1.153130e+003,2.360229e+001
1.154095e+003,2.675826e+001
1.155059e+003,2.889702e+001
1.156023e+003,2.863403e+001
1.156987e+003,2.641881e+001
1.157952e+003,2.594170e+001
1.158916e+003,2.785780e+001
1.159880e+003,2.870049e+001
1.160844e+003,2.566066e+001
1.161809e+003,2.034425e+001
1.162773e+003,1.664236e+001
1.163737e+003,1.492130e+001
1.164701e+003,1.329362e+001
1.165666e+003,1.113739e+001
1.166630e+003,9.263687e+000
1.167594e+003,8.391281e+000
1.168558e+003,7.781815e+000
1.169522e+003,6.229568e+000
1.170487e+003,3.526733e+000
1.171451e+003,8.602600e-001
1.172415e+003,-4.577637e-001
1.173379e+003,-6.341705e-001
1.174344e+003,-6.356659e-001
1.175308e+003,-4.234924e-001
1.176272e+003,-2.929382e-001
1.177236e+003,-5.480042e-001
1.178201e+003,-7.227936e-001
1.179165e+003,-7.369995e-003
1.180129e+003,1.567566e+000
1.181093e+003,2.240219e+000
1.182057e+003,8.862915e-001
1.183022e+003,-1.947174e-001
1.183986e+003,4.376068e-001
1.184950e+003,1.322357e+000
1.185914e+003,7.444305e-001
1.186879e+003,-1.136810e+000
1.187843e+003,-2.624207e+000
1.188807e+003,-2.346588e+000
1.189771e+003,-9.280090e-001
1.190736e+003,-4.354858e-002
1.191700e+003,2.894287e-001
1.192664e+003,-4.533386e-002
1.193628e+003,-1.634857e+000
1.194593e+003,-3.052368e+000
1.195557e+003,-3.143738e+000
1.196521e+003,-2.260513e+000
1.197485e+003,-1.480255e+000
1.198449e+003,-7.464142e-001
1.199414e+003,-7.707214e-001
1.200378e+003,-2.594666e+000
1.201342e+003,-4.607681e+000
1.202306e+003,-5.960297e+000
1.203271e+003,-6.701813e+000
1.204235e+003,-7.201508e+000
1.205199e+003,-7.615265e+000
1.206163e+003,-7.684784e+000
1.207128e+003,-6.932220e+000
1.208092e+003,-5.288727e+000
1.209056e+003,-4.233719e+000
1.210020e+003,-3.487656e+000
1.210984e+003,-3.678940e+000
1.211949e+003,-5.615234e+000
1.212913e+003,-8.231583e+000
1.213877e+003,-1.037358e+001
1.214841e+003,-1.190050e+001
1.215806e+003,-1.230534e+001
1.216770e+003,-1.028380e+001
1.217734e+003,-8.924133e+000
1.218698e+003,-1.122491e+001
1.219663e+003,-1.482246e+001
1.220627e+003,-1.692818e+001
1.221591e+003,-1.699086e+001
1.222555e+003,-1.584250e+001
1.223520e+003,-1.416956e+001
1.224484e+003,-1.233148e+001
1.225448e+003,-1.220711e+001
1.226412e+003,-1.518942e+001
1.227376e+003,-1.680211e+001
1.228341e+003,-1.623729e+001
1.229305e+003,-1.531784e+001
1.230269e+003,-1.492950e+001
1.231233e+003,-1.492184e+001
1.232198e+003,-1.498013e+001
1.233162e+003,-1.502078e+001
1.234126e+003,-1.457684e+001
1.235090e+003,-1.269365e+001
1.236055e+003,-1.087044e+001
1.237019e+003,-1.107317e+001
1.237983e+003,-1.263258e+001
1.238947e+003,-1.355682e+001
1.239911e+003,-1.298892e+001
1.240876e+003,-1.195998e+001
1.241840e+003,-1.208989e+001
1.242804e+003,-1.346217e+001
1.243768e+003,-1.435120e+001
1.244733e+003,-1.428947e+001
1.245697e+003,-1.432684e+001
1.246661e+003,-1.525905e+001
1.247625e+003,-1.580289e+001
1.248590e+003,-1.433131e+001
1.249554e+003,-1.153815e+001
1.250518e+003,-9.843689e+000
1.251482e+003,-1.043268e+001
1.252447e+003,-1.176205e+001
1.253411e+003,-1.193086e+001
1.254375e+003,-1.144995e+001
1.255339e+003,-1.153772e+001
1.256303e+003,-1.219231e+001
1.257268e+003,-1.276459e+001
1.258232e+003,-1.303671e+001
1.259196e+003,-1.296953e+001
1.260160e+003,-1.212349e+001
1.261125e+003,-1.015927e+001
1.262089e+003,-9.192352e+000
1.263053e+003,-1.092592e+001
1.264017e+003,-1.194687e+001
1.264982e+003,-1.062114e+001
1.265946e+003,-8.799759e+000
1.266910e+003,-8.315353e+000
1.267874e+003,-9.152847e+000
1.268839e+003,-1.009016e+001
1.269803e+003,-1.031694e+001
1.270767e+003,-1.016000e+001
1.271731e+003,-1.015623e+001
1.272695e+003,-1.030893e+001
1.273660e+003,-1.099326e+001
1.274624e+003,-1.276862e+001
1.275588e+003,-1.388399e+001
1.276552e+003,-1.254890e+001
1.277517e+003,-1.017628e+001
1.278481e+003,-9.687622e+000
1.279445e+003,-1.139865e+001
1.280409e+003,-1.294695e+001
1.281374e+003,-1.350238e+001
1.282338e+003,-1.380585e+001
1.283302e+003,-1.439056e+001
1.284266e+003,-1.489115e+001
1.285230e+003,-1.483519e+001
1.286195e+003,-1.421395e+001
1.287159e+003,-1.330215e+001
1.288123e+003,-1.229649e+001
1.289087e+003,-1.131381e+001
1.290052e+003,-1.086041e+001
1.291016e+003,-1.120265e+001
1.291980e+003,-1.132138e+001
1.292944e+003,-1.094814e+001
1.293909e+003,-1.083313e+001
1.294873e+003,-1.140985e+001
1.295837e+003,-1.222273e+001
1.296801e+003,-1.257347e+001
1.297766e+003,-1.241451e+001
1.298730e+003,-1.259760e+001
1.299694e+003,-1.406248e+001
1.300658e+003,-1.518564e+001
1.301622e+003,-1.327213e+001
1.302587e+003,-1.013972e+001
1.303551e+003,-8.896286e+000
1.304515e+003,-9.952072e+000
1.305479e+003,-1.138588e+001
1.306444e+003,-1.173366e+001
1.307408e+003,-1.129642e+001
1.308372e+003,-1.092010e+001
1.309336e+003,-1.050151e+001
1.310301e+003,-1.049756e+001
1.311265e+003,-1.131812e+001
1.312229e+003,-1.198880e+001
1.313193e+003,-1.212239e+001
1.314157e+003,-1.206291e+001
1.315122e+003,-1.222716e+001
1.316086e+003,-1.263614e+001
1.317050e+003,-1.296106e+001
1.318014e+003,-1.294881e+001
1.318979e+003,-1.279065e+001
1.319943e+003,-1.293986e+001
1.320907e+003,-1.329586e+001
1.321871e+003,-1.314013e+001
1.322836e+003,-1.226220e+001
1.323800e+003,-1.184039e+001
1.324764e+003,-1.337389e+001
1.325728e+003,-1.528142e+001
1.326693e+003,-1.433315e+001
1.327657e+003,-1.041867e+001
1.328621e+003,-7.883881e+000
1.329585e+003,-8.266678e+000
1.330549e+003,-9.182358e+000
1.331514e+003,-9.684494e+000
1.332478e+003,-1.008585e+001
1.333442e+003,-1.097688e+001
1.334406e+003,-1.198593e+001
1.335371e+003,-1.172471e+001
1.336335e+003,-9.429871e+000
1.337299e+003,-6.498337e+000
1.338263e+003,-5.633286e+000
1.339228e+003,-7.057617e+000
1.340192e+003,-8.462173e+000
1.341156e+003,-1.036823e+001
1.342120e+003,-1.151729e+001
1.343084e+003,-1.114488e+001
1.344049e+003,-1.058360e+001
1.345013e+003,-1.104130e+001
1.345977e+003,-1.217172e+001
1.346941e+003,-1.266622e+001
1.347906e+003,-1.202277e+001
1.348870e+003,-1.140620e+001
1.349834e+003,-1.242010e+001
1.350798e+003,-1.375734e+001
1.351763e+003,-1.215365e+001
1.352727e+003,-8.307663e+000
1.353691e+003,-6.696350e+000
1.354655e+003,-9.371201e+000
1.355620e+003,-1.321574e+001
1.356584e+003,-1.473323e+001
1.357548e+003,-1.408651e+001
1.358512e+003,-1.272774e+001
1.359476e+003,-1.023836e+001
1.360441e+003,-8.466110e+000
1.361405e+003,-7.975906e+000
1.362369e+003,-8.106293e+000
1.363333e+003,-9.416595e+000
1.364298e+003,-1.072506e+001
1.365262e+003,-9.930969e+000
1.366226e+003,-7.023300e+000
1.367190e+003,-4.610199e+000
1.368155e+003,-5.043365e+000
1.369119e+003,-7.324280e+000
1.370083e+003,-8.275497e+000
1.371047e+003,-7.414246e+000
1.372011e+003,-7.067566e+000
1.372976e+003,-7.982758e+000
1.373940e+003,-8.548904e+000
1.374904e+003,-7.800232e+000
1.375868e+003,-6.566422e+000
1.376833e+003,-5.850327e+000
1.377797e+003,-5.758102e+000
1.378761e+003,-5.955917e+000
1.379725e+003,-6.273621e+000
1.380690e+003,-6.880127e+000
1.381654e+003,-8.338913e+000
1.382618e+003,-9.975372e+000
1.383582e+003,-1.094973e+001
1.384547e+003,-1.120009e+001
1.385511e+003,-1.082172e+001
1.386475e+003,-9.814842e+000
1.387439e+003,-8.461807e+000
1.388403e+003,-6.979874e+000
1.389368e+003,-5.379761e+000
1.390332e+003,-4.613281e+000
1.391296e+003,-4.910843e+000
1.392260e+003,-5.575470e+000
1.393225e+003,-6.881180e+000
1.394189e+003,-8.035812e+000
1.395153e+003,-8.744225e+000
1.396117e+003,-8.926689e+000
1.397082e+003,-8.313629e+000
1.398046e+003,-7.004761e+000
1.399010e+003,-5.693222e+000
1.399974e+003,-5.053070e+000
1.400938e+003,-5.043671e+000
1.401903e+003,-5.380859e+000
1.402867e+003,-6.082443e+000
1.403831e+003,-6.163315e+000
1.404795e+003,-5.751801e+000
1.405760e+003,-4.760895e+000
1.406724e+003,-2.291534e+000
1.407688e+003,-5.194092e-002
1.408652e+003,-2.349548e-001
1.409617e+003,-2.516739e+000
1.410581e+003,-4.698074e+000
1.411545e+003,-5.956253e+000
1.412509e+003,-6.710052e+000
1.413474e+003,-7.176224e+000
1.414438e+003,-7.587654e+000
1.415402e+003,-8.345665e+000
1.416366e+003,-9.285416e+000
1.417330e+003,-9.731293e+000
1.418295e+003,-9.416512e+000
1.419259e+003,-8.534264e+000
1.420223e+003,-7.036087e+000
1.421187e+003,-5.148056e+000
1.422152e+003,-4.206497e+000
1.423116e+003,-4.625748e+000
1.424080e+003,-4.439896e+000
1.425044e+003,-2.063660e+000
1.426009e+003,-2.717896e-001
1.426973e+003,-6.892090e-001
1.427937e+003,-2.059143e+000
1.428901e+003,-3.020660e+000
1.429865e+003,-3.249207e+000
1.430830e+003,-2.942322e+000
1.431794e+003,-2.278992e+000
1.432758e+003,-1.454041e+000
1.433722e+003,-7.157288e-001
1.434687e+003,1.056061e-001
1.435651e+003,-2.130127e-002
1.436615e+003,-2.484253e+000
1.437579e+003,-4.279037e+000
1.438544e+003,-4.788528e+000
1.439508e+003,-4.853012e+000
1.440472e+003,-4.786438e+000
1.441436e+003,-4.698105e+000
1.442401e+003,-4.983002e+000
1.443365e+003,-5.631470e+000
1.444329e+003,-5.428787e+000
1.445293e+003,-3.164841e+000
1.446257e+003,-3.334045e-001
1.447222e+003,-1.132202e-002
1.448186e+003,-1.774673e+000
1.449150e+003,-3.451111e+000
1.450114e+003,-4.984955e+000
1.451079e+003,-6.025322e+000
1.452043e+003,-6.556557e+000
1.453007e+003,-6.291748e+000
1.453971e+003,-3.958862e+000
1.454936e+003,-1.367493e-001
1.455900e+003,6.372375e-001
1.456864e+003,-3.597595e+000
1.457828e+003,-7.194763e+000
1.458792e+003,-5.845795e+000
1.459757e+003,-3.549759e+000
1.460721e+003,-3.712051e+000
1.461685e+003,-5.403946e+000
1.462649e+003,-6.571457e+000
1.463614e+003,-6.600060e+000
1.464578e+003,-5.830597e+000
1.465542e+003,-4.394730e+000
1.466506e+003,-2.797455e+000
1.467471e+003,-2.656128e+000
1.468435e+003,-4.344864e+000
1.469399e+003,-5.200775e+000
1.470363e+003,-4.444687e+000
1.471328e+003,-3.911423e+000
1.472292e+003,-4.422424e+000
1.473256e+003,-5.016373e+000
1.474220e+003,-4.742027e+000
1.475184e+003,-3.934860e+000
1.476149e+003,-3.550659e+000
1.477113e+003,-3.862671e+000
1.478077e+003,-4.098389e+000
1.479041e+003,-3.435089e+000
1.480006e+003,-2.246750e+000
1.480970e+003,-1.967499e+000
1.481934e+003,-3.054077e+000
1.482898e+003,-3.392990e+000
1.483863e+003,-2.668411e+000
1.484827e+003,-1.764191e+000
1.485791e+003,-4.234467e-001
1.486755e+003,6.924286e-001
1.487719e+003,7.548370e-001
1.488684e+003,3.436279e-002
1.489648e+003,-6.257477e-001
1.490612e+003,-9.120178e-001
1.491576e+003,-8.992767e-001
1.492541e+003,-7.001953e-001
1.493505e+003,-2.478027e-001
1.494469e+003,9.045258e-001
1.495433e+003,2.504974e+000
1.496398e+003,3.316071e+000
1.497362e+003,3.170883e+000
1.498326e+003,2.673187e+000
1.499290e+003,1.560562e+000
1.500255e+003,6.523132e-001
1.501219e+003,1.191269e+000
1.502183e+003,2.983566e+000
1.503147e+003,4.950470e+000
1.504111e+003,6.937576e+000
1.505076e+003,8.679352e+000
1.506040e+003,1.006674e+001
1.507004e+003,1.109108e+001
1.507968e+003,1.128317e+001
1.508933e+003,1.128178e+001
1.509897e+003,1.251813e+001
1.510861e+003,1.529765e+001
1.511825e+003,1.867097e+001
1.512790e+003,2.206841e+001
1.513754e+003,2.526947e+001
1.514718e+003,2.789987e+001
1.515682e+003,2.991350e+001
1.516646e+003,3.171555e+001
1.517611e+003,3.310460e+001
1.518575e+003,3.504546e+001
1.519539e+003,3.898399e+001
1.520503e+003,4.246684e+001
1.521468e+003,4.420532e+001
1.522432e+003,4.461378e+001
1.523396e+003,4.408202e+001
1.524360e+003,4.293604e+001
1.525325e+003,4.189523e+001
1.526289e+003,4.145584e+001
1.527253e+003,4.085159e+001
1.528217e+003,3.858803e+001
1.529182e+003,3.468837e+001
1.530146e+003,3.101857e+001
1.531110e+003,2.708879e+001
1.532074e+003,2.426056e+001
1.533039e+003,2.385779e+001
1.534003e+003,2.271021e+001
1.534967e+003,1.899973e+001
1.535931e+003,1.434222e+001
1.536896e+003,1.009047e+001
1.537860e+003,6.808014e+000
1.538824e+003,5.063736e+000
1.539788e+003,5.035645e+000
1.540752e+003,5.710739e+000
1.541717e+003,5.866272e+000
1.542681e+003,5.570694e+000
1.543645e+003,5.100937e+000
1.544609e+003,4.426254e+000
1.545573e+003,3.832886e+000
1.546538e+003,2.862976e+000
1.547502e+003,2.375610e+000
1.548466e+003,2.972061e+000
1.549430e+003,4.128845e+000
1.550395e+003,5.660965e+000
1.551359e+003,7.134979e+000
1.552323e+003,7.578705e+000
1.553287e+003,6.717789e+000
1.554252e+003,5.469879e+000
1.555216e+003,4.555389e+000
1.556180e+003,3.985977e+000
1.557144e+003,3.889282e+000
1.558109e+003,4.311417e+000
1.559073e+003,4.626511e+000
1.560037e+003,5.048584e+000
1.561001e+003,4.651199e+000
1.561966e+003,2.300873e+000
1.562930e+003,-3.800201e-002
1.563894e+003,-5.844650e-001
1.564858e+003,2.433777e-001
1.565823e+003,1.573143e+000
1.566787e+003,3.134941e+000
1.567751e+003,4.056244e+000
1.568715e+003,3.714584e+000
1.569679e+003,3.000923e+000
1.570644e+003,2.853790e+000
1.571608e+003,3.201477e+000
1.572572e+003,4.110252e+000
1.573536e+003,5.649261e+000
1.574500e+003,6.653336e+000
1.575465e+003,6.584572e+000
1.576429e+003,6.063232e+000
1.577393e+003,5.124985e+000
1.578357e+003,4.232124e+000
1.579322e+003,4.504784e+000
1.580286e+003,5.950851e+000
1.581250e+003,7.509926e+000
1.582214e+003,9.051506e+000
1.583179e+003,9.924316e+000
1.584143e+003,9.369606e+000
1.585107e+003,8.026634e+000
1.586071e+003,6.335815e+000
1.587036e+003,4.785278e+000
1.588000e+003,4.982719e+000
1.588964e+003,7.339203e+000
1.589928e+003,9.511047e+000
1.590893e+003,9.738274e+000
1.591857e+003,9.141174e+000
1.592821e+003,9.548462e+000
1.593785e+003,1.071568e+001
1.594750e+003,1.102724e+001
1.595714e+003,1.010939e+001
1.596678e+003,9.245338e+000
1.597642e+003,8.671013e+000
1.598606e+003,8.750610e+000
1.599571e+003,1.062753e+001
1.600535e+003,1.282121e+001
1.601499e+003,1.300153e+001
1.602463e+003,1.143337e+001
1.603427e+003,1.042797e+001
1.604392e+003,1.096017e+001
1.605356e+003,1.199982e+001
1.606320e+003,1.254345e+001
1.607284e+003,1.277916e+001
1.608249e+003,1.335608e+001
1.609213e+003,1.429874e+001
1.610177e+003,1.466055e+001
1.611141e+003,1.399449e+001
1.612106e+003,1.347723e+001
1.613070e+003,1.411812e+001
1.614034e+003,1.468459e+001
1.614998e+003,1.386315e+001
1.615963e+003,1.252486e+001
1.616927e+003,1.215851e+001
1.617891e+003,1.295737e+001
1.618855e+003,1.432610e+001
1.619820e+003,1.601134e+001
1.620784e+003,1.737658e+001
1.621748e+003,1.748840e+001
1.622712e+003,1.662933e+001
1.623677e+003,1.585347e+001
1.624641e+003,1.511044e+001
1.625605e+003,1.486717e+001
1.626569e+003,1.527094e+001
1.627533e+003,1.576890e+001
1.628498e+003,1.641045e+001
1.629462e+003,1.691199e+001
1.630426e+003,1.676818e+001
1.631390e+003,1.632246e+001
1.632354e+003,1.645822e+001
1.633319e+003,1.731226e+001
1.634283e+003,1.797245e+001
1.635247e+003,1.765002e+001
1.636211e+003,1.706132e+001
1.637176e+003,1.777785e+001
1.638140e+003,1.969409e+001
1.639104e+003,2.071807e+001
1.640068e+003,2.068353e+001
1.641033e+003,1.999837e+001
1.641997e+003,1.804915e+001
1.642961e+003,1.655527e+001
1.643925e+003,1.696979e+001
1.644890e+003,1.770238e+001
1.645854e+003,1.685596e+001
1.646818e+003,1.498921e+001
1.647782e+003,1.390034e+001
1.648747e+003,1.412652e+001
1.649711e+003,1.481277e+001
1.650675e+003,1.528267e+001
1.651639e+003,1.582232e+001
1.652604e+003,1.718786e+001
1.653568e+003,1.928358e+001
1.654532e+003,2.027914e+001
1.655496e+003,1.986196e+001
1.656460e+003,1.910539e+001
1.657425e+003,1.793372e+001
1.658389e+003,1.705485e+001
1.659353e+003,1.719640e+001
1.660317e+003,1.752509e+001
1.661281e+003,1.712734e+001
1.662246e+003,1.608569e+001
1.663210e+003,1.477652e+001
1.664174e+003,1.338961e+001
1.665138e+003,1.260443e+001
1.666103e+003,1.308051e+001
1.667067e+003,1.428107e+001
1.668031e+003,1.540331e+001
1.668995e+003,1.641014e+001
1.669960e+003,1.640556e+001
1.670924e+003,1.501850e+001
1.671888e+003,1.404730e+001
1.672852e+003,1.456528e+001
1.673817e+003,1.478013e+001
1.674781e+003,1.278694e+001
1.675745e+003,1.047218e+001
1.676709e+003,1.012716e+001
1.677674e+003,1.131920e+001
1.678638e+003,1.233158e+001
1.679602e+003,1.262220e+001
1.680566e+003,1.223756e+001
1.681531e+003,1.081694e+001
1.682495e+003,9.357979e+000
1.683459e+003,1.005096e+001
1.684423e+003,1.232901e+001
1.685387e+003,1.238972e+001
1.686352e+003,9.530273e+000
1.687316e+003,7.827805e+000
1.688280e+003,9.342049e+000
1.689244e+003,1.085175e+001
1.690208e+003,9.258286e+000
1.691173e+003,6.860756e+000
1.692137e+003,6.156937e+000
1.693101e+003,6.911530e+000
1.694065e+003,8.155815e+000
1.695030e+003,9.660393e+000
1.695994e+003,1.015434e+001
1.696958e+003,8.246178e+000
1.697922e+003,5.742683e+000
1.698887e+003,5.053581e+000
1.699851e+003,5.600494e+000
1.700815e+003,5.413727e+000
1.701779e+003,4.325920e+000
1.702744e+003,3.973289e+000
1.703708e+003,5.162605e+000
1.704672e+003,6.245087e+000
1.705636e+003,5.599724e+000
1.706601e+003,4.454857e+000
1.707565e+003,4.901268e+000
1.708529e+003,6.496971e+000
1.709493e+003,7.938652e+000
1.710458e+003,9.169487e+000
1.711422e+003,9.278229e+000
1.712386e+003,6.763596e+000
1.713350e+003,4.449654e+000
1.714314e+003,5.277252e+000
1.715279e+003,7.269600e+000
1.716243e+003,6.681503e+000
1.717207e+003,3.976387e+000
1.718171e+003,2.986946e+000
1.719135e+003,4.782814e+000
1.720100e+003,6.199440e+000
1.721064e+003,4.931519e+000
1.722028e+003,2.790207e+000
1.722992e+003,2.611038e+000
1.723957e+003,3.949310e+000
1.724921e+003,3.698143e+000
1.725885e+003,1.379692e+000
1.726849e+003,-3.836823e-002
1.727814e+003,2.740021e-001
1.728778e+003,1.267937e+000
1.729742e+003,3.053764e+000
1.730706e+003,4.779106e+000
1.731671e+003,5.463493e+000
1.732635e+003,5.384247e+000
1.733599e+003,5.383484e+000
1.734563e+003,5.647049e+000
1.735528e+003,5.800056e+000
1.736492e+003,5.615166e+000
1.737456e+003,5.040192e+000
1.738420e+003,3.920624e+000
1.739385e+003,2.539406e+000
1.740349e+003,2.186028e+000
1.741313e+003,3.249428e+000
1.742277e+003,3.585617e+000
1.743241e+003,2.771355e+000
1.744206e+003,2.048561e+000
1.745170e+003,1.184303e+000
1.746134e+003,8.298187e-001
1.747098e+003,1.957108e+000
1.748063e+003,3.318649e+000
1.749027e+003,3.316284e+000
1.749991e+003,2.270935e+000
1.750955e+003,1.412560e+000
1.751919e+003,1.221138e+000
1.752884e+003,1.593773e+000
1.753848e+003,2.463776e+000
1.754812e+003,3.349037e+000
1.755776e+003,3.187965e+000
1.756741e+003,2.092842e+000
1.757705e+003,2.248940e+000
1.758669e+003,4.316391e+000
1.759633e+003,5.546570e+000
1.760598e+003,5.140968e+000
1.761562e+003,4.515877e+000
1.762526e+003,4.393539e+000
1.763490e+003,4.023514e+000
1.764455e+003,2.304794e+000
1.765419e+003,2.770081e-001
1.766383e+003,-4.003220e-001
1.767347e+003,3.067169e-001
1.768312e+003,1.388931e+000
1.769276e+003,2.372856e+000
1.770240e+003,2.926071e+000
1.771204e+003,2.660095e+000
1.772168e+003,1.939331e+000
1.773133e+003,1.418739e+000
1.774097e+003,1.089500e+000
1.775061e+003,9.350052e-001
1.776025e+003,9.298248e-001
1.776990e+003,7.370071e-001
1.777954e+003,-8.373260e-002
1.778918e+003,-1.613007e-001
1.779882e+003,2.327957e+000
1.780846e+003,5.346214e+000
1.781811e+003,6.091927e+000
1.782775e+003,5.127708e+000
1.783739e+003,4.198433e+000
1.784703e+003,3.549538e+000
1.785668e+003,3.111343e+000
1.786632e+003,2.812271e+000
1.787596e+003,2.631752e+000
1.788560e+003,2.895950e+000
1.789525e+003,3.180481e+000
1.790489e+003,2.402672e+000
1.791453e+003,1.058975e+000
1.792417e+003,1.183357e+000
1.793382e+003,2.997398e+000
1.794346e+003,4.062073e+000
1.795310e+003,3.019630e+000
1.796274e+003,1.478630e+000
1.797239e+003,1.316818e+000
1.798203e+003,2.172287e+000
1.799167e+003,2.690025e+000
1.800131e+003,2.704185e+000
1.801095e+003,2.684166e+000
1.802060e+003,2.837814e+000
1.803024e+003,2.854637e+000
1.803988e+003,2.404533e+000
1.804952e+003,2.099648e+000
1.805917e+003,2.229393e+000
1.806881e+003,2.638947e+000
1.807845e+003,3.520370e+000
1.808809e+003,4.444702e+000
1.809773e+003,4.474785e+000
1.810738e+003,3.576050e+000
1.811702e+003,2.730331e+000
1.812666e+003,2.550491e+000
1.813630e+003,2.788322e+000
1.814595e+003,3.172928e+000
1.815559e+003,3.600029e+000
1.816523e+003,3.588776e+000
1.817487e+003,3.061920e+000
1.818452e+003,3.259827e+000
1.819416e+003,4.824783e+000
1.820380e+003,5.532883e+000
1.821344e+003,4.088806e+000
1.822309e+003,2.520958e+000
1.823273e+003,2.092438e+000
1.824237e+003,2.144562e+000
1.825201e+003,1.883125e+000
1.826166e+003,1.516212e+000
1.827130e+003,1.921089e+000
1.828094e+003,3.187248e+000
1.829058e+003,3.883286e+000
1.830022e+003,3.122894e+000
1.830987e+003,2.142097e+000
1.831951e+003,1.989799e+000
1.832915e+003,2.220772e+000
1.833879e+003,2.052986e+000
1.834844e+003,1.713287e+000
1.835808e+003,2.089920e+000
1.836772e+003,3.245888e+000
1.837736e+003,4.388054e+000
1.838700e+003,5.156898e+000
1.839665e+003,5.470818e+000
1.840629e+003,5.243561e+000
1.841593e+003,4.605659e+000
1.842557e+003,3.643204e+000
1.843522e+003,2.373466e+000
1.844486e+003,2.329727e+000
1.845450e+003,4.925659e+000
1.846414e+003,6.140503e+000
1.847379e+003,4.488274e+000
1.848343e+003,3.319832e+000
1.849307e+003,4.346161e+000
1.850271e+003,5.481575e+000
1.851236e+003,4.848610e+000
1.852200e+003,3.641708e+000
1.853164e+003,3.922424e+000
1.854128e+003,5.288460e+000
1.855093e+003,5.468071e+000
1.856057e+003,3.820015e+000
1.857021e+003,2.471344e+000
1.857985e+003,3.228249e+000
1.858949e+003,4.933144e+000
1.859914e+003,5.604477e+000
1.860878e+003,5.465897e+000
1.861842e+003,5.774376e+000
1.862806e+003,6.532867e+000
1.863771e+003,7.012695e+000
1.864735e+003,7.145020e+000
1.865699e+003,6.536247e+000
1.866663e+003,4.523758e+000
1.867627e+003,2.766884e+000
1.868592e+003,2.958229e+000
1.869556e+003,4.121239e+000
1.870520e+003,4.362900e+000
1.871484e+003,3.881569e+000
1.872449e+003,4.241501e+000
1.873413e+003,6.217758e+000
1.874377e+003,7.272758e+000
1.875341e+003,5.413033e+000
1.876306e+003,3.824753e+000
1.877270e+003,4.710190e+000
1.878234e+003,6.177399e+000
1.879198e+003,6.124489e+000
1.880163e+003,5.318214e+000
1.881127e+003,5.694725e+000
1.882091e+003,7.132973e+000
1.883055e+003,7.645439e+000
1.884020e+003,6.516808e+000
1.884984e+003,5.495178e+000
1.885948e+003,6.212433e+000
1.886912e+003,7.524971e+000
1.887876e+003,7.013199e+000
1.888841e+003,4.891998e+000
1.889805e+003,3.769936e+000
1.890769e+003,3.759094e+000
1.891733e+003,4.222054e+000
1.892698e+003,5.409470e+000
1.893662e+003,6.188622e+000
1.894626e+003,5.809929e+000
1.895590e+003,5.430367e+000
1.896554e+003,6.130409e+000
1.897519e+003,7.121529e+000
1.898483e+003,7.481438e+000
1.899447e+003,7.212257e+000
1.900411e+003,6.463242e+000
1.901376e+003,5.219604e+000
1.902340e+003,4.568733e+000
1.903304e+003,5.277740e+000
1.904268e+003,6.083549e+000
1.905233e+003,6.211983e+000
1.906197e+003,6.114632e+000
1.907161e+003,6.301338e+000
1.908125e+003,6.607216e+000
1.909090e+003,6.507362e+000
1.910054e+003,6.096878e+000
1.911018e+003,6.103592e+000
1.911982e+003,6.744499e+000
1.912947e+003,7.488274e+000
1.913911e+003,7.932037e+000
1.914875e+003,7.971619e+000
1.915839e+003,7.380173e+000
1.916803e+003,6.257500e+000
1.917768e+003,5.247887e+000
1.918732e+003,4.303047e+000
1.919696e+003,4.137154e+000
1.920660e+003,5.296272e+000
1.921625e+003,5.732460e+000
1.922589e+003,4.294891e+000
1.923553e+003,3.140968e+000
1.924517e+003,3.406693e+000
1.925481e+003,4.471382e+000
1.926446e+003,6.296883e+000
1.927410e+003,8.342552e+000
1.928374e+003,9.565659e+000
1.929338e+003,9.887657e+000
1.930303e+003,9.922928e+000
1.931267e+003,9.838272e+000
1.932231e+003,9.709106e+000
1.933195e+003,9.435715e+000
1.934160e+003,9.160690e+000
1.935124e+003,9.119652e+000
1.936088e+003,8.998871e+000
1.937052e+003,8.279510e+000
1.938017e+003,7.307930e+000
1.938981e+003,6.755981e+000
1.939945e+003,6.756180e+000
1.940909e+003,7.241081e+000
1.941874e+003,8.112206e+000
1.942838e+003,9.026314e+000
1.943802e+003,9.742546e+000
1.944766e+003,1.012446e+001
1.945730e+003,9.665924e+000
1.946695e+003,8.477119e+000
1.947659e+003,7.758141e+000
1.948623e+003,7.499588e+000
1.949587e+003,7.652893e+000
1.950552e+003,8.271652e+000
1.951516e+003,9.220634e+000
1.952480e+003,1.062423e+001
1.953444e+003,1.201614e+001
1.954408e+003,1.339367e+001
1.955373e+003,1.418840e+001
1.956337e+003,1.296357e+001
1.957301e+003,1.062306e+001
1.958265e+003,1.053879e+001
1.959230e+003,1.320882e+001
1.960194e+003,1.451045e+001
1.961158e+003,1.309059e+001
1.962122e+003,1.127862e+001
1.963087e+003,8.832420e+000
1.964051e+003,7.192230e+000
1.965015e+003,7.604622e+000
1.965979e+003,8.946213e+000
1.966944e+003,1.063031e+001
1.967908e+003,1.196247e+001
1.968872e+003,1.173084e+001
1.969836e+003,1.023154e+001
1.970801e+003,9.232887e+000
1.971765e+003,9.485657e+000
1.972729e+003,1.017976e+001
1.973693e+003,1.060948e+001
1.974657e+003,1.114288e+001
1.975622e+003,1.278451e+001
1.976586e+003,1.476876e+001
1.977550e+003,1.472980e+001
1.978514e+003,1.307359e+001
1.979479e+003,1.228063e+001
1.980443e+003,1.266797e+001
1.981407e+003,1.315237e+001
1.982371e+003,1.338210e+001
1.983335e+003,1.300162e+001
1.984300e+003,1.155360e+001
1.985264e+003,1.010983e+001
1.986228e+003,1.047955e+001
1.987192e+003,1.221465e+001
1.988157e+003,1.297229e+001
1.989121e+003,1.256369e+001
1.990085e+003,1.222507e+001
1.991049e+003,1.173361e+001
1.992014e+003,1.183130e+001
1.992978e+003,1.312497e+001
1.993942e+003,1.425008e+001
1.994906e+003,1.518559e+001
1.995871e+003,1.535211e+001
1.996835e+003,1.341232e+001
1.997799e+003,1.100977e+001
1.998763e+003,1.075484e+001
1.999728e+003,1.227857e+001
