5.003444e+002,4.269170e+001
5.013087e+002,4.204861e+001
5.022729e+002,4.029518e+001
5.032371e+002,3.811272e+001
5.042014e+002,3.730957e+001
5.051656e+002,3.771931e+001
5.061298e+002,3.854536e+001
5.070941e+002,3.904848e+001
5.080583e+002,3.904639e+001
5.090225e+002,3.943002e+001
5.099868e+002,4.082814e+001
5.109510e+002,4.185141e+001
5.119152e+002,4.158162e+001
5.128795e+002,3.990439e+001
5.138437e+002,3.847943e+001
5.148079e+002,3.801680e+001
5.157722e+002,3.783640e+001
5.167364e+002,3.782744e+001
5.177006e+002,3.782178e+001
5.186649e+002,3.752388e+001
5.196291e+002,3.623795e+001
5.205933e+002,3.492786e+001
5.215576e+002,3.495103e+001
5.225218e+002,3.613649e+001
5.234860e+002,3.722392e+001
5.244503e+002,3.600008e+001
5.254145e+002,3.166188e+001
5.263787e+002,2.856879e+001
5.273430e+002,2.667119e+001
5.283072e+002,2.600897e+001
5.292714e+002,2.701060e+001
5.302357e+002,3.116524e+001
5.311999e+002,3.326852e+001
5.321641e+002,3.178928e+001
5.331284e+002,2.939308e+001
5.340926e+002,2.804005e+001
5.350568e+002,2.842569e+001
5.360211e+002,2.921153e+001
5.369853e+002,2.966928e+001
5.379495e+002,2.982584e+001
5.389138e+002,2.951143e+001
5.398780e+002,2.869630e+001
5.408422e+002,2.757602e+001
5.418065e+002,2.672240e+001
5.427707e+002,2.609087e+001
5.437349e+002,2.532872e+001
5.446992e+002,2.428435e+001
5.456634e+002,2.305910e+001
5.466276e+002,2.203998e+001
5.475919e+002,2.141490e+001
5.485561e+002,2.089275e+001
5.495203e+002,2.025014e+001
5.504846e+002,1.968848e+001
5.514488e+002,1.961301e+001
5.524130e+002,2.048207e+001
5.533773e+002,2.130821e+001
5.543415e+002,2.159447e+001
5.553057e+002,2.158217e+001
5.562700e+002,2.153052e+001
5.572342e+002,2.158118e+001
5.581984e+002,2.151619e+001
5.591627e+002,2.072426e+001
5.601269e+002,1.954681e+001
5.610911e+002,1.858786e+001
5.620554e+002,1.815916e+001
5.630196e+002,1.810867e+001
5.639838e+002,1.737891e+001
5.649481e+002,1.456714e+001
5.659123e+002,1.310118e+001
5.668765e+002,1.461179e+001
5.678408e+002,1.806496e+001
5.688050e+002,2.035965e+001
5.697692e+002,2.009772e+001
5.707335e+002,1.901405e+001
5.716977e+002,1.722740e+001
5.726619e+002,1.523453e+001
5.736262e+002,1.347269e+001
5.745904e+002,1.217458e+001
5.755546e+002,1.165608e+001
5.765189e+002,1.244890e+001
5.774831e+002,1.397659e+001
5.784473e+002,1.552597e+001
5.794116e+002,1.664244e+001
5.803758e+002,1.735263e+001
5.813400e+002,1.689215e+001
5.823043e+002,1.459735e+001
5.832685e+002,1.281201e+001
5.842327e+002,1.286624e+001
5.851970e+002,1.446056e+001
5.861612e+002,1.520711e+001
5.871254e+002,1.350562e+001
5.880897e+002,1.218832e+001
5.890539e+002,1.198874e+001
5.900181e+002,1.244078e+001
5.909824e+002,1.270830e+001
5.919466e+002,1.224821e+001
5.929108e+002,1.159885e+001
5.938751e+002,1.156596e+001
5.948393e+002,1.173676e+001
5.958035e+002,1.131148e+001
5.967678e+002,9.739853e+000
5.977320e+002,7.384796e+000
5.986962e+002,7.025970e+000
5.996605e+002,8.483231e+000
6.006247e+002,1.005734e+001
6.015889e+002,1.120363e+001
6.025532e+002,1.191795e+001
6.035174e+002,1.205925e+001
6.044816e+002,1.042526e+001
6.054459e+002,9.570068e+000
6.064101e+002,1.027852e+001
6.073743e+002,1.194344e+001
6.083386e+002,1.358740e+001
6.093028e+002,1.507578e+001
6.102670e+002,1.562497e+001
6.112313e+002,1.406100e+001
6.121955e+002,1.163960e+001
6.131597e+002,1.013571e+001
6.141240e+002,1.073198e+001
6.150882e+002,1.268155e+001
6.160524e+002,1.272749e+001
6.170167e+002,1.126422e+001
6.179809e+002,9.570938e+000
6.189451e+002,8.003891e+000
6.199094e+002,6.577499e+000
6.208736e+002,5.750122e+000
6.218378e+002,6.079483e+000
6.228021e+002,6.649139e+000
6.237663e+002,7.858871e+000
6.247305e+002,9.176666e+000
6.256948e+002,9.580154e+000
6.266590e+002,8.078903e+000
6.276232e+002,6.774414e+000
6.285875e+002,7.308777e+000
6.295517e+002,8.606308e+000
6.305159e+002,9.560242e+000
6.314802e+002,9.532303e+000
6.324444e+002,8.827301e+000
6.334086e+002,8.463455e+000
6.343729e+002,8.319275e+000
6.353371e+002,7.472855e+000
6.363013e+002,5.322540e+000
6.372656e+002,2.546982e+000
6.382298e+002,1.709778e+000
6.391940e+002,5.802200e+000
6.401583e+002,7.835922e+000
6.411225e+002,6.190292e+000
6.420867e+002,3.425156e+000
6.430510e+002,2.784363e+000
6.440152e+002,5.763290e+000
6.449794e+002,8.237869e+000
6.459437e+002,7.765884e+000
6.469079e+002,6.266968e+000
6.478721e+002,5.309784e+000
6.488364e+002,5.401382e+000
6.498006e+002,5.579865e+000
6.507648e+002,3.375336e+000
6.517291e+002,-2.175903e-002
6.526933e+002,-1.380844e+000
6.536575e+002,-2.548218e-002
6.546218e+002,2.845688e+000
6.555860e+002,4.973480e+000
6.565502e+002,6.048935e+000
6.575145e+002,6.839325e+000
6.584787e+002,7.399017e+000
6.594429e+002,7.695709e+000
6.604072e+002,7.674026e+000
6.613714e+002,7.313141e+000
6.623356e+002,6.783249e+000
6.632999e+002,5.810074e+000
6.642641e+002,4.877747e+000
6.652283e+002,4.332062e+000
6.661926e+002,4.209656e+000
6.671568e+002,4.315811e+000
6.681210e+002,4.429993e+000
6.690853e+002,4.488327e+000
6.700495e+002,4.435165e+000
6.710137e+002,4.281876e+000
6.719780e+002,4.130951e+000
6.729422e+002,4.076538e+000
6.739064e+002,4.099762e+000
6.748707e+002,4.153381e+000
6.758349e+002,4.558746e+000
6.767991e+002,4.604126e+000
6.777634e+002,3.704071e+000
6.787276e+002,2.114227e+000
6.796918e+002,1.271408e+000
6.806561e+002,2.406479e+000
6.816203e+002,3.478241e+000
6.825845e+002,3.567978e+000
6.835488e+002,3.077957e+000
6.845130e+002,2.800003e+000
6.854772e+002,3.368179e+000
6.864415e+002,4.364258e+000
6.874057e+002,4.708389e+000
6.883699e+002,4.489090e+000
6.893342e+002,4.134628e+000
6.902984e+002,3.931000e+000
6.912626e+002,3.796173e+000
6.922269e+002,2.961823e+000
6.931911e+002,2.803802e-001
6.941553e+002,-1.262070e+000
6.951196e+002,-1.020996e+000
6.960838e+002,1.950226e-001
6.970480e+002,1.238220e+000
6.980123e+002,1.950531e+000
6.989765e+002,2.385666e+000
6.999407e+002,2.140671e+000
7.009050e+002,1.962921e+000
7.018692e+002,2.797577e+000
7.028334e+002,4.758850e+000
7.037977e+002,6.610016e+000
7.047619e+002,6.043518e+000
7.057261e+002,4.107803e+000
7.066904e+002,2.698044e+000
7.076546e+002,2.113678e+000
7.086188e+002,2.175171e+000
7.095831e+002,2.665604e+000
7.105473e+002,3.831009e+000
7.115115e+002,4.453552e+000
7.124758e+002,4.140503e+000
7.134400e+002,3.738815e+000
7.144042e+002,3.863495e+000
7.153685e+002,4.553391e+000
7.163327e+002,5.104752e+000
7.172969e+002,5.098160e+000
7.182612e+002,4.981430e+000
7.192254e+002,5.020935e+000
7.201896e+002,5.038010e+000
7.211539e+002,4.557831e+000
7.221181e+002,3.093796e+000
7.230823e+002,1.286163e+000
7.240466e+002,1.086655e+000
7.250108e+002,2.159576e+000
7.259750e+002,2.818466e+000
7.269393e+002,1.818298e+000
7.279035e+002,-5.445099e-001
7.288677e+002,-1.064972e+000
7.298320e+002,3.698044e+000
7.307962e+002,6.325043e+000
7.317604e+002,4.695282e+000
7.327247e+002,1.335007e+000
7.336889e+002,-2.194519e-001
7.346531e+002,1.220490e+000
7.356174e+002,2.922470e+000
7.365816e+002,4.000031e+000
7.375458e+002,4.536255e+000
7.385101e+002,4.306290e+000
7.394743e+002,3.414474e+000
7.404385e+002,2.388779e+000
7.414028e+002,1.970978e+000
7.423670e+002,1.957489e+000
7.433312e+002,2.102829e+000
7.442955e+002,2.553360e+000
7.452597e+002,3.051926e+000
7.462239e+002,3.241241e+000
7.471882e+002,3.025421e+000
7.481524e+002,2.699982e+000
7.491166e+002,1.840622e+000
7.500809e+002,1.125351e+000
7.510451e+002,8.006439e-001
7.520093e+002,8.464508e-001
7.529736e+002,1.143814e+000
7.539378e+002,1.908417e+000
7.549020e+002,2.731979e+000
7.558663e+002,3.588257e+000
7.568306e+002,4.238907e+000
7.577948e+002,4.097672e+000
7.587590e+002,2.867294e+000
7.597233e+002,1.186325e+000
7.606875e+002,1.456909e+000
7.616517e+002,3.470703e+000
7.626160e+002,5.195343e+000
7.635802e+002,6.255066e+000
7.645444e+002,6.664032e+000
7.655087e+002,6.318298e+000
7.664729e+002,4.704056e+000
7.674371e+002,3.368729e+000
7.684014e+002,2.080704e+000
7.693656e+002,1.296234e+000
7.703298e+002,1.549911e+000
7.712941e+002,2.796783e+000
7.722583e+002,4.072342e+000
7.732225e+002,4.437714e+000
7.741868e+002,4.794922e+000
7.751510e+002,6.145645e+000
7.761152e+002,8.114197e+000
7.770795e+002,9.693909e+000
7.780437e+002,9.977097e+000
7.790079e+002,9.122101e+000
7.799722e+002,8.826797e+000
7.809364e+002,9.268997e+000
7.819006e+002,9.048141e+000
7.828649e+002,6.915527e+000
7.838291e+002,3.768906e+000
7.847933e+002,2.666611e+000
7.857576e+002,5.406464e+000
7.867218e+002,7.060287e+000
7.876860e+002,5.813461e+000
7.886503e+002,4.126053e+000
7.896145e+002,4.372711e+000
7.905787e+002,7.042328e+000
7.915430e+002,9.854858e+000
7.925072e+002,1.032956e+001
7.934714e+002,9.365921e+000
7.944357e+002,7.496384e+000
7.953999e+002,5.138412e+000
7.963641e+002,3.175369e+000
7.973284e+002,2.574570e+000
7.982926e+002,3.418640e+000
7.992568e+002,4.385773e+000
8.002211e+002,5.900543e+000
8.011853e+002,6.510284e+000
8.021495e+002,5.273041e+000
8.031138e+002,2.874268e+000
8.040780e+002,1.416794e+000
8.050422e+002,1.605484e+000
8.060065e+002,2.040955e+000
8.069707e+002,2.162796e+000
8.079349e+002,2.218842e+000
8.088992e+002,2.471878e+000
8.098634e+002,3.060165e+000
8.108276e+002,3.983658e+000
8.117919e+002,5.467697e+000
8.127561e+002,6.974808e+000
8.137203e+002,7.762543e+000
8.146846e+002,7.825531e+000
8.156488e+002,7.194824e+000
8.166130e+002,5.648361e+000
8.175773e+002,2.688370e+000
8.185415e+002,1.745819e+000
8.195057e+002,3.936859e+000
8.204700e+002,6.176285e+000
8.214342e+002,7.551163e+000
8.223984e+002,8.194473e+000
8.233627e+002,8.603073e+000
8.243269e+002,8.972382e+000
8.252911e+002,9.094086e+000
8.262554e+002,9.061279e+000
8.272196e+002,8.680969e+000
8.281838e+002,7.417877e+000
8.291481e+002,5.275574e+000
8.301123e+002,3.161942e+000
8.310765e+002,2.886734e+000
8.320408e+002,4.246735e+000
8.330050e+002,4.488541e+000
8.339692e+002,3.181580e+000
8.349335e+002,1.730820e+000
8.358977e+002,1.796402e+000
8.368619e+002,3.736404e+000
8.378262e+002,4.879257e+000
8.387904e+002,4.261337e+000
8.397546e+002,3.724533e+000
8.407189e+002,3.842819e+000
8.416831e+002,4.332870e+000
8.426473e+002,4.557159e+000
8.436116e+002,4.151367e+000
8.445758e+002,3.850372e+000
8.455400e+002,4.415100e+000
8.465043e+002,5.339783e+000
8.474685e+002,6.300934e+000
8.484327e+002,7.212250e+000
8.493970e+002,8.037262e+000
8.503612e+002,8.606506e+000
8.513254e+002,8.847656e+000
8.522897e+002,8.905090e+000
8.532539e+002,8.713623e+000
8.542181e+002,8.346878e+000
8.551824e+002,7.616089e+000
8.561466e+002,6.740021e+000
8.571108e+002,6.927383e+000
8.580751e+002,9.279175e+000
8.590393e+002,1.119914e+001
8.600035e+002,1.169514e+001
8.609678e+002,1.157439e+001
8.619320e+002,1.171791e+001
8.628962e+002,1.248073e+001
8.638605e+002,1.354770e+001
8.648247e+002,1.467528e+001
8.657889e+002,1.565372e+001
8.667532e+002,1.591791e+001
8.677174e+002,1.539505e+001
8.686816e+002,1.474879e+001
8.696459e+002,1.482809e+001
8.706101e+002,1.585974e+001
8.715743e+002,1.624126e+001
8.725386e+002,1.540858e+001
8.735028e+002,1.473065e+001
8.744670e+002,1.431351e+001
8.754313e+002,1.420972e+001
8.763955e+002,1.471368e+001
8.773597e+002,1.623242e+001
8.783240e+002,1.745341e+001
8.792882e+002,1.668695e+001
8.802524e+002,1.562543e+001
8.812167e+002,1.587195e+001
8.821809e+002,1.765306e+001
8.831451e+002,2.018002e+001
8.841094e+002,2.254041e+001
8.850736e+002,2.467130e+001
8.860378e+002,2.515355e+001
8.870021e+002,2.358337e+001
8.879663e+002,2.189961e+001
8.889305e+002,2.108244e+001
8.898948e+002,2.097685e+001
8.908590e+002,2.095137e+001
8.918232e+002,2.102327e+001
8.927875e+002,2.126428e+001
8.937517e+002,2.141841e+001
8.947159e+002,2.190996e+001
8.956802e+002,2.352632e+001
8.966444e+002,2.609218e+001
8.976086e+002,2.791881e+001
8.985729e+002,2.689806e+001
8.995371e+002,2.457968e+001
9.005013e+002,2.343895e+001
9.014656e+002,2.349062e+001
9.024298e+002,2.418069e+001
9.033940e+002,2.507666e+001
9.043583e+002,2.610847e+001
9.053225e+002,2.728506e+001
9.062867e+002,2.944957e+001
9.072510e+002,3.041225e+001
9.082152e+002,2.973009e+001
9.091794e+002,2.827916e+001
9.101437e+002,2.644670e+001
9.111079e+002,2.426379e+001
9.120721e+002,2.317075e+001
9.130364e+002,2.526730e+001
9.140006e+002,2.753209e+001
9.149648e+002,2.829324e+001
9.159291e+002,2.791170e+001
9.168933e+002,2.723466e+001
9.178575e+002,2.683749e+001
9.188218e+002,2.681537e+001
9.197860e+002,2.803201e+001
9.207502e+002,3.054681e+001
9.217145e+002,3.143034e+001
9.226787e+002,2.947670e+001
9.236429e+002,2.648901e+001
9.246072e+002,2.470287e+001
9.255714e+002,2.415762e+001
9.265356e+002,2.424362e+001
9.274999e+002,2.598335e+001
9.284641e+002,2.703770e+001
9.294283e+002,2.613351e+001
9.303926e+002,2.412733e+001
9.313568e+002,2.276573e+001
9.323210e+002,2.300507e+001
9.332853e+002,2.340724e+001
9.342495e+002,2.038129e+001
9.352137e+002,1.619667e+001
9.361780e+002,1.510391e+001
9.371422e+002,1.801683e+001
9.381064e+002,2.203789e+001
9.390707e+002,2.309760e+001
9.400349e+002,2.050903e+001
9.409991e+002,1.903311e+001
9.419634e+002,1.961855e+001
9.429276e+002,1.989725e+001
9.438918e+002,1.860831e+001
9.448561e+002,1.686600e+001
9.458203e+002,1.686137e+001
9.467845e+002,1.959395e+001
9.477488e+002,2.220035e+001
9.487130e+002,2.235237e+001
9.496772e+002,2.157533e+001
9.506415e+002,2.080191e+001
9.516057e+002,2.022923e+001
9.525699e+002,1.977168e+001
9.535342e+002,1.934308e+001
9.544984e+002,1.884279e+001
9.554626e+002,1.747212e+001
9.564269e+002,1.501387e+001
9.573911e+002,1.335748e+001
9.583553e+002,1.332330e+001
9.593196e+002,1.419633e+001
9.602838e+002,1.497438e+001
9.612480e+002,1.570239e+001
9.622123e+002,1.582498e+001
9.631765e+002,1.461911e+001
9.641407e+002,1.340968e+001
9.651050e+002,1.282397e+001
9.660692e+002,1.267497e+001
9.670334e+002,1.236424e+001
9.679977e+002,1.154657e+001
9.689619e+002,1.083478e+001
9.699261e+002,1.158064e+001
9.708904e+002,1.334541e+001
9.718546e+002,1.529181e+001
9.728188e+002,1.722765e+001
9.737831e+002,1.923322e+001
9.747473e+002,2.164165e+001
9.757115e+002,2.472656e+001
9.766758e+002,2.684328e+001
9.776400e+002,2.825813e+001
9.786042e+002,2.851653e+001
9.795685e+002,2.683719e+001
9.805327e+002,2.407509e+001
9.814969e+002,2.116904e+001
9.824612e+002,1.848244e+001
9.834254e+002,1.644768e+001
9.843896e+002,1.612767e+001
9.853539e+002,1.614653e+001
9.863181e+002,1.473547e+001
9.872823e+002,1.203906e+001
9.882466e+002,9.557419e+000
9.892108e+002,8.663208e+000
9.901750e+002,9.194092e+000
9.911393e+002,9.210297e+000
9.921035e+002,7.548660e+000
9.930677e+002,6.876740e+000
9.940320e+002,8.518997e+000
9.949962e+002,1.040652e+001
9.959604e+002,1.016467e+001
9.969247e+002,7.781448e+000
9.978889e+002,6.490860e+000
9.988531e+002,8.862411e+000
9.998174e+002,1.117590e+001
1.000782e+003,1.096634e+001
1.001746e+003,9.420715e+000
1.002710e+003,8.266571e+000
1.003674e+003,8.279892e+000
1.004639e+003,9.020691e+000
1.005603e+003,9.822922e+000
1.006567e+003,1.066003e+001
1.007531e+003,1.030159e+001
1.008495e+003,8.054504e+000
1.009460e+003,6.068192e+000
1.010424e+003,5.701126e+000
1.011388e+003,6.678833e+000
1.012352e+003,7.973663e+000
1.013317e+003,9.997971e+000
1.014281e+003,1.109195e+001
1.015245e+003,1.048930e+001
1.016209e+003,9.181580e+000
1.017174e+003,7.638626e+000
1.018138e+003,6.127335e+000
1.019102e+003,4.923325e+000
1.020066e+003,4.318848e+000
1.021031e+003,4.057281e+000
1.021995e+003,2.845383e+000
1.022959e+003,9.051819e-001
1.023923e+003,3.111420e-001
1.024887e+003,2.237091e+000
1.025852e+003,4.913467e+000
1.026816e+003,5.351227e+000
1.027780e+003,2.967377e+000
1.028744e+003,1.389862e+000
1.029709e+003,1.397980e+000
1.030673e+003,1.597336e+000
1.031637e+003,1.818207e+000
1.032601e+003,1.843719e+000
1.033566e+003,1.339996e+000
1.034530e+003,2.362823e-001
1.035494e+003,-8.082123e-001
1.036458e+003,-1.028076e+000
1.037422e+003,-7.870789e-001
1.038387e+003,-7.528229e-001
1.039351e+003,-9.201508e-001
1.040315e+003,-7.606812e-001
1.041279e+003,2.622375e-001
1.042244e+003,1.836670e+000
1.043208e+003,2.191711e+000
1.044172e+003,8.045959e-002
1.045136e+003,-1.293198e+000
1.046101e+003,-1.579590e+000
1.047065e+003,-1.381195e+000
1.048029e+003,-8.040161e-001
1.048993e+003,-8.462524e-002
1.049958e+003,1.192932e-001
1.050922e+003,-7.113190e-001
1.051886e+003,-1.455002e+000
1.052850e+003,-6.035309e-001
1.053814e+003,8.161926e-001
1.054779e+003,1.435333e+000
1.055743e+003,9.775085e-001
1.056707e+003,7.815552e-002
1.057671e+003,-5.272064e-001
1.058636e+003,-8.523560e-001
1.059600e+003,-6.778717e-001
1.060564e+003,5.899963e-001
1.061528e+003,1.656326e+000
1.062493e+003,2.204926e+000
1.063457e+003,2.426407e+000
1.064421e+003,2.685318e+000
1.065385e+003,3.035675e+000
1.066349e+003,2.789688e+000
1.067314e+003,7.506409e-001
1.068278e+003,-9.407196e-001
1.069242e+003,-1.303558e-001
1.070206e+003,1.836792e+000
1.071171e+003,2.553436e+000
1.072135e+003,1.106400e+000
1.073099e+003,-1.069260e+000
1.074063e+003,-1.480621e+000
1.075028e+003,9.626770e-002
1.075992e+003,1.303802e+000
1.076956e+003,2.087769e+000
1.077920e+003,2.577209e+000
1.078885e+003,2.984482e+000
1.079849e+003,3.178528e+000
1.080813e+003,2.732193e+000
1.081777e+003,1.455368e+000
1.082741e+003,3.607330e-001
1.083706e+003,-4.680481e-001
1.084670e+003,-7.145386e-001
1.085634e+003,5.254364e-001
1.086598e+003,2.391678e+000
1.087563e+003,3.223999e+000
1.088527e+003,2.188843e+000
1.089491e+003,2.378082e-001
1.090455e+003,-9.281464e-001
1.091420e+003,-1.261673e+000
1.092384e+003,-1.147614e+000
1.093348e+003,-5.723114e-001
1.094312e+003,2.919922e-001
1.095276e+003,1.986099e+000
1.096241e+003,3.964661e+000
1.097205e+003,4.192719e+000
1.098169e+003,1.731079e+000
1.099133e+003,-6.180573e-001
1.100098e+003,-2.330307e+000
1.101062e+003,-3.085892e+000
1.102026e+003,-2.013512e+000
1.102990e+003,1.563110e-001
1.103955e+003,1.865616e+000
1.104919e+003,2.160202e+000
1.105883e+003,1.580200e+000
1.106847e+003,1.289413e+000
1.107812e+003,1.281128e+000
1.108776e+003,1.085938e+000
1.109740e+003,6.715851e-001
1.110704e+003,9.678650e-002
1.111668e+003,-9.032898e-001
1.112633e+003,-2.008072e+000
1.113597e+003,-1.738007e+000
1.114561e+003,9.996338e-001
1.115525e+003,2.691986e+000
1.116490e+003,1.177109e+000
1.117454e+003,-5.850754e-001
1.118418e+003,-1.953125e-001
1.119382e+003,1.678848e+000
1.120347e+003,2.599457e+000
1.121311e+003,1.020966e+000
1.122275e+003,-1.749542e+000
1.123239e+003,-2.948517e+000
1.124203e+003,-2.535797e+000
1.125168e+003,-1.626205e+000
1.126132e+003,9.298706e-002
1.127096e+003,1.361588e+000
1.128060e+003,7.880707e-001
1.129025e+003,-1.184418e+000
1.129989e+003,-2.272430e+000
1.130953e+003,-2.006615e+000
1.131917e+003,-1.630844e+000
1.132882e+003,-1.647202e+000
1.133846e+003,-1.473312e+000
1.134810e+003,-5.361023e-001
1.135774e+003,8.808441e-001
1.136739e+003,2.095703e+000
1.137703e+003,2.716171e+000
1.138667e+003,2.931595e+000
1.139631e+003,3.054672e+000
1.140595e+003,3.058487e+000
1.141560e+003,2.753586e+000
1.142524e+003,1.897812e+000
1.143488e+003,1.771759e+000
1.144452e+003,3.703033e+000
1.145417e+003,7.048386e+000
1.146381e+003,9.399017e+000
1.147345e+003,1.027577e+001
1.148309e+003,1.117126e+001
1.149274e+003,1.194096e+001
1.150238e+003,1.339570e+001
1.151202e+003,1.652358e+001
1.152166e+003,2.058150e+001
1.153130e+003,2.437524e+001
1.154095e+003,2.722672e+001
1.155059e+003,2.897901e+001
1.156023e+003,2.952789e+001
1.156987e+003,2.879099e+001
1.157952e+003,2.656956e+001
1.158916e+003,2.263818e+001
1.159880e+003,1.916939e+001
1.160844e+003,1.732655e+001
1.161809e+003,1.650420e+001
1.162773e+003,1.573869e+001
1.163737e+003,1.524773e+001
1.164701e+003,1.382553e+001
1.165666e+003,9.533875e+000
1.166630e+003,6.055695e+000
1.167594e+003,5.047028e+000
1.168558e+003,5.554565e+000
1.169522e+003,6.629730e+000
1.170487e+003,7.693176e+000
1.171451e+003,7.954269e+000
1.172415e+003,6.328445e+000
1.173379e+003,3.332214e+000
1.174344e+003,1.895462e+000
1.175308e+003,2.044434e+000
1.176272e+003,2.430817e+000
1.177236e+003,2.859253e+000
1.178201e+003,3.178162e+000
1.179165e+003,3.193161e+000
1.180129e+003,2.858795e+000
1.181093e+003,2.034973e+000
1.182057e+003,1.098633e-002
1.183022e+003,-1.390968e+000
1.183986e+003,-1.632980e+000
1.184950e+003,-9.334335e-001
1.185914e+003,1.196938e+000
1.186879e+003,4.192635e+000
1.187843e+003,6.280220e+000
1.188807e+003,5.981956e+000
1.189771e+003,3.952919e+000
1.190736e+003,2.019234e+000
1.191700e+003,1.202545e-001
1.192664e+003,-8.507843e-001
1.193628e+003,-3.247070e-002
1.194593e+003,7.874985e-001
1.195557e+003,1.952438e-001
1.196521e+003,-1.453827e+000
1.197485e+003,-2.970184e+000
1.198449e+003,-4.312408e+000
1.199414e+003,-5.040993e+000
1.200378e+003,-4.555618e+000
1.201342e+003,-3.756973e+000
1.202306e+003,-2.953278e+000
1.203271e+003,-2.367165e+000
1.204235e+003,-2.312294e+000
1.205199e+003,-2.888847e+000
1.206163e+003,-3.722054e+000
1.207128e+003,-4.176346e+000
1.208092e+003,-4.207993e+000
1.209056e+003,-4.835976e+000
1.210020e+003,-6.280426e+000
1.210984e+003,-7.739037e+000
1.211949e+003,-9.201065e+000
1.212913e+003,-1.045428e+001
1.213877e+003,-1.114987e+001
1.214841e+003,-1.126224e+001
1.215806e+003,-1.114204e+001
1.216770e+003,-1.067750e+001
1.217734e+003,-1.044299e+001
1.218698e+003,-1.113547e+001
1.219663e+003,-1.211333e+001
1.220627e+003,-1.249650e+001
1.221591e+003,-1.220311e+001
1.222555e+003,-1.186429e+001
1.223520e+003,-1.206149e+001
1.224484e+003,-1.260283e+001
1.225448e+003,-1.267168e+001
1.226412e+003,-1.179472e+001
1.227376e+003,-1.157590e+001
1.228341e+003,-1.274237e+001
1.229305e+003,-1.376916e+001
1.230269e+003,-1.358338e+001
1.231233e+003,-1.274495e+001
1.232198e+003,-1.259553e+001
1.233162e+003,-1.350964e+001
1.234126e+003,-1.395692e+001
1.235090e+003,-1.214288e+001
1.236055e+003,-1.008944e+001
1.237019e+003,-1.033788e+001
1.237983e+003,-1.212968e+001
1.238947e+003,-1.315646e+001
1.239911e+003,-1.243815e+001
1.240876e+003,-1.127701e+001
1.241840e+003,-1.173862e+001
1.242804e+003,-1.395183e+001
1.243768e+003,-1.532227e+001
1.244733e+003,-1.563750e+001
1.245697e+003,-1.524862e+001
1.246661e+003,-1.349570e+001
1.247625e+003,-1.176347e+001
1.248590e+003,-1.128006e+001
1.249554e+003,-1.166206e+001
1.250518e+003,-1.139106e+001
1.251482e+003,-9.722458e+000
1.252447e+003,-8.246292e+000
1.253411e+003,-9.211800e+000
1.254375e+003,-1.149925e+001
1.255339e+003,-1.290564e+001
1.256303e+003,-1.329292e+001
1.257268e+003,-1.287902e+001
1.258232e+003,-1.154075e+001
1.259196e+003,-9.949135e+000
1.260160e+003,-9.576447e+000
1.261125e+003,-1.069559e+001
1.262089e+003,-1.101087e+001
1.263053e+003,-9.473106e+000
1.264017e+003,-8.231010e+000
1.264982e+003,-7.929306e+000
1.265946e+003,-7.992416e+000
1.266910e+003,-7.904648e+000
1.267874e+003,-7.607292e+000
1.268839e+003,-7.315895e+000
1.269803e+003,-7.171257e+000
1.270767e+003,-7.060356e+000
1.271731e+003,-6.635765e+000
1.272695e+003,-5.936775e+000
1.273660e+003,-6.077454e+000
1.274624e+003,-7.375084e+000
1.275588e+003,-8.983833e+000
1.276552e+003,-1.091393e+001
1.277517e+003,-1.256605e+001
1.278481e+003,-1.266115e+001
1.279445e+003,-1.103561e+001
1.280409e+003,-9.502823e+000
1.281374e+003,-8.407211e+000
1.282338e+003,-7.868248e+000
1.283302e+003,-8.288345e+000
1.284266e+003,-9.042747e+000
1.285230e+003,-9.404327e+000
1.286195e+003,-9.313324e+000
1.287159e+003,-9.217384e+000
1.288123e+003,-9.459930e+000
1.289087e+003,-9.889435e+000
1.290052e+003,-1.014362e+001
1.291016e+003,-1.016410e+001
1.291980e+003,-1.040283e+001
1.292944e+003,-1.079428e+001
1.293909e+003,-1.155482e+001
1.294873e+003,-1.305061e+001
1.295837e+003,-1.471546e+001
1.296801e+003,-1.583828e+001
1.297766e+003,-1.631277e+001
1.298730e+003,-1.639709e+001
1.299694e+003,-1.631522e+001
1.300658e+003,-1.577171e+001
1.301622e+003,-1.386018e+001
1.302587e+003,-1.148071e+001
1.303551e+003,-1.022474e+001
1.304515e+003,-1.028461e+001
1.305479e+003,-1.057791e+001
1.306444e+003,-1.024664e+001
1.307408e+003,-9.570297e+000
1.308372e+003,-9.414192e+000
1.309336e+003,-9.881165e+000
1.310301e+003,-1.058384e+001
1.311265e+003,-1.218958e+001
1.312229e+003,-1.310802e+001
1.313193e+003,-1.233739e+001
1.314157e+003,-1.101981e+001
1.315122e+003,-1.048229e+001
1.316086e+003,-1.075768e+001
1.317050e+003,-1.067714e+001
1.318014e+003,-9.380325e+000
1.318979e+003,-7.958359e+000
1.319943e+003,-8.761948e+000
1.320907e+003,-1.140851e+001
1.321871e+003,-1.252479e+001
1.322836e+003,-1.174718e+001
1.323800e+003,-1.054910e+001
1.324764e+003,-9.291977e+000
1.325728e+003,-8.287331e+000
1.326693e+003,-8.192848e+000
1.327657e+003,-9.067657e+000
1.328621e+003,-1.014770e+001
1.329585e+003,-1.145431e+001
1.330549e+003,-1.224146e+001
1.331514e+003,-1.205154e+001
1.332478e+003,-1.155114e+001
1.333442e+003,-1.128989e+001
1.334406e+003,-1.127218e+001
1.335371e+003,-1.127452e+001
1.336335e+003,-1.115476e+001
1.337299e+003,-1.086861e+001
1.338263e+003,-1.031550e+001
1.339228e+003,-9.418854e+000
1.340192e+003,-8.960022e+000
1.341156e+003,-9.054245e+000
1.342120e+003,-9.381592e+000
1.343084e+003,-1.030468e+001
1.344049e+003,-1.118102e+001
1.345013e+003,-1.143824e+001
1.345977e+003,-1.111022e+001
1.346941e+003,-1.048403e+001
1.347906e+003,-9.651329e+000
1.348870e+003,-8.711594e+000
1.349834e+003,-7.390404e+000
1.350798e+003,-6.398247e+000
1.351763e+003,-7.402596e+000
1.352727e+003,-9.942520e+000
1.353691e+003,-1.132174e+001
1.354655e+003,-1.040504e+001
1.355620e+003,-8.578079e+000
1.356584e+003,-7.180359e+000
1.357548e+003,-6.220970e+000
1.358512e+003,-6.087883e+000
1.359476e+003,-7.291687e+000
1.360441e+003,-8.223518e+000
1.361405e+003,-8.314095e+000
1.362369e+003,-8.164627e+000
1.363333e+003,-7.802452e+000
1.364298e+003,-7.504684e+000
1.365262e+003,-7.695045e+000
1.366226e+003,-8.388695e+000
1.367190e+003,-9.180405e+000
1.368155e+003,-9.722183e+000
1.369119e+003,-9.925339e+000
1.370083e+003,-9.446243e+000
1.371047e+003,-7.990860e+000
1.372011e+003,-6.963959e+000
1.372976e+003,-6.239731e+000
1.373940e+003,-6.195023e+000
1.374904e+003,-7.522385e+000
1.375868e+003,-9.199074e+000
1.376833e+003,-9.819824e+000
1.377797e+003,-9.421501e+000
1.378761e+003,-9.293289e+000
1.379725e+003,-1.008477e+001
1.380690e+003,-1.089770e+001
1.381654e+003,-1.076191e+001
1.382618e+003,-1.005614e+001
1.383582e+003,-9.038963e+000
1.384547e+003,-7.859245e+000
1.385511e+003,-7.303688e+000
1.386475e+003,-7.971924e+000
1.387439e+003,-8.841621e+000
1.388403e+003,-8.084579e+000
1.389368e+003,-5.714378e+000
1.390332e+003,-4.171402e+000
1.391296e+003,-3.303528e+000
1.392260e+003,-3.708542e+000
1.393225e+003,-7.168869e+000
1.394189e+003,-1.005968e+001
1.395153e+003,-9.875847e+000
1.396117e+003,-7.935776e+000
1.397082e+003,-6.280647e+000
1.398046e+003,-5.585655e+000
1.399010e+003,-5.469719e+000
1.399974e+003,-5.655190e+000
1.400938e+003,-5.917809e+000
1.401903e+003,-5.266983e+000
1.402867e+003,-3.062965e+000
1.403831e+003,-2.228188e+000
1.404795e+003,-4.021118e+000
1.405760e+003,-5.562874e+000
1.406724e+003,-5.879265e+000
1.407688e+003,-5.612480e+000
1.408652e+003,-5.174263e+000
1.409617e+003,-4.693962e+000
1.410581e+003,-4.729424e+000
1.411545e+003,-5.599777e+000
1.412509e+003,-6.509254e+000
1.413474e+003,-6.624985e+000
1.414438e+003,-6.416969e+000
1.415402e+003,-6.534462e+000
1.416366e+003,-6.916191e+000
1.417330e+003,-7.498756e+000
1.418295e+003,-8.470978e+000
1.419259e+003,-8.827911e+000
1.420223e+003,-6.723495e+000
1.421187e+003,-2.806122e+000
1.422152e+003,-1.120186e+000
1.423116e+003,-2.297203e+000
1.424080e+003,-3.686646e+000
1.425044e+003,-5.395432e+000
1.426009e+003,-6.385063e+000
1.426973e+003,-5.587021e+000
1.427937e+003,-4.197937e+000
1.428901e+003,-3.629280e+000
1.429865e+003,-3.958229e+000
1.430830e+003,-4.427101e+000
1.431794e+003,-4.545448e+000
1.432758e+003,-4.304726e+000
1.433722e+003,-3.546776e+000
1.434687e+003,-2.076881e+000
1.435651e+003,-1.506836e+000
1.436615e+003,-2.973976e+000
1.437579e+003,-4.021919e+000
1.438544e+003,-3.979164e+000
1.439508e+003,-3.872932e+000
1.440472e+003,-4.592850e+000
1.441436e+003,-5.615761e+000
1.442401e+003,-5.836830e+000
1.443365e+003,-5.066856e+000
1.444329e+003,-4.223343e+000
1.445293e+003,-4.019241e+000
1.446257e+003,-3.946571e+000
1.447222e+003,-2.771416e+000
1.448186e+003,-8.280106e-001
1.449150e+003,-1.882172e-002
1.450114e+003,-6.464920e-001
1.451079e+003,-1.892876e+000
1.452043e+003,-4.336563e+000
1.453007e+003,-6.404160e+000
1.453971e+003,-5.181259e+000
1.454936e+003,-1.253746e+000
1.455900e+003,9.294510e-001
1.456864e+003,2.140045e-001
1.457828e+003,-1.378464e+000
1.458792e+003,-3.608009e+000
1.459757e+003,-5.490501e+000
1.460721e+003,-6.065727e+000
1.461685e+003,-5.708504e+000
1.462649e+003,-5.139679e+000
1.463614e+003,-4.567474e+000
1.464578e+003,-3.928070e+000
1.465542e+003,-3.098991e+000
1.466506e+003,-2.371483e+000
1.467471e+003,-2.704720e+000
1.468435e+003,-4.372208e+000
1.469399e+003,-5.407799e+000
1.470363e+003,-5.689476e+000
1.471328e+003,-5.440437e+000
1.472292e+003,-4.321373e+000
1.473256e+003,-3.187370e+000
1.474220e+003,-2.455437e+000
1.475184e+003,-2.119148e+000
1.476149e+003,-2.166931e+000
1.477113e+003,-2.563805e+000
1.478077e+003,-3.108437e+000
1.479041e+003,-3.566490e+000
1.480006e+003,-3.883728e+000
1.480970e+003,-3.981316e+000
1.481934e+003,-3.896378e+000
1.482898e+003,-3.652237e+000
1.483863e+003,-3.052467e+000
1.484827e+003,-2.614647e+000
1.485791e+003,-2.784607e+000
1.486755e+003,-2.814026e+000
1.487719e+003,-1.782959e+000
1.488684e+003,-1.152573e-001
1.489648e+003,1.060936e+000
1.490612e+003,1.404854e+000
1.491576e+003,1.149109e+000
1.492541e+003,1.582642e-001
1.493505e+003,-8.223572e-001
1.494469e+003,4.793777e-001
1.495433e+003,3.482643e+000
1.496398e+003,4.624321e+000
1.497362e+003,2.889740e+000
1.498326e+003,1.520927e+000
1.499290e+003,2.835304e+000
1.500255e+003,4.983055e+000
1.501219e+003,5.080544e+000
1.502183e+003,3.544159e+000
1.503147e+003,3.383995e+000
1.504111e+003,5.498978e+000
1.505076e+003,7.730766e+000
1.506040e+003,8.551941e+000
1.507004e+003,9.275871e+000
1.507968e+003,1.131042e+001
1.508933e+003,1.419170e+001
1.509897e+003,1.699808e+001
1.510861e+003,1.962418e+001
1.511825e+003,2.239830e+001
1.512790e+003,2.558238e+001
1.513754e+003,2.880585e+001
1.514718e+003,3.125937e+001
1.515682e+003,3.290466e+001
1.516646e+003,3.536481e+001
1.517611e+003,3.961313e+001
1.518575e+003,4.279989e+001
1.519539e+003,4.331821e+001
1.520503e+003,4.340031e+001
1.521468e+003,4.445535e+001
1.522432e+003,4.559879e+001
1.523396e+003,4.538616e+001
1.524360e+003,4.378068e+001
1.525325e+003,4.190232e+001
1.526289e+003,4.051498e+001
1.527253e+003,3.943011e+001
1.528217e+003,3.837327e+001
1.529182e+003,3.739700e+001
1.530146e+003,3.539468e+001
1.531110e+003,3.179949e+001
1.532074e+003,2.810888e+001
1.533039e+003,2.402021e+001
1.534003e+003,2.013818e+001
1.534967e+003,1.677026e+001
1.535931e+003,1.392342e+001
1.536896e+003,1.158868e+001
1.537860e+003,9.731781e+000
1.538824e+003,8.361473e+000
1.539788e+003,7.415886e+000
1.540752e+003,6.484497e+000
1.541717e+003,5.036079e+000
1.542681e+003,3.243301e+000
1.543645e+003,2.009094e+000
1.544609e+003,1.545326e+000
1.545573e+003,1.318001e+000
1.546538e+003,9.397507e-001
1.547502e+003,1.132233e+000
1.548466e+003,2.824989e+000
1.549430e+003,4.814857e+000
1.550395e+003,5.772598e+000
1.551359e+003,5.854805e+000
1.552323e+003,6.184769e+000
1.553287e+003,7.090240e+000
1.554252e+003,7.143745e+000
1.555216e+003,4.851486e+000
1.556180e+003,1.497025e+000
1.557144e+003,1.343613e-001
1.558109e+003,8.814087e-001
1.559073e+003,1.594170e+000
1.560037e+003,2.262390e+000
1.561001e+003,2.633354e+000
1.561966e+003,2.548988e+000
1.562930e+003,2.365677e+000
1.563894e+003,2.430763e+000
1.564858e+003,2.583496e+000
1.565823e+003,2.264954e+000
1.566787e+003,1.422913e+000
1.567751e+003,1.214989e+000
1.568715e+003,2.611282e+000
1.569679e+003,3.984779e+000
1.570644e+003,2.649162e+000
1.571608e+003,-1.968842e-001
1.572572e+003,-8.320236e-001
1.573536e+003,9.263687e-001
1.574500e+003,2.818634e+000
1.575465e+003,4.440170e+000
1.576429e+003,5.421387e+000
1.577393e+003,5.050583e+000
1.578357e+003,3.951233e+000
1.579322e+003,3.439301e+000
1.580286e+003,3.573547e+000
1.581250e+003,3.328056e+000
1.582214e+003,2.036598e+000
1.583179e+003,1.714447e+000
1.584143e+003,4.955734e+000
1.585107e+003,8.909798e+000
1.586071e+003,9.420311e+000
1.587036e+003,7.609444e+000
1.588000e+003,6.968277e+000
1.588964e+003,8.289719e+000
1.589928e+003,9.251060e+000
1.590893e+003,7.938622e+000
1.591857e+003,5.800507e+000
1.592821e+003,4.884705e+000
1.593785e+003,5.104782e+000
1.594750e+003,6.185364e+000
1.595714e+003,8.363266e+000
1.596678e+003,9.371544e+000
1.597642e+003,7.374283e+000
1.598606e+003,5.327507e+000
1.599571e+003,5.935364e+000
1.600535e+003,7.718727e+000
1.601499e+003,8.785431e+000
1.602463e+003,9.099892e+000
1.603427e+003,9.664452e+000
1.604392e+003,1.097500e+001
1.605356e+003,1.198339e+001
1.606320e+003,1.121962e+001
1.607284e+003,9.473549e+000
1.608249e+003,9.122566e+000
1.609213e+003,1.022085e+001
1.610177e+003,1.112315e+001
1.611141e+003,1.153641e+001
1.612106e+003,1.180673e+001
1.613070e+003,1.236288e+001
1.614034e+003,1.255697e+001
1.614998e+003,1.113616e+001
1.615963e+003,9.344734e+000
1.616927e+003,9.899094e+000
1.617891e+003,1.273476e+001
1.618855e+003,1.426062e+001
1.619820e+003,1.211245e+001
1.620784e+003,8.733551e+000
1.621748e+003,7.642105e+000
1.622712e+003,8.597832e+000
1.623677e+003,9.781410e+000
1.624641e+003,1.128716e+001
1.625605e+003,1.240940e+001
1.626569e+003,1.273461e+001
1.627533e+003,1.278345e+001
1.628498e+003,1.256158e+001
1.629462e+003,1.253401e+001
1.630426e+003,1.365946e+001
1.631390e+003,1.512104e+001
1.632354e+003,1.479905e+001
1.633319e+003,1.240649e+001
1.634283e+003,1.034141e+001
1.635247e+003,1.036505e+001
1.636211e+003,1.171986e+001
1.637176e+003,1.351633e+001
1.638140e+003,1.566505e+001
1.639104e+003,1.630010e+001
1.640068e+003,1.497356e+001
1.641033e+003,1.349471e+001
1.641997e+003,1.164201e+001
1.642961e+003,1.075024e+001
1.643925e+003,1.233153e+001
1.644890e+003,1.438731e+001
1.645854e+003,1.472581e+001
1.646818e+003,1.383994e+001
1.647782e+003,1.364211e+001
1.648747e+003,1.464562e+001
1.649711e+003,1.530680e+001
1.650675e+003,1.429401e+001
1.651639e+003,1.237204e+001
1.652604e+003,1.078640e+001
1.653568e+003,9.527428e+000
1.654532e+003,9.604698e+000
1.655496e+003,1.163542e+001
1.656460e+003,1.297927e+001
1.657425e+003,1.257235e+001
1.658389e+003,1.176922e+001
1.659353e+003,1.090156e+001
1.660317e+003,1.033392e+001
1.661281e+003,1.085203e+001
1.662246e+003,1.196057e+001
1.663210e+003,1.198801e+001
1.664174e+003,1.047351e+001
1.665138e+003,9.418335e+000
1.666103e+003,1.095437e+001
1.667067e+003,1.324072e+001
1.668031e+003,1.192158e+001
1.668995e+003,7.384758e+000
1.669960e+003,5.323738e+000
1.670924e+003,6.744492e+000
1.671888e+003,8.170944e+000
1.672852e+003,8.661087e+000
1.673817e+003,8.668823e+000
1.674781e+003,8.288658e+000
1.675745e+003,7.752174e+000
1.676709e+003,7.298538e+000
1.677674e+003,6.914665e+000
1.678638e+003,6.348480e+000
1.679602e+003,5.537491e+000
1.680566e+003,5.268829e+000
1.681531e+003,6.470467e+000
1.682495e+003,8.216759e+000
1.683459e+003,8.947350e+000
1.684423e+003,8.717247e+000
1.685387e+003,7.944366e+000
1.686352e+003,6.588188e+000
1.687316e+003,5.473358e+000
1.688280e+003,4.967346e+000
1.689244e+003,4.547485e+000
1.690208e+003,3.521820e+000
1.691173e+003,2.574303e+000
1.692137e+003,2.516243e+000
1.693101e+003,3.258934e+000
1.694065e+003,4.545044e+000
1.695030e+003,6.315422e+000
1.695994e+003,7.298462e+000
1.696958e+003,6.293945e+000
1.697922e+003,4.668396e+000
1.698887e+003,4.049355e+000
1.699851e+003,4.228241e+000
1.700815e+003,4.712723e+000
1.701779e+003,5.407692e+000
1.702744e+003,5.538528e+000
1.703708e+003,4.828011e+000
1.704672e+003,3.844727e+000
1.705636e+003,2.484398e+000
1.706601e+003,1.475410e+000
1.707565e+003,2.608818e+000
1.708529e+003,5.062416e+000
1.709493e+003,5.972694e+000
1.710458e+003,4.865814e+000
1.711422e+003,3.561050e+000
1.712386e+003,2.714813e+000
1.713350e+003,2.115211e+000
1.714314e+003,1.565460e+000
1.715279e+003,1.064972e+000
1.716243e+003,4.498901e-001
1.717207e+003,-1.033096e-001
1.718171e+003,4.256516e-001
1.719135e+003,2.324371e+000
1.720100e+003,3.816238e+000
1.721064e+003,3.634636e+000
1.722028e+003,2.596092e+000
1.722992e+003,1.681801e+000
1.723957e+003,1.041672e+000
1.724921e+003,1.462654e+000
1.725885e+003,3.231209e+000
1.726849e+003,3.694191e+000
1.727814e+003,1.028946e+000
1.728778e+003,-9.117432e-001
1.729742e+003,5.086288e-001
1.730706e+003,2.464890e+000
1.731671e+003,1.640160e+000
1.732635e+003,-7.262650e-001
1.733599e+003,-1.354462e+000
1.734563e+003,1.307144e-001
1.735528e+003,1.483017e+000
1.736492e+003,1.492943e+000
1.737456e+003,8.207550e-001
1.738420e+003,1.779175e-001
1.739385e+003,-4.057236e-001
1.740349e+003,-6.911697e-001
1.741313e+003,-6.873474e-001
1.742277e+003,-1.387024e-001
1.743241e+003,2.020386e+000
1.744206e+003,3.114151e+000
1.745170e+003,1.964600e+000
1.746134e+003,5.918961e-001
1.747098e+003,-9.374237e-002
1.748063e+003,-2.602386e-001
1.749027e+003,3.072357e-002
1.749991e+003,5.419540e-001
1.750955e+003,8.501892e-001
1.751919e+003,7.985306e-001
1.752884e+003,5.015717e-001
1.753848e+003,4.786682e-002
1.754812e+003,-4.279861e-001
1.755776e+003,-5.984497e-001
1.756741e+003,-4.342575e-001
1.757705e+003,-3.563843e-001
1.758669e+003,-4.035187e-001
1.759633e+003,-5.333252e-001
1.760598e+003,-6.257858e-001
1.761562e+003,-1.053528e+000
1.762526e+003,-2.429520e+000
1.763490e+003,-3.566986e+000
1.764455e+003,-3.514389e+000
1.765419e+003,-2.715675e+000
1.766383e+003,-1.723091e+000
1.767347e+003,-8.280792e-001
1.768312e+003,-5.384827e-001
1.769276e+003,-1.118042e+000
1.770240e+003,-1.892212e+000
1.771204e+003,-2.211960e+000
1.772168e+003,-2.043594e+000
1.773133e+003,-1.113983e+000
1.774097e+003,4.256439e-001
1.775061e+003,9.172211e-001
1.776025e+003,6.927490e-003
1.776990e+003,-9.121475e-001
1.777954e+003,-1.478355e+000
1.778918e+003,-1.566582e+000
1.779882e+003,-7.986221e-001
1.780846e+003,1.845932e-001
1.781811e+003,5.387192e-001
1.782775e+003,4.329987e-001
1.783739e+003,3.709259e-001
1.784703e+003,4.347610e-001
1.785668e+003,5.924683e-001
1.786632e+003,9.790802e-001
1.787596e+003,1.139320e+000
1.788560e+003,7.651672e-001
1.789525e+003,7.328796e-002
1.790489e+003,-9.599609e-001
1.791453e+003,-2.090050e+000
1.792417e+003,-2.580116e+000
1.793382e+003,-2.299583e+000
1.794346e+003,-1.686073e+000
1.795310e+003,-9.519424e-001
1.796274e+003,-2.218475e-001
1.797239e+003,4.736099e-001
1.798203e+003,9.737396e-001
1.799167e+003,4.057465e-001
1.800131e+003,-1.731606e+000
1.801095e+003,-2.205673e+000
1.802060e+003,9.072189e-001
1.803024e+003,2.628105e+000
1.803988e+003,1.303017e+000
1.804952e+003,-1.177521e-001
1.805917e+003,-1.962051e-001
1.806881e+003,2.591019e-001
1.807845e+003,2.810059e-001
1.808809e+003,1.618652e-001
1.809773e+003,9.825211e-001
1.810738e+003,2.691879e+000
1.811702e+003,3.762672e+000
1.812666e+003,3.250259e+000
1.813630e+003,2.056129e+000
1.814595e+003,1.352287e+000
1.815559e+003,1.022163e+000
1.816523e+003,5.234451e-001
1.817487e+003,-2.343597e-001
1.818452e+003,2.125397e-001
1.819416e+003,2.781319e+000
1.820380e+003,4.137642e+000
1.821344e+003,2.170006e+000
1.822309e+003,4.180679e-001
1.823273e+003,1.597412e+000
1.824237e+003,3.558716e+000
1.825201e+003,4.315697e+000
1.826166e+003,3.945877e+000
1.827130e+003,2.696899e+000
1.828094e+003,6.606369e-001
1.829058e+003,-6.703110e-001
1.830022e+003,-3.904724e-001
1.830987e+003,4.615784e-001
1.831951e+003,1.117653e+000
1.832915e+003,1.758583e+000
1.833879e+003,3.102562e+000
1.834844e+003,4.589912e+000
1.835808e+003,4.076424e+000
1.836772e+003,1.545723e+000
1.837736e+003,-1.074829e-001
1.838700e+003,3.606567e-001
1.839665e+003,1.892838e+000
1.840629e+003,3.799263e+000
1.841593e+003,5.464310e+000
1.842557e+003,5.471466e+000
1.843522e+003,3.841141e+000
1.844486e+003,2.244087e+000
1.845450e+003,2.380524e-001
1.846414e+003,-7.122040e-001
1.847379e+003,-1.457596e-001
1.848343e+003,6.887665e-001
1.849307e+003,1.652802e+000
1.850271e+003,2.582466e+000
1.851236e+003,3.800636e+000
1.852200e+003,4.705162e+000
1.853164e+003,4.151611e+000
1.854128e+003,2.443634e+000
1.855093e+003,8.990326e-001
1.856057e+003,1.105881e-001
1.857021e+003,-1.915741e-002
1.857985e+003,4.811554e-001
1.858949e+003,1.169060e+000
1.859914e+003,1.079895e+000
1.860878e+003,4.894333e-001
1.861842e+003,1.216553e+000
1.862806e+003,3.305496e+000
1.863771e+003,4.003433e+000
1.864735e+003,2.439545e+000
1.865699e+003,1.336937e+000
1.866663e+003,2.099976e+000
1.867627e+003,3.351677e+000
1.868592e+003,4.127548e+000
1.869556e+003,4.339050e+000
1.870520e+003,3.711563e+000
1.871484e+003,2.397774e+000
1.872449e+003,1.448334e+000
1.873413e+003,1.126564e+000
1.874377e+003,1.040749e+000
1.875341e+003,6.238861e-001
1.876306e+003,7.789688e-001
1.877270e+003,2.895905e+000
1.878234e+003,4.961784e+000
1.879198e+003,4.464134e+000
1.880163e+003,2.645935e+000
1.881127e+003,2.048500e+000
1.882091e+003,2.825180e+000
1.883055e+003,3.496857e+000
1.884020e+003,3.438095e+000
1.884984e+003,3.280922e+000
1.885948e+003,3.609840e+000
1.886912e+003,4.134850e+000
1.887876e+003,4.252495e+000
1.888841e+003,4.016029e+000
1.889805e+003,4.068008e+000
1.890769e+003,4.518570e+000
1.891733e+003,4.647408e+000
1.892698e+003,4.251289e+000
1.893662e+003,3.764107e+000
1.894626e+003,3.220222e+000
1.895590e+003,2.812462e+000
1.896554e+003,2.713936e+000
1.897519e+003,2.837418e+000
1.898483e+003,3.148453e+000
1.899447e+003,3.519279e+000
1.900411e+003,3.670021e+000
1.901376e+003,3.563225e+000
1.902340e+003,3.390976e+000
1.903304e+003,3.103012e+000
1.904268e+003,2.940598e+000
1.905233e+003,3.024567e+000
1.906197e+003,3.362045e+000
1.907161e+003,4.442017e+000
1.908125e+003,5.554466e+000
1.909090e+003,5.084709e+000
1.910054e+003,3.319344e+000
1.911018e+003,1.929070e+000
1.911982e+003,1.582489e+000
1.912947e+003,2.244881e+000
1.913911e+003,3.879089e+000
1.914875e+003,5.922958e+000
1.915839e+003,7.597687e+000
1.916803e+003,8.675552e+000
1.917768e+003,7.835503e+000
1.918732e+003,4.564888e+000
1.919696e+003,3.040192e+000
1.920660e+003,3.967964e+000
1.921625e+003,4.888199e+000
1.922589e+003,5.295547e+000
1.923553e+003,5.513474e+000
1.924517e+003,5.627602e+000
1.925481e+003,5.705338e+000
1.926446e+003,5.889679e+000
1.927410e+003,6.053719e+000
1.928374e+003,5.830315e+000
1.929338e+003,5.223000e+000
1.930303e+003,4.834473e+000
1.931267e+003,4.809258e+000
1.932231e+003,5.246399e+000
1.933195e+003,6.776253e+000
1.934160e+003,8.000618e+000
1.935124e+003,7.535439e+000
1.936088e+003,6.459396e+000
1.937052e+003,6.206001e+000
1.938017e+003,6.492989e+000
1.938981e+003,6.251862e+000
1.939945e+003,5.453873e+000
1.940909e+003,5.134659e+000
1.941874e+003,5.681572e+000
1.942838e+003,5.981613e+000
1.943802e+003,4.968880e+000
1.944766e+003,3.738762e+000
1.945730e+003,4.650757e+000
1.946695e+003,7.286705e+000
1.947659e+003,8.363510e+000
1.948623e+003,7.748428e+000
1.949587e+003,6.879990e+000
1.950552e+003,5.761459e+000
1.951516e+003,5.121918e+000
1.952480e+003,5.395546e+000
1.953444e+003,5.778488e+000
1.954408e+003,5.640312e+000
1.955373e+003,5.319931e+000
1.956337e+003,5.312775e+000
1.957301e+003,5.614426e+000
1.958265e+003,6.110016e+000
1.959230e+003,6.847733e+000
1.960194e+003,7.387100e+000
1.961158e+003,7.509460e+000
1.962122e+003,7.517906e+000
1.963087e+003,7.629478e+000
1.964051e+003,7.499832e+000
1.965015e+003,6.534904e+000
1.965979e+003,5.667198e+000
1.966944e+003,5.922241e+000
1.967908e+003,6.871147e+000
1.968872e+003,7.852745e+000
1.969836e+003,8.567162e+000
1.970801e+003,8.625557e+000
1.971765e+003,7.907616e+000
1.972729e+003,6.956490e+000
1.973693e+003,6.104248e+000
1.974657e+003,5.623390e+000
1.975622e+003,6.262047e+000
1.976586e+003,7.442223e+000
1.977550e+003,7.426735e+000
1.978514e+003,6.480530e+000
1.979479e+003,6.250557e+000
1.980443e+003,6.941147e+000
1.981407e+003,7.859489e+000
1.982371e+003,8.808701e+000
1.983335e+003,9.039772e+000
1.984300e+003,7.775185e+000
1.985264e+003,6.414864e+000
1.986228e+003,7.307487e+000
1.987192e+003,9.849686e+000
1.988157e+003,1.086460e+001
1.989121e+003,1.002799e+001
1.990085e+003,9.417564e+000
1.991049e+003,9.252907e+000
1.992014e+003,8.920944e+000
1.992978e+003,7.980240e+000
1.993942e+003,7.321785e+000
1.994906e+003,7.298058e+000
1.995871e+003,7.609283e+000
1.996835e+003,7.829819e+000
1.997799e+003,8.398788e+000
1.998763e+003,1.056737e+001
1.999728e+003,1.370586e+001
