5.003444e+002,3.161243e+001
5.013087e+002,3.080371e+001
5.022729e+002,2.845325e+001
5.032371e+002,2.589075e+001
5.042014e+002,2.521521e+001
5.051656e+002,2.629968e+001
5.061298e+002,2.826050e+001
5.070941e+002,3.037158e+001
5.080583e+002,3.273938e+001
5.090225e+002,3.227271e+001
5.099868e+002,2.626843e+001
5.109510e+002,2.109204e+001
5.119152e+002,2.123206e+001
5.128795e+002,2.735760e+001
5.138437e+002,3.084772e+001
5.148079e+002,2.616437e+001
5.157722e+002,2.095502e+001
5.167364e+002,1.802606e+001
5.177006e+002,1.759747e+001
5.186649e+002,1.772809e+001
5.196291e+002,1.637427e+001
5.205933e+002,1.540906e+001
5.215576e+002,1.651233e+001
5.225218e+002,1.919690e+001
5.234860e+002,2.184436e+001
5.244503e+002,2.218884e+001
5.254145e+002,2.014221e+001
5.263787e+002,1.850281e+001
5.273430e+002,1.708936e+001
5.283072e+002,1.619275e+001
5.292714e+002,1.603589e+001
5.302357e+002,1.605725e+001
5.311999e+002,1.629218e+001
5.321641e+002,1.875055e+001
5.331284e+002,2.130243e+001
5.340926e+002,2.160858e+001
5.350568e+002,1.835468e+001
5.360211e+002,1.432550e+001
5.369853e+002,1.319769e+001
5.379495e+002,1.318738e+001
5.389138e+002,1.235718e+001
5.398780e+002,1.000110e+001
5.408422e+002,7.104736e+000
5.418065e+002,6.961670e+000
5.427707e+002,9.167358e+000
5.437349e+002,1.143945e+001
5.446992e+002,1.339026e+001
5.456634e+002,1.470300e+001
5.466276e+002,1.446655e+001
5.475919e+002,1.096936e+001
5.485561e+002,8.387329e+000
5.495203e+002,6.370850e+000
5.504846e+002,5.027710e+000
5.514488e+002,5.001831e+000
5.524130e+002,7.720459e+000
5.533773e+002,1.003296e+001
5.543415e+002,9.619385e+000
5.553057e+002,8.385742e+000
5.562700e+002,8.374512e+000
5.572342e+002,1.074060e+001
5.581984e+002,1.392957e+001
5.591627e+002,1.495227e+001
5.601269e+002,1.465955e+001
5.610911e+002,1.351526e+001
5.620554e+002,1.150061e+001
5.630196e+002,8.523804e+000
5.639838e+002,5.867310e+000
5.649481e+002,3.477539e+000
5.659123e+002,1.537720e+000
5.668765e+002,1.140869e+000
5.678408e+002,2.076416e+000
5.688050e+002,2.697021e+000
5.697692e+002,8.258057e-001
5.707335e+002,-7.224121e-001
5.716977e+002,3.548584e-001
5.726619e+002,2.251221e+000
5.736262e+002,1.990479e+000
5.745904e+002,-2.914673e+000
5.755546e+002,-8.068115e+000
5.765189e+002,-6.424927e+000
5.774831e+002,-1.151245e+000
5.784473e+002,3.115479e+000
5.794116e+002,3.469238e+000
5.803758e+002,7.275391e-001
5.813400e+002,6.628418e-002
5.823043e+002,1.397583e+000
5.832685e+002,1.937134e+000
5.842327e+002,7.701416e-001
5.851970e+002,-1.354980e+000
5.861612e+002,-2.078857e+000
5.871254e+002,-3.887939e-001
5.880897e+002,1.167725e+000
5.890539e+002,2.297974e+000
5.900181e+002,2.595093e+000
5.909824e+002,1.496948e+000
5.919466e+002,-1.718750e+000
5.929108e+002,-4.976929e+000
5.938751e+002,-6.694824e+000
5.948393e+002,-7.000732e+000
5.958035e+002,-5.542725e+000
5.967678e+002,-2.029785e+000
5.977320e+002,3.192993e+000
5.986962e+002,5.211914e+000
5.996605e+002,3.436279e+000
6.006247e+002,1.342163e+000
6.015889e+002,6.262207e-001
6.025532e+002,1.241821e+000
6.035174e+002,1.371216e+000
6.044816e+002,-1.579590e-001
6.054459e+002,-6.279297e-001
6.064101e+002,1.008789e+000
6.073743e+002,3.808838e+000
6.083386e+002,6.315063e+000
6.093028e+002,8.315674e+000
6.102670e+002,8.950684e+000
6.112313e+002,6.247681e+000
6.121955e+002,2.422363e+000
6.131597e+002,5.977783e-001
6.141240e+002,2.844971e+000
6.150882e+002,7.804321e+000
6.160524e+002,9.957642e+000
6.170167e+002,1.009802e+001
6.179809e+002,1.067859e+001
6.189451e+002,1.311707e+001
6.199094e+002,1.650635e+001
6.208736e+002,1.610071e+001
6.218378e+002,7.687256e+000
6.228021e+002,1.372559e+000
6.237663e+002,-1.186890e+000
6.247305e+002,-1.133545e+000
6.256948e+002,-6.998291e-001
6.266590e+002,-1.399658e+000
6.276232e+002,-1.578369e+000
6.285875e+002,1.268433e+000
6.295517e+002,5.099731e+000
6.305159e+002,7.657715e+000
6.314802e+002,7.525269e+000
6.324444e+002,5.125977e+000
6.334086e+002,9.611816e-001
6.343729e+002,-3.661865e+000
6.353371e+002,-5.493042e+000
6.363013e+002,-3.020142e+000
6.372656e+002,2.026978e+000
6.382298e+002,3.937378e+000
6.391940e+002,-1.168579e+000
6.401583e+002,-5.042847e+000
6.411225e+002,-6.192139e+000
6.420867e+002,-5.529175e+000
6.430510e+002,-4.494995e+000
6.440152e+002,-3.877930e+000
6.449794e+002,-3.616089e+000
6.459437e+002,-3.009277e+000
6.469079e+002,-3.000488e+000
6.478721e+002,-4.871582e+000
6.488364e+002,-8.563965e+000
6.498006e+002,-1.192578e+001
6.507648e+002,-1.072314e+001
6.517291e+002,-6.702393e+000
6.526933e+002,-3.238647e+000
6.536575e+002,-9.301758e-001
6.546218e+002,-1.215820e-001
6.555860e+002,-1.670166e+000
6.565502e+002,-8.367310e+000
6.575145e+002,-1.123230e+001
6.584787e+002,-7.638916e+000
6.594429e+002,-2.769775e+000
6.604072e+002,-1.126099e+000
6.613714e+002,-3.697754e+000
6.623356e+002,-5.018311e+000
6.632999e+002,-6.402588e-001
6.642641e+002,3.271118e+000
6.652283e+002,3.603149e+000
6.661926e+002,6.511230e-001
6.671568e+002,-3.171875e+000
6.681210e+002,-5.905640e+000
6.690853e+002,-7.225464e+000
6.700495e+002,-5.727661e+000
6.710137e+002,-1.564941e+000
6.719780e+002,2.900269e+000
6.729422e+002,5.062622e+000
6.739064e+002,4.170898e+000
6.748707e+002,3.869263e+000
6.758349e+002,5.222656e+000
6.767991e+002,5.556519e+000
6.777634e+002,3.037476e+000
6.787276e+002,-1.281616e+000
6.796918e+002,-2.522583e+000
6.806561e+002,4.062134e+000
6.816203e+002,9.682373e+000
6.825845e+002,1.102197e+001
6.835488e+002,9.091675e+000
6.845130e+002,5.455444e+000
6.854772e+002,1.051147e+000
6.864415e+002,-2.221558e+000
6.874057e+002,-1.657715e-001
6.883699e+002,4.773193e+000
6.893342e+002,7.841309e+000
6.902984e+002,6.447266e+000
6.912626e+002,1.506714e+000
6.922269e+002,-1.921265e+000
6.931911e+002,-1.913818e+000
6.941553e+002,-1.184692e+000
6.951196e+002,-3.861084e-001
6.960838e+002,1.173096e-001
6.970480e+002,5.017090e-002
6.980123e+002,-8.996582e-001
6.989765e+002,-8.017578e-001
6.999407e+002,1.927612e+000
7.009050e+002,4.996826e+000
7.018692e+002,6.566772e+000
7.028334e+002,5.951050e+000
7.037977e+002,3.845093e+000
7.047619e+002,7.441406e-001
7.057261e+002,-1.985352e+000
7.066904e+002,-1.906738e+000
7.076546e+002,1.328491e+000
7.086188e+002,5.475952e+000
7.095831e+002,6.865234e+000
7.105473e+002,3.865601e+000
7.115115e+002,2.043091e+000
7.124758e+002,1.611938e+000
7.134400e+002,1.462646e+000
7.144042e+002,1.453125e+000
7.153685e+002,1.745239e+000
7.163327e+002,1.685669e+000
7.172969e+002,-2.760010e-001
7.182612e+002,-1.288940e+000
7.192254e+002,4.401855e-001
7.201896e+002,3.725708e+000
7.211539e+002,6.277832e+000
7.221181e+002,6.236816e+000
7.230823e+002,4.421021e+000
7.240466e+002,2.835693e+000
7.250108e+002,2.045410e+000
7.259750e+002,2.706543e+000
7.269393e+002,4.763550e+000
7.279035e+002,7.444092e+000
7.288677e+002,9.633911e+000
7.298320e+002,1.544385e+001
7.307962e+002,1.787561e+001
7.317604e+002,1.360059e+001
7.327247e+002,6.966919e+000
7.336889e+002,3.927734e+000
7.346531e+002,6.212646e+000
7.356174e+002,7.253540e+000
7.365816e+002,3.099854e+000
7.375458e+002,-1.180054e+000
7.385101e+002,-1.246094e+000
7.394743e+002,3.569336e+000
7.404385e+002,1.003625e+001
7.414028e+002,1.324268e+001
7.423670e+002,1.227063e+001
7.433312e+002,9.670898e+000
7.442955e+002,6.318970e+000
7.452597e+002,4.059448e+000
7.462239e+002,4.759033e+000
7.471882e+002,9.054932e+000
7.481524e+002,1.229297e+001
7.491166e+002,1.246997e+001
7.500809e+002,1.226221e+001
7.510451e+002,1.375452e+001
7.520093e+002,1.594885e+001
7.529736e+002,1.494397e+001
7.539378e+002,6.967773e+000
7.549020e+002,9.594727e-002
7.558663e+002,-5.383301e-001
7.568306e+002,2.708740e+000
7.577948e+002,6.994995e+000
7.587590e+002,1.022083e+001
7.597233e+002,1.165930e+001
7.606875e+002,9.180054e+000
7.616517e+002,3.843018e+000
7.626160e+002,1.291748e+000
7.635802e+002,3.988403e+000
7.645444e+002,9.467407e+000
7.655087e+002,1.223584e+001
7.664729e+002,1.016064e+001
7.674371e+002,9.533325e+000
7.684014e+002,1.213184e+001
7.693656e+002,1.467004e+001
7.703298e+002,1.481653e+001
7.712941e+002,1.256360e+001
7.722583e+002,1.041650e+001
7.732225e+002,9.966919e+000
7.741868e+002,1.058472e+001
7.751510e+002,1.237878e+001
7.761152e+002,1.484277e+001
7.770795e+002,1.706970e+001
7.780437e+002,1.818103e+001
7.790079e+002,1.795544e+001
7.799722e+002,1.498145e+001
7.809364e+002,8.708130e+000
7.819006e+002,4.250244e+000
7.828649e+002,5.398560e+000
7.838291e+002,1.055408e+001
7.847933e+002,1.307629e+001
7.857576e+002,9.542847e+000
7.867218e+002,6.869507e+000
7.876860e+002,7.849365e+000
7.886503e+002,1.012415e+001
7.896145e+002,1.164941e+001
7.905787e+002,1.187866e+001
7.915430e+002,1.198901e+001
7.925072e+002,1.239941e+001
7.934714e+002,1.282886e+001
7.944357e+002,1.471643e+001
7.953999e+002,1.792017e+001
7.963641e+002,1.994031e+001
7.973284e+002,1.753687e+001
7.982926e+002,1.028796e+001
7.992568e+002,7.259277e+000
8.002211e+002,8.943237e+000
8.011853e+002,9.824707e+000
8.021495e+002,8.529297e+000
8.031138e+002,6.565796e+000
8.040780e+002,6.478882e+000
8.050422e+002,8.430542e+000
8.060065e+002,1.103381e+001
8.069707e+002,1.438770e+001
8.079349e+002,1.698645e+001
8.088992e+002,1.719189e+001
8.098634e+002,1.492224e+001
8.108276e+002,1.252344e+001
8.117919e+002,1.314209e+001
8.127561e+002,1.454309e+001
8.137203e+002,1.424084e+001
8.146846e+002,1.264673e+001
8.156488e+002,1.115918e+001
8.166130e+002,1.100891e+001
8.175773e+002,1.217676e+001
8.185415e+002,1.375977e+001
8.195057e+002,1.614868e+001
8.204700e+002,1.723523e+001
8.214342e+002,1.513599e+001
8.223984e+002,1.123303e+001
8.233627e+002,9.266357e+000
8.243269e+002,1.133948e+001
8.252911e+002,1.452930e+001
8.262554e+002,1.762903e+001
8.272196e+002,2.021338e+001
8.281838e+002,2.142920e+001
8.291481e+002,2.115344e+001
8.301123e+002,2.050757e+001
8.310765e+002,2.180115e+001
8.320408e+002,2.446167e+001
8.330050e+002,2.425977e+001
8.339692e+002,2.045105e+001
8.349335e+002,1.594495e+001
8.358977e+002,1.366748e+001
8.368619e+002,1.407520e+001
8.378262e+002,1.614709e+001
8.387904e+002,2.182666e+001
8.397546e+002,2.578577e+001
8.407189e+002,2.591211e+001
8.416831e+002,2.373779e+001
8.426473e+002,2.200562e+001
8.436116e+002,2.203528e+001
8.445758e+002,2.275281e+001
8.455400e+002,2.242688e+001
8.465043e+002,2.100183e+001
8.474685e+002,1.871228e+001
8.484327e+002,1.640088e+001
8.493970e+002,1.558838e+001
8.503612e+002,1.813049e+001
8.513254e+002,2.450891e+001
8.522897e+002,2.878430e+001
8.532539e+002,3.027344e+001
8.542181e+002,3.006775e+001
8.551824e+002,2.920654e+001
8.561466e+002,2.835596e+001
8.571108e+002,2.761975e+001
8.580751e+002,2.379993e+001
8.590393e+002,2.126880e+001
8.600035e+002,2.342566e+001
8.609678e+002,2.763794e+001
8.619320e+002,3.056628e+001
8.628962e+002,3.084595e+001
8.638605e+002,3.051965e+001
8.648247e+002,3.359973e+001
8.657889e+002,3.799268e+001
8.667532e+002,3.924097e+001
8.677174e+002,3.676111e+001
8.686816e+002,3.270886e+001
8.696459e+002,2.945520e+001
8.706101e+002,2.727832e+001
8.715743e+002,2.669873e+001
8.725386e+002,2.856750e+001
8.735028e+002,3.089514e+001
8.744670e+002,3.218713e+001
8.754313e+002,3.293372e+001
8.763955e+002,3.517761e+001
8.773597e+002,4.067822e+001
8.783240e+002,4.515881e+001
8.792882e+002,4.430652e+001
8.802524e+002,4.143286e+001
8.812167e+002,3.926245e+001
8.821809e+002,3.847656e+001
8.831451e+002,3.827136e+001
8.841094e+002,3.771875e+001
8.850736e+002,3.732178e+001
8.860378e+002,3.786487e+001
8.870021e+002,3.912122e+001
8.879663e+002,4.052148e+001
8.889305e+002,4.149182e+001
8.898948e+002,4.194409e+001
8.908590e+002,4.250110e+001
8.918232e+002,4.422180e+001
8.927875e+002,4.538477e+001
8.937517e+002,4.449670e+001
8.947159e+002,4.382056e+001
8.956802e+002,4.570251e+001
8.966444e+002,4.980225e+001
8.976086e+002,5.241748e+001
8.985729e+002,4.944727e+001
8.995371e+002,4.434900e+001
9.005013e+002,4.253198e+001
9.014656e+002,4.389441e+001
9.024298e+002,4.561279e+001
9.033940e+002,4.502966e+001
9.043583e+002,4.226807e+001
9.053225e+002,4.232776e+001
9.062867e+002,4.878955e+001
9.072510e+002,5.253503e+001
9.082152e+002,5.262561e+001
9.091794e+002,5.179395e+001
9.101437e+002,5.298474e+001
9.111079e+002,5.662451e+001
9.120721e+002,5.895679e+001
9.130364e+002,5.541565e+001
9.140006e+002,5.071716e+001
9.149648e+002,4.724683e+001
9.159291e+002,4.576575e+001
9.168933e+002,4.678577e+001
9.178575e+002,5.030457e+001
9.188218e+002,5.488074e+001
9.197860e+002,5.601501e+001
9.207502e+002,5.327991e+001
9.217145e+002,5.256641e+001
9.226787e+002,5.771265e+001
9.236429e+002,6.426855e+001
9.246072e+002,6.479590e+001
9.255714e+002,5.722363e+001
9.265356e+002,5.207361e+001
9.274999e+002,5.324011e+001
9.284641e+002,5.414771e+001
9.294283e+002,5.230847e+001
9.303926e+002,4.913892e+001
9.313568e+002,4.777979e+001
9.323210e+002,4.996021e+001
9.332853e+002,5.246179e+001
9.342495e+002,4.890564e+001
9.352137e+002,4.224854e+001
9.361780e+002,3.724048e+001
9.371422e+002,3.540161e+001
9.381064e+002,3.579553e+001
9.390707e+002,3.665894e+001
9.400349e+002,3.737317e+001
9.409991e+002,3.818835e+001
9.419634e+002,3.787256e+001
9.429276e+002,3.884070e+001
9.438918e+002,4.338770e+001
9.448561e+002,4.934863e+001
9.458203e+002,5.279834e+001
9.467845e+002,5.238733e+001
9.477488e+002,5.199280e+001
9.487130e+002,5.480090e+001
9.496772e+002,5.835083e+001
9.506415e+002,6.082349e+001
9.516057e+002,6.206653e+001
9.525699e+002,6.277112e+001
9.535342e+002,6.353796e+001
9.544984e+002,6.408752e+001
9.554626e+002,6.414197e+001
9.564269e+002,6.438196e+001
9.573911e+002,6.550391e+001
9.583553e+002,6.839233e+001
9.593196e+002,7.154846e+001
9.602838e+002,7.220471e+001
9.612480e+002,6.928259e+001
9.622123e+002,6.701904e+001
9.631765e+002,6.737805e+001
9.641407e+002,6.836682e+001
9.651050e+002,6.961414e+001
9.660692e+002,7.022607e+001
9.670334e+002,6.908716e+001
9.679977e+002,6.583191e+001
9.689619e+002,6.212488e+001
9.699261e+002,5.992603e+001
9.708904e+002,5.858679e+001
9.718546e+002,5.847571e+001
9.728188e+002,5.964063e+001
9.737831e+002,6.092212e+001
9.747473e+002,6.043701e+001
9.757115e+002,5.745166e+001
9.766758e+002,5.807312e+001
9.776400e+002,6.893115e+001
9.786042e+002,7.638391e+001
9.795685e+002,7.508862e+001
9.805327e+002,6.852515e+001
9.814969e+002,6.117883e+001
9.824612e+002,5.492126e+001
9.834254e+002,5.126538e+001
9.843896e+002,5.206909e+001
9.853539e+002,5.512976e+001
9.863181e+002,5.921143e+001
9.872823e+002,6.332471e+001
9.882466e+002,6.588452e+001
9.892108e+002,6.607288e+001
9.901750e+002,6.540039e+001
9.911393e+002,6.822998e+001
9.921035e+002,7.631323e+001
9.930677e+002,8.128833e+001
9.940320e+002,8.065955e+001
9.949962e+002,7.981104e+001
9.959604e+002,8.391687e+001
9.969247e+002,9.332922e+001
9.978889e+002,1.037716e+002
9.988531e+002,1.139325e+002
9.998174e+002,1.215659e+002
1.000782e+003,1.252722e+002
1.001746e+003,1.269985e+002
1.002710e+003,1.292012e+002
1.003674e+003,1.328429e+002
1.004639e+003,1.369656e+002
1.005603e+003,1.400503e+002
1.006567e+003,1.417178e+002
1.007531e+003,1.413777e+002
1.008495e+003,1.380552e+002
1.009460e+003,1.350120e+002
1.010424e+003,1.347753e+002
1.011388e+003,1.367627e+002
1.012352e+003,1.381478e+002
1.013317e+003,1.388744e+002
1.014281e+003,1.373171e+002
1.015245e+003,1.319467e+002
1.016209e+003,1.249934e+002
1.017174e+003,1.184318e+002
1.018138e+003,1.123099e+002
1.019102e+003,1.047166e+002
1.020066e+003,9.379407e+001
1.021031e+003,8.237439e+001
1.021995e+003,7.874744e+001
1.022959e+003,8.057288e+001
1.023923e+003,8.013074e+001
1.024887e+003,7.411560e+001
1.025852e+003,6.577576e+001
1.026816e+003,6.092529e+001
1.027780e+003,6.122180e+001
1.028744e+003,5.973047e+001
1.029709e+003,5.317139e+001
1.030673e+003,4.771326e+001
1.031637e+003,4.541418e+001
1.032601e+003,4.480457e+001
1.033566e+003,4.382922e+001
1.034530e+003,4.198022e+001
1.035494e+003,4.090503e+001
1.036458e+003,4.320789e+001
1.037422e+003,4.636926e+001
1.038387e+003,4.578467e+001
1.039351e+003,4.157349e+001
1.040315e+003,3.749573e+001
1.041279e+003,3.651636e+001
1.042244e+003,3.848230e+001
1.043208e+003,4.154736e+001
1.044172e+003,4.764221e+001
1.045136e+003,4.976172e+001
1.046101e+003,4.485803e+001
1.047065e+003,3.977441e+001
1.048029e+003,3.889905e+001
1.048993e+003,4.151172e+001
1.049958e+003,4.431665e+001
1.050922e+003,4.652063e+001
1.051886e+003,4.777332e+001
1.052850e+003,4.667566e+001
1.053814e+003,4.476782e+001
1.054779e+003,4.410718e+001
1.055743e+003,4.498145e+001
1.056707e+003,4.618335e+001
1.057671e+003,4.624194e+001
1.058636e+003,4.500940e+001
1.059600e+003,4.524280e+001
1.060564e+003,5.108838e+001
1.061528e+003,5.408423e+001
1.062493e+003,4.936694e+001
1.063457e+003,4.239404e+001
1.064421e+003,4.019214e+001
1.065385e+003,4.372498e+001
1.066349e+003,4.682947e+001
1.067314e+003,4.648157e+001
1.068278e+003,4.462305e+001
1.069242e+003,4.174939e+001
1.070206e+003,3.909717e+001
1.071171e+003,3.833826e+001
1.072135e+003,3.977747e+001
1.073099e+003,4.204712e+001
1.074063e+003,4.347913e+001
1.075028e+003,4.436047e+001
1.075992e+003,4.316797e+001
1.076956e+003,3.726099e+001
1.077920e+003,3.285181e+001
1.078885e+003,3.464954e+001
1.079849e+003,3.948682e+001
1.080813e+003,4.049219e+001
1.081777e+003,3.596545e+001
1.082741e+003,3.267419e+001
1.083706e+003,3.449609e+001
1.084670e+003,3.673682e+001
1.085634e+003,3.731360e+001
1.086598e+003,3.624341e+001
1.087563e+003,3.423047e+001
1.088527e+003,3.201855e+001
1.089491e+003,2.992261e+001
1.090455e+003,2.713794e+001
1.091420e+003,2.299658e+001
1.092384e+003,2.439832e+001
1.093348e+003,3.387146e+001
1.094312e+003,4.313733e+001
1.095276e+003,4.860828e+001
1.096241e+003,5.098389e+001
1.097205e+003,5.036926e+001
1.098169e+003,4.463110e+001
1.099133e+003,4.054041e+001
1.100098e+003,4.343762e+001
1.101062e+003,4.669958e+001
1.102026e+003,4.504297e+001
1.102990e+003,4.038806e+001
1.103955e+003,3.811609e+001
1.104919e+003,4.133679e+001
1.105883e+003,4.733032e+001
1.106847e+003,5.070007e+001
1.107812e+003,5.125452e+001
1.108776e+003,5.244800e+001
1.109740e+003,5.458545e+001
1.110704e+003,5.707092e+001
1.111668e+003,6.069116e+001
1.112633e+003,6.526843e+001
1.113597e+003,6.770435e+001
1.114561e+003,6.577246e+001
1.115525e+003,6.486548e+001
1.116490e+003,6.797363e+001
1.117454e+003,7.108276e+001
1.118418e+003,7.172717e+001
1.119382e+003,7.085876e+001
1.120347e+003,7.044714e+001
1.121311e+003,7.116699e+001
1.122275e+003,7.231689e+001
1.123239e+003,7.456030e+001
1.124203e+003,7.866553e+001
1.125168e+003,8.296326e+001
1.126132e+003,8.784546e+001
1.127096e+003,9.217346e+001
1.128060e+003,9.347559e+001
1.129025e+003,9.266711e+001
1.129989e+003,9.596338e+001
1.130953e+003,1.066482e+002
1.131917e+003,1.140073e+002
1.132882e+003,1.130889e+002
1.133846e+003,1.111483e+002
1.134810e+003,1.115287e+002
1.135774e+003,1.148923e+002
1.136739e+003,1.214404e+002
1.137703e+003,1.311416e+002
1.138667e+003,1.419844e+002
1.139631e+003,1.504279e+002
1.140595e+003,1.566993e+002
1.141560e+003,1.643407e+002
1.142524e+003,1.735250e+002
1.143488e+003,1.860703e+002
1.144452e+003,2.035701e+002
1.145417e+003,2.251666e+002
1.146381e+003,2.477882e+002
1.147345e+003,2.709038e+002
1.148309e+003,2.956301e+002
1.149274e+003,3.233718e+002
1.150238e+003,3.521962e+002
1.151202e+003,3.833367e+002
1.152166e+003,4.149729e+002
1.153130e+003,4.442257e+002
1.154095e+003,4.690037e+002
1.155059e+003,4.881807e+002
1.156023e+003,5.017601e+002
1.156987e+003,5.091157e+002
1.157952e+003,5.076135e+002
1.158916e+003,4.980089e+002
1.159880e+003,4.836901e+002
1.160844e+003,4.638171e+002
1.161809e+003,4.387629e+002
1.162773e+003,4.110361e+002
1.163737e+003,3.801466e+002
1.164701e+003,3.493280e+002
1.165666e+003,3.185657e+002
1.166630e+003,2.899084e+002
1.167594e+003,2.615282e+002
1.168558e+003,2.367091e+002
1.169522e+003,2.203989e+002
1.170487e+003,2.136062e+002
1.171451e+003,2.127542e+002
1.172415e+003,2.142793e+002
1.173379e+003,2.173488e+002
1.174344e+003,2.190333e+002
1.175308e+003,2.197990e+002
1.176272e+003,2.185996e+002
1.177236e+003,2.153737e+002
1.178201e+003,2.102953e+002
1.179165e+003,2.017683e+002
1.180129e+003,1.891776e+002
1.181093e+003,1.799528e+002
1.182057e+003,1.782001e+002
1.183022e+003,1.770551e+002
1.183986e+003,1.738308e+002
1.184950e+003,1.700956e+002
1.185914e+003,1.669611e+002
1.186879e+003,1.651556e+002
1.187843e+003,1.655847e+002
1.188807e+003,1.688304e+002
1.189771e+003,1.735920e+002
1.190736e+003,1.771313e+002
1.191700e+003,1.794401e+002
1.192664e+003,1.789988e+002
1.193628e+003,1.741259e+002
1.194593e+003,1.693838e+002
1.195557e+003,1.687366e+002
1.196521e+003,1.706436e+002
1.197485e+003,1.699271e+002
1.198449e+003,1.654691e+002
1.199414e+003,1.599033e+002
1.200378e+003,1.538221e+002
1.201342e+003,1.476970e+002
1.202306e+003,1.415557e+002
1.203271e+003,1.352173e+002
1.204235e+003,1.282091e+002
1.205199e+003,1.206095e+002
1.206163e+003,1.137753e+002
1.207128e+003,1.100063e+002
1.208092e+003,1.096129e+002
1.209056e+003,1.068896e+002
1.210020e+003,1.017758e+002
1.210984e+003,9.517737e+001
1.211949e+003,8.525635e+001
1.212913e+003,7.495801e+001
1.213877e+003,6.924487e+001
1.214841e+003,6.841785e+001
1.215806e+003,6.592310e+001
1.216770e+003,5.728601e+001
1.217734e+003,4.919470e+001
1.218698e+003,4.627454e+001
1.219663e+003,4.581555e+001
1.220627e+003,4.501965e+001
1.221591e+003,4.315991e+001
1.222555e+003,4.053418e+001
1.223520e+003,3.747864e+001
1.224484e+003,3.463794e+001
1.225448e+003,3.381506e+001
1.226412e+003,3.647888e+001
1.227376e+003,3.749011e+001
1.228341e+003,3.577600e+001
1.229305e+003,3.321912e+001
1.230269e+003,3.060571e+001
1.231233e+003,2.786145e+001
1.232198e+003,2.405066e+001
1.233162e+003,1.899133e+001
1.234126e+003,1.771228e+001
1.235090e+003,2.739319e+001
1.236055e+003,3.829785e+001
1.237019e+003,3.917273e+001
1.237983e+003,3.259314e+001
1.238947e+003,2.609753e+001
1.239911e+003,2.320618e+001
1.240876e+003,2.331909e+001
1.241840e+003,2.562158e+001
1.242804e+003,3.037512e+001
1.243768e+003,3.318323e+001
1.244733e+003,3.078345e+001
1.245697e+003,3.088416e+001
1.246661e+003,3.604541e+001
1.247625e+003,4.086523e+001
1.248590e+003,4.113428e+001
1.249554e+003,3.827258e+001
1.250518e+003,3.656433e+001
1.251482e+003,3.761646e+001
1.252447e+003,3.929749e+001
1.253411e+003,3.950354e+001
1.254375e+003,3.936060e+001
1.255339e+003,4.100549e+001
1.256303e+003,4.470447e+001
1.257268e+003,4.796985e+001
1.258232e+003,4.840869e+001
1.259196e+003,4.733643e+001
1.260160e+003,4.856689e+001
1.261125e+003,5.301013e+001
1.262089e+003,5.781519e+001
1.263053e+003,6.132764e+001
1.264017e+003,6.567712e+001
1.264982e+003,7.513000e+001
1.265946e+003,8.341003e+001
1.266910e+003,8.324487e+001
1.267874e+003,7.578540e+001
1.268839e+003,6.816089e+001
1.269803e+003,6.511926e+001
1.270767e+003,6.485864e+001
1.271731e+003,6.426611e+001
1.272695e+003,6.363770e+001
1.273660e+003,6.321863e+001
1.274624e+003,6.255310e+001
1.275588e+003,6.046082e+001
1.276552e+003,5.668860e+001
1.277517e+003,5.206299e+001
1.278481e+003,4.669604e+001
1.279445e+003,4.016406e+001
1.280409e+003,3.595410e+001
1.281374e+003,3.669800e+001
1.282338e+003,3.834106e+001
1.283302e+003,3.976074e+001
1.284266e+003,4.008069e+001
1.285230e+003,3.734033e+001
1.286195e+003,3.212781e+001
1.287159e+003,2.803625e+001
1.288123e+003,2.830823e+001
1.289087e+003,3.175269e+001
1.290052e+003,3.349573e+001
1.291016e+003,3.265027e+001
1.291980e+003,3.118372e+001
1.292944e+003,2.728723e+001
1.293909e+003,2.398254e+001
1.294873e+003,2.392859e+001
1.295837e+003,2.531787e+001
1.296801e+003,2.483105e+001
1.297766e+003,2.228638e+001
1.298730e+003,2.142261e+001
1.299694e+003,2.470789e+001
1.300658e+003,2.844128e+001
1.301622e+003,2.858557e+001
1.302587e+003,2.699475e+001
1.303551e+003,2.599072e+001
1.304515e+003,2.628430e+001
1.305479e+003,2.801099e+001
1.306444e+003,3.134021e+001
1.307408e+003,3.507996e+001
1.308372e+003,3.581653e+001
1.309336e+003,3.221216e+001
1.310301e+003,2.955127e+001
1.311265e+003,2.885132e+001
1.312229e+003,2.891602e+001
1.313193e+003,2.996375e+001
1.314157e+003,3.096533e+001
1.315122e+003,3.071814e+001
1.316086e+003,2.908276e+001
1.317050e+003,2.676062e+001
1.318014e+003,2.439331e+001
1.318979e+003,2.289612e+001
1.319943e+003,2.410559e+001
1.320907e+003,2.777844e+001
1.321871e+003,2.875793e+001
1.322836e+003,2.490906e+001
1.323800e+003,2.221069e+001
1.324764e+003,2.530042e+001
1.325728e+003,3.101123e+001
1.326693e+003,3.371936e+001
1.327657e+003,3.288013e+001
1.328621e+003,3.068140e+001
1.329585e+003,2.775012e+001
1.330549e+003,2.716064e+001
1.331514e+003,3.050952e+001
1.332478e+003,3.381885e+001
1.333442e+003,3.359497e+001
1.334406e+003,3.043066e+001
1.335371e+003,2.668567e+001
1.336335e+003,2.386951e+001
1.337299e+003,2.254956e+001
1.338263e+003,2.377771e+001
1.339228e+003,2.803467e+001
1.340192e+003,3.057458e+001
1.341156e+003,3.013867e+001
1.342120e+003,2.992212e+001
1.343084e+003,3.021191e+001
1.344049e+003,2.985376e+001
1.345013e+003,2.788000e+001
1.345977e+003,2.533362e+001
1.346941e+003,2.459912e+001
1.347906e+003,2.655579e+001
1.348870e+003,2.905139e+001
1.349834e+003,3.028076e+001
1.350798e+003,3.000854e+001
1.351763e+003,2.837842e+001
1.352727e+003,2.580554e+001
1.353691e+003,2.363550e+001
1.354655e+003,2.241541e+001
1.355620e+003,2.182202e+001
1.356584e+003,2.175378e+001
1.357548e+003,2.233643e+001
1.358512e+003,2.265649e+001
1.359476e+003,2.149878e+001
1.360441e+003,2.091455e+001
1.361405e+003,2.293115e+001
1.362369e+003,2.469653e+001
1.363333e+003,2.435852e+001
1.364298e+003,2.317017e+001
1.365262e+003,2.331384e+001
1.366226e+003,2.504675e+001
1.367190e+003,2.641541e+001
1.368155e+003,2.564978e+001
1.369119e+003,2.358569e+001
1.370083e+003,2.304004e+001
1.371047e+003,2.489600e+001
1.372011e+003,2.603406e+001
1.372976e+003,2.520142e+001
1.373940e+003,2.391748e+001
1.374904e+003,2.235938e+001
1.375868e+003,2.146497e+001
1.376833e+003,2.292407e+001
1.377797e+003,2.617224e+001
1.378761e+003,2.762195e+001
1.379725e+003,2.555811e+001
1.380690e+003,2.255908e+001
1.381654e+003,2.097510e+001
1.382618e+003,2.055322e+001
1.383582e+003,2.079517e+001
1.384547e+003,2.171802e+001
1.385511e+003,2.380188e+001
1.386475e+003,2.724585e+001
1.387439e+003,3.098547e+001
1.388403e+003,3.395740e+001
1.389368e+003,3.608594e+001
1.390332e+003,3.575293e+001
1.391296e+003,3.146033e+001
1.392260e+003,2.856738e+001
1.393225e+003,2.910547e+001
1.394189e+003,2.998730e+001
1.395153e+003,2.928638e+001
1.396117e+003,2.789282e+001
1.397082e+003,2.753674e+001
1.398046e+003,2.873767e+001
1.399010e+003,3.074683e+001
1.399974e+003,3.254626e+001
1.400938e+003,3.291541e+001
1.401903e+003,2.974268e+001
1.402867e+003,2.291467e+001
1.403831e+003,2.179456e+001
1.404795e+003,2.899365e+001
1.405760e+003,3.639429e+001
1.406724e+003,4.100977e+001
1.407688e+003,4.231348e+001
1.408652e+003,4.040344e+001
1.409617e+003,3.646948e+001
1.410581e+003,3.230347e+001
1.411545e+003,2.836401e+001
1.412509e+003,2.547217e+001
1.413474e+003,2.404822e+001
1.414438e+003,2.343542e+001
1.415402e+003,2.409937e+001
1.416366e+003,2.638110e+001
1.417330e+003,2.935413e+001
1.418295e+003,3.305615e+001
1.419259e+003,3.589795e+001
1.420223e+003,3.385901e+001
1.421187e+003,2.804749e+001
1.422152e+003,2.940149e+001
1.423116e+003,4.248157e+001
1.424080e+003,5.088000e+001
1.425044e+003,4.332837e+001
1.426009e+003,3.614783e+001
1.426973e+003,3.719031e+001
1.427937e+003,4.158496e+001
1.428901e+003,4.361877e+001
1.429865e+003,4.288904e+001
1.430830e+003,4.221350e+001
1.431794e+003,4.316138e+001
1.432758e+003,4.462720e+001
1.433722e+003,4.525879e+001
1.434687e+003,4.593787e+001
1.435651e+003,4.749500e+001
1.436615e+003,4.766125e+001
1.437579e+003,4.749719e+001
1.438544e+003,4.760376e+001
1.439508e+003,4.750085e+001
1.440472e+003,4.746631e+001
1.441436e+003,4.762952e+001
1.442401e+003,4.754712e+001
1.443365e+003,4.695898e+001
1.444329e+003,4.618945e+001
1.445293e+003,4.543213e+001
1.446257e+003,4.563843e+001
1.447222e+003,4.934131e+001
1.448186e+003,5.545068e+001
1.449150e+003,5.816956e+001
1.450114e+003,5.642859e+001
1.451079e+003,5.274048e+001
1.452043e+003,4.670837e+001
1.453007e+003,4.150696e+001
1.453971e+003,4.220190e+001
1.454936e+003,4.762549e+001
1.455900e+003,5.066663e+001
1.456864e+003,4.971362e+001
1.457828e+003,4.809326e+001
1.458792e+003,4.651184e+001
1.459757e+003,4.524402e+001
1.460721e+003,4.493921e+001
1.461685e+003,4.504346e+001
1.462649e+003,4.451685e+001
1.463614e+003,4.341479e+001
1.464578e+003,4.276074e+001
1.465542e+003,4.323364e+001
1.466506e+003,4.428894e+001
1.467471e+003,4.530945e+001
1.468435e+003,4.727808e+001
1.469399e+003,4.825574e+001
1.470363e+003,4.524316e+001
1.471328e+003,4.372607e+001
1.472292e+003,4.509119e+001
1.473256e+003,4.678271e+001
1.474220e+003,4.814355e+001
1.475184e+003,4.952637e+001
1.476149e+003,5.090698e+001
1.477113e+003,5.200415e+001
1.478077e+003,5.329626e+001
1.479041e+003,5.583020e+001
1.480006e+003,5.942139e+001
1.480970e+003,6.197107e+001
1.481934e+003,6.265320e+001
1.482898e+003,6.248584e+001
1.483863e+003,5.926660e+001
1.484827e+003,5.805115e+001
1.485791e+003,6.265247e+001
1.486755e+003,6.881299e+001
1.487719e+003,7.234399e+001
1.488684e+003,7.331519e+001
1.489648e+003,7.363428e+001
1.490612e+003,7.429114e+001
1.491576e+003,7.558789e+001
1.492541e+003,7.715625e+001
1.493505e+003,7.963940e+001
1.494469e+003,8.551038e+001
1.495433e+003,9.339075e+001
1.496398e+003,9.932202e+001
1.497362e+003,1.035215e+002
1.498326e+003,1.073712e+002
1.499290e+003,1.094056e+002
1.500255e+003,1.127716e+002
1.501219e+003,1.224811e+002
1.502183e+003,1.373967e+002
1.503147e+003,1.513029e+002
1.504111e+003,1.623898e+002
1.505076e+003,1.747433e+002
1.506040e+003,1.908555e+002
1.507004e+003,2.096003e+002
1.507968e+003,2.295496e+002
1.508933e+003,2.510325e+002
1.509897e+003,2.748315e+002
1.510861e+003,3.020596e+002
1.511825e+003,3.330900e+002
1.512790e+003,3.672585e+002
1.513754e+003,4.046466e+002
1.514718e+003,4.479830e+002
1.515682e+003,4.965787e+002
1.516646e+003,5.407562e+002
1.517611e+003,5.798531e+002
1.518575e+003,6.163696e+002
1.519539e+003,6.559290e+002
1.520503e+003,6.893973e+002
1.521468e+003,7.115608e+002
1.522432e+003,7.240416e+002
1.523396e+003,7.285364e+002
1.524360e+003,7.261857e+002
1.525325e+003,7.196121e+002
1.526289e+003,7.107527e+002
1.527253e+003,6.968708e+002
1.528217e+003,6.722593e+002
1.529182e+003,6.373618e+002
1.530146e+003,6.005038e+002
1.531110e+003,5.618866e+002
1.532074e+003,5.194376e+002
1.533039e+003,4.702449e+002
1.534003e+003,4.178861e+002
1.534967e+003,3.613910e+002
1.535931e+003,3.070780e+002
1.536896e+003,2.611555e+002
1.537860e+003,2.240253e+002
1.538824e+003,1.923477e+002
1.539788e+003,1.640127e+002
1.540752e+003,1.398179e+002
1.541717e+003,1.213734e+002
1.542681e+003,1.085247e+002
1.543645e+003,9.756543e+001
1.544609e+003,8.895105e+001
1.545573e+003,8.345911e+001
1.546538e+003,8.345691e+001
1.547502e+003,8.132776e+001
1.548466e+003,7.279285e+001
1.549430e+003,6.387390e+001
1.550395e+003,6.064905e+001
1.551359e+003,6.167188e+001
1.552323e+003,6.187488e+001
1.553287e+003,5.960449e+001
1.554252e+003,5.729126e+001
1.555216e+003,5.717883e+001
1.556180e+003,5.774829e+001
1.557144e+003,5.509070e+001
1.558109e+003,4.935376e+001
1.559073e+003,4.624634e+001
1.560037e+003,4.609558e+001
1.561001e+003,4.581555e+001
1.561966e+003,4.600256e+001
1.562930e+003,4.608325e+001
1.563894e+003,4.410205e+001
1.564858e+003,4.103015e+001
1.565823e+003,4.004456e+001
1.566787e+003,4.155164e+001
1.567751e+003,4.286487e+001
1.568715e+003,4.278162e+001
1.569679e+003,4.189380e+001
1.570644e+003,3.984546e+001
1.571608e+003,3.709424e+001
1.572572e+003,3.638379e+001
1.573536e+003,3.828125e+001
1.574500e+003,4.089648e+001
1.575465e+003,4.403552e+001
1.576429e+003,4.647900e+001
1.577393e+003,4.641748e+001
1.578357e+003,4.483252e+001
1.579322e+003,4.425684e+001
1.580286e+003,4.499036e+001
1.581250e+003,4.511780e+001
1.582214e+003,4.333594e+001
1.583179e+003,4.366052e+001
1.584143e+003,5.156250e+001
1.585107e+003,6.013794e+001
1.586071e+003,5.992834e+001
1.587036e+003,5.430017e+001
1.588000e+003,5.155591e+001
1.588964e+003,5.308875e+001
1.589928e+003,5.484314e+001
1.590893e+003,5.399976e+001
1.591857e+003,5.229089e+001
1.592821e+003,5.265271e+001
1.593785e+003,5.474829e+001
1.594750e+003,5.567017e+001
1.595714e+003,5.451428e+001
1.596678e+003,5.367810e+001
1.597642e+003,5.466748e+001
1.598606e+003,5.562207e+001
1.599571e+003,5.415930e+001
1.600535e+003,5.272498e+001
1.601499e+003,5.561096e+001
1.602463e+003,6.164807e+001
1.603427e+003,6.433716e+001
1.604392e+003,6.081018e+001
1.605356e+003,5.571924e+001
1.606320e+003,5.378931e+001
1.607284e+003,5.400134e+001
1.608249e+003,5.336414e+001
1.609213e+003,5.185925e+001
1.610177e+003,5.009106e+001
1.611141e+003,4.791089e+001
1.612106e+003,4.615784e+001
1.613070e+003,4.630115e+001
1.614034e+003,4.586035e+001
1.614998e+003,4.155518e+001
1.615963e+003,3.608362e+001
1.616927e+003,3.442554e+001
1.617891e+003,3.675989e+001
1.618855e+003,3.874231e+001
1.619820e+003,3.749097e+001
1.620784e+003,3.420215e+001
1.621748e+003,3.144885e+001
1.622712e+003,3.008386e+001
1.623677e+003,2.945386e+001
1.624641e+003,2.949573e+001
1.625605e+003,3.130115e+001
1.626569e+003,3.522827e+001
1.627533e+003,3.724719e+001
1.628498e+003,3.514160e+001
1.629462e+003,3.223279e+001
1.630426e+003,3.114087e+001
1.631390e+003,3.119702e+001
1.632354e+003,3.022693e+001
1.633319e+003,2.789050e+001
1.634283e+003,2.703088e+001
1.635247e+003,3.014978e+001
1.636211e+003,3.426672e+001
1.637176e+003,3.355530e+001
1.638140e+003,2.879163e+001
1.639104e+003,2.778638e+001
1.640068e+003,3.167615e+001
1.641033e+003,3.451941e+001
1.641997e+003,3.510840e+001
1.642961e+003,3.468579e+001
1.643925e+003,3.268298e+001
1.644890e+003,3.088916e+001
1.645854e+003,3.122815e+001
1.646818e+003,3.305908e+001
1.647782e+003,3.495447e+001
1.648747e+003,3.627686e+001
1.649711e+003,3.599890e+001
1.650675e+003,3.304797e+001
1.651639e+003,2.983838e+001
1.652604e+003,3.129370e+001
1.653568e+003,3.680933e+001
1.654532e+003,3.934497e+001
1.655496e+003,3.772559e+001
1.656460e+003,3.612561e+001
1.657425e+003,3.647107e+001
1.658389e+003,3.659802e+001
1.659353e+003,3.504041e+001
1.660317e+003,3.281128e+001
1.661281e+003,3.039148e+001
1.662246e+003,2.811072e+001
1.663210e+003,2.730408e+001
1.664174e+003,2.855359e+001
1.665138e+003,2.973193e+001
1.666103e+003,2.857288e+001
1.667067e+003,2.605139e+001
1.668031e+003,2.468713e+001
1.668995e+003,2.453528e+001
1.669960e+003,2.364429e+001
1.670924e+003,2.144324e+001
1.671888e+003,2.140796e+001
1.672852e+003,2.680212e+001
1.673817e+003,3.065283e+001
1.674781e+003,2.585876e+001
1.675745e+003,1.918701e+001
1.676709e+003,1.916724e+001
1.677674e+003,2.387915e+001
1.678638e+003,2.537061e+001
1.679602e+003,2.121362e+001
1.680566e+003,1.613428e+001
1.681531e+003,1.370349e+001
1.682495e+003,1.349597e+001
1.683459e+003,1.486682e+001
1.684423e+003,1.700037e+001
1.685387e+003,1.652246e+001
1.686352e+003,1.280298e+001
1.687316e+003,1.131628e+001
1.688280e+003,1.507434e+001
1.689244e+003,1.900732e+001
1.690208e+003,1.843457e+001
1.691173e+003,1.632129e+001
1.692137e+003,1.647058e+001
1.693101e+003,1.861646e+001
1.694065e+003,1.950146e+001
1.695030e+003,1.765344e+001
1.695994e+003,1.666406e+001
1.696958e+003,2.033325e+001
1.697922e+003,2.477002e+001
1.698887e+003,2.476270e+001
1.699851e+003,2.178040e+001
1.700815e+003,1.964771e+001
1.701779e+003,1.838281e+001
1.702744e+003,1.669556e+001
1.703708e+003,1.468262e+001
1.704672e+003,1.326172e+001
1.705636e+003,1.195300e+001
1.706601e+003,1.090393e+001
1.707565e+003,1.263159e+001
1.708529e+003,1.615820e+001
1.709493e+003,1.626563e+001
1.710458e+003,1.184070e+001
1.711422e+003,7.924316e+000
1.712386e+003,7.037842e+000
1.713350e+003,7.881714e+000
1.714314e+003,9.944458e+000
1.715279e+003,1.154248e+001
1.716243e+003,9.591309e+000
1.717207e+003,4.977661e+000
1.718171e+003,2.776978e+000
1.719135e+003,4.531860e+000
1.720100e+003,5.824341e+000
1.721064e+003,2.968018e+000
1.722028e+003,-5.256348e-001
1.722992e+003,1.902588e+000
1.723957e+003,9.303955e+000
1.724921e+003,1.194617e+001
1.725885e+003,8.077148e+000
1.726849e+003,3.882568e+000
1.727814e+003,-7.165527e-002
1.728778e+003,-1.215942e+000
1.729742e+003,3.339111e+000
1.730706e+003,9.104980e+000
1.731671e+003,1.168909e+001
1.732635e+003,1.078064e+001
1.733599e+003,7.277100e+000
1.734563e+003,2.640869e+000
1.735528e+003,-7.878418e-001
1.736492e+003,-2.086182e+000
1.737456e+003,-1.376587e+000
1.738420e+003,1.585449e+000
1.739385e+003,5.154297e+000
1.740349e+003,5.081299e+000
1.741313e+003,9.608154e-001
1.742277e+003,-2.211792e+000
1.743241e+003,-3.174683e+000
1.744206e+003,-4.134155e+000
1.745170e+003,-7.708252e+000
1.746134e+003,-9.337402e+000
1.747098e+003,-4.501343e+000
1.748063e+003,2.023438e+000
1.749027e+003,4.498779e+000
1.749991e+003,3.712158e+000
1.750955e+003,3.669800e+000
1.751919e+003,5.587524e+000
1.752884e+003,7.643921e+000
1.753848e+003,8.340332e+000
1.754812e+003,7.831055e+000
1.755776e+003,6.834839e+000
1.756741e+003,5.940430e+000
1.757705e+003,5.124146e+000
1.758669e+003,3.969727e+000
1.759633e+003,2.481812e+000
1.760598e+003,-4.106445e-001
1.761562e+003,-3.098877e+000
1.762526e+003,-4.477051e+000
1.763490e+003,-4.896606e+000
1.764455e+003,-4.066895e+000
1.765419e+003,-2.556519e+000
1.766383e+003,-1.725708e+000
1.767347e+003,-1.834229e+000
1.768312e+003,-1.629272e+000
1.769276e+003,-6.851807e-001
1.770240e+003,-2.727051e-001
1.771204e+003,-1.019531e+000
1.772168e+003,-1.898315e+000
1.773133e+003,-2.045044e+000
1.774097e+003,-1.523315e+000
1.775061e+003,-5.822754e-001
1.776025e+003,1.864014e-001
1.776990e+003,4.089355e-001
1.777954e+003,5.191650e-001
1.778918e+003,1.104370e+000
1.779882e+003,2.193237e+000
1.780846e+003,3.052368e+000
1.781811e+003,3.450317e+000
1.782775e+003,3.595093e+000
1.783739e+003,3.753784e+000
1.784703e+003,4.259766e+000
1.785668e+003,3.986572e+000
1.786632e+003,5.292969e-001
1.787596e+003,-2.905273e+000
1.788560e+003,-2.508911e+000
1.789525e+003,5.419922e-002
1.790489e+003,1.929932e+000
1.791453e+003,2.641113e+000
1.792417e+003,2.457275e+000
1.793382e+003,1.534668e+000
1.794346e+003,-2.343750e-002
1.795310e+003,-2.333130e+000
1.796274e+003,-4.580566e+000
1.797239e+003,-5.486572e+000
1.798203e+003,-4.407593e+000
1.799167e+003,-1.525391e+000
1.800131e+003,2.472290e+000
1.801095e+003,3.273926e+000
1.802060e+003,-4.040527e-001
1.803024e+003,-2.273682e+000
1.803988e+003,-7.768555e-001
1.804952e+003,4.921875e-001
1.805917e+003,-9.388428e-001
1.806881e+003,-2.802490e+000
1.807845e+003,-2.172241e+000
1.808809e+003,1.865234e-001
1.809773e+003,1.903198e+000
1.810738e+003,2.462646e+000
1.811702e+003,3.096802e+000
1.812666e+003,4.505737e+000
1.813630e+003,6.038452e+000
1.814595e+003,6.891846e+000
1.815559e+003,6.874756e+000
1.816523e+003,6.106201e+000
1.817487e+003,4.826050e+000
1.818452e+003,1.506714e+000
1.819416e+003,-5.249268e+000
1.820380e+003,-8.127197e+000
1.821344e+003,-3.100708e+000
1.822309e+003,1.966187e+000
1.823273e+003,3.233887e+000
1.824237e+003,2.685181e+000
1.825201e+003,7.056885e-001
1.826166e+003,-1.799072e+000
1.827130e+003,-1.811523e+000
1.828094e+003,8.256836e-001
1.829058e+003,1.670166e+000
1.830022e+003,-1.798584e+000
1.830987e+003,-5.600464e+000
1.831951e+003,-6.172729e+000
1.832915e+003,-5.252197e+000
1.833879e+003,-5.695801e+000
1.834844e+003,-6.897339e+000
1.835808e+003,-6.582031e+000
1.836772e+003,-4.377319e+000
1.837736e+003,-8.238525e-001
1.838700e+003,3.663330e+000
1.839665e+003,5.224487e+000
1.840629e+003,-1.920166e-001
1.841593e+003,-8.130737e+000
1.842557e+003,-9.301758e+000
1.843522e+003,-3.861084e+000
1.844486e+003,-1.112915e+000
1.845450e+003,-2.491333e+000
1.846414e+003,-2.127808e+000
1.847379e+003,1.558472e+000
1.848343e+003,2.538452e+000
1.849307e+003,-2.735718e+000
1.850271e+003,-8.656860e+000
1.851236e+003,-1.141711e+001
1.852200e+003,-1.148682e+001
1.853164e+003,-1.025928e+001
1.854128e+003,-8.856689e+000
1.855093e+003,-7.902710e+000
1.856057e+003,-6.997192e+000
1.857021e+003,-5.028564e+000
1.857985e+003,-1.099731e+000
1.858949e+003,2.324829e+000
1.859914e+003,4.663086e-002
1.860878e+003,-6.317871e+000
1.861842e+003,-8.401855e+000
1.862806e+003,-6.298950e+000
1.863771e+003,-3.953491e+000
1.864735e+003,-2.206055e+000
1.865699e+003,-6.145020e-001
1.866663e+003,1.574707e+000
1.867627e+003,3.865723e+000
1.868592e+003,5.729980e+000
1.869556e+003,6.174316e+000
1.870520e+003,4.090698e+000
1.871484e+003,-1.827393e-001
1.872449e+003,-4.114624e+000
1.873413e+003,-6.075439e+000
1.874377e+003,-5.443604e+000
1.875341e+003,-2.793335e+000
1.876306e+003,1.252441e-001
1.877270e+003,3.107056e+000
1.878234e+003,4.833496e+000
1.879198e+003,3.901978e+000
1.880163e+003,1.283936e+000
1.881127e+003,-1.743652e+000
1.882091e+003,-4.403442e+000
1.883055e+003,-5.798340e+000
1.884020e+003,-5.610474e+000
1.884984e+003,-3.771484e+000
1.885948e+003,-4.248047e-002
1.886912e+003,3.556885e+000
1.887876e+003,2.626709e+000
1.888841e+003,-2.235596e+000
1.889805e+003,-4.430542e+000
1.890769e+003,-3.495605e+000
1.891733e+003,-2.297852e+000
1.892698e+003,-1.290161e+000
1.893662e+003,-9.113770e-001
1.894626e+003,-1.641235e+000
1.895590e+003,-2.118896e+000
1.896554e+003,-4.190674e-001
1.897519e+003,2.026855e+000
1.898483e+003,2.646729e+000
1.899447e+003,1.441162e+000
1.900411e+003,5.133057e-001
1.901376e+003,4.138184e-001
1.902340e+003,1.221191e+000
1.903304e+003,4.181152e+000
1.904268e+003,5.869751e+000
1.905233e+003,2.397949e+000
1.906197e+003,-1.130127e+000
1.907161e+003,1.474976e+000
1.908125e+003,7.718384e+000
1.909090e+003,1.305945e+001
1.910054e+003,1.601575e+001
1.911018e+003,1.543030e+001
1.911982e+003,1.177722e+001
1.912947e+003,8.716309e+000
1.913911e+003,8.731567e+000
1.914875e+003,1.065674e+001
1.915839e+003,1.272803e+001
1.916803e+003,1.400537e+001
1.917768e+003,1.198706e+001
1.918732e+003,6.442993e+000
1.919696e+003,1.958862e+000
1.920660e+003,-1.816650e+000
1.921625e+003,-1.850708e+000
1.922589e+003,5.305908e+000
1.923553e+003,1.081396e+001
1.924517e+003,8.105957e+000
1.925481e+003,3.608154e+000
1.926446e+003,3.006348e+000
1.927410e+003,4.756470e+000
1.928374e+003,5.644897e+000
1.929338e+003,5.026123e+000
1.930303e+003,3.280640e+000
1.931267e+003,5.214844e-001
1.932231e+003,-6.799316e-002
1.933195e+003,4.224976e+000
1.934160e+003,8.183594e+000
1.935124e+003,7.281128e+000
1.936088e+003,4.102417e+000
1.937052e+003,2.058472e+000
1.938017e+003,1.519775e+000
1.938981e+003,1.815552e+000
1.939945e+003,2.568237e+000
1.940909e+003,3.696533e+000
1.941874e+003,4.911499e+000
1.942838e+003,5.165527e+000
1.943802e+003,3.938477e+000
1.944766e+003,3.241211e+000
1.945730e+003,6.445557e+000
1.946695e+003,1.224060e+001
1.947659e+003,1.310120e+001
1.948623e+003,8.348511e+000
1.949587e+003,4.155640e+000
1.950552e+003,1.086060e+000
1.951516e+003,7.517090e-001
1.952480e+003,5.394043e+000
1.953444e+003,9.021729e+000
1.954408e+003,5.344482e+000
1.955373e+003,-3.615723e-001
1.956337e+003,2.078979e+000
1.957301e+003,1.000049e+001
1.958265e+003,1.029651e+001
1.959230e+003,1.420410e+000
1.960194e+003,-3.283936e+000
1.961158e+003,-1.179565e+000
1.962122e+003,1.711792e+000
1.963087e+003,6.843384e+000
1.964051e+003,9.117188e+000
1.965015e+003,2.546997e+000
1.965979e+003,-4.326782e+000
1.966944e+003,-2.777954e+000
1.967908e+003,3.833618e+000
1.968872e+003,1.001770e+001
1.969836e+003,1.380786e+001
1.970801e+003,1.309106e+001
1.971765e+003,7.430298e+000
1.972729e+003,1.843750e+000
1.973693e+003,2.138672e-001
1.974657e+003,1.730713e+000
1.975622e+003,6.284058e+000
1.976586e+003,1.217786e+001
1.977550e+003,1.617761e+001
1.978514e+003,1.823242e+001
1.979479e+003,1.645886e+001
1.980443e+003,1.078406e+001
1.981407e+003,6.668457e+000
1.982371e+003,6.387939e+000
1.983335e+003,8.693970e+000
1.984300e+003,1.268860e+001
1.985264e+003,1.617896e+001
1.986228e+003,1.614868e+001
1.987192e+003,1.313025e+001
1.988157e+003,9.854980e+000
1.989121e+003,6.266479e+000
1.990085e+003,4.142334e+000
1.991049e+003,3.668701e+000
1.992014e+003,5.108643e+000
1.992978e+003,1.104773e+001
1.993942e+003,1.462915e+001
1.994906e+003,1.199304e+001
1.995871e+003,7.847778e+000
1.996835e+003,4.878296e+000
1.997799e+003,3.479736e+000
1.998763e+003,3.808472e+000
1.999728e+003,5.339355e+000
