5.003444e+002,4.506261e+001
5.013087e+002,4.563138e+001
5.022729e+002,4.494962e+001
5.032371e+002,4.327539e+001
5.042014e+002,4.083502e+001
5.051656e+002,3.788530e+001
5.061298e+002,3.598108e+001
5.070941e+002,3.669154e+001
5.080583e+002,4.073360e+001
5.090225e+002,4.288452e+001
5.099868e+002,4.290895e+001
5.109510e+002,4.201659e+001
5.119152e+002,4.039441e+001
5.128795e+002,3.799168e+001
5.138437e+002,3.635599e+001
5.148079e+002,3.661469e+001
5.157722e+002,3.723657e+001
5.167364e+002,3.777376e+001
5.177006e+002,3.800879e+001
5.186649e+002,3.788718e+001
5.196291e+002,3.742345e+001
5.205933e+002,3.669724e+001
5.215576e+002,3.531503e+001
5.225218e+002,3.330264e+001
5.234860e+002,3.124361e+001
5.244503e+002,3.030670e+001
5.254145e+002,3.105449e+001
5.263787e+002,3.190054e+001
5.273430e+002,3.340434e+001
5.283072e+002,3.464908e+001
5.292714e+002,3.401060e+001
5.302357e+002,2.969252e+001
5.311999e+002,2.707060e+001
5.321641e+002,2.780884e+001
5.331284e+002,2.962086e+001
5.340926e+002,3.077432e+001
5.350568e+002,3.056242e+001
5.360211e+002,2.982655e+001
5.369853e+002,2.939481e+001
5.379495e+002,2.909225e+001
5.389138e+002,2.867424e+001
5.398780e+002,2.805405e+001
5.408422e+002,2.739935e+001
5.418065e+002,2.744502e+001
5.427707e+002,2.802861e+001
5.437349e+002,2.773405e+001
5.446992e+002,2.590065e+001
5.456634e+002,2.308173e+001
5.466276e+002,2.126753e+001
5.475919e+002,2.148764e+001
5.485561e+002,2.169572e+001
5.495203e+002,2.159589e+001
5.504846e+002,2.141469e+001
5.514488e+002,2.159679e+001
5.524130e+002,2.257233e+001
5.533773e+002,2.348071e+001
5.543415e+002,2.417882e+001
5.553057e+002,2.447565e+001
5.562700e+002,2.395363e+001
5.572342e+002,2.235503e+001
5.581984e+002,2.032434e+001
5.591627e+002,1.948555e+001
5.601269e+002,1.954048e+001
5.610911e+002,1.997424e+001
5.620554e+002,2.053333e+001
5.630196e+002,2.110977e+001
5.639838e+002,2.109428e+001
5.649481e+002,1.998796e+001
5.659123e+002,1.903627e+001
5.668765e+002,1.855298e+001
5.678408e+002,1.852094e+001
5.688050e+002,1.878508e+001
5.697692e+002,1.980435e+001
5.707335e+002,1.999149e+001
5.716977e+002,1.851759e+001
5.726619e+002,1.620634e+001
5.736262e+002,1.404785e+001
5.745904e+002,1.267392e+001
5.755546e+002,1.200298e+001
5.765189e+002,1.170961e+001
5.774831e+002,1.167381e+001
5.784473e+002,1.193375e+001
5.794116e+002,1.255713e+001
5.803758e+002,1.355280e+001
5.813400e+002,1.400677e+001
5.823043e+002,1.347844e+001
5.832685e+002,1.326627e+001
5.842327e+002,1.420589e+001
5.851970e+002,1.613625e+001
5.861612e+002,1.753261e+001
5.871254e+002,1.775746e+001
5.880897e+002,1.767645e+001
5.890539e+002,1.727536e+001
5.900181e+002,1.664508e+001
5.909824e+002,1.593037e+001
5.919466e+002,1.528134e+001
5.929108e+002,1.452927e+001
5.938751e+002,1.332610e+001
5.948393e+002,1.195735e+001
5.958035e+002,1.083337e+001
5.967678e+002,1.026862e+001
5.977320e+002,1.029117e+001
5.986962e+002,1.109129e+001
5.996605e+002,1.261043e+001
6.006247e+002,1.367743e+001
6.015889e+002,1.365120e+001
6.025532e+002,1.261400e+001
6.035174e+002,1.163962e+001
6.044816e+002,1.061713e+001
6.054459e+002,9.844498e+000
6.064101e+002,9.600693e+000
6.073743e+002,9.590225e+000
6.083386e+002,9.215652e+000
6.093028e+002,7.885315e+000
6.102670e+002,6.823120e+000
6.112313e+002,6.980301e+000
6.121955e+002,7.857483e+000
6.131597e+002,8.878204e+000
6.141240e+002,9.634064e+000
6.150882e+002,1.012921e+001
6.160524e+002,1.044698e+001
6.170167e+002,1.066910e+001
6.179809e+002,1.074586e+001
6.189451e+002,1.054364e+001
6.199094e+002,1.006174e+001
6.208736e+002,9.692520e+000
6.218378e+002,9.789307e+000
6.228021e+002,9.816299e+000
6.237663e+002,9.789230e+000
6.247305e+002,9.683792e+000
6.256948e+002,9.364075e+000
6.266590e+002,8.515350e+000
6.276232e+002,7.801849e+000
6.285875e+002,7.624100e+000
6.295517e+002,7.883133e+000
6.305159e+002,8.725464e+000
6.314802e+002,1.011671e+001
6.324444e+002,1.141206e+001
6.334086e+002,1.011356e+001
6.343729e+002,7.272141e+000
6.353371e+002,5.804276e+000
6.363013e+002,6.946136e+000
6.372656e+002,9.795792e+000
6.382298e+002,1.120622e+001
6.391940e+002,9.688782e+000
6.401583e+002,8.426224e+000
6.411225e+002,7.822876e+000
6.420867e+002,7.530945e+000
6.430510e+002,7.013641e+000
6.440152e+002,5.951477e+000
6.449794e+002,4.915588e+000
6.459437e+002,4.339310e+000
6.469079e+002,3.827759e+000
6.478721e+002,2.875381e+000
6.488364e+002,1.452194e+000
6.498006e+002,2.918243e-001
6.507648e+002,1.052536e+000
6.517291e+002,2.976685e+000
6.526933e+002,4.302139e+000
6.536575e+002,4.682205e+000
6.546218e+002,4.489670e+000
6.555860e+002,4.449478e+000
6.565502e+002,4.693222e+000
6.575145e+002,4.767151e+000
6.584787e+002,4.435410e+000
6.594429e+002,4.156250e+000
6.604072e+002,4.479660e+000
6.613714e+002,5.588745e+000
6.623356e+002,6.215408e+000
6.632999e+002,5.348297e+000
6.642641e+002,4.079666e+000
6.652283e+002,2.563400e+000
6.661926e+002,1.202728e+000
6.671568e+002,7.486267e-001
6.681210e+002,2.441589e+000
6.690853e+002,5.315109e+000
6.700495e+002,6.760361e+000
6.710137e+002,6.800339e+000
6.719780e+002,6.540268e+000
6.729422e+002,7.241806e+000
6.739064e+002,9.295105e+000
6.748707e+002,9.560181e+000
6.758349e+002,6.662186e+000
6.767991e+002,4.066284e+000
6.777634e+002,3.710953e+000
6.787276e+002,5.326782e+000
6.796918e+002,6.243088e+000
6.806561e+002,4.529785e+000
6.816203e+002,2.760025e+000
6.825845e+002,1.574234e+000
6.835488e+002,1.102753e+000
6.845130e+002,1.598694e+000
6.854772e+002,3.400177e+000
6.864415e+002,5.669968e+000
6.874057e+002,6.472031e+000
6.883699e+002,6.032516e+000
6.893342e+002,4.860245e+000
6.902984e+002,3.189651e+000
6.912626e+002,1.199219e+000
6.922269e+002,-1.075897e-001
6.931911e+002,-4.251862e-001
6.941553e+002,-1.392975e-001
6.951196e+002,7.913208e-001
6.960838e+002,2.125488e+000
6.970480e+002,3.829773e+000
6.980123e+002,6.614380e+000
6.989765e+002,7.913712e+000
6.999407e+002,5.918808e+000
7.009050e+002,2.945724e+000
7.018692e+002,4.242706e-001
7.028334e+002,-9.755707e-001
7.037977e+002,-1.122299e+000
7.047619e+002,1.295609e+000
7.057261e+002,4.895264e+000
7.066904e+002,6.325195e+000
7.076546e+002,5.040283e+000
7.086188e+002,2.880539e+000
7.095831e+002,2.863571e+000
7.105473e+002,6.219315e+000
7.115115e+002,7.569016e+000
7.124758e+002,5.989334e+000
7.134400e+002,3.732407e+000
7.144042e+002,1.847321e+000
7.153685e+002,4.769592e-001
7.163327e+002,-1.660004e-001
7.172969e+002,2.476349e-001
7.182612e+002,1.351715e+000
7.192254e+002,3.984970e+000
7.201896e+002,7.100449e+000
7.211539e+002,8.695801e+000
7.221181e+002,6.935547e+000
7.230823e+002,3.225983e+000
7.240466e+002,1.429947e+000
7.250108e+002,1.250168e+000
7.259750e+002,1.516922e+000
7.269393e+002,1.496552e+000
7.279035e+002,1.134705e+000
7.288677e+002,8.220978e-001
7.298320e+002,3.372498e-001
7.307962e+002,6.487274e-001
7.317604e+002,2.636703e+000
7.327247e+002,5.167160e+000
7.336889e+002,6.452698e+000
7.346531e+002,5.537170e+000
7.356174e+002,4.445084e+000
7.365816e+002,4.955872e+000
7.375458e+002,5.679337e+000
7.385101e+002,5.294373e+000
7.394743e+002,3.626450e+000
7.404385e+002,1.771454e+000
7.414028e+002,1.455276e+000
7.423670e+002,2.163467e+000
7.433312e+002,2.057236e+000
7.442955e+002,1.057114e+000
7.452597e+002,3.727417e-001
7.462239e+002,1.607910e+000
7.471882e+002,5.584442e+000
7.481524e+002,7.597031e+000
7.491166e+002,6.177002e+000
7.500809e+002,4.572830e+000
7.510451e+002,3.814011e+000
7.520093e+002,3.882629e+000
7.529736e+002,4.410477e+000
7.539378e+002,5.877472e+000
7.549020e+002,6.987350e+000
7.558663e+002,6.980484e+000
7.568306e+002,6.138840e+000
7.577948e+002,4.452499e+000
7.587590e+002,2.006744e+000
7.597233e+002,-4.980316e-001
7.606875e+002,-1.960297e-001
7.616517e+002,2.593231e+000
7.626160e+002,4.828140e+000
7.635802e+002,5.734863e+000
7.645444e+002,5.745880e+000
7.655087e+002,5.689377e+000
7.664729e+002,5.553329e+000
7.674371e+002,5.281311e+000
7.684014e+002,4.741669e+000
7.693656e+002,4.190155e+000
7.703298e+002,3.742203e+000
7.712941e+002,3.450928e+000
7.722583e+002,3.422302e+000
7.732225e+002,4.072098e+000
7.741868e+002,4.677063e+000
7.751510e+002,4.491959e+000
7.761152e+002,3.772415e+000
7.770795e+002,3.211197e+000
7.780437e+002,3.411255e+000
7.790079e+002,4.212875e+000
7.799722e+002,4.285187e+000
7.809364e+002,3.456100e+000
7.819006e+002,3.206757e+000
7.828649e+002,4.794662e+000
7.838291e+002,7.519745e+000
7.847933e+002,8.778793e+000
7.857576e+002,7.343872e+000
7.867218e+002,5.979294e+000
7.876860e+002,5.188446e+000
7.886503e+002,4.830032e+000
7.896145e+002,4.860367e+000
7.905787e+002,5.226364e+000
7.915430e+002,5.681458e+000
7.925072e+002,5.867233e+000
7.934714e+002,5.881744e+000
7.944357e+002,6.125351e+000
7.953999e+002,6.567108e+000
7.963641e+002,6.706924e+000
7.973284e+002,5.915863e+000
7.982926e+002,4.130661e+000
7.992568e+002,2.588852e+000
8.002211e+002,3.999023e-001
8.011853e+002,-7.102966e-001
8.021495e+002,1.000015e+000
8.031138e+002,4.687454e+000
8.040780e+002,6.720718e+000
8.050422e+002,4.907074e+000
8.060065e+002,3.636673e+000
8.069707e+002,4.783661e+000
8.079349e+002,6.695847e+000
8.088992e+002,7.850235e+000
8.098634e+002,7.726517e+000
8.108276e+002,6.968216e+000
8.117919e+002,6.062790e+000
8.127561e+002,5.108398e+000
8.137203e+002,4.783997e+000
8.146846e+002,5.251144e+000
8.156488e+002,5.935074e+000
8.166130e+002,6.093185e+000
8.175773e+002,5.677628e+000
8.185415e+002,4.786758e+000
8.195057e+002,1.810562e+000
8.204700e+002,1.732788e-001
8.214342e+002,2.055710e+000
8.223984e+002,6.160553e+000
8.233627e+002,8.994232e+000
8.243269e+002,9.081451e+000
8.252911e+002,8.329514e+000
8.262554e+002,6.557587e+000
8.272196e+002,5.427811e+000
8.281838e+002,7.748154e+000
8.291481e+002,1.384843e+001
8.301123e+002,2.029724e+001
8.310765e+002,2.072081e+001
8.320408e+002,1.535934e+001
8.330050e+002,1.071812e+001
8.339692e+002,7.006851e+000
8.349335e+002,4.478653e+000
8.358977e+002,3.945053e+000
8.368619e+002,5.887314e+000
8.378262e+002,6.629272e+000
8.387904e+002,4.518799e+000
8.397546e+002,2.825851e+000
8.407189e+002,2.235641e+000
8.416831e+002,2.656616e+000
8.426473e+002,4.105637e+000
8.436116e+002,6.955185e+000
8.445758e+002,9.324432e+000
8.455400e+002,8.377975e+000
8.465043e+002,6.087906e+000
8.474685e+002,4.759171e+000
8.484327e+002,5.095749e+000
8.493970e+002,6.315109e+000
8.503612e+002,7.004715e+000
8.513254e+002,7.034760e+000
8.522897e+002,6.873047e+000
8.532539e+002,5.944824e+000
8.542181e+002,5.435013e+000
8.551824e+002,6.405029e+000
8.561466e+002,8.758469e+000
8.571108e+002,1.092122e+001
8.580751e+002,1.265286e+001
8.590393e+002,1.344221e+001
8.600035e+002,1.263461e+001
8.609678e+002,1.129237e+001
8.619320e+002,1.054817e+001
8.628962e+002,1.084145e+001
8.638605e+002,1.160255e+001
8.648247e+002,1.197643e+001
8.657889e+002,1.219791e+001
8.667532e+002,1.299870e+001
8.677174e+002,1.446524e+001
8.686816e+002,1.577802e+001
8.696459e+002,1.589217e+001
8.706101e+002,1.457481e+001
8.715743e+002,1.423854e+001
8.725386e+002,1.577290e+001
8.735028e+002,1.707719e+001
8.744670e+002,1.735953e+001
8.754313e+002,1.697986e+001
8.763955e+002,1.662648e+001
8.773597e+002,1.640321e+001
8.783240e+002,1.687094e+001
8.792882e+002,1.902728e+001
8.802524e+002,2.149252e+001
8.812167e+002,2.302905e+001
8.821809e+002,2.344423e+001
8.831451e+002,2.343428e+001
8.841094e+002,2.393846e+001
8.850736e+002,2.496141e+001
8.860378e+002,2.521027e+001
8.870021e+002,2.455153e+001
8.879663e+002,2.357112e+001
8.889305e+002,2.221925e+001
8.898948e+002,2.065617e+001
8.908590e+002,1.990590e+001
8.918232e+002,2.033911e+001
8.927875e+002,2.139790e+001
8.937517e+002,2.330138e+001
8.947159e+002,2.544633e+001
8.956802e+002,2.743793e+001
8.966444e+002,2.904993e+001
8.976086e+002,3.007199e+001
8.985729e+002,3.012173e+001
8.995371e+002,2.978291e+001
9.005013e+002,3.026398e+001
9.014656e+002,3.136732e+001
9.024298e+002,3.168097e+001
9.033940e+002,2.991522e+001
9.043583e+002,2.644019e+001
9.053225e+002,2.486983e+001
9.062867e+002,2.743105e+001
9.072510e+002,2.896184e+001
9.082152e+002,2.872833e+001
9.091794e+002,2.805511e+001
9.101437e+002,2.833098e+001
9.111079e+002,2.977333e+001
9.120721e+002,3.104871e+001
9.130364e+002,3.107866e+001
9.140006e+002,3.076213e+001
9.149648e+002,3.088341e+001
9.159291e+002,3.119336e+001
9.168933e+002,3.076065e+001
9.178575e+002,2.892125e+001
9.188218e+002,2.637192e+001
9.197860e+002,2.590573e+001
9.207502e+002,2.750340e+001
9.217145e+002,2.897043e+001
9.226787e+002,3.038304e+001
9.236429e+002,3.130202e+001
9.246072e+002,3.083635e+001
9.255714e+002,2.862268e+001
9.265356e+002,2.650893e+001
9.274999e+002,2.407552e+001
9.284641e+002,2.248708e+001
9.294283e+002,2.298784e+001
9.303926e+002,2.451976e+001
9.313568e+002,2.496552e+001
9.323210e+002,2.313458e+001
9.332853e+002,2.090871e+001
9.342495e+002,2.203340e+001
9.352137e+002,2.466125e+001
9.361780e+002,2.609576e+001
9.371422e+002,2.582426e+001
9.381064e+002,2.481429e+001
9.390707e+002,2.424721e+001
9.400349e+002,2.410902e+001
9.409991e+002,2.376669e+001
9.419634e+002,2.316298e+001
9.429276e+002,2.241406e+001
9.438918e+002,2.131454e+001
9.448561e+002,2.020094e+001
9.458203e+002,1.973294e+001
9.467845e+002,2.025224e+001
9.477488e+002,2.076404e+001
9.487130e+002,2.037648e+001
9.496772e+002,1.972890e+001
9.506415e+002,1.914122e+001
9.516057e+002,1.875967e+001
9.525699e+002,1.876074e+001
9.535342e+002,1.931390e+001
9.544984e+002,2.029568e+001
9.554626e+002,2.106090e+001
9.564269e+002,2.197035e+001
9.573911e+002,2.204562e+001
9.583553e+002,2.053130e+001
9.593196e+002,1.817627e+001
9.602838e+002,1.616344e+001
9.612480e+002,1.452278e+001
9.622123e+002,1.314365e+001
9.631765e+002,1.112105e+001
9.641407e+002,1.024139e+001
9.651050e+002,1.251448e+001
9.660692e+002,1.642896e+001
9.670334e+002,1.887639e+001
9.679977e+002,1.795535e+001
9.689619e+002,1.532945e+001
9.699261e+002,1.390244e+001
9.708904e+002,1.342329e+001
9.718546e+002,1.376607e+001
9.728188e+002,1.491472e+001
9.737831e+002,1.668529e+001
9.747473e+002,1.920320e+001
9.757115e+002,2.289711e+001
9.766758e+002,2.512801e+001
9.776400e+002,2.466800e+001
9.786042e+002,2.440199e+001
9.795685e+002,2.557828e+001
9.805327e+002,2.693591e+001
9.814969e+002,2.677715e+001
9.824612e+002,2.459846e+001
9.834254e+002,2.151169e+001
9.843896e+002,1.768727e+001
9.853539e+002,1.388715e+001
9.863181e+002,1.061887e+001
9.872823e+002,8.107712e+000
9.882466e+002,7.291092e+000
9.892108e+002,9.174210e+000
9.901750e+002,1.321841e+001
9.911393e+002,1.444339e+001
9.921035e+002,9.154816e+000
9.930677e+002,6.544174e+000
9.940320e+002,9.183121e+000
9.949962e+002,1.308856e+001
9.959604e+002,1.456490e+001
9.969247e+002,1.341264e+001
9.978889e+002,1.219254e+001
9.988531e+002,1.198267e+001
9.998174e+002,1.183577e+001
1.000782e+003,1.127727e+001
1.001746e+003,1.050983e+001
1.002710e+003,9.619675e+000
1.003674e+003,8.730438e+000
1.004639e+003,8.329117e+000
1.005603e+003,9.471939e+000
1.006567e+003,1.230325e+001
1.007531e+003,1.287247e+001
1.008495e+003,1.008174e+001
1.009460e+003,7.377853e+000
1.010424e+003,7.499863e+000
1.011388e+003,9.529190e+000
1.012352e+003,9.247574e+000
1.013317e+003,3.934280e+000
1.014281e+003,8.676910e-001
1.015245e+003,4.129166e+000
1.016209e+003,8.267899e+000
1.017174e+003,9.160446e+000
1.018138e+003,6.823273e+000
1.019102e+003,4.178772e+000
1.020066e+003,3.645935e+000
1.021031e+003,4.439301e+000
1.021995e+003,3.940506e+000
1.022959e+003,2.385330e+000
1.023923e+003,1.499359e+000
1.024887e+003,2.049484e+000
1.025852e+003,3.124405e+000
1.026816e+003,3.369934e+000
1.027780e+003,2.773895e+000
1.028744e+003,1.715775e+000
1.029709e+003,-1.125076e+000
1.030673e+003,-2.887848e+000
1.031637e+003,-2.000717e+000
1.032601e+003,1.379700e-001
1.033566e+003,1.717072e+000
1.034530e+003,2.108444e+000
1.035494e+003,1.757111e+000
1.036458e+003,6.441650e-001
1.037422e+003,-6.623688e-001
1.038387e+003,-1.063171e+000
1.039351e+003,-6.303253e-001
1.040315e+003,-1.831207e-001
1.041279e+003,-3.280792e-001
1.042244e+003,-8.524017e-001
1.043208e+003,-8.643036e-001
1.044172e+003,-1.026764e-001
1.045136e+003,5.924683e-001
1.046101e+003,1.403519e+000
1.047065e+003,2.036987e+000
1.048029e+003,2.342285e+000
1.048993e+003,2.266144e+000
1.049958e+003,1.623016e+000
1.050922e+003,4.046631e-002
1.051886e+003,-1.235947e+000
1.052850e+003,-7.287903e-001
1.053814e+003,6.607056e-001
1.054779e+003,2.137878e+000
1.055743e+003,3.339996e+000
1.056707e+003,3.671906e+000
1.057671e+003,2.320831e+000
1.058636e+003,-7.469177e-001
1.059600e+003,-2.358185e+000
1.060564e+003,-1.944031e+000
1.061528e+003,-7.937622e-001
1.062493e+003,1.904556e+000
1.063457e+003,4.481567e+000
1.064421e+003,4.859100e+000
1.065385e+003,2.890045e+000
1.066349e+003,9.213867e-001
1.067314e+003,1.340179e-001
1.068278e+003,-2.796631e-001
1.069242e+003,-1.026520e+000
1.070206e+003,-1.751160e+000
1.071171e+003,-2.061920e+000
1.072135e+003,-1.748260e+000
1.073099e+003,-4.237671e-001
1.074063e+003,2.839005e+000
1.075028e+003,8.482269e+000
1.075992e+003,9.891571e+000
1.076956e+003,4.520920e+000
1.077920e+003,-1.499329e-001
1.078885e+003,-8.624573e-001
1.079849e+003,8.169098e-001
1.080813e+003,1.995407e+000
1.081777e+003,2.208984e+000
1.082741e+003,2.472580e+000
1.083706e+003,3.251511e+000
1.084670e+003,4.075546e+000
1.085634e+003,5.120163e+000
1.086598e+003,5.928818e+000
1.087563e+003,5.517181e+000
1.088527e+003,3.487167e+000
1.089491e+003,9.450684e-001
1.090455e+003,-2.049255e-002
1.091420e+003,7.393188e-001
1.092384e+003,1.147461e+000
1.093348e+003,1.081543e+000
1.094312e+003,7.802429e-001
1.095276e+003,4.572449e-001
1.096241e+003,1.059570e-001
1.097205e+003,-5.293884e-001
1.098169e+003,-1.765884e+000
1.099133e+003,-2.644974e+000
1.100098e+003,-2.880707e+000
1.101062e+003,-2.555145e+000
1.102026e+003,-1.023819e+000
1.102990e+003,9.803772e-001
1.103955e+003,1.792999e+000
1.104919e+003,4.145508e-001
1.105883e+003,-2.044434e+000
1.106847e+003,-3.193069e+000
1.107812e+003,-2.982742e+000
1.108776e+003,-2.730621e+000
1.109740e+003,-2.529205e+000
1.110704e+003,-2.205048e+000
1.111668e+003,-1.513474e+000
1.112633e+003,-4.853821e-001
1.113597e+003,5.574799e-001
1.114561e+003,1.678406e+000
1.115525e+003,2.399612e+000
1.116490e+003,2.973480e+000
1.117454e+003,2.810516e+000
1.118418e+003,7.020721e-001
1.119382e+003,-2.335464e+000
1.120347e+003,-3.860977e+000
1.121311e+003,-2.457367e+000
1.122275e+003,1.401672e-001
1.123239e+003,5.136108e-001
1.124203e+003,-1.040955e+000
1.125168e+003,-1.707397e+000
1.126132e+003,-9.830933e-001
1.127096e+003,-8.813477e-002
1.128060e+003,-1.893158e-001
1.129025e+003,-1.007584e+000
1.129989e+003,-9.269257e-001
1.130953e+003,8.170471e-001
1.131917e+003,1.838257e+000
1.132882e+003,5.919189e-001
1.133846e+003,-5.229034e-001
1.134810e+003,5.502319e-001
1.135774e+003,2.942551e+000
1.136739e+003,4.111557e+000
1.137703e+003,2.655701e+000
1.138667e+003,4.257050e-001
1.139631e+003,8.755341e-001
1.140595e+003,3.683029e+000
1.141560e+003,5.561722e+000
1.142524e+003,6.268066e+000
1.143488e+003,6.653076e+000
1.144452e+003,6.935944e+000
1.145417e+003,7.307480e+000
1.146381e+003,8.595856e+000
1.147345e+003,1.116109e+001
1.148309e+003,1.363573e+001
1.149274e+003,1.583115e+001
1.150238e+003,1.778934e+001
1.151202e+003,1.932654e+001
1.152166e+003,2.075749e+001
1.153130e+003,2.270407e+001
1.154095e+003,2.533073e+001
1.155059e+003,2.781027e+001
1.156023e+003,2.910388e+001
1.156987e+003,2.925642e+001
1.157952e+003,2.899782e+001
1.158916e+003,2.854788e+001
1.159880e+003,2.734753e+001
1.160844e+003,2.450272e+001
1.161809e+003,2.062549e+001
1.162773e+003,1.733542e+001
1.163737e+003,1.477005e+001
1.164701e+003,1.224838e+001
1.165666e+003,8.985825e+000
1.166630e+003,6.517944e+000
1.167594e+003,5.925583e+000
1.168558e+003,6.248215e+000
1.169522e+003,6.190125e+000
1.170487e+003,5.364899e+000
1.171451e+003,4.454453e+000
1.172415e+003,4.270523e+000
1.173379e+003,4.538269e+000
1.174344e+003,3.768951e+000
1.175308e+003,1.931335e+000
1.176272e+003,4.203339e-001
1.177236e+003,-2.006378e-001
1.178201e+003,-3.191376e-001
1.179165e+003,-3.117218e-001
1.180129e+003,-2.253113e-001
1.181093e+003,-7.207031e-001
1.182057e+003,-2.550079e+000
1.183022e+003,-3.964432e+000
1.183986e+003,-4.149399e+000
1.184950e+003,-3.780563e+000
1.185914e+003,-3.467056e+000
1.186879e+003,-3.274628e+000
1.187843e+003,-2.925308e+000
1.188807e+003,-2.215866e+000
1.189771e+003,-1.196335e+000
1.190736e+003,3.192749e-001
1.191700e+003,2.498718e+000
1.192664e+003,2.994080e+000
1.193628e+003,7.123718e-001
1.194593e+003,-2.028870e+000
1.195557e+003,-3.993073e+000
1.196521e+003,-5.137344e+000
1.197485e+003,-4.872238e+000
1.198449e+003,-2.260178e+000
1.199414e+003,-9.004059e-001
1.200378e+003,-4.185501e+000
1.201342e+003,-7.635635e+000
1.202306e+003,-8.317169e+000
1.203271e+003,-6.942307e+000
1.204235e+003,-5.336777e+000
1.205199e+003,-4.498596e+000
1.206163e+003,-4.430115e+000
1.207128e+003,-5.265427e+000
1.208092e+003,-7.075287e+000
1.209056e+003,-7.775894e+000
1.210020e+003,-6.749084e+000
1.210984e+003,-6.043762e+000
1.211949e+003,-6.358688e+000
1.212913e+003,-7.264618e+000
1.213877e+003,-8.300873e+000
1.214841e+003,-9.392761e+000
1.215806e+003,-1.031346e+001
1.216770e+003,-1.095547e+001
1.217734e+003,-1.146371e+001
1.218698e+003,-1.211049e+001
1.219663e+003,-1.268260e+001
1.220627e+003,-1.283965e+001
1.221591e+003,-1.257452e+001
1.222555e+003,-1.212308e+001
1.223520e+003,-1.166772e+001
1.224484e+003,-1.132959e+001
1.225448e+003,-1.184993e+001
1.226412e+003,-1.407242e+001
1.227376e+003,-1.524760e+001
1.228341e+003,-1.496812e+001
1.229305e+003,-1.419861e+001
1.230269e+003,-1.300490e+001
1.231233e+003,-1.182449e+001
1.232198e+003,-1.165248e+001
1.233162e+003,-1.277963e+001
1.234126e+003,-1.358499e+001
1.235090e+003,-1.221304e+001
1.236055e+003,-1.074890e+001
1.237019e+003,-1.220723e+001
1.237983e+003,-1.537915e+001
1.238947e+003,-1.662540e+001
1.239911e+003,-1.442406e+001
1.240876e+003,-1.120982e+001
1.241840e+003,-1.077606e+001
1.242804e+003,-1.333839e+001
1.243768e+003,-1.459940e+001
1.244733e+003,-1.266911e+001
1.245697e+003,-1.193906e+001
1.246661e+003,-1.427679e+001
1.247625e+003,-1.666638e+001
1.248590e+003,-1.646548e+001
1.249554e+003,-1.420543e+001
1.250518e+003,-1.224371e+001
1.251482e+003,-1.167526e+001
1.252447e+003,-1.167845e+001
1.253411e+003,-1.118617e+001
1.254375e+003,-1.051990e+001
1.255339e+003,-1.051486e+001
1.256303e+003,-1.114499e+001
1.257268e+003,-1.171808e+001
1.258232e+003,-1.194849e+001
1.259196e+003,-1.191391e+001
1.260160e+003,-1.159793e+001
1.261125e+003,-1.087839e+001
1.262089e+003,-1.024809e+001
1.263053e+003,-9.701050e+000
1.264017e+003,-9.485001e+000
1.264982e+003,-1.002724e+001
1.265946e+003,-1.059842e+001
1.266910e+003,-1.033057e+001
1.267874e+003,-9.381836e+000
1.268839e+003,-8.695206e+000
1.269803e+003,-8.895340e+000
1.270767e+003,-9.547714e+000
1.271731e+003,-9.803787e+000
1.272695e+003,-9.648010e+000
1.273660e+003,-9.713715e+000
1.274624e+003,-1.020712e+001
1.275588e+003,-1.070767e+001
1.276552e+003,-1.110818e+001
1.277517e+003,-1.120195e+001
1.278481e+003,-1.041968e+001
1.279445e+003,-8.644897e+000
1.280409e+003,-7.571976e+000
1.281374e+003,-8.061142e+000
1.282338e+003,-8.974686e+000
1.283302e+003,-1.023502e+001
1.284266e+003,-1.126126e+001
1.285230e+003,-1.114832e+001
1.286195e+003,-1.002972e+001
1.287159e+003,-8.966675e+000
1.288123e+003,-8.803452e+000
1.289087e+003,-9.282486e+000
1.290052e+003,-9.737625e+000
1.291016e+003,-1.007402e+001
1.291980e+003,-1.103506e+001
1.292944e+003,-1.381772e+001
1.293909e+003,-1.576057e+001
1.294873e+003,-1.508371e+001
1.295837e+003,-1.329842e+001
1.296801e+003,-1.260718e+001
1.297766e+003,-1.324422e+001
1.298730e+003,-1.373473e+001
1.299694e+003,-1.323926e+001
1.300658e+003,-1.254953e+001
1.301622e+003,-1.257664e+001
1.302587e+003,-1.293588e+001
1.303551e+003,-1.311522e+001
1.304515e+003,-1.298224e+001
1.305479e+003,-1.254318e+001
1.306444e+003,-1.181595e+001
1.307408e+003,-1.087190e+001
1.308372e+003,-9.691010e+000
1.309336e+003,-7.741653e+000
1.310301e+003,-7.271179e+000
1.311265e+003,-9.716705e+000
1.312229e+003,-1.189159e+001
1.313193e+003,-1.322388e+001
1.314157e+003,-1.362196e+001
1.315122e+003,-1.232544e+001
1.316086e+003,-9.943726e+000
1.317050e+003,-8.954514e+000
1.318014e+003,-1.109538e+001
1.318979e+003,-1.415857e+001
1.319943e+003,-1.393091e+001
1.320907e+003,-1.082433e+001
1.321871e+003,-9.242111e+000
1.322836e+003,-9.813461e+000
1.323800e+003,-1.056667e+001
1.324764e+003,-1.066768e+001
1.325728e+003,-1.017119e+001
1.326693e+003,-8.876663e+000
1.327657e+003,-6.795441e+000
1.328621e+003,-5.679581e+000
1.329585e+003,-6.388382e+000
1.330549e+003,-7.080719e+000
1.331514e+003,-6.538666e+000
1.332478e+003,-6.003357e+000
1.333442e+003,-7.041245e+000
1.334406e+003,-9.188919e+000
1.335371e+003,-1.047166e+001
1.336335e+003,-9.732788e+000
1.337299e+003,-8.110977e+000
1.338263e+003,-7.825745e+000
1.339228e+003,-9.075211e+000
1.340192e+003,-9.771530e+000
1.341156e+003,-9.888184e+000
1.342120e+003,-9.552429e+000
1.343084e+003,-8.196396e+000
1.344049e+003,-7.032013e+000
1.345013e+003,-7.374222e+000
1.345977e+003,-8.672745e+000
1.346941e+003,-9.159851e+000
1.347906e+003,-8.178284e+000
1.348870e+003,-6.776093e+000
1.349834e+003,-5.714340e+000
1.350798e+003,-5.091354e+000
1.351763e+003,-4.957703e+000
1.352727e+003,-5.253342e+000
1.353691e+003,-5.769699e+000
1.354655e+003,-6.479431e+000
1.355620e+003,-7.189346e+000
1.356584e+003,-7.452148e+000
1.357548e+003,-7.374771e+000
1.358512e+003,-8.367203e+000
1.359476e+003,-1.145557e+001
1.360441e+003,-1.326526e+001
1.361405e+003,-1.192554e+001
1.362369e+003,-1.018211e+001
1.363333e+003,-9.099319e+000
1.364298e+003,-8.577072e+000
1.365262e+003,-8.344467e+000
1.366226e+003,-8.288437e+000
1.367190e+003,-8.469391e+000
1.368155e+003,-8.958908e+000
1.369119e+003,-9.475693e+000
1.370083e+003,-9.029999e+000
1.371047e+003,-7.093704e+000
1.372011e+003,-6.409210e+000
1.372976e+003,-8.423798e+000
1.373940e+003,-9.870209e+000
1.374904e+003,-8.729767e+000
1.375868e+003,-6.840286e+000
1.376833e+003,-6.828156e+000
1.377797e+003,-8.651703e+000
1.378761e+003,-1.001578e+001
1.379725e+003,-9.928711e+000
1.380690e+003,-9.133194e+000
1.381654e+003,-7.877121e+000
1.382618e+003,-6.611267e+000
1.383582e+003,-6.161667e+000
1.384547e+003,-6.443222e+000
1.385511e+003,-6.464890e+000
1.386475e+003,-5.653366e+000
1.387439e+003,-4.738907e+000
1.388403e+003,-4.872894e+000
1.389368e+003,-6.059570e+000
1.390332e+003,-7.376633e+000
1.391296e+003,-9.403854e+000
1.392260e+003,-1.019106e+001
1.393225e+003,-8.055450e+000
1.394189e+003,-6.074493e+000
1.395153e+003,-6.366959e+000
1.396117e+003,-7.811020e+000
1.397082e+003,-8.350647e+000
1.398046e+003,-7.549225e+000
1.399010e+003,-6.848358e+000
1.399974e+003,-7.635391e+000
1.400938e+003,-9.315475e+000
1.401903e+003,-9.764267e+000
1.402867e+003,-8.448807e+000
1.403831e+003,-7.286148e+000
1.404795e+003,-6.531921e+000
1.405760e+003,-5.741592e+000
1.406724e+003,-4.208176e+000
1.407688e+003,-3.172867e+000
1.408652e+003,-4.604263e+000
1.409617e+003,-7.941803e+000
1.410581e+003,-1.009291e+001
1.411545e+003,-9.769028e+000
1.412509e+003,-8.385651e+000
1.413474e+003,-6.799072e+000
1.414438e+003,-5.444046e+000
1.415402e+003,-4.909027e+000
1.416366e+003,-5.089493e+000
1.417330e+003,-5.801224e+000
1.418295e+003,-7.227707e+000
1.419259e+003,-8.198318e+000
1.420223e+003,-6.687424e+000
1.421187e+003,-3.364838e+000
1.422152e+003,-2.537354e+000
1.423116e+003,-5.256989e+000
1.424080e+003,-7.020752e+000
1.425044e+003,-5.882950e+000
1.426009e+003,-4.440125e+000
1.426973e+003,-3.371094e+000
1.427937e+003,-2.820282e+000
1.428901e+003,-3.088730e+000
1.429865e+003,-3.949524e+000
1.430830e+003,-4.761703e+000
1.431794e+003,-5.119446e+000
1.432758e+003,-4.946930e+000
1.433722e+003,-3.926529e+000
1.434687e+003,-1.821686e+000
1.435651e+003,-5.803833e-001
1.436615e+003,-1.070999e+000
1.437579e+003,-1.595078e+000
1.438544e+003,-2.133728e+000
1.439508e+003,-2.476440e+000
1.440472e+003,-2.177109e+000
1.441436e+003,-1.603790e+000
1.442401e+003,-1.516144e+000
1.443365e+003,-2.102676e+000
1.444329e+003,-2.988571e+000
1.445293e+003,-3.965881e+000
1.446257e+003,-4.806198e+000
1.447222e+003,-5.082184e+000
1.448186e+003,-4.862137e+000
1.449150e+003,-4.331314e+000
1.450114e+003,-3.387573e+000
1.451079e+003,-2.703568e+000
1.452043e+003,-2.661880e+000
1.453007e+003,-2.951263e+000
1.453971e+003,-3.272186e+000
1.454936e+003,-3.628693e+000
1.455900e+003,-3.940796e+000
1.456864e+003,-4.222977e+000
1.457828e+003,-4.217468e+000
1.458792e+003,-3.624069e+000
1.459757e+003,-2.893051e+000
1.460721e+003,-2.206284e+000
1.461685e+003,-1.713394e+000
1.462649e+003,-1.770584e+000
1.463614e+003,-2.380096e+000
1.464578e+003,-2.950424e+000
1.465542e+003,-3.027100e+000
1.466506e+003,-2.648819e+000
1.467471e+003,-1.677780e+000
1.468435e+003,2.402954e-001
1.469399e+003,1.399567e+000
1.470363e+003,1.485001e+000
1.471328e+003,8.761292e-001
1.472292e+003,-1.004578e+000
1.473256e+003,-3.023941e+000
1.474220e+003,-4.440231e+000
1.475184e+003,-5.195450e+000
1.476149e+003,-5.379684e+000
1.477113e+003,-5.152390e+000
1.478077e+003,-4.899292e+000
1.479041e+003,-4.957413e+000
1.480006e+003,-5.033478e+000
1.480970e+003,-4.237869e+000
1.481934e+003,-2.243469e+000
1.482898e+003,-1.104874e+000
1.483863e+003,-1.290695e+000
1.484827e+003,-1.604767e+000
1.485791e+003,-1.685883e+000
1.486755e+003,-1.697037e+000
1.487719e+003,-1.933746e+000
1.488684e+003,-2.294098e+000
1.489648e+003,-2.299072e+000
1.490612e+003,-1.786285e+000
1.491576e+003,-1.425110e+000
1.492541e+003,-1.967773e+000
1.493505e+003,-2.756317e+000
1.494469e+003,-2.234558e+000
1.495433e+003,-6.612244e-001
1.496398e+003,1.089249e+000
1.497362e+003,3.253983e+000
1.498326e+003,4.882263e+000
1.499290e+003,5.107437e+000
1.500255e+003,4.755264e+000
1.501219e+003,4.756668e+000
1.502183e+003,5.135910e+000
1.503147e+003,5.918137e+000
1.504111e+003,7.106995e+000
1.505076e+003,8.802307e+000
1.506040e+003,1.219067e+001
1.507004e+003,1.486761e+001
1.507968e+003,1.306468e+001
1.508933e+003,9.277847e+000
1.509897e+003,9.140396e+000
1.510861e+003,1.360754e+001
1.511825e+003,1.836795e+001
1.512790e+003,2.020206e+001
1.513754e+003,2.066318e+001
1.514718e+003,2.283560e+001
1.515682e+003,2.665897e+001
1.516646e+003,3.048068e+001
1.517611e+003,3.439362e+001
1.518575e+003,3.798857e+001
1.519539e+003,4.190343e+001
1.520503e+003,4.478647e+001
1.521468e+003,4.579320e+001
1.522432e+003,4.530237e+001
1.523396e+003,4.323566e+001
1.524360e+003,4.019087e+001
1.525325e+003,3.810458e+001
1.526289e+003,3.828696e+001
1.527253e+003,3.922461e+001
1.528217e+003,3.811971e+001
1.529182e+003,3.499017e+001
1.530146e+003,3.212585e+001
1.531110e+003,3.010535e+001
1.532074e+003,2.712747e+001
1.533039e+003,2.132002e+001
1.534003e+003,1.642836e+001
1.534967e+003,1.523390e+001
1.535931e+003,1.527821e+001
1.536896e+003,1.343120e+001
1.537860e+003,9.864212e+000
1.538824e+003,6.828400e+000
1.539788e+003,5.458862e+000
1.540752e+003,5.035614e+000
1.541717e+003,4.751266e+000
1.542681e+003,4.529831e+000
1.543645e+003,3.670822e+000
1.544609e+003,1.767181e+000
1.545573e+003,4.709625e-001
1.546538e+003,-5.960236e-001
1.547502e+003,-7.849426e-001
1.548466e+003,7.406921e-001
1.549430e+003,2.936676e+000
1.550395e+003,5.249588e+000
1.551359e+003,7.127777e+000
1.552323e+003,7.340057e+000
1.553287e+003,5.574860e+000
1.554252e+003,3.335312e+000
1.555216e+003,1.753998e+000
1.556180e+003,1.069870e+000
1.557144e+003,2.373535e+000
1.558109e+003,5.757263e+000
1.559073e+003,6.895233e+000
1.560037e+003,4.570114e+000
1.561001e+003,2.160034e+000
1.561966e+003,5.606995e-001
1.562930e+003,-2.863770e-001
1.563894e+003,-3.963623e-001
1.564858e+003,9.408569e-002
1.565823e+003,1.269516e+000
1.566787e+003,3.026764e+000
1.567751e+003,3.773041e+000
1.568715e+003,2.268387e+000
1.569679e+003,5.403442e-001
1.570644e+003,1.574051e+000
1.571608e+003,4.185684e+000
1.572572e+003,4.844482e+000
1.573536e+003,3.449371e+000
1.574500e+003,2.548737e+000
1.575465e+003,3.211960e+000
1.576429e+003,4.166931e+000
1.577393e+003,4.278152e+000
1.578357e+003,3.970627e+000
1.579322e+003,4.270279e+000
1.580286e+003,5.190201e+000
1.581250e+003,5.630112e+000
1.582214e+003,5.132446e+000
1.583179e+003,4.528778e+000
1.584143e+003,4.153702e+000
1.585107e+003,4.199326e+000
1.586071e+003,5.374619e+000
1.587036e+003,7.255066e+000
1.588000e+003,8.208893e+000
1.588964e+003,7.806305e+000
1.589928e+003,6.996063e+000
1.590893e+003,6.084183e+000
1.591857e+003,5.449265e+000
1.592821e+003,5.947495e+000
1.593785e+003,7.336334e+000
1.594750e+003,8.046921e+000
1.595714e+003,7.747543e+000
1.596678e+003,7.504135e+000
1.597642e+003,7.912277e+000
1.598606e+003,8.264084e+000
1.599571e+003,7.567993e+000
1.600535e+003,6.772888e+000
1.601499e+003,7.180313e+000
1.602463e+003,8.714172e+000
1.603427e+003,1.065691e+001
1.604392e+003,1.285399e+001
1.605356e+003,1.438968e+001
1.606320e+003,1.396309e+001
1.607284e+003,1.229602e+001
1.608249e+003,1.147780e+001
1.609213e+003,1.154402e+001
1.610177e+003,1.143620e+001
1.611141e+003,1.080318e+001
1.612106e+003,1.043613e+001
1.613070e+003,1.088861e+001
1.614034e+003,1.158932e+001
1.614998e+003,1.225676e+001
1.615963e+003,1.284267e+001
1.616927e+003,1.327196e+001
1.617891e+003,1.352802e+001
1.618855e+003,1.366818e+001
1.619820e+003,1.370386e+001
1.620784e+003,1.353258e+001
1.621748e+003,1.314558e+001
1.622712e+003,1.263229e+001
1.623677e+003,1.164709e+001
1.624641e+003,9.855911e+000
1.625605e+003,9.732788e+000
1.626569e+003,1.287944e+001
1.627533e+003,1.561261e+001
1.628498e+003,1.628162e+001
1.629462e+003,1.587613e+001
1.630426e+003,1.438103e+001
1.631390e+003,1.266339e+001
1.632354e+003,1.275845e+001
1.633319e+003,1.490526e+001
1.634283e+003,1.655583e+001
1.635247e+003,1.566295e+001
1.636211e+003,1.366574e+001
1.637176e+003,1.330576e+001
1.638140e+003,1.447993e+001
1.639104e+003,1.504469e+001
1.640068e+003,1.474928e+001
1.641033e+003,1.443970e+001
1.641997e+003,1.415109e+001
1.642961e+003,1.421356e+001
1.643925e+003,1.564375e+001
1.644890e+003,1.678673e+001
1.645854e+003,1.502289e+001
1.646818e+003,1.169156e+001
1.647782e+003,1.082423e+001
1.648747e+003,1.348561e+001
1.649711e+003,1.626164e+001
1.650675e+003,1.627649e+001
1.651639e+003,1.488698e+001
1.652604e+003,1.490984e+001
1.653568e+003,1.623434e+001
1.654532e+003,1.676901e+001
1.655496e+003,1.619073e+001
1.656460e+003,1.562074e+001
1.657425e+003,1.560728e+001
1.658389e+003,1.540327e+001
1.659353e+003,1.411513e+001
1.660317e+003,1.279451e+001
1.661281e+003,1.292618e+001
1.662246e+003,1.398975e+001
1.663210e+003,1.423215e+001
1.664174e+003,1.311264e+001
1.665138e+003,1.150258e+001
1.666103e+003,9.770340e+000
1.667067e+003,8.516403e+000
1.668031e+003,9.639267e+000
1.668995e+003,1.287465e+001
1.669960e+003,1.379337e+001
1.670924e+003,1.138472e+001
1.671888e+003,9.751907e+000
1.672852e+003,1.072512e+001
1.673817e+003,1.186198e+001
1.674781e+003,1.132935e+001
1.675745e+003,1.033724e+001
1.676709e+003,1.046883e+001
1.677674e+003,1.132298e+001
1.678638e+003,1.116849e+001
1.679602e+003,9.486893e+000
1.680566e+003,7.938271e+000
1.681531e+003,8.035820e+000
1.682495e+003,8.800957e+000
1.683459e+003,8.256859e+000
1.684423e+003,6.675232e+000
1.685387e+003,6.182236e+000
1.686352e+003,7.135498e+000
1.687316e+003,7.970650e+000
1.688280e+003,8.282845e+000
1.689244e+003,8.185219e+000
1.690208e+003,7.333031e+000
1.691173e+003,6.366058e+000
1.692137e+003,5.948242e+000
1.693101e+003,6.104111e+000
1.694065e+003,6.863449e+000
1.695030e+003,8.220833e+000
1.695994e+003,8.982079e+000
1.696958e+003,8.076515e+000
1.697922e+003,6.681038e+000
1.698887e+003,6.342255e+000
1.699851e+003,6.718781e+000
1.700815e+003,6.684708e+000
1.701779e+003,6.121063e+000
1.702744e+003,5.667976e+000
1.703708e+003,5.712959e+000
1.704672e+003,5.405876e+000
1.705636e+003,3.529816e+000
1.706601e+003,1.409454e+000
1.707565e+003,1.466682e+000
1.708529e+003,3.034546e+000
1.709493e+003,3.887138e+000
1.710458e+003,3.714729e+000
1.711422e+003,3.277031e+000
1.712386e+003,2.774437e+000
1.713350e+003,2.346970e+000
1.714314e+003,2.168732e+000
1.715279e+003,1.984711e+000
1.716243e+003,1.197029e+000
1.717207e+003,9.033203e-003
1.718171e+003,-4.364243e-001
1.719135e+003,1.873627e-001
1.720100e+003,9.475250e-001
1.721064e+003,1.226501e+000
1.722028e+003,1.247246e+000
1.722992e+003,1.404556e+000
1.723957e+003,1.691597e+000
1.724921e+003,1.621841e+000
1.725885e+003,9.681091e-001
1.726849e+003,7.186890e-001
1.727814e+003,1.359055e+000
1.728778e+003,2.203049e+000
1.729742e+003,3.320923e+000
1.730706e+003,4.142029e+000
1.731671e+003,3.586678e+000
1.732635e+003,2.375504e+000
1.733599e+003,2.597374e+000
1.734563e+003,4.277641e+000
1.735528e+003,4.750732e+000
1.736492e+003,2.590607e+000
1.737456e+003,-1.256561e-002
1.738420e+003,-4.485092e-001
1.739385e+003,6.688385e-001
1.740349e+003,1.279549e+000
1.741313e+003,1.342773e+000
1.742277e+003,1.329376e+000
1.743241e+003,1.328255e+000
1.744206e+003,1.221855e+000
1.745170e+003,1.066589e+000
1.746134e+003,6.529846e-001
1.747098e+003,-6.113586e-001
1.748063e+003,-1.852844e+000
1.749027e+003,-1.903572e+000
1.749991e+003,-1.028336e+000
1.750955e+003,-1.935501e-001
1.751919e+003,1.952667e-001
1.752884e+003,2.166824e-001
1.753848e+003,-7.034302e-002
1.754812e+003,-5.615921e-001
1.755776e+003,-1.083168e+000
1.756741e+003,-1.559624e+000
1.757705e+003,-1.047966e+000
1.758669e+003,1.048805e+000
1.759633e+003,2.219818e+000
1.760598e+003,1.524750e+000
1.761562e+003,7.612686e-001
1.762526e+003,7.143860e-001
1.763490e+003,6.504059e-001
1.764455e+003,-1.939087e-001
1.765419e+003,-1.273087e+000
1.766383e+003,-1.818863e+000
1.767347e+003,-1.727867e+000
1.768312e+003,-1.069862e+000
1.769276e+003,1.246948e-001
1.770240e+003,1.123505e+000
1.771204e+003,1.177803e+000
1.772168e+003,6.712570e-001
1.773133e+003,2.632141e-001
1.774097e+003,-3.734589e-002
1.775061e+003,-1.997375e-002
1.776025e+003,3.550186e-001
1.776990e+003,3.956070e-001
1.777954e+003,-2.526474e-001
1.778918e+003,-8.065643e-001
1.779882e+003,-7.406616e-001
1.780846e+003,-3.386459e-001
1.781811e+003,3.706436e-001
1.782775e+003,1.138168e+000
1.783739e+003,8.361359e-001
1.784703e+003,-8.256607e-001
1.785668e+003,-1.731613e+000
1.786632e+003,-4.732666e-001
1.787596e+003,9.337082e-001
1.788560e+003,1.124283e+000
1.789525e+003,6.567535e-001
1.790489e+003,2.663422e-002
1.791453e+003,-6.396408e-001
1.792417e+003,-1.163414e+000
1.793382e+003,-1.462387e+000
1.794346e+003,-1.201660e+000
1.795310e+003,-1.608582e-001
1.796274e+003,8.872833e-001
1.797239e+003,1.103935e+000
1.798203e+003,7.101669e-001
1.799167e+003,4.144287e-002
1.800131e+003,-1.279358e+000
1.801095e+003,-1.145218e+000
1.802060e+003,2.383385e+000
1.803024e+003,4.353836e+000
1.803988e+003,3.174591e+000
1.804952e+003,1.642395e+000
1.805917e+003,7.909698e-001
1.806881e+003,4.609451e-001
1.807845e+003,7.244110e-001
1.808809e+003,1.218460e+000
1.809773e+003,1.141586e+000
1.810738e+003,4.902649e-001
1.811702e+003,3.013535e-001
1.812666e+003,1.201096e+000
1.813630e+003,2.415703e+000
1.814595e+003,2.934486e+000
1.815559e+003,2.843948e+000
1.816523e+003,2.461906e+000
1.817487e+003,1.750023e+000
1.818452e+003,1.447495e+000
1.819416e+003,1.951508e+000
1.820380e+003,1.916412e+000
1.821344e+003,1.741486e-001
1.822309e+003,-1.161827e+000
1.823273e+003,-3.074570e-001
1.824237e+003,1.189293e+000
1.825201e+003,1.823639e+000
1.826166e+003,1.716812e+000
1.827130e+003,1.351463e+000
1.828094e+003,8.131409e-001
1.829058e+003,4.423447e-001
1.830022e+003,5.111923e-001
1.830987e+003,6.620026e-001
1.831951e+003,5.129166e-001
1.832915e+003,3.302307e-001
1.833879e+003,5.803223e-001
1.834844e+003,1.117371e+000
1.835808e+003,1.500694e+000
1.836772e+003,1.652679e+000
1.837736e+003,1.522682e+000
1.838700e+003,1.042503e+000
1.839665e+003,7.187576e-001
1.840629e+003,1.102692e+000
1.841593e+003,1.820190e+000
1.842557e+003,2.073372e+000
1.843522e+003,1.859978e+000
1.844486e+003,1.202438e+000
1.845450e+003,-6.029282e-001
1.846414e+003,-1.312920e+000
1.847379e+003,-1.872482e-001
1.848343e+003,8.185272e-001
1.849307e+003,1.279770e+000
1.850271e+003,1.348267e+000
1.851236e+003,1.087845e+000
1.852200e+003,6.189117e-001
1.853164e+003,-2.465973e-001
1.854128e+003,-1.272194e+000
1.855093e+003,-1.633110e+000
1.856057e+003,-1.029243e+000
1.857021e+003,-1.274872e-001
1.857985e+003,5.287628e-001
1.858949e+003,9.159164e-001
1.859914e+003,8.501663e-001
1.860878e+003,4.906464e-001
1.861842e+003,7.390594e-001
1.862806e+003,1.596916e+000
1.863771e+003,2.314232e+000
1.864735e+003,2.831947e+000
1.865699e+003,2.737068e+000
1.866663e+003,1.562218e+000
1.867627e+003,3.701782e-001
1.868592e+003,-1.118469e-002
1.869556e+003,1.719971e-001
1.870520e+003,6.736069e-001
1.871484e+003,1.418060e+000
1.872449e+003,1.979408e+000
1.873413e+003,2.534027e+000
1.874377e+003,2.744820e+000
1.875341e+003,1.781471e+000
1.876306e+003,1.109093e+000
1.877270e+003,1.885620e+000
1.878234e+003,2.945435e+000
1.879198e+003,3.080940e+000
1.880163e+003,2.658844e+000
1.881127e+003,2.496284e+000
1.882091e+003,2.688133e+000
1.883055e+003,2.873528e+000
1.884020e+003,2.889908e+000
1.884984e+003,2.852707e+000
1.885948e+003,2.872025e+000
1.886912e+003,2.892281e+000
1.887876e+003,2.799606e+000
1.888841e+003,2.612190e+000
1.889805e+003,2.391502e+000
1.890769e+003,1.995872e+000
1.891733e+003,2.469589e+000
1.892698e+003,4.549416e+000
1.893662e+003,5.806839e+000
1.894626e+003,4.959236e+000
1.895590e+003,3.694984e+000
1.896554e+003,3.012955e+000
1.897519e+003,2.732864e+000
1.898483e+003,2.581673e+000
1.899447e+003,2.561852e+000
1.900411e+003,3.065971e+000
1.901376e+003,4.244156e+000
1.902340e+003,4.744843e+000
1.903304e+003,3.648170e+000
1.904268e+003,2.383553e+000
1.905233e+003,1.655617e+000
1.906197e+003,1.376503e+000
1.907161e+003,1.457161e+000
1.908125e+003,1.940521e+000
1.909090e+003,3.143196e+000
1.910054e+003,4.763550e+000
1.911018e+003,5.912201e+000
1.911982e+003,6.295509e+000
1.912947e+003,6.052414e+000
1.913911e+003,5.268013e+000
1.914875e+003,4.299820e+000
1.915839e+003,3.654152e+000
1.916803e+003,3.313286e+000
1.917768e+003,3.579910e+000
1.918732e+003,4.736687e+000
1.919696e+003,4.801338e+000
1.920660e+003,3.207893e+000
1.921625e+003,2.152901e+000
1.922589e+003,2.079201e+000
1.923553e+003,2.581856e+000
1.924517e+003,4.014816e+000
1.925481e+003,5.452187e+000
1.926446e+003,6.266151e+000
1.927410e+003,6.434097e+000
1.928374e+003,5.505058e+000
1.929338e+003,3.618843e+000
1.930303e+003,2.955345e+000
1.931267e+003,4.603355e+000
1.932231e+003,6.019989e+000
1.933195e+003,5.690414e+000
1.934160e+003,5.061440e+000
1.935124e+003,5.213432e+000
1.936088e+003,5.606659e+000
1.937052e+003,5.632668e+000
1.938017e+003,5.392456e+000
1.938981e+003,5.057137e+000
1.939945e+003,4.768188e+000
1.940909e+003,4.977135e+000
1.941874e+003,5.795280e+000
1.942838e+003,6.372803e+000
1.943802e+003,5.943802e+000
1.944766e+003,5.073349e+000
1.945730e+003,4.808327e+000
1.946695e+003,5.014481e+000
1.947659e+003,4.761810e+000
1.948623e+003,3.919907e+000
1.949587e+003,4.090164e+000
1.950552e+003,5.820526e+000
1.951516e+003,7.123726e+000
1.952480e+003,7.261482e+000
1.953444e+003,6.986809e+000
1.954408e+003,6.663918e+000
1.955373e+003,6.300522e+000
1.956337e+003,6.043030e+000
1.957301e+003,5.865295e+000
1.958265e+003,5.293839e+000
1.959230e+003,4.190010e+000
1.960194e+003,3.905418e+000
1.961158e+003,5.240334e+000
1.962122e+003,6.276375e+000
1.963087e+003,6.263603e+000
1.964051e+003,6.172707e+000
1.965015e+003,6.894051e+000
1.965979e+003,7.618790e+000
1.966944e+003,7.304062e+000
1.967908e+003,6.329178e+000
1.968872e+003,5.474998e+000
1.969836e+003,4.949226e+000
1.970801e+003,4.620575e+000
1.971765e+003,4.446815e+000
1.972729e+003,4.660484e+000
1.973693e+003,5.529030e+000
1.974657e+003,6.654808e+000
1.975622e+003,7.576508e+000
1.976586e+003,8.202446e+000
1.977550e+003,8.247078e+000
1.978514e+003,7.827538e+000
1.979479e+003,7.434219e+000
1.980443e+003,7.145721e+000
1.981407e+003,7.168007e+000
1.982371e+003,7.622841e+000
1.983335e+003,7.968719e+000
1.984300e+003,7.748703e+000
1.985264e+003,7.238266e+000
1.986228e+003,6.885498e+000
1.987192e+003,6.657166e+000
1.988157e+003,6.338272e+000
1.989121e+003,5.731171e+000
1.990085e+003,6.271225e+000
1.991049e+003,9.243126e+000
1.992014e+003,1.082584e+001
1.992978e+003,9.560165e+000
1.993942e+003,8.147034e+000
1.994906e+003,7.488510e+000
1.995871e+003,7.032822e+000
1.996835e+003,6.194855e+000
1.997799e+003,5.449722e+000
1.998763e+003,5.703285e+000
1.999728e+003,6.685249e+000
