5.003444e+002,4.567332e+001
5.013087e+002,4.527362e+001
5.022729e+002,4.502919e+001
5.032371e+002,4.489134e+001
5.042014e+002,4.419516e+001
5.051656e+002,4.306606e+001
5.061298e+002,4.201892e+001
5.070941e+002,4.153833e+001
5.080583e+002,4.177843e+001
5.090225e+002,4.127202e+001
5.099868e+002,3.918690e+001
5.109510e+002,3.743727e+001
5.119152e+002,3.739177e+001
5.128795e+002,3.925111e+001
5.138437e+002,4.031824e+001
5.148079e+002,3.896657e+001
5.157722e+002,3.735237e+001
5.167364e+002,3.633507e+001
5.177006e+002,3.595840e+001
5.186649e+002,3.556143e+001
5.196291e+002,3.440062e+001
5.205933e+002,3.294466e+001
5.215576e+002,3.124165e+001
5.225218e+002,2.937541e+001
5.234860e+002,2.785300e+001
5.244503e+002,2.773106e+001
5.254145e+002,2.971530e+001
5.263787e+002,3.117485e+001
5.273430e+002,3.219293e+001
5.283072e+002,3.265314e+001
5.292714e+002,3.215057e+001
5.302357e+002,2.967638e+001
5.311999e+002,2.810867e+001
5.321641e+002,2.824670e+001
5.331284e+002,2.911778e+001
5.340926e+002,3.021274e+001
5.350568e+002,3.135614e+001
5.360211e+002,3.170724e+001
5.369853e+002,2.997942e+001
5.379495e+002,2.772200e+001
5.389138e+002,2.614006e+001
5.398780e+002,2.567671e+001
5.408422e+002,2.588576e+001
5.418065e+002,2.555443e+001
5.427707e+002,2.479153e+001
5.437349e+002,2.452660e+001
5.446992e+002,2.519418e+001
5.456634e+002,2.637070e+001
5.466276e+002,2.658148e+001
5.475919e+002,2.436076e+001
5.485561e+002,2.305437e+001
5.495203e+002,2.338251e+001
5.504846e+002,2.440317e+001
5.514488e+002,2.475275e+001
5.524130e+002,2.373676e+001
5.533773e+002,2.269716e+001
5.543415e+002,2.273354e+001
5.553057e+002,2.294727e+001
5.562700e+002,2.217570e+001
5.572342e+002,1.970802e+001
5.581984e+002,1.658760e+001
5.591627e+002,1.537309e+001
5.601269e+002,1.555382e+001
5.610911e+002,1.628551e+001
5.620554e+002,1.714729e+001
5.630196e+002,1.806424e+001
5.639838e+002,1.872354e+001
5.649481e+002,1.933496e+001
5.659123e+002,1.941678e+001
5.668765e+002,1.846638e+001
5.678408e+002,1.703809e+001
5.688050e+002,1.665572e+001
5.697692e+002,1.883054e+001
5.707335e+002,2.012843e+001
5.716977e+002,1.886768e+001
5.726619e+002,1.646509e+001
5.736262e+002,1.485019e+001
5.745904e+002,1.540556e+001
5.755546e+002,1.701660e+001
5.765189e+002,1.813574e+001
5.774831e+002,1.865645e+001
5.784473e+002,1.832359e+001
5.794116e+002,1.701453e+001
5.803758e+002,1.491951e+001
5.813400e+002,1.365500e+001
5.823043e+002,1.322572e+001
5.832685e+002,1.286017e+001
5.842327e+002,1.240923e+001
5.851970e+002,1.195859e+001
5.861612e+002,1.162982e+001
5.871254e+002,1.112234e+001
5.880897e+002,1.099138e+001
5.890539e+002,1.173093e+001
5.900181e+002,1.278839e+001
5.909824e+002,1.328636e+001
5.919466e+002,1.260843e+001
5.929108e+002,1.140660e+001
5.938751e+002,1.029984e+001
5.948393e+002,9.314590e+000
5.958035e+002,8.366974e+000
5.967678e+002,7.422607e+000
5.977320e+002,6.690598e+000
5.986962e+002,8.160477e+000
5.996605e+002,1.184541e+001
6.006247e+002,1.459337e+001
6.015889e+002,1.448120e+001
6.025532e+002,1.176178e+001
6.035174e+002,1.009145e+001
6.044816e+002,1.115901e+001
6.054459e+002,1.152280e+001
6.064101e+002,9.874283e+000
6.073743e+002,7.309036e+000
6.083386e+002,6.040543e+000
6.093028e+002,7.945923e+000
6.102670e+002,9.940689e+000
6.112313e+002,9.189316e+000
6.121955e+002,7.143570e+000
6.131597e+002,5.739105e+000
6.141240e+002,6.288757e+000
6.150882e+002,8.218277e+000
6.160524e+002,9.299927e+000
6.170167e+002,9.729721e+000
6.179809e+002,9.683395e+000
6.189451e+002,8.926636e+000
6.199094e+002,7.604874e+000
6.208736e+002,7.213242e+000
6.218378e+002,9.446793e+000
6.228021e+002,1.088721e+001
6.237663e+002,1.078809e+001
6.247305e+002,9.866821e+000
6.256948e+002,9.242432e+000
6.266590e+002,9.283264e+000
6.276232e+002,9.574310e+000
6.285875e+002,1.029961e+001
6.295517e+002,1.098793e+001
6.305159e+002,1.090274e+001
6.314802e+002,9.679413e+000
6.324444e+002,7.953812e+000
6.334086e+002,7.892944e+000
6.343729e+002,9.017761e+000
6.353371e+002,9.979568e+000
6.363013e+002,1.031917e+001
6.372656e+002,1.006668e+001
6.382298e+002,9.396378e+000
6.391940e+002,7.743637e+000
6.401583e+002,6.316971e+000
6.411225e+002,4.922226e+000
6.420867e+002,4.045761e+000
6.430510e+002,4.449249e+000
6.440152e+002,6.741760e+000
6.449794e+002,8.583649e+000
6.459437e+002,8.641922e+000
6.469079e+002,7.973373e+000
6.478721e+002,7.353577e+000
6.488364e+002,7.092575e+000
6.498006e+002,6.922607e+000
6.507648e+002,6.255814e+000
6.517291e+002,5.223236e+000
6.526933e+002,4.102493e+000
6.536575e+002,2.907654e+000
6.546218e+002,1.918274e+000
6.555860e+002,1.707581e+000
6.565502e+002,2.840988e+000
6.575145e+002,3.559265e+000
6.584787e+002,3.777466e+000
6.594429e+002,3.730865e+000
6.604072e+002,3.390411e+000
6.613714e+002,2.666870e+000
6.623356e+002,2.561584e+000
6.632999e+002,4.261627e+000
6.642641e+002,5.957291e+000
6.652283e+002,6.726898e+000
6.661926e+002,6.589020e+000
6.671568e+002,6.218292e+000
6.681210e+002,6.363815e+000
6.690853e+002,6.747986e+000
6.700495e+002,6.840530e+000
6.710137e+002,6.622070e+000
6.719780e+002,6.036392e+000
6.729422e+002,4.941193e+000
6.739064e+002,3.127960e+000
6.748707e+002,1.921982e+000
6.758349e+002,1.380386e+000
6.767991e+002,1.131516e+000
6.777634e+002,1.219650e+000
6.787276e+002,1.646484e+000
6.796918e+002,2.084045e+000
6.806561e+002,2.292587e+000
6.816203e+002,2.440750e+000
6.825845e+002,2.412582e+000
6.835488e+002,2.412476e+000
6.845130e+002,2.872162e+000
6.854772e+002,4.209045e+000
6.864415e+002,5.830261e+000
6.874057e+002,6.476349e+000
6.883699e+002,6.185471e+000
6.893342e+002,4.805313e+000
6.902984e+002,2.116333e+000
6.912626e+002,-1.411835e+000
6.922269e+002,-2.738449e+000
6.931911e+002,6.158295e-001
6.941553e+002,3.085678e+000
6.951196e+002,3.429459e+000
6.960838e+002,2.783218e+000
6.970480e+002,3.303726e+000
6.980123e+002,6.424835e+000
6.989765e+002,8.173950e+000
6.999407e+002,5.850357e+000
7.009050e+002,2.567551e+000
7.018692e+002,8.586121e-001
7.028334e+002,1.510300e+000
7.037977e+002,3.082214e+000
7.047619e+002,3.522842e+000
7.057261e+002,3.237595e+000
7.066904e+002,2.683746e+000
7.076546e+002,1.929108e+000
7.086188e+002,1.481796e+000
7.095831e+002,2.254562e+000
7.105473e+002,4.988602e+000
7.115115e+002,6.342850e+000
7.124758e+002,5.745575e+000
7.134400e+002,4.608398e+000
7.144042e+002,3.799103e+000
7.153685e+002,3.386978e+000
7.163327e+002,2.732361e+000
7.172969e+002,9.310150e-001
7.182612e+002,-5.699310e-001
7.192254e+002,-1.302429e+000
7.201896e+002,-1.279816e+000
7.211539e+002,-5.066681e-001
7.221181e+002,1.156021e+000
7.230823e+002,3.104172e+000
7.240466e+002,3.681747e+000
7.250108e+002,3.245255e+000
7.259750e+002,2.746765e+000
7.269393e+002,2.656631e+000
7.279035e+002,2.821686e+000
7.288677e+002,2.745178e+000
7.298320e+002,2.029846e+000
7.307962e+002,1.979797e+000
7.317604e+002,3.232559e+000
7.327247e+002,5.007111e+000
7.336889e+002,6.189270e+000
7.346531e+002,6.337173e+000
7.356174e+002,5.788406e+000
7.365816e+002,4.700043e+000
7.375458e+002,3.497513e+000
7.385101e+002,2.203491e+000
7.394743e+002,1.001450e+000
7.404385e+002,4.452515e-001
7.414028e+002,1.728088e+000
7.423670e+002,4.106247e+000
7.433312e+002,4.748764e+000
7.442955e+002,3.452896e+000
7.452597e+002,1.976440e+000
7.462239e+002,2.559128e+000
7.471882e+002,6.162079e+000
7.481524e+002,7.314011e+000
7.491166e+002,3.778763e+000
7.500809e+002,5.453491e-001
7.510451e+002,-4.985199e-001
7.520093e+002,3.635864e-001
7.529736e+002,1.663361e+000
7.539378e+002,3.212357e+000
7.549020e+002,4.531357e+000
7.558663e+002,5.225616e+000
7.568306e+002,5.559937e+000
7.577948e+002,5.932953e+000
7.587590e+002,6.530075e+000
7.597233e+002,7.033890e+000
7.606875e+002,6.495682e+000
7.616517e+002,5.124374e+000
7.626160e+002,3.908051e+000
7.635802e+002,3.106674e+000
7.645444e+002,2.621841e+000
7.655087e+002,2.196060e+000
7.664729e+002,1.586243e+000
7.674371e+002,1.593933e+000
7.684014e+002,2.676117e+000
7.693656e+002,3.866104e+000
7.703298e+002,4.540787e+000
7.712941e+002,4.656845e+000
7.722583e+002,4.710388e+000
7.732225e+002,4.969559e+000
7.741868e+002,5.397293e+000
7.751510e+002,6.372391e+000
7.761152e+002,7.504486e+000
7.770795e+002,7.784805e+000
7.780437e+002,6.287918e+000
7.790079e+002,3.348312e+000
7.799722e+002,2.156677e+000
7.809364e+002,2.633667e+000
7.819006e+002,3.657684e+000
7.828649e+002,5.237411e+000
7.838291e+002,7.159439e+000
7.847933e+002,8.595947e+000
7.857576e+002,9.509903e+000
7.867218e+002,9.501450e+000
7.876860e+002,8.090866e+000
7.886503e+002,6.367416e+000
7.896145e+002,5.146378e+000
7.905787e+002,4.661026e+000
7.915430e+002,4.577911e+000
7.925072e+002,4.528931e+000
7.934714e+002,4.582733e+000
7.944357e+002,5.105270e+000
7.953999e+002,6.060547e+000
7.963641e+002,7.014832e+000
7.973284e+002,7.454681e+000
7.982926e+002,7.366409e+000
7.992568e+002,6.840775e+000
8.002211e+002,5.241760e+000
8.011853e+002,3.958344e+000
8.021495e+002,3.880814e+000
8.031138e+002,4.805847e+000
8.040780e+002,5.551849e+000
8.050422e+002,5.550140e+000
8.060065e+002,5.685410e+000
8.069707e+002,6.075119e+000
8.079349e+002,6.701111e+000
8.088992e+002,7.792206e+000
8.098634e+002,9.368942e+000
8.108276e+002,1.085873e+001
8.117919e+002,1.137653e+001
8.127561e+002,1.092487e+001
8.137203e+002,9.647095e+000
8.146846e+002,7.684113e+000
8.156488e+002,5.605515e+000
8.166130e+002,3.967773e+000
8.175773e+002,2.636261e+000
8.185415e+002,2.465851e+000
8.195057e+002,3.580170e+000
8.204700e+002,5.247345e+000
8.214342e+002,8.380341e+000
8.223984e+002,1.187508e+001
8.233627e+002,1.252881e+001
8.243269e+002,7.461258e+000
8.252911e+002,3.119934e+000
8.262554e+002,3.646606e+000
8.272196e+002,6.325989e+000
8.281838e+002,8.640472e+000
8.291481e+002,9.519791e+000
8.301123e+002,9.478500e+000
8.310765e+002,9.318420e+000
8.320408e+002,8.991440e+000
8.330050e+002,8.449036e+000
8.339692e+002,7.659103e+000
8.349335e+002,6.830673e+000
8.358977e+002,6.184250e+000
8.368619e+002,5.767899e+000
8.378262e+002,5.558945e+000
8.387904e+002,5.624481e+000
8.397546e+002,5.667923e+000
8.407189e+002,5.394501e+000
8.416831e+002,5.122864e+000
8.426473e+002,5.594864e+000
8.436116e+002,7.380417e+000
8.445758e+002,8.989639e+000
8.455400e+002,7.966934e+000
8.465043e+002,6.113831e+000
8.474685e+002,5.930252e+000
8.484327e+002,7.975342e+000
8.493970e+002,1.061346e+001
8.503612e+002,1.093202e+001
8.513254e+002,8.347549e+000
8.522897e+002,7.192383e+000
8.532539e+002,8.125595e+000
8.542181e+002,9.302917e+000
8.551824e+002,9.770340e+000
8.561466e+002,9.691757e+000
8.571108e+002,9.685593e+000
8.580751e+002,9.529099e+000
8.590393e+002,9.475098e+000
8.600035e+002,9.849518e+000
8.609678e+002,1.039764e+001
8.619320e+002,1.075838e+001
8.628962e+002,1.079247e+001
8.638605e+002,1.078580e+001
8.648247e+002,1.113782e+001
8.657889e+002,1.179906e+001
8.667532e+002,1.292953e+001
8.677174e+002,1.454063e+001
8.686816e+002,1.585333e+001
8.696459e+002,1.582977e+001
8.706101e+002,1.418411e+001
8.715743e+002,1.377335e+001
8.725386e+002,1.568083e+001
8.735028e+002,1.733607e+001
8.744670e+002,1.784540e+001
8.754313e+002,1.759987e+001
8.763955e+002,1.739386e+001
8.773597e+002,1.742177e+001
8.783240e+002,1.793027e+001
8.792882e+002,1.951140e+001
8.802524e+002,2.123955e+001
8.812167e+002,2.234599e+001
8.821809e+002,2.266823e+001
8.831451e+002,2.244923e+001
8.841094e+002,2.196141e+001
8.850736e+002,2.133279e+001
8.860378e+002,2.151683e+001
8.870021e+002,2.257338e+001
8.879663e+002,2.383620e+001
8.889305e+002,2.525473e+001
8.898948e+002,2.661455e+001
8.908590e+002,2.682971e+001
8.918232e+002,2.481645e+001
8.927875e+002,2.349225e+001
8.937517e+002,2.371660e+001
8.947159e+002,2.460727e+001
8.956802e+002,2.548242e+001
8.966444e+002,2.608295e+001
8.976086e+002,2.649252e+001
8.985729e+002,2.690652e+001
8.995371e+002,2.725362e+001
9.005013e+002,2.719926e+001
9.014656e+002,2.688379e+001
9.024298e+002,2.683434e+001
9.033940e+002,2.744164e+001
9.043583e+002,2.849214e+001
9.053225e+002,2.886626e+001
9.062867e+002,2.798328e+001
9.072510e+002,2.695998e+001
9.082152e+002,2.525101e+001
9.091794e+002,2.400395e+001
9.101437e+002,2.484303e+001
9.111079e+002,2.804706e+001
9.120721e+002,3.054512e+001
9.130364e+002,2.967998e+001
9.140006e+002,2.807112e+001
9.149648e+002,2.696796e+001
9.159291e+002,2.650098e+001
9.168933e+002,2.650095e+001
9.178575e+002,2.679602e+001
9.188218e+002,2.725548e+001
9.197860e+002,2.766631e+001
9.207502e+002,2.801680e+001
9.217145e+002,2.774994e+001
9.226787e+002,2.637175e+001
9.236429e+002,2.491150e+001
9.246072e+002,2.492137e+001
9.255714e+002,2.676016e+001
9.265356e+002,2.777579e+001
9.274999e+002,2.686189e+001
9.284641e+002,2.571684e+001
9.294283e+002,2.499248e+001
9.303926e+002,2.450398e+001
9.313568e+002,2.368236e+001
9.323210e+002,2.219708e+001
9.332853e+002,2.059604e+001
9.342495e+002,1.955389e+001
9.352137e+002,1.903046e+001
9.361780e+002,1.958820e+001
9.371422e+002,2.136372e+001
9.381064e+002,2.309340e+001
9.390707e+002,2.284512e+001
9.400349e+002,2.004976e+001
9.409991e+002,1.850296e+001
9.419634e+002,1.879465e+001
9.429276e+002,1.933249e+001
9.438918e+002,1.994153e+001
9.448561e+002,2.050060e+001
9.458203e+002,2.090021e+001
9.467845e+002,2.117175e+001
9.477488e+002,2.112794e+001
9.487130e+002,2.085341e+001
9.496772e+002,2.002336e+001
9.506415e+002,1.736899e+001
9.516057e+002,1.359282e+001
9.525699e+002,1.138669e+001
9.535342e+002,1.343480e+001
9.544984e+002,1.896524e+001
9.554626e+002,2.142645e+001
9.564269e+002,2.067184e+001
9.573911e+002,1.943288e+001
9.583553e+002,1.806618e+001
9.593196e+002,1.670703e+001
9.602838e+002,1.559175e+001
9.612480e+002,1.470395e+001
9.622123e+002,1.403592e+001
9.631765e+002,1.357240e+001
9.641407e+002,1.338425e+001
9.651050e+002,1.373589e+001
9.660692e+002,1.430835e+001
9.670334e+002,1.450816e+001
9.679977e+002,1.400548e+001
9.689619e+002,1.326814e+001
9.699261e+002,1.311597e+001
9.708904e+002,1.334332e+001
9.718546e+002,1.349901e+001
9.728188e+002,1.330656e+001
9.737831e+002,1.361839e+001
9.747473e+002,1.595782e+001
9.757115e+002,2.096490e+001
9.766758e+002,2.467105e+001
9.776400e+002,2.708795e+001
9.786042e+002,2.833026e+001
9.795685e+002,2.769707e+001
9.805327e+002,2.603940e+001
9.814969e+002,2.460759e+001
9.824612e+002,2.388199e+001
9.834254e+002,2.292719e+001
9.843896e+002,2.012704e+001
9.853539e+002,1.682980e+001
9.863181e+002,1.468472e+001
9.872823e+002,1.356017e+001
9.882466e+002,1.227875e+001
9.892108e+002,9.898056e+000
9.901750e+002,6.835876e+000
9.911393e+002,5.423630e+000
9.921035e+002,6.576004e+000
9.930677e+002,7.555893e+000
9.940320e+002,8.603531e+000
9.949962e+002,9.359009e+000
9.959604e+002,9.254349e+000
9.969247e+002,8.328003e+000
9.978889e+002,7.738831e+000
9.988531e+002,8.399231e+000
9.998174e+002,8.803497e+000
1.000782e+003,7.631683e+000
1.001746e+003,5.907913e+000
1.002710e+003,5.138992e+000
1.003674e+003,5.935028e+000
1.004639e+003,7.649704e+000
1.005603e+003,9.257568e+000
1.006567e+003,1.071439e+001
1.007531e+003,1.100342e+001
1.008495e+003,9.644409e+000
1.009460e+003,8.182343e+000
1.010424e+003,7.550995e+000
1.011388e+003,7.600311e+000
1.012352e+003,7.669586e+000
1.013317e+003,7.651886e+000
1.014281e+003,7.616135e+000
1.015245e+003,7.963150e+000
1.016209e+003,7.932526e+000
1.017174e+003,6.655380e+000
1.018138e+003,4.405121e+000
1.019102e+003,2.363327e+000
1.020066e+003,1.531097e+000
1.021031e+003,1.557938e+000
1.021995e+003,1.292435e+000
1.022959e+003,7.389221e-001
1.023923e+003,3.083344e-001
1.024887e+003,3.871155e-002
1.025852e+003,8.024597e-002
1.026816e+003,9.725189e-001
1.027780e+003,3.203629e+000
1.028744e+003,4.250275e+000
1.029709e+003,2.641693e+000
1.030673e+003,1.310562e+000
1.031637e+003,1.200882e+000
1.032601e+003,1.806702e+000
1.033566e+003,2.566864e+000
1.034530e+003,3.272232e+000
1.035494e+003,3.527176e+000
1.036458e+003,2.664261e+000
1.037422e+003,1.088516e+000
1.038387e+003,-8.749084e-001
1.039351e+003,-3.037292e+000
1.040315e+003,-4.169708e+000
1.041279e+003,-3.179153e+000
1.042244e+003,-5.548401e-001
1.043208e+003,1.145035e+000
1.044172e+003,1.560806e+000
1.045136e+003,1.324005e+000
1.046101e+003,-5.233765e-002
1.047065e+003,-1.442856e+000
1.048029e+003,-2.230682e+000
1.048993e+003,-2.428650e+000
1.049958e+003,-2.279877e+000
1.050922e+003,-1.825882e+000
1.051886e+003,-1.078522e+000
1.052850e+003,4.968262e-002
1.053814e+003,1.347992e+000
1.054779e+003,2.822586e+000
1.055743e+003,4.313446e+000
1.056707e+003,5.066528e+000
1.057671e+003,4.119141e+000
1.058636e+003,1.440018e+000
1.059600e+003,-6.687012e-001
1.060564e+003,-2.826950e+000
1.061528e+003,-3.391678e+000
1.062493e+003,-1.224426e+000
1.063457e+003,1.916702e+000
1.064421e+003,4.614441e+000
1.065385e+003,6.674484e+000
1.066349e+003,7.109955e+000
1.067314e+003,3.931534e+000
1.068278e+003,7.206573e-001
1.069242e+003,2.489471e-001
1.070206e+003,1.410568e+000
1.071171e+003,2.424988e+000
1.072135e+003,2.461609e+000
1.073099e+003,1.882187e+000
1.074063e+003,1.337936e+000
1.075028e+003,8.562775e-001
1.075992e+003,5.146332e-001
1.076956e+003,3.189545e-001
1.077920e+003,9.233093e-002
1.078885e+003,-3.549805e-001
1.079849e+003,-7.280273e-001
1.080813e+003,-4.136810e-001
1.081777e+003,8.255463e-001
1.082741e+003,1.946335e+000
1.083706e+003,2.135529e+000
1.084670e+003,2.138168e+000
1.085634e+003,2.439789e+000
1.086598e+003,2.857788e+000
1.087563e+003,2.911453e+000
1.088527e+003,2.403534e+000
1.089491e+003,1.779984e+000
1.090455e+003,1.834656e+000
1.091420e+003,2.597427e+000
1.092384e+003,3.087021e+000
1.093348e+003,3.309677e+000
1.094312e+003,3.155167e+000
1.095276e+003,2.414780e+000
1.096241e+003,1.347641e+000
1.097205e+003,7.012177e-001
1.098169e+003,7.748871e-001
1.099133e+003,4.432526e-001
1.100098e+003,-1.586639e+000
1.101062e+003,-3.264496e+000
1.102026e+003,-2.697083e+000
1.102990e+003,-7.186890e-001
1.103955e+003,3.681793e-001
1.104919e+003,-8.292389e-001
1.105883e+003,-3.054901e+000
1.106847e+003,-3.451263e+000
1.107812e+003,-2.000565e+000
1.108776e+003,-1.708572e+000
1.109740e+003,-3.459122e+000
1.110704e+003,-4.794998e+000
1.111668e+003,-3.338486e+000
1.112633e+003,1.900787e-001
1.113597e+003,2.348465e+000
1.114561e+003,2.292694e+000
1.115525e+003,1.901932e+000
1.116490e+003,1.665894e+000
1.117454e+003,1.419739e+000
1.118418e+003,1.166214e+000
1.119382e+003,8.849182e-001
1.120347e+003,3.486176e-001
1.121311e+003,-6.393890e-001
1.122275e+003,-1.653091e+000
1.123239e+003,-1.408539e+000
1.124203e+003,3.744507e-002
1.125168e+003,5.822906e-001
1.126132e+003,-2.319031e-001
1.127096e+003,-1.087830e+000
1.128060e+003,-8.167725e-001
1.129025e+003,2.394562e-001
1.129989e+003,4.355774e-001
1.130953e+003,-1.051636e+000
1.131917e+003,-1.803513e+000
1.132882e+003,-7.364807e-001
1.133846e+003,7.703857e-001
1.134810e+003,2.493698e+000
1.135774e+003,3.878143e+000
1.136739e+003,3.802933e+000
1.137703e+003,1.673126e+000
1.138667e+003,-1.175842e+000
1.139631e+003,-2.551285e+000
1.140595e+003,-2.410690e+000
1.141560e+003,-1.118591e+000
1.142524e+003,1.724472e+000
1.143488e+003,4.478577e+000
1.144452e+003,5.829880e+000
1.145417e+003,6.170532e+000
1.146381e+003,6.984650e+000
1.147345e+003,8.488632e+000
1.148309e+003,9.898315e+000
1.149274e+003,1.095990e+001
1.150238e+003,1.201622e+001
1.151202e+003,1.326091e+001
1.152166e+003,1.468510e+001
1.153130e+003,1.636719e+001
1.154095e+003,1.821808e+001
1.155059e+003,1.948547e+001
1.156023e+003,1.889139e+001
1.156987e+003,1.690083e+001
1.157952e+003,1.701480e+001
1.158916e+003,1.993831e+001
1.159880e+003,2.177718e+001
1.160844e+003,1.962228e+001
1.161809e+003,1.501768e+001
1.162773e+003,1.160094e+001
1.163737e+003,9.600067e+000
1.164701e+003,7.893875e+000
1.165666e+003,6.510773e+000
1.166630e+003,5.149536e+000
1.167594e+003,3.488388e+000
1.168558e+003,1.859085e+000
1.169522e+003,7.922668e-001
1.170487e+003,3.976288e-001
1.171451e+003,2.275848e-001
1.172415e+003,-2.465515e-001
1.173379e+003,-9.366760e-001
1.174344e+003,-1.232849e+000
1.175308e+003,-1.104828e+000
1.176272e+003,-9.623718e-001
1.177236e+003,-8.753357e-001
1.178201e+003,-8.387756e-001
1.179165e+003,-1.001266e+000
1.180129e+003,-1.417328e+000
1.181093e+003,-1.391113e+000
1.182057e+003,2.558594e-001
1.183022e+003,8.143311e-001
1.183986e+003,-1.629669e+000
1.184950e+003,-4.836578e+000
1.185914e+003,-6.956635e+000
1.186879e+003,-7.561050e+000
1.187843e+003,-6.881989e+000
1.188807e+003,-5.093948e+000
1.189771e+003,-2.692001e+000
1.190736e+003,-1.000397e+000
1.191700e+003,-4.090881e-002
1.192664e+003,4.518127e-002
1.193628e+003,-1.420639e+000
1.194593e+003,-2.811951e+000
1.195557e+003,-2.720016e+000
1.196521e+003,-1.626816e+000
1.197485e+003,-1.164261e+000
1.198449e+003,-1.566284e+000
1.199414e+003,-2.591782e+000
1.200378e+003,-5.251709e+000
1.201342e+003,-7.471680e+000
1.202306e+003,-7.582581e+000
1.203271e+003,-6.269562e+000
1.204235e+003,-5.037888e+000
1.205199e+003,-4.663635e+000
1.206163e+003,-4.853638e+000
1.207128e+003,-5.162979e+000
1.208092e+003,-5.590485e+000
1.209056e+003,-6.068100e+000
1.210020e+003,-6.650162e+000
1.210984e+003,-7.158417e+000
1.211949e+003,-7.390335e+000
1.212913e+003,-7.646194e+000
1.213877e+003,-8.509293e+000
1.214841e+003,-9.950005e+000
1.215806e+003,-1.064307e+001
1.216770e+003,-9.355370e+000
1.217734e+003,-8.400078e+000
1.218698e+003,-1.004600e+001
1.219663e+003,-1.254102e+001
1.220627e+003,-1.359543e+001
1.221591e+003,-1.293510e+001
1.222555e+003,-1.196229e+001
1.223520e+003,-1.196637e+001
1.224484e+003,-1.265670e+001
1.225448e+003,-1.275256e+001
1.226412e+003,-1.177800e+001
1.227376e+003,-1.131625e+001
1.228341e+003,-1.161150e+001
1.229305e+003,-1.216659e+001
1.230269e+003,-1.297111e+001
1.231233e+003,-1.378094e+001
1.232198e+003,-1.406148e+001
1.233162e+003,-1.362489e+001
1.234126e+003,-1.302214e+001
1.235090e+003,-1.255260e+001
1.236055e+003,-1.229796e+001
1.237019e+003,-1.258603e+001
1.237983e+003,-1.313458e+001
1.238947e+003,-1.293037e+001
1.239911e+003,-1.154160e+001
1.240876e+003,-1.021885e+001
1.241840e+003,-1.106793e+001
1.242804e+003,-1.428564e+001
1.243768e+003,-1.595906e+001
1.244733e+003,-1.440865e+001
1.245697e+003,-1.345997e+001
1.246661e+003,-1.446764e+001
1.247625e+003,-1.532359e+001
1.248590e+003,-1.375401e+001
1.249554e+003,-1.054362e+001
1.250518e+003,-8.521988e+000
1.251482e+003,-9.030853e+000
1.252447e+003,-1.069327e+001
1.253411e+003,-1.227783e+001
1.254375e+003,-1.354288e+001
1.255339e+003,-1.395367e+001
1.256303e+003,-1.349393e+001
1.257268e+003,-1.285303e+001
1.258232e+003,-1.240984e+001
1.259196e+003,-1.218062e+001
1.260160e+003,-1.223109e+001
1.261125e+003,-1.264864e+001
1.262089e+003,-1.243582e+001
1.263053e+003,-1.106316e+001
1.264017e+003,-9.672783e+000
1.264982e+003,-8.102180e+000
1.265946e+003,-6.893326e+000
1.266910e+003,-6.596306e+000
1.267874e+003,-7.159157e+000
1.268839e+003,-8.324898e+000
1.269803e+003,-9.942848e+000
1.270767e+003,-1.132536e+001
1.271731e+003,-1.081094e+001
1.272695e+003,-8.479980e+000
1.273660e+003,-7.644966e+000
1.274624e+003,-8.979660e+000
1.275588e+003,-1.049110e+001
1.276552e+003,-1.091048e+001
1.277517e+003,-1.078521e+001
1.278481e+003,-1.137741e+001
1.279445e+003,-1.285897e+001
1.280409e+003,-1.381565e+001
1.281374e+003,-1.346965e+001
1.282338e+003,-1.288702e+001
1.283302e+003,-1.276383e+001
1.284266e+003,-1.266761e+001
1.285230e+003,-1.181341e+001
1.286195e+003,-1.035633e+001
1.287159e+003,-9.448219e+000
1.288123e+003,-1.002002e+001
1.289087e+003,-1.138184e+001
1.290052e+003,-1.149895e+001
1.291016e+003,-9.848427e+000
1.291980e+003,-9.002724e+000
1.292944e+003,-9.491516e+000
1.293909e+003,-1.012586e+001
1.294873e+003,-1.030791e+001
1.295837e+003,-1.035529e+001
1.296801e+003,-1.078027e+001
1.297766e+003,-1.162904e+001
1.298730e+003,-1.261642e+001
1.299694e+003,-1.392683e+001
1.300658e+003,-1.477066e+001
1.301622e+003,-1.384451e+001
1.302587e+003,-1.203886e+001
1.303551e+003,-1.074194e+001
1.304515e+003,-1.017460e+001
1.305479e+003,-9.831635e+000
1.306444e+003,-9.352829e+000
1.307408e+003,-8.826035e+000
1.308372e+003,-8.392937e+000
1.309336e+003,-7.857979e+000
1.310301e+003,-8.068123e+000
1.311265e+003,-9.839935e+000
1.312229e+003,-1.131024e+001
1.313193e+003,-1.178539e+001
1.314157e+003,-1.181442e+001
1.315122e+003,-1.200825e+001
1.316086e+003,-1.243708e+001
1.317050e+003,-1.282191e+001
1.318014e+003,-1.297338e+001
1.318979e+003,-1.275401e+001
1.319943e+003,-1.171759e+001
1.320907e+003,-1.001160e+001
1.321871e+003,-9.189079e+000
1.322836e+003,-9.560242e+000
1.323800e+003,-1.020528e+001
1.324764e+003,-1.100037e+001
1.325728e+003,-1.156000e+001
1.326693e+003,-1.100974e+001
1.327657e+003,-9.337685e+000
1.328621e+003,-8.241104e+000
1.329585e+003,-8.684837e+000
1.330549e+003,-8.508110e+000
1.331514e+003,-5.317833e+000
1.332478e+003,-2.274620e+000
1.333442e+003,-3.128105e+000
1.334406e+003,-7.085693e+000
1.335371e+003,-1.028105e+001
1.336335e+003,-1.040011e+001
1.337299e+003,-9.144150e+000
1.338263e+003,-9.843117e+000
1.339228e+003,-1.284001e+001
1.340192e+003,-1.453757e+001
1.341156e+003,-1.481995e+001
1.342120e+003,-1.410752e+001
1.343084e+003,-1.138061e+001
1.344049e+003,-8.738548e+000
1.345013e+003,-8.115135e+000
1.345977e+003,-8.997971e+000
1.346941e+003,-9.597282e+000
1.347906e+003,-9.279434e+000
1.348870e+003,-8.538231e+000
1.349834e+003,-7.604256e+000
1.350798e+003,-6.772400e+000
1.351763e+003,-6.619263e+000
1.352727e+003,-7.000732e+000
1.353691e+003,-7.060799e+000
1.354655e+003,-6.328506e+000
1.355620e+003,-5.713821e+000
1.356584e+003,-6.557594e+000
1.357548e+003,-8.615555e+000
1.358512e+003,-9.737801e+000
1.359476e+003,-9.394630e+000
1.360441e+003,-9.540192e+000
1.361405e+003,-1.158955e+001
1.362369e+003,-1.317263e+001
1.363333e+003,-1.313869e+001
1.364298e+003,-1.189245e+001
1.365262e+003,-9.454857e+000
1.366226e+003,-6.381554e+000
1.367190e+003,-4.638329e+000
1.368155e+003,-6.036407e+000
1.369119e+003,-9.230721e+000
1.370083e+003,-9.847183e+000
1.371047e+003,-6.828377e+000
1.372011e+003,-5.618835e+000
1.372976e+003,-7.900909e+000
1.373940e+003,-9.813644e+000
1.374904e+003,-9.660385e+000
1.375868e+003,-8.500061e+000
1.376833e+003,-7.426331e+000
1.377797e+003,-6.676407e+000
1.378761e+003,-6.677223e+000
1.379725e+003,-7.878128e+000
1.380690e+003,-8.951042e+000
1.381654e+003,-7.888435e+000
1.382618e+003,-6.135445e+000
1.383582e+003,-6.004318e+000
1.384547e+003,-7.361382e+000
1.385511e+003,-8.147270e+000
1.386475e+003,-7.234581e+000
1.387439e+003,-5.710617e+000
1.388403e+003,-5.196144e+000
1.389368e+003,-5.695450e+000
1.390332e+003,-6.330048e+000
1.391296e+003,-7.283745e+000
1.392260e+003,-7.858170e+000
1.393225e+003,-7.706413e+000
1.394189e+003,-7.419167e+000
1.395153e+003,-7.312126e+000
1.396117e+003,-7.294472e+000
1.397082e+003,-7.076607e+000
1.398046e+003,-6.645126e+000
1.399010e+003,-6.430473e+000
1.399974e+003,-6.880409e+000
1.400938e+003,-7.774864e+000
1.401903e+003,-8.240150e+000
1.402867e+003,-8.088974e+000
1.403831e+003,-7.424538e+000
1.404795e+003,-5.649323e+000
1.405760e+003,-4.332016e+000
1.406724e+003,-4.473503e+000
1.407688e+003,-5.236382e+000
1.408652e+003,-5.234268e+000
1.409617e+003,-4.606125e+000
1.410581e+003,-5.300629e+000
1.411545e+003,-8.446953e+000
1.412509e+003,-1.113291e+001
1.413474e+003,-9.886261e+000
1.414438e+003,-6.853699e+000
1.415402e+003,-5.252190e+000
1.416366e+003,-5.052269e+000
1.417330e+003,-5.964851e+000
1.418295e+003,-8.243767e+000
1.419259e+003,-1.022186e+001
1.420223e+003,-9.574730e+000
1.421187e+003,-6.829414e+000
1.422152e+003,-5.149796e+000
1.423116e+003,-4.867996e+000
1.424080e+003,-4.537613e+000
1.425044e+003,-3.318451e+000
1.426009e+003,-2.624352e+000
1.426973e+003,-3.779144e+000
1.427937e+003,-5.355324e+000
1.428901e+003,-5.368813e+000
1.429865e+003,-3.884682e+000
1.430830e+003,-2.629822e+000
1.431794e+003,-2.770638e+000
1.432758e+003,-3.645424e+000
1.433722e+003,-3.845741e+000
1.434687e+003,-3.194893e+000
1.435651e+003,-2.998276e+000
1.436615e+003,-3.943321e+000
1.437579e+003,-4.735229e+000
1.438544e+003,-5.402550e+000
1.439508e+003,-5.684448e+000
1.440472e+003,-5.102776e+000
1.441436e+003,-4.042778e+000
1.442401e+003,-3.248405e+000
1.443365e+003,-2.922234e+000
1.444329e+003,-2.780930e+000
1.445293e+003,-2.575516e+000
1.446257e+003,-2.476646e+000
1.447222e+003,-3.055908e+000
1.448186e+003,-4.128990e+000
1.449150e+003,-4.475311e+000
1.450114e+003,-3.765320e+000
1.451079e+003,-3.337669e+000
1.452043e+003,-4.443253e+000
1.453007e+003,-5.730217e+000
1.453971e+003,-5.019035e+000
1.454936e+003,-2.639877e+000
1.455900e+003,-1.083969e+000
1.456864e+003,-9.443817e-001
1.457828e+003,-1.262184e+000
1.458792e+003,-1.738289e+000
1.459757e+003,-2.323906e+000
1.460721e+003,-3.404778e+000
1.461685e+003,-4.446739e+000
1.462649e+003,-4.089874e+000
1.463614e+003,-2.113113e+000
1.464578e+003,-1.923904e-001
1.465542e+003,1.586990e-001
1.466506e+003,-6.497421e-001
1.467471e+003,-1.492584e+000
1.468435e+003,-2.458893e+000
1.469399e+003,-2.640221e+000
1.470363e+003,-1.181160e+000
1.471328e+003,-2.375412e-001
1.472292e+003,-4.495926e-001
1.473256e+003,-1.271965e+000
1.474220e+003,-2.586243e+000
1.475184e+003,-3.956612e+000
1.476149e+003,-4.900429e+000
1.477113e+003,-5.249245e+000
1.478077e+003,-4.978264e+000
1.479041e+003,-3.984055e+000
1.480006e+003,-2.507637e+000
1.480970e+003,-1.487289e+000
1.481934e+003,-1.036499e+000
1.482898e+003,-9.085007e-001
1.483863e+003,-1.291405e+000
1.484827e+003,-1.720276e+000
1.485791e+003,-1.856476e+000
1.486755e+003,-2.072121e+000
1.487719e+003,-2.971336e+000
1.488684e+003,-4.279366e+000
1.489648e+003,-5.342545e+000
1.490612e+003,-5.886131e+000
1.491576e+003,-5.258919e+000
1.492541e+003,-2.539948e+000
1.493505e+003,9.501953e-001
1.494469e+003,2.213448e+000
1.495433e+003,1.522156e+000
1.496398e+003,5.669632e-001
1.497362e+003,-6.513672e-001
1.498326e+003,-1.192566e+000
1.499290e+003,-3.349915e-001
1.500255e+003,1.288765e+000
1.501219e+003,3.065369e+000
1.502183e+003,4.852539e+000
1.503147e+003,6.095993e+000
1.504111e+003,6.619156e+000
1.505076e+003,6.852074e+000
1.506040e+003,6.689903e+000
1.507004e+003,6.757240e+000
1.507968e+003,7.847527e+000
1.508933e+003,9.535408e+000
1.509897e+003,1.083679e+001
1.510861e+003,1.168289e+001
1.511825e+003,1.309416e+001
1.512790e+003,1.586853e+001
1.513754e+003,1.926521e+001
1.514718e+003,2.196149e+001
1.515682e+003,2.391526e+001
1.516646e+003,2.579250e+001
1.517611e+003,2.773679e+001
1.518575e+003,2.955950e+001
1.519539e+003,3.160085e+001
1.520503e+003,3.319048e+001
1.521468e+003,3.391809e+001
1.522432e+003,3.392822e+001
1.523396e+003,3.325250e+001
1.524360e+003,3.208110e+001
1.525325e+003,3.094521e+001
1.526289e+003,3.021792e+001
1.527253e+003,2.965560e+001
1.528217e+003,2.883504e+001
1.529182e+003,2.779910e+001
1.530146e+003,2.623479e+001
1.531110e+003,2.374430e+001
1.532074e+003,2.137738e+001
1.533039e+003,1.899248e+001
1.534003e+003,1.674126e+001
1.534967e+003,1.522856e+001
1.535931e+003,1.373102e+001
1.536896e+003,1.082914e+001
1.537860e+003,7.087975e+000
1.538824e+003,4.767723e+000
1.539788e+003,4.930809e+000
1.540752e+003,6.053223e+000
1.541717e+003,6.247902e+000
1.542681e+003,5.641624e+000
1.543645e+003,4.899261e+000
1.544609e+003,4.006287e+000
1.545573e+003,3.184174e+000
1.546538e+003,1.838211e+000
1.547502e+003,1.155846e+000
1.548466e+003,2.059334e+000
1.549430e+003,3.584633e+000
1.550395e+003,4.907745e+000
1.551359e+003,5.853691e+000
1.552323e+003,6.396843e+000
1.553287e+003,6.546127e+000
1.554252e+003,6.359276e+000
1.555216e+003,5.838318e+000
1.556180e+003,5.112839e+000
1.557144e+003,4.497406e+000
1.558109e+003,4.022606e+000
1.559073e+003,3.436363e+000
1.560037e+003,2.522064e+000
1.561001e+003,1.744324e+000
1.561966e+003,1.424911e+000
1.562930e+003,1.313065e+000
1.563894e+003,8.479156e-001
1.564858e+003,3.995056e-001
1.565823e+003,1.412888e+000
1.566787e+003,3.986366e+000
1.567751e+003,5.127197e+000
1.568715e+003,2.628716e+000
1.569679e+003,-2.831116e-001
1.570644e+003,1.032219e+000
1.571608e+003,4.895157e+000
1.572572e+003,6.307159e+000
1.573536e+003,5.115738e+000
1.574500e+003,4.283737e+000
1.575465e+003,4.980453e+000
1.576429e+003,5.928497e+000
1.577393e+003,6.055130e+000
1.578357e+003,5.694511e+000
1.579322e+003,5.519905e+000
1.580286e+003,5.594070e+000
1.581250e+003,5.777740e+000
1.582214e+003,6.098999e+000
1.583179e+003,6.230576e+000
1.584143e+003,5.686111e+000
1.585107e+003,4.975761e+000
1.586071e+003,4.810699e+000
1.587036e+003,5.173714e+000
1.588000e+003,5.969833e+000
1.588964e+003,7.193619e+000
1.589928e+003,7.882790e+000
1.590893e+003,6.979172e+000
1.591857e+003,5.614571e+000
1.592821e+003,5.507164e+000
1.593785e+003,6.507912e+000
1.594750e+003,7.793396e+000
1.595714e+003,9.340477e+000
1.596678e+003,1.051160e+001
1.597642e+003,1.116100e+001
1.598606e+003,1.119167e+001
1.599571e+003,1.013052e+001
1.600535e+003,8.733330e+000
1.601499e+003,7.808388e+000
1.602463e+003,7.452652e+000
1.603427e+003,7.890198e+000
1.604392e+003,9.347031e+000
1.605356e+003,1.055564e+001
1.606320e+003,9.668617e+000
1.607284e+003,7.729958e+000
1.608249e+003,8.246544e+000
1.609213e+003,1.135120e+001
1.610177e+003,1.243890e+001
1.611141e+003,9.829865e+000
1.612106e+003,7.479683e+000
1.613070e+003,7.331352e+000
1.614034e+003,8.129204e+000
1.614998e+003,9.415398e+000
1.615963e+003,1.086120e+001
1.616927e+003,1.200045e+001
1.617891e+003,1.274631e+001
1.618855e+003,1.323938e+001
1.619820e+003,1.353072e+001
1.620784e+003,1.356113e+001
1.621748e+003,1.311026e+001
1.622712e+003,1.244472e+001
1.623677e+003,1.286793e+001
1.624641e+003,1.464577e+001
1.625605e+003,1.605935e+001
1.626569e+003,1.666853e+001
1.627533e+003,1.663587e+001
1.628498e+003,1.573123e+001
1.629462e+003,1.468756e+001
1.630426e+003,1.408124e+001
1.631390e+003,1.381015e+001
1.632354e+003,1.349712e+001
1.633319e+003,1.308009e+001
1.634283e+003,1.306136e+001
1.635247e+003,1.394915e+001
1.636211e+003,1.497941e+001
1.637176e+003,1.462365e+001
1.638140e+003,1.302790e+001
1.639104e+003,1.196703e+001
1.640068e+003,1.148438e+001
1.641033e+003,1.144527e+001
1.641997e+003,1.210611e+001
1.642961e+003,1.287251e+001
1.643925e+003,1.359470e+001
1.644890e+003,1.414706e+001
1.645854e+003,1.417255e+001
1.646818e+003,1.394126e+001
1.647782e+003,1.445676e+001
1.648747e+003,1.589460e+001
1.649711e+003,1.641042e+001
1.650675e+003,1.411903e+001
1.651639e+003,1.087323e+001
1.652604e+003,1.087959e+001
1.653568e+003,1.394014e+001
1.654532e+003,1.536214e+001
1.655496e+003,1.452914e+001
1.656460e+003,1.340803e+001
1.657425e+003,1.227318e+001
1.658389e+003,1.139539e+001
1.659353e+003,1.072943e+001
1.660317e+003,1.048543e+001
1.661281e+003,1.145142e+001
1.662246e+003,1.296902e+001
1.663210e+003,1.289618e+001
1.664174e+003,1.064347e+001
1.665138e+003,8.750824e+000
1.666103e+003,9.522743e+000
1.667067e+003,1.168163e+001
1.668031e+003,1.288194e+001
1.668995e+003,1.315089e+001
1.669960e+003,1.253111e+001
1.670924e+003,1.069642e+001
1.671888e+003,9.446304e+000
1.672852e+003,9.485260e+000
1.673817e+003,9.961571e+000
1.674781e+003,1.052637e+001
1.675745e+003,1.105943e+001
1.676709e+003,1.159896e+001
1.677674e+003,1.197384e+001
1.678638e+003,1.153612e+001
1.679602e+003,1.010300e+001
1.680566e+003,8.914162e+000
1.681531e+003,9.084915e+000
1.682495e+003,9.934532e+000
1.683459e+003,1.043315e+001
1.684423e+003,1.050927e+001
1.685387e+003,9.773132e+000
1.686352e+003,8.083176e+000
1.687316e+003,6.619675e+000
1.688280e+003,5.740898e+000
1.689244e+003,5.188675e+000
1.690208e+003,4.841194e+000
1.691173e+003,4.657257e+000
1.692137e+003,4.896507e+000
1.693101e+003,5.325996e+000
1.694065e+003,4.872543e+000
1.695030e+003,3.176895e+000
1.695994e+003,1.903839e+000
1.696958e+003,2.211533e+000
1.697922e+003,3.368172e+000
1.698887e+003,4.762299e+000
1.699851e+003,6.224480e+000
1.700815e+003,7.398819e+000
1.701779e+003,8.191635e+000
1.702744e+003,7.395866e+000
1.703708e+003,4.189400e+000
1.704672e+003,1.374123e+000
1.705636e+003,9.568024e-001
1.706601e+003,1.949562e+000
1.707565e+003,3.392647e+000
1.708529e+003,5.071960e+000
1.709493e+003,6.280350e+000
1.710458e+003,6.990082e+000
1.711422e+003,6.636383e+000
1.712386e+003,3.817924e+000
1.713350e+003,1.349693e+000
1.714314e+003,1.939003e+000
1.715279e+003,3.970963e+000
1.716243e+003,4.740173e+000
1.717207e+003,4.333366e+000
1.718171e+003,4.578812e+000
1.719135e+003,5.994057e+000
1.720100e+003,6.414558e+000
1.721064e+003,4.020912e+000
1.722028e+003,9.477997e-001
1.722992e+003,4.217606e-001
1.723957e+003,2.024757e+000
1.724921e+003,3.078117e+000
1.725885e+003,3.542313e+000
1.726849e+003,3.262932e+000
1.727814e+003,1.042618e+000
1.728778e+003,-1.358948e-001
1.729742e+003,2.053429e+000
1.730706e+003,4.872185e+000
1.731671e+003,5.590546e+000
1.732635e+003,4.738777e+000
1.733599e+003,3.888420e+000
1.734563e+003,3.432808e+000
1.735528e+003,2.980148e+000
1.736492e+003,2.293900e+000
1.737456e+003,1.601120e+000
1.738420e+003,1.153069e+000
1.739385e+003,9.175720e-001
1.740349e+003,9.494400e-001
1.741313e+003,1.326530e+000
1.742277e+003,1.788544e+000
1.743241e+003,2.675293e+000
1.744206e+003,3.205727e+000
1.745170e+003,3.294159e+000
1.746134e+003,2.927673e+000
1.747098e+003,1.753929e+000
1.748063e+003,3.718185e-001
1.749027e+003,-8.326721e-001
1.749991e+003,-1.553040e+000
1.750955e+003,-1.077934e+000
1.751919e+003,5.744019e-001
1.752884e+003,1.988205e+000
1.753848e+003,1.987633e+000
1.754812e+003,1.051620e+000
1.755776e+003,4.798889e-002
1.756741e+003,-9.465866e-001
1.757705e+003,-7.889938e-001
1.758669e+003,1.081718e+000
1.759633e+003,2.328827e+000
1.760598e+003,2.541603e+000
1.761562e+003,2.251572e+000
1.762526e+003,1.340416e+000
1.763490e+003,3.892365e-001
1.764455e+003,-2.478867e-001
1.765419e+003,-6.189728e-001
1.766383e+003,-9.892883e-001
1.767347e+003,-1.312416e+000
1.768312e+003,-1.026054e+000
1.769276e+003,1.375198e-001
1.770240e+003,1.261337e+000
1.771204e+003,1.494225e+000
1.772168e+003,1.081726e+000
1.773133e+003,1.758652e-001
1.774097e+003,-1.099182e+000
1.775061e+003,-1.223541e+000
1.776025e+003,1.200790e-001
1.776990e+003,8.245621e-001
1.777954e+003,-1.698685e-001
1.778918e+003,-9.440613e-001
1.779882e+003,4.161224e-001
1.780846e+003,2.242249e+000
1.781811e+003,2.094978e+000
1.782775e+003,5.865326e-001
1.783739e+003,-3.089676e-001
1.784703e+003,-2.806244e-001
1.785668e+003,1.301422e-001
1.786632e+003,9.668503e-001
1.787596e+003,1.632614e+000
1.788560e+003,1.845123e+000
1.789525e+003,1.657150e+000
1.790489e+003,6.162567e-001
1.791453e+003,-7.984314e-001
1.792417e+003,-7.780151e-001
1.793382e+003,8.504791e-001
1.794346e+003,1.629936e+000
1.795310e+003,1.571350e-001
1.796274e+003,-1.354263e+000
1.797239e+003,-8.907318e-002
1.798203e+003,2.729546e+000
1.799167e+003,2.772949e+000
1.800131e+003,-7.792358e-001
1.801095e+003,-2.321274e+000
1.802060e+003,-4.780884e-001
1.803024e+003,1.179153e+000
1.803988e+003,2.726013e+000
1.804952e+003,3.437302e+000
1.805917e+003,2.287560e+000
1.806881e+003,7.137604e-001
1.807845e+003,2.114258e-001
1.808809e+003,4.678879e-001
1.809773e+003,3.883896e-001
1.810738e+003,-1.854095e-001
1.811702e+003,-3.741684e-001
1.812666e+003,3.503494e-001
1.813630e+003,1.216339e+000
1.814595e+003,1.076065e+000
1.815559e+003,3.378677e-001
1.816523e+003,9.575119e-001
1.817487e+003,3.145348e+000
1.818452e+003,4.378647e+000
1.819416e+003,4.311203e+000
1.820380e+003,4.105438e+000
1.821344e+003,4.017502e+000
1.822309e+003,3.833031e+000
1.823273e+003,3.399384e+000
1.824237e+003,2.909958e+000
1.825201e+003,2.339378e+000
1.826166e+003,1.865738e+000
1.827130e+003,2.110924e+000
1.828094e+003,3.128418e+000
1.829058e+003,3.842155e+000
1.830022e+003,3.842453e+000
1.830987e+003,3.275749e+000
1.831951e+003,1.718483e+000
1.832915e+003,6.465912e-002
1.833879e+003,-3.404846e-001
1.834844e+003,2.822952e-001
1.835808e+003,1.312042e+000
1.836772e+003,2.531677e+000
1.837736e+003,3.215424e+000
1.838700e+003,3.005920e+000
1.839665e+003,2.471504e+000
1.840629e+003,2.067818e+000
1.841593e+003,1.960732e+000
1.842557e+003,2.535080e+000
1.843522e+003,3.774384e+000
1.844486e+003,4.670647e+000
1.845450e+003,5.234238e+000
1.846414e+003,5.544044e+000
1.847379e+003,5.684044e+000
1.848343e+003,5.272751e+000
1.849307e+003,3.637146e+000
1.850271e+003,2.059601e+000
1.851236e+003,1.448914e+000
1.852200e+003,1.519463e+000
1.853164e+003,1.718796e+000
1.854128e+003,1.989738e+000
1.855093e+003,2.843491e+000
1.856057e+003,4.383850e+000
1.857021e+003,5.489479e+000
1.857985e+003,5.152451e+000
1.858949e+003,4.042519e+000
1.859914e+003,3.245140e+000
1.860878e+003,2.729599e+000
1.861842e+003,2.019142e+000
1.862806e+003,1.066460e+000
1.863771e+003,1.614761e+000
1.864735e+003,4.455765e+000
1.865699e+003,6.379166e+000
1.866663e+003,5.849937e+000
1.867627e+003,4.327888e+000
1.868592e+003,2.429192e+000
1.869556e+003,7.099533e-001
1.870520e+003,4.649277e-001
1.871484e+003,1.481003e+000
1.872449e+003,2.487633e+000
1.873413e+003,3.691109e+000
1.874377e+003,4.235352e+000
1.875341e+003,2.724602e+000
1.876306e+003,1.723358e+000
1.877270e+003,3.562225e+000
1.878234e+003,5.651031e+000
1.879198e+003,4.796608e+000
1.880163e+003,2.520531e+000
1.881127e+003,1.989609e+000
1.882091e+003,3.367088e+000
1.883055e+003,4.862236e+000
1.884020e+003,5.649696e+000
1.884984e+003,5.962967e+000
1.885948e+003,6.010284e+000
1.886912e+003,5.879021e+000
1.887876e+003,5.749748e+000
1.888841e+003,5.620461e+000
1.889805e+003,5.354958e+000
1.890769e+003,4.871712e+000
1.891733e+003,4.747475e+000
1.892698e+003,5.279686e+000
1.893662e+003,5.444382e+000
1.894626e+003,4.360420e+000
1.895590e+003,3.556435e+000
1.896554e+003,4.671021e+000
1.897519e+003,6.274361e+000
1.898483e+003,6.552986e+000
1.899447e+003,5.734192e+000
1.900411e+003,4.894379e+000
1.901376e+003,4.202148e+000
1.902340e+003,3.915077e+000
1.903304e+003,4.568810e+000
1.904268e+003,4.934151e+000
1.905233e+003,3.653915e+000
1.906197e+003,2.337471e+000
1.907161e+003,3.043274e+000
1.908125e+003,4.755959e+000
1.909090e+003,5.391930e+000
1.910054e+003,4.949402e+000
1.911018e+003,4.833313e+000
1.911982e+003,5.482460e+000
1.912947e+003,5.831650e+000
1.913911e+003,5.080070e+000
1.914875e+003,4.480606e+000
1.915839e+003,6.193604e+000
1.916803e+003,9.362244e+000
1.917768e+003,9.461403e+000
1.918732e+003,5.798653e+000
1.919696e+003,3.929237e+000
1.920660e+003,4.556564e+000
1.921625e+003,5.311432e+000
1.922589e+003,5.750000e+000
1.923553e+003,6.061028e+000
1.924517e+003,6.257957e+000
1.925481e+003,6.454742e+000
1.926446e+003,6.947960e+000
1.927410e+003,7.445366e+000
1.928374e+003,7.222420e+000
1.929338e+003,6.276993e+000
1.930303e+003,5.506744e+000
1.931267e+003,5.024475e+000
1.932231e+003,5.326210e+000
1.933195e+003,7.607208e+000
1.934160e+003,9.498726e+000
1.935124e+003,8.756798e+000
1.936088e+003,7.041672e+000
1.937052e+003,6.464691e+000
1.938017e+003,6.697327e+000
1.938981e+003,6.530602e+000
1.939945e+003,5.784966e+000
1.940909e+003,4.883072e+000
1.941874e+003,4.084023e+000
1.942838e+003,3.878342e+000
1.943802e+003,4.802406e+000
1.944766e+003,6.325478e+000
1.945730e+003,7.336296e+000
1.946695e+003,7.827934e+000
1.947659e+003,7.862015e+000
1.948623e+003,7.321190e+000
1.949587e+003,7.686195e+000
1.950552e+003,9.526825e+000
1.951516e+003,1.062585e+001
1.952480e+003,9.890610e+000
1.953444e+003,9.032410e+000
1.954408e+003,9.463722e+000
1.955373e+003,1.013853e+001
1.956337e+003,9.409752e+000
1.957301e+003,7.801384e+000
1.958265e+003,6.998947e+000
1.959230e+003,7.135185e+000
1.960194e+003,7.330635e+000
1.961158e+003,7.311302e+000
1.962122e+003,7.405647e+000
1.963087e+003,7.842484e+000
1.964051e+003,8.264603e+000
1.965015e+003,8.721260e+000
1.965979e+003,8.937820e+000
1.966944e+003,8.340454e+000
1.967908e+003,7.350197e+000
1.968872e+003,6.812149e+000
1.969836e+003,6.794350e+000
1.970801e+003,6.706978e+000
1.971765e+003,6.326347e+000
1.972729e+003,6.204575e+000
1.973693e+003,6.840027e+000
1.974657e+003,7.869148e+000
1.975622e+003,8.811752e+000
1.976586e+003,9.663322e+000
1.977550e+003,1.064005e+001
1.978514e+003,1.162683e+001
1.979479e+003,1.181520e+001
1.980443e+003,1.111107e+001
1.981407e+003,1.015374e+001
1.982371e+003,9.170395e+000
1.983335e+003,8.500641e+000
1.984300e+003,8.388084e+000
1.985264e+003,8.632790e+000
1.986228e+003,9.035233e+000
1.987192e+003,9.479347e+000
1.988157e+003,9.315170e+000
1.989121e+003,8.333420e+000
1.990085e+003,7.946510e+000
1.991049e+003,8.457741e+000
1.992014e+003,9.008896e+000
1.992978e+003,9.433556e+000
1.993942e+003,9.920120e+000
1.994906e+003,1.076466e+001
1.995871e+003,1.146142e+001
1.996835e+003,1.157997e+001
1.997799e+003,1.138233e+001
1.998763e+003,1.119421e+001
1.999728e+003,1.101814e+001
