5.003444e+002,4.044652e+001
5.013087e+002,4.147139e+001
5.022729e+002,4.146837e+001
5.032371e+002,4.069000e+001
5.042014e+002,3.945474e+001
5.051656e+002,3.791138e+001
5.061298e+002,3.677730e+001
5.070941e+002,3.675417e+001
5.080583e+002,3.812430e+001
5.090225e+002,3.843848e+001
5.099868e+002,3.696481e+001
5.109510e+002,3.554297e+001
5.119152e+002,3.517421e+001
5.128795e+002,3.597258e+001
5.138437e+002,3.687610e+001
5.148079e+002,3.807910e+001
5.157722e+002,3.889487e+001
5.167364e+002,3.878401e+001
5.177006e+002,3.775957e+001
5.186649e+002,3.640057e+001
5.196291e+002,3.560214e+001
5.205933e+002,3.502673e+001
5.215576e+002,3.387897e+001
5.225218e+002,3.205598e+001
5.234860e+002,3.002394e+001
5.244503e+002,2.876486e+001
5.254145e+002,2.874036e+001
5.263787e+002,2.905582e+001
5.273430e+002,3.014326e+001
5.283072e+002,3.128789e+001
5.292714e+002,3.131004e+001
5.302357e+002,2.916455e+001
5.311999e+002,2.764209e+001
5.321641e+002,2.751758e+001
5.331284e+002,2.802199e+001
5.340926e+002,2.880254e+001
5.350568e+002,2.972861e+001
5.360211e+002,2.972354e+001
5.369853e+002,2.710495e+001
5.379495e+002,2.391447e+001
5.389138e+002,2.171129e+001
5.398780e+002,2.108900e+001
5.408422e+002,2.155292e+001
5.418065e+002,2.203690e+001
5.427707e+002,2.251950e+001
5.437349e+002,2.282799e+001
5.446992e+002,2.288307e+001
5.456634e+002,2.270087e+001
5.466276e+002,2.239044e+001
5.475919e+002,2.181299e+001
5.485561e+002,2.140080e+001
5.495203e+002,2.098509e+001
5.504846e+002,2.067827e+001
5.514488e+002,2.079828e+001
5.524130e+002,2.185626e+001
5.533773e+002,2.267142e+001
5.543415e+002,2.249214e+001
5.553057e+002,2.189833e+001
5.562700e+002,2.151050e+001
5.572342e+002,2.168228e+001
5.581984e+002,2.196045e+001
5.591627e+002,2.122343e+001
5.601269e+002,1.993074e+001
5.610911e+002,1.881825e+001
5.620554e+002,1.824112e+001
5.630196e+002,1.804443e+001
5.639838e+002,1.732013e+001
5.649481e+002,1.597545e+001
5.659123e+002,1.427872e+001
5.668765e+002,1.152148e+001
5.678408e+002,8.579315e+000
5.688050e+002,7.878922e+000
5.697692e+002,1.176782e+001
5.707335e+002,1.521669e+001
5.716977e+002,1.728554e+001
5.726619e+002,1.796185e+001
5.736262e+002,1.715665e+001
5.745904e+002,1.460803e+001
5.755546e+002,1.145786e+001
5.765189e+002,8.836700e+000
5.774831e+002,6.834671e+000
5.784473e+002,6.212708e+000
5.794116e+002,7.539734e+000
5.803758e+002,1.058435e+001
5.813400e+002,1.084706e+001
5.823043e+002,6.953293e+000
5.832685e+002,4.139145e+000
5.842327e+002,5.090042e+000
5.851970e+002,9.213669e+000
5.861612e+002,1.201469e+001
5.871254e+002,1.161684e+001
5.880897e+002,1.095293e+001
5.890539e+002,1.034468e+001
5.900181e+002,9.797989e+000
5.909824e+002,9.243134e+000
5.919466e+002,8.713333e+000
5.929108e+002,8.135391e+000
5.938751e+002,7.277344e+000
5.948393e+002,6.347641e+000
5.958035e+002,5.772186e+000
5.967678e+002,5.867508e+000
5.977320e+002,6.528656e+000
5.986962e+002,6.270325e+000
5.996605e+002,4.876740e+000
6.006247e+002,3.826035e+000
6.015889e+002,3.969208e+000
6.025532e+002,5.231873e+000
6.035174e+002,6.219315e+000
6.044816e+002,6.552048e+000
6.054459e+002,7.063950e+000
6.064101e+002,8.263565e+000
6.073743e+002,9.643906e+000
6.083386e+002,1.036925e+001
6.093028e+002,1.008766e+001
6.102670e+002,8.822083e+000
6.112313e+002,5.629364e+000
6.121955e+002,2.027039e+000
6.131597e+002,1.109009e-001
6.141240e+002,1.285553e+000
6.150882e+002,4.704926e+000
6.160524e+002,7.239731e+000
6.170167e+002,9.103851e+000
6.179809e+002,1.021280e+001
6.189451e+002,1.033109e+001
6.199094e+002,9.489182e+000
6.208736e+002,8.460068e+000
6.218378e+002,6.812469e+000
6.228021e+002,5.810974e+000
6.237663e+002,6.148209e+000
6.247305e+002,7.098450e+000
6.256948e+002,7.378876e+000
6.266590e+002,6.113708e+000
6.276232e+002,4.637695e+000
6.285875e+002,3.498672e+000
6.295517e+002,2.958237e+000
6.305159e+002,3.566177e+000
6.314802e+002,5.485809e+000
6.324444e+002,7.825241e+000
6.334086e+002,8.125031e+000
6.343729e+002,7.065582e+000
6.353371e+002,5.681061e+000
6.363013e+002,4.153000e+000
6.372656e+002,2.670685e+000
6.382298e+002,2.055405e+000
6.391940e+002,3.487701e+000
6.401583e+002,4.162537e+000
6.411225e+002,3.932922e+000
6.420867e+002,3.291580e+000
6.430510e+002,2.664063e+000
6.440152e+002,2.005295e+000
6.449794e+002,1.351212e+000
6.459437e+002,4.574585e-001
6.469079e+002,-2.535858e-001
6.478721e+002,-8.462524e-002
6.488364e+002,1.058655e+000
6.498006e+002,2.237915e+000
6.507648e+002,1.167877e+000
6.517291e+002,-1.185715e+000
6.526933e+002,-2.205002e+000
6.536575e+002,-1.355759e+000
6.546218e+002,4.660797e-001
6.555860e+002,1.595474e+000
6.565502e+002,1.952393e+000
6.575145e+002,1.455887e+000
6.584787e+002,-1.027679e+000
6.594429e+002,-3.340866e+000
6.604072e+002,-3.347961e+000
6.613714e+002,-4.674530e-001
6.623356e+002,1.720978e+000
6.632999e+002,7.991333e-001
6.642641e+002,-7.916718e-001
6.652283e+002,-1.996887e+000
6.661926e+002,-2.494843e+000
6.671568e+002,-2.414841e+000
6.681210e+002,-1.775223e+000
6.690853e+002,-9.448547e-001
6.700495e+002,-8.591156e-001
6.710137e+002,-1.465134e+000
6.719780e+002,-1.907654e+000
6.729422e+002,-1.180130e+000
6.739064e+002,1.118668e+000
6.748707e+002,1.733749e+000
6.758349e+002,-6.266174e-001
6.767991e+002,-2.725006e+000
6.777634e+002,-2.707306e+000
6.787276e+002,-8.078918e-001
6.796918e+002,4.185333e-001
6.806561e+002,-1.124191e+000
6.816203e+002,-2.489227e+000
6.825845e+002,-2.457214e+000
6.835488e+002,-1.464005e+000
6.845130e+002,-1.615753e-001
6.854772e+002,1.094238e+000
6.864415e+002,1.945404e+000
6.874057e+002,1.073853e+000
6.883699e+002,-1.054016e+000
6.893342e+002,-2.992188e+000
6.902984e+002,-3.913406e+000
6.912626e+002,-3.853989e+000
6.922269e+002,-3.362946e+000
6.931911e+002,-1.625107e+000
6.941553e+002,-1.793060e-001
6.951196e+002,2.606964e-001
6.960838e+002,3.109589e-001
6.970480e+002,1.357452e+000
6.980123e+002,4.657990e+000
6.989765e+002,6.515503e+000
6.999407e+002,4.805450e+000
7.009050e+002,1.840698e+000
7.018692e+002,-9.175262e-001
7.028334e+002,-2.814331e+000
7.037977e+002,-3.872696e+000
7.047619e+002,-3.511597e+000
7.057261e+002,-2.328903e+000
7.066904e+002,-1.998245e+000
7.076546e+002,-2.789139e+000
7.086188e+002,-3.592636e+000
7.095831e+002,-2.513245e+000
7.105473e+002,1.591415e+000
7.115115e+002,3.591385e+000
7.124758e+002,2.656799e+000
7.134400e+002,8.640900e-001
7.144042e+002,-6.976471e-001
7.153685e+002,-1.896683e+000
7.163327e+002,-2.948639e+000
7.172969e+002,-4.329819e+000
7.182612e+002,-5.130341e+000
7.192254e+002,-4.630920e+000
7.201896e+002,-3.314560e+000
7.211539e+002,-2.064896e+000
7.221181e+002,-1.570648e+000
7.230823e+002,-1.721176e+000
7.240466e+002,-2.255753e+000
7.250108e+002,-2.964569e+000
7.259750e+002,-3.429245e+000
7.269393e+002,-3.531876e+000
7.279035e+002,-3.417694e+000
7.288677e+002,-3.171555e+000
7.298320e+002,-2.283463e+000
7.307962e+002,-1.337708e+000
7.317604e+002,-2.333679e-001
7.327247e+002,8.927307e-001
7.336889e+002,1.740479e+000
7.346531e+002,2.003418e+000
7.356174e+002,1.879013e+000
7.365816e+002,1.700699e+000
7.375458e+002,1.571152e+000
7.385101e+002,1.487244e+000
7.394743e+002,1.479156e+000
7.404385e+002,1.659195e+000
7.414028e+002,2.271439e+000
7.423670e+002,2.870193e+000
7.433312e+002,2.700974e+000
7.442955e+002,1.855560e+000
7.452597e+002,9.959259e-001
7.462239e+002,8.703613e-001
7.471882e+002,1.771957e+000
7.481524e+002,1.805908e+000
7.491166e+002,-5.549469e-001
7.500809e+002,-2.291000e+000
7.510451e+002,-1.636612e+000
7.520093e+002,7.271881e-001
7.529736e+002,2.179382e+000
7.539378e+002,1.102005e+000
7.549020e+002,-2.380219e-001
7.558663e+002,-4.505615e-001
7.568306e+002,1.567078e-002
7.577948e+002,4.919434e-001
7.587590e+002,5.286865e-001
7.597233e+002,2.125702e-001
7.606875e+002,6.314087e-002
7.616517e+002,1.551666e-001
7.626160e+002,3.621368e-001
7.635802e+002,8.324585e-001
7.645444e+002,1.281723e+000
7.655087e+002,9.922333e-001
7.664729e+002,-6.278839e-001
7.674371e+002,-1.790680e+000
7.684014e+002,-2.685165e+000
7.693656e+002,-2.973892e+000
7.703298e+002,-1.987930e+000
7.712941e+002,1.530762e-001
7.722583e+002,1.889618e+000
7.732225e+002,1.633102e+000
7.741868e+002,8.892365e-001
7.751510e+002,5.746918e-001
7.761152e+002,8.181152e-001
7.770795e+002,1.790710e+000
7.780437e+002,3.647980e+000
7.790079e+002,6.075272e+000
7.799722e+002,6.181229e+000
7.809364e+002,3.718582e+000
7.819006e+002,1.937851e+000
7.828649e+002,2.804291e+000
7.838291e+002,5.452881e+000
7.847933e+002,6.701309e+000
7.857576e+002,5.453461e+000
7.867218e+002,3.938965e+000
7.876860e+002,1.965469e+000
7.886503e+002,5.842590e-001
7.896145e+002,1.142563e+000
7.905787e+002,3.792633e+000
7.915430e+002,6.373169e+000
7.925072e+002,6.035385e+000
7.934714e+002,4.373184e+000
7.944357e+002,3.006546e+000
7.953999e+002,2.270859e+000
7.963641e+002,2.167145e+000
7.973284e+002,2.681168e+000
7.982926e+002,3.874176e+000
7.992568e+002,4.478424e+000
8.002211e+002,3.842850e+000
8.011853e+002,3.269165e+000
8.021495e+002,3.826294e+000
8.031138e+002,5.252502e+000
8.040780e+002,5.917343e+000
8.050422e+002,4.718643e+000
8.060065e+002,3.630020e+000
8.069707e+002,3.002625e+000
8.079349e+002,2.778641e+000
8.088992e+002,2.943436e+000
8.098634e+002,3.541672e+000
8.108276e+002,4.698563e+000
8.117919e+002,7.059525e+000
8.127561e+002,9.561035e+000
8.137203e+002,1.037595e+001
8.146846e+002,9.456360e+000
8.156488e+002,7.828888e+000
8.166130e+002,6.649338e+000
8.175773e+002,6.022430e+000
8.185415e+002,4.908722e+000
8.195057e+002,1.732529e+000
8.204700e+002,-2.203369e-001
8.214342e+002,1.294693e+000
8.223984e+002,4.881897e+000
8.233627e+002,6.654938e+000
8.243269e+002,4.443283e+000
8.252911e+002,2.050491e+000
8.262554e+002,1.722000e+000
8.272196e+002,2.350449e+000
8.281838e+002,2.662598e+000
8.291481e+002,2.270615e+000
8.301123e+002,2.034775e+000
8.310765e+002,3.752701e+000
8.320408e+002,7.110519e+000
8.330050e+002,8.763260e+000
8.339692e+002,8.339630e+000
8.349335e+002,6.925812e+000
8.358977e+002,5.388260e+000
8.368619e+002,3.678757e+000
8.378262e+002,2.767715e+000
8.387904e+002,3.233810e+000
8.397546e+002,3.640640e+000
8.407189e+002,2.959229e+000
8.416831e+002,2.176971e+000
8.426473e+002,3.491348e+000
8.436116e+002,8.473526e+000
8.445758e+002,1.325412e+001
8.455400e+002,1.296739e+001
8.465043e+002,1.029556e+001
8.474685e+002,8.075989e+000
8.484327e+002,7.319870e+000
8.493970e+002,7.525482e+000
8.503612e+002,7.697037e+000
8.513254e+002,7.745438e+000
8.522897e+002,8.023529e+000
8.532539e+002,8.715820e+000
8.542181e+002,9.200287e+000
8.551824e+002,9.036514e+000
8.561466e+002,8.479462e+000
8.571108e+002,8.605087e+000
8.580751e+002,1.000583e+001
8.590393e+002,1.092943e+001
8.600035e+002,1.103822e+001
8.609678e+002,1.054187e+001
8.619320e+002,9.197861e+000
8.628962e+002,7.057831e+000
8.638605e+002,5.481934e+000
8.648247e+002,7.551331e+000
8.657889e+002,1.142682e+001
8.667532e+002,1.292337e+001
8.677174e+002,1.150114e+001
8.686816e+002,9.396545e+000
8.696459e+002,9.254898e+000
8.706101e+002,1.148886e+001
8.715743e+002,1.316170e+001
8.725386e+002,1.450240e+001
8.735028e+002,1.511732e+001
8.744670e+002,1.402936e+001
8.754313e+002,1.214714e+001
8.763955e+002,1.129460e+001
8.773597e+002,1.228452e+001
8.783240e+002,1.388203e+001
8.792882e+002,1.568164e+001
8.802524e+002,1.717319e+001
8.812167e+002,1.762608e+001
8.821809e+002,1.711255e+001
8.831451e+002,1.651236e+001
8.841094e+002,1.700862e+001
8.850736e+002,1.866069e+001
8.860378e+002,1.995247e+001
8.870021e+002,2.065004e+001
8.879663e+002,2.152071e+001
8.889305e+002,2.356195e+001
8.898948e+002,2.622552e+001
8.908590e+002,2.661633e+001
8.918232e+002,2.215065e+001
8.927875e+002,1.969044e+001
8.937517e+002,2.205293e+001
8.947159e+002,2.574782e+001
8.956802e+002,2.792163e+001
8.966444e+002,2.783459e+001
8.976086e+002,2.662892e+001
8.985729e+002,2.503105e+001
8.995371e+002,2.372795e+001
9.005013e+002,2.384103e+001
9.014656e+002,2.520193e+001
9.024298e+002,2.661986e+001
9.033940e+002,2.709067e+001
9.043583e+002,2.667346e+001
9.053225e+002,2.672012e+001
9.062867e+002,2.751833e+001
9.072510e+002,2.825883e+001
9.082152e+002,2.928210e+001
9.091794e+002,3.030307e+001
9.101437e+002,3.089706e+001
9.111079e+002,3.097574e+001
9.120721e+002,3.117638e+001
9.130364e+002,3.222743e+001
9.140006e+002,3.292882e+001
9.149648e+002,3.249332e+001
9.159291e+002,3.133359e+001
9.168933e+002,3.013437e+001
9.178575e+002,2.932690e+001
9.188218e+002,2.889049e+001
9.197860e+002,2.923247e+001
9.207502e+002,3.033942e+001
9.217145e+002,3.062573e+001
9.226787e+002,2.933058e+001
9.236429e+002,2.784665e+001
9.246072e+002,2.835500e+001
9.255714e+002,3.145139e+001
9.265356e+002,3.279599e+001
9.274999e+002,2.995874e+001
9.284641e+002,2.703152e+001
9.294283e+002,2.554361e+001
9.303926e+002,2.504472e+001
9.313568e+002,2.431027e+001
9.323210e+002,2.266692e+001
9.332853e+002,2.091682e+001
9.342495e+002,2.058237e+001
9.352137e+002,2.095044e+001
9.361780e+002,2.117276e+001
9.371422e+002,2.115387e+001
9.381064e+002,2.109573e+001
9.390707e+002,2.112151e+001
9.400349e+002,2.107718e+001
9.409991e+002,2.120804e+001
9.419634e+002,2.162460e+001
9.429276e+002,2.197975e+001
9.438918e+002,2.229320e+001
9.448561e+002,2.250792e+001
9.458203e+002,2.252888e+001
9.467845e+002,2.235231e+001
9.477488e+002,2.209329e+001
9.487130e+002,2.206389e+001
9.496772e+002,2.177707e+001
9.506415e+002,2.037123e+001
9.516057e+002,1.815851e+001
9.525699e+002,1.642900e+001
9.535342e+002,1.642952e+001
9.544984e+002,1.790585e+001
9.554626e+002,1.928587e+001
9.564269e+002,2.097647e+001
9.573911e+002,2.190254e+001
9.583553e+002,2.124461e+001
9.593196e+002,1.979364e+001
9.602838e+002,1.887895e+001
9.612480e+002,1.865497e+001
9.622123e+002,1.832228e+001
9.631765e+002,1.746729e+001
9.641407e+002,1.672375e+001
9.651050e+002,1.619624e+001
9.660692e+002,1.595805e+001
9.670334e+002,1.628955e+001
9.679977e+002,1.745998e+001
9.689619e+002,1.898674e+001
9.699261e+002,1.943654e+001
9.708904e+002,1.905042e+001
9.718546e+002,1.860704e+001
9.728188e+002,1.811801e+001
9.737831e+002,1.801952e+001
9.747473e+002,1.897557e+001
9.757115e+002,2.116040e+001
9.766758e+002,2.375470e+001
9.776400e+002,2.857480e+001
9.786042e+002,3.180348e+001
9.795685e+002,3.185300e+001
9.805327e+002,2.986113e+001
9.814969e+002,2.717412e+001
9.824612e+002,2.431335e+001
9.834254e+002,2.195305e+001
9.843896e+002,2.122281e+001
9.853539e+002,2.081502e+001
9.863181e+002,1.906721e+001
9.872823e+002,1.608734e+001
9.882466e+002,1.331525e+001
9.892108e+002,1.213002e+001
9.901750e+002,1.241551e+001
9.911393e+002,1.206313e+001
9.921035e+002,9.758301e+000
9.930677e+002,8.255676e+000
9.940320e+002,7.507736e+000
9.949962e+002,7.959518e+000
9.959604e+002,1.072768e+001
9.969247e+002,1.571950e+001
9.978889e+002,1.986560e+001
9.988531e+002,2.162616e+001
9.998174e+002,2.170917e+001
1.000782e+003,1.964114e+001
1.001746e+003,1.690938e+001
1.002710e+003,1.575844e+001
1.003674e+003,1.698392e+001
1.004639e+003,1.903583e+001
1.005603e+003,1.915723e+001
1.006567e+003,1.706749e+001
1.007531e+003,1.537082e+001
1.008495e+003,1.376743e+001
1.009460e+003,1.309607e+001
1.010424e+003,1.460822e+001
1.011388e+003,1.763118e+001
1.012352e+003,1.918509e+001
1.013317e+003,1.810054e+001
1.014281e+003,1.699760e+001
1.015245e+003,1.658995e+001
1.016209e+003,1.643683e+001
1.017174e+003,1.665498e+001
1.018138e+003,1.692198e+001
1.019102e+003,1.628474e+001
1.020066e+003,1.383308e+001
1.021031e+003,1.058577e+001
1.021995e+003,9.496170e+000
1.022959e+003,9.987762e+000
1.023923e+003,1.014055e+001
1.024887e+003,9.228424e+000
1.025852e+003,7.816101e+000
1.026816e+003,6.876312e+000
1.027780e+003,6.639832e+000
1.028744e+003,6.266434e+000
1.029709e+003,5.244186e+000
1.030673e+003,4.547623e+000
1.031637e+003,4.756165e+000
1.032601e+003,5.269455e+000
1.033566e+003,5.392960e+000
1.034530e+003,4.903931e+000
1.035494e+003,3.812241e+000
1.036458e+003,1.272476e+000
1.037422e+003,-1.399857e+000
1.038387e+003,-1.746994e+000
1.039351e+003,9.628296e-002
1.040315e+003,2.539322e+000
1.041279e+003,4.648849e+000
1.042244e+003,6.245926e+000
1.043208e+003,5.997314e+000
1.044172e+003,1.565887e+000
1.045136e+003,-8.945313e-001
1.046101e+003,9.103394e-002
1.047065e+003,1.717392e+000
1.048029e+003,2.044922e+000
1.048993e+003,1.320694e+000
1.049958e+003,1.269653e+000
1.050922e+003,3.021301e+000
1.051886e+003,5.048447e+000
1.052850e+003,5.389679e+000
1.053814e+003,5.168594e+000
1.054779e+003,6.280716e+000
1.055743e+003,8.864746e+000
1.056707e+003,1.090649e+001
1.057671e+003,9.891617e+000
1.058636e+003,5.768112e+000
1.059600e+003,3.047348e+000
1.060564e+003,2.362961e+000
1.061528e+003,2.363159e+000
1.062493e+003,3.243042e+000
1.063457e+003,4.275284e+000
1.064421e+003,4.699280e+000
1.065385e+003,4.489182e+000
1.066349e+003,4.324982e+000
1.067314e+003,4.919998e+000
1.068278e+003,5.186783e+000
1.069242e+003,3.929245e+000
1.070206e+003,2.064316e+000
1.071171e+003,8.770142e-001
1.072135e+003,9.069824e-001
1.073099e+003,1.970291e+000
1.074063e+003,3.980652e+000
1.075028e+003,7.194092e+000
1.075992e+003,8.209686e+000
1.076956e+003,5.849548e+000
1.077920e+003,3.509201e+000
1.078885e+003,2.715561e+000
1.079849e+003,2.813690e+000
1.080813e+003,2.341797e+000
1.081777e+003,9.051361e-001
1.082741e+003,1.480865e-001
1.083706e+003,1.559372e+000
1.084670e+003,3.081268e+000
1.085634e+003,3.632385e+000
1.086598e+003,3.400757e+000
1.087563e+003,2.994720e+000
1.088527e+003,2.816040e+000
1.089491e+003,2.797485e+000
1.090455e+003,2.644745e+000
1.091420e+003,2.242813e+000
1.092384e+003,1.546860e+000
1.093348e+003,2.559662e-001
1.094312e+003,-9.667816e-001
1.095276e+003,-2.021667e+000
1.096241e+003,-2.564362e+000
1.097205e+003,-1.350311e+000
1.098169e+003,2.729218e+000
1.099133e+003,5.460892e+000
1.100098e+003,3.977600e+000
1.101062e+003,2.072937e+000
1.102026e+003,2.326080e+000
1.102990e+003,4.179291e+000
1.103955e+003,5.632538e+000
1.104919e+003,5.447815e+000
1.105883e+003,4.321136e+000
1.106847e+003,3.801971e+000
1.107812e+003,3.884445e+000
1.108776e+003,3.625900e+000
1.109740e+003,2.815735e+000
1.110704e+003,2.020874e+000
1.111668e+003,1.473175e+000
1.112633e+003,1.377243e+000
1.113597e+003,2.626022e+000
1.114561e+003,6.410782e+000
1.115525e+003,8.624512e+000
1.116490e+003,7.013672e+000
1.117454e+003,4.589615e+000
1.118418e+003,3.000153e+000
1.119382e+003,2.465469e+000
1.120347e+003,2.703659e+000
1.121311e+003,3.434555e+000
1.122275e+003,4.007278e+000
1.123239e+003,3.103745e+000
1.124203e+003,1.097412e+000
1.125168e+003,7.109222e-001
1.126132e+003,2.666885e+000
1.127096e+003,4.987656e+000
1.128060e+003,6.045288e+000
1.129025e+003,6.093231e+000
1.129989e+003,6.551331e+000
1.130953e+003,7.648834e+000
1.131917e+003,8.721390e+000
1.132882e+003,1.017952e+001
1.133846e+003,1.112216e+001
1.134810e+003,1.021712e+001
1.135774e+003,8.436386e+000
1.136739e+003,8.180801e+000
1.137703e+003,1.075142e+001
1.138667e+003,1.428616e+001
1.139631e+003,1.536050e+001
1.140595e+003,1.428418e+001
1.141560e+003,1.461665e+001
1.142524e+003,1.704103e+001
1.143488e+003,1.933749e+001
1.144452e+003,1.875929e+001
1.145417e+003,1.675645e+001
1.146381e+003,1.929407e+001
1.147345e+003,2.884627e+001
1.148309e+003,3.652017e+001
1.149274e+003,3.851929e+001
1.150238e+003,4.001898e+001
1.151202e+003,4.410931e+001
1.152166e+003,4.970297e+001
1.153130e+003,5.412910e+001
1.154095e+003,5.609212e+001
1.155059e+003,5.682440e+001
1.156023e+003,5.833691e+001
1.156987e+003,6.048126e+001
1.157952e+003,6.173268e+001
1.158916e+003,6.246428e+001
1.159880e+003,6.163544e+001
1.160844e+003,5.775198e+001
1.161809e+003,5.181049e+001
1.162773e+003,4.637686e+001
1.163737e+003,4.159416e+001
1.164701e+003,3.679837e+001
1.165666e+003,3.112459e+001
1.166630e+003,2.633775e+001
1.167594e+003,2.341536e+001
1.168558e+003,2.162183e+001
1.169522e+003,1.986069e+001
1.170487e+003,1.785867e+001
1.171451e+003,1.646033e+001
1.172415e+003,1.669379e+001
1.173379e+003,1.816479e+001
1.174344e+003,1.904037e+001
1.175308e+003,1.942361e+001
1.176272e+003,1.920378e+001
1.177236e+003,1.811180e+001
1.178201e+003,1.665631e+001
1.179165e+003,1.548239e+001
1.180129e+003,1.450861e+001
1.181093e+003,1.293909e+001
1.182057e+003,9.619659e+000
1.183022e+003,7.354980e+000
1.183986e+003,7.742783e+000
1.184950e+003,9.143982e+000
1.185914e+003,1.005185e+001
1.186879e+003,1.032224e+001
1.187843e+003,1.083977e+001
1.188807e+003,1.231569e+001
1.189771e+003,1.413380e+001
1.190736e+003,1.444688e+001
1.191700e+003,1.305568e+001
1.192664e+003,1.203897e+001
1.193628e+003,1.211810e+001
1.194593e+003,1.203621e+001
1.195557e+003,1.033109e+001
1.196521e+003,7.666229e+000
1.197485e+003,6.812759e+000
1.198449e+003,9.080536e+000
1.199414e+003,1.036336e+001
1.200378e+003,7.465668e+000
1.201342e+003,4.214325e+000
1.202306e+003,2.992249e+000
1.203271e+003,3.291153e+000
1.204235e+003,3.582672e+000
1.205199e+003,3.123917e+000
1.206163e+003,2.474792e+000
1.207128e+003,2.602432e+000
1.208092e+003,3.589050e+000
1.209056e+003,3.462204e+000
1.210020e+003,1.581680e+000
1.210984e+003,8.338928e-002
1.211949e+003,8.232117e-002
1.212913e+003,4.210663e-001
1.213877e+003,-5.035248e-001
1.214841e+003,-2.726486e+000
1.215806e+003,-4.655731e+000
1.216770e+003,-5.344513e+000
1.217734e+003,-6.209457e+000
1.218698e+003,-9.003876e+000
1.219663e+003,-1.216481e+001
1.220627e+003,-1.352722e+001
1.221591e+003,-1.291467e+001
1.222555e+003,-1.189546e+001
1.223520e+003,-1.190184e+001
1.224484e+003,-1.262900e+001
1.225448e+003,-1.281932e+001
1.226412e+003,-1.225757e+001
1.227376e+003,-1.163342e+001
1.228341e+003,-1.049805e+001
1.229305e+003,-9.874023e+000
1.230269e+003,-1.055251e+001
1.231233e+003,-1.208334e+001
1.232198e+003,-1.374960e+001
1.233162e+003,-1.537947e+001
1.234126e+003,-1.606383e+001
1.235090e+003,-1.447049e+001
1.236055e+003,-1.236978e+001
1.237019e+003,-1.185365e+001
1.237983e+003,-1.243379e+001
1.238947e+003,-1.255156e+001
1.239911e+003,-1.150912e+001
1.240876e+003,-1.002596e+001
1.241840e+003,-9.230820e+000
1.242804e+003,-9.160492e+000
1.243768e+003,-8.974152e+000
1.244733e+003,-7.735443e+000
1.245697e+003,-7.718552e+000
1.246661e+003,-1.075935e+001
1.247625e+003,-1.378656e+001
1.248590e+003,-1.406670e+001
1.249554e+003,-1.214961e+001
1.250518e+003,-1.050917e+001
1.251482e+003,-1.031610e+001
1.252447e+003,-1.070483e+001
1.253411e+003,-1.057526e+001
1.254375e+003,-1.017111e+001
1.255339e+003,-1.026965e+001
1.256303e+003,-1.081221e+001
1.257268e+003,-1.085048e+001
1.258232e+003,-9.772339e+000
1.259196e+003,-8.231171e+000
1.260160e+003,-7.419220e+000
1.261125e+003,-7.380707e+000
1.262089e+003,-7.225983e+000
1.263053e+003,-6.901199e+000
1.264017e+003,-6.618759e+000
1.264982e+003,-6.745972e+000
1.265946e+003,-6.627716e+000
1.266910e+003,-5.244003e+000
1.267874e+003,-2.957581e+000
1.268839e+003,-1.202133e+000
1.269803e+003,-9.238892e-001
1.270767e+003,-1.706497e+000
1.271731e+003,-2.971695e+000
1.272695e+003,-4.616074e+000
1.273660e+003,-5.510727e+000
1.274624e+003,-5.547073e+000
1.275588e+003,-5.506683e+000
1.276552e+003,-5.326462e+000
1.277517e+003,-5.356644e+000
1.278481e+003,-6.764893e+000
1.279445e+003,-9.811356e+000
1.280409e+003,-1.188312e+001
1.281374e+003,-1.186548e+001
1.282338e+003,-1.092979e+001
1.283302e+003,-9.016846e+000
1.284266e+003,-7.055283e+000
1.285230e+003,-6.143524e+000
1.286195e+003,-6.363144e+000
1.287159e+003,-6.933472e+000
1.288123e+003,-7.170807e+000
1.289087e+003,-7.283035e+000
1.290052e+003,-8.170258e+000
1.291016e+003,-1.047812e+001
1.291980e+003,-1.142191e+001
1.292944e+003,-1.026912e+001
1.293909e+003,-9.026901e+000
1.294873e+003,-8.012863e+000
1.295837e+003,-7.434998e+000
1.296801e+003,-7.789993e+000
1.297766e+003,-9.057510e+000
1.298730e+003,-1.036581e+001
1.299694e+003,-1.141542e+001
1.300658e+003,-1.220135e+001
1.301622e+003,-1.272815e+001
1.302587e+003,-1.293591e+001
1.303551e+003,-1.264079e+001
1.304515e+003,-1.182234e+001
1.305479e+003,-1.090526e+001
1.306444e+003,-1.035060e+001
1.307408e+003,-9.937088e+000
1.308372e+003,-8.540680e+000
1.309336e+003,-5.311600e+000
1.310301e+003,-3.803207e+000
1.311265e+003,-5.517288e+000
1.312229e+003,-7.162827e+000
1.313193e+003,-7.843369e+000
1.314157e+003,-8.002014e+000
1.315122e+003,-8.038345e+000
1.316086e+003,-8.140839e+000
1.317050e+003,-8.508820e+000
1.318014e+003,-9.260651e+000
1.318979e+003,-9.988541e+000
1.319943e+003,-9.898575e+000
1.320907e+003,-9.081451e+000
1.321871e+003,-8.879852e+000
1.322836e+003,-9.715729e+000
1.323800e+003,-1.032649e+001
1.324764e+003,-9.766266e+000
1.325728e+003,-8.667404e+000
1.326693e+003,-8.253052e+000
1.327657e+003,-8.627213e+000
1.328621e+003,-8.719788e+000
1.329585e+003,-8.020920e+000
1.330549e+003,-6.783051e+000
1.331514e+003,-4.626602e+000
1.332478e+003,-2.878235e+000
1.333442e+003,-3.017578e+000
1.334406e+003,-4.703964e+000
1.335371e+003,-6.573120e+000
1.336335e+003,-7.770752e+000
1.337299e+003,-8.378998e+000
1.338263e+003,-8.574554e+000
1.339228e+003,-8.328659e+000
1.340192e+003,-7.883118e+000
1.341156e+003,-6.366531e+000
1.342120e+003,-5.936844e+000
1.343084e+003,-7.997955e+000
1.344049e+003,-1.045451e+001
1.345013e+003,-1.175119e+001
1.345977e+003,-1.177907e+001
1.346941e+003,-1.074969e+001
1.347906e+003,-8.689438e+000
1.348870e+003,-6.438690e+000
1.349834e+003,-4.483200e+000
1.350798e+003,-3.187347e+000
1.351763e+003,-3.143982e+000
1.352727e+003,-4.145554e+000
1.353691e+003,-5.218781e+000
1.354655e+003,-6.124176e+000
1.355620e+003,-6.557938e+000
1.356584e+003,-5.533539e+000
1.357548e+003,-3.367722e+000
1.358512e+003,-3.596313e+000
1.359476e+003,-7.836395e+000
1.360441e+003,-1.089174e+001
1.361405e+003,-1.065074e+001
1.362369e+003,-9.716110e+000
1.363333e+003,-9.304749e+000
1.364298e+003,-9.008347e+000
1.365262e+003,-7.675140e+000
1.366226e+003,-5.379166e+000
1.367190e+003,-3.899994e+000
1.368155e+003,-4.858932e+000
1.369119e+003,-7.316742e+000
1.370083e+003,-8.240891e+000
1.371047e+003,-7.020554e+000
1.372011e+003,-6.607208e+000
1.372976e+003,-7.672562e+000
1.373940e+003,-8.834641e+000
1.374904e+003,-1.010498e+001
1.375868e+003,-1.077916e+001
1.376833e+003,-9.350693e+000
1.377797e+003,-6.195053e+000
1.378761e+003,-4.427078e+000
1.379725e+003,-5.718674e+000
1.380690e+003,-7.496979e+000
1.381654e+003,-6.551910e+000
1.382618e+003,-4.686676e+000
1.383582e+003,-4.968063e+000
1.384547e+003,-7.129471e+000
1.385511e+003,-7.844086e+000
1.386475e+003,-5.160141e+000
1.387439e+003,-1.417892e+000
1.388403e+003,-2.392273e-001
1.389368e+003,-1.628204e+000
1.390332e+003,-2.920044e+000
1.391296e+003,-4.034348e+000
1.392260e+003,-4.927032e+000
1.393225e+003,-5.493866e+000
1.394189e+003,-6.017548e+000
1.395153e+003,-7.082932e+000
1.396117e+003,-8.017227e+000
1.397082e+003,-7.351425e+000
1.398046e+003,-5.058426e+000
1.399010e+003,-3.161560e+000
1.399974e+003,-3.615219e+000
1.400938e+003,-5.657028e+000
1.401903e+003,-6.546402e+000
1.402867e+003,-5.694183e+000
1.403831e+003,-4.862366e+000
1.404795e+003,-4.659637e+000
1.405760e+003,-3.923325e+000
1.406724e+003,-1.572281e+000
1.407688e+003,7.020264e-001
1.408652e+003,1.122940e+000
1.409617e+003,-1.956329e-001
1.410581e+003,-2.564468e+000
1.411545e+003,-6.074036e+000
1.412509e+003,-8.650696e+000
1.413474e+003,-7.551392e+000
1.414438e+003,-4.803131e+000
1.415402e+003,-3.531342e+000
1.416366e+003,-3.561920e+000
1.417330e+003,-3.808044e+000
1.418295e+003,-3.890442e+000
1.419259e+003,-3.891953e+000
1.420223e+003,-4.012100e+000
1.421187e+003,-4.259872e+000
1.422152e+003,-4.221481e+000
1.423116e+003,-3.609970e+000
1.424080e+003,-3.250107e+000
1.425044e+003,-3.934891e+000
1.426009e+003,-4.506973e+000
1.426973e+003,-4.595093e+000
1.427937e+003,-4.247345e+000
1.428901e+003,-3.343445e+000
1.429865e+003,-2.000763e+000
1.430830e+003,-6.471863e-001
1.431794e+003,3.851624e-001
1.432758e+003,1.115479e+000
1.433722e+003,1.719299e+000
1.434687e+003,2.370926e+000
1.435651e+003,2.700851e+000
1.436615e+003,2.017578e+000
1.437579e+003,1.329224e+000
1.438544e+003,7.330627e-001
1.439508e+003,2.438660e-001
1.440472e+003,-2.398071e-001
1.441436e+003,-4.427795e-001
1.442401e+003,3.789825e-001
1.443365e+003,2.192551e+000
1.444329e+003,3.272873e+000
1.445293e+003,2.132248e+000
1.446257e+003,2.813721e-001
1.447222e+003,1.016144e+000
1.448186e+003,3.659912e+000
1.449150e+003,4.376114e+000
1.450114e+003,2.385345e+000
1.451079e+003,1.990967e-001
1.452043e+003,-9.594116e-001
1.453007e+003,-1.428085e+000
1.453971e+003,-1.701584e+000
1.454936e+003,-1.817093e+000
1.455900e+003,-1.608658e+000
1.456864e+003,-9.163971e-001
1.457828e+003,-1.311798e-001
1.458792e+003,7.564850e-001
1.459757e+003,1.281219e+000
1.460721e+003,7.081604e-001
1.461685e+003,-4.221497e-001
1.462649e+003,-1.006973e+000
1.463614e+003,-7.163544e-001
1.464578e+003,9.976196e-002
1.465542e+003,1.215103e+000
1.466506e+003,2.323441e+000
1.467471e+003,2.487167e+000
1.468435e+003,1.502029e+000
1.469399e+003,1.246552e+000
1.470363e+003,2.632523e+000
1.471328e+003,3.311768e+000
1.472292e+003,1.817490e+000
1.473256e+003,1.655884e-001
1.474220e+003,4.280396e-001
1.475184e+003,1.713104e+000
1.476149e+003,1.639130e+000
1.477113e+003,-3.950958e-001
1.478077e+003,-2.426712e+000
1.479041e+003,-2.457214e+000
1.480006e+003,-9.757538e-001
1.480970e+003,2.062073e-001
1.481934e+003,8.833313e-001
1.482898e+003,1.650436e+000
1.483863e+003,2.740433e+000
1.484827e+003,3.531281e+000
1.485791e+003,3.955322e+000
1.486755e+003,4.103149e+000
1.487719e+003,3.725693e+000
1.488684e+003,3.072983e+000
1.489648e+003,2.979172e+000
1.490612e+003,3.731842e+000
1.491576e+003,4.344376e+000
1.492541e+003,3.623154e+000
1.493505e+003,2.773422e+000
1.494469e+003,5.378799e+000
1.495433e+003,1.054535e+001
1.496398e+003,1.306789e+001
1.497362e+003,1.180508e+001
1.498326e+003,1.018910e+001
1.499290e+003,9.453323e+000
1.500255e+003,9.702744e+000
1.501219e+003,1.138130e+001
1.502183e+003,1.422525e+001
1.503147e+003,1.693475e+001
1.504111e+003,1.920393e+001
1.505076e+003,2.147734e+001
1.506040e+003,2.443063e+001
1.507004e+003,2.706323e+001
1.507968e+003,2.757530e+001
1.508933e+003,2.730278e+001
1.509897e+003,2.898384e+001
1.510861e+003,3.326488e+001
1.511825e+003,3.931215e+001
1.512790e+003,4.696440e+001
1.513754e+003,5.492487e+001
1.514718e+003,6.063541e+001
1.515682e+003,6.402293e+001
1.516646e+003,6.773369e+001
1.517611e+003,7.209840e+001
1.518575e+003,7.677957e+001
1.519539e+003,8.343524e+001
1.520503e+003,8.872531e+001
1.521468e+003,9.028136e+001
1.522432e+003,8.956303e+001
1.523396e+003,8.852347e+001
1.524360e+003,8.756808e+001
1.525325e+003,8.611618e+001
1.526289e+003,8.382043e+001
1.527253e+003,8.109062e+001
1.528217e+003,7.874123e+001
1.529182e+003,7.687402e+001
1.530146e+003,7.323193e+001
1.531110e+003,6.666513e+001
1.532074e+003,6.025652e+001
1.533039e+003,5.431679e+001
1.534003e+003,4.803600e+001
1.534967e+003,4.032620e+001
1.535931e+003,3.298140e+001
1.536896e+003,2.845604e+001
1.537860e+003,2.630138e+001
1.538824e+003,2.383972e+001
1.539788e+003,1.969164e+001
1.540752e+003,1.532782e+001
1.541717e+003,1.274478e+001
1.542681e+003,1.174669e+001
1.543645e+003,1.066513e+001
1.544609e+003,9.412323e+000
1.545573e+003,8.630508e+000
1.546538e+003,7.954361e+000
1.547502e+003,7.900528e+000
1.548466e+003,9.367096e+000
1.549430e+003,1.123975e+001
1.550395e+003,1.259027e+001
1.551359e+003,1.315718e+001
1.552323e+003,1.252943e+001
1.553287e+003,1.068468e+001
1.554252e+003,8.933289e+000
1.555216e+003,8.475266e+000
1.556180e+003,8.696640e+000
1.557144e+003,8.149979e+000
1.558109e+003,6.844910e+000
1.559073e+003,5.868607e+000
1.560037e+003,5.323898e+000
1.561001e+003,4.593857e+000
1.561966e+003,2.680588e+000
1.562930e+003,1.520248e+000
1.563894e+003,3.821823e+000
1.564858e+003,7.947632e+000
1.565823e+003,9.600052e+000
1.566787e+003,8.066147e+000
1.567751e+003,6.686691e+000
1.568715e+003,7.455475e+000
1.569679e+003,8.894882e+000
1.570644e+003,9.225677e+000
1.571608e+003,8.608475e+000
1.572572e+003,7.382507e+000
1.573536e+003,5.579330e+000
1.574500e+003,5.450317e+000
1.575465e+003,8.905716e+000
1.576429e+003,1.230525e+001
1.577393e+003,1.215491e+001
1.578357e+003,1.005553e+001
1.579322e+003,9.213287e+000
1.580286e+003,9.816254e+000
1.581250e+003,1.049886e+001
1.582214e+003,1.089728e+001
1.583179e+003,1.108549e+001
1.584143e+003,1.091089e+001
1.585107e+003,1.062605e+001
1.586071e+003,1.078209e+001
1.587036e+003,1.132483e+001
1.588000e+003,1.169438e+001
1.588964e+003,1.168303e+001
1.589928e+003,1.163176e+001
1.590893e+003,1.172513e+001
1.591857e+003,1.198256e+001
1.592821e+003,1.253883e+001
1.593785e+003,1.333611e+001
1.594750e+003,1.388429e+001
1.595714e+003,1.402570e+001
1.596678e+003,1.426541e+001
1.597642e+003,1.510709e+001
1.598606e+003,1.567752e+001
1.599571e+003,1.483852e+001
1.600535e+003,1.366330e+001
1.601499e+003,1.350845e+001
1.602463e+003,1.435262e+001
1.603427e+003,1.564548e+001
1.604392e+003,1.726369e+001
1.605356e+003,1.856839e+001
1.606320e+003,1.877510e+001
1.607284e+003,1.823061e+001
1.608249e+003,1.799825e+001
1.609213e+003,1.810605e+001
1.610177e+003,1.752933e+001
1.611141e+003,1.560896e+001
1.612106e+003,1.423143e+001
1.613070e+003,1.475084e+001
1.614034e+003,1.574101e+001
1.614998e+003,1.624129e+001
1.615963e+003,1.648685e+001
1.616927e+003,1.690335e+001
1.617891e+003,1.754185e+001
1.618855e+003,1.837259e+001
1.619820e+003,1.947839e+001
1.620784e+003,1.992883e+001
1.621748e+003,1.775868e+001
1.622712e+003,1.383998e+001
1.623677e+003,1.320267e+001
1.624641e+003,1.658836e+001
1.625605e+003,1.914308e+001
1.626569e+003,1.931723e+001
1.627533e+003,1.884006e+001
1.628498e+003,1.824736e+001
1.629462e+003,1.791223e+001
1.630426e+003,1.843842e+001
1.631390e+003,1.934799e+001
1.632354e+003,1.942842e+001
1.633319e+003,1.849846e+001
1.634283e+003,1.793465e+001
1.635247e+003,1.886465e+001
1.636211e+003,2.032970e+001
1.637176e+003,2.065332e+001
1.638140e+003,1.994658e+001
1.639104e+003,1.916541e+001
1.640068e+003,1.826935e+001
1.641033e+003,1.730447e+001
1.641997e+003,1.575316e+001
1.642961e+003,1.502541e+001
1.643925e+003,1.664818e+001
1.644890e+003,1.865488e+001
1.645854e+003,1.887320e+001
1.646818e+003,1.779039e+001
1.647782e+003,1.716750e+001
1.648747e+003,1.752405e+001
1.649711e+003,1.798480e+001
1.650675e+003,1.790076e+001
1.651639e+003,1.750351e+001
1.652604e+003,1.701631e+001
1.653568e+003,1.639925e+001
1.654532e+003,1.622682e+001
1.655496e+003,1.662967e+001
1.656460e+003,1.714497e+001
1.657425e+003,1.801663e+001
1.658389e+003,1.854106e+001
1.659353e+003,1.799290e+001
1.660317e+003,1.718285e+001
1.661281e+003,1.735274e+001
1.662246e+003,1.797986e+001
1.663210e+003,1.709102e+001
1.664174e+003,1.416261e+001
1.665138e+003,1.164574e+001
1.666103e+003,1.167371e+001
1.667067e+003,1.318054e+001
1.668031e+003,1.449545e+001
1.668995e+003,1.555952e+001
1.669960e+003,1.483749e+001
1.670924e+003,1.159116e+001
1.671888e+003,9.370346e+000
1.672852e+003,9.527420e+000
1.673817e+003,1.049315e+001
1.674781e+003,1.198814e+001
1.675745e+003,1.317400e+001
1.676709e+003,1.285677e+001
1.677674e+003,1.139804e+001
1.678638e+003,9.949997e+000
1.679602e+003,8.890533e+000
1.680566e+003,8.495667e+000
1.681531e+003,9.324814e+000
1.682495e+003,1.061604e+001
1.683459e+003,1.105844e+001
1.684423e+003,1.064735e+001
1.685387e+003,9.419250e+000
1.686352e+003,7.174683e+000
1.687316e+003,6.158981e+000
1.688280e+003,7.740585e+000
1.689244e+003,9.466064e+000
1.690208e+003,9.410538e+000
1.691173e+003,8.553314e+000
1.692137e+003,7.811584e+000
1.693101e+003,7.294449e+000
1.694065e+003,7.016373e+000
1.695030e+003,6.914444e+000
1.695994e+003,6.529938e+000
1.696958e+003,5.265396e+000
1.697922e+003,4.072128e+000
1.698887e+003,4.223358e+000
1.699851e+003,5.422043e+000
1.700815e+003,7.046387e+000
1.701779e+003,8.937866e+000
1.702744e+003,9.390213e+000
1.703708e+003,7.699188e+000
1.704672e+003,5.544586e+000
1.705636e+003,3.343140e+000
1.706601e+003,1.914047e+000
1.707565e+003,3.863739e+000
1.708529e+003,7.735458e+000
1.709493e+003,8.125870e+000
1.710458e+003,3.981110e+000
1.711422e+003,4.079285e-001
1.712386e+003,-5.227356e-001
1.713350e+003,9.689331e-003
1.714314e+003,1.813644e+000
1.715279e+003,3.862366e+000
1.716243e+003,4.307053e+000
1.717207e+003,3.376419e+000
1.718171e+003,2.781631e+000
1.719135e+003,3.016479e+000
1.720100e+003,3.473907e+000
1.721064e+003,3.769485e+000
1.722028e+003,3.907425e+000
1.722992e+003,4.047440e+000
1.723957e+003,4.197266e+000
1.724921e+003,3.770920e+000
1.725885e+003,2.477173e+000
1.726849e+003,1.439575e+000
1.727814e+003,7.286530e-001
1.728778e+003,7.880249e-001
1.729742e+003,2.584625e+000
1.730706e+003,4.471024e+000
1.731671e+003,4.411072e+000
1.732635e+003,3.153427e+000
1.733599e+003,2.970215e+000
1.734563e+003,4.072357e+000
1.735528e+003,4.305344e+000
1.736492e+003,2.492065e+000
1.737456e+003,1.423950e-001
1.738420e+003,-1.016693e+000
1.739385e+003,-1.199722e+000
1.740349e+003,-8.449402e-001
1.741313e+003,3.409882e-001
1.742277e+003,9.194031e-001
1.743241e+003,2.666473e-001
1.744206e+003,1.733704e-001
1.745170e+003,1.819351e+000
1.746134e+003,2.867462e+000
1.747098e+003,1.261353e+000
1.748063e+003,-1.079422e+000
1.749027e+003,-1.726501e+000
1.749991e+003,-1.005630e+000
1.750955e+003,-7.862701e-001
1.751919e+003,-1.643509e+000
1.752884e+003,-2.424332e+000
1.753848e+003,-2.168472e+000
1.754812e+003,-1.399979e+000
1.755776e+003,-1.156708e+000
1.756741e+003,-1.324524e+000
1.757705e+003,-6.486053e-001
1.758669e+003,1.479385e+000
1.759633e+003,2.424835e+000
1.760598e+003,1.216049e+000
1.761562e+003,-3.572388e-001
1.762526e+003,-1.985657e+000
1.763490e+003,-3.372910e+000
1.764455e+003,-4.325546e+000
1.765419e+003,-4.889114e+000
1.766383e+003,-5.503525e+000
1.767347e+003,-5.989319e+000
1.768312e+003,-4.885727e+000
1.769276e+003,-1.474426e+000
1.770240e+003,1.395905e+000
1.771204e+003,3.011627e-001
1.772168e+003,-2.691040e+000
1.773133e+003,-2.643082e+000
1.774097e+003,4.444885e-002
1.775061e+003,1.289124e+000
1.776025e+003,4.713898e-001
1.776990e+003,-9.375000e-001
1.777954e+003,-2.934311e+000
1.778918e+003,-4.001099e+000
1.779882e+003,-2.077423e+000
1.780846e+003,4.406128e-001
1.781811e+003,-3.573608e-002
1.782775e+003,-2.517105e+000
1.783739e+003,-3.754929e+000
1.784703e+003,-3.201828e+000
1.785668e+003,-2.186676e+000
1.786632e+003,-8.423157e-001
1.787596e+003,2.250671e-002
1.788560e+003,-4.337158e-001
1.789525e+003,-1.304932e+000
1.790489e+003,-1.401657e+000
1.791453e+003,-9.412079e-001
1.792417e+003,-7.836304e-001
1.793382e+003,-1.062714e+000
1.794346e+003,-1.109253e+000
1.795310e+003,-5.561066e-001
1.796274e+003,2.459717e-002
1.797239e+003,1.260376e-002
1.798203e+003,-2.951355e-001
1.799167e+003,-3.239746e-001
1.800131e+003,-2.575531e-001
1.801095e+003,1.922607e-002
1.802060e+003,1.367676e+000
1.803024e+003,1.893677e+000
1.803988e+003,2.298431e-001
1.804952e+003,-9.619141e-001
1.805917e+003,4.833984e-001
1.806881e+003,2.231339e+000
1.807845e+003,1.520752e+000
1.808809e+003,-6.244507e-001
1.809773e+003,-1.737152e+000
1.810738e+003,-1.264465e+000
1.811702e+003,-1.832428e-001
1.812666e+003,8.618011e-001
1.813630e+003,1.659073e+000
1.814595e+003,1.879166e+000
1.815559e+003,1.648041e+000
1.816523e+003,1.610687e+000
1.817487e+003,1.823334e+000
1.818452e+003,1.836914e+000
1.819416e+003,1.623489e+000
1.820380e+003,1.492676e+000
1.821344e+003,1.508774e+000
1.822309e+003,1.464325e+000
1.823273e+003,1.275635e+000
1.824237e+003,1.072601e+000
1.825201e+003,1.063248e+000
1.826166e+003,1.047318e+000
1.827130e+003,4.222565e-001
1.828094e+003,-9.193268e-001
1.829058e+003,-2.031219e+000
1.830022e+003,-2.455658e+000
1.830987e+003,-2.380814e+000
1.831951e+003,-1.614441e+000
1.832915e+003,-6.923370e-001
1.833879e+003,-3.807831e-001
1.834844e+003,-6.090546e-001
1.835808e+003,-1.343552e+000
1.836772e+003,-2.392563e+000
1.837736e+003,-2.311005e+000
1.838700e+003,-4.591675e-001
1.839665e+003,1.255386e+000
1.840629e+003,1.048660e+000
1.841593e+003,-1.511993e-001
1.842557e+003,-4.211121e-001
1.843522e+003,2.176971e-001
1.844486e+003,4.159546e-001
1.845450e+003,1.379547e-001
1.846414e+003,-3.090363e-001
1.847379e+003,-2.072266e+000
1.848343e+003,-2.712936e+000
1.849307e+003,4.988098e-002
1.850271e+003,2.641312e+000
1.851236e+003,1.969406e+000
1.852200e+003,-7.348633e-002
1.853164e+003,-7.830658e-001
1.854128e+003,-1.690521e-001
1.855093e+003,3.500366e-001
1.856057e+003,3.001099e-001
1.857021e+003,2.605286e-001
1.857985e+003,7.082367e-001
1.858949e+003,1.170929e+000
1.859914e+003,5.748138e-001
1.860878e+003,-7.264099e-001
1.861842e+003,-6.240082e-001
1.862806e+003,9.065552e-001
1.863771e+003,1.663834e+000
1.864735e+003,1.106400e+000
1.865699e+003,4.764862e-001
1.866663e+003,6.511688e-001
1.867627e+003,3.770447e-001
1.868592e+003,-2.548843e+000
1.869556e+003,-6.127213e+000
1.870520e+003,-5.842224e+000
1.871484e+003,-2.399948e+000
1.872449e+003,-5.836792e-001
1.873413e+003,-1.096252e+000
1.874377e+003,-1.233337e+000
1.875341e+003,-2.954407e-001
1.876306e+003,8.422394e-001
1.877270e+003,2.221375e+000
1.878234e+003,3.063126e+000
1.879198e+003,1.919418e+000
1.880163e+003,4.695129e-002
1.881127e+003,-1.678467e-003
1.882091e+003,1.708206e+000
1.883055e+003,3.162201e+000
1.884020e+003,3.470276e+000
1.884984e+003,3.154663e+000
1.885948e+003,2.683044e+000
1.886912e+003,2.124268e+000
1.887876e+003,1.653000e+000
1.888841e+003,1.250320e+000
1.889805e+003,4.240723e-001
1.890769e+003,-1.101700e+000
1.891733e+003,-1.471771e+000
1.892698e+003,-8.836365e-002
1.893662e+003,1.264755e+000
1.894626e+003,2.225815e+000
1.895590e+003,2.729675e+000
1.896554e+003,2.234924e+000
1.897519e+003,1.706879e+000
1.898483e+003,2.632858e+000
1.899447e+003,4.393631e+000
1.900411e+003,4.983109e+000
1.901376e+003,4.065338e+000
1.902340e+003,2.797897e+000
1.903304e+003,1.178726e+000
1.904268e+003,-3.866577e-002
1.905233e+003,-5.741882e-002
1.906197e+003,2.926331e-001
1.907161e+003,-1.095123e-001
1.908125e+003,-6.048279e-001
1.909090e+003,2.509003e-001
1.910054e+003,2.176514e+000
1.911018e+003,3.716064e+000
1.911982e+003,4.391891e+000
1.912947e+003,4.595428e+000
1.913911e+003,4.591888e+000
1.914875e+003,4.343094e+000
1.915839e+003,3.677078e+000
1.916803e+003,2.755234e+000
1.917768e+003,2.940155e+000
1.918732e+003,4.615646e+000
1.919696e+003,5.253021e+000
1.920660e+003,4.552826e+000
1.921625e+003,3.629379e+000
1.922589e+003,1.744904e+000
1.923553e+003,1.128372e+000
1.924517e+003,4.463013e+000
1.925481e+003,8.266663e+000
1.926446e+003,9.667923e+000
1.927410e+003,9.266846e+000
1.928374e+003,7.828857e+000
1.929338e+003,5.573441e+000
1.930303e+003,4.425140e+000
1.931267e+003,5.419037e+000
1.932231e+003,6.198776e+000
1.933195e+003,5.245987e+000
1.934160e+003,4.063721e+000
1.935124e+003,3.768814e+000
1.936088e+003,3.793610e+000
1.937052e+003,3.377548e+000
1.938017e+003,2.840164e+000
1.938981e+003,3.217010e+000
1.939945e+003,4.318039e+000
1.940909e+003,4.446609e+000
1.941874e+003,2.930099e+000
1.942838e+003,1.370636e+000
1.943802e+003,1.326309e+000
1.944766e+003,2.350204e+000
1.945730e+003,3.578629e+000
1.946695e+003,4.816315e+000
1.947659e+003,4.576431e+000
1.948623e+003,2.568130e+000
1.949587e+003,2.454987e+000
1.950552e+003,5.399948e+000
1.951516e+003,7.147186e+000
1.952480e+003,5.741455e+000
1.953444e+003,3.976044e+000
1.954408e+003,3.643204e+000
1.955373e+003,4.053299e+000
1.956337e+003,4.468994e+000
1.957301e+003,4.984451e+000
1.958265e+003,5.812637e+000
1.959230e+003,7.126007e+000
1.960194e+003,7.364563e+000
1.961158e+003,5.083694e+000
1.962122e+003,3.295837e+000
1.963087e+003,3.082916e+000
1.964051e+003,3.230942e+000
1.965015e+003,2.901321e+000
1.965979e+003,2.883041e+000
1.966944e+003,4.551376e+000
1.967908e+003,6.745728e+000
1.968872e+003,7.293762e+000
1.969836e+003,6.129700e+000
1.970801e+003,4.629730e+000
1.971765e+003,3.453995e+000
1.972729e+003,2.783310e+000
1.973693e+003,2.766724e+000
1.974657e+003,3.296127e+000
1.975622e+003,4.535980e+000
1.976586e+003,6.020462e+000
1.977550e+003,6.554642e+000
1.978514e+003,6.254196e+000
1.979479e+003,5.618958e+000
1.980443e+003,4.753815e+000
1.981407e+003,4.272186e+000
1.982371e+003,4.447479e+000
1.983335e+003,4.848221e+000
1.984300e+003,5.124771e+000
1.985264e+003,5.246567e+000
1.986228e+003,5.169769e+000
1.987192e+003,5.011154e+000
1.988157e+003,5.435593e+000
1.989121e+003,6.677277e+000
1.990085e+003,7.476700e+000
1.991049e+003,7.887680e+000
1.992014e+003,7.844437e+000
1.992978e+003,6.465286e+000
1.993942e+003,5.728348e+000
1.994906e+003,7.252121e+000
1.995871e+003,8.689941e+000
1.996835e+003,7.664764e+000
1.997799e+003,5.911423e+000
1.998763e+003,6.363342e+000
1.999728e+003,8.517044e+000
