5.003444e+002,4.262138e+001
5.013087e+002,4.414137e+001
5.022729e+002,4.398129e+001
5.032371e+002,4.245026e+001
5.042014e+002,4.023224e+001
5.051656e+002,3.752071e+001
5.061298e+002,3.523283e+001
5.070941e+002,3.419824e+001
5.080583e+002,3.458388e+001
5.090225e+002,3.497261e+001
5.099868e+002,3.568651e+001
5.109510e+002,3.608594e+001
5.119152e+002,3.557086e+001
5.128795e+002,3.404774e+001
5.138437e+002,3.317250e+001
5.148079e+002,3.379677e+001
5.157722e+002,3.496883e+001
5.167364e+002,3.682098e+001
5.177006e+002,3.896815e+001
5.186649e+002,4.042531e+001
5.196291e+002,3.986888e+001
5.205933e+002,3.817842e+001
5.215576e+002,3.552391e+001
5.225218e+002,3.212816e+001
5.234860e+002,2.899034e+001
5.244503e+002,2.809595e+001
5.254145e+002,3.057706e+001
5.263787e+002,3.170164e+001
5.273430e+002,3.076016e+001
5.283072e+002,2.895821e+001
5.292714e+002,2.782159e+001
5.302357e+002,2.728270e+001
5.311999e+002,2.728911e+001
5.321641e+002,2.845197e+001
5.331284e+002,2.988264e+001
5.340926e+002,3.098355e+001
5.350568e+002,3.149181e+001
5.360211e+002,3.113673e+001
5.369853e+002,2.961642e+001
5.379495e+002,2.756744e+001
5.389138e+002,2.485341e+001
5.398780e+002,2.167709e+001
5.408422e+002,1.895358e+001
5.418065e+002,2.009117e+001
5.427707e+002,2.443768e+001
5.437349e+002,2.745966e+001
5.446992e+002,2.776857e+001
5.456634e+002,2.604788e+001
5.466276e+002,2.475774e+001
5.475919e+002,2.426474e+001
5.485561e+002,2.395720e+001
5.495203e+002,2.379071e+001
5.504846e+002,2.368819e+001
5.514488e+002,2.360001e+001
5.524130e+002,2.357301e+001
5.533773e+002,2.365273e+001
5.543415e+002,2.463123e+001
5.553057e+002,2.537141e+001
5.562700e+002,2.410945e+001
5.572342e+002,1.978899e+001
5.581984e+002,1.457590e+001
5.591627e+002,1.450481e+001
5.601269e+002,1.771964e+001
5.610911e+002,2.052635e+001
5.620554e+002,2.100539e+001
5.630196e+002,1.932730e+001
5.639838e+002,1.741606e+001
5.649481e+002,1.453754e+001
5.659123e+002,1.249110e+001
5.668765e+002,1.223761e+001
5.678408e+002,1.324110e+001
5.688050e+002,1.376971e+001
5.697692e+002,1.298781e+001
5.707335e+002,1.179022e+001
5.716977e+002,9.965836e+000
5.726619e+002,8.184067e+000
5.736262e+002,7.277023e+000
5.745904e+002,7.871201e+000
5.755546e+002,9.474747e+000
5.765189e+002,1.186028e+001
5.774831e+002,1.422180e+001
5.784473e+002,1.497719e+001
5.794116e+002,1.311578e+001
5.803758e+002,9.056183e+000
5.813400e+002,7.163086e+000
5.823043e+002,7.555344e+000
5.832685e+002,8.384521e+000
5.842327e+002,9.509796e+000
5.851970e+002,1.089484e+001
5.861612e+002,1.174976e+001
5.871254e+002,1.128178e+001
5.880897e+002,1.078030e+001
5.890539e+002,9.952103e+000
5.900181e+002,9.280304e+000
5.909824e+002,9.882980e+000
5.919466e+002,1.337535e+001
5.929108e+002,1.627818e+001
5.938751e+002,1.431599e+001
5.948393e+002,9.708603e+000
5.958035e+002,5.747482e+000
5.967678e+002,4.854111e+000
5.977320e+002,6.687851e+000
5.986962e+002,8.772476e+000
5.996605e+002,1.115025e+001
6.006247e+002,1.250360e+001
6.015889e+002,1.191667e+001
6.025532e+002,9.539352e+000
6.035174e+002,7.425110e+000
6.044816e+002,5.332321e+000
6.054459e+002,3.900101e+000
6.064101e+002,3.428772e+000
6.073743e+002,3.647568e+000
6.083386e+002,4.179520e+000
6.093028e+002,5.109390e+000
6.102670e+002,5.816162e+000
6.112313e+002,5.762451e+000
6.121955e+002,5.249878e+000
6.131597e+002,4.515869e+000
6.141240e+002,3.743729e+000
6.150882e+002,3.122192e+000
6.160524e+002,3.917648e+000
6.170167e+002,5.924118e+000
6.179809e+002,7.653900e+000
6.189451e+002,8.303055e+000
6.199094e+002,7.959229e+000
6.208736e+002,7.767975e+000
6.218378e+002,8.524841e+000
6.228021e+002,8.736267e+000
6.237663e+002,7.770432e+000
6.247305e+002,6.347076e+000
6.256948e+002,5.652832e+000
6.266590e+002,6.358398e+000
6.276232e+002,7.042908e+000
6.285875e+002,6.986053e+000
6.295517e+002,6.558975e+000
6.305159e+002,6.015701e+000
6.314802e+002,5.484467e+000
6.324444e+002,4.974060e+000
6.334086e+002,4.804733e+000
6.343729e+002,4.934525e+000
6.353371e+002,4.880722e+000
6.363013e+002,4.340652e+000
6.372656e+002,3.574783e+000
6.382298e+002,3.658051e+000
6.391940e+002,6.175919e+000
6.401583e+002,7.297501e+000
6.411225e+002,6.566467e+000
6.420867e+002,4.915665e+000
6.430510e+002,3.068741e+000
6.440152e+002,7.366028e-001
6.449794e+002,-5.879211e-001
6.459437e+002,5.610352e-001
6.469079e+002,2.313004e+000
6.478721e+002,3.440491e+000
6.488364e+002,3.455566e+000
6.498006e+002,2.645630e+000
6.507648e+002,8.652802e-001
6.517291e+002,-1.351028e+000
6.526933e+002,-2.455887e+000
6.536575e+002,-2.130020e+000
6.546218e+002,-9.608002e-001
6.555860e+002,-5.654907e-002
6.565502e+002,4.133911e-001
6.575145e+002,9.092102e-001
6.584787e+002,1.538025e+000
6.594429e+002,2.125092e+000
6.604072e+002,2.624832e+000
6.613714e+002,3.070160e+000
6.623356e+002,3.079086e+000
6.632999e+002,2.073318e+000
6.642641e+002,7.838593e-001
6.652283e+002,-5.665894e-001
6.661926e+002,-1.743561e+000
6.671568e+002,-2.487610e+000
6.681210e+002,-2.481903e+000
6.690853e+002,-1.887497e+000
6.700495e+002,-1.075623e+000
6.710137e+002,-7.246399e-002
6.719780e+002,9.407806e-001
6.729422e+002,1.810608e+000
6.739064e+002,2.583099e+000
6.748707e+002,2.503433e+000
6.758349e+002,7.288971e-001
6.767991e+002,-7.283783e-001
6.777634e+002,-6.619110e-001
6.787276e+002,7.891998e-001
6.796918e+002,1.971252e+000
6.806561e+002,2.165833e+000
6.816203e+002,1.797623e+000
6.825845e+002,3.736115e-001
6.835488e+002,-1.347031e+000
6.845130e+002,-2.029678e+000
6.854772e+002,-5.262909e-001
6.864415e+002,1.919769e+000
6.874057e+002,2.061493e+000
6.883699e+002,5.324554e-001
6.893342e+002,-8.193970e-001
6.902984e+002,-9.199524e-001
6.912626e+002,6.141663e-002
6.922269e+002,6.893463e-001
6.931911e+002,1.116272e+000
6.941553e+002,1.291245e+000
6.951196e+002,4.675903e-001
6.960838e+002,-5.799103e-001
6.970480e+002,-2.406769e-001
6.980123e+002,2.786133e+000
6.989765e+002,4.822144e+000
6.999407e+002,3.893936e+000
7.009050e+002,1.923950e+000
7.018692e+002,1.432190e-001
7.028334e+002,-9.092865e-001
7.037977e+002,-1.299362e+000
7.047619e+002,-6.126404e-001
7.057261e+002,6.616974e-001
7.066904e+002,1.292587e+000
7.076546e+002,1.073288e+000
7.086188e+002,4.095459e-001
7.095831e+002,-8.702087e-002
7.105473e+002,-4.751740e-001
7.115115e+002,-6.483002e-001
7.124758e+002,9.645081e-002
7.134400e+002,2.784882e-001
7.144042e+002,-1.641968e+000
7.153685e+002,-5.536957e+000
7.163327e+002,-7.994247e+000
7.172969e+002,-6.018372e+000
7.182612e+002,-3.450256e+000
7.192254e+002,-1.385559e+000
7.201896e+002,-5.786133e-002
7.211539e+002,5.097046e-001
7.221181e+002,2.296906e-001
7.230823e+002,-5.426941e-001
7.240466e+002,-8.052673e-001
7.250108e+002,-5.740967e-001
7.259750e+002,-2.224731e-001
7.269393e+002,-7.495117e-002
7.279035e+002,-2.069702e-001
7.288677e+002,-2.460327e-001
7.298320e+002,2.286682e-001
7.307962e+002,7.609406e-001
7.317604e+002,1.476013e+000
7.327247e+002,2.204056e+000
7.336889e+002,2.534637e+000
7.346531e+002,2.030151e+000
7.356174e+002,1.518661e+000
7.365816e+002,2.194885e+000
7.375458e+002,2.952774e+000
7.385101e+002,2.782486e+000
7.394743e+002,1.518448e+000
7.404385e+002,-1.494904e-001
7.414028e+002,-1.385620e+000
7.423670e+002,-2.294357e+000
7.433312e+002,-2.471069e+000
7.442955e+002,-1.653687e+000
7.452597e+002,-3.916016e-001
7.462239e+002,7.466125e-001
7.471882e+002,1.877701e+000
7.481524e+002,1.988937e+000
7.491166e+002,-1.609039e-001
7.500809e+002,-2.061722e+000
7.510451e+002,-2.866943e+000
7.520093e+002,-2.622787e+000
7.529736e+002,-1.637604e+000
7.539378e+002,9.445953e-001
7.549020e+002,2.937134e+000
7.558663e+002,2.565948e+000
7.568306e+002,9.567413e-001
7.577948e+002,-5.520477e-001
7.587590e+002,-1.146698e+000
7.597233e+002,-9.767761e-001
7.606875e+002,2.698364e-001
7.616517e+002,2.480103e+000
7.626160e+002,3.510422e+000
7.635802e+002,2.470322e+000
7.645444e+002,3.573151e-001
7.655087e+002,-7.003937e-001
7.664729e+002,8.235168e-002
7.674371e+002,1.197052e-001
7.684014e+002,-1.844788e+000
7.693656e+002,-3.527725e+000
7.703298e+002,-3.030746e+000
7.712941e+002,-3.426361e-001
7.722583e+002,2.141968e+000
7.732225e+002,2.361053e+000
7.741868e+002,1.930923e+000
7.751510e+002,2.084244e+000
7.761152e+002,2.719452e+000
7.770795e+002,3.330368e+000
7.780437e+002,3.455902e+000
7.790079e+002,3.097961e+000
7.799722e+002,2.202362e+000
7.809364e+002,4.892426e-001
7.819006e+002,-1.562653e-001
7.828649e+002,2.260559e+000
7.838291e+002,6.470886e+000
7.847933e+002,7.727463e+000
7.857576e+002,2.994461e+000
7.867218e+002,-1.560516e-001
7.876860e+002,6.578369e-001
7.886503e+002,2.798630e+000
7.896145e+002,4.241272e+000
7.905787e+002,4.384430e+000
7.915430e+002,3.905075e+000
7.925072e+002,2.841583e+000
7.934714e+002,1.774918e+000
7.944357e+002,1.813217e+000
7.953999e+002,2.880142e+000
7.963641e+002,3.821579e+000
7.973284e+002,3.226807e+000
7.982926e+002,9.170837e-001
7.992568e+002,8.049164e-001
8.002211e+002,3.826111e+000
8.011853e+002,6.286011e+000
8.021495e+002,6.971497e+000
8.031138e+002,6.352478e+000
8.040780e+002,5.507126e+000
8.050422e+002,3.920013e+000
8.060065e+002,2.986740e+000
8.069707e+002,3.475250e+000
8.079349e+002,4.392334e+000
8.088992e+002,4.763824e+000
8.098634e+002,4.324417e+000
8.108276e+002,3.795639e+000
8.117919e+002,4.288345e+000
8.127561e+002,5.111908e+000
8.137203e+002,5.351959e+000
8.146846e+002,5.012787e+000
8.156488e+002,4.093079e+000
8.166130e+002,2.335022e+000
8.175773e+002,-7.180939e-001
8.185415e+002,-2.002182e+000
8.195057e+002,-9.008484e-001
8.204700e+002,5.907898e-001
8.214342e+002,2.120514e+000
8.223984e+002,3.543060e+000
8.233627e+002,4.691330e+000
8.243269e+002,5.848053e+000
8.252911e+002,6.000214e+000
8.262554e+002,3.382401e+000
8.272196e+002,3.778992e-001
8.281838e+002,-9.385681e-002
8.291481e+002,2.713654e+000
8.301123e+002,6.605774e+000
8.310765e+002,7.699814e+000
8.320408e+002,6.067719e+000
8.330050e+002,4.713470e+000
8.339692e+002,3.895081e+000
8.349335e+002,3.117340e+000
8.358977e+002,1.615311e+000
8.368619e+002,-8.596497e-001
8.378262e+002,-1.714050e+000
8.387904e+002,5.132446e-001
8.397546e+002,2.574387e+000
8.407189e+002,3.705582e+000
8.416831e+002,4.152771e+000
8.426473e+002,4.462021e+000
8.436116e+002,4.862717e+000
8.445758e+002,5.300339e+000
8.455400e+002,5.513702e+000
8.465043e+002,5.581650e+000
8.474685e+002,5.757736e+000
8.484327e+002,6.192673e+000
8.493970e+002,6.886108e+000
8.503612e+002,7.722214e+000
8.513254e+002,8.735703e+000
8.522897e+002,8.941849e+000
8.532539e+002,7.825043e+000
8.542181e+002,6.535721e+000
8.551824e+002,5.615387e+000
8.561466e+002,5.223114e+000
8.571108e+002,5.787872e+000
8.580751e+002,7.881821e+000
8.590393e+002,9.789612e+000
8.600035e+002,1.148822e+001
8.609678e+002,1.266290e+001
8.619320e+002,1.251384e+001
8.628962e+002,1.087146e+001
8.638605e+002,9.338120e+000
8.648247e+002,1.098036e+001
8.657889e+002,1.437068e+001
8.667532e+002,1.661209e+001
8.677174e+002,1.731880e+001
8.686816e+002,1.700092e+001
8.696459e+002,1.613391e+001
8.706101e+002,1.465654e+001
8.715743e+002,1.362547e+001
8.725386e+002,1.269608e+001
8.735028e+002,1.259077e+001
8.744670e+002,1.373241e+001
8.754313e+002,1.561166e+001
8.763955e+002,1.753114e+001
8.773597e+002,1.948854e+001
8.783240e+002,2.091397e+001
8.792882e+002,2.108806e+001
8.802524e+002,2.073140e+001
8.812167e+002,2.041791e+001
8.821809e+002,2.029581e+001
8.831451e+002,2.022958e+001
8.841094e+002,2.008662e+001
8.850736e+002,1.991908e+001
8.860378e+002,1.917191e+001
8.870021e+002,1.726920e+001
8.879663e+002,1.643391e+001
8.889305e+002,1.897551e+001
8.898948e+002,2.387074e+001
8.908590e+002,2.575946e+001
8.918232e+002,2.177449e+001
8.927875e+002,1.910509e+001
8.937517e+002,1.963350e+001
8.947159e+002,2.164146e+001
8.956802e+002,2.400323e+001
8.966444e+002,2.618343e+001
8.976086e+002,2.784401e+001
8.985729e+002,2.871455e+001
8.995371e+002,2.893637e+001
9.005013e+002,2.854260e+001
9.014656e+002,2.772183e+001
9.024298e+002,2.693706e+001
9.033940e+002,2.639795e+001
9.043583e+002,2.612218e+001
9.053225e+002,2.699437e+001
9.062867e+002,3.119649e+001
9.072510e+002,3.344194e+001
9.082152e+002,3.253569e+001
9.091794e+002,3.059406e+001
9.101437e+002,2.957774e+001
9.111079e+002,2.978438e+001
9.120721e+002,3.027625e+001
9.130364e+002,3.060669e+001
9.140006e+002,3.077747e+001
9.149648e+002,3.110745e+001
9.159291e+002,3.141255e+001
9.168933e+002,3.098854e+001
9.178575e+002,2.932285e+001
9.188218e+002,2.706119e+001
9.197860e+002,2.695313e+001
9.207502e+002,2.901135e+001
9.217145e+002,3.019742e+001
9.226787e+002,2.988344e+001
9.236429e+002,2.881294e+001
9.246072e+002,2.766022e+001
9.255714e+002,2.618442e+001
9.265356e+002,2.542416e+001
9.274999e+002,2.661378e+001
9.284641e+002,2.728102e+001
9.294283e+002,2.626637e+001
9.303926e+002,2.426840e+001
9.313568e+002,2.251465e+001
9.323210e+002,2.161053e+001
9.332853e+002,2.127168e+001
9.342495e+002,2.119579e+001
9.352137e+002,2.132764e+001
9.361780e+002,2.212589e+001
9.371422e+002,2.372487e+001
9.381064e+002,2.481848e+001
9.390707e+002,2.328262e+001
9.400349e+002,1.828162e+001
9.409991e+002,1.553110e+001
9.419634e+002,1.575266e+001
9.429276e+002,1.686674e+001
9.438918e+002,1.941071e+001
9.448561e+002,2.221828e+001
9.458203e+002,2.314931e+001
9.467845e+002,2.128781e+001
9.477488e+002,1.941066e+001
9.487130e+002,2.023419e+001
9.496772e+002,2.142284e+001
9.506415e+002,2.073232e+001
9.516057e+002,1.838318e+001
9.525699e+002,1.627820e+001
9.535342e+002,1.625917e+001
9.544984e+002,1.806856e+001
9.554626e+002,2.014264e+001
9.564269e+002,2.296857e+001
9.573911e+002,2.481387e+001
9.583553e+002,2.496638e+001
9.593196e+002,2.389560e+001
9.602838e+002,2.200839e+001
9.612480e+002,1.881648e+001
9.622123e+002,1.681879e+001
9.631765e+002,1.774471e+001
9.641407e+002,1.904710e+001
9.651050e+002,1.988371e+001
9.660692e+002,2.002417e+001
9.670334e+002,1.936418e+001
9.679977e+002,1.788046e+001
9.689619e+002,1.614456e+001
9.699261e+002,1.490672e+001
9.708904e+002,1.413516e+001
9.718546e+002,1.432014e+001
9.728188e+002,1.557236e+001
9.737831e+002,1.761440e+001
9.747473e+002,2.040666e+001
9.757115e+002,2.430952e+001
9.766758e+002,2.718051e+001
9.776400e+002,2.913255e+001
9.786042e+002,3.010049e+001
9.795685e+002,2.948166e+001
9.805327e+002,2.792233e+001
9.814969e+002,2.631198e+001
9.824612e+002,2.502159e+001
9.834254e+002,2.376591e+001
9.843896e+002,2.199165e+001
9.853539e+002,2.004066e+001
9.863181e+002,1.825758e+001
9.872823e+002,1.663206e+001
9.882466e+002,1.511145e+001
9.892108e+002,1.374870e+001
9.901750e+002,1.276479e+001
9.911393e+002,1.274280e+001
9.921035e+002,1.421283e+001
9.930677e+002,1.520329e+001
9.940320e+002,1.558778e+001
9.949962e+002,1.573112e+001
9.959604e+002,1.589207e+001
9.969247e+002,1.612262e+001
9.978889e+002,1.645903e+001
9.988531e+002,1.681923e+001
9.998174e+002,1.708377e+001
1.000782e+003,1.729059e+001
1.001746e+003,1.750665e+001
1.002710e+003,1.797198e+001
1.003674e+003,1.866765e+001
1.004639e+003,1.893079e+001
1.005603e+003,1.741643e+001
1.006567e+003,1.387538e+001
1.007531e+003,1.250369e+001
1.008495e+003,1.433556e+001
1.009460e+003,1.617912e+001
1.010424e+003,1.599271e+001
1.011388e+003,1.428862e+001
1.012352e+003,1.296196e+001
1.013317e+003,1.197087e+001
1.014281e+003,1.185751e+001
1.015245e+003,1.389806e+001
1.016209e+003,1.562909e+001
1.017174e+003,1.466400e+001
1.018138e+003,1.147250e+001
1.019102e+003,8.917740e+000
1.020066e+003,9.552643e+000
1.021031e+003,1.183817e+001
1.021995e+003,1.030363e+001
1.022959e+003,5.778885e+000
1.023923e+003,3.327316e+000
1.024887e+003,5.286606e+000
1.025852e+003,8.812164e+000
1.026816e+003,9.232361e+000
1.027780e+003,5.823242e+000
1.028744e+003,3.127945e+000
1.029709e+003,1.066528e+000
1.030673e+003,1.764984e-001
1.031637e+003,1.363373e+000
1.032601e+003,3.471893e+000
1.033566e+003,5.236237e+000
1.034530e+003,6.206177e+000
1.035494e+003,6.184784e+000
1.036458e+003,4.192947e+000
1.037422e+003,1.417130e+000
1.038387e+003,-1.824341e-001
1.039351e+003,-5.762177e-001
1.040315e+003,-2.248230e-001
1.041279e+003,6.819305e-001
1.042244e+003,1.990265e+000
1.043208e+003,2.714645e+000
1.044172e+003,2.458160e+000
1.045136e+003,2.001816e+000
1.046101e+003,8.146973e-001
1.047065e+003,7.618713e-002
1.048029e+003,9.999847e-001
1.048993e+003,3.069855e+000
1.049958e+003,4.328766e+000
1.050922e+003,3.711380e+000
1.051886e+003,2.609879e+000
1.052850e+003,2.199890e+000
1.053814e+003,2.285431e+000
1.054779e+003,2.943741e+000
1.055743e+003,4.013107e+000
1.056707e+003,4.664398e+000
1.057671e+003,3.839951e+000
1.058636e+003,1.505356e+000
1.059600e+003,1.675262e-001
1.060564e+003,6.356506e-001
1.061528e+003,1.117752e+000
1.062493e+003,8.459320e-001
1.063457e+003,6.419983e-001
1.064421e+003,1.892517e+000
1.065385e+003,4.729950e+000
1.066349e+003,6.806381e+000
1.067314e+003,6.892944e+000
1.068278e+003,5.794281e+000
1.069242e+003,3.195648e+000
1.070206e+003,2.720337e-001
1.071171e+003,-1.163345e+000
1.072135e+003,-4.584351e-001
1.073099e+003,1.441223e+000
1.074063e+003,3.111160e+000
1.075028e+003,4.642578e+000
1.075992e+003,4.717880e+000
1.076956e+003,2.229218e+000
1.077920e+003,2.240143e-001
1.078885e+003,5.369873e-001
1.079849e+003,1.942276e+000
1.080813e+003,1.845337e+000
1.081777e+003,-4.549561e-001
1.082741e+003,-2.149185e+000
1.083706e+003,-1.944809e+000
1.084670e+003,-7.823792e-001
1.085634e+003,1.812088e+000
1.086598e+003,4.834152e+000
1.087563e+003,6.463470e+000
1.088527e+003,5.820480e+000
1.089491e+003,4.191711e+000
1.090455e+003,4.032059e+000
1.091420e+003,5.465790e+000
1.092384e+003,5.634094e+000
1.093348e+003,3.714127e+000
1.094312e+003,1.898911e+000
1.095276e+003,1.958344e+000
1.096241e+003,3.207520e+000
1.097205e+003,3.180847e+000
1.098169e+003,8.901978e-001
1.099133e+003,-8.542938e-001
1.100098e+003,-6.618652e-001
1.101062e+003,1.283112e-001
1.102026e+003,1.048248e+000
1.102990e+003,1.836853e+000
1.103955e+003,2.153656e+000
1.104919e+003,1.786713e+000
1.105883e+003,1.089218e+000
1.106847e+003,8.827057e-001
1.107812e+003,1.168854e+000
1.108776e+003,1.338593e+000
1.109740e+003,1.274063e+000
1.110704e+003,1.288605e+000
1.111668e+003,1.622925e+000
1.112633e+003,2.333557e+000
1.113597e+003,3.519882e+000
1.114561e+003,5.584320e+000
1.115525e+003,6.962952e+000
1.116490e+003,7.089066e+000
1.117454e+003,6.561630e+000
1.118418e+003,5.561462e+000
1.119382e+003,4.371063e+000
1.120347e+003,3.281403e+000
1.121311e+003,2.386169e+000
1.122275e+003,1.509003e+000
1.123239e+003,3.113708e-001
1.124203e+003,-9.021759e-001
1.125168e+003,-2.360229e-001
1.126132e+003,3.209412e+000
1.127096e+003,6.656631e+000
1.128060e+003,7.650391e+000
1.129025e+003,6.724854e+000
1.129989e+003,6.620392e+000
1.130953e+003,7.823151e+000
1.131917e+003,9.052185e+000
1.132882e+003,1.049031e+001
1.133846e+003,1.144020e+001
1.134810e+003,1.125798e+001
1.135774e+003,1.025972e+001
1.136739e+003,9.064056e+000
1.137703e+003,8.029755e+000
1.138667e+003,7.341629e+000
1.139631e+003,7.296707e+000
1.140595e+003,7.965073e+000
1.141560e+003,9.670212e+000
1.142524e+003,1.281470e+001
1.143488e+003,1.591495e+001
1.144452e+003,1.743799e+001
1.145417e+003,1.805760e+001
1.146381e+003,2.034406e+001
1.147345e+003,2.481662e+001
1.148309e+003,2.970435e+001
1.149274e+003,3.500349e+001
1.150238e+003,4.022194e+001
1.151202e+003,4.531221e+001
1.152166e+003,5.018309e+001
1.153130e+003,5.486990e+001
1.154095e+003,5.922987e+001
1.155059e+003,6.246667e+001
1.156023e+003,6.349095e+001
1.156987e+003,6.245085e+001
1.157952e+003,6.118365e+001
1.158916e+003,6.007979e+001
1.159880e+003,5.777180e+001
1.160844e+003,5.256459e+001
1.161809e+003,4.560336e+001
1.162773e+003,3.967624e+001
1.163737e+003,3.484189e+001
1.164701e+003,3.089244e+001
1.165666e+003,2.874208e+001
1.166630e+003,2.661977e+001
1.167594e+003,2.340411e+001
1.168558e+003,2.000235e+001
1.169522e+003,1.762445e+001
1.170487e+003,1.667451e+001
1.171451e+003,1.693915e+001
1.172415e+003,1.844388e+001
1.173379e+003,2.057480e+001
1.174344e+003,1.970677e+001
1.175308e+003,1.563629e+001
1.176272e+003,1.304868e+001
1.177236e+003,1.497917e+001
1.178201e+003,1.801714e+001
1.179165e+003,1.715431e+001
1.180129e+003,1.225899e+001
1.181093e+003,8.950989e+000
1.182057e+003,9.421982e+000
1.183022e+003,1.021400e+001
1.183986e+003,1.001659e+001
1.184950e+003,9.503708e+000
1.185914e+003,9.523560e+000
1.186879e+003,1.002852e+001
1.187843e+003,1.006972e+001
1.188807e+003,8.812210e+000
1.189771e+003,6.964233e+000
1.190736e+003,6.981995e+000
1.191700e+003,9.125336e+000
1.192664e+003,1.032098e+001
1.193628e+003,9.959122e+000
1.194593e+003,9.182724e+000
1.195557e+003,8.693848e+000
1.196521e+003,8.408524e+000
1.197485e+003,8.140274e+000
1.198449e+003,7.992096e+000
1.199414e+003,7.500458e+000
1.200378e+003,5.908875e+000
1.201342e+003,4.417389e+000
1.202306e+003,3.918106e+000
1.203271e+003,4.056946e+000
1.204235e+003,4.013885e+000
1.205199e+003,3.401794e+000
1.206163e+003,2.531754e+000
1.207128e+003,1.902145e+000
1.208092e+003,1.542297e+000
1.209056e+003,9.995422e-001
1.210020e+003,4.539185e-001
1.210984e+003,-5.392456e-001
1.211949e+003,-2.569077e+000
1.212913e+003,-4.873825e+000
1.213877e+003,-6.402374e+000
1.214841e+003,-7.074905e+000
1.215806e+003,-7.571045e+000
1.216770e+003,-7.978683e+000
1.217734e+003,-8.605530e+000
1.218698e+003,-9.868179e+000
1.219663e+003,-1.137659e+001
1.220627e+003,-1.288278e+001
1.221591e+003,-1.414886e+001
1.222555e+003,-1.457875e+001
1.223520e+003,-1.355853e+001
1.224484e+003,-1.147690e+001
1.225448e+003,-1.036205e+001
1.226412e+003,-1.067249e+001
1.227376e+003,-1.110086e+001
1.228341e+003,-1.205363e+001
1.229305e+003,-1.272922e+001
1.230269e+003,-1.273975e+001
1.231233e+003,-1.216260e+001
1.232198e+003,-1.083333e+001
1.233162e+003,-8.585022e+000
1.234126e+003,-7.015640e+000
1.235090e+003,-7.612640e+000
1.236055e+003,-9.331299e+000
1.237019e+003,-1.178822e+001
1.237983e+003,-1.431410e+001
1.238947e+003,-1.481081e+001
1.239911e+003,-1.240720e+001
1.240876e+003,-9.532944e+000
1.241840e+003,-1.011337e+001
1.242804e+003,-1.444391e+001
1.243768e+003,-1.665970e+001
1.244733e+003,-1.437988e+001
1.245697e+003,-1.304292e+001
1.246661e+003,-1.404050e+001
1.247625e+003,-1.537210e+001
1.248590e+003,-1.563490e+001
1.249554e+003,-1.476532e+001
1.250518e+003,-1.303018e+001
1.251482e+003,-1.047255e+001
1.252447e+003,-8.355698e+000
1.253411e+003,-8.387314e+000
1.254375e+003,-9.768555e+000
1.255339e+003,-1.121126e+001
1.256303e+003,-1.253955e+001
1.257268e+003,-1.267337e+001
1.258232e+003,-1.065285e+001
1.259196e+003,-7.758743e+000
1.260160e+003,-6.643814e+000
1.261125e+003,-7.640381e+000
1.262089e+003,-7.898514e+000
1.263053e+003,-6.295532e+000
1.264017e+003,-5.146652e+000
1.264982e+003,-4.949554e+000
1.265946e+003,-5.405777e+000
1.266910e+003,-6.745941e+000
1.267874e+003,-8.472778e+000
1.268839e+003,-9.175537e+000
1.269803e+003,-7.892288e+000
1.270767e+003,-5.677231e+000
1.271731e+003,-4.348312e+000
1.272695e+003,-3.969193e+000
1.273660e+003,-4.994980e+000
1.274624e+003,-8.328979e+000
1.275588e+003,-1.103035e+001
1.276552e+003,-1.089308e+001
1.277517e+003,-9.205933e+000
1.278481e+003,-8.413574e+000
1.279445e+003,-8.702576e+000
1.280409e+003,-9.476669e+000
1.281374e+003,-1.147412e+001
1.282338e+003,-1.259097e+001
1.283302e+003,-1.110480e+001
1.284266e+003,-8.656158e+000
1.285230e+003,-6.798828e+000
1.286195e+003,-6.013351e+000
1.287159e+003,-6.327087e+000
1.288123e+003,-7.740479e+000
1.289087e+003,-9.766968e+000
1.290052e+003,-1.109396e+001
1.291016e+003,-1.173309e+001
1.291980e+003,-1.170738e+001
1.292944e+003,-1.035553e+001
1.293909e+003,-9.396667e+000
1.294873e+003,-9.571655e+000
1.295837e+003,-1.034113e+001
1.296801e+003,-1.100977e+001
1.297766e+003,-1.148055e+001
1.298730e+003,-1.215656e+001
1.299694e+003,-1.362457e+001
1.300658e+003,-1.477719e+001
1.301622e+003,-1.400667e+001
1.302587e+003,-1.222612e+001
1.303551e+003,-1.081659e+001
1.304515e+003,-1.000887e+001
1.305479e+003,-9.427094e+000
1.306444e+003,-8.820587e+000
1.307408e+003,-8.268066e+000
1.308372e+003,-7.839508e+000
1.309336e+003,-7.290833e+000
1.310301e+003,-7.679993e+000
1.311265e+003,-1.011929e+001
1.312229e+003,-1.206996e+001
1.313193e+003,-1.297276e+001
1.314157e+003,-1.292865e+001
1.315122e+003,-1.163161e+001
1.316086e+003,-9.495651e+000
1.317050e+003,-7.736893e+000
1.318014e+003,-7.099762e+000
1.318979e+003,-7.387207e+000
1.319943e+003,-8.633759e+000
1.320907e+003,-1.061757e+001
1.321871e+003,-1.166499e+001
1.322836e+003,-1.164929e+001
1.323800e+003,-1.131721e+001
1.324764e+003,-1.100073e+001
1.325728e+003,-1.061343e+001
1.326693e+003,-9.860931e+000
1.327657e+003,-8.765915e+000
1.328621e+003,-8.469879e+000
1.329585e+003,-9.892578e+000
1.330549e+003,-1.063293e+001
1.331514e+003,-8.814804e+000
1.332478e+003,-6.663101e+000
1.333442e+003,-6.448898e+000
1.334406e+003,-7.912918e+000
1.335371e+003,-9.259567e+000
1.336335e+003,-9.409546e+000
1.337299e+003,-9.135620e+000
1.338263e+003,-1.005406e+001
1.339228e+003,-1.250053e+001
1.340192e+003,-1.289163e+001
1.341156e+003,-9.290436e+000
1.342120e+003,-6.637421e+000
1.343084e+003,-5.931015e+000
1.344049e+003,-6.287857e+000
1.345013e+003,-7.404343e+000
1.345977e+003,-8.812515e+000
1.346941e+003,-9.667084e+000
1.347906e+003,-9.685181e+000
1.348870e+003,-8.923447e+000
1.349834e+003,-6.826294e+000
1.350798e+003,-4.533478e+000
1.351763e+003,-4.296844e+000
1.352727e+003,-5.759689e+000
1.353691e+003,-6.910767e+000
1.354655e+003,-7.013596e+000
1.355620e+003,-6.579773e+000
1.356584e+003,-6.074326e+000
1.357548e+003,-5.494446e+000
1.358512e+003,-4.995270e+000
1.359476e+003,-4.443176e+000
1.360441e+003,-4.636063e+000
1.361405e+003,-6.613083e+000
1.362369e+003,-8.366577e+000
1.363333e+003,-8.917023e+000
1.364298e+003,-8.616714e+000
1.365262e+003,-7.913467e+000
1.366226e+003,-7.040344e+000
1.367190e+003,-6.063065e+000
1.368155e+003,-5.013321e+000
1.369119e+003,-4.265823e+000
1.370083e+003,-5.124588e+000
1.371047e+003,-8.300522e+000
1.372011e+003,-9.767654e+000
1.372976e+003,-8.315552e+000
1.373940e+003,-7.018402e+000
1.374904e+003,-7.239288e+000
1.375868e+003,-8.003784e+000
1.376833e+003,-7.977646e+000
1.377797e+003,-7.199142e+000
1.378761e+003,-6.918716e+000
1.379725e+003,-7.839539e+000
1.380690e+003,-8.752975e+000
1.381654e+003,-7.986221e+000
1.382618e+003,-6.612030e+000
1.383582e+003,-6.369278e+000
1.384547e+003,-7.147400e+000
1.385511e+003,-7.283707e+000
1.386475e+003,-5.806641e+000
1.387439e+003,-3.922562e+000
1.388403e+003,-3.594955e+000
1.389368e+003,-4.826675e+000
1.390332e+003,-5.617996e+000
1.391296e+003,-5.794632e+000
1.392260e+003,-5.641098e+000
1.393225e+003,-4.860306e+000
1.394189e+003,-4.231445e+000
1.395153e+003,-4.344528e+000
1.396117e+003,-4.835770e+000
1.397082e+003,-5.117554e+000
1.398046e+003,-5.006729e+000
1.399010e+003,-4.663651e+000
1.399974e+003,-4.261719e+000
1.400938e+003,-4.073013e+000
1.401903e+003,-4.764038e+000
1.402867e+003,-6.481522e+000
1.403831e+003,-7.402115e+000
1.404795e+003,-7.431244e+000
1.405760e+003,-7.051605e+000
1.406724e+003,-6.083328e+000
1.407688e+003,-5.296127e+000
1.408652e+003,-5.586014e+000
1.409617e+003,-6.750198e+000
1.410581e+003,-7.970917e+000
1.411545e+003,-9.096176e+000
1.412509e+003,-9.299576e+000
1.413474e+003,-6.994614e+000
1.414438e+003,-3.871033e+000
1.415402e+003,-2.557877e+000
1.416366e+003,-2.876266e+000
1.417330e+003,-3.861115e+000
1.418295e+003,-5.361069e+000
1.419259e+003,-6.565659e+000
1.420223e+003,-6.256592e+000
1.421187e+003,-4.795959e+000
1.422152e+003,-4.347092e+000
1.423116e+003,-5.434753e+000
1.424080e+003,-5.629181e+000
1.425044e+003,-2.957962e+000
1.426009e+003,-8.569946e-001
1.426973e+003,-1.450424e+000
1.427937e+003,-2.995728e+000
1.428901e+003,-3.183823e+000
1.429865e+003,-1.943710e+000
1.430830e+003,-1.018234e+000
1.431794e+003,-1.580200e+000
1.432758e+003,-2.673553e+000
1.433722e+003,-2.229248e+000
1.434687e+003,6.820679e-002
1.435651e+003,1.374146e+000
1.436615e+003,7.590790e-001
1.437579e+003,-1.629639e-002
1.438544e+003,-9.875031e-001
1.439508e+003,-1.813644e+000
1.440472e+003,-2.171600e+000
1.441436e+003,-2.154739e+000
1.442401e+003,-2.048203e+000
1.443365e+003,-1.942413e+000
1.444329e+003,-1.636871e+000
1.445293e+003,-8.874969e-001
1.446257e+003,-1.426697e-002
1.447222e+003,3.969421e-001
1.448186e+003,3.407288e-001
1.449150e+003,-3.196106e-001
1.450114e+003,-1.808838e+000
1.451079e+003,-3.149780e+000
1.452043e+003,-4.150635e+000
1.453007e+003,-4.406311e+000
1.453971e+003,-2.675583e+000
1.454936e+003,5.550537e-001
1.455900e+003,1.607285e+000
1.456864e+003,-9.615021e-001
1.457828e+003,-3.192581e+000
1.458792e+003,-2.390274e+000
1.459757e+003,-7.747345e-001
1.460721e+003,9.521484e-002
1.461685e+003,3.153687e-001
1.462649e+003,1.079102e-001
1.463614e+003,-3.458557e-001
1.464578e+003,-3.479919e-001
1.465542e+003,8.947601e-001
1.466506e+003,2.579910e+000
1.467471e+003,2.120590e+000
1.468435e+003,-1.094696e+000
1.469399e+003,-2.878189e+000
1.470363e+003,-1.968231e+000
1.471328e+003,-1.268158e+000
1.472292e+003,-2.143173e+000
1.473256e+003,-2.911163e+000
1.474220e+003,-1.712311e+000
1.475184e+003,5.292664e-001
1.476149e+003,1.711288e+000
1.477113e+003,1.164322e+000
1.478077e+003,-4.557800e-002
1.479041e+003,-8.550568e-001
1.480006e+003,-1.144958e+000
1.480970e+003,-6.139069e-001
1.481934e+003,9.709320e-001
1.482898e+003,2.017380e+000
1.483863e+003,2.101257e+000
1.484827e+003,2.262817e+000
1.485791e+003,3.333115e+000
1.486755e+003,4.245972e+000
1.487719e+003,3.478027e+000
1.488684e+003,1.689728e+000
1.489648e+003,1.010910e+000
1.490612e+003,2.131485e+000
1.491576e+003,3.633972e+000
1.492541e+003,4.408188e+000
1.493505e+003,4.628525e+000
1.494469e+003,4.310226e+000
1.495433e+003,3.571106e+000
1.496398e+003,3.953430e+000
1.497362e+003,6.002731e+000
1.498326e+003,8.438538e+000
1.499290e+003,1.084241e+001
1.500255e+003,1.305754e+001
1.501219e+003,1.482750e+001
1.502183e+003,1.615068e+001
1.503147e+003,1.712703e+001
1.504111e+003,1.770367e+001
1.505076e+003,1.828036e+001
1.506040e+003,1.865807e+001
1.507004e+003,1.967432e+001
1.507968e+003,2.205162e+001
1.508933e+003,2.560356e+001
1.509897e+003,3.009218e+001
1.510861e+003,3.554443e+001
1.511825e+003,4.165564e+001
1.512790e+003,4.838582e+001
1.513754e+003,5.508334e+001
1.514718e+003,6.060751e+001
1.515682e+003,6.488680e+001
1.516646e+003,6.864110e+001
1.517611e+003,7.181808e+001
1.518575e+003,7.497632e+001
1.519539e+003,7.856125e+001
1.520503e+003,8.204984e+001
1.521468e+003,8.578207e+001
1.522432e+003,8.883690e+001
1.523396e+003,9.007063e+001
1.524360e+003,8.931204e+001
1.525325e+003,8.689052e+001
1.526289e+003,8.305324e+001
1.527253e+003,7.863222e+001
1.528217e+003,7.515590e+001
1.529182e+003,7.271555e+001
1.530146e+003,6.914882e+001
1.531110e+003,6.419403e+001
1.532074e+003,5.837708e+001
1.533039e+003,5.081110e+001
1.534003e+003,4.325638e+001
1.534967e+003,3.646777e+001
1.535931e+003,3.043237e+001
1.536896e+003,2.481870e+001
1.537860e+003,1.982977e+001
1.538824e+003,1.610892e+001
1.539788e+003,1.392876e+001
1.540752e+003,1.293256e+001
1.541717e+003,1.284514e+001
1.542681e+003,1.342628e+001
1.543645e+003,1.288846e+001
1.544609e+003,1.080569e+001
1.545573e+003,8.856873e+000
1.546538e+003,6.277924e+000
1.547502e+003,4.584198e+000
1.548466e+003,4.535843e+000
1.549430e+003,5.656754e+000
1.550395e+003,8.102203e+000
1.551359e+003,1.107913e+001
1.552323e+003,1.284808e+001
1.553287e+003,1.282051e+001
1.554252e+003,1.165768e+001
1.555216e+003,9.775436e+000
1.556180e+003,7.530014e+000
1.557144e+003,5.635620e+000
1.558109e+003,4.155258e+000
1.559073e+003,3.645813e+000
1.560037e+003,4.853058e+000
1.561001e+003,5.201767e+000
1.561966e+003,2.914368e+000
1.562930e+003,5.121460e-001
1.563894e+003,5.430450e-001
1.564858e+003,2.157974e+000
1.565823e+003,3.123672e+000
1.566787e+003,3.011246e+000
1.567751e+003,2.805573e+000
1.568715e+003,3.004501e+000
1.569679e+003,3.604965e+000
1.570644e+003,4.864838e+000
1.571608e+003,6.352051e+000
1.572572e+003,7.021347e+000
1.573536e+003,6.885773e+000
1.574500e+003,6.325653e+000
1.575465e+003,4.854324e+000
1.576429e+003,3.886078e+000
1.577393e+003,5.091934e+000
1.578357e+003,7.325592e+000
1.579322e+003,8.348328e+000
1.580286e+003,8.101440e+000
1.581250e+003,7.829208e+000
1.582214e+003,7.905441e+000
1.583179e+003,8.018661e+000
1.584143e+003,7.858170e+000
1.585107e+003,7.601639e+000
1.586071e+003,7.601456e+000
1.587036e+003,7.870697e+000
1.588000e+003,8.194962e+000
1.588964e+003,8.477127e+000
1.589928e+003,8.658432e+000
1.590893e+003,8.667770e+000
1.591857e+003,8.615677e+000
1.592821e+003,8.557175e+000
1.593785e+003,8.575012e+000
1.594750e+003,9.178070e+000
1.595714e+003,1.051794e+001
1.596678e+003,1.157785e+001
1.597642e+003,1.172543e+001
1.598606e+003,1.183162e+001
1.599571e+003,1.290108e+001
1.600535e+003,1.421835e+001
1.601499e+003,1.465927e+001
1.602463e+003,1.432855e+001
1.603427e+003,1.438734e+001
1.604392e+003,1.539290e+001
1.605356e+003,1.626495e+001
1.606320e+003,1.552361e+001
1.607284e+003,1.393591e+001
1.608249e+003,1.401335e+001
1.609213e+003,1.584441e+001
1.610177e+003,1.636861e+001
1.611141e+003,1.433711e+001
1.612106e+003,1.285017e+001
1.613070e+003,1.424538e+001
1.614034e+003,1.594841e+001
1.614998e+003,1.580792e+001
1.615963e+003,1.481267e+001
1.616927e+003,1.486922e+001
1.617891e+003,1.612645e+001
1.618855e+003,1.711876e+001
1.619820e+003,1.689337e+001
1.620784e+003,1.618196e+001
1.621748e+003,1.624567e+001
1.622712e+003,1.702017e+001
1.623677e+003,1.733253e+001
1.624641e+003,1.709602e+001
1.625605e+003,1.690363e+001
1.626569e+003,1.655508e+001
1.627533e+003,1.639357e+001
1.628498e+003,1.742152e+001
1.629462e+003,1.816913e+001
1.630426e+003,1.654564e+001
1.631390e+003,1.380771e+001
1.632354e+003,1.315648e+001
1.633319e+003,1.513055e+001
1.634283e+003,1.674428e+001
1.635247e+003,1.553333e+001
1.636211e+003,1.344914e+001
1.637176e+003,1.466109e+001
1.638140e+003,1.885638e+001
1.639104e+003,2.037929e+001
1.640068e+003,1.824507e+001
1.641033e+003,1.647690e+001
1.641997e+003,1.617487e+001
1.642961e+003,1.635507e+001
1.643925e+003,1.704303e+001
1.644890e+003,1.750171e+001
1.645854e+003,1.648831e+001
1.646818e+003,1.467485e+001
1.647782e+003,1.397742e+001
1.648747e+003,1.493028e+001
1.649711e+003,1.628516e+001
1.650675e+003,1.713474e+001
1.651639e+003,1.762099e+001
1.652604e+003,1.785242e+001
1.653568e+003,1.779738e+001
1.654532e+003,1.788445e+001
1.655496e+003,1.832510e+001
1.656460e+003,1.820557e+001
1.657425e+003,1.672797e+001
1.658389e+003,1.542949e+001
1.659353e+003,1.527319e+001
1.660317e+003,1.558095e+001
1.661281e+003,1.570990e+001
1.662246e+003,1.560315e+001
1.663210e+003,1.550557e+001
1.664174e+003,1.550194e+001
1.665138e+003,1.501013e+001
1.666103e+003,1.311845e+001
1.667067e+003,1.099043e+001
1.668031e+003,1.153755e+001
1.668995e+003,1.450977e+001
1.669960e+003,1.574666e+001
1.670924e+003,1.448593e+001
1.671888e+003,1.363075e+001
1.672852e+003,1.464207e+001
1.673817e+003,1.533203e+001
1.674781e+003,1.369661e+001
1.675745e+003,1.148509e+001
1.676709e+003,1.083559e+001
1.677674e+003,1.132922e+001
1.678638e+003,1.101952e+001
1.679602e+003,9.323349e+000
1.680566e+003,7.929794e+000
1.681531e+003,8.495987e+000
1.682495e+003,9.763565e+000
1.683459e+003,9.091370e+000
1.684423e+003,6.911438e+000
1.685387e+003,6.570465e+000
1.686352e+003,8.679169e+000
1.687316e+003,1.023758e+001
1.688280e+003,1.032085e+001
1.689244e+003,9.577286e+000
1.690208e+003,7.480713e+000
1.691173e+003,5.454605e+000
1.692137e+003,5.584366e+000
1.693101e+003,7.241867e+000
1.694065e+003,8.062164e+000
1.695030e+003,7.397842e+000
1.695994e+003,6.233093e+000
1.696958e+003,4.903824e+000
1.697922e+003,3.798660e+000
1.698887e+003,3.578094e+000
1.699851e+003,3.960831e+000
1.700815e+003,3.919586e+000
1.701779e+003,3.351776e+000
1.702744e+003,3.288452e+000
1.703708e+003,4.335114e+000
1.704672e+003,5.121750e+000
1.705636e+003,4.229630e+000
1.706601e+003,2.755493e+000
1.707565e+003,2.458786e+000
1.708529e+003,3.098328e+000
1.709493e+003,3.988419e+000
1.710458e+003,5.151764e+000
1.711422e+003,5.490402e+000
1.712386e+003,3.850555e+000
1.713350e+003,2.192047e+000
1.714314e+003,2.237595e+000
1.715279e+003,3.057312e+000
1.716243e+003,3.152908e+000
1.717207e+003,2.559631e+000
1.718171e+003,2.085419e+000
1.719135e+003,1.970291e+000
1.720100e+003,1.803772e+000
1.721064e+003,1.215240e+000
1.722028e+003,6.351013e-001
1.722992e+003,8.387299e-001
1.723957e+003,1.723450e+000
1.724921e+003,2.317337e+000
1.725885e+003,2.550156e+000
1.726849e+003,2.252823e+000
1.727814e+003,9.501801e-001
1.728778e+003,-1.443481e-002
1.729742e+003,-1.159668e-003
1.730706e+003,4.948120e-001
1.731671e+003,9.834900e-001
1.732635e+003,1.436264e+000
1.733599e+003,2.278839e+000
1.734563e+003,3.462921e+000
1.735528e+003,4.079285e+000
1.736492e+003,3.617661e+000
1.737456e+003,2.278564e+000
1.738420e+003,8.468628e-002
1.739385e+003,-2.336090e+000
1.740349e+003,-2.264099e+000
1.741313e+003,1.262726e+000
1.742277e+003,2.635574e+000
1.743241e+003,6.701660e-002
1.744206e+003,-1.585770e+000
1.745170e+003,-9.120636e-001
1.746134e+003,-1.965790e-001
1.747098e+003,-9.646912e-001
1.748063e+003,-2.189407e+000
1.749027e+003,-2.715485e+000
1.749991e+003,-2.478485e+000
1.750955e+003,-1.716583e+000
1.751919e+003,-6.706085e-001
1.752884e+003,3.967285e-002
1.753848e+003,-1.117706e-001
1.754812e+003,-6.262207e-001
1.755776e+003,-4.038544e-001
1.756741e+003,5.806122e-001
1.757705e+003,1.102234e+000
1.758669e+003,9.084778e-001
1.759633e+003,8.300171e-001
1.760598e+003,1.189926e+000
1.761562e+003,1.203735e+000
1.762526e+003,5.932770e-001
1.763490e+003,-2.431946e-001
1.764455e+003,-1.347610e+000
1.765419e+003,-2.312103e+000
1.766383e+003,-2.570709e+000
1.767347e+003,-2.148880e+000
1.768312e+003,-1.356766e+000
1.769276e+003,-3.420258e-001
1.770240e+003,2.986908e-001
1.771204e+003,-1.622772e-001
1.772168e+003,-1.121262e+000
1.773133e+003,-1.198059e+000
1.774097e+003,-5.247345e-001
1.775061e+003,-5.350800e-001
1.776025e+003,-1.574707e+000
1.776990e+003,-2.277145e+000
1.777954e+003,-2.124725e+000
1.778918e+003,-1.444977e+000
1.779882e+003,-2.556763e-001
1.780846e+003,1.039200e+000
1.781811e+003,2.231567e+000
1.782775e+003,3.148270e+000
1.783739e+003,2.995651e+000
1.784703e+003,1.588669e+000
1.785668e+003,2.714691e-001
1.786632e+003,-4.849854e-001
1.787596e+003,-1.046204e+000
1.788560e+003,-1.522568e+000
1.789525e+003,-1.895874e+000
1.790489e+003,-2.374435e+000
1.791453e+003,-2.829407e+000
1.792417e+003,-2.594086e+000
1.793382e+003,-1.631821e+000
1.794346e+003,-1.091522e+000
1.795310e+003,-1.632813e+000
1.796274e+003,-2.229782e+000
1.797239e+003,-1.516251e+000
1.798203e+003,-1.243439e-001
1.799167e+003,-5.362854e-001
1.800131e+003,-3.451935e+000
1.801095e+003,-4.394867e+000
1.802060e+003,-1.204437e+000
1.803024e+003,5.745544e-001
1.803988e+003,-9.290771e-001
1.804952e+003,-2.385834e+000
1.805917e+003,-1.966431e+000
1.806881e+003,-9.654236e-001
1.807845e+003,-6.972198e-001
1.808809e+003,-9.581757e-001
1.809773e+003,-9.441223e-001
1.810738e+003,-5.440979e-001
1.811702e+003,-4.785309e-001
1.812666e+003,-1.180222e+000
1.813630e+003,-1.765854e+000
1.814595e+003,-9.618988e-001
1.815559e+003,8.224792e-001
1.816523e+003,2.139435e+000
1.817487e+003,3.056549e+000
1.818452e+003,2.615143e+000
1.819416e+003,-1.828613e-001
1.820380e+003,-1.223007e+000
1.821344e+003,2.561188e+000
1.822309e+003,5.419571e+000
1.823273e+003,2.582520e+000
1.824237e+003,-1.579727e+000
1.825201e+003,-2.673843e+000
1.826166e+003,-1.430054e+000
1.827130e+003,-7.284546e-002
1.828094e+003,9.372711e-001
1.829058e+003,1.263382e+000
1.830022e+003,5.186615e-001
1.830987e+003,-3.625946e-001
1.831951e+003,-6.678925e-001
1.832915e+003,-5.946655e-001
1.833879e+003,-3.144379e-001
1.834844e+003,6.631470e-002
1.835808e+003,1.702881e-001
1.836772e+003,2.095032e-002
1.837736e+003,4.830933e-001
1.838700e+003,1.947205e+000
1.839665e+003,2.802872e+000
1.840629e+003,1.398224e+000
1.841593e+003,-9.351807e-001
1.842557e+003,-1.295792e+000
1.843522e+003,2.732391e-001
1.844486e+003,6.532593e-001
1.845450e+003,-1.313370e+000
1.846414e+003,-2.054688e+000
1.847379e+003,-7.765656e-001
1.848343e+003,4.086304e-001
1.849307e+003,1.388397e+000
1.850271e+003,1.626205e+000
1.851236e+003,-5.862427e-002
1.852200e+003,-2.123886e+000
1.853164e+003,-2.310822e+000
1.854128e+003,-9.447021e-001
1.855093e+003,6.910706e-002
1.856057e+003,5.972290e-002
1.857021e+003,-1.792145e-001
1.857985e+003,-7.568359e-003
1.858949e+003,2.002869e-001
1.859914e+003,-4.646454e-001
1.860878e+003,-1.676453e+000
1.861842e+003,-1.442307e+000
1.862806e+003,2.696686e-001
1.863771e+003,1.257126e+000
1.864735e+003,9.798126e-001
1.865699e+003,6.845856e-001
1.866663e+003,1.026398e+000
1.867627e+003,1.397491e+000
1.868592e+003,8.687897e-001
1.869556e+003,1.459045e-001
1.870520e+003,9.671631e-001
1.871484e+003,3.016174e+000
1.872449e+003,4.178528e+000
1.873413e+003,4.236588e+000
1.874377e+003,4.264282e+000
1.875341e+003,4.671814e+000
1.876306e+003,4.647293e+000
1.877270e+003,3.078186e+000
1.878234e+003,1.445740e+000
1.879198e+003,1.643677e+000
1.880163e+003,2.772614e+000
1.881127e+003,2.867020e+000
1.882091e+003,1.937714e+000
1.883055e+003,1.510452e+000
1.884020e+003,2.180450e+000
1.884984e+003,3.068329e+000
1.885948e+003,3.384796e+000
1.886912e+003,3.320038e+000
1.887876e+003,3.237061e+000
1.888841e+003,3.146530e+000
1.889805e+003,3.063461e+000
1.890769e+003,2.936920e+000
1.891733e+003,3.149307e+000
1.892698e+003,3.966202e+000
1.893662e+003,4.421829e+000
1.894626e+003,3.982193e+000
1.895590e+003,3.407318e+000
1.896554e+003,3.184845e+000
1.897519e+003,3.207947e+000
1.898483e+003,3.400223e+000
1.899447e+003,3.623550e+000
1.900411e+003,3.662003e+000
1.901376e+003,3.508743e+000
1.902340e+003,3.082794e+000
1.903304e+003,1.874969e+000
1.904268e+003,1.113007e+000
1.905233e+003,2.074600e+000
1.906197e+003,3.389725e+000
1.907161e+003,3.667511e+000
1.908125e+003,3.270706e+000
1.909090e+003,2.454727e+000
1.910054e+003,1.697144e+000
1.911018e+003,2.913651e+000
1.911982e+003,6.322021e+000
1.912947e+003,8.200836e+000
1.913911e+003,5.797729e+000
1.914875e+003,2.097687e+000
1.915839e+003,1.832504e+000
1.916803e+003,4.128403e+000
1.917768e+003,4.672272e+000
1.918732e+003,3.133514e+000
1.919696e+003,2.365723e+000
1.920660e+003,2.771469e+000
1.921625e+003,3.006287e+000
1.922589e+003,2.397842e+000
1.923553e+003,2.104324e+000
1.924517e+003,3.125534e+000
1.925481e+003,4.397446e+000
1.926446e+003,5.075058e+000
1.927410e+003,5.301102e+000
1.928374e+003,5.325378e+000
1.929338e+003,5.147110e+000
1.930303e+003,4.896103e+000
1.931267e+003,4.740509e+000
1.932231e+003,4.406540e+000
1.933195e+003,3.130066e+000
1.934160e+003,2.236694e+000
1.935124e+003,3.042282e+000
1.936088e+003,4.455124e+000
1.937052e+003,5.280777e+000
1.938017e+003,5.644104e+000
1.938981e+003,6.004761e+000
1.939945e+003,6.449112e+000
1.940909e+003,6.879395e+000
1.941874e+003,7.215668e+000
1.942838e+003,7.273773e+000
1.943802e+003,6.909561e+000
1.944766e+003,6.534698e+000
1.945730e+003,7.032959e+000
1.946695e+003,8.128708e+000
1.947659e+003,7.645523e+000
1.948623e+003,5.342941e+000
1.949587e+003,4.089096e+000
1.950552e+003,4.475479e+000
1.951516e+003,4.840805e+000
1.952480e+003,4.539383e+000
1.953444e+003,4.298111e+000
1.954408e+003,4.650101e+000
1.955373e+003,5.235886e+000
1.956337e+003,5.856186e+000
1.957301e+003,6.406967e+000
1.958265e+003,6.098358e+000
1.959230e+003,4.753357e+000
1.960194e+003,4.022781e+000
1.961158e+003,4.438980e+000
1.962122e+003,4.800369e+000
1.963087e+003,4.739029e+000
1.964051e+003,4.657120e+000
1.965015e+003,4.738541e+000
1.965979e+003,5.070190e+000
1.966944e+003,6.144394e+000
1.967908e+003,7.201614e+000
1.968872e+003,6.517349e+000
1.969836e+003,4.454224e+000
1.970801e+003,3.567688e+000
1.971765e+003,4.865570e+000
1.972729e+003,6.316696e+000
1.973693e+003,6.124512e+000
1.974657e+003,5.369797e+000
1.975622e+003,5.825073e+000
1.976586e+003,6.894943e+000
1.977550e+003,6.945953e+000
1.978514e+003,6.143921e+000
1.979479e+003,5.364639e+000
1.980443e+003,4.770584e+000
1.981407e+003,4.868271e+000
1.982371e+003,5.895691e+000
1.983335e+003,7.307541e+000
1.984300e+003,8.755478e+000
1.985264e+003,9.813095e+000
1.986228e+003,9.769608e+000
1.987192e+003,8.887924e+000
1.988157e+003,8.556625e+000
1.989121e+003,8.929855e+000
1.990085e+003,9.202805e+000
1.991049e+003,9.396667e+000
1.992014e+003,9.522675e+000
1.992978e+003,9.392426e+000
1.993942e+003,9.380325e+000
1.994906e+003,1.005606e+001
1.995871e+003,1.045093e+001
1.996835e+003,9.307220e+000
1.997799e+003,7.799820e+000
1.998763e+003,7.802170e+000
1.999728e+003,9.043488e+000
