5.003444e+002,3.181927e+001
5.013087e+002,3.168811e+001
5.022729e+002,3.022070e+001
5.032371e+002,2.820169e+001
5.042014e+002,2.748901e+001
5.051656e+002,2.791702e+001
5.061298e+002,2.832397e+001
5.070941e+002,2.752420e+001
5.080583e+002,2.497284e+001
5.090225e+002,2.356256e+001
5.099868e+002,2.383685e+001
5.109510e+002,2.425900e+001
5.119152e+002,2.388193e+001
5.128795e+002,2.260632e+001
5.138437e+002,2.202798e+001
5.148079e+002,2.399582e+001
5.157722e+002,2.571466e+001
5.167364e+002,2.554730e+001
5.177006e+002,2.349777e+001
5.186649e+002,2.116290e+001
5.196291e+002,2.082895e+001
5.205933e+002,2.163058e+001
5.215576e+002,2.245065e+001
5.225218e+002,2.286969e+001
5.234860e+002,2.264410e+001
5.244503e+002,2.157437e+001
5.254145e+002,1.964001e+001
5.263787e+002,1.832425e+001
5.273430e+002,1.751715e+001
5.283072e+002,1.738284e+001
5.292714e+002,1.834943e+001
5.302357e+002,2.130511e+001
5.311999e+002,2.244925e+001
5.321641e+002,2.110321e+001
5.331284e+002,1.895560e+001
5.340926e+002,1.685849e+001
5.350568e+002,1.492984e+001
5.360211e+002,1.360104e+001
5.369853e+002,1.456262e+001
5.379495e+002,1.601654e+001
5.389138e+002,1.592551e+001
5.398780e+002,1.369104e+001
5.408422e+002,1.069946e+001
5.418065e+002,1.162634e+001
5.427707e+002,1.575793e+001
5.437349e+002,1.775690e+001
5.446992e+002,1.561475e+001
5.456634e+002,1.070758e+001
5.466276e+002,7.998840e+000
5.475919e+002,1.011411e+001
5.485561e+002,1.165582e+001
5.495203e+002,1.194290e+001
5.504846e+002,1.149442e+001
5.514488e+002,1.120850e+001
5.524130e+002,1.165863e+001
5.533773e+002,1.206250e+001
5.543415e+002,1.235013e+001
5.553057e+002,1.226035e+001
5.562700e+002,1.128201e+001
5.572342e+002,9.080627e+000
5.581984e+002,6.309784e+000
5.591627e+002,4.759613e+000
5.601269e+002,4.161530e+000
5.610911e+002,3.633240e+000
5.620554e+002,2.590424e+000
5.630196e+002,1.153290e+000
5.639838e+002,1.394043e+000
5.649481e+002,5.594391e+000
5.659123e+002,8.195801e+000
5.668765e+002,7.882507e+000
5.678408e+002,5.636932e+000
5.688050e+002,3.756134e+000
5.697692e+002,1.993561e+000
5.707335e+002,1.096741e+000
5.716977e+002,2.168488e+000
5.726619e+002,4.069916e+000
5.736262e+002,5.192688e+000
5.745904e+002,4.318146e+000
5.755546e+002,3.063965e+000
5.765189e+002,4.332825e+000
5.774831e+002,6.683685e+000
5.784473e+002,7.760101e+000
5.794116e+002,6.074310e+000
5.803758e+002,2.098785e+000
5.813400e+002,-2.652283e-001
5.823043e+002,-1.318237e+000
5.832685e+002,-1.720184e+000
5.842327e+002,-9.221802e-001
5.851970e+002,9.540710e-001
5.861612e+002,2.038849e+000
5.871254e+002,6.278076e-001
5.880897e+002,-3.764343e-001
5.890539e+002,-6.688843e-001
5.900181e+002,-2.826843e-001
5.909824e+002,7.961121e-001
5.919466e+002,2.930237e+000
5.929108e+002,5.266937e+000
5.938751e+002,7.487152e+000
5.948393e+002,9.142853e+000
5.958035e+002,9.290192e+000
5.967678e+002,7.316467e+000
5.977320e+002,3.764130e+000
5.986962e+002,2.305603e+000
5.996605e+002,2.700165e+000
6.006247e+002,2.587006e+000
6.015889e+002,2.573547e-001
6.025532e+002,-3.987305e+000
6.035174e+002,-6.181244e+000
6.044816e+002,-3.402679e+000
6.054459e+002,-1.508453e+000
6.064101e+002,-2.110901e+000
6.073743e+002,-4.061493e+000
6.083386e+002,-5.079254e+000
6.093028e+002,-3.609253e+000
6.102670e+002,-1.525299e+000
6.112313e+002,-5.294495e-001
6.121955e+002,-1.699829e-002
6.131597e+002,1.101349e+000
6.141240e+002,3.514771e+000
6.150882e+002,6.438171e+000
6.160524e+002,6.065460e+000
6.170167e+002,3.124725e+000
6.179809e+002,5.805359e-001
6.189451e+002,-3.520203e-001
6.199094e+002,3.283691e-002
6.208736e+002,3.814697e-001
6.218378e+002,1.341064e+000
6.228021e+002,2.006073e+000
6.237663e+002,2.195801e+000
6.247305e+002,2.152008e+000
6.256948e+002,2.089172e+000
6.266590e+002,1.706268e+000
6.276232e+002,1.614044e+000
6.285875e+002,3.063690e+000
6.295517e+002,4.833832e+000
6.305159e+002,5.503540e+000
6.314802e+002,4.249359e+000
6.324444e+002,1.618561e+000
6.334086e+002,-1.368835e+000
6.343729e+002,-4.203735e+000
6.353371e+002,-5.335724e+000
6.363013e+002,-4.009308e+000
6.372656e+002,-1.086151e+000
6.382298e+002,5.569458e-001
6.391940e+002,-5.018005e-001
6.401583e+002,-1.308685e+000
6.411225e+002,-1.108276e+000
6.420867e+002,-4.799805e-001
6.430510e+002,-3.063049e-001
6.440152e+002,-1.091980e+000
6.449794e+002,-2.334198e+000
6.459437e+002,-4.258087e+000
6.469079e+002,-6.077148e+000
6.478721e+002,-7.040588e+000
6.488364e+002,-6.874695e+000
6.498006e+002,-5.964050e+000
6.507648e+002,-4.701721e+000
6.517291e+002,-3.483459e+000
6.526933e+002,-3.353668e+000
6.536575e+002,-4.593018e+000
6.546218e+002,-6.363190e+000
6.555860e+002,-7.081451e+000
6.565502e+002,-6.609161e+000
6.575145e+002,-5.052216e+000
6.584787e+002,-7.648010e-001
6.594429e+002,3.213745e+000
6.604072e+002,4.049530e+000
6.613714e+002,1.041565e+000
6.623356e+002,-1.661041e+000
6.632999e+002,-2.689941e+000
6.642641e+002,-2.742676e+000
6.652283e+002,-1.249390e+000
6.661926e+002,1.396637e+000
6.671568e+002,3.997040e+000
6.681210e+002,5.082764e+000
6.690853e+002,4.594238e+000
6.700495e+002,2.630615e+000
6.710137e+002,-6.108093e-001
6.719780e+002,-3.176300e+000
6.729422e+002,-2.895050e+000
6.739064e+002,8.539734e-001
6.748707e+002,3.255402e+000
6.758349e+002,4.610870e+000
6.767991e+002,4.674866e+000
6.777634e+002,2.635345e+000
6.787276e+002,-8.967285e-001
6.796918e+002,-2.837860e+000
6.806561e+002,-6.395569e-001
6.816203e+002,1.385803e+000
6.825845e+002,1.443146e+000
6.835488e+002,2.155151e-001
6.845130e+002,-9.812622e-001
6.854772e+002,-1.131378e+000
6.864415e+002,-5.222778e-001
6.874057e+002,-9.738159e-002
6.883699e+002,-9.472656e-002
6.893342e+002,-4.991150e-001
6.902984e+002,-1.200195e+000
6.912626e+002,-2.223175e+000
6.922269e+002,-4.287750e+000
6.931911e+002,-9.851990e+000
6.941553e+002,-1.228323e+001
6.951196e+002,-9.476440e+000
6.960838e+002,-4.200317e+000
6.970480e+002,-7.113647e-001
6.980123e+002,-4.310608e-001
6.989765e+002,-2.476196e-001
6.999407e+002,1.625275e+000
7.009050e+002,3.600220e+000
7.018692e+002,4.216278e+000
7.028334e+002,3.059723e+000
7.037977e+002,1.193970e+000
7.047619e+002,4.807434e-001
7.057261e+002,5.610352e-001
7.066904e+002,4.368591e-001
7.076546e+002,-6.713867e-002
7.086188e+002,-1.146820e+000
7.095831e+002,-3.287354e+000
7.105473e+002,-7.637634e+000
7.115115e+002,-9.514008e+000
7.124758e+002,-7.815826e+000
7.134400e+002,-5.474487e+000
7.144042e+002,-3.841553e+000
7.153685e+002,-2.939728e+000
7.163327e+002,-2.590454e+000
7.172969e+002,-3.371094e+000
7.182612e+002,-4.072998e+000
7.192254e+002,-4.202911e+000
7.201896e+002,-3.986511e+000
7.211539e+002,-4.002899e+000
7.221181e+002,-4.783356e+000
7.230823e+002,-5.732178e+000
7.240466e+002,-4.949310e+000
7.250108e+002,-2.685913e+000
7.259750e+002,-7.134094e-001
7.269393e+002,-3.164063e-001
7.279035e+002,-1.545746e+000
7.288677e+002,-2.666351e+000
7.298320e+002,-2.849854e+000
7.307962e+002,-2.939117e+000
7.317604e+002,-3.999725e+000
7.327247e+002,-4.529205e+000
7.336889e+002,-1.697418e+000
7.346531e+002,6.533051e+000
7.356174e+002,1.181390e+001
7.365816e+002,7.994171e+000
7.375458e+002,1.952637e+000
7.385101e+002,-1.190491e+000
7.394743e+002,-1.710205e-001
7.404385e+002,2.408447e+000
7.414028e+002,2.521057e+000
7.423670e+002,2.649231e-001
7.433312e+002,-1.140961e+000
7.442955e+002,-1.085266e+000
7.452597e+002,-1.354675e-001
7.462239e+002,9.774170e-001
7.471882e+002,2.237457e+000
7.481524e+002,3.155884e+000
7.491166e+002,3.562134e+000
7.500809e+002,3.199005e+000
7.510451e+002,1.156616e+000
7.520093e+002,-1.847321e+000
7.529736e+002,-3.250427e+000
7.539378e+002,-1.537781e-001
7.549020e+002,2.816254e+000
7.558663e+002,1.853912e+000
7.568306e+002,-8.589172e-001
7.577948e+002,-2.250336e+000
7.587590e+002,-6.113586e-001
7.597233e+002,2.701477e+000
7.606875e+002,4.338165e+000
7.616517e+002,4.644165e+000
7.626160e+002,4.190979e+000
7.635802e+002,3.035095e+000
7.645444e+002,1.361664e+000
7.655087e+002,-7.243347e-001
7.664729e+002,-4.287415e+000
7.674371e+002,-5.872864e+000
7.684014e+002,-4.126740e+000
7.693656e+002,-1.862518e+000
7.703298e+002,-8.410645e-001
7.712941e+002,-1.212585e+000
7.722583e+002,-1.713287e+000
7.732225e+002,-1.673676e+000
7.741868e+002,-1.155182e+000
7.751510e+002,-8.181763e-002
7.761152e+002,1.431854e+000
7.770795e+002,3.345093e+000
7.780437e+002,5.608704e+000
7.790079e+002,7.884979e+000
7.799722e+002,7.156647e+000
7.809364e+002,3.145752e+000
7.819006e+002,-1.464844e-001
7.828649e+002,-6.738281e-001
7.838291e+002,9.356079e-001
7.847933e+002,2.218079e+000
7.857576e+002,2.896942e+000
7.867218e+002,2.695831e+000
7.876860e+002,7.804260e-001
7.886503e+002,-8.714294e-001
7.896145e+002,-2.894897e-001
7.905787e+002,2.888306e+000
7.915430e+002,6.514282e+000
7.925072e+002,8.282288e+000
7.934714e+002,8.705872e+000
7.944357e+002,8.422089e+000
7.953999e+002,7.746918e+000
7.963641e+002,6.904663e+000
7.973284e+002,6.022308e+000
7.982926e+002,5.090485e+000
7.992568e+002,4.538422e+000
8.002211e+002,4.324280e+000
8.011853e+002,3.378418e+000
8.021495e+002,7.612915e-001
8.031138e+002,-2.326935e+000
8.040780e+002,-2.475098e+000
8.050422e+002,2.801117e+000
8.060065e+002,7.280792e+000
8.069707e+002,8.855560e+000
8.079349e+002,8.564606e+000
8.088992e+002,7.253998e+000
8.098634e+002,5.477600e+000
8.108276e+002,3.702118e+000
8.117919e+002,2.358521e+000
8.127561e+002,9.552917e-001
8.137203e+002,-8.258667e-001
8.146846e+002,-2.728760e+000
8.156488e+002,-4.020020e+000
8.166130e+002,-3.978973e+000
8.175773e+002,-2.566040e+000
8.185415e+002,-3.688354e-001
8.195057e+002,3.801270e+000
8.204700e+002,6.721222e+000
8.214342e+002,7.022614e+000
8.223984e+002,5.249115e+000
8.233627e+002,2.614777e+000
8.243269e+002,-1.551727e+000
8.252911e+002,-3.999908e+000
8.262554e+002,-2.534424e+000
8.272196e+002,7.961121e-001
8.281838e+002,4.227753e+000
8.291481e+002,6.899780e+000
8.301123e+002,8.915680e+000
8.310765e+002,1.058032e+001
8.320408e+002,1.153830e+001
8.330050e+002,1.004059e+001
8.339692e+002,5.339294e+000
8.349335e+002,4.185791e-001
8.358977e+002,-1.407410e+000
8.368619e+002,4.443970e-001
8.378262e+002,2.124298e+000
8.387904e+002,3.596039e+000
8.397546e+002,4.362000e+000
8.407189e+002,3.290527e+000
8.416831e+002,1.717896e+000
8.426473e+002,2.273132e+000
8.436116e+002,6.662323e+000
8.445758e+002,1.126181e+001
8.455400e+002,1.163138e+001
8.465043e+002,9.798523e+000
8.474685e+002,7.977600e+000
8.484327e+002,7.125061e+000
8.493970e+002,7.142975e+000
8.503612e+002,7.557190e+000
8.513254e+002,8.296539e+000
8.522897e+002,9.361206e+000
8.532539e+002,1.147379e+001
8.542181e+002,1.265363e+001
8.551824e+002,1.120865e+001
8.561466e+002,7.841217e+000
8.571108e+002,6.414703e+000
8.580751e+002,8.335022e+000
8.590393e+002,1.033435e+001
8.600035e+002,1.183719e+001
8.609678e+002,1.305478e+001
8.619320e+002,1.416537e+001
8.628962e+002,1.522964e+001
8.638605e+002,1.634634e+001
8.648247e+002,1.817847e+001
8.657889e+002,1.993640e+001
8.667532e+002,1.936569e+001
8.677174e+002,1.618967e+001
8.686816e+002,1.333224e+001
8.696459e+002,1.463263e+001
8.706101e+002,2.118921e+001
8.715743e+002,2.453210e+001
8.725386e+002,2.252054e+001
8.735028e+002,2.044781e+001
8.744670e+002,1.893729e+001
8.754313e+002,1.802924e+001
8.763955e+002,1.794730e+001
8.773597e+002,1.906320e+001
8.783240e+002,2.054855e+001
8.792882e+002,2.200104e+001
8.802524e+002,2.315726e+001
8.812167e+002,2.380127e+001
8.821809e+002,2.390628e+001
8.831451e+002,2.358560e+001
8.841094e+002,2.300537e+001
8.850736e+002,2.236005e+001
8.860378e+002,2.193298e+001
8.870021e+002,2.149100e+001
8.879663e+002,2.142267e+001
8.889305e+002,2.190659e+001
8.898948e+002,2.280789e+001
8.908590e+002,2.386377e+001
8.918232e+002,2.549347e+001
8.927875e+002,2.699350e+001
8.937517e+002,2.849347e+001
8.947159e+002,2.965390e+001
8.956802e+002,2.992313e+001
8.966444e+002,2.913879e+001
8.976086e+002,2.777213e+001
8.985729e+002,2.635931e+001
8.995371e+002,2.516946e+001
9.005013e+002,2.411240e+001
9.014656e+002,2.340192e+001
9.024298e+002,2.352219e+001
9.033940e+002,2.475784e+001
9.043583e+002,2.676480e+001
9.053225e+002,2.836688e+001
9.062867e+002,2.905859e+001
9.072510e+002,2.957816e+001
9.082152e+002,2.993442e+001
9.091794e+002,3.067963e+001
9.101437e+002,3.281699e+001
9.111079e+002,3.650720e+001
9.120721e+002,3.900180e+001
9.130364e+002,3.749127e+001
9.140006e+002,3.473550e+001
9.149648e+002,3.184891e+001
9.159291e+002,2.939841e+001
9.168933e+002,2.768118e+001
9.178575e+002,2.679916e+001
9.188218e+002,2.675092e+001
9.197860e+002,2.846689e+001
9.207502e+002,3.193976e+001
9.217145e+002,3.372214e+001
9.226787e+002,3.275095e+001
9.236429e+002,3.081012e+001
9.246072e+002,3.015881e+001
9.255714e+002,3.096878e+001
9.265356e+002,3.111096e+001
9.274999e+002,2.931430e+001
9.284641e+002,2.758505e+001
9.294283e+002,2.698911e+001
9.303926e+002,2.706503e+001
9.313568e+002,2.660333e+001
9.323210e+002,2.489368e+001
9.332853e+002,2.314435e+001
9.342495e+002,2.431955e+001
9.352137e+002,2.651578e+001
9.361780e+002,2.669794e+001
9.371422e+002,2.442453e+001
9.381064e+002,2.150348e+001
9.390707e+002,2.007477e+001
9.400349e+002,2.001651e+001
9.409991e+002,2.049698e+001
9.419634e+002,2.209152e+001
9.429276e+002,2.328699e+001
9.438918e+002,2.358017e+001
9.448561e+002,2.336478e+001
9.458203e+002,2.348102e+001
9.467845e+002,2.440671e+001
9.477488e+002,2.483762e+001
9.487130e+002,2.250806e+001
9.496772e+002,2.007135e+001
9.506415e+002,1.988379e+001
9.516057e+002,2.185776e+001
9.525699e+002,2.434286e+001
9.535342e+002,2.570169e+001
9.544984e+002,2.598004e+001
9.554626e+002,2.634128e+001
9.564269e+002,2.697113e+001
9.573911e+002,2.833310e+001
9.583553e+002,3.167798e+001
9.593196e+002,3.517740e+001
9.602838e+002,3.523471e+001
9.612480e+002,3.046219e+001
9.622123e+002,2.721527e+001
9.631765e+002,2.955911e+001
9.641407e+002,3.175049e+001
9.651050e+002,3.051154e+001
9.660692e+002,2.684457e+001
9.670334e+002,2.369879e+001
9.679977e+002,2.306189e+001
9.689619e+002,2.378149e+001
9.699261e+002,2.223837e+001
9.708904e+002,1.934811e+001
9.718546e+002,1.882278e+001
9.728188e+002,2.162329e+001
9.737831e+002,2.591171e+001
9.747473e+002,2.977817e+001
9.757115e+002,3.355954e+001
9.766758e+002,3.544839e+001
9.776400e+002,3.484335e+001
9.786042e+002,3.349673e+001
9.795685e+002,3.085089e+001
9.805327e+002,2.774246e+001
9.814969e+002,2.542422e+001
9.824612e+002,2.448233e+001
9.834254e+002,2.421088e+001
9.843896e+002,2.350851e+001
9.853539e+002,2.296143e+001
9.863181e+002,2.363657e+001
9.872823e+002,2.517316e+001
9.882466e+002,2.633234e+001
9.892108e+002,2.629080e+001
9.901750e+002,2.559930e+001
9.911393e+002,2.572128e+001
9.921035e+002,2.559045e+001
9.930677e+002,2.676471e+001
9.940320e+002,3.028714e+001
9.949962e+002,3.488907e+001
9.959604e+002,4.020496e+001
9.969247e+002,4.604758e+001
9.978889e+002,4.963403e+001
9.988531e+002,4.688107e+001
9.998174e+002,4.408737e+001
1.000782e+003,4.639453e+001
1.001746e+003,5.115170e+001
1.002710e+003,5.400592e+001
1.003674e+003,5.313477e+001
1.004639e+003,5.062183e+001
1.005603e+003,5.023221e+001
1.006567e+003,5.211462e+001
1.007531e+003,5.241049e+001
1.008495e+003,5.048880e+001
1.009460e+003,4.843799e+001
1.010424e+003,4.750668e+001
1.011388e+003,4.756192e+001
1.012352e+003,4.796539e+001
1.013317e+003,4.906903e+001
1.014281e+003,4.924979e+001
1.015245e+003,4.805405e+001
1.016209e+003,4.575452e+001
1.017174e+003,4.240298e+001
1.018138e+003,3.823517e+001
1.019102e+003,3.352036e+001
1.020066e+003,2.841547e+001
1.021031e+003,2.350317e+001
1.021995e+003,1.993933e+001
1.022959e+003,1.728299e+001
1.023923e+003,1.549551e+001
1.024887e+003,1.477527e+001
1.025852e+003,1.443707e+001
1.026816e+003,1.342834e+001
1.027780e+003,1.171649e+001
1.028744e+003,1.045703e+001
1.029709e+003,9.909363e+000
1.030673e+003,9.500214e+000
1.031637e+003,9.256744e+000
1.032601e+003,8.815125e+000
1.033566e+003,7.364685e+000
1.034530e+003,4.773682e+000
1.035494e+003,3.091919e+000
1.036458e+003,5.500336e+000
1.037422e+003,9.528351e+000
1.038387e+003,1.044702e+001
1.039351e+003,8.467560e+000
1.040315e+003,7.695190e+000
1.041279e+003,1.172382e+001
1.042244e+003,1.904068e+001
1.043208e+003,2.135251e+001
1.044172e+003,1.361880e+001
1.045136e+003,8.856018e+000
1.046101e+003,9.693817e+000
1.047065e+003,1.129596e+001
1.048029e+003,1.017535e+001
1.048993e+003,6.864288e+000
1.049958e+003,4.671631e+000
1.050922e+003,5.602814e+000
1.051886e+003,7.313354e+000
1.052850e+003,6.929474e+000
1.053814e+003,5.893311e+000
1.054779e+003,6.429657e+000
1.055743e+003,8.775726e+000
1.056707e+003,1.101611e+001
1.057671e+003,1.079349e+001
1.058636e+003,8.035675e+000
1.059600e+003,6.394623e+000
1.060564e+003,6.775848e+000
1.061528e+003,7.517609e+000
1.062493e+003,8.398560e+000
1.063457e+003,9.074707e+000
1.064421e+003,9.340149e+000
1.065385e+003,9.275238e+000
1.066349e+003,8.993286e+000
1.067314e+003,8.135712e+000
1.068278e+003,7.632263e+000
1.069242e+003,8.340179e+000
1.070206e+003,9.862061e+000
1.071171e+003,1.168167e+001
1.072135e+003,1.334592e+001
1.073099e+003,1.429324e+001
1.074063e+003,1.371844e+001
1.075028e+003,1.154089e+001
1.075992e+003,9.917664e+000
1.076956e+003,8.542236e+000
1.077920e+003,7.643707e+000
1.078885e+003,7.946350e+000
1.079849e+003,8.899597e+000
1.080813e+003,9.146423e+000
1.081777e+003,8.314819e+000
1.082741e+003,8.081573e+000
1.083706e+003,9.746796e+000
1.084670e+003,1.133917e+001
1.085634e+003,1.191806e+001
1.086598e+003,1.154697e+001
1.087563e+003,1.056522e+001
1.088527e+003,9.314880e+000
1.089491e+003,8.075439e+000
1.090455e+003,6.989075e+000
1.091420e+003,5.872650e+000
1.092384e+003,5.131805e+000
1.093348e+003,4.650177e+000
1.094312e+003,4.351044e+000
1.095276e+003,4.290131e+000
1.096241e+003,4.673187e+000
1.097205e+003,5.929901e+000
1.098169e+003,8.592926e+000
1.099133e+003,1.012006e+001
1.100098e+003,8.167664e+000
1.101062e+003,6.380920e+000
1.102026e+003,7.670105e+000
1.102990e+003,1.105621e+001
1.103955e+003,1.368695e+001
1.104919e+003,1.378793e+001
1.105883e+003,1.230289e+001
1.106847e+003,1.115469e+001
1.107812e+003,1.037619e+001
1.108776e+003,1.074420e+001
1.109740e+003,1.268295e+001
1.110704e+003,1.497052e+001
1.111668e+003,1.745804e+001
1.112633e+003,1.997281e+001
1.113597e+003,2.082300e+001
1.114561e+003,1.893307e+001
1.115525e+003,1.696439e+001
1.116490e+003,1.505203e+001
1.117454e+003,1.390741e+001
1.118418e+003,1.446402e+001
1.119382e+003,1.645407e+001
1.120347e+003,1.899826e+001
1.121311e+003,2.135410e+001
1.122275e+003,2.298801e+001
1.123239e+003,2.326309e+001
1.124203e+003,2.262729e+001
1.125168e+003,2.272592e+001
1.126132e+003,2.391922e+001
1.127096e+003,2.543546e+001
1.128060e+003,2.654623e+001
1.129025e+003,2.727933e+001
1.129989e+003,2.815985e+001
1.130953e+003,2.903415e+001
1.131917e+003,3.025018e+001
1.132882e+003,3.190005e+001
1.133846e+003,3.405280e+001
1.134810e+003,3.734451e+001
1.135774e+003,4.115091e+001
1.136739e+003,4.382086e+001
1.137703e+003,4.445020e+001
1.138667e+003,4.472089e+001
1.139631e+003,4.788391e+001
1.140595e+003,5.358948e+001
1.141560e+003,5.839954e+001
1.142524e+003,6.182574e+001
1.143488e+003,6.634424e+001
1.144452e+003,7.351270e+001
1.145417e+003,8.301276e+001
1.146381e+003,9.391116e+001
1.147345e+003,1.067398e+002
1.148309e+003,1.192194e+002
1.149274e+003,1.306075e+002
1.150238e+003,1.420071e+002
1.151202e+003,1.555323e+002
1.152166e+003,1.693783e+002
1.153130e+003,1.796804e+002
1.154095e+003,1.846144e+002
1.155059e+003,1.870263e+002
1.156023e+003,1.922360e+002
1.156987e+003,1.989784e+002
1.157952e+003,1.976897e+002
1.158916e+003,1.878186e+002
1.159880e+003,1.762682e+002
1.160844e+003,1.658287e+002
1.161809e+003,1.554966e+002
1.162773e+003,1.434488e+002
1.163737e+003,1.289851e+002
1.164701e+003,1.160858e+002
1.165666e+003,1.067811e+002
1.166630e+003,9.858276e+001
1.167594e+003,9.025778e+001
1.168558e+003,8.257785e+001
1.169522e+003,7.640417e+001
1.170487e+003,7.219653e+001
1.171451e+003,7.075769e+001
1.172415e+003,7.349387e+001
1.173379e+003,7.898862e+001
1.174344e+003,7.981067e+001
1.175308e+003,7.598126e+001
1.176272e+003,7.200208e+001
1.177236e+003,6.914832e+001
1.178201e+003,6.714188e+001
1.179165e+003,6.571103e+001
1.180129e+003,6.467761e+001
1.181093e+003,6.289917e+001
1.182057e+003,5.985574e+001
1.183022e+003,5.671078e+001
1.183986e+003,5.362173e+001
1.184950e+003,5.087402e+001
1.185914e+003,4.858694e+001
1.186879e+003,4.697729e+001
1.187843e+003,4.644290e+001
1.188807e+003,4.723819e+001
1.189771e+003,4.905222e+001
1.190736e+003,5.155615e+001
1.191700e+003,5.489822e+001
1.192664e+003,5.685974e+001
1.193628e+003,5.738687e+001
1.194593e+003,5.665427e+001
1.195557e+003,5.391620e+001
1.196521e+003,4.987662e+001
1.197485e+003,4.749112e+001
1.198449e+003,4.806451e+001
1.199414e+003,4.769238e+001
1.200378e+003,4.347916e+001
1.201342e+003,3.881860e+001
1.202306e+003,3.496411e+001
1.203271e+003,3.238538e+001
1.204235e+003,3.224756e+001
1.205199e+003,3.479825e+001
1.206163e+003,3.744800e+001
1.207128e+003,3.557135e+001
1.208092e+003,2.886942e+001
1.209056e+003,2.465048e+001
1.210020e+003,2.397760e+001
1.210984e+003,2.320215e+001
1.211949e+003,2.124991e+001
1.212913e+003,1.855194e+001
1.213877e+003,1.566489e+001
1.214841e+003,1.271066e+001
1.215806e+003,9.692017e+000
1.216770e+003,6.020233e+000
1.217734e+003,3.155121e+000
1.218698e+003,1.866272e+000
1.219663e+003,1.672028e+000
1.220627e+003,2.565369e+000
1.221591e+003,4.135468e+000
1.222555e+003,5.019409e+000
1.223520e+003,3.951385e+000
1.224484e+003,1.588196e+000
1.225448e+003,6.351624e-001
1.226412e+003,2.381165e+000
1.227376e+003,2.447235e+000
1.228341e+003,-6.011047e-001
1.229305e+003,-3.818695e+000
1.230269e+003,-6.263367e+000
1.231233e+003,-7.592407e+000
1.232198e+003,-6.653717e+000
1.233162e+003,-2.887421e+000
1.234126e+003,5.224915e-001
1.235090e+003,1.039001e+000
1.236055e+003,-1.072388e-001
1.237019e+003,-2.037659e+000
1.237983e+003,-4.389984e+000
1.238947e+003,-6.414581e+000
1.239911e+003,-7.668274e+000
1.240876e+003,-7.530579e+000
1.241840e+003,-4.680695e+000
1.242804e+003,1.254150e+000
1.243768e+003,3.349426e+000
1.244733e+003,-4.338562e+000
1.245697e+003,-7.907990e+000
1.246661e+003,-3.364410e+000
1.247625e+003,2.507507e+000
1.248590e+003,4.894257e+000
1.249554e+003,4.318420e+000
1.250518e+003,3.671417e+000
1.251482e+003,4.101501e+000
1.252447e+003,4.869995e+000
1.253411e+003,5.509125e+000
1.254375e+003,6.021759e+000
1.255339e+003,5.988495e+000
1.256303e+003,5.553497e+000
1.257268e+003,5.791595e+000
1.258232e+003,7.378265e+000
1.259196e+003,9.329193e+000
1.260160e+003,9.758026e+000
1.261125e+003,8.444366e+000
1.262089e+003,8.332489e+000
1.263053e+003,1.033374e+001
1.264017e+003,1.238879e+001
1.264982e+003,1.429462e+001
1.265946e+003,1.601892e+001
1.266910e+003,1.767563e+001
1.267874e+003,1.915720e+001
1.268839e+003,2.030072e+001
1.269803e+003,2.102200e+001
1.270767e+003,2.091830e+001
1.271731e+003,1.896512e+001
1.272695e+003,1.530899e+001
1.273660e+003,1.223160e+001
1.274624e+003,9.582947e+000
1.275588e+003,7.044037e+000
1.276552e+003,4.378021e+000
1.277517e+003,2.157227e+000
1.278481e+003,1.450897e+000
1.279445e+003,2.372162e+000
1.280409e+003,2.865692e+000
1.281374e+003,2.087097e+000
1.282338e+003,1.046478e+000
1.283302e+003,-9.124756e-002
1.284266e+003,-1.021790e+000
1.285230e+003,-1.338074e+000
1.286195e+003,-1.089874e+000
1.287159e+003,-4.954529e-001
1.288123e+003,3.695984e-001
1.289087e+003,1.151886e+000
1.290052e+003,2.029419e-001
1.291016e+003,-3.724121e+000
1.291980e+003,-5.416260e+000
1.292944e+003,-2.567261e+000
1.293909e+003,-1.066254e+000
1.294873e+003,-4.395050e+000
1.295837e+003,-9.318115e+000
1.296801e+003,-1.160477e+001
1.297766e+003,-1.067184e+001
1.298730e+003,-7.890167e+000
1.299694e+003,-2.943085e+000
1.300658e+003,1.315887e+000
1.301622e+003,8.635254e-001
1.302587e+003,-1.738861e+000
1.303551e+003,-2.424255e+000
1.304515e+003,-5.099487e-001
1.305479e+003,1.827484e+000
1.306444e+003,2.792572e+000
1.307408e+003,2.579041e+000
1.308372e+003,2.119598e+000
1.309336e+003,1.349396e+000
1.310301e+003,4.679260e-001
1.311265e+003,-1.295776e-001
1.312229e+003,-1.045380e+000
1.313193e+003,-3.277985e+000
1.314157e+003,-5.466522e+000
1.315122e+003,-5.843262e+000
1.316086e+003,-4.629639e+000
1.317050e+003,-3.784241e+000
1.318014e+003,-4.534515e+000
1.318979e+003,-5.755981e+000
1.319943e+003,-5.424713e+000
1.320907e+003,-3.676453e+000
1.321871e+003,-2.913849e+000
1.322836e+003,-3.933533e+000
1.323800e+003,-4.504333e+000
1.324764e+003,-3.116302e+000
1.325728e+003,-6.233521e-001
1.326693e+003,1.925262e+000
1.327657e+003,4.396576e+000
1.328621e+003,4.618591e+000
1.329585e+003,1.151794e+000
1.330549e+003,-1.910370e+000
1.331514e+003,-3.606201e+000
1.332478e+003,-4.118622e+000
1.333442e+003,-2.540497e+000
1.334406e+003,4.179382e-001
1.335371e+003,2.437866e+000
1.336335e+003,2.136292e+000
1.337299e+003,6.918335e-001
1.338263e+003,3.102112e-001
1.339228e+003,1.219666e+000
1.340192e+003,1.107178e+000
1.341156e+003,-8.894653e-001
1.342120e+003,-2.588562e+000
1.343084e+003,-4.604309e+000
1.344049e+003,-5.803986e+000
1.345013e+003,-4.176910e+000
1.345977e+003,-6.426086e-001
1.346941e+003,1.562866e+000
1.347906e+003,1.216034e+000
1.348870e+003,2.053833e-001
1.349834e+003,1.157837e-001
1.350798e+003,4.211121e-001
1.351763e+003,2.254028e-001
1.352727e+003,-2.984619e-001
1.353691e+003,-3.194580e-001
1.354655e+003,7.340698e-001
1.355620e+003,1.543915e+000
1.356584e+003,3.842163e-002
1.357548e+003,-3.307739e+000
1.358512e+003,-4.731812e+000
1.359476e+003,-3.678070e+000
1.360441e+003,-2.636993e+000
1.361405e+003,-2.031067e+000
1.362369e+003,-1.560028e+000
1.363333e+003,-7.300720e-001
1.364298e+003,-8.575439e-002
1.365262e+003,-6.919556e-001
1.366226e+003,-2.527740e+000
1.367190e+003,-4.221252e+000
1.368155e+003,-4.543091e+000
1.369119e+003,-3.929535e+000
1.370083e+003,-3.728577e+000
1.371047e+003,-4.081055e+000
1.372011e+003,-3.613434e+000
1.372976e+003,-1.648926e+000
1.373940e+003,-2.968750e-001
1.374904e+003,-1.039948e+000
1.375868e+003,-2.157684e+000
1.376833e+003,-1.197327e+000
1.377797e+003,1.657349e+000
1.378761e+003,3.844421e+000
1.379725e+003,4.276031e+000
1.380690e+003,3.993164e+000
1.381654e+003,3.886597e+000
1.382618e+003,3.909088e+000
1.383582e+003,4.025146e+000
1.384547e+003,4.183319e+000
1.385511e+003,4.142151e+000
1.386475e+003,3.732788e+000
1.387439e+003,2.844177e+000
1.388403e+003,8.537598e-001
1.389368e+003,-2.251129e+000
1.390332e+003,-3.060608e+000
1.391296e+003,1.339417e-001
1.392260e+003,2.694427e+000
1.393225e+003,3.354736e+000
1.394189e+003,3.314972e+000
1.395153e+003,3.295319e+000
1.396117e+003,3.017303e+000
1.397082e+003,1.423706e+000
1.398046e+003,-1.264069e+000
1.399010e+003,-2.937561e+000
1.399974e+003,-1.754974e+000
1.400938e+003,1.144531e+000
1.401903e+003,2.982635e+000
1.402867e+003,4.247375e+000
1.403831e+003,4.844391e+000
1.404795e+003,3.184418e+000
1.405760e+003,2.416748e+000
1.406724e+003,4.621582e+000
1.407688e+003,6.798859e+000
1.408652e+003,4.873810e+000
1.409617e+003,-1.546021e-001
1.410581e+003,-2.611725e+000
1.411545e+003,7.318115e-002
1.412509e+003,3.929108e+000
1.413474e+003,5.118439e+000
1.414438e+003,4.633087e+000
1.415402e+003,4.717499e+000
1.416366e+003,5.437195e+000
1.417330e+003,5.374329e+000
1.418295e+003,3.639496e+000
1.419259e+003,2.248840e+000
1.420223e+003,4.549774e+000
1.421187e+003,9.375244e+000
1.422152e+003,9.529205e+000
1.423116e+003,2.942017e+000
1.424080e+003,-1.045258e+000
1.425044e+003,1.936737e+000
1.426009e+003,5.653412e+000
1.426973e+003,8.250702e+000
1.427937e+003,9.733826e+000
1.428901e+003,1.020020e+001
1.429865e+003,9.926025e+000
1.430830e+003,9.195770e+000
1.431794e+003,8.109589e+000
1.432758e+003,6.807007e+000
1.433722e+003,5.764771e+000
1.434687e+003,5.177979e+000
1.435651e+003,6.874939e+000
1.436615e+003,1.350943e+001
1.437579e+003,1.682376e+001
1.438544e+003,1.408148e+001
1.439508e+003,1.008624e+001
1.440472e+003,7.464813e+000
1.441436e+003,6.458038e+000
1.442401e+003,7.189789e+000
1.443365e+003,9.354034e+000
1.444329e+003,1.109052e+001
1.445293e+003,1.099695e+001
1.446257e+003,1.007953e+001
1.447222e+003,1.001865e+001
1.448186e+003,1.065875e+001
1.449150e+003,1.160175e+001
1.450114e+003,1.311658e+001
1.451079e+003,1.338388e+001
1.452043e+003,1.030417e+001
1.453007e+003,6.598938e+000
1.453971e+003,6.184814e+000
1.454936e+003,8.577881e+000
1.455900e+003,1.052844e+001
1.456864e+003,1.150018e+001
1.457828e+003,1.196649e+001
1.458792e+003,1.131293e+001
1.459757e+003,1.075375e+001
1.460721e+003,1.196475e+001
1.461685e+003,1.386325e+001
1.462649e+003,1.426483e+001
1.463614e+003,1.272626e+001
1.464578e+003,1.018796e+001
1.465542e+003,6.984558e+000
1.466506e+003,4.015228e+000
1.467471e+003,4.850555e+000
1.468435e+003,1.102014e+001
1.469399e+003,1.467554e+001
1.470363e+003,1.298245e+001
1.471328e+003,1.154337e+001
1.472292e+003,1.170758e+001
1.473256e+003,1.195245e+001
1.474220e+003,1.126971e+001
1.475184e+003,1.028641e+001
1.476149e+003,9.938721e+000
1.477113e+003,1.046243e+001
1.478077e+003,1.184390e+001
1.479041e+003,1.432281e+001
1.480006e+003,1.741864e+001
1.480970e+003,1.893808e+001
1.481934e+003,1.821442e+001
1.482898e+003,1.752570e+001
1.483863e+003,1.633386e+001
1.484827e+003,1.581305e+001
1.485791e+003,1.708810e+001
1.486755e+003,1.886621e+001
1.487719e+003,1.946661e+001
1.488684e+003,1.934012e+001
1.489648e+003,2.063269e+001
1.490612e+003,2.406488e+001
1.491576e+003,2.700333e+001
1.492541e+003,2.683466e+001
1.493505e+003,2.527341e+001
1.494469e+003,2.621582e+001
1.495433e+003,2.903232e+001
1.496398e+003,3.170261e+001
1.497362e+003,3.417712e+001
1.498326e+003,3.724292e+001
1.499290e+003,4.124884e+001
1.500255e+003,4.602173e+001
1.501219e+003,5.168063e+001
1.502183e+003,5.786484e+001
1.503147e+003,6.271320e+001
1.504111e+003,6.540497e+001
1.505076e+003,6.886285e+001
1.506040e+003,7.473447e+001
1.507004e+003,8.238406e+001
1.507968e+003,9.118738e+001
1.508933e+003,1.010499e+002
1.509897e+003,1.115740e+002
1.510861e+003,1.231350e+002
1.511825e+003,1.373298e+002
1.512790e+003,1.557379e+002
1.513754e+003,1.757908e+002
1.514718e+003,1.927989e+002
1.515682e+003,2.065436e+002
1.516646e+003,2.204770e+002
1.517611e+003,2.352194e+002
1.518575e+003,2.500033e+002
1.519539e+003,2.687283e+002
1.520503e+003,2.835988e+002
1.521468e+003,2.890910e+002
1.522432e+003,2.885834e+002
1.523396e+003,2.867723e+002
1.524360e+003,2.844674e+002
1.525325e+003,2.800316e+002
1.526289e+003,2.724633e+002
1.527253e+003,2.619571e+002
1.528217e+003,2.484699e+002
1.529182e+003,2.321747e+002
1.530146e+003,2.156342e+002
1.531110e+003,1.987238e+002
1.532074e+003,1.812840e+002
1.533039e+003,1.627352e+002
1.534003e+003,1.433257e+002
1.534967e+003,1.224742e+002
1.535931e+003,1.022712e+002
1.536896e+003,8.424442e+001
1.537860e+003,6.908859e+001
1.538824e+003,5.749713e+001
1.539788e+003,4.959045e+001
1.540752e+003,4.400919e+001
1.541717e+003,3.923694e+001
1.542681e+003,3.534073e+001
1.543645e+003,3.188934e+001
1.544609e+003,2.909607e+001
1.545573e+003,2.698438e+001
1.546538e+003,2.533432e+001
1.547502e+003,2.391101e+001
1.548466e+003,2.334668e+001
1.549430e+003,2.302402e+001
1.550395e+003,2.185147e+001
1.551359e+003,2.006595e+001
1.552323e+003,1.901974e+001
1.553287e+003,1.915118e+001
1.554252e+003,1.906448e+001
1.555216e+003,1.738309e+001
1.556180e+003,1.497449e+001
1.557144e+003,1.410977e+001
1.558109e+003,1.494427e+001
1.559073e+003,1.452866e+001
1.560037e+003,1.150449e+001
1.561001e+003,9.186310e+000
1.561966e+003,9.547577e+000
1.562930e+003,1.090283e+001
1.563894e+003,1.155222e+001
1.564858e+003,1.166904e+001
1.565823e+003,1.218719e+001
1.566787e+003,1.320917e+001
1.567751e+003,1.366425e+001
1.568715e+003,1.279608e+001
1.569679e+003,1.194269e+001
1.570644e+003,1.324063e+001
1.571608e+003,1.544574e+001
1.572572e+003,1.507693e+001
1.573536e+003,1.212582e+001
1.574500e+003,1.020099e+001
1.575465e+003,1.063690e+001
1.576429e+003,1.198117e+001
1.577393e+003,1.332980e+001
1.578357e+003,1.450452e+001
1.579322e+003,1.543549e+001
1.580286e+003,1.615616e+001
1.581250e+003,1.620279e+001
1.582214e+003,1.520337e+001
1.583179e+003,1.430014e+001
1.584143e+003,1.390176e+001
1.585107e+003,1.422931e+001
1.586071e+003,1.675287e+001
1.587036e+003,2.062228e+001
1.588000e+003,2.191110e+001
1.588964e+003,1.943765e+001
1.589928e+003,1.703555e+001
1.590893e+003,1.769370e+001
1.591857e+003,1.949017e+001
1.592821e+003,1.916251e+001
1.593785e+003,1.728961e+001
1.594750e+003,1.726987e+001
1.595714e+003,1.975418e+001
1.596678e+003,2.170276e+001
1.597642e+003,2.145578e+001
1.598606e+003,2.103995e+001
1.599571e+003,2.319037e+001
1.600535e+003,2.565991e+001
1.601499e+003,2.451892e+001
1.602463e+003,2.038690e+001
1.603427e+003,1.812076e+001
1.604392e+003,1.986557e+001
1.605356e+003,2.262186e+001
1.606320e+003,2.358917e+001
1.607284e+003,2.316751e+001
1.608249e+003,2.215274e+001
1.609213e+003,2.050247e+001
1.610177e+003,1.991565e+001
1.611141e+003,2.116861e+001
1.612106e+003,2.228070e+001
1.613070e+003,2.264301e+001
1.614034e+003,2.210095e+001
1.614998e+003,1.984235e+001
1.615963e+003,1.689148e+001
1.616927e+003,1.473602e+001
1.617891e+003,1.362991e+001
1.618855e+003,1.340628e+001
1.619820e+003,1.398254e+001
1.620784e+003,1.458344e+001
1.621748e+003,1.443887e+001
1.622712e+003,1.399725e+001
1.623677e+003,1.394159e+001
1.624641e+003,1.427869e+001
1.625605e+003,1.520612e+001
1.626569e+003,1.657919e+001
1.627533e+003,1.764194e+001
1.628498e+003,1.874164e+001
1.629462e+003,1.934250e+001
1.630426e+003,1.834619e+001
1.631390e+003,1.651990e+001
1.632354e+003,1.565997e+001
1.633319e+003,1.612033e+001
1.634283e+003,1.678500e+001
1.635247e+003,1.684586e+001
1.636211e+003,1.643298e+001
1.637176e+003,1.582404e+001
1.638140e+003,1.514316e+001
1.639104e+003,1.464398e+001
1.640068e+003,1.425143e+001
1.641033e+003,1.392941e+001
1.641997e+003,1.410040e+001
1.642961e+003,1.396234e+001
1.643925e+003,1.204034e+001
1.644890e+003,1.044312e+001
1.645854e+003,1.183853e+001
1.646818e+003,1.519366e+001
1.647782e+003,1.766235e+001
1.648747e+003,1.832016e+001
1.649711e+003,1.798792e+001
1.650675e+003,1.729852e+001
1.651639e+003,1.666129e+001
1.652604e+003,1.688687e+001
1.653568e+003,1.778229e+001
1.654532e+003,1.729749e+001
1.655496e+003,1.476550e+001
1.656460e+003,1.288446e+001
1.657425e+003,1.253055e+001
1.658389e+003,1.307626e+001
1.659353e+003,1.551978e+001
1.660317e+003,1.758615e+001
1.661281e+003,1.573544e+001
1.662246e+003,1.132916e+001
1.663210e+003,9.264191e+000
1.664174e+003,1.114545e+001
1.665138e+003,1.358670e+001
1.666103e+003,1.381119e+001
1.667067e+003,1.230295e+001
1.668031e+003,9.550659e+000
1.668995e+003,5.820648e+000
1.669960e+003,4.146637e+000
1.670924e+003,5.063354e+000
1.671888e+003,7.122162e+000
1.672852e+003,1.116656e+001
1.673817e+003,1.412527e+001
1.674781e+003,1.341599e+001
1.675745e+003,1.114114e+001
1.676709e+003,9.010193e+000
1.677674e+003,7.400452e+000
1.678638e+003,6.912811e+000
1.679602e+003,7.730804e+000
1.680566e+003,8.627930e+000
1.681531e+003,8.766754e+000
1.682495e+003,8.588531e+000
1.683459e+003,8.906342e+000
1.684423e+003,9.335754e+000
1.685387e+003,7.800659e+000
1.686352e+003,3.784790e+000
1.687316e+003,1.348267e+000
1.688280e+003,2.566925e+000
1.689244e+003,4.141449e+000
1.690208e+003,2.863434e+000
1.691173e+003,1.074127e+000
1.692137e+003,1.703522e+000
1.693101e+003,4.313751e+000
1.694065e+003,6.851196e+000
1.695030e+003,8.647064e+000
1.695994e+003,9.351593e+000
1.696958e+003,8.510376e+000
1.697922e+003,7.008759e+000
1.698887e+003,5.769287e+000
1.699851e+003,4.856628e+000
1.700815e+003,4.486633e+000
1.701779e+003,4.536560e+000
1.702744e+003,3.466949e+000
1.703708e+003,4.066467e-001
1.704672e+003,-1.132874e+000
1.705636e+003,2.209503e+000
1.706601e+003,7.004395e+000
1.707565e+003,8.951324e+000
1.708529e+003,8.568787e+000
1.709493e+003,6.207642e+000
1.710458e+003,1.522888e+000
1.711422e+003,-1.837402e+000
1.712386e+003,-1.854401e+000
1.713350e+003,-3.060303e-001
1.714314e+003,1.962097e+000
1.715279e+003,4.128265e+000
1.716243e+003,4.754608e+000
1.717207e+003,4.136139e+000
1.718171e+003,4.302460e+000
1.719135e+003,5.863495e+000
1.720100e+003,6.533417e+000
1.721064e+003,4.493347e+000
1.722028e+003,1.286560e+000
1.722992e+003,-9.490356e-001
1.723957e+003,-1.975677e+000
1.724921e+003,-1.658539e+000
1.725885e+003,-8.352661e-002
1.726849e+003,7.477722e-001
1.727814e+003,7.287292e-001
1.728778e+003,4.949341e-001
1.729742e+003,-3.932495e-001
1.730706e+003,-9.024353e-001
1.731671e+003,2.788086e-001
1.732635e+003,2.086884e+000
1.733599e+003,2.889679e+000
1.734563e+003,2.555237e+000
1.735528e+003,1.287628e+000
1.736492e+003,-9.003906e-001
1.737456e+003,-2.908905e+000
1.738420e+003,-3.404755e+000
1.739385e+003,-2.873901e+000
1.740349e+003,-2.353058e+000
1.741313e+003,-1.473816e+000
1.742277e+003,-1.633789e+000
1.743241e+003,-4.031281e+000
1.744206e+003,-5.157166e+000
1.745170e+003,-3.287720e+000
1.746134e+003,-1.776581e+000
1.747098e+003,-3.015228e+000
1.748063e+003,-5.240326e+000
1.749027e+003,-7.024780e+000
1.749991e+003,-7.601501e+000
1.750955e+003,-5.287476e+000
1.751919e+003,-2.770691e-001
1.752884e+003,3.308990e+000
1.753848e+003,2.019653e+000
1.754812e+003,-1.988281e+000
1.755776e+003,-4.353699e+000
1.756741e+003,-4.906616e+000
1.757705e+003,-4.446106e+000
1.758669e+003,-2.650391e+000
1.759633e+003,-1.327393e+000
1.760598e+003,-6.758423e-001
1.761562e+003,-8.811340e-001
1.762526e+003,-2.739166e+000
1.763490e+003,-4.266602e+000
1.764455e+003,-3.715515e+000
1.765419e+003,-2.022095e+000
1.766383e+003,-6.021118e-001
1.767347e+003,5.831909e-002
1.768312e+003,-3.142090e-001
1.769276e+003,-1.933777e+000
1.770240e+003,-3.837891e+000
1.771204e+003,-4.876770e+000
1.772168e+003,-4.965668e+000
1.773133e+003,-4.188232e+000
1.774097e+003,-2.658081e+000
1.775061e+003,-1.211548e+000
1.776025e+003,3.118896e-002
1.776990e+003,-5.708618e-001
1.777954e+003,-4.481567e+000
1.778918e+003,-7.528564e+000
1.779882e+003,-6.244781e+000
1.780846e+003,-3.181915e+000
1.781811e+003,-1.264954e+000
1.782775e+003,-2.946777e-001
1.783739e+003,1.502380e-001
1.784703e+003,1.676941e-001
1.785668e+003,1.340027e-001
1.786632e+003,4.403687e-002
1.787596e+003,-4.037170e-001
1.788560e+003,-1.493225e+000
1.789525e+003,-2.424652e+000
1.790489e+003,-2.168182e+000
1.791453e+003,-1.177460e+000
1.792417e+003,-7.142029e-001
1.793382e+003,-9.873962e-001
1.794346e+003,-1.135040e+000
1.795310e+003,-6.900330e-001
1.796274e+003,-6.004639e-001
1.797239e+003,-1.969879e+000
1.798203e+003,-3.886658e+000
1.799167e+003,-4.213989e+000
1.800131e+003,-3.067719e+000
1.801095e+003,-2.823944e+000
1.802060e+003,-4.251312e+000
1.803024e+003,-4.378876e+000
1.803988e+003,-1.790710e+000
1.804952e+003,4.292603e-001
1.805917e+003,4.857178e-001
1.806881e+003,-2.548218e-001
1.807845e+003,-2.045593e-001
1.808809e+003,3.397522e-001
1.809773e+003,2.155151e-001
1.810738e+003,-7.390137e-001
1.811702e+003,-1.694580e+000
1.812666e+003,-2.146393e+000
1.813630e+003,-2.187561e+000
1.814595e+003,-1.854553e+000
1.815559e+003,-1.388885e+000
1.816523e+003,-1.586121e+000
1.817487e+003,-2.464630e+000
1.818452e+003,-3.274231e+000
1.819416e+003,-4.163055e+000
1.820380e+003,-3.702820e+000
1.821344e+003,-2.744446e-001
1.822309e+003,2.366821e+000
1.823273e+003,1.391541e+000
1.824237e+003,-5.705872e-001
1.825201e+003,-1.349121e+000
1.826166e+003,-1.015228e+000
1.827130e+003,5.726929e-001
1.828094e+003,3.241333e+000
1.829058e+003,3.935791e+000
1.830022e+003,4.313354e-001
1.830987e+003,-3.399261e+000
1.831951e+003,-4.197296e+000
1.832915e+003,-3.481140e+000
1.833879e+003,-3.557556e+000
1.834844e+003,-4.071289e+000
1.835808e+003,-3.284637e+000
1.836772e+003,-1.109680e+000
1.837736e+003,3.184814e-001
1.838700e+003,-5.834961e-002
1.839665e+003,-9.328003e-001
1.840629e+003,-9.526367e-001
1.841593e+003,-7.504883e-001
1.842557e+003,-1.980011e+000
1.843522e+003,-4.619659e+000
1.844486e+003,-6.254089e+000
1.845450e+003,-5.955139e+000
1.846414e+003,-5.846069e+000
1.847379e+003,-7.198914e+000
1.848343e+003,-7.732758e+000
1.849307e+003,-5.313324e+000
1.850271e+003,-3.122345e+000
1.851236e+003,-4.137970e+000
1.852200e+003,-6.169525e+000
1.853164e+003,-6.225220e+000
1.854128e+003,-4.510315e+000
1.855093e+003,-2.547150e+000
1.856057e+003,-8.875427e-001
1.857021e+003,1.815796e-002
1.857985e+003,-3.760376e-001
1.858949e+003,-1.649231e+000
1.859914e+003,-3.319977e+000
1.860878e+003,-5.130005e+000
1.861842e+003,-5.824677e+000
1.862806e+003,-5.444122e+000
1.863771e+003,-5.486633e+000
1.864735e+003,-6.554596e+000
1.865699e+003,-6.796722e+000
1.866663e+003,-4.865540e+000
1.867627e+003,-2.468201e+000
1.868592e+003,-8.466187e-001
1.869556e+003,-3.564758e-001
1.870520e+003,-1.695770e+000
1.871484e+003,-4.534454e+000
1.872449e+003,-6.589355e+000
1.873413e+003,-7.163757e+000
1.874377e+003,-6.279388e+000
1.875341e+003,-3.339691e+000
1.876306e+003,-8.268738e-001
1.877270e+003,-8.893738e-001
1.878234e+003,-1.399902e+000
1.879198e+003,4.240417e-001
1.880163e+003,3.292999e+000
1.881127e+003,4.507324e+000
1.882091e+003,3.970551e+000
1.883055e+003,3.243347e+000
1.884020e+003,3.008911e+000
1.884984e+003,2.973450e+000
1.885948e+003,2.904999e+000
1.886912e+003,2.573181e+000
1.887876e+003,1.465668e+000
1.888841e+003,-3.129883e-001
1.889805e+003,-1.915619e+000
1.890769e+003,-3.597198e+000
1.891733e+003,-3.542480e+000
1.892698e+003,-8.205261e-001
1.893662e+003,1.355835e+000
1.894626e+003,1.995911e+000
1.895590e+003,1.810089e+000
1.896554e+003,5.936279e-001
1.897519e+003,-4.453735e-001
1.898483e+003,3.507385e-001
1.899447e+003,2.236938e+000
1.900411e+003,3.122986e+000
1.901376e+003,2.700714e+000
1.902340e+003,2.279388e+000
1.903304e+003,2.324615e+000
1.904268e+003,2.437653e+000
1.905233e+003,1.904083e+000
1.906197e+003,1.935059e+000
1.907161e+003,4.981964e+000
1.908125e+003,8.998077e+000
1.909090e+003,9.958801e+000
1.910054e+003,7.776489e+000
1.911018e+003,4.305725e+000
1.911982e+003,6.986389e-001
1.912947e+003,-1.038727e+000
1.913911e+003,4.945679e-001
1.914875e+003,3.193970e+000
1.915839e+003,3.689697e+000
1.916803e+003,2.270844e+000
1.917768e+003,1.047485e+000
1.918732e+003,-8.599854e-002
1.919696e+003,1.001221e+000
1.920660e+003,5.832764e+000
1.921625e+003,9.005402e+000
1.922589e+003,9.052277e+000
1.923553e+003,7.432678e+000
1.924517e+003,2.848999e+000
1.925481e+003,-1.180817e+000
1.926446e+003,-6.499023e-001
1.927410e+003,2.343353e+000
1.928374e+003,3.395081e+000
1.929338e+003,2.216248e+000
1.930303e+003,1.548828e+000
1.931267e+003,2.279266e+000
1.932231e+003,4.007690e+000
1.933195e+003,8.084198e+000
1.934160e+003,1.082007e+001
1.935124e+003,8.096252e+000
1.936088e+003,3.542725e+000
1.937052e+003,1.570709e+000
1.938017e+003,1.881561e+000
1.938981e+003,3.398651e+000
1.939945e+003,5.093964e+000
1.940909e+003,4.291748e+000
1.941874e+003,5.728149e-002
1.942838e+003,-3.841431e+000
1.943802e+003,-3.649841e+000
1.944766e+003,-1.288818e+000
1.945730e+003,-1.061951e+000
1.946695e+003,-2.847504e+000
1.947659e+003,-4.773560e+000
1.948623e+003,-7.125061e+000
1.949587e+003,-6.641083e+000
1.950552e+003,-1.920135e+000
1.951516e+003,1.783020e+000
1.952480e+003,2.540588e+000
1.953444e+003,2.244843e+000
1.954408e+003,1.604889e+000
1.955373e+003,9.489441e-001
1.956337e+003,1.404663e+000
1.957301e+003,2.669128e+000
1.958265e+003,2.586884e+000
1.959230e+003,8.801270e-001
1.960194e+003,1.194458e-001
1.961158e+003,1.027344e+000
1.962122e+003,1.577393e+000
1.963087e+003,6.928101e-001
1.964051e+003,1.224365e-001
1.965015e+003,1.531189e+000
1.965979e+003,3.573578e+000
1.966944e+003,4.704407e+000
1.967908e+003,5.020905e+000
1.968872e+003,5.233002e+000
1.969836e+003,5.496490e+000
1.970801e+003,5.359192e+000
1.971765e+003,4.725555e+000
1.972729e+003,4.730469e+000
1.973693e+003,6.574707e+000
1.974657e+003,8.772705e+000
1.975622e+003,9.007294e+000
1.976586e+003,7.721130e+000
1.977550e+003,6.093079e+000
1.978514e+003,4.368103e+000
1.979479e+003,3.039001e+000
1.980443e+003,2.172943e+000
1.981407e+003,2.504395e+000
1.982371e+003,4.480347e+000
1.983335e+003,6.062195e+000
1.984300e+003,5.448029e+000
1.985264e+003,4.150665e+000
1.986228e+003,4.750641e+000
1.987192e+003,6.738495e+000
1.988157e+003,7.486786e+000
1.989121e+003,6.908905e+000
1.990085e+003,5.940277e+000
1.991049e+003,4.144073e+000
1.992014e+003,3.112152e+000
1.992978e+003,3.424408e+000
1.993942e+003,3.741455e+000
1.994906e+003,3.399506e+000
1.995871e+003,3.132019e+000
1.996835e+003,3.825256e+000
1.997799e+003,4.875275e+000
1.998763e+003,4.921204e+000
1.999728e+003,4.203491e+000
