5.003444e+002,4.601126e+001
5.013087e+002,4.676353e+001
5.022729e+002,4.546140e+001
5.032371e+002,4.298178e+001
5.042014e+002,4.200288e+001
5.051656e+002,4.231943e+001
5.061298e+002,4.273776e+001
5.070941e+002,4.205283e+001
5.080583e+002,3.972620e+001
5.090225e+002,3.906453e+001
5.099868e+002,4.185564e+001
5.109510e+002,4.393460e+001
5.119152e+002,4.221954e+001
5.128795e+002,3.626649e+001
5.138437e+002,3.262738e+001
5.148079e+002,3.642390e+001
5.157722e+002,4.039934e+001
5.167364e+002,4.122250e+001
5.177006e+002,3.868988e+001
5.186649e+002,3.547411e+001
5.196291e+002,3.529565e+001
5.205933e+002,3.617343e+001
5.215576e+002,3.537387e+001
5.225218e+002,3.266991e+001
5.234860e+002,2.932645e+001
5.244503e+002,2.775365e+001
5.254145e+002,2.880405e+001
5.263787e+002,2.964403e+001
5.273430e+002,3.016621e+001
5.283072e+002,3.055768e+001
5.292714e+002,3.110704e+001
5.302357e+002,3.203569e+001
5.311999e+002,3.206094e+001
5.321641e+002,3.110602e+001
5.331284e+002,2.969040e+001
5.340926e+002,2.789044e+001
5.350568e+002,2.559943e+001
5.360211e+002,2.362518e+001
5.369853e+002,2.312425e+001
5.379495e+002,2.327376e+001
5.389138e+002,2.341496e+001
5.398780e+002,2.325729e+001
5.408422e+002,2.296964e+001
5.418065e+002,2.312631e+001
5.427707e+002,2.366051e+001
5.437349e+002,2.423613e+001
5.446992e+002,2.487222e+001
5.456634e+002,2.538194e+001
5.466276e+002,2.514047e+001
5.475919e+002,2.306882e+001
5.485561e+002,2.166438e+001
5.495203e+002,2.139032e+001
5.504846e+002,2.159955e+001
5.514488e+002,2.133914e+001
5.524130e+002,2.005228e+001
5.533773e+002,1.904968e+001
5.543415e+002,1.900752e+001
5.553057e+002,1.950296e+001
5.562700e+002,2.019672e+001
5.572342e+002,2.085574e+001
5.581984e+002,2.132617e+001
5.591627e+002,2.166862e+001
5.601269e+002,2.178159e+001
5.610911e+002,2.067085e+001
5.620554e+002,1.761513e+001
5.630196e+002,1.304727e+001
5.639838e+002,1.148642e+001
5.649481e+002,1.587854e+001
5.659123e+002,1.898604e+001
5.668765e+002,1.927875e+001
5.678408e+002,1.761655e+001
5.688050e+002,1.622020e+001
5.697692e+002,1.566431e+001
5.707335e+002,1.489270e+001
5.716977e+002,1.354837e+001
5.726619e+002,1.193547e+001
5.736262e+002,1.028589e+001
5.745904e+002,8.630569e+000
5.755546e+002,7.731339e+000
5.765189e+002,8.952255e+000
5.774831e+002,1.131120e+001
5.784473e+002,1.334744e+001
5.794116e+002,1.411514e+001
5.803758e+002,1.379535e+001
5.813400e+002,1.343098e+001
5.823043e+002,1.285876e+001
5.832685e+002,1.216820e+001
5.842327e+002,1.136353e+001
5.851970e+002,1.059091e+001
5.861612e+002,1.026659e+001
5.871254e+002,1.083563e+001
5.880897e+002,1.126659e+001
5.890539e+002,1.103767e+001
5.900181e+002,1.052856e+001
5.909824e+002,1.048511e+001
5.919466e+002,1.158932e+001
5.929108e+002,1.296431e+001
5.938751e+002,1.419815e+001
5.948393e+002,1.491193e+001
5.958035e+002,1.423779e+001
5.967678e+002,1.159669e+001
5.977320e+002,7.500916e+000
5.986962e+002,5.642090e+000
5.996605e+002,5.754120e+000
6.006247e+002,6.209259e+000
6.015889e+002,6.478836e+000
6.025532e+002,6.569183e+000
6.035174e+002,6.380493e+000
6.044816e+002,4.833084e+000
6.054459e+002,4.296829e+000
6.064101e+002,5.999985e+000
6.073743e+002,8.800323e+000
6.083386e+002,1.061127e+001
6.093028e+002,1.006181e+001
6.102670e+002,8.909225e+000
6.112313e+002,8.337173e+000
6.121955e+002,8.204666e+000
6.131597e+002,8.561295e+000
6.141240e+002,9.394730e+000
6.150882e+002,1.024568e+001
6.160524e+002,8.627487e+000
6.170167e+002,5.064651e+000
6.179809e+002,1.931473e+000
6.189451e+002,7.798767e-002
6.199094e+002,-5.686188e-001
6.208736e+002,-1.181183e-001
6.218378e+002,3.418579e+000
6.228021e+002,6.059143e+000
6.237663e+002,7.294342e+000
6.247305e+002,7.513809e+000
6.256948e+002,7.224396e+000
6.266590e+002,6.229095e+000
6.276232e+002,5.285568e+000
6.285875e+002,4.917160e+000
6.295517e+002,4.963257e+000
6.305159e+002,5.349640e+000
6.314802e+002,5.961334e+000
6.324444e+002,6.513809e+000
6.334086e+002,6.255829e+000
6.343729e+002,5.509750e+000
6.353371e+002,4.669128e+000
6.363013e+002,3.766907e+000
6.372656e+002,2.901520e+000
6.382298e+002,2.537872e+000
6.391940e+002,3.067978e+000
6.401583e+002,3.575760e+000
6.411225e+002,4.435699e+000
6.420867e+002,5.333145e+000
6.430510e+002,5.843933e+000
6.440152e+002,5.778259e+000
6.449794e+002,5.070557e+000
6.459437e+002,3.111237e+000
6.469079e+002,1.053909e+000
6.478721e+002,-3.036499e-003
6.488364e+002,2.500305e-001
6.498006e+002,9.755249e-001
6.507648e+002,3.689575e-001
6.517291e+002,-9.640656e-001
6.526933e+002,-1.308853e+000
6.536575e+002,-3.067627e-001
6.546218e+002,1.341110e+000
6.555860e+002,2.264206e+000
6.565502e+002,1.748718e+000
6.575145e+002,2.052673e+000
6.584787e+002,4.132126e+000
6.594429e+002,6.185867e+000
6.604072e+002,6.743256e+000
6.613714e+002,5.509750e+000
6.623356e+002,3.837387e+000
6.632999e+002,1.402283e+000
6.642641e+002,-6.379547e-001
6.652283e+002,-1.080048e+000
6.661926e+002,-1.744385e-001
6.671568e+002,5.369873e-001
6.681210e+002,-1.284836e+000
6.690853e+002,-4.260529e+000
6.700495e+002,-4.436081e+000
6.710137e+002,-1.884674e+000
6.719780e+002,1.244797e+000
6.729422e+002,2.686218e+000
6.739064e+002,2.095352e+000
6.748707e+002,1.368835e+000
6.758349e+002,-2.131042e-001
6.767991e+002,-1.154892e+000
6.777634e+002,-7.789612e-002
6.787276e+002,2.701065e+000
6.796918e+002,4.377625e+000
6.806561e+002,2.727722e+000
6.816203e+002,7.674866e-001
6.825845e+002,-6.716156e-001
6.835488e+002,-1.525055e+000
6.845130e+002,-1.858963e+000
6.854772e+002,-1.681778e+000
6.864415e+002,-9.885406e-001
6.874057e+002,3.021088e-001
6.883699e+002,1.786942e+000
6.893342e+002,2.652390e+000
6.902984e+002,2.449844e+000
6.912626e+002,1.351517e+000
6.922269e+002,2.956390e-001
6.931911e+002,-8.395844e-001
6.941553e+002,-1.399521e+000
6.951196e+002,-1.212662e+000
6.960838e+002,-6.687012e-001
6.970480e+002,-2.451477e-001
6.980123e+002,7.055664e-002
6.989765e+002,1.191864e-001
6.999407e+002,-3.707733e-001
7.009050e+002,-9.719543e-001
7.018692e+002,-1.513245e+000
7.028334e+002,-1.866058e+000
7.037977e+002,-1.754105e+000
7.047619e+002,1.678467e-003
7.057261e+002,2.427383e+000
7.066904e+002,3.057327e+000
7.076546e+002,1.486328e+000
7.086188e+002,-9.664764e-001
7.095831e+002,-2.262177e+000
7.105473e+002,-2.237595e+000
7.115115e+002,-1.480545e+000
7.124758e+002,9.196625e-001
7.134400e+002,2.940628e+000
7.144042e+002,2.931854e+000
7.153685e+002,9.757080e-001
7.163327e+002,-6.819153e-002
7.172969e+002,2.531494e+000
7.182612e+002,5.046753e+000
7.192254e+002,6.032837e+000
7.201896e+002,5.629013e+000
7.211539e+002,4.500565e+000
7.221181e+002,3.158829e+000
7.230823e+002,1.615875e+000
7.240466e+002,-4.245148e-001
7.250108e+002,-2.657364e+000
7.259750e+002,-4.005966e+000
7.269393e+002,-3.868988e+000
7.279035e+002,-2.544785e+000
7.288677e+002,-1.544174e+000
7.298320e+002,-8.628693e-001
7.307962e+002,-3.416443e-002
7.317604e+002,1.449417e+000
7.327247e+002,2.941406e+000
7.336889e+002,3.218964e+000
7.346531e+002,1.343033e+000
7.356174e+002,-3.555908e-001
7.365816e+002,3.805084e-001
7.375458e+002,1.525925e+000
7.385101e+002,1.056946e+000
7.394743e+002,-1.230362e+000
7.404385e+002,-3.409622e+000
7.414028e+002,-2.130585e+000
7.423670e+002,1.406876e+000
7.433312e+002,2.229660e+000
7.442955e+002,-5.204773e-002
7.452597e+002,-2.657120e+000
7.462239e+002,-2.254272e+000
7.471882e+002,2.210052e+000
7.481524e+002,4.857315e+000
7.491166e+002,4.404022e+000
7.500809e+002,3.618790e+000
7.510451e+002,3.635269e+000
7.520093e+002,4.223526e+000
7.529736e+002,4.240829e+000
7.539378e+002,2.851685e+000
7.549020e+002,1.556915e+000
7.558663e+002,1.674866e+000
7.568306e+002,2.320282e+000
7.577948e+002,1.917114e+000
7.587590e+002,-4.055939e-001
7.597233e+002,-3.548645e+000
7.606875e+002,-3.346146e+000
7.616517e+002,-1.972656e-001
7.626160e+002,1.686981e+000
7.635802e+002,8.107758e-001
7.645444e+002,-1.386154e+000
7.655087e+002,-1.807816e+000
7.664729e+002,7.811737e-001
7.674371e+002,2.389374e+000
7.684014e+002,2.322220e+000
7.693656e+002,1.781921e+000
7.703298e+002,1.323090e+000
7.712941e+002,1.128006e+000
7.722583e+002,1.448242e+000
7.732225e+002,3.219086e+000
7.741868e+002,4.828354e+000
7.751510e+002,4.336014e+000
7.761152e+002,2.571457e+000
7.770795e+002,1.846878e+000
7.780437e+002,4.219559e+000
7.790079e+002,9.011047e+000
7.799722e+002,1.032654e+001
7.809364e+002,8.197983e+000
7.819006e+002,5.446915e+000
7.828649e+002,2.318085e+000
7.838291e+002,-5.591125e-001
7.847933e+002,-1.012466e+000
7.857576e+002,3.068649e+000
7.867218e+002,5.767654e+000
7.876860e+002,5.551605e+000
7.886503e+002,4.346420e+000
7.896145e+002,3.695175e+000
7.905787e+002,4.019409e+000
7.915430e+002,4.546204e+000
7.925072e+002,4.427811e+000
7.934714e+002,3.840271e+000
7.944357e+002,2.997040e+000
7.953999e+002,2.061325e+000
7.963641e+002,1.133301e+000
7.973284e+002,2.248535e-001
7.982926e+002,-7.350311e-001
7.992568e+002,2.087708e-001
8.002211e+002,4.082657e+000
8.011853e+002,7.066544e+000
8.021495e+002,8.102737e+000
8.031138e+002,7.509109e+000
8.040780e+002,5.661346e+000
8.050422e+002,8.655853e-001
8.060065e+002,-2.566772e+000
8.069707e+002,-3.455490e+000
8.079349e+002,-2.596207e+000
8.088992e+002,1.147003e-001
8.098634e+002,4.373062e+000
8.108276e+002,8.136703e+000
8.117919e+002,7.589050e+000
8.127561e+002,4.349609e+000
8.137203e+002,2.114639e+000
8.146846e+002,1.434448e+000
8.156488e+002,1.348358e+000
8.166130e+002,5.231171e-001
8.175773e+002,-1.416000e+000
8.185415e+002,-1.985809e+000
8.195057e+002,-5.026703e-001
8.204700e+002,9.911652e-001
8.214342e+002,1.850769e+000
8.223984e+002,2.208923e+000
8.233627e+002,2.429260e+000
8.243269e+002,2.397644e+000
8.252911e+002,2.877853e+000
8.262554e+002,4.963211e+000
8.272196e+002,7.257370e+000
8.281838e+002,8.115082e+000
8.291481e+002,7.063889e+000
8.301123e+002,5.183670e+000
8.310765e+002,4.360428e+000
8.320408e+002,4.498032e+000
8.330050e+002,4.309937e+000
8.339692e+002,3.669540e+000
8.349335e+002,3.008209e+000
8.358977e+002,2.664917e+000
8.368619e+002,2.634216e+000
8.378262e+002,3.503311e+000
8.387904e+002,6.790298e+000
8.397546e+002,9.030121e+000
8.407189e+002,9.090729e+000
8.416831e+002,7.605484e+000
8.426473e+002,5.438950e+000
8.436116e+002,2.653656e+000
8.445758e+002,7.461853e-001
8.455400e+002,1.902100e+000
8.465043e+002,4.181961e+000
8.474685e+002,5.623459e+000
8.484327e+002,5.770157e+000
8.493970e+002,5.432983e+000
8.503612e+002,5.836563e+000
8.513254e+002,7.119736e+000
8.522897e+002,7.633453e+000
8.532539e+002,6.805115e+000
8.542181e+002,5.897980e+000
8.551824e+002,5.542770e+000
8.561466e+002,5.888092e+000
8.571108e+002,7.307571e+000
8.580751e+002,1.109357e+001
8.590393e+002,1.369997e+001
8.600035e+002,1.360515e+001
8.609678e+002,1.222618e+001
8.619320e+002,1.112198e+001
8.628962e+002,1.091602e+001
8.638605e+002,1.087823e+001
8.648247e+002,9.362442e+000
8.657889e+002,7.433121e+000
8.667532e+002,7.929001e+000
8.677174e+002,1.120685e+001
8.686816e+002,1.487482e+001
8.696459e+002,1.616635e+001
8.706101e+002,1.477455e+001
8.715743e+002,1.368709e+001
8.725386e+002,1.230385e+001
8.735028e+002,1.193674e+001
8.744670e+002,1.370998e+001
8.754313e+002,1.637729e+001
8.763955e+002,1.745529e+001
8.773597e+002,1.562160e+001
8.783240e+002,1.422942e+001
8.792882e+002,1.642661e+001
8.802524e+002,1.953836e+001
8.812167e+002,2.133479e+001
8.821809e+002,2.136047e+001
8.831451e+002,2.045464e+001
8.841094e+002,1.963992e+001
8.850736e+002,1.908426e+001
8.860378e+002,1.977946e+001
8.870021e+002,2.208443e+001
8.879663e+002,2.397609e+001
8.889305e+002,2.415097e+001
8.898948e+002,2.285701e+001
8.908590e+002,2.144800e+001
8.918232e+002,1.926085e+001
8.927875e+002,1.857420e+001
8.937517e+002,2.131364e+001
8.947159e+002,2.451007e+001
8.956802e+002,2.517915e+001
8.966444e+002,2.292160e+001
8.976086e+002,2.045554e+001
8.985729e+002,2.072873e+001
8.995371e+002,2.263333e+001
9.005013e+002,2.411493e+001
9.014656e+002,2.519283e+001
9.024298e+002,2.614980e+001
9.033940e+002,2.712912e+001
9.043583e+002,2.799434e+001
9.053225e+002,2.843462e+001
9.062867e+002,2.834348e+001
9.072510e+002,2.768735e+001
9.082152e+002,2.608707e+001
9.091794e+002,2.444781e+001
9.101437e+002,2.358273e+001
9.111079e+002,2.360962e+001
9.120721e+002,2.411200e+001
9.130364e+002,2.516624e+001
9.140006e+002,2.616914e+001
9.149648e+002,2.688411e+001
9.159291e+002,2.742177e+001
9.168933e+002,2.801326e+001
9.178575e+002,2.875533e+001
9.188218e+002,2.938081e+001
9.197860e+002,2.902138e+001
9.207502e+002,2.760278e+001
9.217145e+002,2.632463e+001
9.226787e+002,2.559074e+001
9.236429e+002,2.520270e+001
9.246072e+002,2.490790e+001
9.255714e+002,2.471732e+001
9.265356e+002,2.404605e+001
9.274999e+002,2.172353e+001
9.284641e+002,1.997510e+001
9.294283e+002,1.982280e+001
9.303926e+002,2.084138e+001
9.313568e+002,2.254628e+001
9.323210e+002,2.480846e+001
9.332853e+002,2.624870e+001
9.342495e+002,2.286746e+001
9.352137e+002,1.748705e+001
9.361780e+002,1.488623e+001
9.371422e+002,1.614845e+001
9.381064e+002,1.882126e+001
9.390707e+002,1.936296e+001
9.400349e+002,1.702464e+001
9.409991e+002,1.689240e+001
9.419634e+002,2.152061e+001
9.429276e+002,2.472775e+001
9.438918e+002,2.416864e+001
9.448561e+002,2.146458e+001
9.458203e+002,1.925014e+001
9.467845e+002,1.820880e+001
9.477488e+002,1.803180e+001
9.487130e+002,1.912555e+001
9.496772e+002,2.046098e+001
9.506415e+002,2.143446e+001
9.516057e+002,2.185710e+001
9.525699e+002,2.158519e+001
9.535342e+002,2.044572e+001
9.544984e+002,1.853224e+001
9.554626e+002,1.706570e+001
9.564269e+002,1.623703e+001
9.573911e+002,1.560655e+001
9.583553e+002,1.494525e+001
9.593196e+002,1.439882e+001
9.602838e+002,1.428639e+001
9.612480e+002,1.469353e+001
9.622123e+002,1.505003e+001
9.631765e+002,1.506482e+001
9.641407e+002,1.520110e+001
9.651050e+002,1.582445e+001
9.660692e+002,1.664807e+001
9.670334e+002,1.710065e+001
9.679977e+002,1.688181e+001
9.689619e+002,1.647462e+001
9.699261e+002,1.648767e+001
9.708904e+002,1.686044e+001
9.718546e+002,1.805157e+001
9.728188e+002,2.025362e+001
9.737831e+002,2.272220e+001
9.747473e+002,2.468819e+001
9.757115e+002,2.627541e+001
9.766758e+002,2.684146e+001
9.776400e+002,2.559671e+001
9.786042e+002,2.449316e+001
9.795685e+002,2.416252e+001
9.805327e+002,2.399385e+001
9.814969e+002,2.309052e+001
9.824612e+002,2.122787e+001
9.834254e+002,1.942175e+001
9.843896e+002,1.876634e+001
9.853539e+002,1.842992e+001
9.863181e+002,1.754561e+001
9.872823e+002,1.604474e+001
9.882466e+002,1.423984e+001
9.892108e+002,1.247908e+001
9.901750e+002,1.103224e+001
9.911393e+002,1.080798e+001
9.921035e+002,1.268819e+001
9.930677e+002,1.373917e+001
9.940320e+002,1.344440e+001
9.949962e+002,1.282758e+001
9.959604e+002,1.256166e+001
9.969247e+002,1.277161e+001
9.978889e+002,1.398552e+001
9.988531e+002,1.758629e+001
9.998174e+002,2.047375e+001
1.000782e+003,2.039063e+001
1.001746e+003,1.876741e+001
1.002710e+003,1.761856e+001
1.003674e+003,1.783746e+001
1.004639e+003,1.888361e+001
1.005603e+003,1.994818e+001
1.006567e+003,2.098221e+001
1.007531e+003,2.034167e+001
1.008495e+003,1.708328e+001
1.009460e+003,1.414159e+001
1.010424e+003,1.356966e+001
1.011388e+003,1.483252e+001
1.012352e+003,1.570644e+001
1.013317e+003,1.588098e+001
1.014281e+003,1.556949e+001
1.015245e+003,1.488132e+001
1.016209e+003,1.374895e+001
1.017174e+003,1.168448e+001
1.018138e+003,9.093674e+000
1.019102e+003,7.281433e+000
1.020066e+003,7.458542e+000
1.021031e+003,8.816513e+000
1.021995e+003,8.656525e+000
1.022959e+003,7.211746e+000
1.023923e+003,6.070740e+000
1.024887e+003,5.896240e+000
1.025852e+003,5.954239e+000
1.026816e+003,4.935623e+000
1.027780e+003,2.513000e+000
1.028744e+003,1.004364e+000
1.029709e+003,1.083130e+000
1.030673e+003,1.443573e+000
1.031637e+003,1.949051e+000
1.032601e+003,2.342957e+000
1.033566e+003,2.181671e+000
1.034530e+003,1.380005e+000
1.035494e+003,9.274445e-001
1.036458e+003,2.570526e+000
1.037422e+003,4.736877e+000
1.038387e+003,4.200882e+000
1.039351e+003,1.224518e+000
1.040315e+003,-8.238983e-001
1.041279e+003,8.229065e-001
1.042244e+003,5.214584e+000
1.043208e+003,7.364716e+000
1.044172e+003,5.453552e+000
1.045136e+003,4.014206e+000
1.046101e+003,2.964615e+000
1.047065e+003,2.649200e+000
1.048029e+003,3.780411e+000
1.048993e+003,5.861038e+000
1.049958e+003,7.228333e+000
1.050922e+003,6.988892e+000
1.051886e+003,6.329895e+000
1.052850e+003,6.558075e+000
1.053814e+003,7.070679e+000
1.054779e+003,7.115845e+000
1.055743e+003,6.497269e+000
1.056707e+003,5.408356e+000
1.057671e+003,4.058746e+000
1.058636e+003,2.422150e+000
1.059600e+003,1.065598e+000
1.060564e+003,-3.295288e-001
1.061528e+003,-7.461395e-001
1.062493e+003,5.723114e-001
1.063457e+003,2.335098e+000
1.064421e+003,3.313904e+000
1.065385e+003,3.399841e+000
1.066349e+003,2.833694e+000
1.067314e+003,8.062592e-001
1.068278e+003,-6.774445e-001
1.069242e+003,8.397369e-001
1.070206e+003,3.517517e+000
1.071171e+003,3.977707e+000
1.072135e+003,9.963379e-001
1.073099e+003,-3.149002e+000
1.074063e+003,-4.509155e+000
1.075028e+003,-2.741974e+000
1.075992e+003,-1.427780e+000
1.076956e+003,-1.065781e+000
1.077920e+003,-4.277039e-001
1.078885e+003,1.712677e+000
1.079849e+003,4.306503e+000
1.080813e+003,5.153778e+000
1.081777e+003,3.674164e+000
1.082741e+003,2.171631e+000
1.083706e+003,1.198227e+000
1.084670e+003,8.426514e-001
1.085634e+003,1.654465e+000
1.086598e+003,3.078613e+000
1.087563e+003,4.277206e+000
1.088527e+003,4.790848e+000
1.089491e+003,4.659088e+000
1.090455e+003,3.680618e+000
1.091420e+003,1.648941e+000
1.092384e+003,2.891083e-001
1.093348e+003,-3.681488e-001
1.094312e+003,-6.208649e-001
1.095276e+003,-3.174286e-001
1.096241e+003,3.787384e-001
1.097205e+003,7.306671e-001
1.098169e+003,4.373627e-001
1.099133e+003,1.783447e-001
1.100098e+003,6.645203e-002
1.101062e+003,2.859192e-001
1.102026e+003,1.245392e+000
1.102990e+003,2.628708e+000
1.103955e+003,3.707077e+000
1.104919e+003,4.025391e+000
1.105883e+003,3.909317e+000
1.106847e+003,4.244019e+000
1.107812e+003,4.975647e+000
1.108776e+003,4.449921e+000
1.109740e+003,1.999557e+000
1.110704e+003,-4.703522e-001
1.111668e+003,-1.459824e+000
1.112633e+003,-1.191101e+000
1.113597e+003,-9.745026e-001
1.114561e+003,-1.315613e+000
1.115525e+003,-9.638672e-001
1.116490e+003,9.189758e-001
1.117454e+003,3.033463e+000
1.118418e+003,4.825714e+000
1.119382e+003,6.218552e+000
1.120347e+003,7.312439e+000
1.121311e+003,8.082458e+000
1.122275e+003,8.155487e+000
1.123239e+003,6.513748e+000
1.124203e+003,3.634674e+000
1.125168e+003,3.663544e+000
1.126132e+003,8.193665e+000
1.127096e+003,1.237628e+001
1.128060e+003,1.174419e+001
1.129025e+003,7.417419e+000
1.129989e+003,5.028687e+000
1.130953e+003,5.711731e+000
1.131917e+003,6.513535e+000
1.132882e+003,6.699951e+000
1.133846e+003,6.766403e+000
1.134810e+003,6.898132e+000
1.135774e+003,7.196167e+000
1.136739e+003,7.630417e+000
1.137703e+003,8.187851e+000
1.138667e+003,9.248138e+000
1.139631e+003,1.198474e+001
1.140595e+003,1.596085e+001
1.141560e+003,1.748482e+001
1.142524e+003,1.552248e+001
1.143488e+003,1.452943e+001
1.144452e+003,1.846533e+001
1.145417e+003,2.577295e+001
1.146381e+003,3.052689e+001
1.147345e+003,3.135504e+001
1.148309e+003,3.276112e+001
1.149274e+003,3.615407e+001
1.150238e+003,4.015543e+001
1.151202e+003,4.445244e+001
1.152166e+003,4.883444e+001
1.153130e+003,5.311360e+001
1.154095e+003,5.709036e+001
1.155059e+003,6.057437e+001
1.156023e+003,6.377100e+001
1.156987e+003,6.628772e+001
1.157952e+003,6.592223e+001
1.158916e+003,6.263756e+001
1.159880e+003,5.803911e+001
1.160844e+003,5.174864e+001
1.161809e+003,4.470168e+001
1.162773e+003,3.949104e+001
1.163737e+003,3.650774e+001
1.164701e+003,3.368346e+001
1.165666e+003,3.064822e+001
1.166630e+003,2.767369e+001
1.167594e+003,2.473123e+001
1.168558e+003,2.193782e+001
1.169522e+003,1.933429e+001
1.170487e+003,1.700803e+001
1.171451e+003,1.525179e+001
1.172415e+003,1.436726e+001
1.173379e+003,1.429993e+001
1.174344e+003,1.529759e+001
1.175308e+003,1.759662e+001
1.176272e+003,1.842482e+001
1.177236e+003,1.549706e+001
1.178201e+003,1.179964e+001
1.179165e+003,1.177222e+001
1.180129e+003,1.540227e+001
1.181093e+003,1.685147e+001
1.182057e+003,1.373447e+001
1.183022e+003,1.008551e+001
1.183986e+003,6.098953e+000
1.184950e+003,3.274048e+000
1.185914e+003,3.864136e+000
1.186879e+003,7.306335e+000
1.187843e+003,1.054848e+001
1.188807e+003,1.106439e+001
1.189771e+003,9.761688e+000
1.190736e+003,9.540802e+000
1.191700e+003,1.057333e+001
1.192664e+003,1.074005e+001
1.193628e+003,9.835831e+000
1.194593e+003,8.201584e+000
1.195557e+003,5.520752e+000
1.196521e+003,2.235641e+000
1.197485e+003,-7.379150e-002
1.198449e+003,-1.164230e+000
1.199414e+003,-1.207260e+000
1.200378e+003,5.843506e-001
1.201342e+003,2.611191e+000
1.202306e+003,4.055786e+000
1.203271e+003,4.829102e+000
1.204235e+003,5.096405e+000
1.205199e+003,4.959076e+000
1.206163e+003,4.320206e+000
1.207128e+003,2.905884e+000
1.208092e+003,6.620483e-001
1.209056e+003,-7.501526e-001
1.210020e+003,-1.325165e+000
1.210984e+003,-1.291946e+000
1.211949e+003,3.272400e-001
1.212913e+003,1.834534e+000
1.213877e+003,5.647125e-001
1.214841e+003,-3.508331e+000
1.215806e+003,-6.803497e+000
1.216770e+003,-7.726486e+000
1.217734e+003,-7.888885e+000
1.218698e+003,-8.077133e+000
1.219663e+003,-8.571991e+000
1.220627e+003,-1.012350e+001
1.221591e+003,-1.251068e+001
1.222555e+003,-1.425816e+001
1.223520e+003,-1.394502e+001
1.224484e+003,-1.203990e+001
1.225448e+003,-1.098091e+001
1.226412e+003,-1.124028e+001
1.227376e+003,-1.143329e+001
1.228341e+003,-1.159682e+001
1.229305e+003,-1.172328e+001
1.230269e+003,-1.169432e+001
1.231233e+003,-1.166685e+001
1.232198e+003,-1.196211e+001
1.233162e+003,-1.263528e+001
1.234126e+003,-1.328316e+001
1.235090e+003,-1.363438e+001
1.236055e+003,-1.393608e+001
1.237019e+003,-1.470184e+001
1.237983e+003,-1.563875e+001
1.238947e+003,-1.569832e+001
1.239911e+003,-1.441800e+001
1.240876e+003,-1.291231e+001
1.241840e+003,-1.301221e+001
1.242804e+003,-1.485202e+001
1.243768e+003,-1.571097e+001
1.244733e+003,-1.472594e+001
1.245697e+003,-1.382027e+001
1.246661e+003,-1.319391e+001
1.247625e+003,-1.280911e+001
1.248590e+003,-1.261357e+001
1.249554e+003,-1.250804e+001
1.250518e+003,-1.251736e+001
1.251482e+003,-1.274881e+001
1.252447e+003,-1.264754e+001
1.253411e+003,-1.085022e+001
1.254375e+003,-8.449600e+000
1.255339e+003,-8.276566e+000
1.256303e+003,-1.027571e+001
1.257268e+003,-1.152634e+001
1.258232e+003,-1.020985e+001
1.259196e+003,-7.625900e+000
1.260160e+003,-6.382553e+000
1.261125e+003,-6.732117e+000
1.262089e+003,-6.351181e+000
1.263053e+003,-4.009064e+000
1.264017e+003,-2.371719e+000
1.264982e+003,-2.596375e+000
1.265946e+003,-3.325394e+000
1.266910e+003,-2.816101e+000
1.267874e+003,-1.436874e+000
1.268839e+003,-1.382339e+000
1.269803e+003,-4.123795e+000
1.270767e+003,-8.105865e+000
1.271731e+003,-1.045331e+001
1.272695e+003,-1.105566e+001
1.273660e+003,-1.077161e+001
1.274624e+003,-9.353729e+000
1.275588e+003,-8.169037e+000
1.276552e+003,-8.051437e+000
1.277517e+003,-8.448441e+000
1.278481e+003,-8.393295e+000
1.279445e+003,-7.828644e+000
1.280409e+003,-7.341690e+000
1.281374e+003,-6.908310e+000
1.282338e+003,-6.885376e+000
1.283302e+003,-7.765060e+000
1.284266e+003,-8.944199e+000
1.285230e+003,-9.926651e+000
1.286195e+003,-1.050090e+001
1.287159e+003,-1.036453e+001
1.288123e+003,-9.220978e+000
1.289087e+003,-7.565018e+000
1.290052e+003,-7.146790e+000
1.291016e+003,-8.673630e+000
1.291980e+003,-9.113739e+000
1.292944e+003,-7.457245e+000
1.293909e+003,-6.282639e+000
1.294873e+003,-6.505981e+000
1.295837e+003,-7.665161e+000
1.296801e+003,-9.455307e+000
1.297766e+003,-1.170592e+001
1.298730e+003,-1.359111e+001
1.299694e+003,-1.497328e+001
1.300658e+003,-1.536711e+001
1.301622e+003,-1.329884e+001
1.302587e+003,-1.026315e+001
1.303551e+003,-8.914429e+000
1.304515e+003,-9.560776e+000
1.305479e+003,-1.024489e+001
1.306444e+003,-9.326782e+000
1.307408e+003,-7.512772e+000
1.308372e+003,-7.223007e+000
1.309336e+003,-9.223709e+000
1.310301e+003,-1.040291e+001
1.311265e+003,-9.846085e+000
1.312229e+003,-9.307236e+000
1.313193e+003,-9.482086e+000
1.314157e+003,-9.832657e+000
1.315122e+003,-9.686249e+000
1.316086e+003,-9.075668e+000
1.317050e+003,-8.531494e+000
1.318014e+003,-8.348145e+000
1.318979e+003,-8.490891e+000
1.319943e+003,-9.166687e+000
1.320907e+003,-1.019717e+001
1.321871e+003,-1.035938e+001
1.322836e+003,-9.476822e+000
1.323800e+003,-8.625107e+000
1.324764e+003,-8.642410e+000
1.325728e+003,-8.871170e+000
1.326693e+003,-7.749237e+000
1.327657e+003,-5.243301e+000
1.328621e+003,-4.624741e+000
1.329585e+003,-7.878448e+000
1.330549e+003,-1.073544e+001
1.331514e+003,-1.114232e+001
1.332478e+003,-1.047816e+001
1.333442e+003,-9.689804e+000
1.334406e+003,-8.992065e+000
1.335371e+003,-8.310684e+000
1.336335e+003,-7.621674e+000
1.337299e+003,-7.241501e+000
1.338263e+003,-7.902832e+000
1.339228e+003,-9.854980e+000
1.340192e+003,-1.043546e+001
1.341156e+003,-8.113434e+000
1.342120e+003,-6.774246e+000
1.343084e+003,-8.023743e+000
1.344049e+003,-9.663437e+000
1.345013e+003,-9.426468e+000
1.345977e+003,-7.884262e+000
1.346941e+003,-7.594284e+000
1.347906e+003,-9.579788e+000
1.348870e+003,-1.132303e+001
1.349834e+003,-9.924271e+000
1.350798e+003,-7.296570e+000
1.351763e+003,-7.297897e+000
1.352727e+003,-9.460068e+000
1.353691e+003,-1.107990e+001
1.354655e+003,-1.116364e+001
1.355620e+003,-1.042770e+001
1.356584e+003,-9.507660e+000
1.357548e+003,-8.416656e+000
1.358512e+003,-7.541901e+000
1.359476e+003,-6.989670e+000
1.360441e+003,-6.734131e+000
1.361405e+003,-6.779984e+000
1.362369e+003,-6.998703e+000
1.363333e+003,-7.353928e+000
1.364298e+003,-7.825058e+000
1.365262e+003,-8.565140e+000
1.366226e+003,-9.470413e+000
1.367190e+003,-9.993469e+000
1.368155e+003,-9.638611e+000
1.369119e+003,-8.675461e+000
1.370083e+003,-7.958420e+000
1.371047e+003,-7.609955e+000
1.372011e+003,-6.681168e+000
1.372976e+003,-4.492401e+000
1.373940e+003,-2.842850e+000
1.374904e+003,-2.125732e+000
1.375868e+003,-2.391861e+000
1.376833e+003,-4.587494e+000
1.377797e+003,-8.240891e+000
1.378761e+003,-9.907425e+000
1.379725e+003,-7.578751e+000
1.380690e+003,-4.572495e+000
1.381654e+003,-4.652481e+000
1.382618e+003,-5.974045e+000
1.383582e+003,-5.898956e+000
1.384547e+003,-4.463699e+000
1.385511e+003,-3.340118e+000
1.386475e+003,-3.464386e+000
1.387439e+003,-4.100571e+000
1.388403e+003,-3.951523e+000
1.389368e+003,-3.031860e+000
1.390332e+003,-3.018707e+000
1.391296e+003,-4.436371e+000
1.392260e+003,-5.679352e+000
1.393225e+003,-6.714493e+000
1.394189e+003,-7.210571e+000
1.395153e+003,-6.531540e+000
1.396117e+003,-5.368759e+000
1.397082e+003,-4.767136e+000
1.398046e+003,-4.949600e+000
1.399010e+003,-5.355225e+000
1.399974e+003,-5.540512e+000
1.400938e+003,-5.561340e+000
1.401903e+003,-5.267395e+000
1.402867e+003,-4.298569e+000
1.403831e+003,-3.469498e+000
1.404795e+003,-2.928131e+000
1.405760e+003,-2.545975e+000
1.406724e+003,-2.551529e+000
1.407688e+003,-2.814148e+000
1.408652e+003,-2.949799e+000
1.409617e+003,-2.900131e+000
1.410581e+003,-2.962875e+000
1.411545e+003,-3.220535e+000
1.412509e+003,-3.839859e+000
1.413474e+003,-5.527939e+000
1.414438e+003,-7.470276e+000
1.415402e+003,-7.955704e+000
1.416366e+003,-7.103210e+000
1.417330e+003,-6.317047e+000
1.418295e+003,-6.176926e+000
1.419259e+003,-6.132629e+000
1.420223e+003,-5.652924e+000
1.421187e+003,-4.814743e+000
1.422152e+003,-3.529892e+000
1.423116e+003,-1.194290e+000
1.424080e+003,-6.993103e-002
1.425044e+003,-2.490631e+000
1.426009e+003,-4.595016e+000
1.426973e+003,-4.833908e+000
1.427937e+003,-3.847717e+000
1.428901e+003,-1.838470e+000
1.429865e+003,6.261902e-001
1.430830e+003,2.142914e+000
1.431794e+003,1.763550e+000
1.432758e+003,1.854553e-001
1.433722e+003,-1.185562e+000
1.434687e+003,-2.305786e+000
1.435651e+003,-2.049759e+000
1.436615e+003,1.272476e+000
1.437579e+003,2.799057e+000
1.438544e+003,6.093140e-001
1.439508e+003,-1.882401e+000
1.440472e+003,-2.421066e+000
1.441436e+003,-1.459900e+000
1.442401e+003,5.392456e-002
1.443365e+003,1.690369e+000
1.444329e+003,2.606552e+000
1.445293e+003,2.088470e+000
1.446257e+003,8.650970e-001
1.447222e+003,1.203613e-001
1.448186e+003,-1.899872e-001
1.449150e+003,-1.181030e-002
1.450114e+003,8.788910e-001
1.451079e+003,1.243622e+000
1.452043e+003,-2.598877e-001
1.453007e+003,-2.019241e+000
1.453971e+003,-1.431473e+000
1.454936e+003,1.091553e+000
1.455900e+003,2.493759e+000
1.456864e+003,2.025314e+000
1.457828e+003,9.750671e-001
1.458792e+003,-9.584503e-001
1.459757e+003,-2.332474e+000
1.460721e+003,-1.163818e+000
1.461685e+003,1.264572e+000
1.462649e+003,2.225128e+000
1.463614e+003,1.118134e+000
1.464578e+003,-4.170532e-001
1.465542e+003,-1.035767e+000
1.466506e+003,-9.617004e-001
1.467471e+003,-5.721741e-001
1.468435e+003,4.706726e-001
1.469399e+003,6.575012e-001
1.470363e+003,-1.375015e+000
1.471328e+003,-2.656342e+000
1.472292e+003,-2.088394e+000
1.473256e+003,-1.181564e+000
1.474220e+003,-8.429260e-001
1.475184e+003,-8.859406e-001
1.476149e+003,-8.968201e-001
1.477113e+003,-7.435455e-001
1.478077e+003,-3.644104e-001
1.479041e+003,3.976288e-001
1.480006e+003,1.338394e+000
1.480970e+003,1.514832e+000
1.481934e+003,4.512787e-001
1.482898e+003,2.570648e-001
1.483863e+003,1.674362e+000
1.484827e+003,2.771576e+000
1.485791e+003,2.954239e+000
1.486755e+003,2.841919e+000
1.487719e+003,2.727493e+000
1.488684e+003,2.747757e+000
1.489648e+003,3.240448e+000
1.490612e+003,4.345673e+000
1.491576e+003,5.731979e+000
1.492541e+003,7.232269e+000
1.493505e+003,8.548065e+000
1.494469e+003,8.740433e+000
1.495433e+003,7.959869e+000
1.496398e+003,7.850510e+000
1.497362e+003,8.911804e+000
1.498326e+003,1.017111e+001
1.499290e+003,1.112901e+001
1.500255e+003,1.196593e+001
1.501219e+003,1.266866e+001
1.502183e+003,1.335857e+001
1.503147e+003,1.492667e+001
1.504111e+003,1.772269e+001
1.505076e+003,2.057117e+001
1.506040e+003,2.250555e+001
1.507004e+003,2.456311e+001
1.507968e+003,2.797733e+001
1.508933e+003,3.220204e+001
1.509897e+003,3.606126e+001
1.510861e+003,3.948999e+001
1.511825e+003,4.330531e+001
1.512790e+003,4.793661e+001
1.513754e+003,5.321977e+001
1.514718e+003,5.929028e+001
1.515682e+003,6.605252e+001
1.516646e+003,7.177846e+001
1.517611e+003,7.631860e+001
1.518575e+003,8.014705e+001
1.519539e+003,8.284933e+001
1.520503e+003,8.565097e+001
1.521468e+003,9.030653e+001
1.522432e+003,9.478165e+001
1.523396e+003,9.624658e+001
1.524360e+003,9.442827e+001
1.525325e+003,9.085025e+001
1.526289e+003,8.655487e+001
1.527253e+003,8.190831e+001
1.528217e+003,7.753842e+001
1.529182e+003,7.353047e+001
1.530146e+003,6.885367e+001
1.531110e+003,6.278000e+001
1.532074e+003,5.724127e+001
1.533039e+003,5.306816e+001
1.534003e+003,4.817348e+001
1.534967e+003,4.097443e+001
1.535931e+003,3.339182e+001
1.536896e+003,2.756941e+001
1.537860e+003,2.356717e+001
1.538824e+003,2.012180e+001
1.539788e+003,1.653838e+001
1.540752e+003,1.323366e+001
1.541717e+003,1.075748e+001
1.542681e+003,9.242035e+000
1.543645e+003,9.247910e+000
1.544609e+003,1.215736e+001
1.545573e+003,1.322775e+001
1.546538e+003,1.077589e+001
1.547502e+003,8.484253e+000
1.548466e+003,7.570847e+000
1.549430e+003,7.773895e+000
1.550395e+003,9.433868e+000
1.551359e+003,1.171007e+001
1.552323e+003,1.261182e+001
1.553287e+003,1.149666e+001
1.554252e+003,9.486847e+000
1.555216e+003,7.422394e+000
1.556180e+003,5.454651e+000
1.557144e+003,3.876770e+000
1.558109e+003,2.756119e+000
1.559073e+003,2.526550e+000
1.560037e+003,3.758865e+000
1.561001e+003,4.374908e+000
1.561966e+003,3.082367e+000
1.562930e+003,1.724182e+000
1.563894e+003,2.089661e+000
1.564858e+003,3.605988e+000
1.565823e+003,4.776932e+000
1.566787e+003,5.308411e+000
1.567751e+003,5.994080e+000
1.568715e+003,7.483444e+000
1.569679e+003,8.786621e+000
1.570644e+003,8.238937e+000
1.571608e+003,6.523453e+000
1.572572e+003,5.930573e+000
1.573536e+003,6.611938e+000
1.574500e+003,7.156830e+000
1.575465e+003,6.967514e+000
1.576429e+003,6.654648e+000
1.577393e+003,6.353317e+000
1.578357e+003,6.358948e+000
1.579322e+003,7.812012e+000
1.580286e+003,1.059959e+001
1.581250e+003,1.204503e+001
1.582214e+003,1.102277e+001
1.583179e+003,9.679214e+000
1.584143e+003,9.453201e+000
1.585107e+003,9.786148e+000
1.586071e+003,1.028043e+001
1.587036e+003,1.084370e+001
1.588000e+003,1.065355e+001
1.588964e+003,9.386414e+000
1.589928e+003,8.572327e+000
1.590893e+003,9.742813e+000
1.591857e+003,1.146690e+001
1.592821e+003,1.131146e+001
1.593785e+003,9.690338e+000
1.594750e+003,9.026611e+000
1.595714e+003,9.725861e+000
1.596678e+003,1.031779e+001
1.597642e+003,1.004901e+001
1.598606e+003,9.773911e+000
1.599571e+003,1.012285e+001
1.600535e+003,1.095244e+001
1.601499e+003,1.227530e+001
1.602463e+003,1.390656e+001
1.603427e+003,1.516440e+001
1.604392e+003,1.576097e+001
1.605356e+003,1.613164e+001
1.606320e+003,1.703586e+001
1.607284e+003,1.797014e+001
1.608249e+003,1.714723e+001
1.609213e+003,1.449005e+001
1.610177e+003,1.251958e+001
1.611141e+003,1.149911e+001
1.612106e+003,1.157243e+001
1.613070e+003,1.422780e+001
1.614034e+003,1.668756e+001
1.614998e+003,1.649951e+001
1.615963e+003,1.489983e+001
1.616927e+003,1.388667e+001
1.617891e+003,1.383322e+001
1.618855e+003,1.449033e+001
1.619820e+003,1.585057e+001
1.620784e+003,1.685114e+001
1.621748e+003,1.542084e+001
1.622712e+003,1.236064e+001
1.623677e+003,1.240202e+001
1.624641e+003,1.634401e+001
1.625605e+003,1.885756e+001
1.626569e+003,1.776285e+001
1.627533e+003,1.634235e+001
1.628498e+003,1.631865e+001
1.629462e+003,1.677333e+001
1.630426e+003,1.715977e+001
1.631390e+003,1.728778e+001
1.632354e+003,1.669682e+001
1.633319e+003,1.540991e+001
1.634283e+003,1.453677e+001
1.635247e+003,1.487027e+001
1.636211e+003,1.610452e+001
1.637176e+003,1.822174e+001
1.638140e+003,2.110664e+001
1.639104e+003,2.228328e+001
1.640068e+003,2.132875e+001
1.641033e+003,1.979066e+001
1.641997e+003,1.727426e+001
1.642961e+003,1.545209e+001
1.643925e+003,1.549208e+001
1.644890e+003,1.623816e+001
1.645854e+003,1.674309e+001
1.646818e+003,1.689377e+001
1.647782e+003,1.660936e+001
1.648747e+003,1.592923e+001
1.649711e+003,1.562790e+001
1.650675e+003,1.649072e+001
1.651639e+003,1.800137e+001
1.652604e+003,1.914191e+001
1.653568e+003,1.985034e+001
1.654532e+003,1.966554e+001
1.655496e+003,1.841364e+001
1.656460e+003,1.676886e+001
1.657425e+003,1.420575e+001
1.658389e+003,1.235951e+001
1.659353e+003,1.254576e+001
1.660317e+003,1.347318e+001
1.661281e+003,1.367863e+001
1.662246e+003,1.334157e+001
1.663210e+003,1.363275e+001
1.664174e+003,1.493121e+001
1.665138e+003,1.606992e+001
1.666103e+003,1.608713e+001
1.667067e+003,1.515654e+001
1.668031e+003,1.336998e+001
1.668995e+003,1.086186e+001
1.669960e+003,9.141663e+000
1.670924e+003,8.376633e+000
1.671888e+003,8.323563e+000
1.672852e+003,9.329330e+000
1.673817e+003,1.033107e+001
1.674781e+003,1.071199e+001
1.675745e+003,1.068672e+001
1.676709e+003,1.040146e+001
1.677674e+003,9.916824e+000
1.678638e+003,9.072021e+000
1.679602e+003,7.843628e+000
1.680566e+003,7.665497e+000
1.681531e+003,1.054370e+001
1.682495e+003,1.404358e+001
1.683459e+003,1.325087e+001
1.684423e+003,8.939865e+000
1.685387e+003,6.516159e+000
1.686352e+003,6.669876e+000
1.687316e+003,7.197617e+000
1.688280e+003,7.638382e+000
1.689244e+003,7.830765e+000
1.690208e+003,7.129532e+000
1.691173e+003,6.430450e+000
1.692137e+003,7.163071e+000
1.693101e+003,8.856415e+000
1.694065e+003,9.637955e+000
1.695030e+003,8.953659e+000
1.695994e+003,7.928680e+000
1.696958e+003,7.502853e+000
1.697922e+003,6.884430e+000
1.698887e+003,4.329132e+000
1.699851e+003,8.989716e-001
1.700815e+003,1.188202e-001
1.701779e+003,2.188614e+000
1.702744e+003,4.054077e+000
1.703708e+003,4.899994e+000
1.704672e+003,5.221222e+000
1.705636e+003,5.214340e+000
1.706601e+003,4.764267e+000
1.707565e+003,3.651535e+000
1.708529e+003,2.164490e+000
1.709493e+003,9.562988e-001
1.710458e+003,6.765747e-002
1.711422e+003,-3.605194e-001
1.712386e+003,1.097107e-002
1.713350e+003,6.589813e-001
1.714314e+003,1.128845e+000
1.715279e+003,1.469360e+000
1.716243e+003,1.914169e+000
1.717207e+003,2.417664e+000
1.718171e+003,2.691986e+000
1.719135e+003,2.677475e+000
1.720100e+003,2.279312e+000
1.721064e+003,1.250534e+000
1.722028e+003,2.179718e-001
1.722992e+003,3.242950e-001
1.723957e+003,1.370361e+000
1.724921e+003,1.624954e+000
1.725885e+003,7.987213e-001
1.726849e+003,1.583862e-001
1.727814e+003,1.838226e-001
1.728778e+003,3.574066e-001
1.729742e+003,6.002197e-001
1.730706e+003,7.018280e-001
1.731671e+003,3.118896e-002
1.732635e+003,-9.447937e-001
1.733599e+003,-8.732147e-001
1.734563e+003,3.553009e-001
1.735528e+003,1.440277e+000
1.736492e+003,1.657135e+000
1.737456e+003,1.250259e+000
1.738420e+003,4.026031e-001
1.739385e+003,-6.549530e-001
1.740349e+003,-7.896881e-001
1.741313e+003,2.460632e-001
1.742277e+003,1.278122e+000
1.743241e+003,2.771591e+000
1.744206e+003,3.684662e+000
1.745170e+003,3.756241e+000
1.746134e+003,3.271194e+000
1.747098e+003,1.389847e+000
1.748063e+003,-2.406158e-001
1.749027e+003,1.239197e+000
1.749991e+003,4.500595e+000
1.750955e+003,5.297760e+000
1.751919e+003,2.477432e+000
1.752884e+003,-9.705811e-001
1.753848e+003,-2.590851e+000
1.754812e+003,-2.719620e+000
1.755776e+003,-1.782394e+000
1.756741e+003,2.393188e-001
1.757705e+003,1.548203e+000
1.758669e+003,2.128815e+000
1.759633e+003,1.796997e+000
1.760598e+003,-6.259766e-001
1.761562e+003,-2.419830e+000
1.762526e+003,-2.312958e+000
1.763490e+003,-1.642731e+000
1.764455e+003,-8.134613e-001
1.765419e+003,-3.188477e-001
1.766383e+003,-1.438705e+000
1.767347e+003,-3.745834e+000
1.768312e+003,-4.395950e+000
1.769276e+003,-2.026505e+000
1.770240e+003,2.682953e-001
1.771204e+003,-1.108154e+000
1.772168e+003,-4.208237e+000
1.773133e+003,-4.304092e+000
1.774097e+003,-1.809555e+000
1.775061e+003,-1.255585e+000
1.776025e+003,-3.575363e+000
1.776990e+003,-4.551468e+000
1.777954e+003,-1.976074e+000
1.778918e+003,7.074280e-001
1.779882e+003,5.088348e-001
1.780846e+003,-7.136841e-001
1.781811e+003,9.727478e-002
1.782775e+003,2.124954e+000
1.783739e+003,2.169128e+000
1.784703e+003,-4.439850e-001
1.785668e+003,-1.965454e+000
1.786632e+003,-5.427551e-002
1.787596e+003,2.130875e+000
1.788560e+003,2.467407e+000
1.789525e+003,1.778748e+000
1.790489e+003,8.531189e-001
1.791453e+003,-1.811981e-001
1.792417e+003,-1.293579e+000
1.793382e+003,-2.377838e+000
1.794346e+003,-2.599411e+000
1.795310e+003,-1.452881e+000
1.796274e+003,-2.669525e-001
1.797239e+003,-5.806732e-001
1.798203e+003,-1.794601e+000
1.799167e+003,-2.418777e+000
1.800131e+003,-2.728806e+000
1.801095e+003,-1.725861e+000
1.802060e+003,2.710007e+000
1.803024e+003,5.262985e+000
1.803988e+003,4.204376e+000
1.804952e+003,2.552917e+000
1.805917e+003,1.356171e+000
1.806881e+003,5.666809e-001
1.807845e+003,2.793274e-001
1.808809e+003,2.372437e-001
1.809773e+003,-1.442261e-001
1.810738e+003,-8.853912e-001
1.811702e+003,-1.348099e+000
1.812666e+003,-1.141876e+000
1.813630e+003,-4.616089e-001
1.814595e+003,5.668640e-001
1.815559e+003,1.652252e+000
1.816523e+003,1.519806e+000
1.817487e+003,4.364014e-002
1.818452e+003,-1.015182e+000
1.819416e+003,-1.553696e+000
1.820380e+003,-1.478104e+000
1.821344e+003,-5.075378e-001
1.822309e+003,5.543365e-001
1.823273e+003,1.720627e+000
1.824237e+003,2.494507e+000
1.825201e+003,1.899124e+000
1.826166e+003,4.787903e-001
1.827130e+003,-3.193207e-001
1.828094e+003,-2.671967e-001
1.829058e+003,3.263550e-001
1.830022e+003,1.866852e+000
1.830987e+003,2.877060e+000
1.831951e+003,1.322647e+000
1.832915e+003,-9.130859e-001
1.833879e+003,-5.028076e-001
1.834844e+003,1.527435e+000
1.835808e+003,1.262375e+000
1.836772e+003,-1.563553e+000
1.837736e+003,-3.188736e+000
1.838700e+003,-1.985138e+000
1.839665e+003,-6.272888e-002
1.840629e+003,7.438354e-001
1.841593e+003,9.164581e-001
1.842557e+003,1.409622e+000
1.843522e+003,2.213287e+000
1.844486e+003,2.904587e+000
1.845450e+003,3.944153e+000
1.846414e+003,4.147827e+000
1.847379e+003,2.813522e+000
1.848343e+003,1.336487e+000
1.849307e+003,-5.589294e-001
1.850271e+003,-1.659302e+000
1.851236e+003,-3.868256e-001
1.852200e+003,1.820450e+000
1.853164e+003,2.925385e+000
1.854128e+003,2.793381e+000
1.855093e+003,2.408066e+000
1.856057e+003,2.242035e+000
1.857021e+003,2.052719e+000
1.857985e+003,1.568710e+000
1.858949e+003,9.972076e-001
1.859914e+003,7.690735e-001
1.860878e+003,8.305817e-001
1.861842e+003,7.262421e-001
1.862806e+003,4.209900e-001
1.863771e+003,9.953308e-002
1.864735e+003,-3.374329e-001
1.865699e+003,-3.223724e-001
1.866663e+003,6.844482e-001
1.867627e+003,1.810501e+000
1.868592e+003,2.271027e+000
1.869556e+003,2.194977e+000
1.870520e+003,1.841370e+000
1.871484e+003,1.274734e+000
1.872449e+003,1.059311e+000
1.873413e+003,1.646118e+000
1.874377e+003,1.988739e+000
1.875341e+003,1.018356e+000
1.876306e+003,3.193970e-001
1.877270e+003,1.209106e+000
1.878234e+003,2.290131e+000
1.879198e+003,1.923080e+000
1.880163e+003,8.450623e-001
1.881127e+003,6.257629e-001
1.882091e+003,1.342300e+000
1.883055e+003,2.085114e+000
1.884020e+003,2.426346e+000
1.884984e+003,2.397888e+000
1.885948e+003,2.009018e+000
1.886912e+003,1.651749e+000
1.887876e+003,2.257492e+000
1.888841e+003,3.690826e+000
1.889805e+003,4.009354e+000
1.890769e+003,2.923386e+000
1.891733e+003,2.348679e+000
1.892698e+003,2.770950e+000
1.893662e+003,2.759262e+000
1.894626e+003,1.189529e+000
1.895590e+003,-3.881836e-002
1.896554e+003,9.130554e-001
1.897519e+003,2.618866e+000
1.898483e+003,3.300568e+000
1.899447e+003,3.112106e+000
1.900411e+003,3.078018e+000
1.901376e+003,3.399612e+000
1.902340e+003,3.724091e+000
1.903304e+003,4.126450e+000
1.904268e+003,4.141296e+000
1.905233e+003,2.744980e+000
1.906197e+003,1.583298e+000
1.907161e+003,3.254517e+000
1.908125e+003,5.987930e+000
1.909090e+003,6.193542e+000
1.910054e+003,3.984177e+000
1.911018e+003,1.729507e+000
1.911982e+003,3.976440e-001
1.912947e+003,-2.662811e-001
1.913911e+003,-4.827576e-001
1.914875e+003,3.500977e-001
1.915839e+003,3.454712e+000
1.916803e+003,7.854294e+000
1.917768e+003,8.419952e+000
1.918732e+003,4.301376e+000
1.919696e+003,2.446732e+000
1.920660e+003,3.877884e+000
1.921625e+003,5.096817e+000
1.922589e+003,5.217453e+000
1.923553e+003,5.113693e+000
1.924517e+003,5.053635e+000
1.925481e+003,5.153824e+000
1.926446e+003,5.787491e+000
1.927410e+003,6.561996e+000
1.928374e+003,6.556244e+000
1.929338e+003,5.737885e+000
1.930303e+003,5.126465e+000
1.931267e+003,5.044662e+000
1.932231e+003,5.362076e+000
1.933195e+003,6.321136e+000
1.934160e+003,7.128006e+000
1.935124e+003,6.930389e+000
1.936088e+003,6.427872e+000
1.937052e+003,6.929001e+000
1.938017e+003,7.815903e+000
1.938981e+003,7.254684e+000
1.939945e+003,5.265167e+000
1.940909e+003,3.484787e+000
1.941874e+003,2.693268e+000
1.942838e+003,2.745438e+000
1.943802e+003,3.635223e+000
1.944766e+003,4.752502e+000
1.945730e+003,4.503159e+000
1.946695e+003,3.127914e+000
1.947659e+003,3.261841e+000
1.948623e+003,5.058929e+000
1.949587e+003,6.461121e+000
1.950552e+003,7.423981e+000
1.951516e+003,7.346344e+000
1.952480e+003,5.324463e+000
1.953444e+003,3.731491e+000
1.954408e+003,4.603302e+000
1.955373e+003,6.329849e+000
1.956337e+003,6.597595e+000
1.957301e+003,5.986328e+000
1.958265e+003,6.525253e+000
1.959230e+003,8.541214e+000
1.960194e+003,9.318787e+000
1.961158e+003,7.279282e+000
1.962122e+003,5.544128e+000
1.963087e+003,5.048187e+000
1.964051e+003,4.937637e+000
1.965015e+003,4.722900e+000
1.965979e+003,4.805817e+000
1.966944e+003,5.950333e+000
1.967908e+003,7.413162e+000
1.968872e+003,7.953796e+000
1.969836e+003,7.446793e+000
1.970801e+003,6.164063e+000
1.971765e+003,4.371307e+000
1.972729e+003,3.679489e+000
1.973693e+003,5.753723e+000
1.974657e+003,8.711227e+000
1.975622e+003,9.759140e+000
1.976586e+003,9.407364e+000
1.977550e+003,8.888428e+000
1.978514e+003,8.373520e+000
1.979479e+003,8.510849e+000
1.980443e+003,9.327377e+000
1.981407e+003,9.944611e+000
1.982371e+003,1.007098e+001
1.983335e+003,9.933960e+000
1.984300e+003,9.627090e+000
1.985264e+003,9.202942e+000
1.986228e+003,8.747910e+000
1.987192e+003,8.368774e+000
1.988157e+003,8.735687e+000
1.989121e+003,1.029877e+001
1.990085e+003,1.037555e+001
1.991049e+003,7.927795e+000
1.992014e+003,6.188339e+000
1.992978e+003,5.568756e+000
1.993942e+003,5.586655e+000
1.994906e+003,6.627838e+000
1.995871e+003,7.682785e+000
1.996835e+003,7.750412e+000
1.997799e+003,7.571442e+000
1.998763e+003,8.542511e+000
1.999728e+003,1.027588e+001
