5.003444e+002,7.725874e+001
5.013087e+002,7.668303e+001
5.022729e+002,7.605746e+001
5.032371e+002,7.546803e+001
5.042014e+002,7.477904e+001
5.051656e+002,7.402583e+001
5.061298e+002,7.315562e+001
5.070941e+002,7.202141e+001
5.080583e+002,7.035251e+001
5.090225e+002,6.974678e+001
5.099868e+002,7.104536e+001
5.109510e+002,7.217233e+001
5.119152e+002,7.181612e+001
5.128795e+002,6.981850e+001
5.138437e+002,6.837643e+001
5.148079e+002,6.872923e+001
5.157722e+002,6.938882e+001
5.167364e+002,7.013383e+001
5.177006e+002,7.063129e+001
5.186649e+002,7.026685e+001
5.196291e+002,6.744577e+001
5.205933e+002,6.412083e+001
5.215576e+002,6.228671e+001
5.225218e+002,6.208214e+001
5.234860e+002,6.298300e+001
5.244503e+002,6.423004e+001
5.254145e+002,6.618147e+001
5.263787e+002,6.719733e+001
5.273430e+002,6.681458e+001
5.283072e+002,6.582291e+001
5.292714e+002,6.532805e+001
5.302357e+002,6.570819e+001
5.311999e+002,6.531828e+001
5.321641e+002,6.337303e+001
5.331284e+002,6.141559e+001
5.340926e+002,6.078593e+001
5.350568e+002,6.200174e+001
5.360211e+002,6.324039e+001
5.369853e+002,6.288013e+001
5.379495e+002,6.194925e+001
5.389138e+002,6.119878e+001
5.398780e+002,6.089928e+001
5.408422e+002,6.075150e+001
5.418065e+002,5.980750e+001
5.427707e+002,5.821812e+001
5.437349e+002,5.714223e+001
5.446992e+002,5.700696e+001
5.456634e+002,5.748082e+001
5.466276e+002,5.743279e+001
5.475919e+002,5.653136e+001
5.485561e+002,5.549232e+001
5.495203e+002,5.379553e+001
5.504846e+002,5.206882e+001
5.514488e+002,5.140863e+001
5.524130e+002,5.286177e+001
5.533773e+002,5.408815e+001
5.543415e+002,5.360571e+001
5.553057e+002,5.246497e+001
5.562700e+002,5.182323e+001
5.572342e+002,5.236446e+001
5.581984e+002,5.329340e+001
5.591627e+002,5.270796e+001
5.601269e+002,5.116031e+001
5.610911e+002,4.935823e+001
5.620554e+002,4.757756e+001
5.630196e+002,4.586594e+001
5.639838e+002,4.509094e+001
5.649481e+002,4.563406e+001
5.659123e+002,4.654065e+001
5.668765e+002,4.835464e+001
5.678408e+002,5.061632e+001
5.688050e+002,5.179089e+001
5.697692e+002,5.060287e+001
5.707335e+002,4.906274e+001
5.716977e+002,4.786287e+001
5.726619e+002,4.678607e+001
5.736262e+002,4.529457e+001
5.745904e+002,4.288457e+001
5.755546e+002,4.068536e+001
5.765189e+002,4.040166e+001
5.774831e+002,4.131276e+001
5.784473e+002,4.240358e+001
5.794116e+002,4.302496e+001
5.803758e+002,4.330626e+001
5.813400e+002,4.401331e+001
5.823043e+002,4.541557e+001
5.832685e+002,4.608286e+001
5.842327e+002,4.513162e+001
5.851970e+002,4.295370e+001
5.861612e+002,4.167711e+001
5.871254e+002,4.223424e+001
5.880897e+002,4.292441e+001
5.890539e+002,4.355310e+001
5.900181e+002,4.401907e+001
5.909824e+002,4.425900e+001
5.919466e+002,4.421408e+001
5.929108e+002,4.406238e+001
5.938751e+002,4.421626e+001
5.948393e+002,4.438138e+001
5.958035e+002,4.395908e+001
5.967678e+002,4.254562e+001
5.977320e+002,4.045197e+001
5.986962e+002,3.997450e+001
5.996605e+002,4.095068e+001
6.006247e+002,4.194598e+001
6.015889e+002,4.254759e+001
6.025532e+002,4.274153e+001
6.035174e+002,4.221022e+001
6.044816e+002,3.927493e+001
6.054459e+002,3.750468e+001
6.064101e+002,3.818872e+001
6.073743e+002,4.025967e+001
6.083386e+002,4.181105e+001
6.093028e+002,4.187225e+001
6.102670e+002,4.117075e+001
6.112313e+002,3.976355e+001
6.121955e+002,3.830560e+001
6.131597e+002,3.790215e+001
6.141240e+002,3.926003e+001
6.150882e+002,4.160365e+001
6.160524e+002,4.116745e+001
6.170167e+002,3.851421e+001
6.179809e+002,3.638210e+001
6.189451e+002,3.605171e+001
6.199094e+002,3.723755e+001
6.208736e+002,3.809793e+001
6.218378e+002,3.876868e+001
6.228021e+002,3.909776e+001
6.237663e+002,3.888559e+001
6.247305e+002,3.840080e+001
6.256948e+002,3.800279e+001
6.266590e+002,3.772044e+001
6.276232e+002,3.755203e+001
6.285875e+002,3.754263e+001
6.295517e+002,3.771301e+001
6.305159e+002,3.822585e+001
6.314802e+002,3.908908e+001
6.324444e+002,3.986215e+001
6.334086e+002,3.911440e+001
6.343729e+002,3.740334e+001
6.353371e+002,3.575519e+001
6.363013e+002,3.439082e+001
6.372656e+002,3.344359e+001
6.382298e+002,3.352797e+001
6.391940e+002,3.674634e+001
6.401583e+002,3.803683e+001
6.411225e+002,3.592792e+001
6.420867e+002,3.280132e+001
6.430510e+002,3.160562e+001
6.440152e+002,3.361838e+001
6.449794e+002,3.541525e+001
6.459437e+002,3.497409e+001
6.469079e+002,3.381989e+001
6.478721e+002,3.322165e+001
6.488364e+002,3.359010e+001
6.498006e+002,3.414252e+001
6.507648e+002,3.297676e+001
6.517291e+002,3.092093e+001
6.526933e+002,3.035699e+001
6.536575e+002,3.180702e+001
6.546218e+002,3.407550e+001
6.555860e+002,3.483359e+001
6.565502e+002,3.298045e+001
6.575145e+002,3.183986e+001
6.584787e+002,3.191299e+001
6.594429e+002,3.221216e+001
6.604072e+002,3.188359e+001
6.613714e+002,3.073650e+001
6.623356e+002,2.979425e+001
6.632999e+002,2.954720e+001
6.642641e+002,2.949266e+001
6.652283e+002,2.940459e+001
6.661926e+002,2.934393e+001
6.671568e+002,2.960443e+001
6.681210e+002,3.061470e+001
6.690853e+002,3.201810e+001
6.700495e+002,3.309853e+001
6.710137e+002,3.382138e+001
6.719780e+002,3.399844e+001
6.729422e+002,3.334259e+001
6.739064e+002,3.157909e+001
6.748707e+002,3.044302e+001
6.758349e+002,3.052271e+001
6.767991e+002,3.033885e+001
6.777634e+002,2.886186e+001
6.787276e+002,2.644353e+001
6.796918e+002,2.522992e+001
6.806561e+002,2.716266e+001
6.816203e+002,2.906567e+001
6.825845e+002,2.964737e+001
6.835488e+002,2.936375e+001
6.845130e+002,2.906120e+001
6.854772e+002,2.935895e+001
6.864415e+002,3.019531e+001
6.874057e+002,3.142569e+001
6.883699e+002,3.278612e+001
6.893342e+002,3.393042e+001
6.902984e+002,3.473885e+001
6.912626e+002,3.512801e+001
6.922269e+002,3.431534e+001
6.931911e+002,3.030577e+001
6.941553e+002,2.813983e+001
6.951196e+002,2.934302e+001
6.960838e+002,3.205707e+001
6.970480e+002,3.338126e+001
6.980123e+002,3.234732e+001
6.989765e+002,3.092871e+001
6.999407e+002,2.940129e+001
7.009050e+002,2.827307e+001
7.018692e+002,2.826411e+001
7.028334e+002,2.943767e+001
7.037977e+002,3.078687e+001
7.047619e+002,3.062370e+001
7.057261e+002,2.958832e+001
7.066904e+002,2.869783e+001
7.076546e+002,2.811031e+001
7.086188e+002,2.794467e+001
7.095831e+002,2.843198e+001
7.105473e+002,2.980772e+001
7.115115e+002,3.097520e+001
7.124758e+002,3.226694e+001
7.134400e+002,3.303923e+001
7.144042e+002,3.249792e+001
7.153685e+002,3.073993e+001
7.163327e+002,2.980931e+001
7.172969e+002,3.194717e+001
7.182612e+002,3.394133e+001
7.192254e+002,3.447040e+001
7.201896e+002,3.373680e+001
7.211539e+002,3.237540e+001
7.221181e+002,3.081885e+001
7.230823e+002,2.937238e+001
7.240466e+002,2.891888e+001
7.250108e+002,2.930298e+001
7.259750e+002,2.966508e+001
7.269393e+002,2.939296e+001
7.279035e+002,2.849800e+001
7.288677e+002,2.789294e+001
7.298320e+002,2.804276e+001
7.307962e+002,2.831770e+001
7.317604e+002,2.856277e+001
7.327247e+002,2.898465e+001
7.336889e+002,2.994414e+001
7.346531e+002,3.164986e+001
7.356174e+002,3.285484e+001
7.365816e+002,3.351857e+001
7.375458e+002,3.342296e+001
7.385101e+002,3.164511e+001
7.394743e+002,2.841306e+001
7.404385e+002,2.551154e+001
7.414028e+002,2.605942e+001
7.423670e+002,2.901317e+001
7.433312e+002,2.993550e+001
7.442955e+002,2.853725e+001
7.452597e+002,2.661325e+001
7.462239e+002,2.621634e+001
7.471882e+002,2.785179e+001
7.481524e+002,2.864114e+001
7.491166e+002,2.791209e+001
7.500809e+002,2.700726e+001
7.510451e+002,2.614638e+001
7.520093e+002,2.549991e+001
7.529736e+002,2.551030e+001
7.539378e+002,2.692192e+001
7.549020e+002,2.849069e+001
7.558663e+002,2.954346e+001
7.568306e+002,3.016663e+001
7.577948e+002,3.041452e+001
7.587590e+002,3.030826e+001
7.597233e+002,2.989937e+001
7.606875e+002,2.949417e+001
7.616517e+002,2.916397e+001
7.626160e+002,2.890477e+001
7.635802e+002,2.867792e+001
7.645444e+002,2.860667e+001
7.655087e+002,2.897354e+001
7.664729e+002,3.004900e+001
7.674371e+002,3.091359e+001
7.684014e+002,3.200125e+001
7.693656e+002,3.248035e+001
7.703298e+002,3.128284e+001
7.712941e+002,2.857065e+001
7.722583e+002,2.648962e+001
7.732225e+002,2.697739e+001
7.741868e+002,2.846446e+001
7.751510e+002,3.016426e+001
7.761152e+002,3.177568e+001
7.770795e+002,3.288062e+001
7.780437e+002,3.308690e+001
7.790079e+002,3.251076e+001
7.799722e+002,3.248932e+001
7.809364e+002,3.310670e+001
7.819006e+002,3.342468e+001
7.828649e+002,3.302759e+001
7.838291e+002,3.215862e+001
7.847933e+002,3.151018e+001
7.857576e+002,3.137013e+001
7.867218e+002,3.063733e+001
7.876860e+002,2.824739e+001
7.886503e+002,2.606085e+001
7.896145e+002,2.611208e+001
7.905787e+002,2.873409e+001
7.915430e+002,3.135457e+001
7.925072e+002,3.059171e+001
7.934714e+002,2.847557e+001
7.944357e+002,2.712358e+001
7.953999e+002,2.682509e+001
7.963641e+002,2.716086e+001
7.973284e+002,2.762727e+001
7.982926e+002,2.819949e+001
7.992568e+002,2.959926e+001
8.002211e+002,3.279295e+001
8.011853e+002,3.464676e+001
8.021495e+002,3.331554e+001
8.031138e+002,2.989372e+001
8.040780e+002,2.797026e+001
8.050422e+002,2.901138e+001
8.060065e+002,3.000491e+001
8.069707e+002,2.960458e+001
8.079349e+002,2.878078e+001
8.088992e+002,2.864372e+001
8.098634e+002,2.957347e+001
8.108276e+002,3.080412e+001
8.117919e+002,3.103545e+001
8.127561e+002,3.060429e+001
8.137203e+002,3.063376e+001
8.146846e+002,3.133640e+001
8.156488e+002,3.211192e+001
8.166130e+002,3.215503e+001
8.175773e+002,3.133788e+001
8.185415e+002,3.033856e+001
8.195057e+002,2.836636e+001
8.204700e+002,2.700519e+001
8.214342e+002,2.712338e+001
8.223984e+002,2.826866e+001
8.233627e+002,2.923032e+001
8.243269e+002,2.961589e+001
8.252911e+002,2.980484e+001
8.262554e+002,3.028236e+001
8.272196e+002,3.059247e+001
8.281838e+002,3.006252e+001
8.291481e+002,2.856625e+001
8.301123e+002,2.673268e+001
8.310765e+002,2.559875e+001
8.320408e+002,2.521693e+001
8.330050e+002,2.564201e+001
8.339692e+002,2.719164e+001
8.349335e+002,2.867001e+001
8.358977e+002,2.846178e+001
8.368619e+002,2.615164e+001
8.378262e+002,2.569116e+001
8.387904e+002,2.946384e+001
8.397546e+002,3.230914e+001
8.407189e+002,3.269556e+001
8.416831e+002,3.137251e+001
8.426473e+002,2.953902e+001
8.436116e+002,2.746207e+001
8.445758e+002,2.619655e+001
8.455400e+002,2.760680e+001
8.465043e+002,2.981271e+001
8.474685e+002,3.055585e+001
8.484327e+002,2.944348e+001
8.493970e+002,2.806079e+001
8.503612e+002,2.904518e+001
8.513254e+002,3.299840e+001
8.522897e+002,3.426007e+001
8.532539e+002,3.106075e+001
8.542181e+002,2.770905e+001
8.551824e+002,2.696230e+001
8.561466e+002,2.861748e+001
8.571108e+002,3.018312e+001
8.580751e+002,3.082112e+001
8.590393e+002,3.128453e+001
8.600035e+002,3.203865e+001
8.609678e+002,3.281110e+001
8.619320e+002,3.305869e+001
8.628962e+002,3.262016e+001
8.638605e+002,3.226782e+001
8.648247e+002,3.350586e+001
8.657889e+002,3.560602e+001
8.667532e+002,3.718976e+001
8.677174e+002,3.806812e+001
8.686816e+002,3.817247e+001
8.696459e+002,3.724863e+001
8.706101e+002,3.506247e+001
8.715743e+002,3.409373e+001
8.725386e+002,3.535266e+001
8.735028e+002,3.643408e+001
8.744670e+002,3.652101e+001
8.754313e+002,3.594206e+001
8.763955e+002,3.522862e+001
8.773597e+002,3.426895e+001
8.783240e+002,3.442653e+001
8.792882e+002,3.770959e+001
8.802524e+002,4.165620e+001
8.812167e+002,4.419936e+001
8.821809e+002,4.490817e+001
8.831451e+002,4.458357e+001
8.841094e+002,4.423985e+001
8.850736e+002,4.393657e+001
8.860378e+002,4.350716e+001
8.870021e+002,4.282019e+001
8.879663e+002,4.225763e+001
8.889305e+002,4.204874e+001
8.898948e+002,4.209776e+001
8.908590e+002,4.206483e+001
8.918232e+002,4.188156e+001
8.927875e+002,4.187744e+001
8.937517e+002,4.207301e+001
8.947159e+002,4.248611e+001
8.956802e+002,4.325565e+001
8.966444e+002,4.425244e+001
8.976086e+002,4.493492e+001
8.985729e+002,4.479892e+001
8.995371e+002,4.412392e+001
9.005013e+002,4.281012e+001
9.014656e+002,4.123886e+001
9.024298e+002,4.103789e+001
9.033940e+002,4.358479e+001
9.043583e+002,4.827214e+001
9.053225e+002,5.083873e+001
9.062867e+002,4.917546e+001
9.072510e+002,4.778317e+001
9.082152e+002,4.706497e+001
9.091794e+002,4.667142e+001
9.101437e+002,4.610509e+001
9.111079e+002,4.527161e+001
9.120721e+002,4.489545e+001
9.130364e+002,4.559810e+001
9.140006e+002,4.660130e+001
9.149648e+002,4.784123e+001
9.159291e+002,4.912369e+001
9.168933e+002,5.017357e+001
9.178575e+002,5.074411e+001
9.188218e+002,5.068983e+001
9.197860e+002,4.936397e+001
9.207502e+002,4.666655e+001
9.217145e+002,4.471118e+001
9.226787e+002,4.417104e+001
9.236429e+002,4.450011e+001
9.246072e+002,4.508473e+001
9.255714e+002,4.600732e+001
9.265356e+002,4.635637e+001
9.274999e+002,4.561060e+001
9.284641e+002,4.459608e+001
9.294283e+002,4.342256e+001
9.303926e+002,4.229063e+001
9.313568e+002,4.144791e+001
9.323210e+002,4.102504e+001
9.332853e+002,4.077171e+001
9.342495e+002,4.009924e+001
9.352137e+002,3.934641e+001
9.361780e+002,3.942567e+001
9.371422e+002,4.057193e+001
9.381064e+002,4.178746e+001
9.390707e+002,4.157272e+001
9.400349e+002,3.954791e+001
9.409991e+002,3.797104e+001
9.419634e+002,3.614764e+001
9.429276e+002,3.550568e+001
9.438918e+002,3.770461e+001
9.448561e+002,4.094983e+001
9.458203e+002,4.197598e+001
9.467845e+002,3.950771e+001
9.477488e+002,3.690213e+001
9.487130e+002,3.688515e+001
9.496772e+002,3.760019e+001
9.506415e+002,3.780780e+001
9.516057e+002,3.730499e+001
9.525699e+002,3.631929e+001
9.535342e+002,3.503644e+001
9.544984e+002,3.353723e+001
9.554626e+002,3.303868e+001
9.564269e+002,3.398593e+001
9.573911e+002,3.436250e+001
9.583553e+002,3.257971e+001
9.593196e+002,3.032007e+001
9.602838e+002,3.093613e+001
9.612480e+002,3.563124e+001
9.622123e+002,3.843814e+001
9.631765e+002,3.638980e+001
9.641407e+002,3.345988e+001
9.651050e+002,3.039464e+001
9.660692e+002,2.799542e+001
9.670334e+002,2.752328e+001
9.679977e+002,2.986101e+001
9.689619e+002,3.355779e+001
9.699261e+002,3.539404e+001
9.708904e+002,3.580795e+001
9.718546e+002,3.582025e+001
9.728188e+002,3.544566e+001
9.737831e+002,3.542145e+001
9.747473e+002,3.724603e+001
9.757115e+002,4.170218e+001
9.766758e+002,4.385042e+001
9.776400e+002,4.171001e+001
9.786042e+002,3.982574e+001
9.795685e+002,3.944171e+001
9.805327e+002,3.970328e+001
9.814969e+002,3.949716e+001
9.824612e+002,3.851846e+001
9.834254e+002,3.711577e+001
9.843896e+002,3.491124e+001
9.853539e+002,3.273677e+001
9.863181e+002,3.190942e+001
9.872823e+002,3.214436e+001
9.882466e+002,3.194778e+001
9.892108e+002,3.010742e+001
9.901750e+002,2.709924e+001
9.911393e+002,2.559148e+001
9.921035e+002,2.662875e+001
9.930677e+002,2.704634e+001
9.940320e+002,2.632123e+001
9.949962e+002,2.543008e+001
9.959604e+002,2.516498e+001
9.969247e+002,2.561362e+001
9.978889e+002,2.665662e+001
9.988531e+002,2.888789e+001
9.998174e+002,3.061569e+001
1.000782e+003,3.086411e+001
1.001746e+003,3.012622e+001
1.002710e+003,2.894519e+001
1.003674e+003,2.764012e+001
1.004639e+003,2.641682e+001
1.005603e+003,2.567073e+001
1.006567e+003,2.542354e+001
1.007531e+003,2.506358e+001
1.008495e+003,2.463783e+001
1.009460e+003,2.405353e+001
1.010424e+003,2.280482e+001
1.011388e+003,2.131087e+001
1.012352e+003,2.149934e+001
1.013317e+003,2.500677e+001
1.014281e+003,2.715865e+001
1.015245e+003,2.572806e+001
1.016209e+003,2.335034e+001
1.017174e+003,2.175748e+001
1.018138e+003,2.121114e+001
1.019102e+003,2.110286e+001
1.020066e+003,2.100815e+001
1.021031e+003,2.090047e+001
1.021995e+003,2.031569e+001
1.022959e+003,1.932034e+001
1.023923e+003,1.897919e+001
1.024887e+003,1.999251e+001
1.025852e+003,2.116486e+001
1.026816e+003,2.025485e+001
1.027780e+003,1.654066e+001
1.028744e+003,1.451413e+001
1.029709e+003,1.609163e+001
1.030673e+003,1.747942e+001
1.031637e+003,1.748506e+001
1.032601e+003,1.660931e+001
1.033566e+003,1.544576e+001
1.034530e+003,1.427406e+001
1.035494e+003,1.379597e+001
1.036458e+003,1.555153e+001
1.037422e+003,1.794359e+001
1.038387e+003,1.780405e+001
1.039351e+003,1.534546e+001
1.040315e+003,1.355591e+001
1.041279e+003,1.488919e+001
1.042244e+003,1.849002e+001
1.043208e+003,1.983498e+001
1.044172e+003,1.650906e+001
1.045136e+003,1.486952e+001
1.046101e+003,1.606477e+001
1.047065e+003,1.792184e+001
1.048029e+003,1.946181e+001
1.048993e+003,2.042253e+001
1.049958e+003,2.037224e+001
1.050922e+003,1.870296e+001
1.051886e+003,1.717175e+001
1.052850e+003,1.783856e+001
1.053814e+003,1.953117e+001
1.054779e+003,2.102505e+001
1.055743e+003,2.191132e+001
1.056707e+003,2.202441e+001
1.057671e+003,2.111406e+001
1.058636e+003,1.915338e+001
1.059600e+003,1.776289e+001
1.060564e+003,1.756519e+001
1.061528e+003,1.720854e+001
1.062493e+003,1.614008e+001
1.063457e+003,1.492340e+001
1.064421e+003,1.427042e+001
1.065385e+003,1.428743e+001
1.066349e+003,1.443831e+001
1.067314e+003,1.434178e+001
1.068278e+003,1.447832e+001
1.069242e+003,1.555362e+001
1.070206e+003,1.699081e+001
1.071171e+003,1.772560e+001
1.072135e+003,1.734399e+001
1.073099e+003,1.655701e+001
1.074063e+003,1.668111e+001
1.075028e+003,1.790756e+001
1.075992e+003,1.776520e+001
1.076956e+003,1.492961e+001
1.077920e+003,1.300383e+001
1.078885e+003,1.418208e+001
1.079849e+003,1.692575e+001
1.080813e+003,1.835266e+001
1.081777e+003,1.794664e+001
1.082741e+003,1.707466e+001
1.083706e+003,1.558482e+001
1.084670e+003,1.435950e+001
1.085634e+003,1.410309e+001
1.086598e+003,1.448228e+001
1.087563e+003,1.479156e+001
1.088527e+003,1.468791e+001
1.089491e+003,1.457762e+001
1.090455e+003,1.523792e+001
1.091420e+003,1.671225e+001
1.092384e+003,1.707039e+001
1.093348e+003,1.556386e+001
1.094312e+003,1.420177e+001
1.095276e+003,1.475436e+001
1.096241e+003,1.642952e+001
1.097205e+003,1.636450e+001
1.098169e+003,1.327835e+001
1.099133e+003,1.104308e+001
1.100098e+003,1.161331e+001
1.101062e+003,1.300774e+001
1.102026e+003,1.433836e+001
1.102990e+003,1.542702e+001
1.103955e+003,1.641862e+001
1.104919e+003,1.738051e+001
1.105883e+003,1.798216e+001
1.106847e+003,1.738965e+001
1.107812e+003,1.557748e+001
1.108776e+003,1.452469e+001
1.109740e+003,1.463412e+001
1.110704e+003,1.483760e+001
1.111668e+003,1.432040e+001
1.112633e+003,1.333931e+001
1.113597e+003,1.279691e+001
1.114561e+003,1.278572e+001
1.115525e+003,1.305415e+001
1.116490e+003,1.395625e+001
1.117454e+003,1.464890e+001
1.118418e+003,1.433900e+001
1.119382e+003,1.344702e+001
1.120347e+003,1.308473e+001
1.121311e+003,1.386443e+001
1.122275e+003,1.497960e+001
1.123239e+003,1.494633e+001
1.124203e+003,1.394949e+001
1.125168e+003,1.321780e+001
1.126132e+003,1.288657e+001
1.127096e+003,1.276239e+001
1.128060e+003,1.264987e+001
1.129025e+003,1.255618e+001
1.129989e+003,1.267480e+001
1.130953e+003,1.308273e+001
1.131917e+003,1.348218e+001
1.132882e+003,1.388901e+001
1.133846e+003,1.424174e+001
1.134810e+003,1.447147e+001
1.135774e+003,1.462964e+001
1.136739e+003,1.477873e+001
1.137703e+003,1.495219e+001
1.138667e+003,1.526653e+001
1.139631e+003,1.613002e+001
1.140595e+003,1.736322e+001
1.141560e+003,1.749232e+001
1.142524e+003,1.601857e+001
1.143488e+003,1.522124e+001
1.144452e+003,1.735916e+001
1.145417e+003,2.140062e+001
1.146381e+003,2.336555e+001
1.147345e+003,2.211549e+001
1.148309e+003,2.145627e+001
1.149274e+003,2.244626e+001
1.150238e+003,2.414890e+001
1.151202e+003,2.637421e+001
1.152166e+003,2.895064e+001
1.153130e+003,3.191437e+001
1.154095e+003,3.512871e+001
1.155059e+003,3.775540e+001
1.156023e+003,3.873192e+001
1.156987e+003,3.805283e+001
1.157952e+003,3.619086e+001
1.158916e+003,3.299394e+001
1.159880e+003,3.022522e+001
1.160844e+003,2.924336e+001
1.161809e+003,2.895476e+001
1.162773e+003,2.676984e+001
1.163737e+003,2.203293e+001
1.164701e+003,1.838976e+001
1.165666e+003,1.753954e+001
1.166630e+003,1.727066e+001
1.167594e+003,1.696979e+001
1.168558e+003,1.666933e+001
1.169522e+003,1.650719e+001
1.170487e+003,1.655078e+001
1.171451e+003,1.691350e+001
1.172415e+003,1.785016e+001
1.173379e+003,1.900583e+001
1.174344e+003,1.843825e+001
1.175308e+003,1.611276e+001
1.176272e+003,1.402791e+001
1.177236e+003,1.265477e+001
1.178201e+003,1.200754e+001
1.179165e+003,1.250188e+001
1.180129e+003,1.411264e+001
1.181093e+003,1.437547e+001
1.182057e+003,1.169482e+001
1.183022e+003,9.293442e+000
1.183986e+003,8.014633e+000
1.184950e+003,7.785797e+000
1.185914e+003,8.967484e+000
1.186879e+003,1.120436e+001
1.187843e+003,1.357019e+001
1.188807e+003,1.532605e+001
1.189771e+003,1.612779e+001
1.190736e+003,1.453172e+001
1.191700e+003,1.011700e+001
1.192664e+003,7.892456e+000
1.193628e+003,1.001241e+001
1.194593e+003,1.223581e+001
1.195557e+003,1.096672e+001
1.196521e+003,7.301025e+000
1.197485e+003,5.168427e+000
1.198449e+003,5.385193e+000
1.199414e+003,6.452835e+000
1.200378e+003,8.861603e+000
1.201342e+003,1.084352e+001
1.202306e+003,1.089966e+001
1.203271e+003,9.617462e+000
1.204235e+003,8.459732e+000
1.205199e+003,8.149414e+000
1.206163e+003,8.045486e+000
1.207128e+003,6.991577e+000
1.208092e+003,4.915970e+000
1.209056e+003,3.885605e+000
1.210020e+003,4.410385e+000
1.210984e+003,4.768326e+000
1.211949e+003,4.389633e+000
1.212913e+003,3.601608e+000
1.213877e+003,2.814972e+000
1.214841e+003,2.083755e+000
1.215806e+003,1.323395e+000
1.216770e+003,4.022064e-001
1.217734e+003,-4.304047e-001
1.218698e+003,-9.765015e-001
1.219663e+003,-1.429840e+000
1.220627e+003,-2.106598e+000
1.221591e+003,-2.981155e+000
1.222555e+003,-3.675339e+000
1.223520e+003,-3.823456e+000
1.224484e+003,-3.475021e+000
1.225448e+003,-3.003433e+000
1.226412e+003,-2.383743e+000
1.227376e+003,-1.722198e+000
1.228341e+003,-1.179245e+000
1.229305e+003,-4.709930e-001
1.230269e+003,1.176010e+000
1.231233e+003,2.917648e+000
1.232198e+003,2.598724e+000
1.233162e+003,-4.512177e-001
1.234126e+003,-2.715179e+000
1.235090e+003,-5.694122e-001
1.236055e+003,2.443878e+000
1.237019e+003,2.182388e+000
1.237983e+003,-3.914490e-001
1.238947e+003,-2.416992e+000
1.239911e+003,-2.664688e+000
1.240876e+003,-2.142975e+000
1.241840e+003,-2.474869e+000
1.242804e+003,-3.768219e+000
1.243768e+003,-3.881104e+000
1.244733e+003,-9.857178e-001
1.245697e+003,6.556091e-001
1.246661e+003,-2.737579e-001
1.247625e+003,-1.784912e+000
1.248590e+003,-2.540817e+000
1.249554e+003,-2.440704e+000
1.250518e+003,-1.776794e+000
1.251482e+003,-6.597443e-001
1.252447e+003,3.349609e-001
1.253411e+003,4.471436e-001
1.254375e+003,7.229614e-002
1.255339e+003,6.260681e-002
1.256303e+003,4.622345e-001
1.257268e+003,6.642761e-001
1.258232e+003,1.369781e-001
1.259196e+003,-6.995239e-001
1.260160e+003,-9.296722e-001
1.261125e+003,-4.735565e-001
1.262089e+003,5.152588e-001
1.263053e+003,2.936646e+000
1.264017e+003,4.583344e+000
1.264982e+003,4.360550e+000
1.265946e+003,3.629181e+000
1.266910e+003,3.916016e+000
1.267874e+003,5.041885e+000
1.268839e+003,5.474030e+000
1.269803e+003,4.186890e+000
1.270767e+003,2.180405e+000
1.271731e+003,1.449844e+000
1.272695e+003,1.994675e+000
1.273660e+003,2.045898e+000
1.274624e+003,1.212784e+000
1.275588e+003,5.203247e-001
1.276552e+003,9.535675e-001
1.277517e+003,1.825134e+000
1.278481e+003,1.393341e+000
1.279445e+003,-6.321564e-001
1.280409e+003,-1.360855e+000
1.281374e+003,1.526611e+000
1.282338e+003,4.043808e+000
1.283302e+003,3.741699e+000
1.284266e+003,2.203323e+000
1.285230e+003,1.012741e+000
1.286195e+003,5.807343e-001
1.287159e+003,7.684174e-001
1.288123e+003,1.499954e+000
1.289087e+003,2.453720e+000
1.290052e+003,2.469559e+000
1.291016e+003,1.042313e+000
1.291980e+003,2.997284e-001
1.292944e+003,6.885834e-001
1.293909e+003,9.928741e-001
1.294873e+003,8.948059e-001
1.295837e+003,4.752045e-001
1.296801e+003,-3.169708e-001
1.297766e+003,-1.425278e+000
1.298730e+003,-2.354553e+000
1.299694e+003,-2.963684e+000
1.300658e+003,-3.162323e+000
1.301622e+003,-2.425735e+000
1.302587e+003,-1.354568e+000
1.303551e+003,-1.156921e+000
1.304515e+003,-1.917419e+000
1.305479e+003,-2.334351e+000
1.306444e+003,-1.243576e+000
1.307408e+003,6.950226e-001
1.308372e+003,1.259354e+000
1.309336e+003,-4.733276e-002
1.310301e+003,-1.233871e+000
1.311265e+003,-2.675018e+000
1.312229e+003,-3.321457e+000
1.313193e+003,-2.334396e+000
1.314157e+003,-7.669067e-001
1.315122e+003,3.805542e-001
1.316086e+003,9.057159e-001
1.317050e+003,1.184921e+000
1.318014e+003,1.518478e+000
1.318979e+003,1.490631e+000
1.319943e+003,-2.333679e-001
1.320907e+003,-3.191940e+000
1.321871e+003,-3.509003e+000
1.322836e+003,-3.037720e-001
1.323800e+003,2.598709e+000
1.324764e+003,2.975906e+000
1.325728e+003,1.924576e+000
1.326693e+003,1.354675e+000
1.327657e+003,1.300354e+000
1.328621e+003,3.758698e-001
1.329585e+003,-2.661880e+000
1.330549e+003,-4.717041e+000
1.331514e+003,-3.684891e+000
1.332478e+003,-1.778900e+000
1.333442e+003,-9.399567e-001
1.334406e+003,-1.226547e+000
1.335371e+003,-1.928146e+000
1.336335e+003,-2.567734e+000
1.337299e+003,-2.758942e+000
1.338263e+003,-1.686172e+000
1.339228e+003,9.134827e-001
1.340192e+003,2.322083e+000
1.341156e+003,1.712799e+000
1.342120e+003,1.221436e+000
1.343084e+003,1.320282e+000
1.344049e+003,1.362076e+000
1.345013e+003,6.840973e-001
1.345977e+003,-4.185944e-001
1.346941e+003,-1.111053e+000
1.347906e+003,-1.106018e+000
1.348870e+003,-5.657806e-001
1.349834e+003,8.045959e-001
1.350798e+003,2.192993e+000
1.351763e+003,1.965134e+000
1.352727e+003,4.201355e-001
1.353691e+003,-8.244324e-001
1.354655e+003,-1.252594e+000
1.355620e+003,-9.362030e-001
1.356584e+003,4.081573e-001
1.357548e+003,2.619263e+000
1.358512e+003,4.047241e+000
1.359476e+003,4.564575e+000
1.360441e+003,4.230026e+000
1.361405e+003,2.100113e+000
1.362369e+003,2.557220e-001
1.363333e+003,-1.546021e-001
1.364298e+003,3.063965e-001
1.365262e+003,8.394928e-001
1.366226e+003,1.185272e+000
1.367190e+003,1.453629e+000
1.368155e+003,1.730484e+000
1.369119e+003,2.180008e+000
1.370083e+003,3.447296e+000
1.371047e+003,6.160324e+000
1.372011e+003,6.903458e+000
1.372976e+003,3.598404e+000
1.373940e+003,1.006912e+000
1.374904e+003,1.659973e+000
1.375868e+003,3.527924e+000
1.376833e+003,3.912048e+000
1.377797e+003,2.740417e+000
1.378761e+003,1.929077e+000
1.379725e+003,2.497345e+000
1.380690e+003,3.016678e+000
1.381654e+003,1.251862e+000
1.382618e+003,-1.061356e+000
1.383582e+003,-1.311798e+000
1.384547e+003,4.223022e-001
1.385511e+003,2.377579e+000
1.386475e+003,3.756256e+000
1.387439e+003,4.537430e+000
1.388403e+003,4.497604e+000
1.389368e+003,3.633072e+000
1.390332e+003,3.189606e+000
1.391296e+003,3.535599e+000
1.392260e+003,3.718979e+000
1.393225e+003,3.669113e+000
1.394189e+003,3.246185e+000
1.395153e+003,1.696106e+000
1.396117e+003,1.536560e-002
1.397082e+003,6.471252e-002
1.398046e+003,2.006866e+000
1.399010e+003,3.715729e+000
1.399974e+003,3.153320e+000
1.400938e+003,1.287247e+000
1.401903e+003,1.519165e+000
1.402867e+003,4.894821e+000
1.403831e+003,6.568451e+000
1.404795e+003,5.460373e+000
1.405760e+003,4.031067e+000
1.406724e+003,2.582779e+000
1.407688e+003,1.388840e+000
1.408652e+003,1.149704e+000
1.409617e+003,1.738266e+000
1.410581e+003,1.913986e+000
1.411545e+003,1.090775e+000
1.412509e+003,2.430115e-001
1.413474e+003,1.080627e-001
1.414438e+003,6.003113e-001
1.415402e+003,2.267029e+000
1.416366e+003,4.774445e+000
1.417330e+003,5.693481e+000
1.418295e+003,3.742249e+000
1.419259e+003,1.184158e+000
1.420223e+003,6.914978e-001
1.421187e+003,1.892334e+000
1.422152e+003,2.751312e+000
1.423116e+003,3.287552e+000
1.424080e+003,3.527313e+000
1.425044e+003,3.013458e+000
1.426009e+003,2.553391e+000
1.426973e+003,2.241104e+000
1.427937e+003,2.307587e+000
1.428901e+003,3.565720e+000
1.429865e+003,5.598343e+000
1.430830e+003,6.426529e+000
1.431794e+003,4.761658e+000
1.432758e+003,2.237808e+000
1.433722e+003,2.290131e+000
1.434687e+003,5.326294e+000
1.435651e+003,6.938690e+000
1.436615e+003,5.749985e+000
1.437579e+003,4.721954e+000
1.438544e+003,4.237549e+000
1.439508e+003,3.914719e+000
1.440472e+003,3.371231e+000
1.441436e+003,2.927780e+000
1.442401e+003,3.355713e+000
1.443365e+003,4.705276e+000
1.444329e+003,5.841400e+000
1.445293e+003,5.920609e+000
1.446257e+003,5.414597e+000
1.447222e+003,5.038956e+000
1.448186e+003,4.794617e+000
1.449150e+003,4.943619e+000
1.450114e+003,5.772980e+000
1.451079e+003,5.830368e+000
1.452043e+003,3.337341e+000
1.453007e+003,4.788666e-001
1.453971e+003,8.238678e-001
1.454936e+003,3.837585e+000
1.455900e+003,5.287354e+000
1.456864e+003,3.954773e+000
1.457828e+003,2.345779e+000
1.458792e+003,1.582855e+000
1.459757e+003,1.339127e+000
1.460721e+003,1.490036e+000
1.461685e+003,1.920181e+000
1.462649e+003,2.511765e+000
1.463614e+003,3.233292e+000
1.464578e+003,3.973419e+000
1.465542e+003,4.643509e+000
1.466506e+003,5.138657e+000
1.467471e+003,5.293930e+000
1.468435e+003,5.272781e+000
1.469399e+003,4.465546e+000
1.470363e+003,1.134277e+000
1.471328e+003,-6.648254e-001
1.472292e+003,1.105865e+000
1.473256e+003,3.426071e+000
1.474220e+003,4.208084e+000
1.475184e+003,3.945389e+000
1.476149e+003,4.145920e+000
1.477113e+003,5.133469e+000
1.478077e+003,5.635162e+000
1.479041e+003,4.443115e+000
1.480006e+003,2.168854e+000
1.480970e+003,6.638336e-001
1.481934e+003,-2.150269e-001
1.482898e+003,1.594696e-001
1.483863e+003,3.189804e+000
1.484827e+003,5.321793e+000
1.485791e+003,5.008408e+000
1.486755e+003,4.057800e+000
1.487719e+003,4.154633e+000
1.488684e+003,4.972855e+000
1.489648e+003,5.097092e+000
1.490612e+003,4.149857e+000
1.491576e+003,3.718811e+000
1.492541e+003,5.363403e+000
1.493505e+003,7.809814e+000
1.494469e+003,7.905869e+000
1.495433e+003,6.055206e+000
1.496398e+003,5.292847e+000
1.497362e+003,6.400482e+000
1.498326e+003,7.597015e+000
1.499290e+003,8.000702e+000
1.500255e+003,7.923996e+000
1.501219e+003,7.471130e+000
1.502183e+003,6.807571e+000
1.503147e+003,6.876358e+000
1.504111e+003,7.912903e+000
1.505076e+003,9.591599e+000
1.506040e+003,1.242651e+001
1.507004e+003,1.508469e+001
1.507968e+003,1.584018e+001
1.508933e+003,1.559010e+001
1.509897e+003,1.616074e+001
1.510861e+003,1.798787e+001
1.511825e+003,2.058665e+001
1.512790e+003,2.379965e+001
1.513754e+003,2.700755e+001
1.514718e+003,2.881848e+001
1.515682e+003,2.919789e+001
1.516646e+003,3.065364e+001
1.517611e+003,3.394414e+001
1.518575e+003,3.715523e+001
1.519539e+003,4.046797e+001
1.520503e+003,4.284706e+001
1.521468e+003,4.343555e+001
1.522432e+003,4.282280e+001
1.523396e+003,4.152252e+001
1.524360e+003,3.990137e+001
1.525325e+003,3.862134e+001
1.526289e+003,3.814566e+001
1.527253e+003,3.793268e+001
1.528217e+003,3.699338e+001
1.529182e+003,3.536740e+001
1.530146e+003,3.341911e+001
1.531110e+003,3.061864e+001
1.532074e+003,2.841550e+001
1.533039e+003,2.779826e+001
1.534003e+003,2.639072e+001
1.534967e+003,2.272617e+001
1.535931e+003,1.826357e+001
1.536896e+003,1.411224e+001
1.537860e+003,1.086424e+001
1.538824e+003,9.430771e+000
1.539788e+003,1.011565e+001
1.540752e+003,1.122250e+001
1.541717e+003,1.052065e+001
1.542681e+003,8.496765e+000
1.543645e+003,8.131592e+000
1.544609e+003,1.057191e+001
1.545573e+003,1.193698e+001
1.546538e+003,1.135109e+001
1.547502e+003,1.067154e+001
1.548466e+003,1.065193e+001
1.549430e+003,1.097534e+001
1.550395e+003,1.159685e+001
1.551359e+003,1.210945e+001
1.552323e+003,1.130637e+001
1.553287e+003,8.918335e+000
1.554252e+003,7.113129e+000
1.555216e+003,8.030334e+000
1.556180e+003,1.010847e+001
1.557144e+003,9.322296e+000
1.558109e+003,5.590576e+000
1.559073e+003,4.178513e+000
1.560037e+003,6.385956e+000
1.561001e+003,8.144440e+000
1.561966e+003,8.365250e+000
1.562930e+003,7.562485e+000
1.563894e+003,5.283798e+000
1.564858e+003,2.490845e+000
1.565823e+003,1.657074e+000
1.566787e+003,3.153961e+000
1.567751e+003,4.904007e+000
1.568715e+003,5.906021e+000
1.569679e+003,6.286667e+000
1.570644e+003,5.724243e+000
1.571608e+003,4.718399e+000
1.572572e+003,5.127869e+000
1.573536e+003,7.096985e+000
1.574500e+003,8.199188e+000
1.575465e+003,7.025757e+000
1.576429e+003,5.675873e+000
1.577393e+003,6.105179e+000
1.578357e+003,7.376740e+000
1.579322e+003,7.456421e+000
1.580286e+003,6.371094e+000
1.581250e+003,6.259399e+000
1.582214e+003,8.101852e+000
1.583179e+003,9.757858e+000
1.584143e+003,9.283157e+000
1.585107e+003,8.019592e+000
1.586071e+003,7.987015e+000
1.587036e+003,8.858719e+000
1.588000e+003,9.347305e+000
1.588964e+003,9.114563e+000
1.589928e+003,8.659485e+000
1.590893e+003,8.052841e+000
1.591857e+003,7.683945e+000
1.592821e+003,8.235916e+000
1.593785e+003,9.603134e+000
1.594750e+003,1.130574e+001
1.595714e+003,1.345041e+001
1.596678e+003,1.458023e+001
1.597642e+003,1.357428e+001
1.598606e+003,1.218097e+001
1.599571e+003,1.153880e+001
1.600535e+003,1.155490e+001
1.601499e+003,1.233075e+001
1.602463e+003,1.367850e+001
1.603427e+003,1.494096e+001
1.604392e+003,1.589481e+001
1.605356e+003,1.644511e+001
1.606320e+003,1.639293e+001
1.607284e+003,1.590965e+001
1.608249e+003,1.531308e+001
1.609213e+003,1.458246e+001
1.610177e+003,1.463394e+001
1.611141e+003,1.604527e+001
1.612106e+003,1.719022e+001
1.613070e+003,1.758342e+001
1.614034e+003,1.708360e+001
1.614998e+003,1.459505e+001
1.615963e+003,1.153558e+001
1.616927e+003,1.061288e+001
1.617891e+003,1.193077e+001
1.618855e+003,1.280771e+001
1.619820e+003,1.147414e+001
1.620784e+003,9.686615e+000
1.621748e+003,1.040372e+001
1.622712e+003,1.320670e+001
1.623677e+003,1.468846e+001
1.624641e+003,1.452942e+001
1.625605e+003,1.493417e+001
1.626569e+003,1.699452e+001
1.627533e+003,1.822438e+001
1.628498e+003,1.684811e+001
1.629462e+003,1.486388e+001
1.630426e+003,1.376001e+001
1.631390e+003,1.342102e+001
1.632354e+003,1.322095e+001
1.633319e+003,1.304144e+001
1.634283e+003,1.361227e+001
1.635247e+003,1.574121e+001
1.636211e+003,1.804855e+001
1.637176e+003,1.756772e+001
1.638140e+003,1.460989e+001
1.639104e+003,1.372868e+001
1.640068e+003,1.570746e+001
1.641033e+003,1.709723e+001
1.641997e+003,1.707948e+001
1.642961e+003,1.632674e+001
1.643925e+003,1.442546e+001
1.644890e+003,1.260835e+001
1.645854e+003,1.218947e+001
1.646818e+003,1.286633e+001
1.647782e+003,1.372617e+001
1.648747e+003,1.443602e+001
1.649711e+003,1.494962e+001
1.650675e+003,1.530861e+001
1.651639e+003,1.543356e+001
1.652604e+003,1.480942e+001
1.653568e+003,1.345248e+001
1.654532e+003,1.316832e+001
1.655496e+003,1.448055e+001
1.656460e+003,1.529518e+001
1.657425e+003,1.444212e+001
1.658389e+003,1.380894e+001
1.659353e+003,1.505624e+001
1.660317e+003,1.654089e+001
1.661281e+003,1.615538e+001
1.662246e+003,1.441512e+001
1.663210e+003,1.338698e+001
1.664174e+003,1.375725e+001
1.665138e+003,1.443678e+001
1.666103e+003,1.464034e+001
1.667067e+003,1.424110e+001
1.668031e+003,1.256656e+001
1.668995e+003,9.816055e+000
1.669960e+003,8.868530e+000
1.670924e+003,1.053703e+001
1.671888e+003,1.147339e+001
1.672852e+003,1.003705e+001
1.673817e+003,8.433929e+000
1.674781e+003,7.968826e+000
1.675745e+003,8.128311e+000
1.676709e+003,8.485504e+000
1.677674e+003,8.951050e+000
1.678638e+003,9.575546e+000
1.679602e+003,1.036302e+001
1.680566e+003,1.066241e+001
1.681531e+003,9.786453e+000
1.682495e+003,8.463547e+000
1.683459e+003,7.661423e+000
1.684423e+003,7.385757e+000
1.685387e+003,8.288391e+000
1.686352e+003,1.073763e+001
1.687316e+003,1.195998e+001
1.688280e+003,1.066550e+001
1.689244e+003,8.707092e+000
1.690208e+003,6.586441e+000
1.691173e+003,5.095093e+000
1.692137e+003,5.694275e+000
1.693101e+003,7.783478e+000
1.694065e+003,9.377243e+000
1.695030e+003,9.956360e+000
1.695994e+003,9.425873e+000
1.696958e+003,6.896530e+000
1.697922e+003,4.322937e+000
1.698887e+003,4.723648e+000
1.699851e+003,6.995834e+000
1.700815e+003,7.485291e+000
1.701779e+003,5.891464e+000
1.702744e+003,4.844604e+000
1.703708e+003,5.419556e+000
1.704672e+003,5.982224e+000
1.705636e+003,5.110001e+000
1.706601e+003,3.632202e+000
1.707565e+003,2.828217e+000
1.708529e+003,2.601791e+000
1.709493e+003,2.594574e+000
1.710458e+003,2.789932e+000
1.711422e+003,2.869247e+000
1.712386e+003,2.590775e+000
1.713350e+003,2.389313e+000
1.714314e+003,2.633331e+000
1.715279e+003,3.048447e+000
1.716243e+003,3.223160e+000
1.717207e+003,3.184982e+000
1.718171e+003,3.430054e+000
1.719135e+003,4.110901e+000
1.720100e+003,3.661621e+000
1.721064e+003,4.676208e-001
1.722028e+003,-2.744995e+000
1.722992e+003,-1.363693e+000
1.723957e+003,3.561981e+000
1.724921e+003,5.361496e+000
1.725885e+003,3.426117e+000
1.726849e+003,1.906555e+000
1.727814e+003,1.404434e+000
1.728778e+003,1.712112e+000
1.729742e+003,3.835693e+000
1.730706e+003,5.699753e+000
1.731671e+003,4.601181e+000
1.732635e+003,1.775940e+000
1.733599e+003,1.391754e-001
1.734563e+003,2.244873e-001
1.735528e+003,8.408508e-001
1.736492e+003,1.321381e+000
1.737456e+003,1.577515e+000
1.738420e+003,1.465103e+000
1.739385e+003,1.096649e+000
1.740349e+003,1.109909e+000
1.741313e+003,1.708771e+000
1.742277e+003,1.897018e+000
1.743241e+003,1.727890e+000
1.744206e+003,1.215729e+000
1.745170e+003,-1.916199e-001
1.746134e+003,-1.375473e+000
1.747098e+003,-1.839386e+000
1.748063e+003,-1.676041e+000
1.749027e+003,-5.132751e-001
1.749991e+003,1.048889e+000
1.750955e+003,1.447693e+000
1.751919e+003,3.278503e-001
1.752884e+003,-7.667999e-001
1.753848e+003,-5.450287e-001
1.754812e+003,1.578827e-001
1.755776e+003,-4.598999e-001
1.756741e+003,-2.255508e+000
1.757705e+003,-2.092819e+000
1.758669e+003,1.052277e+000
1.759633e+003,2.983505e+000
1.760598e+003,2.602005e+000
1.761562e+003,1.812653e+000
1.762526e+003,1.046875e+000
1.763490e+003,3.479156e-001
1.764455e+003,-2.390442e-001
1.765419e+003,-7.457733e-001
1.766383e+003,-1.523758e+000
1.767347e+003,-2.396881e+000
1.768312e+003,-2.096222e+000
1.769276e+003,1.617432e-003
1.770240e+003,1.521301e+000
1.771204e+003,-5.821075e-001
1.772168e+003,-4.252350e+000
1.773133e+003,-4.391083e+000
1.774097e+003,-1.466705e+000
1.775061e+003,-4.029694e-001
1.776025e+003,-2.013184e+000
1.776990e+003,-3.383545e+000
1.777954e+003,-3.383102e+000
1.778918e+003,-3.118515e+000
1.779882e+003,-3.873108e+000
1.780846e+003,-4.517105e+000
1.781811e+003,-2.791550e+000
1.782775e+003,3.540192e-001
1.783739e+003,1.500946e+000
1.784703e+003,2.993774e-002
1.785668e+003,-1.463058e+000
1.786632e+003,-2.429321e+000
1.787596e+003,-2.562592e+000
1.788560e+003,-4.252472e-001
1.789525e+003,1.989578e+000
1.790489e+003,1.229050e+000
1.791453e+003,-1.808273e+000
1.792417e+003,-3.776337e+000
1.793382e+003,-3.964203e+000
1.794346e+003,-3.560806e+000
1.795310e+003,-3.180450e+000
1.796274e+003,-2.702118e+000
1.797239e+003,-1.850525e+000
1.798203e+003,-8.653107e-001
1.799167e+003,-8.573608e-001
1.800131e+003,-2.223923e+000
1.801095e+003,-2.792252e+000
1.802060e+003,-2.166321e+000
1.803024e+003,-1.212769e+000
1.803988e+003,4.058380e-001
1.804952e+003,1.729355e+000
1.805917e+003,2.253677e+000
1.806881e+003,2.303665e+000
1.807845e+003,2.131729e+000
1.808809e+003,1.859360e+000
1.809773e+003,1.551575e+000
1.810738e+003,1.241302e+000
1.811702e+003,9.385834e-001
1.812666e+003,6.483002e-001
1.813630e+003,5.103912e-001
1.814595e+003,7.734528e-001
1.815559e+003,1.251373e+000
1.816523e+003,1.205124e+000
1.817487e+003,5.950470e-001
1.818452e+003,1.175842e-001
1.819416e+003,-3.567505e-002
1.820380e+003,-3.669586e-001
1.821344e+003,-1.410904e+000
1.822309e+003,-2.225784e+000
1.823273e+003,-1.923950e+000
1.824237e+003,-1.310425e+000
1.825201e+003,-1.350754e+000
1.826166e+003,-1.798431e+000
1.827130e+003,-1.771362e+000
1.828094e+003,-1.157990e+000
1.829058e+003,-8.237000e-001
1.830022e+003,-1.367355e+000
1.830987e+003,-1.795029e+000
1.831951e+003,-1.068024e+000
1.832915e+003,1.181793e-001
1.833879e+003,1.215652e+000
1.834844e+003,1.808792e+000
1.835808e+003,5.494690e-002
1.836772e+003,-3.834015e+000
1.837736e+003,-5.559784e+000
1.838700e+003,-3.215927e+000
1.839665e+003,1.351776e-001
1.840629e+003,1.916183e+000
1.841593e+003,2.364410e+000
1.842557e+003,1.772629e+000
1.843522e+003,1.592407e-001
1.844486e+003,-8.404541e-001
1.845450e+003,-9.349976e-001
1.846414e+003,-7.834473e-001
1.847379e+003,-3.071899e-001
1.848343e+003,9.257507e-002
1.849307e+003,1.522217e-001
1.850271e+003,3.227539e-001
1.851236e+003,1.497406e+000
1.852200e+003,2.696121e+000
1.853164e+003,1.890640e+000
1.854128e+003,-2.995148e-001
1.855093e+003,-8.996124e-001
1.856057e+003,1.074341e+000
1.857021e+003,3.178314e+000
1.857985e+003,3.389465e+000
1.858949e+003,2.299896e+000
1.859914e+003,4.901886e-001
1.860878e+003,-1.735504e+000
1.861842e+003,-2.711349e+000
1.862806e+003,-2.429489e+000
1.863771e+003,-1.576843e+000
1.864735e+003,-5.981445e-002
1.865699e+003,9.725037e-001
1.866663e+003,9.857941e-001
1.867627e+003,5.259705e-001
1.868592e+003,-5.076447e-001
1.869556e+003,-1.440506e+000
1.870520e+003,-3.827972e-001
1.871484e+003,2.206345e+000
1.872449e+003,3.124115e+000
1.873413e+003,1.734863e+000
1.874377e+003,7.082672e-001
1.875341e+003,6.753998e-001
1.876306e+003,1.021469e+000
1.877270e+003,1.862000e+000
1.878234e+003,2.487854e+000
1.879198e+003,1.994965e+000
1.880163e+003,9.009705e-001
1.881127e+003,1.636505e-001
1.882091e+003,-8.155823e-002
1.883055e+003,-2.135925e-001
1.884020e+003,-3.898926e-001
1.884984e+003,-3.099670e-001
1.885948e+003,3.289185e-001
1.886912e+003,1.049149e+000
1.887876e+003,8.262634e-001
1.888841e+003,-2.305756e-001
1.889805e+003,-8.329773e-001
1.890769e+003,-9.041595e-001
1.891733e+003,-9.232635e-001
1.892698e+003,-9.426270e-001
1.893662e+003,-1.015030e+000
1.894626e+003,-1.166168e+000
1.895590e+003,-1.317078e+000
1.896554e+003,-1.322052e+000
1.897519e+003,-1.296371e+000
1.898483e+003,-1.648239e+000
1.899447e+003,-2.184402e+000
1.900411e+003,-1.987076e+000
1.901376e+003,-8.463745e-001
1.902340e+003,3.343353e-001
1.903304e+003,1.651276e+000
1.904268e+003,2.221970e+000
1.905233e+003,7.255707e-001
1.906197e+003,-9.863281e-001
1.907161e+003,-5.939484e-001
1.908125e+003,8.094025e-001
1.909090e+003,9.699707e-001
1.910054e+003,-1.317596e-001
1.911018e+003,-1.220932e+000
1.911982e+003,-1.765320e+000
1.912947e+003,-1.833878e+000
1.913911e+003,-1.497940e+000
1.914875e+003,-7.247772e-001
1.915839e+003,6.336975e-001
1.916803e+003,2.220459e+000
1.917768e+003,2.363327e+000
1.918732e+003,8.798523e-001
1.919696e+003,-7.251587e-001
1.920660e+003,-3.012100e+000
1.921625e+003,-3.510559e+000
1.922589e+003,-3.080444e-001
1.923553e+003,2.436783e+000
1.924517e+003,1.880234e+000
1.925481e+003,5.132446e-001
1.926446e+003,6.173401e-001
1.927410e+003,1.467514e+000
1.928374e+003,1.510513e+000
1.929338e+003,6.480560e-001
1.930303e+003,-2.789001e-001
1.931267e+003,-1.208893e+000
1.932231e+003,-1.417419e+000
1.933195e+003,-1.987457e-001
1.934160e+003,1.267838e+000
1.935124e+003,2.223190e+000
1.936088e+003,2.824905e+000
1.937052e+003,3.654938e+000
1.938017e+003,4.292847e+000
1.938981e+003,3.324936e+000
1.939945e+003,9.753571e-001
1.940909e+003,-7.791443e-001
1.941874e+003,-1.057220e+000
1.942838e+003,-6.686401e-001
1.943802e+003,-3.025818e-001
1.944766e+003,2.061310e-001
1.945730e+003,1.261368e+000
1.946695e+003,2.619614e+000
1.947659e+003,2.262741e+000
1.948623e+003,-9.881592e-002
1.949587e+003,-8.692322e-001
1.950552e+003,8.419952e-001
1.951516e+003,2.196884e+000
1.952480e+003,2.319305e+000
1.953444e+003,1.697342e+000
1.954408e+003,5.563354e-002
1.955373e+003,-1.617691e+000
1.956337e+003,-1.541489e+000
1.957301e+003,-2.190247e-001
1.958265e+003,2.051849e-001
1.959230e+003,-4.820404e-001
1.960194e+003,-5.386353e-001
1.961158e+003,9.647675e-001
1.962122e+003,1.847946e+000
1.963087e+003,1.197754e+000
1.964051e+003,2.513428e-001
1.965015e+003,-5.589142e-001
1.965979e+003,-9.640045e-001
1.966944e+003,-4.430389e-001
1.967908e+003,3.910980e-001
1.968872e+003,3.463287e-001
1.969836e+003,-5.014038e-001
1.970801e+003,-9.635468e-001
1.971765e+003,-5.465698e-001
1.972729e+003,4.031372e-002
1.973693e+003,1.778259e-001
1.974657e+003,1.955109e-001
1.975622e+003,4.981232e-001
1.976586e+003,1.058884e+000
1.977550e+003,2.068329e+000
1.978514e+003,3.393967e+000
1.979479e+003,4.320236e+000
1.980443e+003,4.695038e+000
1.981407e+003,3.920013e+000
1.982371e+003,1.693039e+000
1.983335e+003,4.221649e-001
1.984300e+003,2.109940e+000
1.985264e+003,4.551239e+000
1.986228e+003,4.326736e+000
1.987192e+003,1.987976e+000
1.988157e+003,3.755341e-001
1.989121e+003,-4.500275e-001
1.990085e+003,-6.597595e-001
1.991049e+003,3.097687e-001
1.992014e+003,8.282776e-001
1.992978e+003,4.344025e-001
1.993942e+003,-1.428528e-001
1.994906e+003,-1.329071e+000
1.995871e+003,-1.921295e+000
1.996835e+003,-5.123596e-001
1.997799e+003,1.778702e+000
1.998763e+003,3.561203e+000
1.999728e+003,4.597839e+000
