5.003444e+002,4.478551e+001
5.013087e+002,4.327426e+001
5.022729e+002,4.323912e+001
5.032371e+002,4.403331e+001
5.042014e+002,4.252953e+001
5.051656e+002,3.919113e+001
5.061298e+002,3.639481e+001
5.070941e+002,3.642960e+001
5.080583e+002,4.009499e+001
5.090225e+002,4.158371e+001
5.099868e+002,4.015782e+001
5.109510e+002,3.812164e+001
5.119152e+002,3.642184e+001
5.128795e+002,3.511197e+001
5.138437e+002,3.429485e+001
5.148079e+002,3.424313e+001
5.157722e+002,3.451292e+001
5.167364e+002,3.518283e+001
5.177006e+002,3.603699e+001
5.186649e+002,3.653882e+001
5.196291e+002,3.608449e+001
5.205933e+002,3.505313e+001
5.215576e+002,3.332495e+001
5.225218e+002,3.097906e+001
5.234860e+002,2.860954e+001
5.244503e+002,2.739835e+001
5.254145e+002,2.790979e+001
5.263787e+002,2.867871e+001
5.273430e+002,3.002730e+001
5.283072e+002,3.142458e+001
5.292714e+002,3.208566e+001
5.302357e+002,3.161320e+001
5.311999e+002,3.070593e+001
5.321641e+002,2.918724e+001
5.331284e+002,2.782961e+001
5.340926e+002,2.733611e+001
5.350568e+002,2.796379e+001
5.360211e+002,2.847197e+001
5.369853e+002,2.755479e+001
5.379495e+002,2.632809e+001
5.389138e+002,2.563466e+001
5.398780e+002,2.578629e+001
5.408422e+002,2.650497e+001
5.418065e+002,2.737231e+001
5.427707e+002,2.828738e+001
5.437349e+002,2.819496e+001
5.446992e+002,2.658192e+001
5.456634e+002,2.386972e+001
5.466276e+002,2.155418e+001
5.475919e+002,1.919017e+001
5.485561e+002,1.814212e+001
5.495203e+002,1.928625e+001
5.504846e+002,2.138727e+001
5.514488e+002,2.271213e+001
5.524130e+002,2.246361e+001
5.533773e+002,2.201540e+001
5.543415e+002,2.246288e+001
5.553057e+002,2.298680e+001
5.562700e+002,2.244073e+001
5.572342e+002,2.012732e+001
5.581984e+002,1.722173e+001
5.591627e+002,1.717792e+001
5.601269e+002,1.889664e+001
5.610911e+002,1.992087e+001
5.620554e+002,1.891522e+001
5.630196e+002,1.610402e+001
5.639838e+002,1.389847e+001
5.649481e+002,1.214658e+001
5.659123e+002,1.119992e+001
5.668765e+002,1.170949e+001
5.678408e+002,1.325989e+001
5.688050e+002,1.452963e+001
5.697692e+002,1.522018e+001
5.707335e+002,1.509348e+001
5.716977e+002,1.349500e+001
5.726619e+002,1.138959e+001
5.736262e+002,1.003915e+001
5.745904e+002,1.038274e+001
5.755546e+002,1.157640e+001
5.765189e+002,1.236201e+001
5.774831e+002,1.268724e+001
5.784473e+002,1.251106e+001
5.794116e+002,1.185539e+001
5.803758e+002,1.083455e+001
5.813400e+002,9.944092e+000
5.823043e+002,9.045227e+000
5.832685e+002,8.126511e+000
5.842327e+002,6.844696e+000
5.851970e+002,5.503006e+000
5.861612e+002,5.656006e+000
5.871254e+002,9.688614e+000
5.880897e+002,1.272540e+001
5.890539e+002,1.365959e+001
5.900181e+002,1.294757e+001
5.909824e+002,1.142401e+001
5.919466e+002,9.360275e+000
5.929108e+002,7.257492e+000
5.938751e+002,5.101227e+000
5.948393e+002,3.327927e+000
5.958035e+002,2.878342e+000
5.967678e+002,4.418091e+000
5.977320e+002,7.570389e+000
5.986962e+002,9.061752e+000
5.996605e+002,8.907684e+000
6.006247e+002,8.194717e+000
6.015889e+002,7.200409e+000
6.025532e+002,5.972870e+000
6.035174e+002,4.994125e+000
6.044816e+002,3.468323e+000
6.054459e+002,3.262009e+000
6.064101e+002,5.897812e+000
6.073743e+002,9.842911e+000
6.083386e+002,1.240836e+001
6.093028e+002,1.198392e+001
6.102670e+002,1.022580e+001
6.112313e+002,7.864685e+000
6.121955e+002,5.526184e+000
6.131597e+002,4.050903e+000
6.141240e+002,3.999863e+000
6.150882e+002,5.014984e+000
6.160524e+002,5.847702e+000
6.170167e+002,6.577911e+000
6.179809e+002,6.964172e+000
6.189451e+002,6.728027e+000
6.199094e+002,5.922424e+000
6.208736e+002,5.363007e+000
6.218378e+002,5.804672e+000
6.228021e+002,5.826187e+000
6.237663e+002,4.699707e+000
6.247305e+002,3.266281e+000
6.256948e+002,2.976593e+000
6.266590e+002,4.817413e+000
6.276232e+002,6.630081e+000
6.285875e+002,7.537445e+000
6.295517e+002,7.680298e+000
6.305159e+002,6.801346e+000
6.314802e+002,4.837601e+000
6.324444e+002,2.521439e+000
6.334086e+002,2.467896e+000
6.343729e+002,4.011383e+000
6.353371e+002,5.300049e+000
6.363013e+002,5.648102e+000
6.372656e+002,5.251114e+000
6.382298e+002,4.896515e+000
6.391940e+002,4.620605e+000
6.401583e+002,4.259979e+000
6.411225e+002,4.084839e+000
6.420867e+002,3.914978e+000
6.430510e+002,3.349884e+000
6.440152e+002,2.005005e+000
6.449794e+002,8.401184e-001
6.459437e+002,3.652954e-001
6.469079e+002,2.193298e-001
6.478721e+002,2.876892e-001
6.488364e+002,4.855652e-001
6.498006e+002,6.580963e-001
6.507648e+002,2.923584e-001
6.517291e+002,-3.591156e-001
6.526933e+002,-4.981232e-001
6.536575e+002,4.611206e-002
6.546218e+002,8.636932e-001
6.555860e+002,1.144379e+000
6.565502e+002,3.576050e-001
6.575145e+002,1.746063e-001
6.584787e+002,1.171524e+000
6.594429e+002,2.248505e+000
6.604072e+002,2.540558e+000
6.613714e+002,1.887665e+000
6.623356e+002,9.507141e-001
6.632999e+002,-6.638184e-001
6.642641e+002,-2.011993e+000
6.652283e+002,-2.289139e+000
6.661926e+002,-1.574646e+000
6.671568e+002,-6.752167e-001
6.681210e+002,-7.216949e-001
6.690853e+002,-1.218506e+000
6.700495e+002,-3.919830e-001
6.710137e+002,1.659256e+000
6.719780e+002,3.179428e+000
6.729422e+002,2.079361e+000
6.739064e+002,-2.543335e+000
6.748707e+002,-4.442337e+000
6.758349e+002,-2.309586e+000
6.767991e+002,1.100769e-001
6.777634e+002,1.654358e+000
6.787276e+002,2.347488e+000
6.796918e+002,2.372650e+000
6.806561e+002,8.404541e-001
6.816203e+002,-5.487671e-001
6.825845e+002,-1.264664e+000
6.835488e+002,-1.350891e+000
6.845130e+002,-7.878876e-001
6.854772e+002,5.660858e-001
6.864415e+002,2.085907e+000
6.874057e+002,2.050339e+000
6.883699e+002,8.447418e-001
6.893342e+002,-3.739166e-001
6.902984e+002,-9.319458e-001
6.912626e+002,-9.077606e-001
6.922269e+002,-1.075821e+000
6.931911e+002,-1.707047e+000
6.941553e+002,-1.855164e+000
6.951196e+002,-1.328171e+000
6.960838e+002,-4.923248e-001
6.970480e+002,1.944580e-001
6.980123e+002,7.326508e-001
6.989765e+002,9.859467e-001
6.999407e+002,9.393768e-001
7.009050e+002,6.277466e-001
7.018692e+002,-9.690857e-002
7.028334e+002,-1.206345e+000
7.037977e+002,-2.322220e+000
7.047619e+002,-2.853455e+000
7.057261e+002,-2.764984e+000
7.066904e+002,-2.029755e+000
7.076546e+002,-6.469421e-001
7.086188e+002,1.143311e+000
7.095831e+002,3.031326e+000
7.105473e+002,5.325836e+000
7.115115e+002,6.331070e+000
7.124758e+002,5.658722e+000
7.134400e+002,4.337601e+000
7.144042e+002,2.778915e+000
7.153685e+002,1.085587e+000
7.163327e+002,-2.929688e-001
7.172969e+002,-7.208252e-001
7.182612e+002,-1.151764e+000
7.192254e+002,-2.266205e+000
7.201896e+002,-3.729248e+000
7.211539e+002,-4.809128e+000
7.221181e+002,-4.880905e+000
7.230823e+002,-4.134705e+000
7.240466e+002,-2.888702e+000
7.250108e+002,-1.250290e+000
7.259750e+002,-1.313629e-001
7.269393e+002,-2.270813e-001
7.279035e+002,-1.458923e+000
7.288677e+002,-2.296295e+000
7.298320e+002,-1.870422e+000
7.307962e+002,-1.726837e+000
7.317604e+002,-2.595398e+000
7.327247e+002,-3.526657e+000
7.336889e+002,-3.056534e+000
7.346531e+002,-4.946747e-001
7.356174e+002,1.738281e+000
7.365816e+002,2.622009e+000
7.375458e+002,2.835983e+000
7.385101e+002,2.584747e+000
7.394743e+002,2.092575e+000
7.404385e+002,1.760239e+000
7.414028e+002,2.342957e+000
7.423670e+002,3.323486e+000
7.433312e+002,3.148621e+000
7.442955e+002,1.749542e+000
7.452597e+002,3.899841e-001
7.462239e+002,5.784149e-001
7.471882e+002,2.846878e+000
7.481524e+002,4.135788e+000
7.491166e+002,3.675079e+000
7.500809e+002,3.019318e+000
7.510451e+002,2.850586e+000
7.520093e+002,3.005600e+000
7.529736e+002,2.707611e+000
7.539378e+002,1.315720e+000
7.549020e+002,9.948730e-002
7.558663e+002,-1.727600e-001
7.568306e+002,1.762543e-001
7.577948e+002,7.173004e-001
7.587590e+002,1.144867e+000
7.597233e+002,1.439697e+000
7.606875e+002,1.813232e+000
7.616517e+002,2.309677e+000
7.626160e+002,2.491379e+000
7.635802e+002,2.191849e+000
7.645444e+002,1.615875e+000
7.655087e+002,1.084412e+000
7.664729e+002,2.720337e-001
7.674371e+002,2.600861e-001
7.684014e+002,2.026154e+000
7.693656e+002,3.616821e+000
7.703298e+002,3.456497e+000
7.712941e+002,1.557251e+000
7.722583e+002,-8.219910e-002
7.732225e+002,3.208923e-001
7.741868e+002,1.275070e+000
7.751510e+002,1.634628e+000
7.761152e+002,1.517593e+000
7.770795e+002,1.435379e+000
7.780437e+002,1.826736e+000
7.790079e+002,2.597260e+000
7.799722e+002,3.224884e+000
7.809364e+002,3.729187e+000
7.819006e+002,4.089432e+000
7.828649e+002,4.345337e+000
7.838291e+002,4.553467e+000
7.847933e+002,4.716629e+000
7.857576e+002,4.582886e+000
7.867218e+002,4.540268e+000
7.876860e+002,4.979782e+000
7.886503e+002,5.488861e+000
7.896145e+002,5.797180e+000
7.905787e+002,5.804016e+000
7.915430e+002,5.435059e+000
7.925072e+002,4.022644e+000
7.934714e+002,2.377838e+000
7.944357e+002,1.524658e+000
7.953999e+002,1.575546e+000
7.963641e+002,2.176666e+000
7.973284e+002,2.914825e+000
7.982926e+002,3.800201e+000
7.992568e+002,4.615189e+000
8.002211e+002,5.264191e+000
8.011853e+002,5.596436e+000
8.021495e+002,5.876999e+000
8.031138e+002,6.104523e+000
8.040780e+002,5.731827e+000
8.050422e+002,3.917648e+000
8.060065e+002,2.405792e+000
8.069707e+002,1.573120e+000
8.079349e+002,1.244583e+000
8.088992e+002,1.415421e+000
8.098634e+002,2.060104e+000
8.108276e+002,2.925812e+000
8.117919e+002,3.579437e+000
8.127561e+002,3.965591e+000
8.137203e+002,4.422638e+000
8.146846e+002,5.078079e+000
8.156488e+002,5.516876e+000
8.166130e+002,5.031876e+000
8.175773e+002,3.226730e+000
8.185415e+002,2.765488e+000
8.195057e+002,4.640137e+000
8.204700e+002,6.179794e+000
8.214342e+002,6.344284e+000
8.223984e+002,5.498764e+000
8.233627e+002,4.671478e+000
8.243269e+002,4.151413e+000
8.252911e+002,3.906876e+000
8.262554e+002,3.895828e+000
8.272196e+002,4.044388e+000
8.281838e+002,4.186966e+000
8.291481e+002,4.307312e+000
8.301123e+002,4.701263e+000
8.310765e+002,6.134918e+000
8.320408e+002,8.343506e+000
8.330050e+002,8.903824e+000
8.339692e+002,7.376129e+000
8.349335e+002,5.247635e+000
8.358977e+002,4.133301e+000
8.368619e+002,4.290588e+000
8.378262e+002,3.935684e+000
8.387904e+002,1.630768e+000
8.397546e+002,2.572784e-001
8.407189e+002,1.142242e+000
8.416831e+002,3.320313e+000
8.426473e+002,5.131027e+000
8.436116e+002,5.869492e+000
8.445758e+002,6.029114e+000
8.455400e+002,5.852600e+000
8.465043e+002,5.397812e+000
8.474685e+002,4.680054e+000
8.484327e+002,3.871216e+000
8.493970e+002,3.398346e+000
8.503612e+002,3.884079e+000
8.513254e+002,5.497528e+000
8.522897e+002,6.610687e+000
8.532539e+002,6.721558e+000
8.542181e+002,6.907791e+000
8.551824e+002,8.168076e+000
8.561466e+002,1.041794e+001
8.571108e+002,1.209259e+001
8.580751e+002,1.205058e+001
8.590393e+002,1.194197e+001
8.600035e+002,1.253748e+001
8.609678e+002,1.340802e+001
8.619320e+002,1.407875e+001
8.628962e+002,1.432361e+001
8.638605e+002,1.417772e+001
8.648247e+002,1.349728e+001
8.657889e+002,1.251207e+001
8.667532e+002,1.173859e+001
8.677174e+002,1.124767e+001
8.686816e+002,1.097499e+001
8.696459e+002,1.086110e+001
8.706101e+002,1.094041e+001
8.715743e+002,1.136098e+001
8.725386e+002,1.259204e+001
8.735028e+002,1.356248e+001
8.744670e+002,1.372342e+001
8.754313e+002,1.336446e+001
8.763955e+002,1.307547e+001
8.773597e+002,1.302055e+001
8.783240e+002,1.336301e+001
8.792882e+002,1.415152e+001
8.802524e+002,1.527620e+001
8.812167e+002,1.721082e+001
8.821809e+002,1.965234e+001
8.831451e+002,2.119316e+001
8.841094e+002,1.982619e+001
8.850736e+002,1.588757e+001
8.860378e+002,1.530301e+001
8.870021e+002,1.872479e+001
8.879663e+002,2.236079e+001
8.889305e+002,2.417534e+001
8.898948e+002,2.441579e+001
8.908590e+002,2.447644e+001
8.918232e+002,2.453577e+001
8.927875e+002,2.438609e+001
8.937517e+002,2.359573e+001
8.947159e+002,2.288858e+001
8.956802e+002,2.296414e+001
8.966444e+002,2.381773e+001
8.976086e+002,2.461113e+001
8.985729e+002,2.446667e+001
8.995371e+002,2.400014e+001
9.005013e+002,2.417514e+001
9.014656e+002,2.496555e+001
9.024298e+002,2.585063e+001
9.033940e+002,2.633661e+001
9.043583e+002,2.647696e+001
9.053225e+002,2.736964e+001
9.062867e+002,3.073497e+001
9.072510e+002,3.235089e+001
9.082152e+002,3.071225e+001
9.091794e+002,2.844447e+001
9.101437e+002,2.835271e+001
9.111079e+002,3.088921e+001
9.120721e+002,3.331017e+001
9.130364e+002,3.426294e+001
9.140006e+002,3.412961e+001
9.149648e+002,3.264186e+001
9.159291e+002,3.040997e+001
9.168933e+002,2.827669e+001
9.178575e+002,2.680153e+001
9.188218e+002,2.598065e+001
9.197860e+002,2.641005e+001
9.207502e+002,2.813432e+001
9.217145e+002,2.832748e+001
9.226787e+002,2.548724e+001
9.236429e+002,2.204448e+001
9.246072e+002,2.154257e+001
9.255714e+002,2.465265e+001
9.265356e+002,2.672154e+001
9.274999e+002,2.563565e+001
9.284641e+002,2.477855e+001
9.294283e+002,2.610207e+001
9.303926e+002,2.839136e+001
9.313568e+002,2.900310e+001
9.323210e+002,2.644627e+001
9.332853e+002,2.315733e+001
9.342495e+002,2.381769e+001
9.352137e+002,2.623990e+001
9.361780e+002,2.713358e+001
9.371422e+002,2.586757e+001
9.381064e+002,2.388020e+001
9.390707e+002,2.300838e+001
9.400349e+002,2.334564e+001
9.409991e+002,2.341446e+001
9.419634e+002,2.289020e+001
9.429276e+002,2.249782e+001
9.438918e+002,2.254446e+001
9.448561e+002,2.284357e+001
9.458203e+002,2.326759e+001
9.467845e+002,2.398813e+001
9.477488e+002,2.395572e+001
9.487130e+002,2.125116e+001
9.496772e+002,1.823271e+001
9.506415e+002,1.665364e+001
9.516057e+002,1.667607e+001
9.525699e+002,1.779695e+001
9.535342e+002,1.955821e+001
9.544984e+002,2.167496e+001
9.554626e+002,2.168344e+001
9.564269e+002,1.931808e+001
9.573911e+002,1.740833e+001
9.583553e+002,1.701770e+001
9.593196e+002,1.730994e+001
9.602838e+002,1.671545e+001
9.612480e+002,1.468924e+001
9.622123e+002,1.373041e+001
9.631765e+002,1.619087e+001
9.641407e+002,1.829903e+001
9.651050e+002,1.781306e+001
9.660692e+002,1.553317e+001
9.670334e+002,1.354543e+001
9.679977e+002,1.319806e+001
9.689619e+002,1.382350e+001
9.699261e+002,1.363503e+001
9.708904e+002,1.300143e+001
9.718546e+002,1.347034e+001
9.728188e+002,1.547183e+001
9.737831e+002,1.812221e+001
9.747473e+002,2.053484e+001
9.757115e+002,2.290871e+001
9.766758e+002,2.407155e+001
9.776400e+002,2.330432e+001
9.786042e+002,2.236411e+001
9.795685e+002,2.152126e+001
9.805327e+002,2.065604e+001
9.814969e+002,1.964941e+001
9.824612e+002,1.852840e+001
9.834254e+002,1.731129e+001
9.843896e+002,1.566837e+001
9.853539e+002,1.396605e+001
9.863181e+002,1.243851e+001
9.872823e+002,1.118033e+001
9.882466e+002,1.067709e+001
9.892108e+002,1.148289e+001
9.901750e+002,1.343294e+001
9.911393e+002,1.432401e+001
9.921035e+002,1.286136e+001
9.930677e+002,1.186320e+001
9.940320e+002,1.170264e+001
9.949962e+002,1.202020e+001
9.959604e+002,1.260258e+001
9.969247e+002,1.342241e+001
9.978889e+002,1.424280e+001
9.988531e+002,1.494386e+001
9.998174e+002,1.531502e+001
1.000782e+003,1.487959e+001
1.001746e+003,1.434190e+001
1.002710e+003,1.498232e+001
1.003674e+003,1.715907e+001
1.004639e+003,1.959436e+001
1.005603e+003,2.002702e+001
1.006567e+003,1.817387e+001
1.007531e+003,1.589894e+001
1.008495e+003,1.251752e+001
1.009460e+003,1.005351e+001
1.010424e+003,1.049765e+001
1.011388e+003,1.300591e+001
1.012352e+003,1.394646e+001
1.013317e+003,1.202214e+001
1.014281e+003,1.013112e+001
1.015245e+003,9.209946e+000
1.016209e+003,8.544449e+000
1.017174e+003,7.572006e+000
1.018138e+003,6.341599e+000
1.019102e+003,5.398331e+000
1.020066e+003,5.265717e+000
1.021031e+003,5.590836e+000
1.021995e+003,4.953506e+000
1.022959e+003,3.513794e+000
1.023923e+003,2.627655e+000
1.024887e+003,2.838440e+000
1.025852e+003,3.582047e+000
1.026816e+003,4.167740e+000
1.027780e+003,4.814377e+000
1.028744e+003,4.577072e+000
1.029709e+003,2.025772e+000
1.030673e+003,1.402893e-001
1.031637e+003,2.112427e-001
1.032601e+003,1.260910e+000
1.033566e+003,1.860870e+000
1.034530e+003,1.544373e+000
1.035494e+003,1.179199e+000
1.036458e+003,1.883545e+000
1.037422e+003,2.977966e+000
1.038387e+003,3.177841e+000
1.039351e+003,2.534897e+000
1.040315e+003,2.105835e+000
1.041279e+003,2.754929e+000
1.042244e+003,4.253662e+000
1.043208e+003,5.331680e+000
1.044172e+003,6.142319e+000
1.045136e+003,5.911362e+000
1.046101e+003,3.590836e+000
1.047065e+003,1.414078e+000
1.048029e+003,9.909821e-001
1.048993e+003,1.989914e+000
1.049958e+003,2.864044e+000
1.050922e+003,2.930878e+000
1.051886e+003,2.740158e+000
1.052850e+003,2.665558e+000
1.053814e+003,2.752563e+000
1.054779e+003,3.274460e+000
1.055743e+003,4.166489e+000
1.056707e+003,4.781281e+000
1.057671e+003,4.308441e+000
1.058636e+003,2.720459e+000
1.059600e+003,1.608353e+000
1.060564e+003,1.551697e+000
1.061528e+003,1.319122e+000
1.062493e+003,-1.206512e-001
1.063457e+003,-1.405045e+000
1.064421e+003,-4.049530e-001
1.065385e+003,3.062286e+000
1.066349e+003,5.583069e+000
1.067314e+003,4.861313e+000
1.068278e+003,3.286972e+000
1.069242e+003,2.100800e+000
1.070206e+003,1.489716e+000
1.071171e+003,1.880463e+000
1.072135e+003,3.254456e+000
1.073099e+003,4.650162e+000
1.074063e+003,4.482529e+000
1.075028e+003,2.607330e+000
1.075992e+003,1.169769e+000
1.076956e+003,1.399841e-001
1.077920e+003,-6.654053e-001
1.078885e+003,-1.472687e+000
1.079849e+003,-1.936310e+000
1.080813e+003,-1.206619e+000
1.081777e+003,1.135437e+000
1.082741e+003,3.034424e+000
1.083706e+003,3.048706e+000
1.084670e+003,2.466476e+000
1.085634e+003,1.680618e+000
1.086598e+003,8.872986e-001
1.087563e+003,2.650757e-001
1.088527e+003,-4.066467e-002
1.089491e+003,4.153442e-002
1.090455e+003,6.269989e-001
1.091420e+003,1.720078e+000
1.092384e+003,1.863861e+000
1.093348e+003,5.113678e-001
1.094312e+003,-8.968658e-001
1.095276e+003,-1.481247e+000
1.096241e+003,-1.381012e+000
1.097205e+003,-1.104416e+000
1.098169e+003,-6.565094e-001
1.099133e+003,-3.830261e-001
1.100098e+003,-3.892212e-001
1.101062e+003,-5.332489e-001
1.102026e+003,-1.038208e+000
1.102990e+003,-1.567780e+000
1.103955e+003,-1.343109e+000
1.104919e+003,7.208252e-002
1.105883e+003,1.923767e+000
1.106847e+003,2.582352e+000
1.107812e+003,2.001526e+000
1.108776e+003,1.847580e+000
1.109740e+003,2.479874e+000
1.110704e+003,2.942139e+000
1.111668e+003,2.320770e+000
1.112633e+003,1.010803e+000
1.113597e+003,6.289520e-001
1.114561e+003,1.797867e+000
1.115525e+003,2.607178e+000
1.116490e+003,2.332123e+000
1.117454e+003,1.680283e+000
1.118418e+003,1.044647e+000
1.119382e+003,5.305634e-001
1.120347e+003,-8.430481e-002
1.121311e+003,-9.980316e-001
1.122275e+003,-1.704483e+000
1.123239e+003,-5.192719e-001
1.124203e+003,2.375320e+000
1.125168e+003,3.201721e+000
1.126132e+003,8.156433e-001
1.127096e+003,-1.308197e+000
1.128060e+003,-7.815552e-002
1.129025e+003,3.677353e+000
1.129989e+003,6.091156e+000
1.130953e+003,6.408539e+000
1.131917e+003,6.396255e+000
1.132882e+003,6.775070e+000
1.133846e+003,6.892929e+000
1.134810e+003,6.188202e+000
1.135774e+003,4.907761e+000
1.136739e+003,3.510849e+000
1.137703e+003,2.269638e+000
1.138667e+003,1.506317e+000
1.139631e+003,1.898773e+000
1.140595e+003,3.392151e+000
1.141560e+003,5.151840e+000
1.142524e+003,7.223022e+000
1.143488e+003,9.519836e+000
1.144452e+003,1.174939e+001
1.145417e+003,1.412077e+001
1.146381e+003,1.759059e+001
1.147345e+003,2.281927e+001
1.148309e+003,2.733144e+001
1.149274e+003,3.016942e+001
1.150238e+003,3.265729e+001
1.151202e+003,3.510893e+001
1.152166e+003,3.789479e+001
1.153130e+003,4.181183e+001
1.154095e+003,4.700284e+001
1.155059e+003,5.178328e+001
1.156023e+003,5.380675e+001
1.156987e+003,5.324596e+001
1.157952e+003,5.242569e+001
1.158916e+003,5.161693e+001
1.159880e+003,5.003210e+001
1.160844e+003,4.681908e+001
1.161809e+003,4.238423e+001
1.162773e+003,3.773708e+001
1.163737e+003,3.271494e+001
1.164701e+003,2.829056e+001
1.165666e+003,2.524940e+001
1.166630e+003,2.242444e+001
1.167594e+003,1.918738e+001
1.168558e+003,1.597162e+001
1.169522e+003,1.327586e+001
1.170487e+003,1.133624e+001
1.171451e+003,1.034795e+001
1.172415e+003,1.061887e+001
1.173379e+003,1.187340e+001
1.174344e+003,1.297043e+001
1.175308e+003,1.406224e+001
1.176272e+003,1.411832e+001
1.177236e+003,1.219930e+001
1.178201e+003,9.602798e+000
1.179165e+003,7.747772e+000
1.180129e+003,6.569260e+000
1.181093e+003,6.222809e+000
1.182057e+003,7.697037e+000
1.183022e+003,8.667725e+000
1.183986e+003,7.912918e+000
1.184950e+003,6.583939e+000
1.185914e+003,5.655258e+000
1.186879e+003,5.354156e+000
1.187843e+003,5.474747e+000
1.188807e+003,5.830566e+000
1.189771e+003,6.368271e+000
1.190736e+003,7.149307e+000
1.191700e+003,8.253815e+000
1.192664e+003,8.491058e+000
1.193628e+003,7.156357e+000
1.194593e+003,5.821625e+000
1.195557e+003,5.762558e+000
1.196521e+003,6.589355e+000
1.197485e+003,7.099731e+000
1.198449e+003,7.348648e+000
1.199414e+003,6.572983e+000
1.200378e+003,2.827591e+000
1.201342e+003,-5.861206e-001
1.202306e+003,-1.243896e+000
1.203271e+003,3.392029e-002
1.204235e+003,1.275818e+000
1.205199e+003,1.480942e+000
1.206163e+003,1.192429e+000
1.207128e+003,1.359009e+000
1.208092e+003,2.051361e+000
1.209056e+003,1.183334e+000
1.210020e+003,-2.192596e+000
1.210984e+003,-4.940353e+000
1.211949e+003,-5.740448e+000
1.212913e+003,-5.743103e+000
1.213877e+003,-6.360641e+000
1.214841e+003,-7.670456e+000
1.215806e+003,-9.042313e+000
1.216770e+003,-1.043025e+001
1.217734e+003,-1.153581e+001
1.218698e+003,-1.233954e+001
1.219663e+003,-1.277948e+001
1.220627e+003,-1.260185e+001
1.221591e+003,-1.189240e+001
1.222555e+003,-1.111462e+001
1.223520e+003,-1.067334e+001
1.224484e+003,-1.056039e+001
1.225448e+003,-1.088353e+001
1.226412e+003,-1.202541e+001
1.227376e+003,-1.277615e+001
1.228341e+003,-1.329974e+001
1.229305e+003,-1.332295e+001
1.230269e+003,-1.176686e+001
1.231233e+003,-9.865021e+000
1.232198e+003,-1.053307e+001
1.233162e+003,-1.464503e+001
1.234126e+003,-1.836806e+001
1.235090e+003,-1.880877e+001
1.236055e+003,-1.767448e+001
1.237019e+003,-1.657048e+001
1.237983e+003,-1.556531e+001
1.238947e+003,-1.435345e+001
1.239911e+003,-1.279222e+001
1.240876e+003,-1.183397e+001
1.241840e+003,-1.327827e+001
1.242804e+003,-1.739046e+001
1.243768e+003,-1.896352e+001
1.244733e+003,-1.506339e+001
1.245697e+003,-1.240807e+001
1.246661e+003,-1.252090e+001
1.247625e+003,-1.323508e+001
1.248590e+003,-1.290555e+001
1.249554e+003,-1.161327e+001
1.250518e+003,-1.019151e+001
1.251482e+003,-8.997665e+000
1.252447e+003,-8.357269e+000
1.253411e+003,-8.846893e+000
1.254375e+003,-1.000137e+001
1.255339e+003,-1.113947e+001
1.256303e+003,-1.214201e+001
1.257268e+003,-1.220676e+001
1.258232e+003,-1.066277e+001
1.259196e+003,-8.379913e+000
1.260160e+003,-6.961914e+000
1.261125e+003,-6.434616e+000
1.262089e+003,-6.273087e+000
1.263053e+003,-6.957535e+000
1.264017e+003,-7.495483e+000
1.264982e+003,-7.561813e+000
1.265946e+003,-7.399139e+000
1.266910e+003,-7.168732e+000
1.267874e+003,-6.951080e+000
1.268839e+003,-6.901398e+000
1.269803e+003,-7.130417e+000
1.270767e+003,-7.214935e+000
1.271731e+003,-5.944183e+000
1.272695e+003,-3.460419e+000
1.273660e+003,-3.354813e+000
1.274624e+003,-6.739822e+000
1.275588e+003,-1.005225e+001
1.276552e+003,-1.102441e+001
1.277517e+003,-1.070164e+001
1.278481e+003,-1.131721e+001
1.279445e+003,-1.312816e+001
1.280409e+003,-1.416451e+001
1.281374e+003,-1.334837e+001
1.282338e+003,-1.215511e+001
1.283302e+003,-1.110881e+001
1.284266e+003,-1.031027e+001
1.285230e+003,-9.972473e+000
1.286195e+003,-1.002274e+001
1.287159e+003,-1.002888e+001
1.288123e+003,-9.606964e+000
1.289087e+003,-8.932281e+000
1.290052e+003,-8.675217e+000
1.291016e+003,-8.989502e+000
1.291980e+003,-9.427322e+000
1.292944e+003,-1.043652e+001
1.293909e+003,-1.111040e+001
1.294873e+003,-1.071815e+001
1.295837e+003,-9.897095e+000
1.296801e+003,-9.524658e+000
1.297766e+003,-9.719589e+000
1.298730e+003,-1.015619e+001
1.299694e+003,-1.077142e+001
1.300658e+003,-1.148361e+001
1.301622e+003,-1.248210e+001
1.302587e+003,-1.335698e+001
1.303551e+003,-1.324580e+001
1.304515e+003,-1.207146e+001
1.305479e+003,-1.085281e+001
1.306444e+003,-1.045518e+001
1.307408e+003,-1.066103e+001
1.308372e+003,-1.059752e+001
1.309336e+003,-1.003052e+001
1.310301e+003,-9.947845e+000
1.311265e+003,-1.087173e+001
1.312229e+003,-1.161006e+001
1.313193e+003,-1.174269e+001
1.314157e+003,-1.159555e+001
1.315122e+003,-1.142769e+001
1.316086e+003,-1.137375e+001
1.317050e+003,-1.161290e+001
1.318014e+003,-1.226326e+001
1.318979e+003,-1.296336e+001
1.319943e+003,-1.299968e+001
1.320907e+003,-1.246333e+001
1.321871e+003,-1.251180e+001
1.322836e+003,-1.348734e+001
1.323800e+003,-1.429620e+001
1.324764e+003,-1.441890e+001
1.325728e+003,-1.396111e+001
1.326693e+003,-1.295439e+001
1.327657e+003,-1.142529e+001
1.328621e+003,-1.024570e+001
1.329585e+003,-9.653595e+000
1.330549e+003,-9.058289e+000
1.331514e+003,-7.874390e+000
1.332478e+003,-7.005051e+000
1.333442e+003,-7.776276e+000
1.334406e+003,-9.655457e+000
1.335371e+003,-1.057530e+001
1.336335e+003,-9.340836e+000
1.337299e+003,-7.383026e+000
1.338263e+003,-7.536072e+000
1.339228e+003,-1.015793e+001
1.340192e+003,-1.148734e+001
1.341156e+003,-1.026837e+001
1.342120e+003,-9.708908e+000
1.343084e+003,-1.081822e+001
1.344049e+003,-1.235684e+001
1.345013e+003,-1.360972e+001
1.345977e+003,-1.428675e+001
1.346941e+003,-1.386417e+001
1.347906e+003,-1.210801e+001
1.348870e+003,-1.003036e+001
1.349834e+003,-8.375015e+000
1.350798e+003,-7.217834e+000
1.351763e+003,-6.422424e+000
1.352727e+003,-6.015457e+000
1.353691e+003,-6.406036e+000
1.354655e+003,-7.987808e+000
1.355620e+003,-9.519608e+000
1.356584e+003,-8.968582e+000
1.357548e+003,-6.718262e+000
1.358512e+003,-6.787399e+000
1.359476e+003,-1.078528e+001
1.360441e+003,-1.344792e+001
1.361405e+003,-1.231008e+001
1.362369e+003,-1.072862e+001
1.363333e+003,-1.032240e+001
1.364298e+003,-1.050439e+001
1.365262e+003,-1.028902e+001
1.366226e+003,-9.420486e+000
1.367190e+003,-8.134048e+000
1.368155e+003,-6.602570e+000
1.369119e+003,-5.292755e+000
1.370083e+003,-5.753723e+000
1.371047e+003,-8.529556e+000
1.372011e+003,-1.076823e+001
1.372976e+003,-1.318941e+001
1.373940e+003,-1.431981e+001
1.374904e+003,-1.282010e+001
1.375868e+003,-1.019672e+001
1.376833e+003,-8.102158e+000
1.377797e+003,-6.795502e+000
1.378761e+003,-6.316635e+000
1.379725e+003,-6.882080e+000
1.380690e+003,-7.580460e+000
1.381654e+003,-7.284134e+000
1.382618e+003,-6.601166e+000
1.383582e+003,-6.482681e+000
1.384547e+003,-6.887161e+000
1.385511e+003,-7.029587e+000
1.386475e+003,-6.474991e+000
1.387439e+003,-5.733658e+000
1.388403e+003,-5.572845e+000
1.389368e+003,-5.998123e+000
1.390332e+003,-6.485428e+000
1.391296e+003,-7.007477e+000
1.392260e+003,-7.534668e+000
1.393225e+003,-8.220413e+000
1.394189e+003,-8.774689e+000
1.395153e+003,-9.018402e+000
1.396117e+003,-9.019867e+000
1.397082e+003,-8.929459e+000
1.398046e+003,-8.749405e+000
1.399010e+003,-8.298965e+000
1.399974e+003,-7.446762e+000
1.400938e+003,-6.350281e+000
1.401903e+003,-5.233322e+000
1.402867e+003,-3.726013e+000
1.403831e+003,-3.227524e+000
1.404795e+003,-4.974808e+000
1.405760e+003,-6.193283e+000
1.406724e+003,-5.341949e+000
1.407688e+003,-4.101669e+000
1.408652e+003,-4.660919e+000
1.409617e+003,-6.698547e+000
1.410581e+003,-7.838150e+000
1.411545e+003,-7.024048e+000
1.412509e+003,-5.781021e+000
1.413474e+003,-5.634460e+000
1.414438e+003,-6.065933e+000
1.415402e+003,-5.981812e+000
1.416366e+003,-5.425217e+000
1.417330e+003,-5.182098e+000
1.418295e+003,-5.605042e+000
1.419259e+003,-6.249496e+000
1.420223e+003,-6.740097e+000
1.421187e+003,-7.091660e+000
1.422152e+003,-7.016571e+000
1.423116e+003,-6.141968e+000
1.424080e+003,-5.822556e+000
1.425044e+003,-7.567604e+000
1.426009e+003,-8.825455e+000
1.426973e+003,-8.095627e+000
1.427937e+003,-6.557816e+000
1.428901e+003,-5.711243e+000
1.429865e+003,-5.582031e+000
1.430830e+003,-5.036652e+000
1.431794e+003,-3.372009e+000
1.432758e+003,-1.373734e+000
1.433722e+003,-5.177612e-001
1.434687e+003,-7.675781e-001
1.435651e+003,-1.254898e+000
1.436615e+003,-2.710999e+000
1.437579e+003,-3.772675e+000
1.438544e+003,-4.011780e+000
1.439508e+003,-4.070221e+000
1.440472e+003,-4.435074e+000
1.441436e+003,-4.833466e+000
1.442401e+003,-4.663925e+000
1.443365e+003,-3.855576e+000
1.444329e+003,-3.017410e+000
1.445293e+003,-2.546707e+000
1.446257e+003,-2.355576e+000
1.447222e+003,-2.265564e+000
1.448186e+003,-2.348465e+000
1.449150e+003,-3.181107e+000
1.450114e+003,-5.190796e+000
1.451079e+003,-6.507385e+000
1.452043e+003,-5.663498e+000
1.453007e+003,-3.867889e+000
1.453971e+003,-2.770432e+000
1.454936e+003,-2.344879e+000
1.455900e+003,-1.895187e+000
1.456864e+003,-1.133652e+000
1.457828e+003,-7.165680e-001
1.458792e+003,-1.197891e+000
1.459757e+003,-2.137970e+000
1.460721e+003,-3.709610e+000
1.461685e+003,-5.315414e+000
1.462649e+003,-5.567192e+000
1.463614e+003,-4.208450e+000
1.464578e+003,-2.747589e+000
1.465542e+003,-2.563110e+000
1.466506e+003,-3.249481e+000
1.467471e+003,-3.587189e+000
1.468435e+003,-3.491501e+000
1.469399e+003,-3.084122e+000
1.470363e+003,-2.082565e+000
1.471328e+003,-1.344177e+000
1.472292e+003,-1.390228e+000
1.473256e+003,-1.570587e+000
1.474220e+003,-9.599304e-001
1.475184e+003,-1.050262e-001
1.476149e+003,-5.207520e-001
1.477113e+003,-2.475357e+000
1.478077e+003,-4.262390e+000
1.479041e+003,-4.158813e+000
1.480006e+003,-2.635529e+000
1.480970e+003,-1.374191e+000
1.481934e+003,-5.502777e-001
1.482898e+003,4.553223e-001
1.483863e+003,2.240128e+000
1.484827e+003,3.314301e+000
1.485791e+003,2.987045e+000
1.486755e+003,2.157150e+000
1.487719e+003,1.408508e+000
1.488684e+003,8.269501e-001
1.489648e+003,4.553070e-001
1.490612e+003,3.359680e-001
1.491576e+003,4.250488e-001
1.492541e+003,5.615692e-001
1.493505e+003,1.007996e+000
1.494469e+003,2.853180e+000
1.495433e+003,5.677475e+000
1.496398e+003,7.095703e+000
1.497362e+003,6.598694e+000
1.498326e+003,5.803650e+000
1.499290e+003,4.926392e+000
1.500255e+003,4.633377e+000
1.501219e+003,6.276978e+000
1.502183e+003,9.450485e+000
1.503147e+003,1.166164e+001
1.504111e+003,1.208975e+001
1.505076e+003,1.300865e+001
1.506040e+003,1.629904e+001
1.507004e+003,2.010628e+001
1.507968e+003,2.256818e+001
1.508933e+003,2.413756e+001
1.509897e+003,2.531587e+001
1.510861e+003,2.644856e+001
1.511825e+003,2.931754e+001
1.512790e+003,3.554672e+001
1.513754e+003,4.334084e+001
1.514718e+003,4.943146e+001
1.515682e+003,5.375710e+001
1.516646e+003,5.763721e+001
1.517611e+003,6.087581e+001
1.518575e+003,6.455789e+001
1.519539e+003,7.030940e+001
1.520503e+003,7.538141e+001
1.521468e+003,7.881105e+001
1.522432e+003,8.033006e+001
1.523396e+003,7.903163e+001
1.524360e+003,7.546335e+001
1.525325e+003,7.194359e+001
1.526289e+003,7.004158e+001
1.527253e+003,6.894713e+001
1.528217e+003,6.726073e+001
1.529182e+003,6.504135e+001
1.530146e+003,6.178023e+001
1.531110e+003,5.725073e+001
1.532074e+003,5.190091e+001
1.533039e+003,4.464903e+001
1.534003e+003,3.772453e+001
1.534967e+003,3.211462e+001
1.535931e+003,2.760889e+001
1.536896e+003,2.435817e+001
1.537860e+003,2.185361e+001
1.538824e+003,1.854631e+001
1.539788e+003,1.372130e+001
1.540752e+003,9.105331e+000
1.541717e+003,7.046692e+000
1.542681e+003,7.157074e+000
1.543645e+003,6.627014e+000
1.544609e+003,4.902649e+000
1.545573e+003,4.194153e+000
1.546538e+003,5.019379e+000
1.547502e+003,5.946198e+000
1.548466e+003,6.725922e+000
1.549430e+003,7.322723e+000
1.550395e+003,7.757538e+000
1.551359e+003,7.903030e+000
1.552323e+003,7.391937e+000
1.553287e+003,6.153183e+000
1.554252e+003,4.814209e+000
1.555216e+003,3.899628e+000
1.556180e+003,3.286636e+000
1.557144e+003,2.595261e+000
1.558109e+003,1.858749e+000
1.559073e+003,2.197601e+000
1.560037e+003,4.614677e+000
1.561001e+003,5.791710e+000
1.561966e+003,3.402626e+000
1.562930e+003,6.698685e-001
1.563894e+003,6.426392e-001
1.564858e+003,2.541779e+000
1.565823e+003,4.585449e+000
1.566787e+003,6.303513e+000
1.567751e+003,6.789314e+000
1.568715e+003,5.253716e+000
1.569679e+003,3.175346e+000
1.570644e+003,2.111732e+000
1.571608e+003,2.004684e+000
1.572572e+003,3.115112e+000
1.573536e+003,5.548828e+000
1.574500e+003,6.746964e+000
1.575465e+003,5.219780e+000
1.576429e+003,3.196236e+000
1.577393e+003,2.132729e+000
1.578357e+003,1.929161e+000
1.579322e+003,2.511543e+000
1.580286e+003,3.867447e+000
1.581250e+003,5.914551e+000
1.582214e+003,8.947372e+000
1.583179e+003,1.149130e+001
1.584143e+003,1.232763e+001
1.585107e+003,1.209011e+001
1.586071e+003,1.164181e+001
1.587036e+003,1.109127e+001
1.588000e+003,1.052094e+001
1.588964e+003,9.895309e+000
1.589928e+003,9.209793e+000
1.590893e+003,8.396027e+000
1.591857e+003,7.615608e+000
1.592821e+003,6.974907e+000
1.593785e+003,6.567894e+000
1.594750e+003,6.954430e+000
1.595714e+003,8.280663e+000
1.596678e+003,9.786133e+000
1.597642e+003,1.188817e+001
1.598606e+003,1.299817e+001
1.599571e+003,1.065338e+001
1.600535e+003,7.395195e+000
1.601499e+003,6.455360e+000
1.602463e+003,7.859230e+000
1.603427e+003,1.047851e+001
1.604392e+003,1.411108e+001
1.605356e+003,1.687962e+001
1.606320e+003,1.624614e+001
1.607284e+003,1.350595e+001
1.608249e+003,1.249531e+001
1.609213e+003,1.328977e+001
1.610177e+003,1.352663e+001
1.611141e+003,1.243508e+001
1.612106e+003,1.173304e+001
1.613070e+003,1.285616e+001
1.614034e+003,1.410313e+001
1.614998e+003,1.403145e+001
1.615963e+003,1.332277e+001
1.616927e+003,1.319592e+001
1.617891e+003,1.379673e+001
1.618855e+003,1.450854e+001
1.619820e+003,1.497056e+001
1.620784e+003,1.514053e+001
1.621748e+003,1.483638e+001
1.622712e+003,1.432190e+001
1.623677e+003,1.486455e+001
1.624641e+003,1.675494e+001
1.625605e+003,1.809225e+001
1.626569e+003,1.826153e+001
1.627533e+003,1.779792e+001
1.628498e+003,1.673145e+001
1.629462e+003,1.555200e+001
1.630426e+003,1.454541e+001
1.631390e+003,1.375238e+001
1.632354e+003,1.308383e+001
1.633319e+003,1.256824e+001
1.634283e+003,1.273435e+001
1.635247e+003,1.411344e+001
1.636211e+003,1.591431e+001
1.637176e+003,1.680916e+001
1.638140e+003,1.685818e+001
1.639104e+003,1.644170e+001
1.640068e+003,1.533568e+001
1.641033e+003,1.450686e+001
1.641997e+003,1.396586e+001
1.642961e+003,1.416833e+001
1.643925e+003,1.638419e+001
1.644890e+003,1.853406e+001
1.645854e+003,1.796620e+001
1.646818e+003,1.562692e+001
1.647782e+003,1.450543e+001
1.648747e+003,1.544420e+001
1.649711e+003,1.644501e+001
1.650675e+003,1.580099e+001
1.651639e+003,1.442126e+001
1.652604e+003,1.432104e+001
1.653568e+003,1.538496e+001
1.654532e+003,1.516113e+001
1.655496e+003,1.291714e+001
1.656460e+003,1.162115e+001
1.657425e+003,1.305891e+001
1.658389e+003,1.441036e+001
1.659353e+003,1.399393e+001
1.660317e+003,1.283743e+001
1.661281e+003,1.174771e+001
1.662246e+003,1.093005e+001
1.663210e+003,1.069687e+001
1.664174e+003,1.114664e+001
1.665138e+003,1.170656e+001
1.666103e+003,1.181190e+001
1.667067e+003,1.176084e+001
1.668031e+003,1.257809e+001
1.668995e+003,1.412133e+001
1.669960e+003,1.365782e+001
1.670924e+003,1.021649e+001
1.671888e+003,8.228455e+000
1.672852e+003,9.913940e+000
1.673817e+003,1.206959e+001
1.674781e+003,1.281086e+001
1.675745e+003,1.281379e+001
1.676709e+003,1.265023e+001
1.677674e+003,1.241608e+001
1.678638e+003,1.231891e+001
1.679602e+003,1.241501e+001
1.680566e+003,1.183109e+001
1.681531e+003,9.430290e+000
1.682495e+003,6.654877e+000
1.683459e+003,6.257309e+000
1.684423e+003,7.744713e+000
1.685387e+003,8.006065e+000
1.686352e+003,6.584503e+000
1.687316e+003,5.751862e+000
1.688280e+003,6.698936e+000
1.689244e+003,7.502380e+000
1.690208e+003,5.889977e+000
1.691173e+003,3.940094e+000
1.692137e+003,4.668114e+000
1.693101e+003,7.111595e+000
1.694065e+003,7.416740e+000
1.695030e+003,4.505371e+000
1.695994e+003,2.051407e+000
1.696958e+003,2.731789e+000
1.697922e+003,4.584328e+000
1.698887e+003,5.333199e+000
1.699851e+003,5.233253e+000
1.700815e+003,4.900452e+000
1.701779e+003,4.374817e+000
1.702744e+003,3.996895e+000
1.703708e+003,4.040321e+000
1.704672e+003,3.818352e+000
1.705636e+003,2.298012e+000
1.706601e+003,6.288071e-001
1.707565e+003,1.014717e+000
1.708529e+003,2.780266e+000
1.709493e+003,3.585014e+000
1.710458e+003,3.052887e+000
1.711422e+003,2.526283e+000
1.712386e+003,2.842850e+000
1.713350e+003,3.105011e+000
1.714314e+003,2.253052e+000
1.715279e+003,9.604034e-001
1.716243e+003,3.648148e-001
1.717207e+003,4.916763e-001
1.718171e+003,1.116493e+000
1.719135e+003,2.187401e+000
1.720100e+003,2.577766e+000
1.721064e+003,1.305077e+000
1.722028e+003,-4.432602e-001
1.722992e+003,-8.978424e-001
1.723957e+003,-2.170944e-001
1.724921e+003,3.981247e-001
1.725885e+003,9.304199e-001
1.726849e+003,9.439316e-001
1.727814e+003,-1.592484e-001
1.728778e+003,-8.614807e-001
1.729742e+003,1.987457e-002
1.730706e+003,1.070862e+000
1.731671e+003,3.162308e-001
1.732635e+003,-1.252960e+000
1.733599e+003,-1.081085e+000
1.734563e+003,1.089645e+000
1.735528e+003,3.508911e+000
1.736492e+003,5.223419e+000
1.737456e+003,5.765938e+000
1.738420e+003,4.406822e+000
1.739385e+003,1.785011e+000
1.740349e+003,4.517593e-001
1.741313e+003,7.160950e-001
1.742277e+003,9.394226e-001
1.743241e+003,1.503212e+000
1.744206e+003,1.539597e+000
1.745170e+003,2.678299e-001
1.746134e+003,-8.437119e-001
1.747098e+003,-7.116928e-001
1.748063e+003,-1.979370e-001
1.749027e+003,-5.097427e-001
1.749991e+003,-1.355728e+000
1.750955e+003,-1.525757e+000
1.751919e+003,-7.087708e-001
1.752884e+003,1.754761e-001
1.753848e+003,3.635712e-001
1.754812e+003,1.509552e-001
1.755776e+003,1.295624e-001
1.756741e+003,3.517914e-001
1.757705e+003,1.043777e+000
1.758669e+003,2.668404e+000
1.759633e+003,3.245415e+000
1.760598e+003,1.787132e+000
1.761562e+003,2.925568e-001
1.762526e+003,-8.050232e-001
1.763490e+003,-1.463905e+000
1.764455e+003,-1.403732e+000
1.765419e+003,-1.016891e+000
1.766383e+003,-9.470062e-001
1.767347e+003,-1.249573e+000
1.768312e+003,-1.455597e+000
1.769276e+003,-1.353432e+000
1.770240e+003,-1.447807e+000
1.771204e+003,-2.486870e+000
1.772168e+003,-3.713570e+000
1.773133e+003,-3.041107e+000
1.774097e+003,-7.806320e-001
1.775061e+003,-4.200363e-001
1.776025e+003,-2.721428e+000
1.776990e+003,-4.064880e+000
1.777954e+003,-2.826653e+000
1.778918e+003,-1.125381e+000
1.779882e+003,-3.273010e-001
1.780846e+003,-1.535721e-001
1.781811e+003,-3.591537e-001
1.782775e+003,-7.614670e-001
1.783739e+003,-7.289581e-001
1.784703e+003,-1.007996e-001
1.785668e+003,3.263168e-001
1.786632e+003,1.599350e-001
1.787596e+003,-3.557968e-001
1.788560e+003,-1.257507e+000
1.789525e+003,-2.102859e+000
1.790489e+003,-2.329796e+000
1.791453e+003,-2.042175e+000
1.792417e+003,-1.439415e+000
1.793382e+003,-6.475830e-001
1.794346e+003,-3.878250e-001
1.795310e+003,-1.110092e+000
1.796274e+003,-1.657051e+000
1.797239e+003,-4.640350e-001
1.798203e+003,1.640274e+000
1.799167e+003,1.604736e+000
1.800131e+003,-1.258835e+000
1.801095e+003,-2.398415e+000
1.802060e+003,-2.456741e-001
1.803024e+003,1.168236e+000
1.803988e+003,8.643951e-001
1.804952e+003,4.040604e-001
1.805917e+003,5.214081e-001
1.806881e+003,8.366165e-001
1.807845e+003,1.093086e+000
1.808809e+003,1.174919e+000
1.809773e+003,6.771545e-001
1.810738e+003,-2.252426e-001
1.811702e+003,-2.315063e-001
1.812666e+003,1.422768e+000
1.813630e+003,3.161018e+000
1.814595e+003,2.729561e+000
1.815559e+003,7.687759e-001
1.816523e+003,1.377335e-001
1.817487e+003,1.048172e+000
1.818452e+003,9.000092e-001
1.819416e+003,-1.154518e+000
1.820380e+003,-1.909805e+000
1.821344e+003,8.844681e-001
1.822309e+003,3.084396e+000
1.823273e+003,1.256447e+000
1.824237e+003,-1.452515e+000
1.825201e+003,-1.874130e+000
1.826166e+003,-5.444412e-001
1.827130e+003,1.032578e+000
1.828094e+003,2.517334e+000
1.829058e+003,3.015625e+000
1.830022e+003,1.736885e+000
1.830987e+003,2.232895e-001
1.831951e+003,-2.544937e-001
1.832915e+003,-1.867447e-001
1.833879e+003,-1.192474e-001
1.834844e+003,-1.649323e-001
1.835808e+003,-7.930450e-001
1.836772e+003,-1.915695e+000
1.837736e+003,-2.184242e+000
1.838700e+003,-1.008751e+000
1.839665e+003,4.323730e-001
1.840629e+003,1.115601e+000
1.841593e+003,1.317986e+000
1.842557e+003,1.593185e+000
1.843522e+003,1.933731e+000
1.844486e+003,1.977051e+000
1.845450e+003,1.488594e+000
1.846414e+003,1.295021e+000
1.847379e+003,1.509705e+000
1.848343e+003,1.681732e+000
1.849307e+003,2.108788e+000
1.850271e+003,2.067093e+000
1.851236e+003,5.139160e-001
1.852200e+003,-1.442986e+000
1.853164e+003,-2.326157e+000
1.854128e+003,-2.188354e+000
1.855093e+003,-1.918861e+000
1.856057e+003,-1.808754e+000
1.857021e+003,-1.395294e+000
1.857985e+003,-2.602997e-001
1.858949e+003,1.065865e+000
1.859914e+003,1.675194e+000
1.860878e+003,1.686882e+000
1.861842e+003,1.543678e+000
1.862806e+003,1.213356e+000
1.863771e+003,1.767693e+000
1.864735e+003,3.760567e+000
1.865699e+003,4.724922e+000
1.866663e+003,3.170647e+000
1.867627e+003,1.166679e+000
1.868592e+003,4.672394e-001
1.869556e+003,4.594879e-001
1.870520e+003,-1.622086e-001
1.871484e+003,-1.184036e+000
1.872449e+003,-9.326096e-001
1.873413e+003,1.365829e+000
1.874377e+003,3.171509e+000
1.875341e+003,3.214005e+000
1.876306e+003,3.045326e+000
1.877270e+003,3.548515e+000
1.878234e+003,4.143005e+000
1.879198e+003,4.184402e+000
1.880163e+003,3.924164e+000
1.881127e+003,3.972336e+000
1.882091e+003,4.308716e+000
1.883055e+003,4.387329e+000
1.884020e+003,3.986763e+000
1.884984e+003,3.386566e+000
1.885948e+003,2.831161e+000
1.886912e+003,2.415268e+000
1.887876e+003,2.371536e+000
1.888841e+003,2.667404e+000
1.889805e+003,2.778633e+000
1.890769e+003,2.600357e+000
1.891733e+003,2.864052e+000
1.892698e+003,3.905396e+000
1.893662e+003,4.614876e+000
1.894626e+003,4.281769e+000
1.895590e+003,3.986862e+000
1.896554e+003,4.666946e+000
1.897519e+003,5.707802e+000
1.898483e+003,6.660568e+000
1.899447e+003,7.235504e+000
1.900411e+003,6.619476e+000
1.901376e+003,4.637444e+000
1.902340e+003,2.574471e+000
1.903304e+003,1.872635e-001
1.904268e+003,-1.054932e+000
1.905233e+003,5.335770e-001
1.906197e+003,2.983749e+000
1.907161e+003,4.562416e+000
1.908125e+003,5.373749e+000
1.909090e+003,5.595917e+000
1.910054e+003,5.421768e+000
1.911018e+003,5.442886e+000
1.911982e+003,5.812332e+000
1.912947e+003,5.771362e+000
1.913911e+003,4.743843e+000
1.914875e+003,3.630310e+000
1.915839e+003,3.932411e+000
1.916803e+003,5.149551e+000
1.917768e+003,4.671829e+000
1.918732e+003,2.034859e+000
1.919696e+003,1.154892e+000
1.920660e+003,3.016060e+000
1.921625e+003,4.010063e+000
1.922589e+003,2.541641e+000
1.923553e+003,1.342491e+000
1.924517e+003,2.100166e+000
1.925481e+003,3.542793e+000
1.926446e+003,5.016502e+000
1.927410e+003,6.198448e+000
1.928374e+003,6.148483e+000
1.929338e+003,4.950165e+000
1.930303e+003,4.727570e+000
1.931267e+003,6.505669e+000
1.932231e+003,7.948044e+000
1.933195e+003,7.900833e+000
1.934160e+003,7.175987e+000
1.935124e+003,5.817642e+000
1.936088e+003,4.525955e+000
1.937052e+003,4.569702e+000
1.938017e+003,5.277702e+000
1.938981e+003,4.778908e+000
1.939945e+003,3.077202e+000
1.940909e+003,1.852982e+000
1.941874e+003,1.878601e+000
1.942838e+003,2.673996e+000
1.943802e+003,3.876953e+000
1.944766e+003,5.287521e+000
1.945730e+003,6.550682e+000
1.946695e+003,7.527916e+000
1.947659e+003,7.002724e+000
1.948623e+003,4.701836e+000
1.949587e+003,4.061394e+000
1.950552e+003,5.983452e+000
1.951516e+003,7.436966e+000
1.952480e+003,7.271790e+000
1.953444e+003,6.720451e+000
1.954408e+003,6.486336e+000
1.955373e+003,6.421066e+000
1.956337e+003,6.464935e+000
1.957301e+003,6.603752e+000
1.958265e+003,6.592590e+000
1.959230e+003,6.427086e+000
1.960194e+003,6.163727e+000
1.961158e+003,5.186028e+000
1.962122e+003,4.890869e+000
1.963087e+003,6.927925e+000
1.964051e+003,8.198090e+000
1.965015e+003,5.778870e+000
1.965979e+003,2.843979e+000
1.966944e+003,2.805611e+000
1.967908e+003,4.604919e+000
1.968872e+003,6.006660e+000
1.969836e+003,6.515892e+000
1.970801e+003,6.411324e+000
1.971765e+003,5.892357e+000
1.972729e+003,5.635605e+000
1.973693e+003,6.245102e+000
1.974657e+003,7.305382e+000
1.975622e+003,8.272667e+000
1.976586e+003,9.138947e+000
1.977550e+003,1.012081e+001
1.978514e+003,1.109713e+001
1.979479e+003,1.113720e+001
1.980443e+003,1.015933e+001
1.981407e+003,9.341232e+000
1.982371e+003,9.132889e+000
1.983335e+003,9.385452e+000
1.984300e+003,1.009212e+001
1.985264e+003,1.040858e+001
1.986228e+003,8.787796e+000
1.987192e+003,5.989090e+000
1.988157e+003,6.177261e+000
1.989121e+003,1.035408e+001
1.990085e+003,1.239442e+001
1.991049e+003,1.113428e+001
1.992014e+003,1.016143e+001
1.992978e+003,1.032559e+001
1.993942e+003,1.017502e+001
1.994906e+003,8.515915e+000
1.995871e+003,7.089378e+000
1.996835e+003,7.491280e+000
1.997799e+003,8.782875e+000
1.998763e+003,9.798172e+000
1.999728e+003,1.030279e+001
