5.003444e+002,2.759918e+001
5.013087e+002,2.746002e+001
5.022729e+002,2.454980e+001
5.032371e+002,2.024994e+001
5.042014e+002,1.752832e+001
5.051656e+002,1.631476e+001
5.061298e+002,1.615442e+001
5.070941e+002,1.662579e+001
5.080583e+002,1.765533e+001
5.090225e+002,1.834473e+001
5.099868e+002,1.862720e+001
5.109510e+002,1.873615e+001
5.119152e+002,1.880750e+001
5.128795e+002,1.888861e+001
5.138437e+002,1.893921e+001
5.148079e+002,1.917560e+001
5.157722e+002,1.939679e+001
5.167364e+002,1.922528e+001
5.177006e+002,1.859399e+001
5.186649e+002,1.787042e+001
5.196291e+002,1.845581e+001
5.205933e+002,1.941394e+001
5.215576e+002,1.829041e+001
5.225218e+002,1.490588e+001
5.234860e+002,1.119519e+001
5.244503e+002,1.123962e+001
5.254145e+002,1.732733e+001
5.263787e+002,1.978711e+001
5.273430e+002,1.660687e+001
5.283072e+002,1.119897e+001
5.292714e+002,7.811401e+000
5.302357e+002,5.981445e+000
5.311999e+002,6.427795e+000
5.321641e+002,1.274170e+001
5.331284e+002,1.933832e+001
5.340926e+002,2.084155e+001
5.350568e+002,1.471411e+001
5.360211e+002,7.777222e+000
5.369853e+002,7.334656e+000
5.379495e+002,9.455261e+000
5.389138e+002,1.091974e+001
5.398780e+002,1.040192e+001
5.408422e+002,8.954102e+000
5.418065e+002,1.024170e+001
5.427707e+002,1.371704e+001
5.437349e+002,1.518323e+001
5.446992e+002,1.304425e+001
5.456634e+002,8.318848e+000
5.466276e+002,4.731140e+000
5.475919e+002,2.543518e+000
5.485561e+002,1.958435e+000
5.495203e+002,3.885132e+000
5.504846e+002,6.736938e+000
5.514488e+002,8.471558e+000
5.524130e+002,8.439880e+000
5.533773e+002,7.704834e+000
5.543415e+002,6.441101e+000
5.553057e+002,5.164490e+000
5.562700e+002,4.442871e+000
5.572342e+002,4.553589e+000
5.581984e+002,4.829956e+000
5.591627e+002,3.544983e+000
5.601269e+002,1.671753e+000
5.610911e+002,9.985962e-001
5.620554e+002,2.421753e+000
5.630196e+002,5.386658e+000
5.639838e+002,6.376465e+000
5.649481e+002,4.320313e+000
5.659123e+002,1.947571e+000
5.668765e+002,-4.827271e-001
5.678408e+002,-2.360046e+000
5.688050e+002,-2.549316e+000
5.697692e+002,-1.658325e-001
5.707335e+002,1.855225e+000
5.716977e+002,2.686707e+000
5.726619e+002,2.950928e+000
5.736262e+002,3.771240e+000
5.745904e+002,6.174866e+000
5.755546e+002,8.585571e+000
5.765189e+002,8.069336e+000
5.774831e+002,5.314697e+000
5.784473e+002,1.583557e+000
5.794116e+002,-2.053406e+000
5.803758e+002,-5.132751e+000
5.813400e+002,-4.908875e+000
5.823043e+002,-6.819458e-001
5.832685e+002,2.216614e+000
5.842327e+002,1.165833e+000
5.851970e+002,-2.675171e+000
5.861612e+002,-3.548401e+000
5.871254e+002,2.557251e+000
5.880897e+002,7.594971e+000
5.890539e+002,9.894470e+000
5.900181e+002,9.878601e+000
5.909824e+002,8.538513e+000
5.919466e+002,6.235779e+000
5.929108e+002,3.726440e+000
5.938751e+002,1.738464e+000
5.948393e+002,9.887695e-002
5.958035e+002,-1.640991e+000
5.967678e+002,-3.722595e+000
5.977320e+002,-5.634033e+000
5.986962e+002,-4.061523e+000
5.996605e+002,3.972168e-001
6.006247e+002,4.768677e+000
6.015889e+002,8.162842e+000
6.025532e+002,1.059338e+001
6.035174e+002,1.170636e+001
6.044816e+002,1.021887e+001
6.054459e+002,8.819031e+000
6.064101e+002,7.871765e+000
6.073743e+002,7.214905e+000
6.083386e+002,6.558167e+000
6.093028e+002,5.937683e+000
6.102670e+002,5.174927e+000
6.112313e+002,3.400757e+000
6.121955e+002,1.523499e+000
6.131597e+002,9.711914e-001
6.141240e+002,2.664124e+000
6.150882e+002,5.728882e+000
6.160524e+002,6.555725e+000
6.170167e+002,5.763733e+000
6.179809e+002,5.037720e+000
6.189451e+002,4.985657e+000
6.199094e+002,5.246887e+000
6.208736e+002,4.690979e+000
6.218378e+002,2.640442e+000
6.228021e+002,1.479736e+000
6.237663e+002,2.163391e+000
6.247305e+002,3.820862e+000
6.256948e+002,4.769165e+000
6.266590e+002,3.640381e+000
6.276232e+002,2.290955e+000
6.285875e+002,2.080872e+000
6.295517e+002,2.805481e+000
6.305159e+002,4.431152e+000
6.314802e+002,6.717651e+000
6.324444e+002,8.825317e+000
6.334086e+002,8.202026e+000
6.343729e+002,6.175110e+000
6.353371e+002,5.963684e+000
6.363013e+002,9.158813e+000
6.372656e+002,1.393799e+001
6.382298e+002,1.403424e+001
6.391940e+002,2.585022e+000
6.401583e+002,-4.989929e+000
6.411225e+002,-6.082764e+000
6.420867e+002,-3.595459e+000
6.430510e+002,-1.178345e+000
6.440152e+002,-2.130737e-001
6.449794e+002,7.725830e-001
6.459437e+002,4.022400e+000
6.469079e+002,6.720703e+000
6.478721e+002,5.891418e+000
6.488364e+002,1.082703e+000
6.498006e+002,-4.399963e+000
6.507648e+002,-4.178528e+000
6.517291e+002,-4.692383e-001
6.526933e+002,1.609375e+000
6.536575e+002,1.007019e+000
6.546218e+002,-8.496704e-001
6.555860e+002,-1.164001e+000
6.565502e+002,1.016357e+000
6.575145e+002,2.731384e+000
6.584787e+002,3.923218e+000
6.594429e+002,4.840027e+000
6.604072e+002,5.931946e+000
6.613714e+002,7.402466e+000
6.623356e+002,7.763611e+000
6.632999e+002,3.932617e+000
6.642641e+002,2.692871e-001
6.652283e+002,-5.747681e-001
6.661926e+002,1.698303e+000
6.671568e+002,6.024170e+000
6.681210e+002,1.214111e+001
6.690853e+002,1.760211e+001
6.700495e+002,1.609320e+001
6.710137e+002,8.073303e+000
6.719780e+002,3.793335e-001
6.729422e+002,5.758667e-001
6.739064e+002,1.067450e+001
6.748707e+002,1.566345e+001
6.758349e+002,1.424084e+001
6.767991e+002,1.077368e+001
6.777634e+002,5.913269e+000
6.787276e+002,5.412598e-001
6.796918e+002,-1.818787e+000
6.806561e+002,3.150879e+000
6.816203e+002,7.283875e+000
6.825845e+002,6.692932e+000
6.835488e+002,3.265076e+000
6.845130e+002,2.446899e-001
6.854772e+002,4.675293e-002
6.864415e+002,2.308960e+000
6.874057e+002,6.519653e+000
6.883699e+002,1.122375e+001
6.893342e+002,1.313348e+001
6.902984e+002,1.024896e+001
6.912626e+002,3.751709e+000
6.922269e+002,8.943481e-001
6.931911e+002,6.178528e+000
6.941553e+002,1.031219e+001
6.951196e+002,1.150421e+001
6.960838e+002,1.076587e+001
6.970480e+002,9.898926e+000
6.980123e+002,9.240662e+000
6.989765e+002,9.213135e+000
6.999407e+002,1.040594e+001
7.009050e+002,1.168158e+001
7.018692e+002,1.183746e+001
7.028334e+002,1.056976e+001
7.037977e+002,8.997375e+000
7.047619e+002,9.644287e+000
7.057261e+002,1.161249e+001
7.066904e+002,1.220557e+001
7.076546e+002,1.096191e+001
7.086188e+002,8.903564e+000
7.095831e+002,7.642822e+000
7.105473e+002,7.351379e+000
7.115115e+002,6.554688e+000
7.124758e+002,4.364380e+000
7.134400e+002,2.347961e+000
7.144042e+002,1.542297e+000
7.153685e+002,2.160767e+000
7.163327e+002,3.700928e+000
7.172969e+002,7.615967e+000
7.182612e+002,1.097131e+001
7.192254e+002,1.208008e+001
7.201896e+002,1.141400e+001
7.211539e+002,1.012964e+001
7.221181e+002,9.121033e+000
7.230823e+002,8.642578e+000
7.240466e+002,9.673340e+000
7.250108e+002,1.215448e+001
7.259750e+002,1.434668e+001
7.269393e+002,1.477454e+001
7.279035e+002,1.322900e+001
7.288677e+002,1.189966e+001
7.298320e+002,1.210297e+001
7.307962e+002,1.278540e+001
7.317604e+002,1.447687e+001
7.327247e+002,1.649786e+001
7.336889e+002,1.727551e+001
7.346531e+002,1.519556e+001
7.356174e+002,1.314325e+001
7.365816e+002,1.434131e+001
7.375458e+002,1.661609e+001
7.385101e+002,1.823907e+001
7.394743e+002,1.877252e+001
7.404385e+002,1.910571e+001
7.414028e+002,2.060938e+001
7.423670e+002,2.191516e+001
7.433312e+002,2.122974e+001
7.442955e+002,1.900208e+001
7.452597e+002,1.655548e+001
7.462239e+002,1.472729e+001
7.471882e+002,1.296759e+001
7.481524e+002,1.359247e+001
7.491166e+002,1.770410e+001
7.500809e+002,2.116760e+001
7.510451e+002,2.249200e+001
7.520093e+002,2.190460e+001
7.529736e+002,2.057806e+001
7.539378e+002,1.888080e+001
7.549020e+002,1.808020e+001
7.558663e+002,1.920947e+001
7.568306e+002,2.133984e+001
7.577948e+002,2.324933e+001
7.587590e+002,2.401099e+001
7.597233e+002,2.342755e+001
7.606875e+002,2.120160e+001
7.616517e+002,1.794037e+001
7.626160e+002,1.633136e+001
7.635802e+002,1.763715e+001
7.645444e+002,2.058856e+001
7.655087e+002,2.245905e+001
7.664729e+002,2.275934e+001
7.674371e+002,2.254590e+001
7.684014e+002,2.145154e+001
7.693656e+002,2.029053e+001
7.703298e+002,1.943396e+001
7.712941e+002,1.907800e+001
7.722583e+002,1.961517e+001
7.732225e+002,2.237299e+001
7.741868e+002,2.509314e+001
7.751510e+002,2.554340e+001
7.761152e+002,2.443188e+001
7.770795e+002,2.373688e+001
7.780437e+002,2.515710e+001
7.790079e+002,2.814807e+001
7.799722e+002,2.890369e+001
7.809364e+002,2.739526e+001
7.819006e+002,2.557971e+001
7.828649e+002,2.451544e+001
7.838291e+002,2.418274e+001
7.847933e+002,2.370001e+001
7.857576e+002,2.215833e+001
7.867218e+002,2.056531e+001
7.876860e+002,1.908246e+001
7.886503e+002,1.848352e+001
7.896145e+002,1.972101e+001
7.905787e+002,2.288837e+001
7.915430e+002,2.645612e+001
7.925072e+002,2.875476e+001
7.934714e+002,2.965167e+001
7.944357e+002,2.916162e+001
7.953999e+002,2.781714e+001
7.963641e+002,2.650586e+001
7.973284e+002,2.601477e+001
7.982926e+002,2.636609e+001
7.992568e+002,2.764917e+001
8.002211e+002,3.030951e+001
8.011853e+002,3.095514e+001
8.021495e+002,2.827899e+001
8.031138e+002,2.380573e+001
8.040780e+002,2.071216e+001
8.050422e+002,1.839801e+001
8.060065e+002,1.839862e+001
8.069707e+002,2.286096e+001
8.079349e+002,2.794458e+001
8.088992e+002,2.976129e+001
8.098634e+002,2.733313e+001
8.108276e+002,2.381146e+001
8.117919e+002,2.316705e+001
8.127561e+002,2.377020e+001
8.137203e+002,2.388049e+001
8.146846e+002,2.379376e+001
8.156488e+002,2.430261e+001
8.166130e+002,2.623035e+001
8.175773e+002,3.002191e+001
8.185415e+002,3.165900e+001
8.195057e+002,2.851361e+001
8.204700e+002,2.597485e+001
8.214342e+002,2.622589e+001
8.223984e+002,2.848340e+001
8.233627e+002,3.056628e+001
8.243269e+002,3.202100e+001
8.252911e+002,3.301544e+001
8.262554e+002,3.385199e+001
8.272196e+002,3.424048e+001
8.281838e+002,3.334369e+001
8.291481e+002,3.113733e+001
8.301123e+002,2.902368e+001
8.310765e+002,2.991248e+001
8.320408e+002,3.326453e+001
8.330050e+002,3.389569e+001
8.339692e+002,3.104272e+001
8.349335e+002,2.740027e+001
8.358977e+002,2.585547e+001
8.368619e+002,2.694391e+001
8.378262e+002,2.816980e+001
8.387904e+002,2.866193e+001
8.397546e+002,2.943219e+001
8.407189e+002,3.069940e+001
8.416831e+002,3.252698e+001
8.426473e+002,3.534003e+001
8.436116e+002,3.976617e+001
8.445758e+002,4.364520e+001
8.455400e+002,4.351166e+001
8.465043e+002,4.119891e+001
8.474685e+002,3.900372e+001
8.484327e+002,3.807825e+001
8.493970e+002,3.858093e+001
8.503612e+002,4.028522e+001
8.513254e+002,4.335095e+001
8.522897e+002,4.427850e+001
8.532539e+002,4.106226e+001
8.542181e+002,3.794922e+001
8.551824e+002,3.843561e+001
8.561466e+002,4.249170e+001
8.571108e+002,4.588776e+001
8.580751e+002,4.541278e+001
8.590393e+002,4.490851e+001
8.600035e+002,4.756708e+001
8.609678e+002,5.071686e+001
8.619320e+002,5.005414e+001
8.628962e+002,4.419965e+001
8.638605e+002,3.818921e+001
8.648247e+002,4.142316e+001
8.657889e+002,4.971570e+001
8.667532e+002,5.436798e+001
8.677174e+002,5.423749e+001
8.686816e+002,5.180334e+001
8.696459e+002,4.981226e+001
8.706101e+002,4.854456e+001
8.715743e+002,4.765863e+001
8.725386e+002,4.631458e+001
8.735028e+002,4.642096e+001
8.744670e+002,4.924548e+001
8.754313e+002,5.300555e+001
8.763955e+002,5.434998e+001
8.773597e+002,5.147894e+001
8.783240e+002,4.964050e+001
8.792882e+002,5.423633e+001
8.802524e+002,6.002301e+001
8.812167e+002,6.216803e+001
8.821809e+002,6.004742e+001
8.831451e+002,5.659851e+001
8.841094e+002,5.571118e+001
8.850736e+002,5.763629e+001
8.860378e+002,5.887762e+001
8.870021e+002,5.895850e+001
8.879663e+002,5.910352e+001
8.889305e+002,5.956232e+001
8.898948e+002,6.029132e+001
8.908590e+002,6.199908e+001
8.918232e+002,6.667053e+001
8.927875e+002,6.980212e+001
8.937517e+002,6.926489e+001
8.947159e+002,6.790417e+001
8.956802e+002,6.801740e+001
8.966444e+002,6.972205e+001
8.976086e+002,7.097760e+001
8.985729e+002,6.976227e+001
8.995371e+002,6.784406e+001
9.005013e+002,6.790088e+001
9.014656e+002,6.984601e+001
9.024298e+002,7.186890e+001
9.033940e+002,7.224200e+001
9.043583e+002,7.095966e+001
9.053225e+002,7.094104e+001
9.062867e+002,7.307739e+001
9.072510e+002,7.475208e+001
9.082152e+002,7.750439e+001
9.091794e+002,7.974304e+001
9.101437e+002,7.880853e+001
9.111079e+002,7.417627e+001
9.120721e+002,7.102466e+001
9.130364e+002,7.374554e+001
9.140006e+002,7.695142e+001
9.149648e+002,7.845789e+001
9.159291e+002,7.848730e+001
9.168933e+002,7.735925e+001
9.178575e+002,7.513776e+001
9.188218e+002,7.229633e+001
9.197860e+002,7.156384e+001
9.207502e+002,7.278027e+001
9.217145e+002,7.330536e+001
9.226787e+002,7.316846e+001
9.236429e+002,7.276343e+001
9.246072e+002,7.187933e+001
9.255714e+002,6.985791e+001
9.265356e+002,6.899371e+001
9.274999e+002,7.136945e+001
9.284641e+002,7.268286e+001
9.294283e+002,7.085809e+001
9.303926e+002,6.739032e+001
9.313568e+002,6.488086e+001
9.323210e+002,6.463367e+001
9.332853e+002,6.556000e+001
9.342495e+002,6.689429e+001
9.352137e+002,6.791077e+001
9.361780e+002,6.721820e+001
9.371422e+002,6.492474e+001
9.381064e+002,6.304492e+001
9.390707e+002,6.399518e+001
9.400349e+002,6.788184e+001
9.409991e+002,7.049475e+001
9.419634e+002,7.180432e+001
9.429276e+002,7.186841e+001
9.438918e+002,6.959778e+001
9.448561e+002,6.662616e+001
9.458203e+002,6.582751e+001
9.467845e+002,6.843604e+001
9.477488e+002,7.177295e+001
9.487130e+002,7.435663e+001
9.496772e+002,7.622699e+001
9.506415e+002,7.738995e+001
9.516057e+002,7.779962e+001
9.525699e+002,7.698309e+001
9.535342e+002,7.434119e+001
9.544984e+002,7.020508e+001
9.554626e+002,6.957129e+001
9.564269e+002,7.369012e+001
9.573911e+002,7.765131e+001
9.583553e+002,7.978058e+001
9.593196e+002,8.087805e+001
9.602838e+002,8.248193e+001
9.612480e+002,8.492151e+001
9.622123e+002,8.595471e+001
9.631765e+002,8.411078e+001
9.641407e+002,8.193719e+001
9.651050e+002,8.007343e+001
9.660692e+002,7.856354e+001
9.670334e+002,7.744049e+001
9.679977e+002,7.698785e+001
9.689619e+002,7.752209e+001
9.699261e+002,7.912799e+001
9.708904e+002,8.115314e+001
9.718546e+002,8.320795e+001
9.728188e+002,8.525269e+001
9.737831e+002,8.618689e+001
9.747473e+002,8.394708e+001
9.757115e+002,7.747491e+001
9.766758e+002,7.459802e+001
9.776400e+002,7.956055e+001
9.786042e+002,8.373456e+001
9.795685e+002,8.443542e+001
9.805327e+002,8.284192e+001
9.814969e+002,8.094788e+001
9.824612e+002,7.970764e+001
9.834254e+002,7.900043e+001
9.843896e+002,7.775513e+001
9.853539e+002,7.679114e+001
9.863181e+002,7.755530e+001
9.872823e+002,7.953510e+001
9.882466e+002,8.110071e+001
9.892108e+002,8.125720e+001
9.901750e+002,8.113684e+001
9.911393e+002,8.419336e+001
9.921035e+002,9.206342e+001
9.930677e+002,9.777637e+001
9.940320e+002,1.005016e+002
9.949962e+002,1.023878e+002
9.959604e+002,1.053432e+002
9.969247e+002,1.095715e+002
9.978889e+002,1.137646e+002
9.988531e+002,1.166665e+002
9.998174e+002,1.186064e+002
1.000782e+003,1.201204e+002
1.001746e+003,1.216137e+002
1.002710e+003,1.232743e+002
1.003674e+003,1.251523e+002
1.004639e+003,1.273608e+002
1.005603e+003,1.302592e+002
1.006567e+003,1.337551e+002
1.007531e+003,1.358386e+002
1.008495e+003,1.365132e+002
1.009460e+003,1.361263e+002
1.010424e+003,1.345199e+002
1.011388e+003,1.321556e+002
1.012352e+003,1.305825e+002
1.013317e+003,1.304688e+002
1.014281e+003,1.294586e+002
1.015245e+003,1.266681e+002
1.016209e+003,1.226485e+002
1.017174e+003,1.178962e+002
1.018138e+003,1.125482e+002
1.019102e+003,1.060110e+002
1.020066e+003,9.752777e+001
1.021031e+003,8.919244e+001
1.021995e+003,8.721344e+001
1.022959e+003,8.978503e+001
1.023923e+003,9.121204e+001
1.024887e+003,8.951526e+001
1.025852e+003,8.584296e+001
1.026816e+003,8.205176e+001
1.027780e+003,7.844373e+001
1.028744e+003,7.517493e+001
1.029709e+003,7.189496e+001
1.030673e+003,6.914142e+001
1.031637e+003,6.650317e+001
1.032601e+003,6.443225e+001
1.033566e+003,6.440363e+001
1.034530e+003,6.694855e+001
1.035494e+003,6.911243e+001
1.036458e+003,6.639233e+001
1.037422e+003,6.151062e+001
1.038387e+003,5.936053e+001
1.039351e+003,5.982281e+001
1.040315e+003,6.065515e+001
1.041279e+003,6.030859e+001
1.042244e+003,5.940308e+001
1.043208e+003,6.014856e+001
1.044172e+003,6.401654e+001
1.045136e+003,6.595508e+001
1.046101e+003,6.395471e+001
1.047065e+003,6.245691e+001
1.048029e+003,6.503088e+001
1.048993e+003,7.055945e+001
1.049958e+003,7.471484e+001
1.050922e+003,7.569611e+001
1.051886e+003,7.503894e+001
1.052850e+003,7.337701e+001
1.053814e+003,7.148486e+001
1.054779e+003,7.023999e+001
1.055743e+003,6.982385e+001
1.056707e+003,7.028308e+001
1.057671e+003,7.182404e+001
1.058636e+003,7.435852e+001
1.059600e+003,7.489124e+001
1.060564e+003,7.238428e+001
1.061528e+003,7.074841e+001
1.062493e+003,6.956250e+001
1.063457e+003,6.914154e+001
1.064421e+003,7.139313e+001
1.065385e+003,7.653717e+001
1.066349e+003,7.880176e+001
1.067314e+003,7.272498e+001
1.068278e+003,6.586810e+001
1.069242e+003,6.342596e+001
1.070206e+003,6.417853e+001
1.071171e+003,6.629193e+001
1.072135e+003,6.847833e+001
1.073099e+003,6.955701e+001
1.074063e+003,6.772357e+001
1.075028e+003,6.269873e+001
1.075992e+003,6.127893e+001
1.076956e+003,6.497205e+001
1.077920e+003,6.821088e+001
1.078885e+003,6.958691e+001
1.079849e+003,6.965857e+001
1.080813e+003,6.885425e+001
1.081777e+003,6.707166e+001
1.082741e+003,6.575433e+001
1.083706e+003,6.417041e+001
1.084670e+003,6.359235e+001
1.085634e+003,6.571484e+001
1.086598e+003,6.931244e+001
1.087563e+003,7.247418e+001
1.088527e+003,7.425470e+001
1.089491e+003,7.488019e+001
1.090455e+003,7.382404e+001
1.091420e+003,7.045190e+001
1.092384e+003,6.874799e+001
1.093348e+003,6.913849e+001
1.094312e+003,6.961694e+001
1.095276e+003,6.966907e+001
1.096241e+003,6.948956e+001
1.097205e+003,6.850659e+001
1.098169e+003,6.561670e+001
1.099133e+003,6.381403e+001
1.100098e+003,6.558051e+001
1.101062e+003,6.787823e+001
1.102026e+003,6.852142e+001
1.102990e+003,6.816235e+001
1.103955e+003,6.887659e+001
1.104919e+003,7.181024e+001
1.105883e+003,7.544110e+001
1.106847e+003,7.649170e+001
1.107812e+003,7.487421e+001
1.108776e+003,7.556976e+001
1.109740e+003,8.038226e+001
1.110704e+003,8.423016e+001
1.111668e+003,8.197302e+001
1.112633e+003,7.598438e+001
1.113597e+003,7.618427e+001
1.114561e+003,8.689441e+001
1.115525e+003,9.472900e+001
1.116490e+003,9.357623e+001
1.117454e+003,9.039569e+001
1.118418e+003,8.976202e+001
1.119382e+003,9.161761e+001
1.120347e+003,9.317120e+001
1.121311e+003,9.232739e+001
1.122275e+003,9.031342e+001
1.123239e+003,9.133960e+001
1.124203e+003,9.567926e+001
1.125168e+003,9.817914e+001
1.126132e+003,9.779126e+001
1.127096e+003,9.774817e+001
1.128060e+003,1.001830e+002
1.129025e+003,1.046182e+002
1.129989e+003,1.100139e+002
1.130953e+003,1.176780e+002
1.131917e+003,1.224705e+002
1.132882e+003,1.214755e+002
1.133846e+003,1.196307e+002
1.134810e+003,1.197625e+002
1.135774e+003,1.216957e+002
1.136739e+003,1.235186e+002
1.137703e+003,1.241613e+002
1.138667e+003,1.255213e+002
1.139631e+003,1.311748e+002
1.140595e+003,1.409601e+002
1.141560e+003,1.528730e+002
1.142524e+003,1.679540e+002
1.143488e+003,1.826391e+002
1.144452e+003,1.927754e+002
1.145417e+003,2.003307e+002
1.146381e+003,2.128969e+002
1.147345e+003,2.320990e+002
1.148309e+003,2.520887e+002
1.149274e+003,2.721472e+002
1.150238e+003,2.923136e+002
1.151202e+003,3.134124e+002
1.152166e+003,3.349416e+002
1.153130e+003,3.567766e+002
1.154095e+003,3.780222e+002
1.155059e+003,3.946052e+002
1.156023e+003,4.011005e+002
1.156987e+003,3.981548e+002
1.157952e+003,3.931917e+002
1.158916e+003,3.873578e+002
1.159880e+003,3.788804e+002
1.160844e+003,3.649024e+002
1.161809e+003,3.464786e+002
1.162773e+003,3.274403e+002
1.163737e+003,3.079678e+002
1.164701e+003,2.874653e+002
1.165666e+003,2.630574e+002
1.166630e+003,2.411945e+002
1.167594e+003,2.233800e+002
1.168558e+003,2.098735e+002
1.169522e+003,2.014330e+002
1.170487e+003,1.978457e+002
1.171451e+003,1.973533e+002
1.172415e+003,1.981017e+002
1.173379e+003,1.998032e+002
1.174344e+003,2.026552e+002
1.175308e+003,2.073313e+002
1.176272e+003,2.081517e+002
1.177236e+003,2.006360e+002
1.178201e+003,1.907502e+002
1.179165e+003,1.867448e+002
1.180129e+003,1.883368e+002
1.181093e+003,1.860992e+002
1.182057e+003,1.750642e+002
1.183022e+003,1.650384e+002
1.183986e+003,1.589534e+002
1.184950e+003,1.559871e+002
1.185914e+003,1.564822e+002
1.186879e+003,1.595570e+002
1.187843e+003,1.629034e+002
1.188807e+003,1.645113e+002
1.189771e+003,1.645161e+002
1.190736e+003,1.637610e+002
1.191700e+003,1.621171e+002
1.192664e+003,1.604017e+002
1.193628e+003,1.584121e+002
1.194593e+003,1.573461e+002
1.195557e+003,1.590838e+002
1.196521e+003,1.623244e+002
1.197485e+003,1.627126e+002
1.198449e+003,1.594439e+002
1.199414e+003,1.540720e+002
1.200378e+003,1.445078e+002
1.201342e+003,1.357005e+002
1.202306e+003,1.308886e+002
1.203271e+003,1.290918e+002
1.204235e+003,1.283591e+002
1.205199e+003,1.275760e+002
1.206163e+003,1.261036e+002
1.207128e+003,1.226400e+002
1.208092e+003,1.171135e+002
1.209056e+003,1.118659e+002
1.210020e+003,1.066693e+002
1.210984e+003,1.021772e+002
1.211949e+003,9.905743e+001
1.212913e+003,9.621808e+001
1.213877e+003,9.213000e+001
1.214841e+003,8.690002e+001
1.215806e+003,8.272192e+001
1.216770e+003,8.079352e+001
1.217734e+003,7.936920e+001
1.218698e+003,7.664417e+001
1.219663e+003,7.354523e+001
1.220627e+003,7.154956e+001
1.221591e+003,7.073438e+001
1.222555e+003,6.968066e+001
1.223520e+003,6.709784e+001
1.224484e+003,6.389606e+001
1.225448e+003,6.356311e+001
1.226412e+003,6.875708e+001
1.227376e+003,7.043146e+001
1.228341e+003,6.565912e+001
1.229305e+003,6.046185e+001
1.230269e+003,5.776514e+001
1.231233e+003,5.699750e+001
1.232198e+003,5.682770e+001
1.233162e+003,5.711188e+001
1.234126e+003,5.869623e+001
1.235090e+003,6.299561e+001
1.236055e+003,6.746857e+001
1.237019e+003,7.010425e+001
1.237983e+003,7.058746e+001
1.238947e+003,6.790643e+001
1.239911e+003,6.195471e+001
1.240876e+003,5.637225e+001
1.241840e+003,5.677625e+001
1.242804e+003,6.367035e+001
1.243768e+003,6.769080e+001
1.244733e+003,6.536768e+001
1.245697e+003,6.472144e+001
1.246661e+003,6.778760e+001
1.247625e+003,7.054022e+001
1.248590e+003,6.938837e+001
1.249554e+003,6.581366e+001
1.250518e+003,6.422968e+001
1.251482e+003,6.643317e+001
1.252447e+003,7.005328e+001
1.253411e+003,7.330151e+001
1.254375e+003,7.616431e+001
1.255339e+003,7.815955e+001
1.256303e+003,7.949109e+001
1.257268e+003,8.050903e+001
1.258232e+003,8.065448e+001
1.259196e+003,8.049927e+001
1.260160e+003,8.203656e+001
1.261125e+003,8.587183e+001
1.262089e+003,9.029480e+001
1.263053e+003,9.581134e+001
1.264017e+003,1.000596e+002
1.264982e+003,1.033428e+002
1.265946e+003,1.048931e+002
1.266910e+003,1.028292e+002
1.267874e+003,9.821942e+001
1.268839e+003,9.507019e+001
1.269803e+003,9.612152e+001
1.270767e+003,9.847296e+001
1.271731e+003,9.614429e+001
1.272695e+003,8.951508e+001
1.273660e+003,8.522668e+001
1.274624e+003,8.332709e+001
1.275588e+003,8.204810e+001
1.276552e+003,8.173334e+001
1.277517e+003,8.170831e+001
1.278481e+003,7.987762e+001
1.279445e+003,7.583746e+001
1.280409e+003,7.199799e+001
1.281374e+003,6.903235e+001
1.282338e+003,6.677765e+001
1.283302e+003,6.485175e+001
1.284266e+003,6.355969e+001
1.285230e+003,6.408893e+001
1.286195e+003,6.580768e+001
1.287159e+003,6.588733e+001
1.288123e+003,6.217169e+001
1.289087e+003,5.669983e+001
1.290052e+003,5.492310e+001
1.291016e+003,5.788995e+001
1.291980e+003,5.967291e+001
1.292944e+003,5.896021e+001
1.293909e+003,5.806232e+001
1.294873e+003,5.897198e+001
1.295837e+003,6.030670e+001
1.296801e+003,5.937909e+001
1.297766e+003,5.609625e+001
1.298730e+003,5.377716e+001
1.299694e+003,5.409265e+001
1.300658e+003,5.546204e+001
1.301622e+003,5.709851e+001
1.302587e+003,5.857806e+001
1.303551e+003,5.860004e+001
1.304515e+003,5.725818e+001
1.305479e+003,5.636176e+001
1.306444e+003,5.716876e+001
1.307408e+003,5.907678e+001
1.308372e+003,6.083063e+001
1.309336e+003,6.262689e+001
1.310301e+003,6.349902e+001
1.311265e+003,6.400360e+001
1.312229e+003,6.338428e+001
1.313193e+003,6.015735e+001
1.314157e+003,5.631024e+001
1.315122e+003,5.386200e+001
1.316086e+003,5.289447e+001
1.317050e+003,5.202966e+001
1.318014e+003,5.047632e+001
1.318979e+003,4.968304e+001
1.319943e+003,5.252722e+001
1.320907e+003,5.870673e+001
1.321871e+003,6.341266e+001
1.322836e+003,6.588239e+001
1.323800e+003,6.680524e+001
1.324764e+003,6.585645e+001
1.325728e+003,6.412024e+001
1.326693e+003,6.341956e+001
1.327657e+003,6.358240e+001
1.328621e+003,6.282599e+001
1.329585e+003,6.108447e+001
1.330549e+003,6.028101e+001
1.331514e+003,6.044946e+001
1.332478e+003,6.066937e+001
1.333442e+003,6.056372e+001
1.334406e+003,6.026978e+001
1.335371e+003,6.016620e+001
1.336335e+003,6.042163e+001
1.337299e+003,6.024237e+001
1.338263e+003,5.773175e+001
1.339228e+003,5.231482e+001
1.340192e+003,5.022717e+001
1.341156e+003,5.313580e+001
1.342120e+003,5.659692e+001
1.343084e+003,6.091852e+001
1.344049e+003,6.394165e+001
1.345013e+003,6.354437e+001
1.345977e+003,6.094574e+001
1.346941e+003,5.942151e+001
1.347906e+003,6.015570e+001
1.348870e+003,6.115570e+001
1.349834e+003,6.014014e+001
1.350798e+003,5.816699e+001
1.351763e+003,5.785535e+001
1.352727e+003,5.907025e+001
1.353691e+003,6.040192e+001
1.354655e+003,6.165247e+001
1.355620e+003,6.199677e+001
1.356584e+003,5.989008e+001
1.357548e+003,5.587872e+001
1.358512e+003,5.361121e+001
1.359476e+003,5.304730e+001
1.360441e+003,5.306567e+001
1.361405e+003,5.483502e+001
1.362369e+003,5.603577e+001
1.363333e+003,5.486584e+001
1.364298e+003,5.276544e+001
1.365262e+003,5.212000e+001
1.366226e+003,5.323273e+001
1.367190e+003,5.407513e+001
1.368155e+003,5.281549e+001
1.369119e+003,5.022687e+001
1.370083e+003,4.882538e+001
1.371047e+003,4.905176e+001
1.372011e+003,4.987097e+001
1.372976e+003,5.129260e+001
1.373940e+003,5.227545e+001
1.374904e+003,5.256134e+001
1.375868e+003,5.252069e+001
1.376833e+003,5.209497e+001
1.377797e+003,5.139111e+001
1.378761e+003,5.164349e+001
1.379725e+003,5.377844e+001
1.380690e+003,5.613385e+001
1.381654e+003,5.684015e+001
1.382618e+003,5.696893e+001
1.383582e+003,5.810223e+001
1.384547e+003,6.013269e+001
1.385511e+003,6.154523e+001
1.386475e+003,6.129840e+001
1.387439e+003,6.027356e+001
1.388403e+003,6.024402e+001
1.389368e+003,6.115344e+001
1.390332e+003,5.996704e+001
1.391296e+003,5.424774e+001
1.392260e+003,5.195984e+001
1.393225e+003,5.769031e+001
1.394189e+003,6.368597e+001
1.395153e+003,6.649860e+001
1.396117e+003,6.626904e+001
1.397082e+003,6.266132e+001
1.398046e+003,5.677246e+001
1.399010e+003,5.267908e+001
1.399974e+003,5.397168e+001
1.400938e+003,5.804199e+001
1.401903e+003,5.792041e+001
1.402867e+003,5.306860e+001
1.403831e+003,5.218091e+001
1.404795e+003,5.699432e+001
1.405760e+003,6.204883e+001
1.406724e+003,6.576068e+001
1.407688e+003,6.700867e+001
1.408652e+003,6.446918e+001
1.409617e+003,5.934827e+001
1.410581e+003,5.535693e+001
1.411545e+003,5.399316e+001
1.412509e+003,5.374774e+001
1.413474e+003,5.299738e+001
1.414438e+003,5.184723e+001
1.415402e+003,5.131427e+001
1.416366e+003,5.177771e+001
1.417330e+003,5.319830e+001
1.418295e+003,5.582129e+001
1.419259e+003,5.845905e+001
1.420223e+003,5.945111e+001
1.421187e+003,5.871735e+001
1.422152e+003,5.715802e+001
1.423116e+003,5.433704e+001
1.424080e+003,5.398932e+001
1.425044e+003,5.922809e+001
1.426009e+003,6.399841e+001
1.426973e+003,6.613788e+001
1.427937e+003,6.616388e+001
1.428901e+003,6.421277e+001
1.429865e+003,6.122992e+001
1.430830e+003,5.900317e+001
1.431794e+003,5.850842e+001
1.432758e+003,5.924841e+001
1.433722e+003,6.089734e+001
1.434687e+003,6.421490e+001
1.435651e+003,6.765002e+001
1.436615e+003,7.072107e+001
1.437579e+003,7.145361e+001
1.438544e+003,6.785596e+001
1.439508e+003,6.413690e+001
1.440472e+003,6.360779e+001
1.441436e+003,6.542450e+001
1.442401e+003,6.720538e+001
1.443365e+003,6.822003e+001
1.444329e+003,6.957806e+001
1.445293e+003,7.254425e+001
1.446257e+003,7.565613e+001
1.447222e+003,7.535150e+001
1.448186e+003,7.223175e+001
1.449150e+003,6.996375e+001
1.450114e+003,6.896637e+001
1.451079e+003,6.769708e+001
1.452043e+003,6.544440e+001
1.453007e+003,6.306885e+001
1.453971e+003,6.120978e+001
1.454936e+003,5.974811e+001
1.455900e+003,5.916089e+001
1.456864e+003,5.990503e+001
1.457828e+003,6.119635e+001
1.458792e+003,6.342340e+001
1.459757e+003,6.460413e+001
1.460721e+003,6.189069e+001
1.461685e+003,5.723303e+001
1.462649e+003,5.481482e+001
1.463614e+003,5.584009e+001
1.464578e+003,5.833276e+001
1.465542e+003,6.063068e+001
1.466506e+003,6.231433e+001
1.467471e+003,6.245380e+001
1.468435e+003,6.111102e+001
1.469399e+003,6.065546e+001
1.470363e+003,6.063678e+001
1.471328e+003,6.124603e+001
1.472292e+003,6.346484e+001
1.473256e+003,6.451733e+001
1.474220e+003,6.138281e+001
1.475184e+003,5.692566e+001
1.476149e+003,5.655768e+001
1.477113e+003,6.130029e+001
1.478077e+003,6.689539e+001
1.479041e+003,6.960822e+001
1.480006e+003,7.037500e+001
1.480970e+003,7.118103e+001
1.481934e+003,7.148035e+001
1.482898e+003,7.201813e+001
1.483863e+003,7.372388e+001
1.484827e+003,7.412854e+001
1.485791e+003,7.180707e+001
1.486755e+003,6.937219e+001
1.487719e+003,6.855756e+001
1.488684e+003,6.925140e+001
1.489648e+003,7.139575e+001
1.490612e+003,7.511969e+001
1.491576e+003,7.910272e+001
1.492541e+003,8.201318e+001
1.493505e+003,8.433081e+001
1.494469e+003,8.709821e+001
1.495433e+003,8.982092e+001
1.496398e+003,9.262744e+001
1.497362e+003,9.596246e+001
1.498326e+003,1.005475e+002
1.499290e+003,1.067090e+002
1.500255e+003,1.141879e+002
1.501219e+003,1.230476e+002
1.502183e+003,1.327860e+002
1.503147e+003,1.409937e+002
1.504111e+003,1.465363e+002
1.505076e+003,1.536484e+002
1.506040e+003,1.649241e+002
1.507004e+003,1.790839e+002
1.507968e+003,1.951842e+002
1.508933e+003,2.127455e+002
1.509897e+003,2.304171e+002
1.510861e+003,2.487811e+002
1.511825e+003,2.709174e+002
1.512790e+003,2.991621e+002
1.513754e+003,3.305078e+002
1.514718e+003,3.599885e+002
1.515682e+003,3.871808e+002
1.516646e+003,4.149086e+002
1.517611e+003,4.457512e+002
1.518575e+003,4.728055e+002
1.519539e+003,4.940947e+002
1.520503e+003,5.117839e+002
1.521468e+003,5.280173e+002
1.522432e+003,5.402529e+002
1.523396e+003,5.442402e+002
1.524360e+003,5.401880e+002
1.525325e+003,5.327208e+002
1.526289e+003,5.250496e+002
1.527253e+003,5.154931e+002
1.528217e+003,5.010171e+002
1.529182e+003,4.820103e+002
1.530146e+003,4.567205e+002
1.531110e+003,4.217764e+002
1.532074e+003,3.856992e+002
1.533039e+003,3.470372e+002
1.534003e+003,3.079825e+002
1.534967e+003,2.687311e+002
1.535931e+003,2.319934e+002
1.536896e+003,1.996823e+002
1.537860e+003,1.726201e+002
1.538824e+003,1.516165e+002
1.539788e+003,1.366551e+002
1.540752e+003,1.256239e+002
1.541717e+003,1.163391e+002
1.542681e+003,1.086662e+002
1.543645e+003,9.999164e+001
1.544609e+003,8.943768e+001
1.545573e+003,8.167596e+001
1.546538e+003,7.648608e+001
1.547502e+003,7.288068e+001
1.548466e+003,7.224866e+001
1.549430e+003,7.282806e+001
1.550395e+003,7.263336e+001
1.551359e+003,7.142480e+001
1.552323e+003,6.990601e+001
1.553287e+003,6.837714e+001
1.554252e+003,6.619373e+001
1.555216e+003,6.249530e+001
1.556180e+003,5.836597e+001
1.557144e+003,5.688940e+001
1.558109e+003,5.834760e+001
1.559073e+003,5.723663e+001
1.560037e+003,5.058490e+001
1.561001e+003,4.590369e+001
1.561966e+003,4.775507e+001
1.562930e+003,5.191443e+001
1.563894e+003,5.488928e+001
1.564858e+003,5.635382e+001
1.565823e+003,5.608411e+001
1.566787e+003,5.410229e+001
1.567751e+003,5.179871e+001
1.568715e+003,4.977533e+001
1.569679e+003,4.895740e+001
1.570644e+003,5.136957e+001
1.571608e+003,5.511322e+001
1.572572e+003,5.502203e+001
1.573536e+003,5.114172e+001
1.574500e+003,4.924896e+001
1.575465e+003,5.235547e+001
1.576429e+003,5.581482e+001
1.577393e+003,5.529584e+001
1.578357e+003,5.245935e+001
1.579322e+003,5.075214e+001
1.580286e+003,5.054352e+001
1.581250e+003,5.098273e+001
1.582214e+003,5.191479e+001
1.583179e+003,5.300970e+001
1.584143e+003,5.413269e+001
1.585107e+003,5.468060e+001
1.586071e+003,5.424060e+001
1.587036e+003,5.358575e+001
1.588000e+003,5.344000e+001
1.588964e+003,5.359894e+001
1.589928e+003,5.433289e+001
1.590893e+003,5.645117e+001
1.591857e+003,5.880963e+001
1.592821e+003,5.938354e+001
1.593785e+003,5.863507e+001
1.594750e+003,5.889581e+001
1.595714e+003,6.041168e+001
1.596678e+003,6.171478e+001
1.597642e+003,6.232532e+001
1.598606e+003,6.250214e+001
1.599571e+003,6.285028e+001
1.600535e+003,6.299408e+001
1.601499e+003,6.136407e+001
1.602463e+003,5.852960e+001
1.603427e+003,5.845679e+001
1.604392e+003,6.316052e+001
1.605356e+003,6.801996e+001
1.606320e+003,6.829028e+001
1.607284e+003,6.518286e+001
1.608249e+003,6.160559e+001
1.609213e+003,5.752307e+001
1.610177e+003,5.456000e+001
1.611141e+003,5.284253e+001
1.612106e+003,5.266351e+001
1.613070e+003,5.712463e+001
1.614034e+003,6.030774e+001
1.614998e+003,5.526758e+001
1.615963e+003,4.707172e+001
1.616927e+003,4.521869e+001
1.617891e+003,5.031561e+001
1.618855e+003,5.468939e+001
1.619820e+003,5.354852e+001
1.620784e+003,4.949817e+001
1.621748e+003,4.685510e+001
1.622712e+003,4.591583e+001
1.623677e+003,4.420221e+001
1.624641e+003,4.122577e+001
1.625605e+003,4.080652e+001
1.626569e+003,4.479474e+001
1.627533e+003,4.739807e+001
1.628498e+003,4.390405e+001
1.629462e+003,4.059369e+001
1.630426e+003,4.476709e+001
1.631390e+003,5.267365e+001
1.632354e+003,5.544818e+001
1.633319e+003,5.113721e+001
1.634283e+003,4.456567e+001
1.635247e+003,3.856683e+001
1.636211e+003,3.432739e+001
1.637176e+003,3.531360e+001
1.638140e+003,4.122955e+001
1.639104e+003,4.447839e+001
1.640068e+003,4.444635e+001
1.641033e+003,4.226770e+001
1.641997e+003,3.517413e+001
1.642961e+003,3.082703e+001
1.643925e+003,3.516473e+001
1.644890e+003,4.193665e+001
1.645854e+003,4.547638e+001
1.646818e+003,4.584521e+001
1.647782e+003,4.450171e+001
1.648747e+003,4.210455e+001
1.649711e+003,4.054565e+001
1.650675e+003,4.194843e+001
1.651639e+003,4.481921e+001
1.652604e+003,4.518610e+001
1.653568e+003,4.293768e+001
1.654532e+003,4.203503e+001
1.655496e+003,4.336914e+001
1.656460e+003,4.357397e+001
1.657425e+003,4.113043e+001
1.658389e+003,3.846680e+001
1.659353e+003,3.636780e+001
1.660317e+003,3.504077e+001
1.661281e+003,3.513629e+001
1.662246e+003,3.599792e+001
1.663210e+003,3.596002e+001
1.664174e+003,3.467535e+001
1.665138e+003,3.367395e+001
1.666103e+003,3.433148e+001
1.667067e+003,3.537286e+001
1.668031e+003,3.406384e+001
1.668995e+003,3.076105e+001
1.669960e+003,2.928247e+001
1.670924e+003,3.043652e+001
1.671888e+003,3.171997e+001
1.672852e+003,3.264001e+001
1.673817e+003,3.260052e+001
1.674781e+003,3.022601e+001
1.675745e+003,2.742944e+001
1.676709e+003,2.659174e+001
1.677674e+003,2.718420e+001
1.678638e+003,2.695508e+001
1.679602e+003,2.523193e+001
1.680566e+003,2.361273e+001
1.681531e+003,2.353491e+001
1.682495e+003,2.460028e+001
1.683459e+003,2.615930e+001
1.684423e+003,2.771533e+001
1.685387e+003,2.736212e+001
1.686352e+003,2.476215e+001
1.687316e+003,2.292664e+001
1.688280e+003,2.314154e+001
1.689244e+003,2.367096e+001
1.690208e+003,2.269885e+001
1.691173e+003,2.150873e+001
1.692137e+003,2.217511e+001
1.693101e+003,2.433148e+001
1.694065e+003,2.538489e+001
1.695030e+003,2.425964e+001
1.695994e+003,2.341052e+001
1.696958e+003,2.545685e+001
1.697922e+003,2.766748e+001
1.698887e+003,2.542615e+001
1.699851e+003,2.085120e+001
1.700815e+003,2.084772e+001
1.701779e+003,2.565704e+001
1.702744e+003,2.849121e+001
1.703708e+003,2.744244e+001
1.704672e+003,2.514221e+001
1.705636e+003,2.197455e+001
1.706601e+003,1.889862e+001
1.707565e+003,1.846057e+001
1.708529e+003,2.017157e+001
1.709493e+003,2.181757e+001
1.710458e+003,2.320074e+001
1.711422e+003,2.331989e+001
1.712386e+003,2.107178e+001
1.713350e+003,1.894586e+001
1.714314e+003,1.855048e+001
1.715279e+003,1.898181e+001
1.716243e+003,1.937659e+001
1.717207e+003,1.960767e+001
1.718171e+003,1.933014e+001
1.719135e+003,1.854523e+001
1.720100e+003,1.780975e+001
1.721064e+003,1.742712e+001
1.722028e+003,1.673749e+001
1.722992e+003,1.473767e+001
1.723957e+003,1.238672e+001
1.724921e+003,1.294501e+001
1.725885e+003,1.639246e+001
1.726849e+003,1.787799e+001
1.727814e+003,1.578308e+001
1.728778e+003,1.439722e+001
1.729742e+003,1.639667e+001
1.730706e+003,1.885455e+001
1.731671e+003,1.817255e+001
1.732635e+003,1.513275e+001
1.733599e+003,1.277161e+001
1.734563e+003,1.197589e+001
1.735528e+003,1.124438e+001
1.736492e+003,9.586243e+000
1.737456e+003,8.562500e+000
1.738420e+003,1.033356e+001
1.739385e+003,1.320880e+001
1.740349e+003,1.194342e+001
1.741313e+003,5.369019e+000
1.742277e+003,2.287842e+000
1.743241e+003,5.136963e+000
1.744206e+003,8.090942e+000
1.745170e+003,1.108405e+001
1.746134e+003,1.280524e+001
1.747098e+003,1.159003e+001
1.748063e+003,9.362549e+000
1.749027e+003,8.207581e+000
1.749991e+003,8.248047e+000
1.750955e+003,8.804077e+000
1.751919e+003,9.433960e+000
1.752884e+003,9.758240e+000
1.753848e+003,9.454895e+000
1.754812e+003,8.767700e+000
1.755776e+003,8.529114e+000
1.756741e+003,9.087646e+000
1.757705e+003,9.407654e+000
1.758669e+003,9.184998e+000
1.759633e+003,8.536743e+000
1.760598e+003,6.142761e+000
1.761562e+003,4.608765e+000
1.762526e+003,5.748718e+000
1.763490e+003,7.710144e+000
1.764455e+003,9.650085e+000
1.765419e+003,1.141583e+001
1.766383e+003,1.286597e+001
1.767347e+003,1.366425e+001
1.768312e+003,1.334174e+001
1.769276e+003,1.154626e+001
1.770240e+003,8.716064e+000
1.771204e+003,4.963623e+000
1.772168e+003,2.110291e+000
1.773133e+003,5.276550e+000
1.774097e+003,1.334351e+001
1.775061e+003,1.364288e+001
1.776025e+003,3.002747e+000
1.776990e+003,-3.810974e+000
1.777954e+003,9.643555e-003
1.778918e+003,5.920227e+000
1.779882e+003,8.113586e+000
1.780846e+003,7.857300e+000
1.781811e+003,7.156372e+000
1.782775e+003,6.117859e+000
1.783739e+003,4.334839e+000
1.784703e+003,1.700745e+000
1.785668e+003,6.580200e-001
1.786632e+003,2.893982e+000
1.787596e+003,5.046082e+000
1.788560e+003,4.943237e+000
1.789525e+003,4.210815e+000
1.790489e+003,4.064636e+000
1.791453e+003,4.627930e+000
1.792417e+003,7.249512e+000
1.793382e+003,1.177838e+001
1.794346e+003,1.382312e+001
1.795310e+003,1.079877e+001
1.796274e+003,6.990906e+000
1.797239e+003,7.782532e+000
1.798203e+003,1.192358e+001
1.799167e+003,1.375458e+001
1.800131e+003,1.203912e+001
1.801095e+003,1.009857e+001
1.802060e+003,8.602417e+000
1.803024e+003,7.547546e+000
1.803988e+003,7.062500e+000
1.804952e+003,6.236694e+000
1.805917e+003,3.532166e+000
1.806881e+003,1.190979e+000
1.807845e+003,2.326843e+000
1.808809e+003,5.602417e+000
1.809773e+003,7.823181e+000
1.810738e+003,8.240417e+000
1.811702e+003,8.082764e+000
1.812666e+003,8.106079e+000
1.813630e+003,8.578857e+000
1.814595e+003,1.016846e+001
1.815559e+003,1.200403e+001
1.816523e+003,1.036017e+001
1.817487e+003,4.809631e+000
1.818452e+003,2.197449e+000
1.819416e+003,4.616821e+000
1.820380e+003,5.912537e+000
1.821344e+003,2.495667e+000
1.822309e+003,-5.544434e-001
1.823273e+003,5.841064e-001
1.824237e+003,3.472168e+000
1.825201e+003,6.026184e+000
1.826166e+003,7.782959e+000
1.827130e+003,7.935120e+000
1.828094e+003,6.263062e+000
1.829058e+003,4.801758e+000
1.830022e+003,5.021545e+000
1.830987e+003,5.385742e+000
1.831951e+003,4.744141e+000
1.832915e+003,3.405029e+000
1.833879e+003,1.234985e+000
1.834844e+003,-1.208374e+000
1.835808e+003,-2.246277e+000
1.836772e+003,-1.662659e+000
1.837736e+003,-6.733398e-001
1.838700e+003,7.324219e-003
1.839665e+003,4.321289e-001
1.840629e+003,8.469238e-001
1.841593e+003,1.276184e+000
1.842557e+003,1.473267e+000
1.843522e+003,1.415161e+000
1.844486e+003,1.006104e+000
1.845450e+003,4.434204e-001
1.846414e+003,2.293701e-001
1.847379e+003,-1.101990e+000
1.848343e+003,-1.487183e+000
1.849307e+003,1.804016e+000
1.850271e+003,4.522461e+000
1.851236e+003,3.254089e+000
1.852200e+003,1.451416e-001
1.853164e+003,-3.121399e+000
1.854128e+003,-5.692505e+000
1.855093e+003,-4.893005e+000
1.856057e+003,2.197266e-002
1.857021e+003,3.683228e+000
1.857985e+003,1.036987e+000
1.858949e+003,-4.021729e+000
1.859914e+003,-4.450378e+000
1.860878e+003,-9.681396e-001
1.861842e+003,1.843628e+000
1.862806e+003,3.802429e+000
1.863771e+003,5.325439e+000
1.864735e+003,6.651672e+000
1.865699e+003,5.541687e+000
1.866663e+003,-2.664185e-001
1.867627e+003,-5.536255e+000
1.868592e+003,-5.241821e+000
1.869556e+003,-2.430542e+000
1.870520e+003,-2.321045e+000
1.871484e+003,-4.482849e+000
1.872449e+003,-5.640625e+000
1.873413e+003,-4.074646e+000
1.874377e+003,-2.081238e+000
1.875341e+003,-1.401489e+000
1.876306e+003,-1.154419e+000
1.877270e+003,-1.332642e+000
1.878234e+003,-1.573486e+000
1.879198e+003,-7.740479e-001
1.880163e+003,1.937866e-001
1.881127e+003,-7.778931e-001
1.882091e+003,-3.259216e+000
1.883055e+003,-4.653625e+000
1.884020e+003,-3.936890e+000
1.884984e+003,-2.200623e+000
1.885948e+003,-3.559570e-001
1.886912e+003,1.115173e+000
1.887876e+003,1.098877e+000
1.888841e+003,-1.556396e-001
1.889805e+003,-6.335449e-002
1.890769e+003,1.653748e+000
1.891733e+003,3.281799e+000
1.892698e+003,4.533813e+000
1.893662e+003,5.152466e+000
1.894626e+003,4.900146e+000
1.895590e+003,4.488647e+000
1.896554e+003,4.692688e+000
1.897519e+003,5.246399e+000
1.898483e+003,5.464355e+000
1.899447e+003,5.074280e+000
1.900411e+003,4.392090e+000
1.901376e+003,3.593506e+000
1.902340e+003,3.103821e+000
1.903304e+003,3.232971e+000
1.904268e+003,3.298035e+000
1.905233e+003,3.105164e+000
1.906197e+003,2.768738e+000
1.907161e+003,2.488281e+000
1.908125e+003,2.283813e+000
1.909090e+003,1.349609e+000
1.910054e+003,-7.781982e-002
1.911018e+003,2.537842e-001
1.911982e+003,2.943848e+000
1.912947e+003,4.991577e+000
1.913911e+003,4.073364e+000
1.914875e+003,1.823181e+000
1.915839e+003,5.022583e-001
1.916803e+003,-1.223145e-001
1.917768e+003,7.927856e-001
1.918732e+003,4.053101e+000
1.919696e+003,5.418701e+000
1.920660e+003,4.284912e+000
1.921625e+003,3.526489e+000
1.922589e+003,3.250671e+000
1.923553e+003,3.665405e+000
1.924517e+003,6.337585e+000
1.925481e+003,8.565552e+000
1.926446e+003,7.172607e+000
1.927410e+003,3.963806e+000
1.928374e+003,2.423279e+000
1.929338e+003,2.479370e+000
1.930303e+003,2.305847e+000
1.931267e+003,2.009644e+000
1.932231e+003,1.796753e+000
1.933195e+003,-2.404785e-002
1.934160e+003,-5.823364e-001
1.935124e+003,4.410645e+000
1.936088e+003,9.833618e+000
1.937052e+003,8.877258e+000
1.938017e+003,4.112793e+000
1.938981e+003,1.825012e+000
1.939945e+003,2.650391e+000
1.940909e+003,2.970581e+000
1.941874e+003,1.078064e+000
1.942838e+003,-1.349182e+000
1.943802e+003,-2.463501e+000
1.944766e+003,-1.927002e+000
1.945730e+003,4.365234e-001
1.946695e+003,4.000000e+000
1.947659e+003,5.993164e+000
1.948623e+003,6.252197e+000
1.949587e+003,5.369141e+000
1.950552e+003,3.143188e+000
1.951516e+003,1.870422e+000
1.952480e+003,2.669556e+000
1.953444e+003,3.730286e+000
1.954408e+003,3.258667e+000
1.955373e+003,2.369934e+000
1.956337e+003,3.956238e+000
1.957301e+003,7.263489e+000
1.958265e+003,7.697449e+000
1.959230e+003,4.783447e+000
1.960194e+003,2.751709e+000
1.961158e+003,1.755493e+000
1.962122e+003,8.970337e-001
1.963087e+003,9.002686e-002
1.964051e+003,-5.678101e-001
1.965015e+003,-9.489746e-001
1.965979e+003,-4.301147e-001
1.966944e+003,1.935486e+000
1.967908e+003,4.703186e+000
1.968872e+003,5.542847e+000
1.969836e+003,4.536377e+000
1.970801e+003,3.369873e+000
1.971765e+003,2.893250e+000
1.972729e+003,3.460266e+000
1.973693e+003,5.502930e+000
1.974657e+003,8.187683e+000
1.975622e+003,1.086285e+001
1.976586e+003,1.269910e+001
1.977550e+003,1.096887e+001
1.978514e+003,6.700195e+000
1.979479e+003,5.292847e+000
1.980443e+003,7.281433e+000
1.981407e+003,8.740784e+000
1.982371e+003,8.354065e+000
1.983335e+003,8.022095e+000
1.984300e+003,9.003601e+000
1.985264e+003,1.009314e+001
1.986228e+003,9.706604e+000
1.987192e+003,8.078430e+000
1.988157e+003,6.412659e+000
1.989121e+003,4.659851e+000
1.990085e+003,4.072815e+000
1.991049e+003,5.502686e+000
1.992014e+003,6.879639e+000
1.992978e+003,7.777649e+000
1.993942e+003,8.352295e+000
1.994906e+003,9.332886e+000
1.995871e+003,9.372375e+000
1.996835e+003,6.217590e+000
1.997799e+003,2.522034e+000
1.998763e+003,2.332886e+000
1.999728e+003,4.896545e+000
