5.003444e+002,4.666615e+001
5.013087e+002,4.740796e+001
5.022729e+002,4.562643e+001
5.032371e+002,4.234554e+001
5.042014e+002,4.076401e+001
5.051656e+002,4.066814e+001
5.061298e+002,4.096774e+001
5.070941e+002,4.060580e+001
5.080583e+002,3.920738e+001
5.090225e+002,3.901974e+001
5.099868e+002,4.123820e+001
5.109510e+002,4.303633e+001
5.119152e+002,4.272215e+001
5.128795e+002,4.010233e+001
5.138437e+002,3.768158e+001
5.148079e+002,3.645297e+001
5.157722e+002,3.552504e+001
5.167364e+002,3.444485e+001
5.177006e+002,3.317390e+001
5.186649e+002,3.210936e+001
5.196291e+002,3.225876e+001
5.205933e+002,3.278464e+001
5.215576e+002,3.230527e+001
5.225218e+002,3.072942e+001
5.234860e+002,2.888811e+001
5.244503e+002,2.842171e+001
5.254145e+002,3.005446e+001
5.263787e+002,3.096799e+001
5.273430e+002,3.053929e+001
5.283072e+002,2.981503e+001
5.292714e+002,3.044505e+001
5.302357e+002,3.369052e+001
5.311999e+002,3.500052e+001
5.321641e+002,3.313248e+001
5.331284e+002,3.035934e+001
5.340926e+002,2.826099e+001
5.350568e+002,2.736021e+001
5.360211e+002,2.684877e+001
5.369853e+002,2.626654e+001
5.379495e+002,2.573541e+001
5.389138e+002,2.513411e+001
5.398780e+002,2.448743e+001
5.408422e+002,2.411868e+001
5.418065e+002,2.548204e+001
5.427707e+002,2.822940e+001
5.437349e+002,2.966922e+001
5.446992e+002,2.879352e+001
5.456634e+002,2.628035e+001
5.466276e+002,2.457335e+001
5.475919e+002,2.495050e+001
5.485561e+002,2.467380e+001
5.495203e+002,2.290396e+001
5.504846e+002,2.057671e+001
5.514488e+002,1.910034e+001
5.524130e+002,1.923041e+001
5.533773e+002,1.991733e+001
5.543415e+002,2.088341e+001
5.553057e+002,2.181921e+001
5.562700e+002,2.244930e+001
5.572342e+002,2.258545e+001
5.581984e+002,2.218781e+001
5.591627e+002,2.097487e+001
5.601269e+002,1.934621e+001
5.610911e+002,1.791377e+001
5.620554e+002,1.694011e+001
5.630196e+002,1.639336e+001
5.639838e+002,1.643599e+001
5.649481e+002,1.759743e+001
5.659123e+002,1.858376e+001
5.668765e+002,1.983061e+001
5.678408e+002,2.094891e+001
5.688050e+002,2.045859e+001
5.697692e+002,1.589607e+001
5.707335e+002,1.223239e+001
5.716977e+002,1.163753e+001
5.726619e+002,1.265450e+001
5.736262e+002,1.315649e+001
5.745904e+002,1.158980e+001
5.755546e+002,9.647705e+000
5.765189e+002,1.015681e+001
5.774831e+002,1.203302e+001
5.784473e+002,1.355804e+001
5.794116e+002,1.360948e+001
5.803758e+002,1.241713e+001
5.813400e+002,1.194841e+001
5.823043e+002,1.227869e+001
5.832685e+002,1.244394e+001
5.842327e+002,1.207120e+001
5.851970e+002,1.134631e+001
5.861612e+002,1.102876e+001
5.871254e+002,1.146861e+001
5.880897e+002,1.192360e+001
5.890539e+002,1.197954e+001
5.900181e+002,1.194698e+001
5.909824e+002,1.258856e+001
5.919466e+002,1.489363e+001
5.929108e+002,1.688931e+001
5.938751e+002,1.647766e+001
5.948393e+002,1.452910e+001
5.958035e+002,1.223286e+001
5.967678e+002,1.048299e+001
5.977320e+002,9.302185e+000
5.986962e+002,8.574493e+000
5.996605e+002,8.129852e+000
6.006247e+002,7.860184e+000
6.015889e+002,7.939148e+000
6.025532e+002,8.320206e+000
6.035174e+002,8.134720e+000
6.044816e+002,6.003281e+000
6.054459e+002,4.876297e+000
6.064101e+002,5.802505e+000
6.073743e+002,7.918365e+000
6.083386e+002,9.716934e+000
6.093028e+002,1.053831e+001
6.102670e+002,1.062929e+001
6.112313e+002,9.672440e+000
6.121955e+002,8.457855e+000
6.131597e+002,8.259399e+000
6.141240e+002,9.900772e+000
6.150882e+002,1.258342e+001
6.160524e+002,1.267268e+001
6.170167e+002,1.069559e+001
6.179809e+002,8.529190e+000
6.189451e+002,6.801361e+000
6.199094e+002,5.477798e+000
6.208736e+002,4.685104e+000
6.218378e+002,5.425552e+000
6.228021e+002,5.772079e+000
6.237663e+002,4.968674e+000
6.247305e+002,3.855591e+000
6.256948e+002,3.937454e+000
6.266590e+002,6.344421e+000
6.276232e+002,8.468521e+000
6.285875e+002,8.590317e+000
6.295517e+002,7.880081e+000
6.305159e+002,7.536652e+000
6.314802e+002,8.174515e+000
6.324444e+002,9.241394e+000
6.334086e+002,9.426514e+000
6.343729e+002,9.007568e+000
6.353371e+002,8.114609e+000
6.363013e+002,6.639404e+000
6.372656e+002,4.838242e+000
6.382298e+002,3.722183e+000
6.391940e+002,3.951004e+000
6.401583e+002,4.011063e+000
6.411225e+002,3.992950e+000
6.420867e+002,3.954758e+000
6.430510e+002,3.898102e+000
6.440152e+002,3.755478e+000
6.449794e+002,3.431290e+000
6.459437e+002,2.684845e+000
6.469079e+002,1.917191e+000
6.478721e+002,1.644058e+000
6.488364e+002,1.967834e+000
6.498006e+002,2.309357e+000
6.507648e+002,1.159241e+000
6.517291e+002,-7.819824e-001
6.526933e+002,-1.651047e+000
6.536575e+002,-1.078003e+000
6.546218e+002,4.510498e-001
6.555860e+002,2.094131e+000
6.565502e+002,4.394257e+000
6.575145e+002,5.364700e+000
6.584787e+002,4.273972e+000
6.594429e+002,2.652176e+000
6.604072e+002,1.723755e+000
6.613714e+002,1.725555e+000
6.623356e+002,1.629364e+000
6.632999e+002,4.022522e-001
6.642641e+002,-7.182312e-001
6.652283e+002,-7.403717e-001
6.661926e+002,2.283325e-001
6.671568e+002,1.177277e+000
6.681210e+002,6.823273e-001
6.690853e+002,-6.318207e-001
6.700495e+002,-9.815063e-001
6.710137e+002,-3.500977e-001
6.719780e+002,7.924805e-001
6.729422e+002,1.997681e+000
6.739064e+002,3.305573e+000
6.748707e+002,4.104065e+000
6.758349e+002,4.617462e+000
6.767991e+002,4.524261e+000
6.777634e+002,3.351028e+000
6.787276e+002,1.377701e+000
6.796918e+002,8.554077e-002
6.806561e+002,4.303436e-001
6.816203e+002,9.748840e-001
6.825845e+002,1.358002e+000
6.835488e+002,1.518875e+000
6.845130e+002,1.417038e+000
6.854772e+002,1.004715e+000
6.864415e+002,5.708008e-001
6.874057e+002,6.871033e-001
6.883699e+002,1.073380e+000
6.893342e+002,1.223587e+000
6.902984e+002,8.529968e-001
6.912626e+002,1.217041e-001
6.922269e+002,-6.663513e-002
6.931911e+002,1.116196e+000
6.941553e+002,1.995331e+000
6.951196e+002,2.059631e+000
6.960838e+002,1.709457e+000
6.970480e+002,1.679382e+000
6.980123e+002,2.298126e+000
6.989765e+002,2.929398e+000
6.999407e+002,3.295685e+000
7.009050e+002,3.537079e+000
7.018692e+002,3.828217e+000
7.028334e+002,4.177490e+000
7.037977e+002,4.315674e+000
7.047619e+002,3.674042e+000
7.057261e+002,2.673157e+000
7.066904e+002,1.977951e+000
7.076546e+002,1.692200e+000
7.086188e+002,1.764114e+000
7.095831e+002,2.172577e+000
7.105473e+002,3.182465e+000
7.115115e+002,3.422516e+000
7.124758e+002,2.523148e+000
7.134400e+002,1.341583e+000
7.144042e+002,1.881409e-001
7.153685e+002,-8.420868e-001
7.163327e+002,-1.237610e+000
7.172969e+002,-1.460114e-001
7.182612e+002,1.146729e+000
7.192254e+002,2.399307e+000
7.201896e+002,3.365906e+000
7.211539e+002,3.672653e+000
7.221181e+002,2.924423e+000
7.230823e+002,1.673050e+000
7.240466e+002,1.772568e+000
7.250108e+002,2.901306e+000
7.259750e+002,3.207092e+000
7.269393e+002,1.271759e+000
7.279035e+002,-2.522705e+000
7.288677e+002,-4.152206e+000
7.298320e+002,-4.017487e-001
7.307962e+002,1.942764e+000
7.317604e+002,1.397705e+000
7.327247e+002,-3.499146e-001
7.336889e+002,-9.525146e-001
7.346531e+002,3.339386e-001
7.356174e+002,1.619415e+000
7.365816e+002,2.367538e+000
7.375458e+002,2.678146e+000
7.385101e+002,2.429001e+000
7.394743e+002,1.690689e+000
7.404385e+002,7.547760e-001
7.414028e+002,-1.106567e-001
7.423670e+002,-9.340210e-001
7.433312e+002,-1.084976e+000
7.442955e+002,-3.326111e-001
7.452597e+002,8.849487e-001
7.462239e+002,2.095062e+000
7.471882e+002,3.348007e+000
7.481524e+002,4.093323e+000
7.491166e+002,3.595551e+000
7.500809e+002,3.235870e+000
7.510451e+002,4.089767e+000
7.520093e+002,5.622025e+000
7.529736e+002,5.764481e+000
7.539378e+002,2.463791e+000
7.549020e+002,-4.809113e-001
7.558663e+002,-4.750214e-001
7.568306e+002,1.232635e+000
7.577948e+002,3.017166e+000
7.587590e+002,3.831085e+000
7.597233e+002,3.855820e+000
7.606875e+002,3.770447e+000
7.616517e+002,3.640823e+000
7.626160e+002,3.023911e+000
7.635802e+002,1.472046e+000
7.645444e+002,-2.454529e-001
7.655087e+002,-3.164978e-001
7.664729e+002,2.666931e+000
7.674371e+002,4.086304e+000
7.684014e+002,2.514618e+000
7.693656e+002,6.174622e-001
7.703298e+002,-3.089905e-002
7.712941e+002,8.108978e-001
7.722583e+002,2.462250e+000
7.732225e+002,5.433197e+000
7.741868e+002,8.032028e+000
7.751510e+002,8.580002e+000
7.761152e+002,7.602386e+000
7.770795e+002,6.535431e+000
7.780437e+002,6.634979e+000
7.790079e+002,7.671417e+000
7.799722e+002,7.926483e+000
7.809364e+002,7.528671e+000
7.819006e+002,6.484543e+000
7.828649e+002,4.274506e+000
7.838291e+002,1.490494e+000
7.847933e+002,9.613037e-003
7.857576e+002,4.940186e-001
7.867218e+002,1.103210e+000
7.876860e+002,1.495087e+000
7.886503e+002,2.030273e+000
7.896145e+002,3.266830e+000
7.905787e+002,5.251785e+000
7.915430e+002,6.975784e+000
7.925072e+002,6.904495e+000
7.934714e+002,6.028259e+000
7.944357e+002,5.475967e+000
7.953999e+002,5.402267e+000
7.963641e+002,5.537003e+000
7.973284e+002,5.547470e+000
7.982926e+002,5.436523e+000
7.992568e+002,5.122116e+000
8.002211e+002,4.326035e+000
8.011853e+002,3.433884e+000
8.021495e+002,2.592972e+000
8.031138e+002,2.013931e+000
8.040780e+002,2.027985e+000
8.050422e+002,2.823456e+000
8.060065e+002,3.777084e+000
8.069707e+002,5.017319e+000
8.079349e+002,5.988342e+000
8.088992e+002,5.952911e+000
8.098634e+002,4.809738e+000
8.108276e+002,3.578110e+000
8.117919e+002,3.705063e+000
8.127561e+002,4.604523e+000
8.137203e+002,5.779022e+000
8.146846e+002,7.220551e+000
8.156488e+002,7.918884e+000
8.166130e+002,6.282516e+000
8.175773e+002,1.444733e+000
8.185415e+002,-5.924530e-001
8.195057e+002,1.724335e+000
8.204700e+002,4.142761e+000
8.214342e+002,5.420471e+000
8.223984e+002,5.726791e+000
8.233627e+002,5.638199e+000
8.243269e+002,5.119370e+000
8.252911e+002,4.764328e+000
8.262554e+002,5.319473e+000
8.272196e+002,5.934830e+000
8.281838e+002,5.370804e+000
8.291481e+002,3.395569e+000
8.301123e+002,1.298691e+000
8.310765e+002,1.626083e+000
8.320408e+002,4.076401e+000
8.330050e+002,4.836334e+000
8.339692e+002,3.373123e+000
8.349335e+002,1.347031e+000
8.358977e+002,2.532654e-001
8.368619e+002,1.202698e-001
8.378262e+002,1.134979e+000
8.387904e+002,5.150757e+000
8.397546e+002,8.000351e+000
8.407189e+002,8.366150e+000
8.416831e+002,6.948654e+000
8.426473e+002,4.852493e+000
8.436116e+002,2.335556e+000
8.445758e+002,2.891998e-001
8.455400e+002,-5.886230e-001
8.465043e+002,-6.301727e-001
8.474685e+002,2.988739e-001
8.484327e+002,2.143051e+000
8.493970e+002,4.396698e+000
8.503612e+002,6.134308e+000
8.513254e+002,7.315109e+000
8.522897e+002,7.243332e+000
8.532539e+002,4.679352e+000
8.542181e+002,2.484924e+000
8.551824e+002,2.714264e+000
8.561466e+002,5.173569e+000
8.571108e+002,7.468674e+000
8.580751e+002,8.983582e+000
8.590393e+002,9.918228e+000
8.600035e+002,1.024747e+001
8.609678e+002,1.028764e+001
8.619320e+002,1.019633e+001
8.628962e+002,1.007523e+001
8.638605e+002,1.023679e+001
8.648247e+002,1.154396e+001
8.657889e+002,1.336157e+001
8.667532e+002,1.432140e+001
8.677174e+002,1.424240e+001
8.686816e+002,1.367203e+001
8.696459e+002,1.317667e+001
8.706101e+002,1.275745e+001
8.715743e+002,1.286511e+001
8.725386e+002,1.409212e+001
8.735028e+002,1.506532e+001
8.744670e+002,1.503778e+001
8.754313e+002,1.447995e+001
8.763955e+002,1.445645e+001
8.773597e+002,1.551698e+001
8.783240e+002,1.661757e+001
8.792882e+002,1.671796e+001
8.802524e+002,1.660284e+001
8.812167e+002,1.700557e+001
8.821809e+002,1.804164e+001
8.831451e+002,1.935693e+001
8.841094e+002,2.052966e+001
8.850736e+002,2.160620e+001
8.860378e+002,2.244772e+001
8.870021e+002,2.301392e+001
8.879663e+002,2.335060e+001
8.889305e+002,2.332370e+001
8.898948e+002,2.298984e+001
8.908590e+002,2.277464e+001
8.918232e+002,2.259564e+001
8.927875e+002,2.296498e+001
8.937517e+002,2.453691e+001
8.947159e+002,2.623921e+001
8.956802e+002,2.702496e+001
8.966444e+002,2.669121e+001
8.976086e+002,2.599883e+001
8.985729e+002,2.562302e+001
8.995371e+002,2.569942e+001
9.005013e+002,2.644289e+001
9.014656e+002,2.774605e+001
9.024298e+002,2.891180e+001
9.033940e+002,2.931549e+001
9.043583e+002,2.901714e+001
9.053225e+002,2.915018e+001
9.062867e+002,3.067662e+001
9.072510e+002,3.117615e+001
9.082152e+002,3.028989e+001
9.091794e+002,2.878168e+001
9.101437e+002,2.710352e+001
9.111079e+002,2.530493e+001
9.120721e+002,2.407832e+001
9.130364e+002,2.426250e+001
9.140006e+002,2.464005e+001
9.149648e+002,2.428020e+001
9.159291e+002,2.370688e+001
9.168933e+002,2.432117e+001
9.178575e+002,2.700586e+001
9.188218e+002,3.054657e+001
9.197860e+002,3.037260e+001
9.207502e+002,2.632716e+001
9.217145e+002,2.370886e+001
9.226787e+002,2.429047e+001
9.236429e+002,2.618723e+001
9.246072e+002,2.668358e+001
9.255714e+002,2.532410e+001
9.265356e+002,2.460649e+001
9.274999e+002,2.564986e+001
9.284641e+002,2.653221e+001
9.294283e+002,2.688214e+001
9.303926e+002,2.660197e+001
9.313568e+002,2.545242e+001
9.323210e+002,2.323320e+001
9.332853e+002,2.084525e+001
9.342495e+002,1.981827e+001
9.352137e+002,1.958087e+001
9.361780e+002,1.955112e+001
9.371422e+002,1.965909e+001
9.381064e+002,2.000128e+001
9.390707e+002,2.070174e+001
9.400349e+002,2.184915e+001
9.409991e+002,2.201627e+001
9.419634e+002,2.031934e+001
9.429276e+002,1.886717e+001
9.438918e+002,1.835313e+001
9.448561e+002,1.841716e+001
9.458203e+002,1.829756e+001
9.467845e+002,1.767751e+001
9.477488e+002,1.758287e+001
9.487130e+002,1.983694e+001
9.496772e+002,2.214699e+001
9.506415e+002,2.230345e+001
9.516057e+002,2.050562e+001
9.525699e+002,1.864714e+001
9.535342e+002,1.858705e+001
9.544984e+002,1.996648e+001
9.554626e+002,1.982133e+001
9.564269e+002,1.792982e+001
9.573911e+002,1.659508e+001
9.583553e+002,1.677661e+001
9.593196e+002,1.765294e+001
9.602838e+002,1.787257e+001
9.612480e+002,1.719238e+001
9.622123e+002,1.651590e+001
9.631765e+002,1.599010e+001
9.641407e+002,1.569830e+001
9.651050e+002,1.591110e+001
9.660692e+002,1.630156e+001
9.670334e+002,1.622011e+001
9.679977e+002,1.529884e+001
9.689619e+002,1.415839e+001
9.699261e+002,1.370541e+001
9.708904e+002,1.388498e+001
9.718546e+002,1.523067e+001
9.728188e+002,1.797325e+001
9.737831e+002,2.131017e+001
9.747473e+002,2.454716e+001
9.757115e+002,2.799661e+001
9.766758e+002,2.973022e+001
9.776400e+002,2.841162e+001
9.786042e+002,2.716798e+001
9.795685e+002,2.700960e+001
9.805327e+002,2.707793e+001
9.814969e+002,2.603255e+001
9.824612e+002,2.348508e+001
9.834254e+002,2.092403e+001
9.843896e+002,2.011888e+001
9.853539e+002,1.970465e+001
9.863181e+002,1.802953e+001
9.872823e+002,1.516609e+001
9.882466e+002,1.227409e+001
9.892108e+002,1.042461e+001
9.901750e+002,9.639252e+000
9.911393e+002,9.254745e+000
9.921035e+002,9.386475e+000
9.930677e+002,9.237991e+000
9.940320e+002,8.212509e+000
9.949962e+002,7.506927e+000
9.959604e+002,8.554932e+000
9.969247e+002,1.137206e+001
9.978889e+002,1.388469e+001
9.988531e+002,1.487820e+001
9.998174e+002,1.530423e+001
1.000782e+003,1.619919e+001
1.001746e+003,1.696967e+001
1.002710e+003,1.627641e+001
1.003674e+003,1.374580e+001
1.004639e+003,1.086292e+001
1.005603e+003,1.036058e+001
1.006567e+003,1.248726e+001
1.007531e+003,1.356775e+001
1.008495e+003,1.345753e+001
1.009460e+003,1.273534e+001
1.010424e+003,1.150665e+001
1.011388e+003,9.942749e+000
1.012352e+003,8.634308e+000
1.013317e+003,7.495285e+000
1.014281e+003,6.878815e+000
1.015245e+003,6.933365e+000
1.016209e+003,7.275665e+000
1.017174e+003,7.866440e+000
1.018138e+003,8.531998e+000
1.019102e+003,8.949982e+000
1.020066e+003,8.884567e+000
1.021031e+003,8.430908e+000
1.021995e+003,7.694839e+000
1.022959e+003,6.621292e+000
1.023923e+003,5.047302e+000
1.024887e+003,2.628952e+000
1.025852e+003,1.507263e-001
1.026816e+003,-1.124161e+000
1.027780e+003,-1.000687e+000
1.028744e+003,-2.440491e-001
1.029709e+003,2.376297e+000
1.030673e+003,4.080063e+000
1.031637e+003,3.327820e+000
1.032601e+003,1.393768e+000
1.033566e+003,1.669312e-002
1.034530e+003,-1.545563e-001
1.035494e+003,4.414825e-001
1.036458e+003,1.920074e+000
1.037422e+003,3.388168e+000
1.038387e+003,3.056595e+000
1.039351e+003,1.066437e+000
1.040315e+003,-7.093506e-001
1.041279e+003,-7.406006e-001
1.042244e+003,4.961243e-001
1.043208e+003,3.495941e-001
1.044172e+003,-3.304535e+000
1.045136e+003,-4.730896e+000
1.046101e+003,-2.345047e+000
1.047065e+003,7.427673e-001
1.048029e+003,2.921356e+000
1.048993e+003,4.014725e+000
1.049958e+003,4.127548e+000
1.050922e+003,2.967911e+000
1.051886e+003,1.866653e+000
1.052850e+003,2.998901e+000
1.053814e+003,4.609253e+000
1.054779e+003,3.768417e+000
1.055743e+003,1.809540e-001
1.056707e+003,-3.301529e+000
1.057671e+003,-3.132843e+000
1.058636e+003,7.004089e-001
1.059600e+003,2.608398e+000
1.060564e+003,9.941101e-001
1.061528e+003,1.057892e-001
1.062493e+003,9.938202e-001
1.063457e+003,2.368530e+000
1.064421e+003,2.964859e+000
1.065385e+003,2.662003e+000
1.066349e+003,1.806046e+000
1.067314e+003,-3.935394e-001
1.068278e+003,-1.875015e+000
1.069242e+003,-4.026337e-001
1.070206e+003,2.473038e+000
1.071171e+003,4.152740e+000
1.072135e+003,3.574814e+000
1.073099e+003,1.938065e+000
1.074063e+003,1.316940e+000
1.075028e+003,1.853073e+000
1.075992e+003,2.253830e+000
1.076956e+003,2.462082e+000
1.077920e+003,2.530304e+000
1.078885e+003,2.658249e+000
1.079849e+003,2.715347e+000
1.080813e+003,2.319305e+000
1.081777e+003,1.339294e+000
1.082741e+003,4.439392e-001
1.083706e+003,-2.989655e-001
1.084670e+003,-7.826080e-001
1.085634e+003,-7.654724e-001
1.086598e+003,-4.514160e-001
1.087563e+003,-8.938599e-002
1.088527e+003,1.816711e-001
1.089491e+003,2.229462e-001
1.090455e+003,-4.426727e-001
1.091420e+003,-1.980103e+000
1.092384e+003,-2.979462e+000
1.093348e+003,-3.732956e+000
1.094312e+003,-3.603012e+000
1.095276e+003,-1.419083e+000
1.096241e+003,2.008072e+000
1.097205e+003,3.972473e+000
1.098169e+003,3.800903e+000
1.099133e+003,3.009048e+000
1.100098e+003,1.290253e+000
1.101062e+003,6.053162e-002
1.102026e+003,7.208252e-001
1.102990e+003,2.603363e+000
1.103955e+003,3.998489e+000
1.104919e+003,3.858719e+000
1.105883e+003,2.867508e+000
1.106847e+003,2.534042e+000
1.107812e+003,2.860321e+000
1.108776e+003,2.826675e+000
1.109740e+003,2.098785e+000
1.110704e+003,1.617523e+000
1.111668e+003,2.753906e+000
1.112633e+003,4.915344e+000
1.113597e+003,4.920868e+000
1.114561e+003,1.024124e+000
1.115525e+003,-1.758514e+000
1.116490e+003,-1.582657e+000
1.117454e+003,-2.933502e-001
1.118418e+003,1.716995e+000
1.119382e+003,3.833084e+000
1.120347e+003,5.106888e+000
1.121311e+003,4.894760e+000
1.122275e+003,3.520309e+000
1.123239e+003,1.417984e+000
1.124203e+003,-1.089157e+000
1.125168e+003,-1.484955e+000
1.126132e+003,1.395645e+000
1.127096e+003,3.915726e+000
1.128060e+003,2.358780e+000
1.129025e+003,-2.145920e+000
1.129989e+003,-3.771332e+000
1.130953e+003,-6.068726e-001
1.131917e+003,1.880096e+000
1.132882e+003,1.537704e+000
1.133846e+003,8.942413e-001
1.134810e+003,1.579163e+000
1.135774e+003,3.279373e+000
1.136739e+003,4.816559e+000
1.137703e+003,5.518433e+000
1.138667e+003,5.794830e+000
1.139631e+003,6.367508e+000
1.140595e+003,7.181976e+000
1.141560e+003,7.676071e+000
1.142524e+003,7.538742e+000
1.143488e+003,8.343231e+000
1.144452e+003,1.189612e+001
1.145417e+003,1.724229e+001
1.146381e+003,2.079419e+001
1.147345e+003,2.185704e+001
1.148309e+003,2.258423e+001
1.149274e+003,2.259933e+001
1.150238e+003,2.343990e+001
1.151202e+003,2.640846e+001
1.152166e+003,3.075676e+001
1.153130e+003,3.526892e+001
1.154095e+003,3.921230e+001
1.155059e+003,4.218335e+001
1.156023e+003,4.382005e+001
1.156987e+003,4.396352e+001
1.157952e+003,4.207802e+001
1.158916e+003,3.791408e+001
1.159880e+003,3.399104e+001
1.160844e+003,3.165845e+001
1.161809e+003,3.019690e+001
1.162773e+003,2.831715e+001
1.163737e+003,2.605074e+001
1.164701e+003,2.322452e+001
1.165666e+003,1.833510e+001
1.166630e+003,1.453667e+001
1.167594e+003,1.365967e+001
1.168558e+003,1.429558e+001
1.169522e+003,1.476721e+001
1.170487e+003,1.439320e+001
1.171451e+003,1.318936e+001
1.172415e+003,1.097408e+001
1.173379e+003,8.124451e+000
1.174344e+003,6.851166e+000
1.175308e+003,7.192200e+000
1.176272e+003,7.713516e+000
1.177236e+003,8.344086e+000
1.178201e+003,8.688309e+000
1.179165e+003,7.780945e+000
1.180129e+003,5.538284e+000
1.181093e+003,4.570068e+000
1.182057e+003,6.930695e+000
1.183022e+003,8.408127e+000
1.183986e+003,6.647461e+000
1.184950e+003,3.951859e+000
1.185914e+003,2.562851e+000
1.186879e+003,2.669571e+000
1.187843e+003,2.936417e+000
1.188807e+003,2.238342e+000
1.189771e+003,1.070816e+000
1.190736e+003,1.072983e+000
1.191700e+003,2.356323e+000
1.192664e+003,3.753647e+000
1.193628e+003,6.004425e+000
1.194593e+003,7.362000e+000
1.195557e+003,5.875046e+000
1.196521e+003,2.421906e+000
1.197485e+003,1.487732e-001
1.198449e+003,-3.105927e-001
1.199414e+003,-5.638123e-002
1.200378e+003,1.516479e+000
1.201342e+003,2.648743e+000
1.202306e+003,1.442673e+000
1.203271e+003,-1.033157e+000
1.204235e+003,-2.265900e+000
1.205199e+003,-1.100113e+000
1.206163e+003,1.085434e+000
1.207128e+003,2.049545e+000
1.208092e+003,1.759598e+000
1.209056e+003,-1.295471e-002
1.210020e+003,-4.339691e+000
1.210984e+003,-7.747437e+000
1.211949e+003,-9.070557e+000
1.212913e+003,-9.100037e+000
1.213877e+003,-8.318741e+000
1.214841e+003,-6.845688e+000
1.215806e+003,-6.491608e+000
1.216770e+003,-8.621750e+000
1.217734e+003,-1.105458e+001
1.218698e+003,-1.269598e+001
1.219663e+003,-1.355862e+001
1.220627e+003,-1.322136e+001
1.221591e+003,-1.194844e+001
1.222555e+003,-1.103174e+001
1.223520e+003,-1.168735e+001
1.224484e+003,-1.343993e+001
1.225448e+003,-1.412918e+001
1.226412e+003,-1.292456e+001
1.227376e+003,-1.254643e+001
1.228341e+003,-1.407649e+001
1.229305e+003,-1.524178e+001
1.230269e+003,-1.430588e+001
1.231233e+003,-1.227745e+001
1.232198e+003,-1.139424e+001
1.233162e+003,-1.225850e+001
1.234126e+003,-1.302298e+001
1.235090e+003,-1.200090e+001
1.236055e+003,-1.069513e+001
1.237019e+003,-1.103284e+001
1.237983e+003,-1.242407e+001
1.238947e+003,-1.295836e+001
1.239911e+003,-1.182385e+001
1.240876e+003,-1.044006e+001
1.241840e+003,-1.108928e+001
1.242804e+003,-1.392854e+001
1.243768e+003,-1.578960e+001
1.244733e+003,-1.653840e+001
1.245697e+003,-1.630530e+001
1.246661e+003,-1.403035e+001
1.247625e+003,-1.185257e+001
1.248590e+003,-1.157768e+001
1.249554e+003,-1.273708e+001
1.250518e+003,-1.367089e+001
1.251482e+003,-1.369132e+001
1.252447e+003,-1.312121e+001
1.253411e+003,-1.192493e+001
1.254375e+003,-1.050583e+001
1.255339e+003,-9.889206e+000
1.256303e+003,-1.005177e+001
1.257268e+003,-1.009778e+001
1.258232e+003,-9.472397e+000
1.259196e+003,-8.660812e+000
1.260160e+003,-8.680237e+000
1.261125e+003,-9.691986e+000
1.262089e+003,-1.013132e+001
1.263053e+003,-9.172592e+000
1.264017e+003,-8.597488e+000
1.264982e+003,-9.377197e+000
1.265946e+003,-1.026646e+001
1.266910e+003,-9.738724e+000
1.267874e+003,-8.080963e+000
1.268839e+003,-7.045685e+000
1.269803e+003,-7.805328e+000
1.270767e+003,-9.333191e+000
1.271731e+003,-9.674057e+000
1.272695e+003,-8.780014e+000
1.273660e+003,-7.573502e+000
1.274624e+003,-5.751282e+000
1.275588e+003,-4.788742e+000
1.276552e+003,-6.139282e+000
1.277517e+003,-8.479858e+000
1.278481e+003,-9.265732e+000
1.279445e+003,-8.269257e+000
1.280409e+003,-7.374420e+000
1.281374e+003,-6.755890e+000
1.282338e+003,-6.977875e+000
1.283302e+003,-9.226440e+000
1.284266e+003,-1.185394e+001
1.285230e+003,-1.281244e+001
1.286195e+003,-1.202114e+001
1.287159e+003,-1.094610e+001
1.288123e+003,-1.076161e+001
1.289087e+003,-1.119748e+001
1.290052e+003,-1.157029e+001
1.291016e+003,-1.197573e+001
1.291980e+003,-1.211893e+001
1.292944e+003,-1.162674e+001
1.293909e+003,-1.148697e+001
1.294873e+003,-1.224040e+001
1.295837e+003,-1.336906e+001
1.296801e+003,-1.432121e+001
1.297766e+003,-1.497098e+001
1.298730e+003,-1.511057e+001
1.299694e+003,-1.455430e+001
1.300658e+003,-1.366371e+001
1.301622e+003,-1.223238e+001
1.302587e+003,-1.091997e+001
1.303551e+003,-1.135705e+001
1.304515e+003,-1.357831e+001
1.305479e+003,-1.518768e+001
1.306444e+003,-1.412521e+001
1.307408e+003,-1.130717e+001
1.308372e+003,-9.725937e+000
1.309336e+003,-9.652786e+000
1.310301e+003,-1.004110e+001
1.311265e+003,-1.181047e+001
1.312229e+003,-1.274150e+001
1.313193e+003,-1.140221e+001
1.314157e+003,-9.444916e+000
1.315122e+003,-8.741608e+000
1.316086e+003,-9.371552e+000
1.317050e+003,-1.004681e+001
1.318014e+003,-9.906311e+000
1.318979e+003,-9.241486e+000
1.319943e+003,-8.446915e+000
1.320907e+003,-7.578873e+000
1.321871e+003,-7.257065e+000
1.322836e+003,-7.621017e+000
1.323800e+003,-8.435730e+000
1.324764e+003,-1.011856e+001
1.325728e+003,-1.187545e+001
1.326693e+003,-1.199014e+001
1.327657e+003,-1.041273e+001
1.328621e+003,-9.988686e+000
1.329585e+003,-1.225118e+001
1.330549e+003,-1.407419e+001
1.331514e+003,-1.383390e+001
1.332478e+003,-1.276499e+001
1.333442e+003,-1.178684e+001
1.334406e+003,-1.105047e+001
1.335371e+003,-1.040354e+001
1.336335e+003,-9.758102e+000
1.337299e+003,-9.225449e+000
1.338263e+003,-9.057549e+000
1.339228e+003,-9.310425e+000
1.340192e+003,-9.372971e+000
1.341156e+003,-8.972015e+000
1.342120e+003,-8.800438e+000
1.343084e+003,-9.434067e+000
1.344049e+003,-1.001940e+001
1.345013e+003,-9.637077e+000
1.345977e+003,-8.510231e+000
1.346941e+003,-7.475388e+000
1.347906e+003,-6.815201e+000
1.348870e+003,-6.612167e+000
1.349834e+003,-7.197327e+000
1.350798e+003,-8.160706e+000
1.351763e+003,-8.848549e+000
1.352727e+003,-9.171608e+000
1.353691e+003,-8.622513e+000
1.354655e+003,-6.789429e+000
1.355620e+003,-4.796631e+000
1.356584e+003,-3.875000e+000
1.357548e+003,-3.945786e+000
1.358512e+003,-4.644592e+000
1.359476e+003,-6.473572e+000
1.360441e+003,-7.822212e+000
1.361405e+003,-8.049332e+000
1.362369e+003,-7.902267e+000
1.363333e+003,-7.289673e+000
1.364298e+003,-6.740570e+000
1.365262e+003,-7.115173e+000
1.366226e+003,-8.436913e+000
1.367190e+003,-9.760246e+000
1.368155e+003,-1.024593e+001
1.369119e+003,-1.006982e+001
1.370083e+003,-9.746178e+000
1.371047e+003,-9.202499e+000
1.372011e+003,-8.648598e+000
1.372976e+003,-7.735374e+000
1.373940e+003,-7.401894e+000
1.374904e+003,-8.670746e+000
1.375868e+003,-1.021496e+001
1.376833e+003,-1.004798e+001
1.377797e+003,-8.309776e+000
1.378761e+003,-7.281105e+000
1.379725e+003,-8.125725e+000
1.380690e+003,-9.228851e+000
1.381654e+003,-8.931526e+000
1.382618e+003,-7.811737e+000
1.383582e+003,-6.150894e+000
1.384547e+003,-4.238922e+000
1.385511e+003,-3.717072e+000
1.386475e+003,-5.773331e+000
1.387439e+003,-8.463135e+000
1.388403e+003,-8.501915e+000
1.389368e+003,-5.906876e+000
1.390332e+003,-4.299820e+000
1.391296e+003,-3.923096e+000
1.392260e+003,-4.200516e+000
1.393225e+003,-5.197174e+000
1.394189e+003,-6.528305e+000
1.395153e+003,-8.805679e+000
1.396117e+003,-1.090752e+001
1.397082e+003,-1.072341e+001
1.398046e+003,-8.127083e+000
1.399010e+003,-5.609116e+000
1.399974e+003,-5.516739e+000
1.400938e+003,-7.059647e+000
1.401903e+003,-7.506584e+000
1.402867e+003,-6.258972e+000
1.403831e+003,-5.752029e+000
1.404795e+003,-6.776627e+000
1.405760e+003,-7.603317e+000
1.406724e+003,-7.646667e+000
1.407688e+003,-7.392838e+000
1.408652e+003,-7.310226e+000
1.409617e+003,-7.325607e+000
1.410581e+003,-6.991547e+000
1.411545e+003,-6.019539e+000
1.412509e+003,-5.292076e+000
1.413474e+003,-6.067719e+000
1.414438e+003,-7.493362e+000
1.415402e+003,-7.879478e+000
1.416366e+003,-7.328224e+000
1.417330e+003,-7.168274e+000
1.418295e+003,-8.134590e+000
1.419259e+003,-8.820953e+000
1.420223e+003,-7.192352e+000
1.421187e+003,-3.761673e+000
1.422152e+003,-1.534393e+000
1.423116e+003,-7.013245e-001
1.424080e+003,-3.992157e-001
1.425044e+003,-7.662811e-001
1.426009e+003,-1.399963e+000
1.426973e+003,-2.623672e+000
1.427937e+003,-3.738480e+000
1.428901e+003,-3.634132e+000
1.429865e+003,-2.466751e+000
1.430830e+003,-1.498566e+000
1.431794e+003,-1.594101e+000
1.432758e+003,-2.341492e+000
1.433722e+003,-2.841187e+000
1.434687e+003,-2.964798e+000
1.435651e+003,-3.286407e+000
1.436615e+003,-4.907860e+000
1.437579e+003,-5.516144e+000
1.438544e+003,-3.749603e+000
1.439508e+003,-2.033676e+000
1.440472e+003,-2.312881e+000
1.441436e+003,-3.634781e+000
1.442401e+003,-4.071587e+000
1.443365e+003,-3.194511e+000
1.444329e+003,-1.918137e+000
1.445293e+003,-8.235474e-001
1.446257e+003,1.162872e-001
1.447222e+003,1.025757e+000
1.448186e+003,1.799957e+000
1.449150e+003,1.730698e+000
1.450114e+003,5.480042e-001
1.451079e+003,-7.131958e-001
1.452043e+003,-1.651443e+000
1.453007e+003,-2.200058e+000
1.453971e+003,-2.170929e+000
1.454936e+003,-1.674042e+000
1.455900e+003,-1.273712e+000
1.456864e+003,-1.002975e+000
1.457828e+003,-1.012283e+000
1.458792e+003,-1.890549e+000
1.459757e+003,-2.714127e+000
1.460721e+003,-2.313744e+000
1.461685e+003,-1.382355e+000
1.462649e+003,-1.550247e+000
1.463614e+003,-3.107025e+000
1.464578e+003,-4.558327e+000
1.465542e+003,-4.563065e+000
1.466506e+003,-3.630852e+000
1.467471e+003,-3.133598e+000
1.468435e+003,-3.025139e+000
1.469399e+003,-3.230850e+000
1.470363e+003,-4.905571e+000
1.471328e+003,-5.334892e+000
1.472292e+003,-2.849113e+000
1.473256e+003,-1.137543e-001
1.474220e+003,1.251785e+000
1.475184e+003,1.413147e+000
1.476149e+003,9.230652e-001
1.477113e+003,3.868103e-002
1.478077e+003,-1.186081e+000
1.479041e+003,-2.682251e+000
1.480006e+003,-4.019226e+000
1.480970e+003,-3.793411e+000
1.481934e+003,-1.526360e+000
1.482898e+003,1.016235e-002
1.483863e+003,4.504547e-001
1.484827e+003,7.251892e-001
1.485791e+003,1.138748e+000
1.486755e+003,1.539139e+000
1.487719e+003,1.592621e+000
1.488684e+003,1.459045e+000
1.489648e+003,1.803741e+000
1.490612e+003,2.838333e+000
1.491576e+003,3.632446e+000
1.492541e+003,3.294312e+000
1.493505e+003,2.362732e+000
1.494469e+003,1.768631e+000
1.495433e+003,1.498840e+000
1.496398e+003,2.427475e+000
1.497362e+003,5.424637e+000
1.498326e+003,7.531830e+000
1.499290e+003,6.064934e+000
1.500255e+003,3.636986e+000
1.501219e+003,3.709938e+000
1.502183e+003,6.069847e+000
1.503147e+003,9.224648e+000
1.504111e+003,1.310532e+001
1.505076e+003,1.644320e+001
1.506040e+003,1.845316e+001
1.507004e+003,1.962808e+001
1.507968e+003,1.974112e+001
1.508933e+003,1.969475e+001
1.509897e+003,2.156839e+001
1.510861e+003,2.575238e+001
1.511825e+003,3.065527e+001
1.512790e+003,3.562750e+001
1.513754e+003,3.959897e+001
1.514718e+003,3.977061e+001
1.515682e+003,3.613675e+001
1.516646e+003,3.502807e+001
1.517611e+003,3.796655e+001
1.518575e+003,4.115662e+001
1.519539e+003,4.394598e+001
1.520503e+003,4.623261e+001
1.521468e+003,4.849490e+001
1.522432e+003,4.986259e+001
1.523396e+003,4.860902e+001
1.524360e+003,4.506338e+001
1.525325e+003,4.164570e+001
1.526289e+003,3.998872e+001
1.527253e+003,3.921599e+001
1.528217e+003,3.777066e+001
1.529182e+003,3.569499e+001
1.530146e+003,3.301714e+001
1.531110e+003,2.818315e+001
1.532074e+003,2.565105e+001
1.533039e+003,2.828343e+001
1.534003e+003,2.971286e+001
1.534967e+003,2.616719e+001
1.535931e+003,2.085362e+001
1.536896e+003,1.746626e+001
1.537860e+003,1.615586e+001
1.538824e+003,1.498399e+001
1.539788e+003,1.289674e+001
1.540752e+003,1.030859e+001
1.541717e+003,7.697777e+000
1.542681e+003,5.301445e+000
1.543645e+003,4.394707e+000
1.544609e+003,5.921700e+000
1.545573e+003,6.736275e+000
1.546538e+003,5.610008e+000
1.547502e+003,5.214249e+000
1.548466e+003,7.397949e+000
1.549430e+003,1.022331e+001
1.550395e+003,1.193654e+001
1.551359e+003,1.236769e+001
1.552323e+003,1.165021e+001
1.553287e+003,9.931107e+000
1.554252e+003,8.086868e+000
1.555216e+003,6.884720e+000
1.556180e+003,6.060791e+000
1.557144e+003,5.031044e+000
1.558109e+003,3.814674e+000
1.559073e+003,2.496231e+000
1.560037e+003,5.555801e-001
1.561001e+003,-5.762939e-001
1.561966e+003,1.318588e-001
1.562930e+003,1.485703e+000
1.563894e+003,2.592133e+000
1.564858e+003,3.330727e+000
1.565823e+003,3.459755e+000
1.566787e+003,2.979309e+000
1.567751e+003,2.675613e+000
1.568715e+003,3.035454e+000
1.569679e+003,3.694992e+000
1.570644e+003,4.188217e+000
1.571608e+003,4.553268e+000
1.572572e+003,5.166718e+000
1.573536e+003,6.095673e+000
1.574500e+003,6.504684e+000
1.575465e+003,5.794830e+000
1.576429e+003,4.946518e+000
1.577393e+003,4.289734e+000
1.578357e+003,4.200264e+000
1.579322e+003,6.182213e+000
1.580286e+003,1.003951e+001
1.581250e+003,1.189783e+001
1.582214e+003,1.009097e+001
1.583179e+003,7.911003e+000
1.584143e+003,7.613091e+000
1.585107e+003,8.342949e+000
1.586071e+003,9.142036e+000
1.587036e+003,1.003988e+001
1.588000e+003,1.104536e+001
1.588964e+003,1.216116e+001
1.589928e+003,1.261549e+001
1.590893e+003,1.152940e+001
1.591857e+003,9.877075e+000
1.592821e+003,8.958237e+000
1.593785e+003,8.777939e+000
1.594750e+003,9.662354e+000
1.595714e+003,1.200201e+001
1.596678e+003,1.272701e+001
1.597642e+003,9.014297e+000
1.598606e+003,5.716438e+000
1.599571e+003,7.905815e+000
1.600535e+003,1.209522e+001
1.601499e+003,1.356332e+001
1.602463e+003,1.243476e+001
1.603427e+003,1.165691e+001
1.604392e+003,1.243224e+001
1.605356e+003,1.384884e+001
1.606320e+003,1.544057e+001
1.607284e+003,1.682127e+001
1.608249e+003,1.661806e+001
1.609213e+003,1.476634e+001
1.610177e+003,1.333093e+001
1.611141e+003,1.261047e+001
1.612106e+003,1.243272e+001
1.613070e+003,1.352235e+001
1.614034e+003,1.436353e+001
1.614998e+003,1.318816e+001
1.615963e+003,1.127599e+001
1.616927e+003,1.103804e+001
1.617891e+003,1.264056e+001
1.618855e+003,1.419952e+001
1.619820e+003,1.459870e+001
1.620784e+003,1.424512e+001
1.621748e+003,1.346751e+001
1.622712e+003,1.255619e+001
1.623677e+003,1.306596e+001
1.624641e+003,1.541001e+001
1.625605e+003,1.675724e+001
1.626569e+003,1.550069e+001
1.627533e+003,1.450974e+001
1.628498e+003,1.589193e+001
1.629462e+003,1.764490e+001
1.630426e+003,1.811255e+001
1.631390e+003,1.753761e+001
1.632354e+003,1.662228e+001
1.633319e+003,1.560773e+001
1.634283e+003,1.459732e+001
1.635247e+003,1.351389e+001
1.636211e+003,1.290559e+001
1.637176e+003,1.423921e+001
1.638140e+003,1.734302e+001
1.639104e+003,1.914322e+001
1.640068e+003,1.938885e+001
1.641033e+003,1.879331e+001
1.641997e+003,1.664162e+001
1.642961e+003,1.501368e+001
1.643925e+003,1.545313e+001
1.644890e+003,1.642275e+001
1.645854e+003,1.611765e+001
1.646818e+003,1.504279e+001
1.647782e+003,1.496812e+001
1.648747e+003,1.638068e+001
1.649711e+003,1.806618e+001
1.650675e+003,1.921997e+001
1.651639e+003,1.972000e+001
1.652604e+003,1.887495e+001
1.653568e+003,1.672432e+001
1.654532e+003,1.558504e+001
1.655496e+003,1.586497e+001
1.656460e+003,1.611523e+001
1.657425e+003,1.571173e+001
1.658389e+003,1.555389e+001
1.659353e+003,1.690530e+001
1.660317e+003,1.814983e+001
1.661281e+003,1.690508e+001
1.662246e+003,1.402175e+001
1.663210e+003,1.253344e+001
1.664174e+003,1.341488e+001
1.665138e+003,1.474928e+001
1.666103e+003,1.504362e+001
1.667067e+003,1.445112e+001
1.668031e+003,1.298054e+001
1.668995e+003,1.076820e+001
1.669960e+003,9.559013e+000
1.670924e+003,9.664505e+000
1.671888e+003,1.009425e+001
1.672852e+003,1.075240e+001
1.673817e+003,1.129996e+001
1.674781e+003,1.162361e+001
1.675745e+003,1.165561e+001
1.676709e+003,1.112367e+001
1.677674e+003,1.023456e+001
1.678638e+003,9.531769e+000
1.679602e+003,9.194794e+000
1.680566e+003,9.359879e+000
1.681531e+003,1.050571e+001
1.682495e+003,1.179964e+001
1.683459e+003,1.152506e+001
1.684423e+003,9.934395e+000
1.685387e+003,8.925087e+000
1.686352e+003,8.756897e+000
1.687316e+003,8.550774e+000
1.688280e+003,7.938393e+000
1.689244e+003,7.381790e+000
1.690208e+003,7.239311e+000
1.691173e+003,7.295441e+000
1.692137e+003,7.273109e+000
1.693101e+003,7.318146e+000
1.694065e+003,8.114822e+000
1.695030e+003,9.844490e+000
1.695994e+003,1.032974e+001
1.696958e+003,7.052658e+000
1.697922e+003,3.361305e+000
1.698887e+003,4.410332e+000
1.699851e+003,8.324295e+000
1.700815e+003,8.902817e+000
1.701779e+003,5.667145e+000
1.702744e+003,3.069382e+000
1.703708e+003,2.591537e+000
1.704672e+003,2.943916e+000
1.705636e+003,3.440201e+000
1.706601e+003,3.859306e+000
1.707565e+003,3.873863e+000
1.708529e+003,3.667053e+000
1.709493e+003,3.722664e+000
1.710458e+003,4.120628e+000
1.711422e+003,4.453377e+000
1.712386e+003,4.815140e+000
1.713350e+003,4.836403e+000
1.714314e+003,3.817558e+000
1.715279e+003,2.384499e+000
1.716243e+003,1.571304e+000
1.717207e+003,1.423203e+000
1.718171e+003,1.737846e+000
1.719135e+003,2.468758e+000
1.720100e+003,3.061859e+000
1.721064e+003,3.095589e+000
1.722028e+003,2.875641e+000
1.722992e+003,2.963356e+000
1.723957e+003,3.280457e+000
1.724921e+003,2.921555e+000
1.725885e+003,1.590111e+000
1.726849e+003,8.476791e-001
1.727814e+003,1.502029e+000
1.728778e+003,2.227928e+000
1.729742e+003,2.393196e+000
1.730706e+003,2.394417e+000
1.731671e+003,2.581871e+000
1.732635e+003,2.822815e+000
1.733599e+003,2.915672e+000
1.734563e+003,2.878365e+000
1.735528e+003,2.798798e+000
1.736492e+003,2.697243e+000
1.737456e+003,2.594650e+000
1.738420e+003,2.562721e+000
1.739385e+003,2.395096e+000
1.740349e+003,1.421455e+000
1.741313e+003,-6.579666e-001
1.742277e+003,-1.783890e+000
1.743241e+003,-1.790733e+000
1.744206e+003,-1.104866e+000
1.745170e+003,1.120705e+000
1.746134e+003,2.935577e+000
1.747098e+003,2.918144e+000
1.748063e+003,2.167152e+000
1.749027e+003,1.936188e+000
1.749991e+003,2.233894e+000
1.750955e+003,2.607048e+000
1.751919e+003,2.796349e+000
1.752884e+003,2.492607e+000
1.753848e+003,1.427299e+000
1.754812e+003,3.233337e-002
1.755776e+003,-7.895889e-001
1.756741e+003,-1.001915e+000
1.757705e+003,-1.042770e+000
1.758669e+003,-1.205101e+000
1.759633e+003,-4.248199e-001
1.760598e+003,2.855743e+000
1.761562e+003,4.874725e+000
1.762526e+003,4.074547e+000
1.763490e+003,2.253258e+000
1.764455e+003,-3.122253e-001
1.765419e+003,-2.522781e+000
1.766383e+003,-2.569008e+000
1.767347e+003,-6.868744e-001
1.768312e+003,1.164192e+000
1.769276e+003,2.065872e+000
1.770240e+003,1.936897e+000
1.771204e+003,3.084793e-001
1.772168e+003,-1.866837e+000
1.773133e+003,-2.454765e+000
1.774097e+003,-1.590515e+000
1.775061e+003,-3.221359e-001
1.776025e+003,1.426064e+000
1.776990e+003,1.667938e+000
1.777954e+003,-9.620285e-001
1.778918e+003,-3.500031e+000
1.779882e+003,-4.007179e+000
1.780846e+003,-3.146210e+000
1.781811e+003,-1.349754e+000
1.782775e+003,1.019737e+000
1.783739e+003,2.864464e+000
1.784703e+003,4.098930e+000
1.785668e+003,4.253014e+000
1.786632e+003,2.087395e+000
1.787596e+003,4.417419e-002
1.788560e+003,4.980316e-001
1.789525e+003,1.878044e+000
1.790489e+003,1.902916e+000
1.791453e+003,7.795486e-001
1.792417e+003,-4.446564e-001
1.793382e+003,-1.445076e+000
1.794346e+003,-1.808502e+000
1.795310e+003,-1.291046e+000
1.796274e+003,-4.680405e-001
1.797239e+003,8.715820e-002
1.798203e+003,4.310532e-001
1.799167e+003,4.876480e-001
1.800131e+003,5.233765e-002
1.801095e+003,-6.568909e-002
1.802060e+003,5.083618e-001
1.803024e+003,9.813309e-001
1.803988e+003,1.141685e+000
1.804952e+003,1.276161e+000
1.805917e+003,1.759460e+000
1.806881e+003,2.076424e+000
1.807845e+003,1.402412e+000
1.808809e+003,2.954178e-001
1.809773e+003,7.762146e-002
1.810738e+003,8.594360e-001
1.811702e+003,1.288185e+000
1.812666e+003,5.392914e-001
1.813630e+003,-1.869431e-001
1.814595e+003,8.434677e-001
1.815559e+003,3.076111e+000
1.816523e+003,4.464256e+000
1.817487e+003,5.063683e+000
1.818452e+003,4.014664e+000
1.819416e+003,2.420425e-001
1.820380e+003,-1.952026e+000
1.821344e+003,-5.369186e-001
1.822309e+003,1.375748e+000
1.823273e+003,2.335907e+000
1.824237e+003,2.668541e+000
1.825201e+003,2.316391e+000
1.826166e+003,1.616890e+000
1.827130e+003,1.565468e+000
1.828094e+003,2.280571e+000
1.829058e+003,2.449623e+000
1.830022e+003,1.120201e+000
1.830987e+003,-1.259918e-001
1.831951e+003,7.369232e-002
1.832915e+003,1.111809e+000
1.833879e+003,2.664146e+000
1.834844e+003,4.190567e+000
1.835808e+003,3.855789e+000
1.836772e+003,1.653473e+000
1.837736e+003,1.183853e-001
1.838700e+003,3.373184e-001
1.839665e+003,1.244461e+000
1.840629e+003,2.009659e+000
1.841593e+003,2.521446e+000
1.842557e+003,2.406982e+000
1.843522e+003,1.680038e+000
1.844486e+003,1.623650e+000
1.845450e+003,3.063972e+000
1.846414e+003,3.702553e+000
1.847379e+003,2.908043e+000
1.848343e+003,2.003494e+000
1.849307e+003,1.219070e+000
1.850271e+003,6.757584e-001
1.851236e+003,4.466553e-001
1.852200e+003,5.451889e-001
1.853164e+003,1.001221e+000
1.854128e+003,1.686386e+000
1.855093e+003,2.590988e+000
1.856057e+003,3.639992e+000
1.857021e+003,3.934616e+000
1.857985e+003,2.536446e+000
1.858949e+003,7.014389e-001
1.859914e+003,9.613571e-001
1.860878e+003,2.813660e+000
1.861842e+003,3.019730e+000
1.862806e+003,1.486191e+000
1.863771e+003,1.242836e+000
1.864735e+003,3.191071e+000
1.865699e+003,4.387505e+000
1.866663e+003,3.149261e+000
1.867627e+003,1.666725e+000
1.868592e+003,2.145996e+000
1.869556e+003,3.376488e+000
1.870520e+003,2.950676e+000
1.871484e+003,1.166855e+000
1.872449e+003,6.638336e-002
1.873413e+003,8.134460e-002
1.874377e+003,4.342194e-001
1.875341e+003,6.270905e-001
1.876306e+003,1.208878e+000
1.877270e+003,3.289207e+000
1.878234e+003,5.123245e+000
1.879198e+003,4.369484e+000
1.880163e+003,2.359413e+000
1.881127e+003,1.637306e+000
1.882091e+003,2.457077e+000
1.883055e+003,3.875305e+000
1.884020e+003,5.338028e+000
1.884984e+003,6.086349e+000
1.885948e+003,5.396172e+000
1.886912e+003,4.124939e+000
1.887876e+003,4.087318e+000
1.888841e+003,5.139778e+000
1.889805e+003,5.394875e+000
1.890769e+003,4.703606e+000
1.891733e+003,3.959091e+000
1.892698e+003,2.957954e+000
1.893662e+003,2.514099e+000
1.894626e+003,3.198166e+000
1.895590e+003,4.179886e+000
1.896554e+003,5.238174e+000
1.897519e+003,6.083649e+000
1.898483e+003,6.271095e+000
1.899447e+003,5.847572e+000
1.900411e+003,5.061935e+000
1.901376e+003,3.935539e+000
1.902340e+003,3.132477e+000
1.903304e+003,2.893707e+000
1.904268e+003,3.023445e+000
1.905233e+003,3.728973e+000
1.906197e+003,4.476814e+000
1.907161e+003,4.784515e+000
1.908125e+003,4.715790e+000
1.909090e+003,4.331116e+000
1.910054e+003,3.679131e+000
1.911018e+003,2.768570e+000
1.911982e+003,1.730492e+000
1.912947e+003,1.204613e+000
1.913911e+003,1.642250e+000
1.914875e+003,2.743828e+000
1.915839e+003,4.127525e+000
1.916803e+003,5.549156e+000
1.917768e+003,5.842400e+000
1.918732e+003,4.808815e+000
1.919696e+003,4.162270e+000
1.920660e+003,3.907722e+000
1.921625e+003,4.229301e+000
1.922589e+003,5.511871e+000
1.923553e+003,6.742493e+000
1.924517e+003,7.604614e+000
1.925481e+003,7.995163e+000
1.926446e+003,7.437500e+000
1.927410e+003,6.494644e+000
1.928374e+003,6.384750e+000
1.929338e+003,7.075340e+000
1.930303e+003,7.330582e+000
1.931267e+003,6.829376e+000
1.932231e+003,6.195023e+000
1.933195e+003,4.989471e+000
1.934160e+003,4.464478e+000
1.935124e+003,6.106651e+000
1.936088e+003,8.448212e+000
1.937052e+003,1.021178e+001
1.938017e+003,1.107751e+001
1.938981e+003,1.020656e+001
1.939945e+003,8.025436e+000
1.940909e+003,6.750328e+000
1.941874e+003,7.290695e+000
1.942838e+003,8.077354e+000
1.943802e+003,7.688049e+000
1.944766e+003,6.690559e+000
1.945730e+003,6.064857e+000
1.946695e+003,5.757637e+000
1.947659e+003,5.542603e+000
1.948623e+003,5.343727e+000
1.949587e+003,6.198067e+000
1.950552e+003,8.772446e+000
1.951516e+003,1.013513e+001
1.952480e+003,8.765083e+000
1.953444e+003,7.132835e+000
1.954408e+003,6.888184e+000
1.955373e+003,7.325775e+000
1.956337e+003,7.672188e+000
1.957301e+003,7.966118e+000
1.958265e+003,8.023888e+000
1.959230e+003,7.741264e+000
1.960194e+003,8.172409e+000
1.961158e+003,1.054752e+001
1.962122e+003,1.180581e+001
1.963087e+003,1.036218e+001
1.964051e+003,8.604179e+000
1.965015e+003,7.660454e+000
1.965979e+003,7.371147e+000
1.966944e+003,7.984726e+000
1.967908e+003,8.722870e+000
1.968872e+003,7.953979e+000
1.969836e+003,5.978729e+000
1.970801e+003,5.094559e+000
1.971765e+003,6.206490e+000
1.972729e+003,7.504684e+000
1.973693e+003,7.416313e+000
1.974657e+003,6.794739e+000
1.975622e+003,6.638977e+000
1.976586e+003,7.019318e+000
1.977550e+003,8.634987e+000
1.978514e+003,1.112540e+001
1.979479e+003,1.229802e+001
1.980443e+003,1.187226e+001
1.981407e+003,1.115524e+001
1.982371e+003,1.062869e+001
1.983335e+003,1.033537e+001
1.984300e+003,1.031779e+001
1.985264e+003,1.030688e+001
1.986228e+003,9.891312e+000
1.987192e+003,9.193535e+000
1.988157e+003,8.876961e+000
1.989121e+003,9.064323e+000
1.990085e+003,9.092606e+000
1.991049e+003,8.682358e+000
1.992014e+003,8.744354e+000
1.992978e+003,9.910820e+000
1.993942e+003,1.078584e+001
1.994906e+003,1.055165e+001
1.995871e+003,1.021718e+001
1.996835e+003,1.065493e+001
1.997799e+003,1.141487e+001
1.998763e+003,1.171587e+001
1.999728e+003,1.161617e+001
