5.003444e+002,2.251465e+001
5.013087e+002,2.246008e+001
5.022729e+002,1.863232e+001
5.032371e+002,1.355505e+001
5.042014e+002,1.284656e+001
5.051656e+002,1.603748e+001
5.061298e+002,2.050122e+001
5.070941e+002,2.383081e+001
5.080583e+002,2.555603e+001
5.090225e+002,2.599255e+001
5.099868e+002,2.565771e+001
5.109510e+002,2.400488e+001
5.119152e+002,1.985449e+001
5.128795e+002,1.298572e+001
5.138437e+002,8.265625e+000
5.148079e+002,8.197632e+000
5.157722e+002,1.013391e+001
5.167364e+002,1.401575e+001
5.177006e+002,1.884985e+001
5.186649e+002,2.257141e+001
5.196291e+002,2.282874e+001
5.205933e+002,2.187366e+001
5.215576e+002,2.081177e+001
5.225218e+002,1.933228e+001
5.234860e+002,1.703406e+001
5.244503e+002,1.391101e+001
5.254145e+002,1.040930e+001
5.263787e+002,1.000659e+001
5.273430e+002,1.518738e+001
5.283072e+002,2.180481e+001
5.292714e+002,2.324658e+001
5.302357e+002,1.441431e+001
5.311999e+002,8.991455e+000
5.321641e+002,1.256689e+001
5.331284e+002,1.835254e+001
5.340926e+002,2.038379e+001
5.350568e+002,1.586902e+001
5.360211e+002,9.875244e+000
5.369853e+002,8.239868e+000
5.379495e+002,8.431274e+000
5.389138e+002,7.877441e+000
5.398780e+002,5.598877e+000
5.408422e+002,2.786621e+000
5.418065e+002,3.672607e+000
5.427707e+002,7.648804e+000
5.437349e+002,1.082886e+001
5.446992e+002,1.213867e+001
5.456634e+002,1.176575e+001
5.466276e+002,1.065332e+001
5.475919e+002,8.096191e+000
5.485561e+002,6.270142e+000
5.495203e+002,4.871704e+000
5.504846e+002,3.735107e+000
5.514488e+002,3.001221e+000
5.524130e+002,3.374390e+000
5.533773e+002,3.978638e+000
5.543415e+002,4.619263e+000
5.553057e+002,5.066528e+000
5.562700e+002,4.536865e+000
5.572342e+002,2.477905e+000
5.581984e+002,6.420898e-002
5.591627e+002,1.907227e+000
5.601269e+002,6.552979e+000
5.610911e+002,9.884155e+000
5.620554e+002,9.484741e+000
5.630196e+002,5.484253e+000
5.639838e+002,1.732788e+000
5.649481e+002,-2.262085e+000
5.659123e+002,-5.233643e+000
5.668765e+002,-5.537476e+000
5.678408e+002,-3.544800e+000
5.688050e+002,-1.566406e+000
5.697692e+002,-1.504395e+000
5.707335e+002,-2.094116e+000
5.716977e+002,-2.178833e+000
5.726619e+002,-2.260620e+000
5.736262e+002,-3.310425e+000
5.745904e+002,-6.133057e+000
5.755546e+002,-8.793091e+000
5.765189e+002,-9.403320e+000
5.774831e+002,-8.880859e+000
5.784473e+002,-7.320679e+000
5.794116e+002,-4.483276e+000
5.803758e+002,-1.090088e-001
5.813400e+002,1.995239e+000
5.823043e+002,3.446045e-001
5.832685e+002,-1.938354e+000
5.842327e+002,-2.981201e+000
5.851970e+002,-2.554688e+000
5.861612e+002,-2.534912e+000
5.871254e+002,-5.645264e+000
5.880897e+002,-7.505005e+000
5.890539e+002,-7.032837e+000
5.900181e+002,-5.244873e+000
5.909824e+002,-3.618286e+000
5.919466e+002,-2.766357e+000
5.929108e+002,-2.214600e+000
5.938751e+002,-1.105225e+000
5.948393e+002,1.574707e-002
5.958035e+002,2.558594e-001
5.967678e+002,-8.966064e-001
5.977320e+002,-2.854858e+000
5.986962e+002,-3.336914e+000
5.996605e+002,-3.218750e+000
6.006247e+002,-3.603760e+000
6.015889e+002,-5.544189e+000
6.025532e+002,-8.719238e+000
6.035174e+002,-9.827759e+000
6.044816e+002,-5.672363e+000
6.054459e+002,-2.487305e+000
6.064101e+002,-1.741455e+000
6.073743e+002,-2.559937e+000
6.083386e+002,-3.099854e+000
6.093028e+002,-2.111816e+000
6.102670e+002,-7.769775e-001
6.112313e+002,-7.381592e-001
6.121955e+002,-1.060303e+000
6.131597e+002,-1.378174e-001
6.141240e+002,3.038330e+000
6.150882e+002,7.311890e+000
6.160524e+002,7.664063e+000
6.170167e+002,5.193237e+000
6.179809e+002,3.368286e+000
6.189451e+002,3.708618e+000
6.199094e+002,5.371948e+000
6.208736e+002,4.798462e+000
6.218378e+002,-5.588379e-001
6.228021e+002,-3.569702e+000
6.237663e+002,-2.296265e+000
6.247305e+002,1.628418e+000
6.256948e+002,5.323730e+000
6.266590e+002,7.197144e+000
6.276232e+002,7.812866e+000
6.285875e+002,8.492676e+000
6.295517e+002,9.171387e+000
6.305159e+002,9.437866e+000
6.314802e+002,8.861572e+000
6.324444e+002,7.319946e+000
6.334086e+002,5.422241e+000
6.343729e+002,3.793457e+000
6.353371e+002,2.067993e+000
6.363013e+002,-2.739258e-001
6.372656e+002,-2.954102e+000
6.382298e+002,-4.264648e+000
6.391940e+002,-3.073242e+000
6.401583e+002,-2.413452e+000
6.411225e+002,-1.047119e+000
6.420867e+002,7.917480e-001
6.430510e+002,2.129150e+000
6.440152e+002,1.829224e+000
6.449794e+002,1.049683e+000
6.459437e+002,5.605469e-001
6.469079e+002,-6.433105e-002
6.478721e+002,-1.005249e+000
6.488364e+002,-2.120239e+000
6.498006e+002,-2.967041e+000
6.507648e+002,-3.354736e+000
6.517291e+002,-3.377441e+000
6.526933e+002,-2.065063e+000
6.536575e+002,8.520508e-001
6.546218e+002,3.737549e+000
6.555860e+002,3.343750e+000
6.565502e+002,-3.098877e+000
6.575145e+002,-7.201050e+000
6.584787e+002,-9.247070e+000
6.594429e+002,-9.027954e+000
6.604072e+002,-5.235352e+000
6.613714e+002,2.878784e+000
6.623356e+002,9.308472e+000
6.632999e+002,1.022876e+001
6.642641e+002,8.602661e+000
6.652283e+002,5.376587e+000
6.661926e+002,1.689453e+000
6.671568e+002,-1.244629e+000
6.681210e+002,-2.392944e+000
6.690853e+002,-2.221191e+000
6.700495e+002,-1.408325e+000
6.710137e+002,5.407715e-002
6.719780e+002,2.168579e+000
6.729422e+002,4.996704e+000
6.739064e+002,8.605957e+000
6.748707e+002,1.041089e+001
6.758349e+002,9.336792e+000
6.767991e+002,7.924805e+000
6.777634e+002,8.422607e+000
6.787276e+002,1.092847e+001
6.796918e+002,1.240186e+001
6.806561e+002,9.658203e+000
6.816203e+002,6.232910e+000
6.825845e+002,2.692749e+000
6.835488e+002,-3.376465e-001
6.845130e+002,-1.966064e+000
6.854772e+002,-1.305542e+000
6.864415e+002,1.376343e+000
6.874057e+002,4.686523e+000
6.883699e+002,7.442993e+000
6.893342e+002,8.417236e+000
6.902984e+002,7.055908e+000
6.912626e+002,3.923584e+000
6.922269e+002,1.230835e+000
6.931911e+002,-1.701416e+000
6.941553e+002,-7.253418e-001
6.951196e+002,7.372681e+000
6.960838e+002,1.724390e+001
6.970480e+002,2.019067e+001
6.980123e+002,1.152002e+001
6.989765e+002,4.416992e+000
6.999407e+002,4.814819e+000
7.009050e+002,7.980103e+000
7.018692e+002,1.095398e+001
7.028334e+002,1.224573e+001
7.037977e+002,1.153137e+001
7.047619e+002,7.480713e+000
7.057261e+002,2.329346e+000
7.066904e+002,-4.083252e-001
7.076546e+002,-2.139893e-001
7.086188e+002,1.326050e+000
7.095831e+002,1.547852e+000
7.105473e+002,-1.268799e+000
7.115115e+002,-9.591064e-001
7.124758e+002,5.375122e+000
7.134400e+002,1.081567e+001
7.144042e+002,1.090991e+001
7.153685e+002,5.921875e+000
7.163327e+002,1.501831e+000
7.172969e+002,-5.170898e-001
7.182612e+002,-3.886719e-001
7.192254e+002,3.697998e+000
7.201896e+002,9.387695e+000
7.211539e+002,1.225122e+001
7.221181e+002,8.287476e+000
7.230823e+002,7.905273e-001
7.240466e+002,-5.670166e-001
7.250108e+002,3.416016e+000
7.259750e+002,7.240479e+000
7.269393e+002,6.754028e+000
7.279035e+002,1.911377e+000
7.288677e+002,-6.076660e-001
7.298320e+002,3.522583e+000
7.307962e+002,8.145020e+000
7.317604e+002,1.492151e+001
7.327247e+002,2.140259e+001
7.336889e+002,2.269397e+001
7.346531e+002,1.460327e+001
7.356174e+002,6.059570e+000
7.365816e+002,3.206421e+000
7.375458e+002,3.894775e+000
7.385101e+002,7.638306e+000
7.394743e+002,1.350549e+001
7.404385e+002,1.946509e+001
7.414028e+002,2.168823e+001
7.423670e+002,1.950977e+001
7.433312e+002,1.880542e+001
7.442955e+002,2.143347e+001
7.452597e+002,2.478906e+001
7.462239e+002,2.483423e+001
7.471882e+002,1.971790e+001
7.481524e+002,1.768225e+001
7.491166e+002,1.958179e+001
7.500809e+002,2.061279e+001
7.510451e+002,1.854346e+001
7.520093e+002,1.409399e+001
7.529736e+002,1.033289e+001
7.539378e+002,1.033643e+001
7.549020e+002,1.097168e+001
7.558663e+002,9.460571e+000
7.568306e+002,7.189209e+000
7.577948e+002,5.631104e+000
7.587590e+002,5.469238e+000
7.597233e+002,6.224854e+000
7.606875e+002,8.718384e+000
7.616517e+002,1.328748e+001
7.626160e+002,1.851453e+001
7.635802e+002,2.532141e+001
7.645444e+002,3.165845e+001
7.655087e+002,3.250989e+001
7.664729e+002,2.441467e+001
7.674371e+002,1.746155e+001
7.684014e+002,1.068176e+001
7.693656e+002,6.190918e+000
7.703298e+002,6.761108e+000
7.712941e+002,1.216211e+001
7.722583e+002,1.721790e+001
7.732225e+002,1.713062e+001
7.741868e+002,1.605188e+001
7.751510e+002,1.758191e+001
7.761152e+002,2.105847e+001
7.770795e+002,2.397937e+001
7.780437e+002,2.400134e+001
7.790079e+002,2.145459e+001
7.799722e+002,2.239697e+001
7.809364e+002,2.783911e+001
7.819006e+002,2.933704e+001
7.828649e+002,2.072229e+001
7.838291e+002,6.432861e+000
7.847933e+002,5.509033e-001
7.857576e+002,8.814941e+000
7.867218e+002,1.430981e+001
7.876860e+002,1.422363e+001
7.886503e+002,1.208667e+001
7.896145e+002,1.013489e+001
7.905787e+002,9.184692e+000
7.915430e+002,9.619751e+000
7.925072e+002,1.180310e+001
7.934714e+002,1.430017e+001
7.944357e+002,1.771118e+001
7.953999e+002,2.185925e+001
7.963641e+002,2.428357e+001
7.973284e+002,2.168958e+001
7.982926e+002,1.362878e+001
7.992568e+002,9.647949e+000
8.002211e+002,9.882324e+000
8.011853e+002,8.959106e+000
8.021495e+002,4.255859e+000
8.031138e+002,-1.104370e+000
8.040780e+002,1.055298e+000
8.050422e+002,1.729456e+001
8.060065e+002,3.022839e+001
8.069707e+002,3.244568e+001
8.079349e+002,2.927722e+001
8.088992e+002,2.562195e+001
8.098634e+002,2.389099e+001
8.108276e+002,2.387207e+001
8.117919e+002,2.544690e+001
8.127561e+002,2.626416e+001
8.137203e+002,2.349451e+001
8.146846e+002,1.784375e+001
8.156488e+002,1.358484e+001
8.166130e+002,1.589001e+001
8.175773e+002,2.647742e+001
8.185415e+002,3.168982e+001
8.195057e+002,2.614844e+001
8.204700e+002,2.133044e+001
8.214342e+002,2.201819e+001
8.223984e+002,2.638599e+001
8.233627e+002,2.903882e+001
8.243269e+002,2.741663e+001
8.252911e+002,2.611340e+001
8.262554e+002,2.851648e+001
8.272196e+002,3.194507e+001
8.281838e+002,3.309131e+001
8.291481e+002,3.101868e+001
8.301123e+002,2.817993e+001
8.310765e+002,2.947705e+001
8.320408e+002,3.399561e+001
8.330050e+002,3.361914e+001
8.339692e+002,2.676855e+001
8.349335e+002,1.932764e+001
8.358977e+002,1.815466e+001
8.368619e+002,2.482764e+001
8.378262e+002,2.972070e+001
8.387904e+002,2.968372e+001
8.397546e+002,2.973840e+001
8.407189e+002,3.148792e+001
8.416831e+002,3.424548e+001
8.426473e+002,3.672583e+001
8.436116e+002,3.852393e+001
8.445758e+002,3.983789e+001
8.455400e+002,3.920068e+001
8.465043e+002,3.726270e+001
8.474685e+002,3.595691e+001
8.484327e+002,3.642383e+001
8.493970e+002,3.840955e+001
8.503612e+002,4.043140e+001
8.513254e+002,4.210522e+001
8.522897e+002,4.352551e+001
8.532539e+002,4.441150e+001
8.542181e+002,4.435046e+001
8.551824e+002,4.306604e+001
8.561466e+002,4.178833e+001
8.571108e+002,4.395874e+001
8.580751e+002,5.115234e+001
8.590393e+002,5.643921e+001
8.600035e+002,5.813721e+001
8.609678e+002,5.812769e+001
8.619320e+002,5.819910e+001
8.628962e+002,5.901831e+001
8.638605e+002,6.005566e+001
8.648247e+002,6.054688e+001
8.657889e+002,6.064600e+001
8.667532e+002,6.151013e+001
8.677174e+002,6.326843e+001
8.686816e+002,6.426746e+001
8.696459e+002,6.253455e+001
8.706101e+002,5.796228e+001
8.715743e+002,5.503833e+001
8.725386e+002,5.413000e+001
8.735028e+002,5.435950e+001
8.744670e+002,5.524329e+001
8.754313e+002,5.596631e+001
8.763955e+002,5.562646e+001
8.773597e+002,5.388220e+001
8.783240e+002,5.303845e+001
8.792882e+002,5.551318e+001
8.802524e+002,5.830811e+001
8.812167e+002,5.843677e+001
8.821809e+002,5.576160e+001
8.831451e+002,5.289563e+001
8.841094e+002,5.350378e+001
8.850736e+002,5.796411e+001
8.860378e+002,6.009021e+001
8.870021e+002,5.873438e+001
8.879663e+002,5.757397e+001
8.889305e+002,5.844348e+001
8.898948e+002,6.072339e+001
8.908590e+002,6.254321e+001
8.918232e+002,6.396545e+001
8.927875e+002,6.615100e+001
8.937517e+002,7.018420e+001
8.947159e+002,7.443945e+001
8.956802e+002,7.711560e+001
8.966444e+002,7.739893e+001
8.976086e+002,7.573547e+001
8.985729e+002,7.253101e+001
8.995371e+002,6.957263e+001
9.005013e+002,6.919678e+001
9.014656e+002,7.132544e+001
9.024298e+002,7.359216e+001
9.033940e+002,7.366345e+001
9.043583e+002,7.124304e+001
9.053225e+002,6.924219e+001
9.062867e+002,6.699243e+001
9.072510e+002,6.496106e+001
9.082152e+002,6.453735e+001
9.091794e+002,6.529553e+001
9.101437e+002,6.633813e+001
9.111079e+002,6.742590e+001
9.120721e+002,6.972034e+001
9.130364e+002,7.496680e+001
9.140006e+002,7.923193e+001
9.149648e+002,8.108337e+001
9.159291e+002,8.116992e+001
9.168933e+002,8.007593e+001
9.178575e+002,7.787146e+001
9.188218e+002,7.456201e+001
9.197860e+002,7.112524e+001
9.207502e+002,6.700122e+001
9.217145e+002,6.602454e+001
9.226787e+002,7.210938e+001
9.236429e+002,8.065430e+001
9.246072e+002,8.423975e+001
9.255714e+002,8.112952e+001
9.265356e+002,7.896204e+001
9.274999e+002,8.049976e+001
9.284641e+002,8.077344e+001
9.294283e+002,7.817383e+001
9.303926e+002,7.369104e+001
9.313568e+002,6.842578e+001
9.323210e+002,6.268372e+001
9.332853e+002,5.819336e+001
9.342495e+002,5.937781e+001
9.352137e+002,6.323450e+001
9.361780e+002,6.615613e+001
9.371422e+002,6.797961e+001
9.381064e+002,7.028442e+001
9.390707e+002,7.455835e+001
9.400349e+002,8.053772e+001
9.409991e+002,8.410156e+001
9.419634e+002,8.442737e+001
9.429276e+002,8.336060e+001
9.438918e+002,7.970435e+001
9.448561e+002,7.582715e+001
9.458203e+002,7.618689e+001
9.467845e+002,8.303662e+001
9.477488e+002,9.041956e+001
9.487130e+002,9.405469e+001
9.496772e+002,9.582239e+001
9.506415e+002,9.613831e+001
9.516057e+002,9.574097e+001
9.525699e+002,9.608484e+001
9.535342e+002,9.852832e+001
9.544984e+002,1.023618e+002
9.554626e+002,1.044039e+002
9.564269e+002,1.059086e+002
9.573911e+002,1.068516e+002
9.583553e+002,1.057906e+002
9.593196e+002,1.042072e+002
9.602838e+002,1.050083e+002
9.612480e+002,1.088193e+002
9.622123e+002,1.115107e+002
9.631765e+002,1.121796e+002
9.641407e+002,1.118771e+002
9.651050e+002,1.096071e+002
9.660692e+002,1.063069e+002
9.670334e+002,1.047100e+002
9.679977e+002,1.070872e+002
9.689619e+002,1.113619e+002
9.699261e+002,1.108696e+002
9.708904e+002,1.063998e+002
9.718546e+002,1.013634e+002
9.728188e+002,9.581482e+001
9.737831e+002,9.095398e+001
9.747473e+002,8.848291e+001
9.757115e+002,8.868164e+001
9.766758e+002,9.160352e+001
9.776400e+002,1.031124e+002
9.786042e+002,1.116091e+002
9.795685e+002,1.128134e+002
9.805327e+002,1.088545e+002
9.814969e+002,1.020188e+002
9.824612e+002,9.355640e+001
9.834254e+002,8.837439e+001
9.843896e+002,9.367798e+001
9.853539e+002,1.020635e+002
9.863181e+002,1.052542e+002
9.872823e+002,1.030306e+002
9.882466e+002,1.002256e+002
9.892108e+002,1.017247e+002
9.901750e+002,1.082941e+002
9.911393e+002,1.165801e+002
9.921035e+002,1.250681e+002
9.930677e+002,1.327565e+002
9.940320e+002,1.403367e+002
9.949962e+002,1.483060e+002
9.959604e+002,1.570721e+002
9.969247e+002,1.667991e+002
9.978889e+002,1.768658e+002
9.988531e+002,1.852529e+002
9.998174e+002,1.932646e+002
1.000782e+003,2.047789e+002
1.001746e+003,2.169319e+002
1.002710e+003,2.245535e+002
1.003674e+003,2.256113e+002
1.004639e+003,2.234067e+002
1.005603e+003,2.238831e+002
1.006567e+003,2.270155e+002
1.007531e+003,2.279568e+002
1.008495e+003,2.259774e+002
1.009460e+003,2.237561e+002
1.010424e+003,2.227963e+002
1.011388e+003,2.232388e+002
1.012352e+003,2.253459e+002
1.013317e+003,2.312322e+002
1.014281e+003,2.330320e+002
1.015245e+003,2.272302e+002
1.016209e+003,2.176841e+002
1.017174e+003,2.063727e+002
1.018138e+003,1.944686e+002
1.019102e+003,1.829268e+002
1.020066e+003,1.727489e+002
1.021031e+003,1.640961e+002
1.021995e+003,1.555721e+002
1.022959e+003,1.463666e+002
1.023923e+003,1.377570e+002
1.024887e+003,1.303589e+002
1.025852e+003,1.229825e+002
1.026816e+003,1.135841e+002
1.027780e+003,1.018915e+002
1.028744e+003,9.301050e+001
1.029709e+003,8.855945e+001
1.030673e+003,8.503882e+001
1.031637e+003,8.093640e+001
1.032601e+003,7.681152e+001
1.033566e+003,7.416675e+001
1.034530e+003,7.374146e+001
1.035494e+003,7.426831e+001
1.036458e+003,7.361450e+001
1.037422e+003,7.280225e+001
1.038387e+003,7.454333e+001
1.039351e+003,7.830188e+001
1.040315e+003,8.072253e+001
1.041279e+003,7.932410e+001
1.042244e+003,7.560010e+001
1.043208e+003,7.519861e+001
1.044172e+003,7.950220e+001
1.045136e+003,8.318970e+001
1.046101e+003,8.756726e+001
1.047065e+003,9.084265e+001
1.048029e+003,9.123254e+001
1.048993e+003,8.900244e+001
1.049958e+003,8.583191e+001
1.050922e+003,8.228064e+001
1.051886e+003,8.019373e+001
1.052850e+003,8.202063e+001
1.053814e+003,8.560437e+001
1.054779e+003,8.840601e+001
1.055743e+003,8.964355e+001
1.056707e+003,8.966797e+001
1.057671e+003,8.884814e+001
1.058636e+003,8.698999e+001
1.059600e+003,8.661438e+001
1.060564e+003,9.160608e+001
1.061528e+003,9.471460e+001
1.062493e+003,9.237146e+001
1.063457e+003,8.763953e+001
1.064421e+003,8.478186e+001
1.065385e+003,8.459460e+001
1.066349e+003,8.345764e+001
1.067314e+003,7.729321e+001
1.068278e+003,7.258301e+001
1.069242e+003,7.594470e+001
1.070206e+003,8.347729e+001
1.071171e+003,8.828430e+001
1.072135e+003,8.723608e+001
1.073099e+003,8.308679e+001
1.074063e+003,8.118494e+001
1.075028e+003,8.216626e+001
1.075992e+003,8.215918e+001
1.076956e+003,8.015735e+001
1.077920e+003,7.757471e+001
1.078885e+003,7.607861e+001
1.079849e+003,7.518652e+001
1.080813e+003,7.254431e+001
1.081777e+003,6.709216e+001
1.082741e+003,6.489478e+001
1.083706e+003,7.206262e+001
1.084670e+003,7.891675e+001
1.085634e+003,7.992786e+001
1.086598e+003,7.647559e+001
1.087563e+003,7.198499e+001
1.088527e+003,6.895337e+001
1.089491e+003,6.805774e+001
1.090455e+003,6.948450e+001
1.091420e+003,7.281763e+001
1.092384e+003,7.575537e+001
1.093348e+003,7.774365e+001
1.094312e+003,7.902979e+001
1.095276e+003,8.049658e+001
1.096241e+003,8.244678e+001
1.097205e+003,8.385693e+001
1.098169e+003,8.328613e+001
1.099133e+003,8.395532e+001
1.100098e+003,9.019019e+001
1.101062e+003,9.594653e+001
1.102026e+003,9.621802e+001
1.102990e+003,9.297253e+001
1.103955e+003,9.164954e+001
1.104919e+003,9.532788e+001
1.105883e+003,1.006755e+002
1.106847e+003,1.003799e+002
1.107812e+003,9.429834e+001
1.108776e+003,9.317688e+001
1.109740e+003,9.916736e+001
1.110704e+003,1.066362e+002
1.111668e+003,1.128840e+002
1.112633e+003,1.184822e+002
1.113597e+003,1.231937e+002
1.114561e+003,1.260535e+002
1.115525e+003,1.282578e+002
1.116490e+003,1.296078e+002
1.117454e+003,1.308020e+002
1.118418e+003,1.327968e+002
1.119382e+003,1.360660e+002
1.120347e+003,1.402487e+002
1.121311e+003,1.443993e+002
1.122275e+003,1.478091e+002
1.123239e+003,1.520764e+002
1.124203e+003,1.580061e+002
1.125168e+003,1.608212e+002
1.126132e+003,1.589771e+002
1.127096e+003,1.579049e+002
1.128060e+003,1.610980e+002
1.129025e+003,1.677535e+002
1.129989e+003,1.762091e+002
1.130953e+003,1.882007e+002
1.131917e+003,1.966232e+002
1.132882e+003,1.977191e+002
1.133846e+003,1.979008e+002
1.134810e+003,2.004819e+002
1.135774e+003,2.056930e+002
1.136739e+003,2.121627e+002
1.137703e+003,2.190670e+002
1.138667e+003,2.275231e+002
1.139631e+003,2.395071e+002
1.140595e+003,2.552242e+002
1.141560e+003,2.761650e+002
1.142524e+003,3.041429e+002
1.143488e+003,3.339532e+002
1.144452e+003,3.608500e+002
1.145417e+003,3.863741e+002
1.146381e+003,4.162640e+002
1.147345e+003,4.510156e+002
1.148309e+003,4.885194e+002
1.149274e+003,5.279901e+002
1.150238e+003,5.709875e+002
1.151202e+003,6.235542e+002
1.152166e+003,6.800295e+002
1.153130e+003,7.309873e+002
1.154095e+003,7.708805e+002
1.155059e+003,7.992679e+002
1.156023e+003,8.174583e+002
1.156987e+003,8.245730e+002
1.157952e+003,8.180999e+002
1.158916e+003,7.988052e+002
1.159880e+003,7.733998e+002
1.160844e+003,7.422308e+002
1.161809e+003,7.048359e+002
1.162773e+003,6.622793e+002
1.163737e+003,6.132756e+002
1.164701e+003,5.655435e+002
1.165666e+003,5.206078e+002
1.166630e+003,4.792301e+002
1.167594e+003,4.375095e+002
1.168558e+003,4.011880e+002
1.169522e+003,3.800140e+002
1.170487e+003,3.754324e+002
1.171451e+003,3.774431e+002
1.172415e+003,3.747103e+002
1.173379e+003,3.685587e+002
1.174344e+003,3.688431e+002
1.175308e+003,3.764027e+002
1.176272e+003,3.809858e+002
1.177236e+003,3.801199e+002
1.178201e+003,3.747432e+002
1.179165e+003,3.640762e+002
1.180129e+003,3.472970e+002
1.181093e+003,3.312810e+002
1.182057e+003,3.183997e+002
1.183022e+003,3.060591e+002
1.183986e+003,2.909469e+002
1.184950e+003,2.775172e+002
1.185914e+003,2.701387e+002
1.186879e+003,2.693746e+002
1.187843e+003,2.736674e+002
1.188807e+003,2.815847e+002
1.189771e+003,2.912797e+002
1.190736e+003,2.984541e+002
1.191700e+003,3.028029e+002
1.192664e+003,3.062205e+002
1.193628e+003,3.111195e+002
1.194593e+003,3.134086e+002
1.195557e+003,3.083490e+002
1.196521e+003,2.978822e+002
1.197485e+003,2.899017e+002
1.198449e+003,2.871991e+002
1.199414e+003,2.823867e+002
1.200378e+003,2.693251e+002
1.201342e+003,2.557727e+002
1.202306e+003,2.460205e+002
1.203271e+003,2.392369e+002
1.204235e+003,2.329183e+002
1.205199e+003,2.260321e+002
1.206163e+003,2.199905e+002
1.207128e+003,2.173013e+002
1.208092e+003,2.184032e+002
1.209056e+003,2.133937e+002
1.210020e+003,2.001541e+002
1.210984e+003,1.865221e+002
1.211949e+003,1.747273e+002
1.212913e+003,1.632648e+002
1.213877e+003,1.493818e+002
1.214841e+003,1.334012e+002
1.215806e+003,1.221781e+002
1.216770e+003,1.215219e+002
1.217734e+003,1.207926e+002
1.218698e+003,1.094342e+002
1.219663e+003,9.482751e+001
1.220627e+003,8.650427e+001
1.221591e+003,8.582275e+001
1.222555e+003,8.793616e+001
1.223520e+003,8.863330e+001
1.224484e+003,8.820874e+001
1.225448e+003,8.625488e+001
1.226412e+003,8.038013e+001
1.227376e+003,7.817432e+001
1.228341e+003,8.288464e+001
1.229305e+003,8.684729e+001
1.230269e+003,8.537476e+001
1.231233e+003,8.024780e+001
1.232198e+003,7.512366e+001
1.233162e+003,7.121997e+001
1.234126e+003,6.982751e+001
1.235090e+003,7.275940e+001
1.236055e+003,7.666663e+001
1.237019e+003,7.862085e+001
1.237983e+003,7.838843e+001
1.238947e+003,7.593762e+001
1.239911e+003,7.174561e+001
1.240876e+003,6.794226e+001
1.241840e+003,6.734351e+001
1.242804e+003,7.018237e+001
1.243768e+003,7.279529e+001
1.244733e+003,7.657617e+001
1.245697e+003,7.812500e+001
1.246661e+003,7.252917e+001
1.247625e+003,6.711023e+001
1.248590e+003,6.916125e+001
1.249554e+003,7.738501e+001
1.250518e+003,8.505725e+001
1.251482e+003,8.874548e+001
1.252447e+003,8.985376e+001
1.253411e+003,8.938733e+001
1.254375e+003,8.925220e+001
1.255339e+003,9.371094e+001
1.256303e+003,1.030104e+002
1.257268e+003,1.106470e+002
1.258232e+003,1.112660e+002
1.259196e+003,1.081820e+002
1.260160e+003,1.095708e+002
1.261125e+003,1.167813e+002
1.262089e+003,1.252164e+002
1.263053e+003,1.361545e+002
1.264017e+003,1.441864e+002
1.264982e+003,1.479493e+002
1.265946e+003,1.490916e+002
1.266910e+003,1.481705e+002
1.267874e+003,1.461522e+002
1.268839e+003,1.456543e+002
1.269803e+003,1.485651e+002
1.270767e+003,1.509786e+002
1.271731e+003,1.442832e+002
1.272695e+003,1.292080e+002
1.273660e+003,1.185481e+002
1.274624e+003,1.120968e+002
1.275588e+003,1.075955e+002
1.276552e+003,1.059486e+002
1.277517e+003,1.061594e+002
1.278481e+003,1.052715e+002
1.279445e+003,1.027683e+002
1.280409e+003,1.001864e+002
1.281374e+003,9.866504e+001
1.282338e+003,9.650317e+001
1.283302e+003,9.168042e+001
1.284266e+003,8.627258e+001
1.285230e+003,8.291882e+001
1.286195e+003,8.160168e+001
1.287159e+003,8.025745e+001
1.288123e+003,7.755762e+001
1.289087e+003,7.473218e+001
1.290052e+003,7.399634e+001
1.291016e+003,7.602612e+001
1.291980e+003,7.493567e+001
1.292944e+003,6.579504e+001
1.293909e+003,5.859192e+001
1.294873e+003,5.888782e+001
1.295837e+003,6.370532e+001
1.296801e+003,6.960938e+001
1.297766e+003,7.571948e+001
1.298730e+003,7.964600e+001
1.299694e+003,7.895300e+001
1.300658e+003,7.635754e+001
1.301622e+003,7.589587e+001
1.302587e+003,7.614417e+001
1.303551e+003,7.377124e+001
1.304515e+003,6.878760e+001
1.305479e+003,6.472998e+001
1.306444e+003,6.392334e+001
1.307408e+003,6.554138e+001
1.308372e+003,6.858154e+001
1.309336e+003,7.439258e+001
1.310301e+003,7.713538e+001
1.311265e+003,7.604126e+001
1.312229e+003,7.353406e+001
1.313193e+003,6.863745e+001
1.314157e+003,6.335352e+001
1.315122e+003,5.933069e+001
1.316086e+003,5.676123e+001
1.317050e+003,5.533752e+001
1.318014e+003,5.526819e+001
1.318979e+003,5.662988e+001
1.319943e+003,5.961353e+001
1.320907e+003,6.417004e+001
1.321871e+003,6.613452e+001
1.322836e+003,6.306799e+001
1.323800e+003,6.142236e+001
1.324764e+003,6.690393e+001
1.325728e+003,7.510962e+001
1.326693e+003,7.766663e+001
1.327657e+003,7.377832e+001
1.328621e+003,6.965869e+001
1.329585e+003,6.801782e+001
1.330549e+003,6.958203e+001
1.331514e+003,7.438147e+001
1.332478e+003,7.860022e+001
1.333442e+003,7.962451e+001
1.334406e+003,7.764734e+001
1.335371e+003,7.297583e+001
1.336335e+003,6.600354e+001
1.337299e+003,5.973315e+001
1.338263e+003,5.992017e+001
1.339228e+003,6.766626e+001
1.340192e+003,7.184973e+001
1.341156e+003,7.057007e+001
1.342120e+003,6.875330e+001
1.343084e+003,6.619983e+001
1.344049e+003,6.257544e+001
1.345013e+003,5.682471e+001
1.345977e+003,5.102222e+001
1.346941e+003,5.032068e+001
1.347906e+003,5.673816e+001
1.348870e+003,6.444849e+001
1.349834e+003,6.846448e+001
1.350798e+003,6.915161e+001
1.351763e+003,6.819189e+001
1.352727e+003,6.607349e+001
1.353691e+003,6.411572e+001
1.354655e+003,6.281885e+001
1.355620e+003,6.215149e+001
1.356584e+003,6.304431e+001
1.357548e+003,6.532617e+001
1.358512e+003,6.417786e+001
1.359476e+003,5.598730e+001
1.360441e+003,5.035876e+001
1.361405e+003,5.331335e+001
1.362369e+003,5.638550e+001
1.363333e+003,5.473999e+001
1.364298e+003,5.101794e+001
1.365262e+003,4.942749e+001
1.366226e+003,5.086829e+001
1.367190e+003,5.304309e+001
1.368155e+003,5.389453e+001
1.369119e+003,5.404688e+001
1.370083e+003,5.580188e+001
1.371047e+003,6.063220e+001
1.372011e+003,6.238660e+001
1.372976e+003,5.648254e+001
1.373940e+003,5.176904e+001
1.374904e+003,5.322095e+001
1.375868e+003,5.727600e+001
1.376833e+003,5.876587e+001
1.377797e+003,5.744446e+001
1.378761e+003,5.719482e+001
1.379725e+003,6.012842e+001
1.380690e+003,6.388367e+001
1.381654e+003,6.691650e+001
1.382618e+003,6.916284e+001
1.383582e+003,7.008301e+001
1.384547e+003,6.975244e+001
1.385511e+003,6.874805e+001
1.386475e+003,6.688623e+001
1.387439e+003,6.462280e+001
1.388403e+003,6.262500e+001
1.389368e+003,6.080579e+001
1.390332e+003,6.069739e+001
1.391296e+003,6.467395e+001
1.392260e+003,6.680676e+001
1.393225e+003,6.375525e+001
1.394189e+003,6.043994e+001
1.395153e+003,5.991199e+001
1.396117e+003,6.092505e+001
1.397082e+003,6.122253e+001
1.398046e+003,6.046326e+001
1.399010e+003,6.005432e+001
1.399974e+003,6.076526e+001
1.400938e+003,6.131702e+001
1.401903e+003,6.044250e+001
1.402867e+003,5.979175e+001
1.403831e+003,6.157971e+001
1.404795e+003,6.509875e+001
1.405760e+003,6.960962e+001
1.406724e+003,7.590808e+001
1.407688e+003,7.935962e+001
1.408652e+003,7.411682e+001
1.409617e+003,6.275623e+001
1.410581e+003,5.558496e+001
1.411545e+003,5.698730e+001
1.412509e+003,6.151001e+001
1.413474e+003,6.485730e+001
1.414438e+003,6.584534e+001
1.415402e+003,6.309326e+001
1.416366e+003,5.825159e+001
1.417330e+003,5.706226e+001
1.418295e+003,6.271082e+001
1.419259e+003,6.920569e+001
1.420223e+003,6.746313e+001
1.421187e+003,5.890112e+001
1.422152e+003,5.684753e+001
1.423116e+003,6.515784e+001
1.424080e+003,7.152722e+001
1.425044e+003,6.791772e+001
1.426009e+003,6.502087e+001
1.426973e+003,6.850452e+001
1.427937e+003,7.430444e+001
1.428901e+003,7.821167e+001
1.429865e+003,7.973853e+001
1.430830e+003,7.968005e+001
1.431794e+003,7.824805e+001
1.432758e+003,7.643628e+001
1.433722e+003,7.729980e+001
1.434687e+003,8.217969e+001
1.435651e+003,8.992981e+001
1.436615e+003,1.032932e+002
1.437579e+003,1.092079e+002
1.438544e+003,1.016136e+002
1.439508e+003,9.206299e+001
1.440472e+003,8.799475e+001
1.441436e+003,8.888318e+001
1.442401e+003,9.307666e+001
1.443365e+003,9.913269e+001
1.444329e+003,1.020680e+002
1.445293e+003,9.772351e+001
1.446257e+003,9.068555e+001
1.447222e+003,8.953760e+001
1.448186e+003,9.298413e+001
1.449150e+003,9.492920e+001
1.450114e+003,9.456128e+001
1.451079e+003,9.266650e+001
1.452043e+003,8.922656e+001
1.453007e+003,8.599438e+001
1.453971e+003,8.513171e+001
1.454936e+003,8.592444e+001
1.455900e+003,8.501160e+001
1.456864e+003,8.080469e+001
1.457828e+003,7.983264e+001
1.458792e+003,8.936084e+001
1.459757e+003,9.936035e+001
1.460721e+003,1.017726e+002
1.461685e+003,9.833643e+001
1.462649e+003,9.271216e+001
1.463614e+003,8.663953e+001
1.464578e+003,8.191418e+001
1.465542e+003,7.996155e+001
1.466506e+003,7.956897e+001
1.467471e+003,7.792700e+001
1.468435e+003,7.530005e+001
1.469399e+003,7.545935e+001
1.470363e+003,7.880945e+001
1.471328e+003,8.255139e+001
1.472292e+003,8.645752e+001
1.473256e+003,8.838025e+001
1.474220e+003,8.654602e+001
1.475184e+003,8.373914e+001
1.476149e+003,8.460596e+001
1.477113e+003,8.956592e+001
1.478077e+003,9.391870e+001
1.479041e+003,9.375073e+001
1.480006e+003,9.140747e+001
1.480970e+003,9.282117e+001
1.481934e+003,9.829126e+001
1.482898e+003,1.021213e+002
1.483863e+003,1.031603e+002
1.484827e+003,1.039240e+002
1.485791e+003,1.053719e+002
1.486755e+003,1.080900e+002
1.487719e+003,1.118661e+002
1.488684e+003,1.164049e+002
1.489648e+003,1.222402e+002
1.490612e+003,1.299396e+002
1.491576e+003,1.383719e+002
1.492541e+003,1.462939e+002
1.493505e+003,1.537499e+002
1.494469e+003,1.605537e+002
1.495433e+003,1.660571e+002
1.496398e+003,1.733497e+002
1.497362e+003,1.854417e+002
1.498326e+003,1.959504e+002
1.499290e+003,1.977032e+002
1.500255e+003,1.983965e+002
1.501219e+003,2.082960e+002
1.502183e+003,2.263711e+002
1.503147e+003,2.471172e+002
1.504111e+003,2.699208e+002
1.505076e+003,2.919436e+002
1.506040e+003,3.074745e+002
1.507004e+003,3.265862e+002
1.507968e+003,3.610696e+002
1.508933e+003,4.054771e+002
1.509897e+003,4.481620e+002
1.510861e+003,4.884934e+002
1.511825e+003,5.344194e+002
1.512790e+003,5.908235e+002
1.513754e+003,6.541721e+002
1.514718e+003,7.210405e+002
1.515682e+003,7.904674e+002
1.516646e+003,8.542026e+002
1.517611e+003,9.119978e+002
1.518575e+003,9.658811e+002
1.519539e+003,1.021417e+003
1.520503e+003,1.069953e+003
1.521468e+003,1.108050e+003
1.522432e+003,1.134667e+003
1.523396e+003,1.149162e+003
1.524360e+003,1.151300e+003
1.525325e+003,1.141427e+003
1.526289e+003,1.120040e+003
1.527253e+003,1.088222e+003
1.528217e+003,1.046814e+003
1.529182e+003,9.965247e+002
1.530146e+003,9.431611e+002
1.531110e+003,8.894246e+002
1.532074e+003,8.251592e+002
1.533039e+003,7.403326e+002
1.534003e+003,6.529642e+002
1.534967e+003,5.703015e+002
1.535931e+003,4.936089e+002
1.536896e+003,4.213181e+002
1.537860e+003,3.551890e+002
1.538824e+003,2.995195e+002
1.539788e+003,2.559487e+002
1.540752e+003,2.219163e+002
1.541717e+003,1.948789e+002
1.542681e+003,1.750198e+002
1.543645e+003,1.598906e+002
1.544609e+003,1.525721e+002
1.545573e+003,1.450533e+002
1.546538e+003,1.353665e+002
1.547502e+003,1.253234e+002
1.548466e+003,1.144614e+002
1.549430e+003,1.068477e+002
1.550395e+003,1.083514e+002
1.551359e+003,1.152699e+002
1.552323e+003,1.175958e+002
1.553287e+003,1.121045e+002
1.554252e+003,1.040868e+002
1.555216e+003,9.772571e+001
1.556180e+003,9.267407e+001
1.557144e+003,8.839380e+001
1.558109e+003,8.529456e+001
1.559073e+003,8.304883e+001
1.560037e+003,8.188184e+001
1.561001e+003,7.795911e+001
1.561966e+003,6.760913e+001
1.562930e+003,5.880212e+001
1.563894e+003,5.949207e+001
1.564858e+003,6.623181e+001
1.565823e+003,7.126697e+001
1.566787e+003,7.284692e+001
1.567751e+003,7.181873e+001
1.568715e+003,6.803394e+001
1.569679e+003,6.494360e+001
1.570644e+003,6.768604e+001
1.571608e+003,7.323376e+001
1.572572e+003,7.408728e+001
1.573536e+003,7.052539e+001
1.574500e+003,6.859204e+001
1.575465e+003,7.039307e+001
1.576429e+003,7.338977e+001
1.577393e+003,7.622314e+001
1.578357e+003,7.791626e+001
1.579322e+003,7.644482e+001
1.580286e+003,7.232495e+001
1.581250e+003,6.994507e+001
1.582214e+003,7.086877e+001
1.583179e+003,7.280554e+001
1.584143e+003,7.489368e+001
1.585107e+003,7.531519e+001
1.586071e+003,7.147424e+001
1.587036e+003,6.609241e+001
1.588000e+003,6.514807e+001
1.588964e+003,6.951282e+001
1.589928e+003,7.336121e+001
1.590893e+003,7.213245e+001
1.591857e+003,6.927466e+001
1.592821e+003,7.076038e+001
1.593785e+003,7.573401e+001
1.594750e+003,7.758569e+001
1.595714e+003,7.436536e+001
1.596678e+003,7.271729e+001
1.597642e+003,7.610889e+001
1.598606e+003,8.095361e+001
1.599571e+003,8.524646e+001
1.600535e+003,8.925342e+001
1.601499e+003,9.357849e+001
1.602463e+003,9.755457e+001
1.603427e+003,9.887000e+001
1.604392e+003,9.652332e+001
1.605356e+003,9.251563e+001
1.606320e+003,8.864941e+001
1.607284e+003,8.485669e+001
1.608249e+003,8.048804e+001
1.609213e+003,7.551550e+001
1.610177e+003,7.159595e+001
1.611141e+003,6.950623e+001
1.612106e+003,6.729419e+001
1.613070e+003,6.321216e+001
1.614034e+003,5.922302e+001
1.614998e+003,5.722510e+001
1.615963e+003,5.621448e+001
1.616927e+003,5.377625e+001
1.617891e+003,4.967261e+001
1.618855e+003,4.636096e+001
1.619820e+003,4.505212e+001
1.620784e+003,4.366589e+001
1.621748e+003,4.005847e+001
1.622712e+003,3.613623e+001
1.623677e+003,3.649988e+001
1.624641e+003,4.196094e+001
1.625605e+003,4.798535e+001
1.626569e+003,5.327014e+001
1.627533e+003,5.486694e+001
1.628498e+003,4.950928e+001
1.629462e+003,4.379285e+001
1.630426e+003,4.378809e+001
1.631390e+003,4.732764e+001
1.632354e+003,4.918542e+001
1.633319e+003,4.802576e+001
1.634283e+003,4.594214e+001
1.635247e+003,4.406580e+001
1.636211e+003,4.286816e+001
1.637176e+003,4.473779e+001
1.638140e+003,4.963940e+001
1.639104e+003,5.022180e+001
1.640068e+003,4.426355e+001
1.641033e+003,4.009033e+001
1.641997e+003,4.098743e+001
1.642961e+003,4.326355e+001
1.643925e+003,4.683728e+001
1.644890e+003,4.921948e+001
1.645854e+003,4.549866e+001
1.646818e+003,3.857788e+001
1.647782e+003,3.713208e+001
1.648747e+003,4.337952e+001
1.649711e+003,4.994800e+001
1.650675e+003,5.124377e+001
1.651639e+003,4.974402e+001
1.652604e+003,4.890332e+001
1.653568e+003,4.825769e+001
1.654532e+003,4.902600e+001
1.655496e+003,5.203918e+001
1.656460e+003,5.385107e+001
1.657425e+003,5.477954e+001
1.658389e+003,5.315955e+001
1.659353e+003,4.419470e+001
1.660317e+003,3.519800e+001
1.661281e+003,3.589856e+001
1.662246e+003,4.316284e+001
1.663210e+003,4.655054e+001
1.664174e+003,4.299524e+001
1.665138e+003,3.764404e+001
1.666103e+003,3.433777e+001
1.667067e+003,3.166650e+001
1.668031e+003,2.631970e+001
1.668995e+003,1.898340e+001
1.669960e+003,1.729639e+001
1.670924e+003,2.382068e+001
1.671888e+003,2.830762e+001
1.672852e+003,2.473718e+001
1.673817e+003,2.161206e+001
1.674781e+003,2.654504e+001
1.675745e+003,3.292419e+001
1.676709e+003,3.281653e+001
1.677674e+003,2.755554e+001
1.678638e+003,2.327588e+001
1.679602e+003,2.190540e+001
1.680566e+003,2.010547e+001
1.681531e+003,1.438403e+001
1.682495e+003,9.120728e+000
1.683459e+003,1.282068e+001
1.684423e+003,2.305725e+001
1.685387e+003,2.698840e+001
1.686352e+003,2.306873e+001
1.687316e+003,1.869299e+001
1.688280e+003,1.557141e+001
1.689244e+003,1.364331e+001
1.690208e+003,1.240686e+001
1.691173e+003,1.224976e+001
1.692137e+003,1.549841e+001
1.693101e+003,2.119519e+001
1.694065e+003,2.376355e+001
1.695030e+003,2.092456e+001
1.695994e+003,1.799268e+001
1.696958e+003,1.920093e+001
1.697922e+003,2.177832e+001
1.698887e+003,2.245776e+001
1.699851e+003,2.186523e+001
1.700815e+003,2.091016e+001
1.701779e+003,1.928784e+001
1.702744e+003,1.774341e+001
1.703708e+003,1.751575e+001
1.704672e+003,1.746069e+001
1.705636e+003,1.501550e+001
1.706601e+003,1.154651e+001
1.707565e+003,1.087939e+001
1.708529e+003,1.273242e+001
1.709493e+003,1.464783e+001
1.710458e+003,1.640381e+001
1.711422e+003,1.626587e+001
1.712386e+003,1.190796e+001
1.713350e+003,8.756714e+000
1.714314e+003,1.199634e+001
1.715279e+003,1.716992e+001
1.716243e+003,1.685278e+001
1.717207e+003,1.194238e+001
1.718171e+003,9.096558e+000
1.719135e+003,1.034180e+001
1.720100e+003,1.319824e+001
1.721064e+003,1.648767e+001
1.722028e+003,1.773682e+001
1.722992e+003,1.287305e+001
1.723957e+003,4.431030e+000
1.724921e+003,2.063599e+000
1.725885e+003,5.254028e+000
1.726849e+003,7.234253e+000
1.727814e+003,9.217773e+000
1.728778e+003,1.006641e+001
1.729742e+003,7.072144e+000
1.730706e+003,4.075073e+000
1.731671e+003,5.132446e+000
1.732635e+003,7.357422e+000
1.733599e+003,5.824341e+000
1.734563e+003,1.037720e+000
1.735528e+003,-2.789307e+000
1.736492e+003,-3.836060e+000
1.737456e+003,-2.979858e+000
1.738420e+003,-9.223633e-001
1.739385e+003,8.824463e-001
1.740349e+003,-5.294189e-001
1.741313e+003,-5.549805e+000
1.742277e+003,-8.397217e+000
1.743241e+003,-8.606812e+000
1.744206e+003,-6.152588e+000
1.745170e+003,1.780762e+000
1.746134e+003,8.201538e+000
1.747098e+003,8.532104e+000
1.748063e+003,5.697266e+000
1.749027e+003,2.691528e+000
1.749991e+003,2.598877e-001
1.750955e+003,-2.581665e+000
1.751919e+003,-5.773804e+000
1.752884e+003,-5.739746e+000
1.753848e+003,6.219482e-001
1.754812e+003,8.283569e+000
1.755776e+003,6.974365e+000
1.756741e+003,-2.103638e+000
1.757705e+003,-4.500366e+000
1.758669e+003,1.877563e+000
1.759633e+003,6.704468e+000
1.760598e+003,8.933716e+000
1.761562e+003,8.059204e+000
1.762526e+003,1.839844e+000
1.763490e+003,-3.632690e+000
1.764455e+003,-3.238403e+000
1.765419e+003,5.670166e-001
1.766383e+003,3.241211e+000
1.767347e+003,3.820923e+000
1.768312e+003,4.143799e+000
1.769276e+003,4.844849e+000
1.770240e+003,4.629028e+000
1.771204e+003,2.994629e+000
1.772168e+003,1.343872e+000
1.773133e+003,1.267700e+000
1.774097e+003,2.493286e+000
1.775061e+003,2.248779e+000
1.776025e+003,-1.007568e+000
1.776990e+003,-2.856567e+000
1.777954e+003,1.042480e-001
1.778918e+003,3.522827e+000
1.779882e+003,3.664063e+000
1.780846e+003,1.266724e+000
1.781811e+003,-2.666748e+000
1.782775e+003,-7.069092e+000
1.783739e+003,-9.275146e+000
1.784703e+003,-8.623779e+000
1.785668e+003,-5.550171e+000
1.786632e+003,1.636597e+000
1.787596e+003,6.489258e+000
1.788560e+003,3.536621e+000
1.789525e+003,-1.693848e+000
1.790489e+003,-2.477539e+000
1.791453e+003,-1.848145e-001
1.792417e+003,7.822266e-001
1.793382e+003,-4.161377e-001
1.794346e+003,-2.346436e+000
1.795310e+003,-4.503662e+000
1.796274e+003,-5.502563e+000
1.797239e+003,-2.746460e+000
1.798203e+003,2.981323e+000
1.799167e+003,5.503540e+000
1.800131e+003,2.170654e+000
1.801095e+003,7.531738e-001
1.802060e+003,5.666870e+000
1.803024e+003,8.759033e+000
1.803988e+003,6.543701e+000
1.804952e+003,4.411621e+000
1.805917e+003,5.817627e+000
1.806881e+003,7.704468e+000
1.807845e+003,6.817261e+000
1.808809e+003,4.457397e+000
1.809773e+003,3.674561e+000
1.810738e+003,4.936768e+000
1.811702e+003,6.310547e+000
1.812666e+003,6.489136e+000
1.813630e+003,5.889160e+000
1.814595e+003,5.027344e+000
1.815559e+003,3.687256e+000
1.816523e+003,1.567749e+000
1.817487e+003,-1.443481e+000
1.818452e+003,-1.036865e+000
1.819416e+003,5.431519e+000
1.820380e+003,1.076770e+001
1.821344e+003,1.237549e+001
1.822309e+003,1.149622e+001
1.823273e+003,8.230225e+000
1.824237e+003,4.761841e+000
1.825201e+003,2.500732e+000
1.826166e+003,1.174316e+000
1.827130e+003,3.834229e-001
1.828094e+003,-2.652588e-001
1.829058e+003,-6.009521e-001
1.830022e+003,5.440674e-001
1.830987e+003,1.240356e+000
1.831951e+003,-7.008057e-001
1.832915e+003,-3.600098e+000
1.833879e+003,-5.624268e+000
1.834844e+003,-6.487061e+000
1.835808e+003,-4.469360e+000
1.836772e+003,7.812500e-002
1.837736e+003,5.371094e-001
1.838700e+003,-6.591064e+000
1.839665e+003,-1.390527e+001
1.840629e+003,-1.415955e+001
1.841593e+003,-9.804688e+000
1.842557e+003,-6.324219e+000
1.843522e+003,-3.782104e+000
1.844486e+003,-3.234375e+000
1.845450e+003,-6.065918e+000
1.846414e+003,-5.910522e+000
1.847379e+003,-7.786865e-001
1.848343e+003,1.585327e+000
1.849307e+003,-2.758179e+000
1.850271e+003,-7.830933e+000
1.851236e+003,-9.653198e+000
1.852200e+003,-8.393921e+000
1.853164e+003,-4.558716e+000
1.854128e+003,-2.762451e-001
1.855093e+003,1.662109e+000
1.856057e+003,9.354248e-001
1.857021e+003,-1.855957e+000
1.857985e+003,-7.266113e+000
1.858949e+003,-1.237646e+001
1.859914e+003,-1.082178e+001
1.860878e+003,-3.742432e+000
1.861842e+003,1.292480e+000
1.862806e+003,3.914185e+000
1.863771e+003,4.085205e+000
1.864735e+003,7.559814e-001
1.865699e+003,-2.291138e+000
1.866663e+003,-3.410278e+000
1.867627e+003,-2.033936e+000
1.868592e+003,3.753418e+000
1.869556e+003,9.770264e+000
1.870520e+003,8.808960e+000
1.871484e+003,1.911743e+000
1.872449e+003,-3.447754e+000
1.873413e+003,-4.220337e+000
1.874377e+003,-2.317505e+000
1.875341e+003,-1.560059e-001
1.876306e+003,2.532837e+000
1.877270e+003,7.299438e+000
1.878234e+003,1.082263e+001
1.879198e+003,9.008057e+000
1.880163e+003,4.468018e+000
1.881127e+003,2.531616e+000
1.882091e+003,3.413208e+000
1.883055e+003,2.910278e+000
1.884020e+003,-5.153809e-001
1.884984e+003,-2.657104e+000
1.885948e+003,5.089111e-001
1.886912e+003,5.498047e+000
1.887876e+003,5.129883e+000
1.888841e+003,5.236816e-002
1.889805e+003,-3.396362e+000
1.890769e+003,-5.658569e+000
1.891733e+003,-3.294556e+000
1.892698e+003,6.307129e+000
1.893662e+003,1.313574e+001
1.894626e+003,1.235742e+001
1.895590e+003,1.035876e+001
1.896554e+003,1.157336e+001
1.897519e+003,1.487659e+001
1.898483e+003,1.984753e+001
1.899447e+003,2.427612e+001
1.900411e+003,2.295337e+001
1.901376e+003,1.499573e+001
1.902340e+003,8.014893e+000
1.903304e+003,4.673706e+000
1.904268e+003,2.903320e+000
1.905233e+003,3.127930e+000
1.906197e+003,3.412476e+000
1.907161e+003,8.782959e-001
1.908125e+003,-2.253662e+000
1.909090e+003,-3.324341e+000
1.910054e+003,-2.022461e+000
1.911018e+003,3.740723e+000
1.911982e+003,1.402478e+001
1.912947e+003,2.175330e+001
1.913911e+003,2.150024e+001
1.914875e+003,1.697473e+001
1.915839e+003,1.325073e+001
1.916803e+003,1.002527e+001
1.917768e+003,9.800537e+000
1.918732e+003,1.396423e+001
1.919696e+003,1.620752e+001
1.920660e+003,1.664868e+001
1.921625e+003,1.593835e+001
1.922589e+003,1.154749e+001
1.923553e+003,9.065308e+000
1.924517e+003,1.419482e+001
1.925481e+003,2.031213e+001
1.926446e+003,2.153284e+001
1.927410e+003,1.964978e+001
1.928374e+003,1.743799e+001
1.929338e+003,1.484265e+001
1.930303e+003,1.369165e+001
1.931267e+003,1.639978e+001
1.932231e+003,1.878833e+001
1.933195e+003,1.751733e+001
1.934160e+003,1.502881e+001
1.935124e+003,1.204504e+001
1.936088e+003,9.181763e+000
1.937052e+003,7.818604e+000
1.938017e+003,8.377319e+000
1.938981e+003,1.187244e+001
1.939945e+003,1.692603e+001
1.940909e+003,1.787756e+001
1.941874e+003,1.242908e+001
1.942838e+003,6.506592e+000
1.943802e+003,6.401123e+000
1.944766e+003,1.032373e+001
1.945730e+003,1.333020e+001
1.946695e+003,1.471167e+001
1.947659e+003,1.282605e+001
1.948623e+003,6.820068e+000
1.949587e+003,5.170654e+000
1.950552e+003,1.060681e+001
1.951516e+003,1.487451e+001
1.952480e+003,1.505579e+001
1.953444e+003,1.365881e+001
1.954408e+003,1.077136e+001
1.955373e+003,7.787476e+000
1.956337e+003,9.197266e+000
1.957301e+003,1.390381e+001
1.958265e+003,1.371594e+001
1.959230e+003,7.560425e+000
1.960194e+003,5.442505e+000
1.961158e+003,9.465210e+000
1.962122e+003,1.345996e+001
1.963087e+003,1.790186e+001
1.964051e+003,1.990576e+001
1.965015e+003,1.695703e+001
1.965979e+003,1.322766e+001
1.966944e+003,1.088245e+001
1.967908e+003,1.027405e+001
1.968872e+003,1.346582e+001
1.969836e+003,1.924878e+001
1.970801e+003,2.137109e+001
1.971765e+003,1.762744e+001
1.972729e+003,1.479358e+001
1.973693e+003,1.895581e+001
1.974657e+003,2.573145e+001
1.975622e+003,2.870410e+001
1.976586e+003,2.845325e+001
1.977550e+003,2.725684e+001
1.978514e+003,2.560364e+001
1.979479e+003,2.365881e+001
1.980443e+003,2.134912e+001
1.981407e+003,2.020520e+001
1.982371e+003,2.120544e+001
1.983335e+003,2.260376e+001
1.984300e+003,2.252124e+001
1.985264e+003,2.167017e+001
1.986228e+003,2.182019e+001
1.987192e+003,2.264294e+001
1.988157e+003,2.246973e+001
1.989121e+003,2.121875e+001
1.990085e+003,2.138940e+001
1.991049e+003,2.517151e+001
1.992014e+003,2.699756e+001
1.992978e+003,2.298547e+001
1.993942e+003,2.031116e+001
1.994906e+003,2.447192e+001
1.995871e+003,2.778662e+001
1.996835e+003,2.310364e+001
1.997799e+003,1.549878e+001
1.998763e+003,1.103491e+001
1.999728e+003,9.950562e+000
