5.003444e+002,2.904028e+001
5.013087e+002,3.190424e+001
5.022729e+002,3.107031e+001
5.032371e+002,2.773596e+001
5.042014e+002,2.523315e+001
5.051656e+002,2.354004e+001
5.061298e+002,2.231470e+001
5.070941e+002,2.119244e+001
5.080583e+002,1.999323e+001
5.090225e+002,1.892615e+001
5.099868e+002,1.779840e+001
5.109510e+002,1.690881e+001
5.119152e+002,1.640314e+001
5.128795e+002,1.631494e+001
5.138437e+002,1.668958e+001
5.148079e+002,1.826190e+001
5.157722e+002,1.980414e+001
5.167364e+002,2.107660e+001
5.177006e+002,2.170618e+001
5.186649e+002,2.101233e+001
5.196291e+002,1.696448e+001
5.205933e+002,1.260553e+001
5.215576e+002,1.132379e+001
5.225218e+002,1.299780e+001
5.234860e+002,1.565973e+001
5.244503e+002,1.610345e+001
5.254145e+002,1.383777e+001
5.263787e+002,1.281299e+001
5.273430e+002,1.384637e+001
5.283072e+002,1.556555e+001
5.292714e+002,1.585944e+001
5.302357e+002,1.332397e+001
5.311999e+002,1.129254e+001
5.321641e+002,1.149365e+001
5.331284e+002,1.205194e+001
5.340926e+002,1.103339e+001
5.350568e+002,7.439880e+000
5.360211e+002,3.678162e+000
5.369853e+002,2.434265e+000
5.379495e+002,2.449768e+000
5.389138e+002,2.689880e+000
5.398780e+002,2.686218e+000
5.408422e+002,2.723877e+000
5.418065e+002,4.201355e+000
5.427707e+002,6.797180e+000
5.437349e+002,7.884216e+000
5.446992e+002,6.255249e+000
5.456634e+002,2.863586e+000
5.466276e+002,1.211365e+000
5.475919e+002,3.564453e+000
5.485561e+002,5.300842e+000
5.495203e+002,6.250244e+000
5.504846e+002,6.229065e+000
5.514488e+002,4.776184e+000
5.524130e+002,7.985229e-001
5.533773e+002,-1.920044e+000
5.543415e+002,-1.467834e+000
5.553057e+002,8.350830e-001
5.562700e+002,4.354492e+000
5.572342e+002,8.606140e+000
5.581984e+002,1.194629e+001
5.591627e+002,9.011108e+000
5.601269e+002,2.623779e+000
5.610911e+002,-1.488281e+000
5.620554e+002,-3.228149e-001
5.630196e+002,5.231506e+000
5.639838e+002,8.274902e+000
5.649481e+002,7.895996e+000
5.659123e+002,6.450745e+000
5.668765e+002,3.480347e+000
5.678408e+002,6.738281e-002
5.688050e+002,-1.022766e+000
5.697692e+002,2.765442e+000
5.707335e+002,5.354675e+000
5.716977e+002,4.240417e+000
5.726619e+002,1.374146e+000
5.736262e+002,-4.877319e-001
5.745904e+002,6.867676e-001
5.755546e+002,3.117249e+000
5.765189e+002,3.954712e+000
5.774831e+002,3.344421e+000
5.784473e+002,1.539856e+000
5.794116e+002,-1.133179e+000
5.803758e+002,-4.259705e+000
5.813400e+002,-4.955811e+000
5.823043e+002,-3.039307e+000
5.832685e+002,-1.352417e+000
5.842327e+002,-3.711548e-001
5.851970e+002,1.152954e-001
5.861612e+002,8.746338e-002
5.871254e+002,-2.076416e+000
5.880897e+002,-3.440186e+000
5.890539e+002,-3.683533e+000
5.900181e+002,-2.890625e+000
5.909824e+002,-7.507935e-001
5.919466e+002,4.064575e+000
5.929108e+002,7.893555e+000
5.938751e+002,5.745361e+000
5.948393e+002,6.480713e-001
5.958035e+002,-2.304321e+000
5.967678e+002,5.915527e-001
5.977320e+002,8.182800e+000
5.986962e+002,9.850769e+000
5.996605e+002,5.363831e+000
6.006247e+002,7.531738e-001
6.015889e+002,-1.228577e+000
6.025532e+002,-7.125854e-001
6.035174e+002,-4.096069e-001
6.044816e+002,-2.548218e-001
6.054459e+002,-3.157349e-001
6.064101e+002,-8.955688e-001
6.073743e+002,-1.690674e+000
6.083386e+002,-2.137451e+000
6.093028e+002,-1.819214e+000
6.102670e+002,-1.082581e+000
6.112313e+002,3.048096e-001
6.121955e+002,1.574158e+000
6.131597e+002,1.212402e+000
6.141240e+002,-1.738586e+000
6.150882e+002,-6.009888e+000
6.160524e+002,-4.628662e+000
6.170167e+002,1.509338e+000
6.179809e+002,6.022095e+000
6.189451e+002,5.372864e+000
6.199094e+002,1.869507e-001
6.208736e+002,-3.470947e+000
6.218378e+002,-4.236084e+000
6.228021e+002,-4.116089e+000
6.237663e+002,-2.635681e+000
6.247305e+002,-4.146118e-001
6.256948e+002,1.709167e+000
6.266590e+002,3.689758e+000
6.276232e+002,3.881897e+000
6.285875e+002,6.869507e-001
6.295517e+002,-3.466675e+000
6.305159e+002,-6.084412e+000
6.314802e+002,-5.932129e+000
6.324444e+002,-4.292847e+000
6.334086e+002,-4.481323e+000
6.343729e+002,-5.566589e+000
6.353371e+002,-5.235168e+000
6.363013e+002,-2.371521e+000
6.372656e+002,1.777466e+000
6.382298e+002,2.978027e+000
6.391940e+002,-2.232666e+000
6.401583e+002,-6.366821e+000
6.411225e+002,-8.987061e+000
6.420867e+002,-1.003326e+001
6.430510e+002,-9.360718e+000
6.440152e+002,-6.629883e+000
6.449794e+002,-4.270264e+000
6.459437e+002,-3.342896e+000
6.469079e+002,-3.285828e+000
6.478721e+002,-3.948730e+000
6.488364e+002,-5.028076e+000
6.498006e+002,-5.832458e+000
6.507648e+002,-4.848206e+000
6.517291e+002,-2.934387e+000
6.526933e+002,-1.958557e+000
6.536575e+002,-2.311035e+000
6.546218e+002,-3.589722e+000
6.555860e+002,-5.117004e+000
6.565502e+002,-7.814880e+000
6.575145e+002,-8.514526e+000
6.584787e+002,-5.724365e+000
6.594429e+002,-2.360962e+000
6.604072e+002,-8.807983e-001
6.613714e+002,-1.795044e+000
6.623356e+002,-2.456787e+000
6.632999e+002,-1.223083e+000
6.642641e+002,-1.607666e-001
6.652283e+002,-3.425903e-001
6.661926e+002,-1.536682e+000
6.671568e+002,-2.598938e+000
6.681210e+002,-2.239502e+000
6.690853e+002,-1.102722e+000
6.700495e+002,-6.940918e-001
6.710137e+002,-9.788208e-001
6.719780e+002,-1.191650e+000
6.729422e+002,-4.786987e-001
6.739064e+002,1.380005e+000
6.748707e+002,2.014709e+000
6.758349e+002,2.634277e-001
6.767991e+002,-1.155212e+000
6.777634e+002,-2.361450e-001
6.787276e+002,2.801636e+000
6.796918e+002,4.797424e+000
6.806561e+002,3.025452e+000
6.816203e+002,1.014893e+000
6.825845e+002,-3.080444e-001
6.835488e+002,-8.024292e-001
6.845130e+002,-1.574097e-001
6.854772e+002,2.100403e+000
6.864415e+002,4.911011e+000
6.874057e+002,4.724915e+000
6.883699e+002,2.362427e+000
6.893342e+002,1.057434e+000
6.902984e+002,2.867004e+000
6.912626e+002,7.145447e+000
6.922269e+002,8.716980e+000
6.931911e+002,5.396667e+000
6.941553e+002,3.240112e+000
6.951196e+002,3.155579e+000
6.960838e+002,3.751404e+000
6.970480e+002,2.673584e+000
6.980123e+002,-1.723694e+000
6.989765e+002,-4.182922e+000
6.999407e+002,-1.397217e+000
7.009050e+002,2.758728e+000
7.018692e+002,5.224182e+000
7.028334e+002,4.941223e+000
7.037977e+002,3.343506e+000
7.047619e+002,2.553101e+000
7.057261e+002,2.592041e+000
7.066904e+002,3.446594e+000
7.076546e+002,5.084473e+000
7.086188e+002,6.195313e+000
7.095831e+002,4.434814e+000
7.105473e+002,-2.266479e+000
7.115115e+002,-5.608521e+000
7.124758e+002,-4.621399e+000
7.134400e+002,-2.270325e+000
7.144042e+002,4.981689e-001
7.153685e+002,3.623230e+000
7.163327e+002,5.751831e+000
7.172969e+002,5.273010e+000
7.182612e+002,4.561707e+000
7.192254e+002,4.614319e+000
7.201896e+002,5.020935e+000
7.211539e+002,4.567566e+000
7.221181e+002,2.055786e+000
7.230823e+002,-9.942017e-001
7.240466e+002,7.788086e-002
7.250108e+002,4.515137e+000
7.259750e+002,8.530579e+000
7.269393e+002,9.728027e+000
7.279035e+002,7.954102e+000
7.288677e+002,4.825623e+000
7.298320e+002,-2.706116e+000
7.307962e+002,-6.254150e+000
7.317604e+002,-2.514526e+000
7.327247e+002,4.517273e+000
7.336889e+002,9.215149e+000
7.346531e+002,9.501648e+000
7.356174e+002,7.461731e+000
7.365816e+002,3.653625e+000
7.375458e+002,4.382324e-002
7.385101e+002,-2.062744e+000
7.394743e+002,-2.265198e+000
7.404385e+002,-9.353027e-001
7.414028e+002,1.617310e+000
7.423670e+002,4.500183e+000
7.433312e+002,6.700867e+000
7.442955e+002,8.681030e+000
7.452597e+002,1.033215e+001
7.462239e+002,1.106323e+001
7.471882e+002,1.019958e+001
7.481524e+002,1.072693e+001
7.491166e+002,1.429187e+001
7.500809e+002,1.621271e+001
7.510451e+002,1.339594e+001
7.520093e+002,7.250610e+000
7.529736e+002,3.028442e+000
7.539378e+002,4.677307e+000
7.549020e+002,7.481323e+000
7.558663e+002,8.531860e+000
7.568306e+002,8.477722e+000
7.577948e+002,7.850403e+000
7.587590e+002,6.975159e+000
7.597233e+002,6.272339e+000
7.606875e+002,8.809021e+000
7.616517e+002,1.425677e+001
7.626160e+002,1.658392e+001
7.635802e+002,1.337329e+001
7.645444e+002,7.267212e+000
7.655087e+002,3.599609e+000
7.664729e+002,3.009094e+000
7.674371e+002,3.626526e+000
7.684014e+002,6.301819e+000
7.693656e+002,8.912476e+000
7.703298e+002,1.000830e+001
7.712941e+002,9.552551e+000
7.722583e+002,8.990601e+000
7.732225e+002,9.412720e+000
7.741868e+002,1.005688e+001
7.751510e+002,1.003412e+001
7.761152e+002,9.721802e+000
7.770795e+002,1.016730e+001
7.780437e+002,1.227100e+001
7.790079e+002,1.559619e+001
7.799722e+002,1.727789e+001
7.809364e+002,1.759894e+001
7.819006e+002,1.642914e+001
7.828649e+002,1.246796e+001
7.838291e+002,7.239563e+000
7.847933e+002,5.660583e+000
7.857576e+002,1.075995e+001
7.867218e+002,1.362372e+001
7.876860e+002,1.166431e+001
7.886503e+002,8.555847e+000
7.896145e+002,7.434814e+000
7.905787e+002,9.068481e+000
7.915430e+002,1.127454e+001
7.925072e+002,1.124500e+001
7.934714e+002,1.021759e+001
7.944357e+002,9.957947e+000
7.953999e+002,1.074976e+001
7.963641e+002,1.206055e+001
7.973284e+002,1.320361e+001
7.982926e+002,1.420746e+001
7.992568e+002,1.425958e+001
8.002211e+002,1.194507e+001
8.011853e+002,9.804077e+000
8.021495e+002,9.560547e+000
8.031138e+002,1.119244e+001
8.040780e+002,1.315973e+001
8.050422e+002,1.515936e+001
8.060065e+002,1.643561e+001
8.069707e+002,1.641162e+001
8.079349e+002,1.548615e+001
8.088992e+002,1.386688e+001
8.098634e+002,1.191083e+001
8.108276e+002,1.051544e+001
8.117919e+002,1.125055e+001
8.127561e+002,1.253192e+001
8.137203e+002,1.209265e+001
8.146846e+002,1.005176e+001
8.156488e+002,7.762573e+000
8.166130e+002,6.574707e+000
8.175773e+002,6.429932e+000
8.185415e+002,7.246094e+000
8.195057e+002,9.100464e+000
8.204700e+002,1.097687e+001
8.214342e+002,1.287677e+001
8.223984e+002,1.455188e+001
8.233627e+002,1.530377e+001
8.243269e+002,1.446973e+001
8.252911e+002,1.381738e+001
8.262554e+002,1.476733e+001
8.272196e+002,1.608984e+001
8.281838e+002,1.620813e+001
8.291481e+002,1.471344e+001
8.301123e+002,1.280780e+001
8.310765e+002,1.262695e+001
8.320408e+002,1.406390e+001
8.330050e+002,1.574268e+001
8.339692e+002,1.787012e+001
8.349335e+002,1.966406e+001
8.358977e+002,2.017090e+001
8.368619e+002,1.931281e+001
8.378262e+002,1.924823e+001
8.387904e+002,1.977472e+001
8.397546e+002,2.085938e+001
8.407189e+002,2.361908e+001
8.416831e+002,2.674023e+001
8.426473e+002,2.781061e+001
8.436116e+002,2.543329e+001
8.445758e+002,2.242371e+001
8.455400e+002,2.077466e+001
8.465043e+002,1.998279e+001
8.474685e+002,2.053339e+001
8.484327e+002,2.254816e+001
8.493970e+002,2.514581e+001
8.503612e+002,2.643567e+001
8.513254e+002,2.606396e+001
8.522897e+002,2.499231e+001
8.532539e+002,2.177570e+001
8.542181e+002,1.931793e+001
8.551824e+002,2.058044e+001
8.561466e+002,2.529913e+001
8.571108e+002,2.829681e+001
8.580751e+002,2.516162e+001
8.590393e+002,2.296478e+001
8.600035e+002,2.522583e+001
8.609678e+002,2.950757e+001
8.619320e+002,3.316461e+001
8.628962e+002,3.499036e+001
8.638605e+002,3.546521e+001
8.648247e+002,3.481909e+001
8.657889e+002,3.343304e+001
8.667532e+002,3.189911e+001
8.677174e+002,3.031006e+001
8.686816e+002,2.988489e+001
8.696459e+002,3.264374e+001
8.706101e+002,3.968347e+001
8.715743e+002,4.273126e+001
8.725386e+002,3.849359e+001
8.735028e+002,3.495782e+001
8.744670e+002,3.438330e+001
8.754313e+002,3.528424e+001
8.763955e+002,3.451501e+001
8.773597e+002,3.034344e+001
8.783240e+002,2.774701e+001
8.792882e+002,3.188800e+001
8.802524e+002,3.771100e+001
8.812167e+002,4.085120e+001
8.821809e+002,4.055048e+001
8.831451e+002,3.891760e+001
8.841094e+002,3.868439e+001
8.850736e+002,4.009729e+001
8.860378e+002,4.199115e+001
8.870021e+002,4.444391e+001
8.879663e+002,4.637415e+001
8.889305e+002,4.716968e+001
8.898948e+002,4.675977e+001
8.908590e+002,4.514038e+001
8.918232e+002,4.101337e+001
8.927875e+002,3.848840e+001
8.937517e+002,3.886151e+001
8.947159e+002,4.064984e+001
8.956802e+002,4.275793e+001
8.966444e+002,4.458685e+001
8.976086e+002,4.590942e+001
8.985729e+002,4.714355e+001
8.995371e+002,4.769183e+001
9.005013e+002,4.543170e+001
9.014656e+002,4.121887e+001
9.024298e+002,3.848975e+001
9.033940e+002,3.978357e+001
9.043583e+002,4.429596e+001
9.053225e+002,4.763635e+001
9.062867e+002,4.911719e+001
9.072510e+002,4.959491e+001
9.082152e+002,4.913690e+001
9.091794e+002,4.837769e+001
9.101437e+002,4.765582e+001
9.111079e+002,4.698224e+001
9.120721e+002,4.672870e+001
9.130364e+002,4.739307e+001
9.140006e+002,4.771112e+001
9.149648e+002,4.717444e+001
9.159291e+002,4.613599e+001
9.168933e+002,4.477008e+001
9.178575e+002,4.308936e+001
9.188218e+002,4.156628e+001
9.197860e+002,4.308087e+001
9.207502e+002,4.764075e+001
9.217145e+002,4.969476e+001
9.226787e+002,4.706366e+001
9.236429e+002,4.335046e+001
9.246072e+002,4.379498e+001
9.255714e+002,4.947272e+001
9.265356e+002,5.221051e+001
9.274999e+002,4.717603e+001
9.284641e+002,4.253070e+001
9.294283e+002,4.202484e+001
9.303926e+002,4.396729e+001
9.313568e+002,4.450970e+001
9.323210e+002,4.153821e+001
9.332853e+002,3.770123e+001
9.342495e+002,3.807611e+001
9.352137e+002,4.025336e+001
9.361780e+002,4.051129e+001
9.371422e+002,3.833240e+001
9.381064e+002,3.628729e+001
9.390707e+002,3.768988e+001
9.400349e+002,4.291974e+001
9.409991e+002,4.662653e+001
9.419634e+002,4.822443e+001
9.429276e+002,4.912885e+001
9.438918e+002,4.965973e+001
9.448561e+002,4.987720e+001
9.458203e+002,4.974347e+001
9.467845e+002,4.925043e+001
9.477488e+002,4.896857e+001
9.487130e+002,4.912299e+001
9.496772e+002,4.964539e+001
9.506415e+002,5.084125e+001
9.516057e+002,5.246014e+001
9.525699e+002,5.369281e+001
9.535342e+002,5.370520e+001
9.544984e+002,5.249854e+001
9.554626e+002,5.105688e+001
9.564269e+002,4.954272e+001
9.573911e+002,4.918073e+001
9.583553e+002,5.067596e+001
9.593196e+002,5.314075e+001
9.602838e+002,5.553400e+001
9.612480e+002,5.812378e+001
9.622123e+002,5.872430e+001
9.631765e+002,5.470416e+001
9.641407e+002,5.085211e+001
9.651050e+002,4.951880e+001
9.660692e+002,4.990936e+001
9.670334e+002,4.999414e+001
9.679977e+002,4.868549e+001
9.689619e+002,4.725037e+001
9.699261e+002,4.813354e+001
9.708904e+002,5.034155e+001
9.718546e+002,5.182800e+001
9.728188e+002,5.186523e+001
9.737831e+002,5.160840e+001
9.747473e+002,5.298663e+001
9.757115e+002,5.664307e+001
9.766758e+002,5.905725e+001
9.776400e+002,5.966766e+001
9.786042e+002,6.027832e+001
9.795685e+002,6.177081e+001
9.805327e+002,6.281628e+001
9.814969e+002,6.145062e+001
9.824612e+002,5.722034e+001
9.834254e+002,5.298889e+001
9.843896e+002,5.112854e+001
9.853539e+002,5.050031e+001
9.863181e+002,4.998553e+001
9.872823e+002,4.941479e+001
9.882466e+002,4.947095e+001
9.892108e+002,5.107813e+001
9.901750e+002,5.450525e+001
9.911393e+002,5.818439e+001
9.921035e+002,6.195099e+001
9.930677e+002,6.414191e+001
9.940320e+002,6.332593e+001
9.949962e+002,6.263666e+001
9.959604e+002,6.494586e+001
9.969247e+002,7.047772e+001
9.978889e+002,7.744885e+001
9.988531e+002,8.661700e+001
9.998174e+002,9.386176e+001
1.000782e+003,9.693646e+001
1.001746e+003,9.718945e+001
1.002710e+003,9.581299e+001
1.003674e+003,9.364667e+001
1.004639e+003,9.188556e+001
1.005603e+003,9.285016e+001
1.006567e+003,9.673712e+001
1.007531e+003,9.901910e+001
1.008495e+003,9.944434e+001
1.009460e+003,9.906549e+001
1.010424e+003,9.808191e+001
1.011388e+003,9.687415e+001
1.012352e+003,9.708160e+001
1.013317e+003,1.007780e+002
1.014281e+003,1.013372e+002
1.015245e+003,9.473572e+001
1.016209e+003,8.643262e+001
1.017174e+003,8.009943e+001
1.018138e+003,7.627429e+001
1.019102e+003,7.367456e+001
1.020066e+003,7.152100e+001
1.021031e+003,6.950928e+001
1.021995e+003,6.546240e+001
1.022959e+003,5.956531e+001
1.023923e+003,5.490131e+001
1.024887e+003,5.282605e+001
1.025852e+003,5.166418e+001
1.026816e+003,4.847925e+001
1.027780e+003,4.262842e+001
1.028744e+003,3.917163e+001
1.029709e+003,4.038605e+001
1.030673e+003,4.162146e+001
1.031637e+003,4.206726e+001
1.032601e+003,4.126984e+001
1.033566e+003,3.817358e+001
1.034530e+003,3.264789e+001
1.035494e+003,2.797571e+001
1.036458e+003,2.801025e+001
1.037422e+003,3.097949e+001
1.038387e+003,3.440027e+001
1.039351e+003,3.790601e+001
1.040315e+003,4.088428e+001
1.041279e+003,4.298541e+001
1.042244e+003,4.445264e+001
1.043208e+003,4.580206e+001
1.044172e+003,4.731494e+001
1.045136e+003,4.731732e+001
1.046101e+003,4.483325e+001
1.047065e+003,4.223212e+001
1.048029e+003,4.089429e+001
1.048993e+003,4.064349e+001
1.049958e+003,4.060815e+001
1.050922e+003,4.056152e+001
1.051886e+003,4.078821e+001
1.052850e+003,4.195538e+001
1.053814e+003,4.324066e+001
1.054779e+003,4.336450e+001
1.055743e+003,4.210083e+001
1.056707e+003,4.035919e+001
1.057671e+003,3.923663e+001
1.058636e+003,3.866571e+001
1.059600e+003,3.825446e+001
1.060564e+003,3.790997e+001
1.061528e+003,3.871014e+001
1.062493e+003,4.149640e+001
1.063457e+003,4.438458e+001
1.064421e+003,4.542004e+001
1.065385e+003,4.454791e+001
1.066349e+003,4.338873e+001
1.067314e+003,4.245752e+001
1.068278e+003,4.188977e+001
1.069242e+003,4.230377e+001
1.070206e+003,4.311395e+001
1.071171e+003,4.283514e+001
1.072135e+003,4.093011e+001
1.073099e+003,3.891583e+001
1.074063e+003,3.973090e+001
1.075028e+003,4.388971e+001
1.075992e+003,4.622473e+001
1.076956e+003,4.586389e+001
1.077920e+003,4.498419e+001
1.078885e+003,4.444348e+001
1.079849e+003,4.435645e+001
1.080813e+003,4.492371e+001
1.081777e+003,4.644452e+001
1.082741e+003,4.743402e+001
1.083706e+003,4.610754e+001
1.084670e+003,4.418359e+001
1.085634e+003,4.236719e+001
1.086598e+003,4.073981e+001
1.087563e+003,3.917120e+001
1.088527e+003,3.779987e+001
1.089491e+003,3.728522e+001
1.090455e+003,3.857922e+001
1.091420e+003,4.165253e+001
1.092384e+003,4.374414e+001
1.093348e+003,4.430774e+001
1.094312e+003,4.441803e+001
1.095276e+003,4.523938e+001
1.096241e+003,4.649152e+001
1.097205e+003,4.648523e+001
1.098169e+003,4.422046e+001
1.099133e+003,4.221967e+001
1.100098e+003,4.083514e+001
1.101062e+003,4.080975e+001
1.102026e+003,4.373541e+001
1.102990e+003,4.838745e+001
1.103955e+003,5.202722e+001
1.104919e+003,5.294287e+001
1.105883e+003,5.205719e+001
1.106847e+003,5.133191e+001
1.107812e+003,5.075592e+001
1.108776e+003,5.096735e+001
1.109740e+003,5.257245e+001
1.110704e+003,5.378058e+001
1.111668e+003,5.297595e+001
1.112633e+003,5.102765e+001
1.113597e+003,5.096521e+001
1.114561e+003,5.370715e+001
1.115525e+003,5.614252e+001
1.116490e+003,5.698779e+001
1.117454e+003,5.745673e+001
1.118418e+003,5.845459e+001
1.119382e+003,6.016345e+001
1.120347e+003,6.235907e+001
1.121311e+003,6.462323e+001
1.122275e+003,6.623767e+001
1.123239e+003,6.664453e+001
1.124203e+003,6.629810e+001
1.125168e+003,6.525757e+001
1.126132e+003,6.270612e+001
1.127096e+003,6.189514e+001
1.128060e+003,6.618890e+001
1.129025e+003,7.425525e+001
1.129989e+003,8.032941e+001
1.130953e+003,8.360901e+001
1.131917e+003,8.534357e+001
1.132882e+003,8.472803e+001
1.133846e+003,8.435425e+001
1.134810e+003,8.576947e+001
1.135774e+003,8.883545e+001
1.136739e+003,9.277594e+001
1.137703e+003,9.710419e+001
1.138667e+003,1.016010e+002
1.139631e+003,1.054996e+002
1.140595e+003,1.092199e+002
1.141560e+003,1.163510e+002
1.142524e+003,1.278286e+002
1.143488e+003,1.410190e+002
1.144452e+003,1.544316e+002
1.145417e+003,1.680234e+002
1.146381e+003,1.814430e+002
1.147345e+003,1.940129e+002
1.148309e+003,2.079622e+002
1.149274e+003,2.243557e+002
1.150238e+003,2.419730e+002
1.151202e+003,2.627098e+002
1.152166e+003,2.839716e+002
1.153130e+003,3.012224e+002
1.154095e+003,3.120788e+002
1.155059e+003,3.179960e+002
1.156023e+003,3.215671e+002
1.156987e+003,3.227021e+002
1.157952e+003,3.211191e+002
1.158916e+003,3.178381e+002
1.159880e+003,3.106723e+002
1.160844e+003,2.960453e+002
1.161809e+003,2.761506e+002
1.162773e+003,2.568788e+002
1.163737e+003,2.383384e+002
1.164701e+003,2.202472e+002
1.165666e+003,2.020243e+002
1.166630e+003,1.853684e+002
1.167594e+003,1.690912e+002
1.168558e+003,1.555074e+002
1.169522e+003,1.485737e+002
1.170487e+003,1.488093e+002
1.171451e+003,1.521036e+002
1.172415e+003,1.541154e+002
1.173379e+003,1.546991e+002
1.174344e+003,1.536426e+002
1.175308e+003,1.510706e+002
1.176272e+003,1.483301e+002
1.177236e+003,1.465662e+002
1.178201e+003,1.445463e+002
1.179165e+003,1.398483e+002
1.180129e+003,1.321456e+002
1.181093e+003,1.255818e+002
1.182057e+003,1.209132e+002
1.183022e+003,1.181927e+002
1.183986e+003,1.184620e+002
1.184950e+003,1.197213e+002
1.185914e+003,1.202783e+002
1.186879e+003,1.199549e+002
1.187843e+003,1.193024e+002
1.188807e+003,1.186240e+002
1.189771e+003,1.182514e+002
1.190736e+003,1.200808e+002
1.191700e+003,1.244775e+002
1.192664e+003,1.265605e+002
1.193628e+003,1.247852e+002
1.194593e+003,1.225576e+002
1.195557e+003,1.224359e+002
1.196521e+003,1.237038e+002
1.197485e+003,1.241685e+002
1.198449e+003,1.237545e+002
1.199414e+003,1.219320e+002
1.200378e+003,1.176245e+002
1.201342e+003,1.126732e+002
1.202306e+003,1.073761e+002
1.203271e+003,1.022744e+002
1.204235e+003,9.843262e+001
1.205199e+003,9.633606e+001
1.206163e+003,9.511035e+001
1.207128e+003,9.330261e+001
1.208092e+003,9.095746e+001
1.209056e+003,8.685669e+001
1.210020e+003,8.024872e+001
1.210984e+003,7.382166e+001
1.211949e+003,6.798181e+001
1.212913e+003,6.277362e+001
1.213877e+003,5.847327e+001
1.214841e+003,5.516815e+001
1.215806e+003,5.240546e+001
1.216770e+003,4.982715e+001
1.217734e+003,4.794574e+001
1.218698e+003,4.709412e+001
1.219663e+003,4.669983e+001
1.220627e+003,4.636115e+001
1.221591e+003,4.585187e+001
1.222555e+003,4.473584e+001
1.223520e+003,4.262646e+001
1.224484e+003,4.003186e+001
1.225448e+003,3.873694e+001
1.226412e+003,3.972980e+001
1.227376e+003,3.962329e+001
1.228341e+003,3.684607e+001
1.229305e+003,3.453088e+001
1.230269e+003,3.496448e+001
1.231233e+003,3.686566e+001
1.232198e+003,3.730682e+001
1.233162e+003,3.557043e+001
1.234126e+003,3.490051e+001
1.235090e+003,3.899231e+001
1.236055e+003,4.347089e+001
1.237019e+003,4.280963e+001
1.237983e+003,3.866931e+001
1.238947e+003,3.630811e+001
1.239911e+003,3.805298e+001
1.240876e+003,4.083270e+001
1.241840e+003,3.955457e+001
1.242804e+003,3.384735e+001
1.243768e+003,3.128943e+001
1.244733e+003,3.545691e+001
1.245697e+003,3.819446e+001
1.246661e+003,3.727960e+001
1.247625e+003,3.558698e+001
1.248590e+003,3.558929e+001
1.249554e+003,3.718079e+001
1.250518e+003,3.857544e+001
1.251482e+003,3.873712e+001
1.252447e+003,3.890039e+001
1.253411e+003,4.145923e+001
1.254375e+003,4.513635e+001
1.255339e+003,4.644806e+001
1.256303e+003,4.553540e+001
1.257268e+003,4.566913e+001
1.258232e+003,4.879590e+001
1.259196e+003,5.312347e+001
1.260160e+003,5.538824e+001
1.261125e+003,5.543768e+001
1.262089e+003,5.618445e+001
1.263053e+003,5.790570e+001
1.264017e+003,5.974323e+001
1.264982e+003,6.175452e+001
1.265946e+003,6.385815e+001
1.266910e+003,6.663391e+001
1.267874e+003,6.949164e+001
1.268839e+003,7.057739e+001
1.269803e+003,6.865356e+001
1.270767e+003,6.506641e+001
1.271731e+003,6.232587e+001
1.272695e+003,6.058380e+001
1.273660e+003,5.886340e+001
1.274624e+003,5.669470e+001
1.275588e+003,5.431006e+001
1.276552e+003,5.208374e+001
1.277517e+003,5.019843e+001
1.278481e+003,4.850336e+001
1.279445e+003,4.685175e+001
1.280409e+003,4.587811e+001
1.281374e+003,4.688507e+001
1.282338e+003,4.720734e+001
1.283302e+003,4.452118e+001
1.284266e+003,4.096393e+001
1.285230e+003,3.914093e+001
1.286195e+003,3.919672e+001
1.287159e+003,3.935059e+001
1.288123e+003,3.827435e+001
1.289087e+003,3.672345e+001
1.290052e+003,3.641614e+001
1.291016e+003,3.755927e+001
1.291980e+003,3.836011e+001
1.292944e+003,3.835669e+001
1.293909e+003,3.806842e+001
1.294873e+003,3.800696e+001
1.295837e+003,3.810681e+001
1.296801e+003,3.814575e+001
1.297766e+003,3.809106e+001
1.298730e+003,3.789276e+001
1.299694e+003,3.721051e+001
1.300658e+003,3.645721e+001
1.301622e+003,3.621783e+001
1.302587e+003,3.644666e+001
1.303551e+003,3.704041e+001
1.304515e+003,3.805487e+001
1.305479e+003,3.934430e+001
1.306444e+003,4.066779e+001
1.307408e+003,4.185211e+001
1.308372e+003,4.301672e+001
1.309336e+003,4.491760e+001
1.310301e+003,4.428149e+001
1.311265e+003,3.717432e+001
1.312229e+003,3.262500e+001
1.313193e+003,3.483118e+001
1.314157e+003,3.973706e+001
1.315122e+003,4.383722e+001
1.316086e+003,4.594666e+001
1.317050e+003,4.548358e+001
1.318014e+003,4.199957e+001
1.318979e+003,3.767932e+001
1.319943e+003,3.621503e+001
1.320907e+003,3.754291e+001
1.321871e+003,3.933527e+001
1.322836e+003,4.153516e+001
1.323800e+003,4.255042e+001
1.324764e+003,3.988391e+001
1.325728e+003,3.647687e+001
1.326693e+003,3.825397e+001
1.327657e+003,4.530817e+001
1.328621e+003,4.961786e+001
1.329585e+003,4.908698e+001
1.330549e+003,4.723853e+001
1.331514e+003,4.392645e+001
1.332478e+003,4.053967e+001
1.333442e+003,3.865906e+001
1.334406e+003,3.847815e+001
1.335371e+003,3.969312e+001
1.336335e+003,4.201202e+001
1.337299e+003,4.435492e+001
1.338263e+003,4.443036e+001
1.339228e+003,4.183160e+001
1.340192e+003,4.095465e+001
1.341156e+003,4.259039e+001
1.342120e+003,4.460748e+001
1.343084e+003,4.759369e+001
1.344049e+003,4.949176e+001
1.345013e+003,4.811676e+001
1.345977e+003,4.464838e+001
1.346941e+003,4.233228e+001
1.347906e+003,4.232043e+001
1.348870e+003,4.317749e+001
1.349834e+003,4.383289e+001
1.350798e+003,4.401624e+001
1.351763e+003,4.339191e+001
1.352727e+003,4.223346e+001
1.353691e+003,4.177411e+001
1.354655e+003,4.274591e+001
1.355620e+003,4.370093e+001
1.356584e+003,4.235944e+001
1.357548e+003,3.927051e+001
1.358512e+003,3.882257e+001
1.359476e+003,4.231226e+001
1.360441e+003,4.427148e+001
1.361405e+003,4.262683e+001
1.362369e+003,4.028900e+001
1.363333e+003,3.789050e+001
1.364298e+003,3.608826e+001
1.365262e+003,3.603461e+001
1.366226e+003,3.759991e+001
1.367190e+003,3.883862e+001
1.368155e+003,3.797711e+001
1.369119e+003,3.605182e+001
1.370083e+003,3.660059e+001
1.371047e+003,4.108765e+001
1.372011e+003,4.219574e+001
1.372976e+003,3.515845e+001
1.373940e+003,3.046490e+001
1.374904e+003,3.409528e+001
1.375868e+003,4.105933e+001
1.376833e+003,4.524689e+001
1.377797e+003,4.609644e+001
1.378761e+003,4.579504e+001
1.379725e+003,4.510797e+001
1.380690e+003,4.431256e+001
1.381654e+003,4.353259e+001
1.382618e+003,4.305200e+001
1.383582e+003,4.329773e+001
1.384547e+003,4.422284e+001
1.385511e+003,4.549017e+001
1.386475e+003,4.702802e+001
1.387439e+003,4.794183e+001
1.388403e+003,4.614557e+001
1.389368e+003,4.162354e+001
1.390332e+003,4.035443e+001
1.391296e+003,4.513031e+001
1.392260e+003,4.827130e+001
1.393225e+003,4.716510e+001
1.394189e+003,4.497406e+001
1.395153e+003,4.269086e+001
1.396117e+003,4.087561e+001
1.397082e+003,4.013629e+001
1.398046e+003,4.061981e+001
1.399010e+003,4.188562e+001
1.399974e+003,4.335773e+001
1.400938e+003,4.461829e+001
1.401903e+003,4.545227e+001
1.402867e+003,4.681946e+001
1.403831e+003,4.728198e+001
1.404795e+003,4.445038e+001
1.405760e+003,4.311139e+001
1.406724e+003,4.626318e+001
1.407688e+003,4.972192e+001
1.408652e+003,4.833362e+001
1.409617e+003,4.309760e+001
1.410581e+003,3.996857e+001
1.411545e+003,4.161951e+001
1.412509e+003,4.398230e+001
1.413474e+003,4.225311e+001
1.414438e+003,3.878723e+001
1.415402e+003,3.849176e+001
1.416366e+003,4.121527e+001
1.417330e+003,4.366656e+001
1.418295e+003,4.452319e+001
1.419259e+003,4.490619e+001
1.420223e+003,4.583307e+001
1.421187e+003,4.705988e+001
1.422152e+003,4.849048e+001
1.423116e+003,5.079999e+001
1.424080e+003,5.232434e+001
1.425044e+003,5.113293e+001
1.426009e+003,4.996912e+001
1.426973e+003,4.969592e+001
1.427937e+003,5.020776e+001
1.428901e+003,5.220868e+001
1.429865e+003,5.513831e+001
1.430830e+003,5.651898e+001
1.431794e+003,5.462097e+001
1.432758e+003,5.122913e+001
1.433722e+003,5.032587e+001
1.434687e+003,5.258197e+001
1.435651e+003,5.496100e+001
1.436615e+003,5.624121e+001
1.437579e+003,5.720599e+001
1.438544e+003,5.884912e+001
1.439508e+003,5.954620e+001
1.440472e+003,5.724396e+001
1.441436e+003,5.396594e+001
1.442401e+003,5.373901e+001
1.443365e+003,5.712054e+001
1.444329e+003,6.028552e+001
1.445293e+003,6.057251e+001
1.446257e+003,5.902362e+001
1.447222e+003,5.678131e+001
1.448186e+003,5.407068e+001
1.449150e+003,5.275598e+001
1.450114e+003,5.331085e+001
1.451079e+003,5.350757e+001
1.452043e+003,5.194971e+001
1.453007e+003,5.003912e+001
1.453971e+003,4.944421e+001
1.454936e+003,4.994708e+001
1.455900e+003,5.087042e+001
1.456864e+003,5.248810e+001
1.457828e+003,5.370026e+001
1.458792e+003,5.317603e+001
1.459757e+003,5.216071e+001
1.460721e+003,5.128711e+001
1.461685e+003,5.082373e+001
1.462649e+003,5.191504e+001
1.463614e+003,5.467719e+001
1.464578e+003,5.624622e+001
1.465542e+003,5.357025e+001
1.466506e+003,4.840112e+001
1.467471e+003,4.644647e+001
1.468435e+003,4.874158e+001
1.469399e+003,5.096283e+001
1.470363e+003,5.255298e+001
1.471328e+003,5.370062e+001
1.472292e+003,5.399207e+001
1.473256e+003,5.365173e+001
1.474220e+003,5.305823e+001
1.475184e+003,5.265558e+001
1.476149e+003,5.294336e+001
1.477113e+003,5.370618e+001
1.478077e+003,5.372351e+001
1.479041e+003,5.201587e+001
1.480006e+003,4.965930e+001
1.480970e+003,4.960278e+001
1.481934e+003,5.208844e+001
1.482898e+003,5.447461e+001
1.483863e+003,5.658258e+001
1.484827e+003,5.867676e+001
1.485791e+003,6.121368e+001
1.486755e+003,6.398468e+001
1.487719e+003,6.685211e+001
1.488684e+003,6.939728e+001
1.489648e+003,7.090833e+001
1.490612e+003,7.135315e+001
1.491576e+003,7.171259e+001
1.492541e+003,7.248090e+001
1.493505e+003,7.374255e+001
1.494469e+003,7.575885e+001
1.495433e+003,7.816223e+001
1.496398e+003,8.130255e+001
1.497362e+003,8.592059e+001
1.498326e+003,9.087585e+001
1.499290e+003,9.560388e+001
1.500255e+003,1.001887e+002
1.501219e+003,1.036962e+002
1.502183e+003,1.066955e+002
1.503147e+003,1.132695e+002
1.504111e+003,1.248867e+002
1.505076e+003,1.370249e+002
1.506040e+003,1.463362e+002
1.507004e+003,1.560448e+002
1.507968e+003,1.687933e+002
1.508933e+003,1.843987e+002
1.509897e+003,2.030399e+002
1.510861e+003,2.250804e+002
1.511825e+003,2.484631e+002
1.512790e+003,2.713369e+002
1.513754e+003,2.943149e+002
1.514718e+003,3.196900e+002
1.515682e+003,3.470912e+002
1.516646e+003,3.725400e+002
1.517611e+003,3.968524e+002
1.518575e+003,4.175331e+002
1.519539e+003,4.338334e+002
1.520503e+003,4.469919e+002
1.521468e+003,4.578306e+002
1.522432e+003,4.653823e+002
1.523396e+003,4.686718e+002
1.524360e+003,4.672748e+002
1.525325e+003,4.609005e+002
1.526289e+003,4.494623e+002
1.527253e+003,4.338108e+002
1.528217e+003,4.151280e+002
1.529182e+003,3.937034e+002
1.530146e+003,3.697418e+002
1.531110e+003,3.423671e+002
1.532074e+003,3.132017e+002
1.533039e+003,2.795570e+002
1.534003e+003,2.462342e+002
1.534967e+003,2.154167e+002
1.535931e+003,1.873611e+002
1.536896e+003,1.606495e+002
1.537860e+003,1.366257e+002
1.538824e+003,1.199435e+002
1.539788e+003,1.124130e+002
1.540752e+003,1.082502e+002
1.541717e+003,1.001296e+002
1.542681e+003,8.908844e+001
1.543645e+003,8.057294e+001
1.544609e+003,7.593127e+001
1.545573e+003,7.154980e+001
1.546538e+003,6.578510e+001
1.547502e+003,6.142731e+001
1.548466e+003,6.063776e+001
1.549430e+003,6.165607e+001
1.550395e+003,6.281604e+001
1.551359e+003,6.364703e+001
1.552323e+003,6.440338e+001
1.553287e+003,6.510760e+001
1.554252e+003,6.407654e+001
1.555216e+003,5.935114e+001
1.556180e+003,5.303925e+001
1.557144e+003,5.028833e+001
1.558109e+003,5.139581e+001
1.559073e+003,5.215295e+001
1.560037e+003,5.239478e+001
1.561001e+003,5.132324e+001
1.561966e+003,4.788464e+001
1.562930e+003,4.469788e+001
1.563894e+003,4.365857e+001
1.564858e+003,4.448120e+001
1.565823e+003,4.722089e+001
1.566787e+003,5.158459e+001
1.567751e+003,5.404681e+001
1.568715e+003,5.216345e+001
1.569679e+003,4.944788e+001
1.570644e+003,5.079907e+001
1.571608e+003,5.424097e+001
1.572572e+003,5.447473e+001
1.573536e+003,5.151172e+001
1.574500e+003,4.867291e+001
1.575465e+003,4.644415e+001
1.576429e+003,4.530792e+001
1.577393e+003,4.585394e+001
1.578357e+003,4.748639e+001
1.579322e+003,4.985455e+001
1.580286e+003,5.281915e+001
1.581250e+003,5.410907e+001
1.582214e+003,5.274316e+001
1.583179e+003,5.058649e+001
1.584143e+003,4.837958e+001
1.585107e+003,4.633240e+001
1.586071e+003,4.505188e+001
1.587036e+003,4.478204e+001
1.588000e+003,4.512842e+001
1.588964e+003,4.575037e+001
1.589928e+003,4.707587e+001
1.590893e+003,5.034351e+001
1.591857e+003,5.367053e+001
1.592821e+003,5.328522e+001
1.593785e+003,5.018335e+001
1.594750e+003,5.019910e+001
1.595714e+003,5.438788e+001
1.596678e+003,5.838049e+001
1.597642e+003,6.058514e+001
1.598606e+003,6.192670e+001
1.599571e+003,6.384625e+001
1.600535e+003,6.524438e+001
1.601499e+003,6.388245e+001
1.602463e+003,6.016840e+001
1.603427e+003,5.712366e+001
1.604392e+003,5.598431e+001
1.605356e+003,5.583582e+001
1.606320e+003,5.649548e+001
1.607284e+003,5.721863e+001
1.608249e+003,5.518231e+001
1.609213e+003,5.025085e+001
1.610177e+003,4.721332e+001
1.611141e+003,4.735187e+001
1.612106e+003,4.820844e+001
1.613070e+003,4.910034e+001
1.614034e+003,4.976331e+001
1.614998e+003,5.025708e+001
1.615963e+003,5.030981e+001
1.616927e+003,4.888538e+001
1.617891e+003,4.612000e+001
1.618855e+003,4.422229e+001
1.619820e+003,4.448773e+001
1.620784e+003,4.527576e+001
1.621748e+003,4.468579e+001
1.622712e+003,4.343085e+001
1.623677e+003,4.308014e+001
1.624641e+003,4.366284e+001
1.625605e+003,4.541870e+001
1.626569e+003,4.883740e+001
1.627533e+003,5.102039e+001
1.628498e+003,5.094952e+001
1.629462e+003,4.958185e+001
1.630426e+003,4.633929e+001
1.631390e+003,4.262634e+001
1.632354e+003,4.186340e+001
1.633319e+003,4.447113e+001
1.634283e+003,4.650568e+001
1.635247e+003,4.486993e+001
1.636211e+003,4.135547e+001
1.637176e+003,3.890753e+001
1.638140e+003,3.770880e+001
1.639104e+003,3.859479e+001
1.640068e+003,4.210706e+001
1.641033e+003,4.515607e+001
1.641997e+003,4.743646e+001
1.642961e+003,4.876721e+001
1.643925e+003,4.869678e+001
1.644890e+003,4.799341e+001
1.645854e+003,4.715332e+001
1.646818e+003,4.627771e+001
1.647782e+003,4.544226e+001
1.648747e+003,4.465558e+001
1.649711e+003,4.404602e+001
1.650675e+003,4.385809e+001
1.651639e+003,4.424103e+001
1.652604e+003,4.576807e+001
1.653568e+003,4.813275e+001
1.654532e+003,4.666412e+001
1.655496e+003,3.919495e+001
1.656460e+003,3.495850e+001
1.657425e+003,3.941693e+001
1.658389e+003,4.413812e+001
1.659353e+003,4.441882e+001
1.660317e+003,4.269635e+001
1.661281e+003,4.137244e+001
1.662246e+003,4.035779e+001
1.663210e+003,3.839520e+001
1.664174e+003,3.526196e+001
1.665138e+003,3.311499e+001
1.666103e+003,3.413184e+001
1.667067e+003,3.627460e+001
1.668031e+003,3.496442e+001
1.668995e+003,3.065814e+001
1.669960e+003,2.924042e+001
1.670924e+003,3.189349e+001
1.671888e+003,3.458942e+001
1.672852e+003,3.614832e+001
1.673817e+003,3.703503e+001
1.674781e+003,3.774872e+001
1.675745e+003,3.781317e+001
1.676709e+003,3.619171e+001
1.677674e+003,3.344171e+001
1.678638e+003,3.125690e+001
1.679602e+003,3.018695e+001
1.680566e+003,2.982751e+001
1.681531e+003,3.027148e+001
1.682495e+003,3.112048e+001
1.683459e+003,3.140863e+001
1.684423e+003,3.101453e+001
1.685387e+003,3.020282e+001
1.686352e+003,2.900513e+001
1.687316e+003,2.813751e+001
1.688280e+003,2.758484e+001
1.689244e+003,2.785052e+001
1.690208e+003,3.082410e+001
1.691173e+003,3.359088e+001
1.692137e+003,3.207056e+001
1.693101e+003,2.787708e+001
1.694065e+003,2.603638e+001
1.695030e+003,2.756714e+001
1.695994e+003,2.893378e+001
1.696958e+003,2.787146e+001
1.697922e+003,2.599139e+001
1.698887e+003,2.551483e+001
1.699851e+003,2.591315e+001
1.700815e+003,2.484644e+001
1.701779e+003,2.204816e+001
1.702744e+003,2.088361e+001
1.703708e+003,2.317731e+001
1.704672e+003,2.561133e+001
1.705636e+003,2.501569e+001
1.706601e+003,2.313171e+001
1.707565e+003,2.340564e+001
1.708529e+003,2.522784e+001
1.709493e+003,2.586700e+001
1.710458e+003,2.485120e+001
1.711422e+003,2.370905e+001
1.712386e+003,2.311011e+001
1.713350e+003,2.304285e+001
1.714314e+003,2.371674e+001
1.715279e+003,2.422314e+001
1.716243e+003,2.272614e+001
1.717207e+003,1.979791e+001
1.718171e+003,1.856201e+001
1.719135e+003,1.994238e+001
1.720100e+003,2.218384e+001
1.721064e+003,2.450458e+001
1.722028e+003,2.541882e+001
1.722992e+003,2.199164e+001
1.723957e+003,1.585022e+001
1.724921e+003,1.509186e+001
1.725885e+003,2.035907e+001
1.726849e+003,2.303650e+001
1.727814e+003,2.065265e+001
1.728778e+003,1.816608e+001
1.729742e+003,1.740607e+001
1.730706e+003,1.752509e+001
1.731671e+003,1.750110e+001
1.732635e+003,1.716650e+001
1.733599e+003,1.735492e+001
1.734563e+003,1.823505e+001
1.735528e+003,1.822357e+001
1.736492e+003,1.635553e+001
1.737456e+003,1.447607e+001
1.738420e+003,1.486145e+001
1.739385e+003,1.658722e+001
1.740349e+003,1.714594e+001
1.741313e+003,1.651617e+001
1.742277e+003,1.599133e+001
1.743241e+003,1.551978e+001
1.744206e+003,1.571997e+001
1.745170e+003,1.727777e+001
1.746134e+003,1.849371e+001
1.747098e+003,1.819629e+001
1.748063e+003,1.718134e+001
1.749027e+003,1.634998e+001
1.749991e+003,1.581262e+001
1.750955e+003,1.541315e+001
1.751919e+003,1.493884e+001
1.752884e+003,1.383777e+001
1.753848e+003,1.163397e+001
1.754812e+003,8.995972e+000
1.755776e+003,7.477722e+000
1.756741e+003,7.322571e+000
1.757705e+003,7.862793e+000
1.758669e+003,9.231201e+000
1.759633e+003,1.013458e+001
1.760598e+003,9.199341e+000
1.761562e+003,9.135315e+000
1.762526e+003,1.278705e+001
1.763490e+003,1.605396e+001
1.764455e+003,1.512415e+001
1.765419e+003,1.243274e+001
1.766383e+003,1.202386e+001
1.767347e+003,1.390399e+001
1.768312e+003,1.516180e+001
1.769276e+003,1.433167e+001
1.770240e+003,1.293951e+001
1.771204e+003,1.299585e+001
1.772168e+003,1.411523e+001
1.773133e+003,1.496838e+001
1.774097e+003,1.549158e+001
1.775061e+003,1.491589e+001
1.776025e+003,1.263770e+001
1.776990e+003,1.076813e+001
1.777954e+003,1.016711e+001
1.778918e+003,1.085156e+001
1.779882e+003,1.385693e+001
1.780846e+003,1.675439e+001
1.781811e+003,1.606995e+001
1.782775e+003,1.294891e+001
1.783739e+003,1.085065e+001
1.784703e+003,1.036536e+001
1.785668e+003,1.082184e+001
1.786632e+003,1.234106e+001
1.787596e+003,1.343439e+001
1.788560e+003,1.279364e+001
1.789525e+003,1.203693e+001
1.790489e+003,1.373346e+001
1.791453e+003,1.671985e+001
1.792417e+003,1.737592e+001
1.793382e+003,1.511066e+001
1.794346e+003,1.211456e+001
1.795310e+003,9.393799e+000
1.796274e+003,7.572388e+000
1.797239e+003,7.696655e+000
1.798203e+003,9.477478e+000
1.799167e+003,1.084955e+001
1.800131e+003,1.113141e+001
1.801095e+003,1.124261e+001
1.802060e+003,1.128418e+001
1.803024e+003,1.220062e+001
1.803988e+003,1.559784e+001
1.804952e+003,1.758173e+001
1.805917e+003,1.495441e+001
1.806881e+003,1.116107e+001
1.807845e+003,9.806519e+000
1.808809e+003,1.032556e+001
1.809773e+003,1.068115e+001
1.810738e+003,1.029529e+001
1.811702e+003,9.681335e+000
1.812666e+003,9.139771e+000
1.813630e+003,8.644348e+000
1.814595e+003,8.120789e+000
1.815559e+003,7.588806e+000
1.816523e+003,7.683411e+000
1.817487e+003,8.613403e+000
1.818452e+003,8.484924e+000
1.819416e+003,6.794128e+000
1.820380e+003,6.171448e+000
1.821344e+003,7.998535e+000
1.822309e+003,9.477905e+000
1.823273e+003,8.470398e+000
1.824237e+003,7.163452e+000
1.825201e+003,8.103088e+000
1.826166e+003,1.025696e+001
1.827130e+003,1.074036e+001
1.828094e+003,8.982422e+000
1.829058e+003,7.006104e+000
1.830022e+003,5.960693e+000
1.830987e+003,5.091675e+000
1.831951e+003,3.105286e+000
1.832915e+003,1.410767e+000
1.833879e+003,2.943115e+000
1.834844e+003,6.392700e+000
1.835808e+003,7.230286e+000
1.836772e+003,5.093506e+000
1.837736e+003,3.715088e+000
1.838700e+003,4.594421e+000
1.839665e+003,5.955811e+000
1.840629e+003,6.498535e+000
1.841593e+003,6.069336e+000
1.842557e+003,3.808044e+000
1.843522e+003,-2.500000e-001
1.844486e+003,-2.343201e+000
1.845450e+003,-7.337036e-001
1.846414e+003,2.851563e-001
1.847379e+003,-6.830444e-001
1.848343e+003,-1.313782e+000
1.849307e+003,-6.570435e-001
1.850271e+003,6.226807e-001
1.851236e+003,3.070129e+000
1.852200e+003,5.460571e+000
1.853164e+003,5.488892e+000
1.854128e+003,3.392578e+000
1.855093e+003,1.506470e+000
1.856057e+003,9.927979e-001
1.857021e+003,1.022522e+000
1.857985e+003,6.623535e-001
1.858949e+003,5.886230e-001
1.859914e+003,2.940002e+000
1.860878e+003,6.941895e+000
1.861842e+003,7.051331e+000
1.862806e+003,3.014038e+000
1.863771e+003,9.533081e-001
1.864735e+003,2.191101e+000
1.865699e+003,3.305786e+000
1.866663e+003,2.959717e+000
1.867627e+003,2.306885e+000
1.868592e+003,2.046814e+000
1.869556e+003,1.780823e+000
1.870520e+003,9.950562e-001
1.871484e+003,-1.361084e-001
1.872449e+003,3.546143e-002
1.873413e+003,3.052124e+000
1.874377e+003,5.462708e+000
1.875341e+003,5.060669e+000
1.876306e+003,3.917664e+000
1.877270e+003,2.252136e+000
1.878234e+003,9.772339e-001
1.879198e+003,1.547546e+000
1.880163e+003,3.146790e+000
1.881127e+003,4.319092e+000
1.882091e+003,4.869446e+000
1.883055e+003,5.402222e+000
1.884020e+003,6.057129e+000
1.884984e+003,5.866272e+000
1.885948e+003,3.939941e+000
1.886912e+003,9.506836e-001
1.887876e+003,-2.131958e+000
1.888841e+003,-5.006348e+000
1.889805e+003,-3.471497e+000
1.890769e+003,3.873962e+000
1.891733e+003,7.919800e+000
1.892698e+003,6.514221e+000
1.893662e+003,4.345520e+000
1.894626e+003,2.669617e+000
1.895590e+003,1.311890e+000
1.896554e+003,4.155273e-001
1.897519e+003,-1.150513e-001
1.898483e+003,-1.057068e+000
1.899447e+003,-2.187012e+000
1.900411e+003,-1.582458e+000
1.901376e+003,1.302246e+000
1.902340e+003,3.629700e+000
1.903304e+003,4.334961e+000
1.904268e+003,4.121277e+000
1.905233e+003,2.952820e+000
1.906197e+003,1.742126e+000
1.907161e+003,1.656372e+000
1.908125e+003,2.229736e+000
1.909090e+003,2.203491e+000
1.910054e+003,1.478699e+000
1.911018e+003,1.149597e+000
1.911982e+003,1.597107e+000
1.912947e+003,1.372742e+000
1.913911e+003,-6.833496e-001
1.914875e+003,-2.293762e+000
1.915839e+003,3.001099e-001
1.916803e+003,5.669678e+000
1.917768e+003,7.404968e+000
1.918732e+003,4.972229e+000
1.919696e+003,3.896729e+000
1.920660e+003,5.019348e+000
1.921625e+003,5.894531e+000
1.922589e+003,6.064453e+000
1.923553e+003,5.376038e+000
1.924517e+003,2.637451e+000
1.925481e+003,7.647705e-002
1.926446e+003,-3.891602e-001
1.927410e+003,7.804565e-001
1.928374e+003,3.259766e+000
1.929338e+003,6.527649e+000
1.930303e+003,7.449036e+000
1.931267e+003,4.938354e+000
1.932231e+003,2.539673e+000
1.933195e+003,1.531555e+000
1.934160e+003,8.677979e-001
1.935124e+003,-1.884766e-001
1.936088e+003,-1.518738e+000
1.937052e+003,-3.110718e+000
1.938017e+003,-4.278992e+000
1.938981e+003,-3.344299e+000
1.939945e+003,-8.051758e-001
1.940909e+003,4.235840e-002
1.941874e+003,-2.157776e+000
1.942838e+003,-4.378235e+000
1.943802e+003,-3.504028e+000
1.944766e+003,-9.292603e-001
1.945730e+003,-6.878662e-002
1.946695e+003,-8.761597e-001
1.947659e+003,-1.417786e+000
1.948623e+003,-1.812439e+000
1.949587e+003,-1.235168e+000
1.950552e+003,1.047485e+000
1.951516e+003,2.239380e+000
1.952480e+003,9.296265e-001
1.953444e+003,-6.574097e-001
1.954408e+003,-8.307495e-001
1.955373e+003,-9.420776e-001
1.956337e+003,-2.943054e+000
1.957301e+003,-5.878235e+000
1.958265e+003,-7.531738e+000
1.959230e+003,-7.763489e+000
1.960194e+003,-7.079041e+000
1.961158e+003,-4.662109e+000
1.962122e+003,-3.675964e+000
1.963087e+003,-6.853638e+000
1.964051e+003,-9.176208e+000
1.965015e+003,-6.167297e+000
1.965979e+003,-1.783447e+000
1.966944e+003,-5.815430e-001
1.967908e+003,-1.536194e+000
1.968872e+003,-1.739929e+000
1.969836e+003,-7.181396e-001
1.970801e+003,5.285645e-001
1.971765e+003,1.514587e+000
1.972729e+003,1.526428e+000
1.973693e+003,-4.646606e-001
1.974657e+003,-2.580872e+000
1.975622e+003,-1.659912e+000
1.976586e+003,1.024353e+000
1.977550e+003,2.419983e+000
1.978514e+003,2.713745e+000
1.979479e+003,2.897705e+000
1.980443e+003,3.042114e+000
1.981407e+003,2.581909e+000
1.982371e+003,1.371521e+000
1.983335e+003,8.319702e-001
1.984300e+003,2.174561e+000
1.985264e+003,2.812927e+000
1.986228e+003,-1.617188e+000
1.987192e+003,-9.396118e+000
1.988157e+003,-1.117914e+001
1.989121e+003,-5.051208e+000
1.990085e+003,-2.264587e+000
1.991049e+003,-4.563965e+000
1.992014e+003,-6.329712e+000
1.992978e+003,-6.973145e+000
1.993942e+003,-7.232788e+000
1.994906e+003,-7.237549e+000
1.995871e+003,-7.055420e+000
1.996835e+003,-6.896667e+000
1.997799e+003,-6.295593e+000
1.998763e+003,-4.513550e+000
1.999728e+003,-1.928406e+000
