5.003444e+002,2.366980e+001
5.013087e+002,2.480322e+001
5.022729e+002,2.390601e+001
5.032371e+002,2.167322e+001
5.042014e+002,1.930304e+001
5.051656e+002,1.695905e+001
5.061298e+002,1.530426e+001
5.070941e+002,1.490082e+001
5.080583e+002,1.578046e+001
5.090225e+002,1.686517e+001
5.099868e+002,1.862067e+001
5.109510e+002,2.003082e+001
5.119152e+002,2.043195e+001
5.128795e+002,1.976251e+001
5.138437e+002,1.927576e+001
5.148079e+002,1.979126e+001
5.157722e+002,2.038824e+001
5.167364e+002,2.059253e+001
5.177006e+002,2.025189e+001
5.186649e+002,1.953534e+001
5.196291e+002,1.884253e+001
5.205933e+002,1.842786e+001
5.215576e+002,1.824341e+001
5.225218e+002,1.795862e+001
5.234860e+002,1.706958e+001
5.244503e+002,1.494434e+001
5.254145e+002,1.142548e+001
5.263787e+002,9.574097e+000
5.273430e+002,9.993530e+000
5.283072e+002,1.164935e+001
5.292714e+002,1.325629e+001
5.302357e+002,1.499310e+001
5.311999e+002,1.493390e+001
5.321641e+002,1.182928e+001
5.331284e+002,8.703979e+000
5.340926e+002,8.098389e+000
5.350568e+002,1.093298e+001
5.360211e+002,1.373041e+001
5.369853e+002,1.356274e+001
5.379495e+002,1.236987e+001
5.389138e+002,1.129877e+001
5.398780e+002,1.085461e+001
5.408422e+002,1.091266e+001
5.418065e+002,1.160986e+001
5.427707e+002,1.278302e+001
5.437349e+002,1.307037e+001
5.446992e+002,1.184692e+001
5.456634e+002,9.551270e+000
5.466276e+002,7.846313e+000
5.475919e+002,7.347961e+000
5.485561e+002,7.068787e+000
5.495203e+002,6.656433e+000
5.504846e+002,6.271179e+000
5.514488e+002,6.493958e+000
5.524130e+002,8.354004e+000
5.533773e+002,9.395081e+000
5.543415e+002,7.246216e+000
5.553057e+002,4.371643e+000
5.562700e+002,3.615356e+000
5.572342e+002,6.643127e+000
5.581984e+002,1.116138e+001
5.591627e+002,1.170624e+001
5.601269e+002,9.819458e+000
5.610911e+002,7.840515e+000
5.620554e+002,6.817444e+000
5.630196e+002,6.581238e+000
5.639838e+002,6.839722e+000
5.649481e+002,8.410461e+000
5.659123e+002,9.334229e+000
5.668765e+002,9.286743e+000
5.678408e+002,8.803894e+000
5.688050e+002,8.958313e+000
5.697692e+002,1.046594e+001
5.707335e+002,1.084900e+001
5.716977e+002,9.019165e+000
5.726619e+002,6.087402e+000
5.736262e+002,3.361511e+000
5.745904e+002,1.663452e+000
5.755546e+002,1.130676e+000
5.765189e+002,1.641724e+000
5.774831e+002,2.664734e+000
5.784473e+002,3.885559e+000
5.794116e+002,5.217224e+000
5.803758e+002,6.799866e+000
5.813400e+002,7.372620e+000
5.823043e+002,6.180847e+000
5.832685e+002,4.980530e+000
5.842327e+002,4.647034e+000
5.851970e+002,5.291199e+000
5.861612e+002,6.247742e+000
5.871254e+002,7.845703e+000
5.880897e+002,8.773499e+000
5.890539e+002,7.859619e+000
5.900181e+002,6.090393e+000
5.909824e+002,5.377625e+000
5.919466e+002,7.556091e+000
5.929108e+002,1.002435e+001
5.938751e+002,9.889832e+000
5.948393e+002,8.154480e+000
5.958035e+002,6.353638e+000
5.967678e+002,5.655701e+000
5.977320e+002,5.975769e+000
5.986962e+002,5.225525e+000
5.996605e+002,2.831604e+000
6.006247e+002,1.458984e+000
6.015889e+002,3.307861e+000
6.025532e+002,8.054871e+000
6.035174e+002,1.034222e+001
6.044816e+002,7.731750e+000
6.054459e+002,5.133728e+000
6.064101e+002,2.604248e+000
6.073743e+002,6.098633e-001
6.083386e+002,0.000000e+000
6.093028e+002,1.961304e+000
6.102670e+002,4.160278e+000
6.112313e+002,4.093323e+000
6.121955e+002,3.178284e+000
6.131597e+002,3.717041e+000
6.141240e+002,7.198181e+000
6.150882e+002,1.222632e+001
6.160524e+002,1.211285e+001
6.170167e+002,7.964233e+000
6.179809e+002,4.837341e+000
6.189451e+002,5.237793e+000
6.199094e+002,8.405640e+000
6.208736e+002,9.685242e+000
6.218378e+002,8.002502e+000
6.228021e+002,6.119995e+000
6.237663e+002,3.403137e+000
6.247305e+002,9.466553e-001
6.256948e+002,5.066528e-001
6.266590e+002,3.246094e+000
6.276232e+002,6.258179e+000
6.285875e+002,8.399658e+000
6.295517e+002,9.917358e+000
6.305159e+002,1.105090e+001
6.314802e+002,1.180627e+001
6.324444e+002,1.173615e+001
6.334086e+002,8.938354e+000
6.343729e+002,4.699890e+000
6.353371e+002,2.030334e+000
6.363013e+002,2.017517e+000
6.372656e+002,3.986450e+000
6.382298e+002,5.864624e+000
6.391940e+002,8.744995e+000
6.401583e+002,9.537842e+000
6.411225e+002,6.814087e+000
6.420867e+002,3.399048e+000
6.430510e+002,2.706299e+000
6.440152e+002,6.186340e+000
6.449794e+002,9.218201e+000
6.459437e+002,9.199219e+000
6.469079e+002,8.044067e+000
6.478721e+002,7.384583e+000
6.488364e+002,7.799622e+000
6.498006e+002,8.371643e+000
6.507648e+002,6.677551e+000
6.517291e+002,3.718994e+000
6.526933e+002,2.359070e+000
6.536575e+002,3.164124e+000
6.546218e+002,5.251221e+000
6.555860e+002,7.030273e+000
6.565502e+002,8.784729e+000
6.575145e+002,9.200745e+000
6.584787e+002,6.757080e+000
6.594429e+002,4.403748e+000
6.604072e+002,4.887451e+000
6.613714e+002,8.910034e+000
6.623356e+002,1.250262e+001
6.632999e+002,1.395593e+001
6.642641e+002,1.394543e+001
6.652283e+002,1.234045e+001
6.661926e+002,9.741516e+000
6.671568e+002,7.203674e+000
6.681210e+002,5.617249e+000
6.690853e+002,5.065796e+000
6.700495e+002,6.050354e+000
6.710137e+002,8.472595e+000
6.719780e+002,1.095685e+001
6.729422e+002,1.192926e+001
6.739064e+002,1.080231e+001
6.748707e+002,1.092010e+001
6.758349e+002,1.369983e+001
6.767991e+002,1.560736e+001
6.777634e+002,1.498932e+001
6.787276e+002,1.238379e+001
6.796918e+002,1.038257e+001
6.806561e+002,9.641479e+000
6.816203e+002,9.430359e+000
6.825845e+002,9.528687e+000
6.835488e+002,9.959106e+000
6.845130e+002,1.107098e+001
6.854772e+002,1.332080e+001
6.864415e+002,1.593140e+001
6.874057e+002,1.654242e+001
6.883699e+002,1.538788e+001
6.893342e+002,1.369867e+001
6.902984e+002,1.221979e+001
6.912626e+002,1.102094e+001
6.922269e+002,9.850586e+000
6.931911e+002,8.043579e+000
6.941553e+002,8.238831e+000
6.951196e+002,1.236749e+001
6.960838e+002,1.748157e+001
6.970480e+002,1.864838e+001
6.980123e+002,1.306689e+001
6.989765e+002,8.557861e+000
6.999407e+002,7.278076e+000
7.009050e+002,8.616638e+000
7.018692e+002,1.329297e+001
7.028334e+002,2.088177e+001
7.037977e+002,2.869171e+001
7.047619e+002,3.313733e+001
7.057261e+002,3.459027e+001
7.066904e+002,3.217517e+001
7.076546e+002,2.571399e+001
7.086188e+002,1.814642e+001
7.095831e+002,1.417902e+001
7.105473e+002,1.492291e+001
7.115115e+002,1.566327e+001
7.124758e+002,1.647528e+001
7.134400e+002,1.700531e+001
7.144042e+002,1.665149e+001
7.153685e+002,1.561938e+001
7.163327e+002,1.609802e+001
7.172969e+002,2.229114e+001
7.182612e+002,2.727740e+001
7.192254e+002,2.716754e+001
7.201896e+002,2.338806e+001
7.211539e+002,1.923383e+001
7.221181e+002,1.736865e+001
7.230823e+002,1.738617e+001
7.240466e+002,1.789136e+001
7.250108e+002,1.912805e+001
7.259750e+002,2.145898e+001
7.269393e+002,2.513202e+001
7.279035e+002,2.935699e+001
7.288677e+002,3.051862e+001
7.298320e+002,2.641187e+001
7.307962e+002,2.322784e+001
7.317604e+002,2.168530e+001
7.327247e+002,2.122485e+001
7.336889e+002,2.084827e+001
7.346531e+002,1.984131e+001
7.356174e+002,1.834613e+001
7.365816e+002,1.677405e+001
7.375458e+002,1.577148e+001
7.385101e+002,1.586066e+001
7.394743e+002,1.710992e+001
7.404385e+002,1.919470e+001
7.414028e+002,2.192175e+001
7.423670e+002,2.411481e+001
7.433312e+002,2.365070e+001
7.442955e+002,2.062720e+001
7.452597e+002,1.782739e+001
7.462239e+002,1.849573e+001
7.471882e+002,2.376959e+001
7.481524e+002,2.683252e+001
7.491166e+002,2.636243e+001
7.500809e+002,2.468408e+001
7.510451e+002,2.150604e+001
7.520093e+002,1.769733e+001
7.529736e+002,1.600677e+001
7.539378e+002,1.975446e+001
7.549020e+002,2.370807e+001
7.558663e+002,2.428058e+001
7.568306e+002,2.291797e+001
7.577948e+002,2.138153e+001
7.587590e+002,2.067328e+001
7.597233e+002,2.042163e+001
7.606875e+002,2.042798e+001
7.616517e+002,2.089294e+001
7.626160e+002,2.126733e+001
7.635802e+002,2.132312e+001
7.645444e+002,2.145947e+001
7.655087e+002,2.260791e+001
7.664729e+002,2.579309e+001
7.674371e+002,2.737402e+001
7.684014e+002,2.636096e+001
7.693656e+002,2.465826e+001
7.703298e+002,2.302728e+001
7.712941e+002,2.182764e+001
7.722583e+002,2.190277e+001
7.732225e+002,2.527704e+001
7.741868e+002,2.882239e+001
7.751510e+002,2.978601e+001
7.761152e+002,2.878998e+001
7.770795e+002,2.769739e+001
7.780437e+002,2.810706e+001
7.790079e+002,2.967194e+001
7.799722e+002,3.027161e+001
7.809364e+002,3.002069e+001
7.819006e+002,2.907281e+001
7.828649e+002,2.674951e+001
7.838291e+002,2.407410e+001
7.847933e+002,2.428876e+001
7.857576e+002,3.025110e+001
7.867218e+002,3.320001e+001
7.876860e+002,3.015063e+001
7.886503e+002,2.566241e+001
7.896145e+002,2.301105e+001
7.905787e+002,2.320947e+001
7.915430e+002,2.563556e+001
7.925072e+002,3.234381e+001
7.934714e+002,3.851416e+001
7.944357e+002,3.783484e+001
7.953999e+002,3.112152e+001
7.963641e+002,2.381036e+001
7.973284e+002,2.184662e+001
7.982926e+002,2.556030e+001
7.992568e+002,2.947955e+001
8.002211e+002,3.401434e+001
8.011853e+002,3.660754e+001
8.021495e+002,3.651569e+001
8.031138e+002,3.468695e+001
8.040780e+002,3.278711e+001
8.050422e+002,2.981659e+001
8.060065e+002,2.798004e+001
8.069707e+002,2.810767e+001
8.079349e+002,2.901062e+001
8.088992e+002,2.963611e+001
8.098634e+002,2.977808e+001
8.108276e+002,3.032007e+001
8.117919e+002,3.272192e+001
8.127561e+002,3.547571e+001
8.137203e+002,3.677374e+001
8.146846e+002,3.676978e+001
8.156488e+002,3.592438e+001
8.166130e+002,3.431970e+001
8.175773e+002,3.137921e+001
8.185415e+002,3.063678e+001
8.195057e+002,3.355725e+001
8.204700e+002,3.577454e+001
8.214342e+002,3.540558e+001
8.223984e+002,3.324231e+001
8.233627e+002,3.154498e+001
8.243269e+002,3.136304e+001
8.252911e+002,3.146960e+001
8.262554e+002,3.147125e+001
8.272196e+002,3.106378e+001
8.281838e+002,2.930194e+001
8.291481e+002,2.619312e+001
8.301123e+002,2.336188e+001
8.310765e+002,2.400208e+001
8.320408e+002,2.778101e+001
8.330050e+002,3.050555e+001
8.339692e+002,3.208838e+001
8.349335e+002,3.251184e+001
8.358977e+002,3.126263e+001
8.368619e+002,2.805518e+001
8.378262e+002,2.683667e+001
8.387904e+002,2.780487e+001
8.397546e+002,3.011755e+001
8.407189e+002,3.581561e+001
8.416831e+002,4.227808e+001
8.426473e+002,4.478204e+001
8.436116e+002,4.059045e+001
8.445758e+002,3.499652e+001
8.455400e+002,3.260913e+001
8.465043e+002,3.186005e+001
8.474685e+002,3.205939e+001
8.484327e+002,3.303644e+001
8.493970e+002,3.441266e+001
8.503612e+002,3.511157e+001
8.513254e+002,3.485065e+001
8.522897e+002,3.440906e+001
8.532539e+002,3.303357e+001
8.542181e+002,3.198444e+001
8.551824e+002,3.239301e+001
8.561466e+002,3.449609e+001
8.571108e+002,3.751520e+001
8.580751e+002,4.192401e+001
8.590393e+002,4.449603e+001
8.600035e+002,4.370129e+001
8.609678e+002,4.153247e+001
8.619320e+002,4.006940e+001
8.628962e+002,4.011945e+001
8.638605e+002,4.075610e+001
8.648247e+002,4.051349e+001
8.657889e+002,3.987396e+001
8.667532e+002,4.031500e+001
8.677174e+002,4.201825e+001
8.686816e+002,4.368176e+001
8.696459e+002,4.379492e+001
8.706101e+002,4.224969e+001
8.715743e+002,4.136914e+001
8.725386e+002,4.023145e+001
8.735028e+002,4.085840e+001
8.744670e+002,4.502142e+001
8.754313e+002,5.052716e+001
8.763955e+002,5.341315e+001
8.773597e+002,5.194537e+001
8.783240e+002,5.003345e+001
8.792882e+002,5.014093e+001
8.802524e+002,5.107971e+001
8.812167e+002,5.228552e+001
8.821809e+002,5.340479e+001
8.831451e+002,5.394379e+001
8.841094e+002,5.317694e+001
8.850736e+002,5.155597e+001
8.860378e+002,5.294861e+001
8.870021e+002,5.817010e+001
8.879663e+002,6.243994e+001
8.889305e+002,6.250610e+001
8.898948e+002,5.904633e+001
8.908590e+002,5.604651e+001
8.918232e+002,5.379510e+001
8.927875e+002,5.268793e+001
8.937517e+002,5.362671e+001
8.947159e+002,5.500830e+001
8.956802e+002,5.495941e+001
8.966444e+002,5.313562e+001
8.976086e+002,5.126801e+001
8.985729e+002,5.141907e+001
8.995371e+002,5.320123e+001
9.005013e+002,5.557227e+001
9.014656e+002,5.851160e+001
9.024298e+002,6.164362e+001
9.033940e+002,6.454309e+001
9.043583e+002,6.683685e+001
9.053225e+002,6.776239e+001
9.062867e+002,6.676697e+001
9.072510e+002,6.433502e+001
9.082152e+002,5.907635e+001
9.091794e+002,5.409778e+001
9.101437e+002,5.254883e+001
9.111079e+002,5.491492e+001
9.120721e+002,5.832813e+001
9.130364e+002,6.285992e+001
9.140006e+002,6.575439e+001
9.149648e+002,6.424957e+001
9.159291e+002,6.035004e+001
9.168933e+002,5.785455e+001
9.178575e+002,5.925153e+001
9.188218e+002,6.326373e+001
9.197860e+002,6.654907e+001
9.207502e+002,6.907764e+001
9.217145e+002,6.909467e+001
9.226787e+002,6.532831e+001
9.236429e+002,6.058673e+001
9.246072e+002,5.845538e+001
9.255714e+002,5.917755e+001
9.265356e+002,5.979974e+001
9.274999e+002,6.040192e+001
9.284641e+002,5.991803e+001
9.294283e+002,5.662183e+001
9.303926e+002,5.253906e+001
9.313568e+002,5.163416e+001
9.323210e+002,5.615918e+001
9.332853e+002,6.170776e+001
9.342495e+002,5.952893e+001
9.352137e+002,5.381616e+001
9.361780e+002,5.159143e+001
9.371422e+002,5.458868e+001
9.381064e+002,5.932617e+001
9.390707e+002,6.065302e+001
9.400349e+002,5.742755e+001
9.409991e+002,5.609277e+001
9.419634e+002,5.756348e+001
9.429276e+002,5.927167e+001
9.438918e+002,6.137354e+001
9.448561e+002,6.317877e+001
9.458203e+002,6.363116e+001
9.467845e+002,6.249060e+001
9.477488e+002,6.032483e+001
9.487130e+002,5.538220e+001
9.496772e+002,5.097870e+001
9.506415e+002,5.060419e+001
9.516057e+002,5.378589e+001
9.525699e+002,5.742316e+001
9.535342e+002,5.847345e+001
9.544984e+002,5.695953e+001
9.554626e+002,5.357727e+001
9.564269e+002,4.784698e+001
9.573911e+002,4.477844e+001
9.583553e+002,4.703937e+001
9.593196e+002,5.195050e+001
9.602838e+002,5.548083e+001
9.612480e+002,5.741461e+001
9.622123e+002,5.761444e+001
9.631765e+002,5.501086e+001
9.641407e+002,5.200879e+001
9.651050e+002,4.880823e+001
9.660692e+002,4.597845e+001
9.670334e+002,4.454614e+001
9.679977e+002,4.535480e+001
9.689619e+002,4.789893e+001
9.699261e+002,5.096356e+001
9.708904e+002,5.408905e+001
9.718546e+002,5.674176e+001
9.728188e+002,5.866858e+001
9.737831e+002,6.002411e+001
9.747473e+002,6.137347e+001
9.757115e+002,6.312439e+001
9.766758e+002,6.321936e+001
9.776400e+002,6.021057e+001
9.786042e+002,5.788458e+001
9.795685e+002,5.709192e+001
9.805327e+002,5.704730e+001
9.814969e+002,5.715179e+001
9.824612e+002,5.743921e+001
9.834254e+002,5.740112e+001
9.843896e+002,5.594977e+001
9.853539e+002,5.356378e+001
9.863181e+002,5.016620e+001
9.872823e+002,4.603058e+001
9.882466e+002,4.288544e+001
9.892108e+002,4.261353e+001
9.901750e+002,4.511304e+001
9.911393e+002,4.614136e+001
9.921035e+002,4.276288e+001
9.930677e+002,4.074329e+001
9.940320e+002,4.200763e+001
9.949962e+002,4.408386e+001
9.959604e+002,4.430530e+001
9.969247e+002,4.266516e+001
9.978889e+002,4.227600e+001
9.988531e+002,4.520850e+001
9.998174e+002,4.799524e+001
1.000782e+003,4.853400e+001
1.001746e+003,4.811707e+001
1.002710e+003,4.914868e+001
1.003674e+003,5.229498e+001
1.004639e+003,5.501715e+001
1.005603e+003,5.250220e+001
1.006567e+003,4.399829e+001
1.007531e+003,3.932892e+001
1.008495e+003,3.991504e+001
1.009460e+003,4.131348e+001
1.010424e+003,4.060486e+001
1.011388e+003,3.863708e+001
1.012352e+003,3.881195e+001
1.013317e+003,4.283594e+001
1.014281e+003,4.592163e+001
1.015245e+003,4.529694e+001
1.016209e+003,4.414819e+001
1.017174e+003,4.571680e+001
1.018138e+003,4.947241e+001
1.019102e+003,5.195361e+001
1.020066e+003,5.031018e+001
1.021031e+003,4.607697e+001
1.021995e+003,4.213855e+001
1.022959e+003,3.828821e+001
1.023923e+003,3.671252e+001
1.024887e+003,3.897052e+001
1.025852e+003,4.219647e+001
1.026816e+003,4.131818e+001
1.027780e+003,3.507074e+001
1.028744e+003,3.208099e+001
1.029709e+003,3.607654e+001
1.030673e+003,3.959656e+001
1.031637e+003,4.001147e+001
1.032601e+003,3.859381e+001
1.033566e+003,3.725470e+001
1.034530e+003,3.680945e+001
1.035494e+003,3.724860e+001
1.036458e+003,3.893744e+001
1.037422e+003,4.099811e+001
1.038387e+003,4.194611e+001
1.039351e+003,4.175531e+001
1.040315e+003,4.143671e+001
1.041279e+003,4.184637e+001
1.042244e+003,4.300751e+001
1.043208e+003,4.438879e+001
1.044172e+003,4.636493e+001
1.045136e+003,4.705908e+001
1.046101e+003,4.610913e+001
1.047065e+003,4.465729e+001
1.048029e+003,4.304559e+001
1.048993e+003,4.138940e+001
1.049958e+003,3.994305e+001
1.050922e+003,3.876849e+001
1.051886e+003,3.864459e+001
1.052850e+003,4.106299e+001
1.053814e+003,4.440747e+001
1.054779e+003,4.659271e+001
1.055743e+003,4.712769e+001
1.056707e+003,4.680652e+001
1.057671e+003,4.657660e+001
1.058636e+003,4.636584e+001
1.059600e+003,4.623230e+001
1.060564e+003,4.767200e+001
1.061528e+003,4.794006e+001
1.062493e+003,4.460565e+001
1.063457e+003,4.058679e+001
1.064421e+003,3.990405e+001
1.065385e+003,4.305621e+001
1.066349e+003,4.556024e+001
1.067314e+003,4.457941e+001
1.068278e+003,4.295734e+001
1.069242e+003,4.263507e+001
1.070206e+003,4.330609e+001
1.071171e+003,4.438239e+001
1.072135e+003,4.537268e+001
1.073099e+003,4.580450e+001
1.074063e+003,4.507324e+001
1.075028e+003,4.312146e+001
1.075992e+003,4.282324e+001
1.076956e+003,4.517303e+001
1.077920e+003,4.664734e+001
1.078885e+003,4.515759e+001
1.079849e+003,4.271881e+001
1.080813e+003,4.348090e+001
1.081777e+003,4.888135e+001
1.082741e+003,5.284387e+001
1.083706e+003,4.889410e+001
1.084670e+003,4.486578e+001
1.085634e+003,4.639551e+001
1.086598e+003,5.103558e+001
1.087563e+003,5.330695e+001
1.088527e+003,5.044226e+001
1.089491e+003,4.525140e+001
1.090455e+003,4.265894e+001
1.091420e+003,4.273358e+001
1.092384e+003,4.307062e+001
1.093348e+003,4.375372e+001
1.094312e+003,4.402625e+001
1.095276e+003,4.350006e+001
1.096241e+003,4.264984e+001
1.097205e+003,4.239294e+001
1.098169e+003,4.291101e+001
1.099133e+003,4.295795e+001
1.100098e+003,4.131201e+001
1.101062e+003,4.008856e+001
1.102026e+003,4.116351e+001
1.102990e+003,4.379498e+001
1.103955e+003,4.602209e+001
1.104919e+003,4.657654e+001
1.105883e+003,4.576569e+001
1.106847e+003,4.405585e+001
1.107812e+003,4.145758e+001
1.108776e+003,4.107782e+001
1.109740e+003,4.434778e+001
1.110704e+003,4.715295e+001
1.111668e+003,4.625775e+001
1.112633e+003,4.277655e+001
1.113597e+003,4.065521e+001
1.114561e+003,4.048853e+001
1.115525e+003,4.045557e+001
1.116490e+003,3.937604e+001
1.117454e+003,3.868201e+001
1.118418e+003,4.030566e+001
1.119382e+003,4.345868e+001
1.120347e+003,4.549670e+001
1.121311e+003,4.453015e+001
1.122275e+003,4.167560e+001
1.123239e+003,3.993347e+001
1.124203e+003,3.974176e+001
1.125168e+003,4.036823e+001
1.126132e+003,4.212146e+001
1.127096e+003,4.407031e+001
1.128060e+003,4.544244e+001
1.129025e+003,4.616156e+001
1.129989e+003,4.644110e+001
1.130953e+003,4.620209e+001
1.131917e+003,4.530786e+001
1.132882e+003,4.284424e+001
1.133846e+003,4.095953e+001
1.134810e+003,4.147284e+001
1.135774e+003,4.366486e+001
1.136739e+003,4.548541e+001
1.137703e+003,4.576178e+001
1.138667e+003,4.564642e+001
1.139631e+003,4.775562e+001
1.140595e+003,5.146454e+001
1.141560e+003,5.189880e+001
1.142524e+003,4.805157e+001
1.143488e+003,4.475995e+001
1.144452e+003,4.545453e+001
1.145417e+003,4.917194e+001
1.146381e+003,5.276581e+001
1.147345e+003,5.639728e+001
1.148309e+003,5.860858e+001
1.149274e+003,5.849176e+001
1.150238e+003,5.788348e+001
1.151202e+003,5.714728e+001
1.152166e+003,5.697388e+001
1.153130e+003,5.863733e+001
1.154095e+003,6.227582e+001
1.155059e+003,6.523419e+001
1.156023e+003,6.371454e+001
1.156987e+003,5.868054e+001
1.157952e+003,5.647101e+001
1.158916e+003,5.809308e+001
1.159880e+003,5.978436e+001
1.160844e+003,5.896735e+001
1.161809e+003,5.613269e+001
1.162773e+003,5.294244e+001
1.163737e+003,4.929138e+001
1.164701e+003,4.615894e+001
1.165666e+003,4.312390e+001
1.166630e+003,4.178180e+001
1.167594e+003,4.454529e+001
1.168558e+003,4.854749e+001
1.169522e+003,4.988654e+001
1.170487e+003,4.754523e+001
1.171451e+003,4.371088e+001
1.172415e+003,4.048651e+001
1.173379e+003,3.805499e+001
1.174344e+003,3.832458e+001
1.175308e+003,4.158527e+001
1.176272e+003,4.380426e+001
1.177236e+003,4.297394e+001
1.178201e+003,4.123572e+001
1.179165e+003,4.118036e+001
1.180129e+003,4.260291e+001
1.181093e+003,4.385657e+001
1.182057e+003,4.562988e+001
1.183022e+003,4.590991e+001
1.183986e+003,4.171490e+001
1.184950e+003,3.748755e+001
1.185914e+003,3.838544e+001
1.186879e+003,4.410834e+001
1.187843e+003,5.029828e+001
1.188807e+003,5.337378e+001
1.189771e+003,5.333069e+001
1.190736e+003,4.964093e+001
1.191700e+003,4.162311e+001
1.192664e+003,3.716974e+001
1.193628e+003,3.908258e+001
1.194593e+003,4.230573e+001
1.195557e+003,4.345233e+001
1.196521e+003,4.290210e+001
1.197485e+003,4.215509e+001
1.198449e+003,4.153308e+001
1.199414e+003,4.056219e+001
1.200378e+003,3.778528e+001
1.201342e+003,3.575476e+001
1.202306e+003,3.636597e+001
1.203271e+003,3.882123e+001
1.204235e+003,4.163721e+001
1.205199e+003,4.400122e+001
1.206163e+003,4.574341e+001
1.207128e+003,4.647125e+001
1.208092e+003,4.617334e+001
1.209056e+003,4.503363e+001
1.210020e+003,4.246216e+001
1.210984e+003,4.040253e+001
1.211949e+003,3.928802e+001
1.212913e+003,3.890717e+001
1.213877e+003,3.956262e+001
1.214841e+003,4.128027e+001
1.215806e+003,4.202148e+001
1.216770e+003,4.021893e+001
1.217734e+003,3.832941e+001
1.218698e+003,3.773517e+001
1.219663e+003,3.792255e+001
1.220627e+003,3.890717e+001
1.221591e+003,4.025647e+001
1.222555e+003,4.030878e+001
1.223520e+003,3.747308e+001
1.224484e+003,3.298889e+001
1.225448e+003,3.218146e+001
1.226412e+003,3.768420e+001
1.227376e+003,4.085852e+001
1.228341e+003,3.997845e+001
1.229305e+003,3.856360e+001
1.230269e+003,3.879486e+001
1.231233e+003,3.972534e+001
1.232198e+003,3.888654e+001
1.233162e+003,3.564471e+001
1.234126e+003,3.373224e+001
1.235090e+003,3.697418e+001
1.236055e+003,4.131366e+001
1.237019e+003,4.234766e+001
1.237983e+003,4.078162e+001
1.238947e+003,3.907343e+001
1.239911e+003,3.842078e+001
1.240876e+003,3.814764e+001
1.241840e+003,3.701740e+001
1.242804e+003,3.497943e+001
1.243768e+003,3.342169e+001
1.244733e+003,3.150000e+001
1.245697e+003,3.141956e+001
1.246661e+003,3.459070e+001
1.247625e+003,3.791302e+001
1.248590e+003,3.904382e+001
1.249554e+003,3.867462e+001
1.250518e+003,3.923022e+001
1.251482e+003,4.173425e+001
1.252447e+003,4.400055e+001
1.253411e+003,4.339764e+001
1.254375e+003,4.116888e+001
1.255339e+003,3.921002e+001
1.256303e+003,3.785223e+001
1.257268e+003,3.849243e+001
1.258232e+003,4.271735e+001
1.259196e+003,4.751184e+001
1.260160e+003,4.607758e+001
1.261125e+003,3.696625e+001
1.262089e+003,3.267194e+001
1.263053e+003,3.958191e+001
1.264017e+003,4.443842e+001
1.264982e+003,4.246570e+001
1.265946e+003,3.856067e+001
1.266910e+003,3.730939e+001
1.267874e+003,3.895660e+001
1.268839e+003,4.130151e+001
1.269803e+003,4.293829e+001
1.270767e+003,4.362885e+001
1.271731e+003,4.248071e+001
1.272695e+003,3.979437e+001
1.273660e+003,3.923328e+001
1.274624e+003,4.119897e+001
1.275588e+003,4.302167e+001
1.276552e+003,4.332477e+001
1.277517e+003,4.309174e+001
1.278481e+003,4.420770e+001
1.279445e+003,4.686426e+001
1.280409e+003,4.786450e+001
1.281374e+003,4.457092e+001
1.282338e+003,4.166675e+001
1.283302e+003,4.202155e+001
1.284266e+003,4.368445e+001
1.285230e+003,4.436578e+001
1.286195e+003,4.376025e+001
1.287159e+003,4.330011e+001
1.288123e+003,4.430371e+001
1.289087e+003,4.614667e+001
1.290052e+003,4.623553e+001
1.291016e+003,4.369208e+001
1.291980e+003,4.145618e+001
1.292944e+003,3.897699e+001
1.293909e+003,3.688104e+001
1.294873e+003,3.555664e+001
1.295837e+003,3.518695e+001
1.296801e+003,3.659863e+001
1.297766e+003,3.960077e+001
1.298730e+003,4.104370e+001
1.299694e+003,3.844354e+001
1.300658e+003,3.468024e+001
1.301622e+003,3.228693e+001
1.302587e+003,3.145630e+001
1.303551e+003,3.316620e+001
1.304515e+003,3.740289e+001
1.305479e+003,4.170605e+001
1.306444e+003,4.398810e+001
1.307408e+003,4.450513e+001
1.308372e+003,4.448547e+001
1.309336e+003,4.377264e+001
1.310301e+003,4.290668e+001
1.311265e+003,4.138403e+001
1.312229e+003,4.075256e+001
1.313193e+003,4.218304e+001
1.314157e+003,4.411633e+001
1.315122e+003,4.489539e+001
1.316086e+003,4.429224e+001
1.317050e+003,4.306403e+001
1.318014e+003,4.178784e+001
1.318979e+003,4.087335e+001
1.319943e+003,4.090082e+001
1.320907e+003,4.194843e+001
1.321871e+003,4.319653e+001
1.322836e+003,4.428912e+001
1.323800e+003,4.517847e+001
1.324764e+003,4.640320e+001
1.325728e+003,4.725659e+001
1.326693e+003,4.588947e+001
1.327657e+003,4.203076e+001
1.328621e+003,3.908276e+001
1.329585e+003,3.919208e+001
1.330549e+003,4.010480e+001
1.331514e+003,3.942010e+001
1.332478e+003,3.838727e+001
1.333442e+003,3.888043e+001
1.334406e+003,4.067896e+001
1.335371e+003,4.187372e+001
1.336335e+003,4.133630e+001
1.337299e+003,4.034894e+001
1.338263e+003,4.144208e+001
1.339228e+003,4.519403e+001
1.340192e+003,4.562366e+001
1.341156e+003,3.859387e+001
1.342120e+003,3.450793e+001
1.343084e+003,3.694812e+001
1.344049e+003,4.037726e+001
1.345013e+003,4.012695e+001
1.345977e+003,3.733118e+001
1.346941e+003,3.610474e+001
1.347906e+003,3.794116e+001
1.348870e+003,4.076019e+001
1.349834e+003,4.293976e+001
1.350798e+003,4.434656e+001
1.351763e+003,4.540942e+001
1.352727e+003,4.610809e+001
1.353691e+003,4.559271e+001
1.354655e+003,4.323267e+001
1.355620e+003,4.085883e+001
1.356584e+003,4.121997e+001
1.357548e+003,4.396832e+001
1.358512e+003,4.487805e+001
1.359476e+003,4.290912e+001
1.360441e+003,4.029578e+001
1.361405e+003,3.580475e+001
1.362369e+003,3.309167e+001
1.363333e+003,3.548083e+001
1.364298e+003,4.009729e+001
1.365262e+003,4.289154e+001
1.366226e+003,4.292993e+001
1.367190e+003,4.207300e+001
1.368155e+003,4.195709e+001
1.369119e+003,4.247845e+001
1.370083e+003,4.340637e+001
1.371047e+003,4.504083e+001
1.372011e+003,4.661487e+001
1.372976e+003,4.840295e+001
1.373940e+003,4.906323e+001
1.374904e+003,4.740186e+001
1.375868e+003,4.508978e+001
1.376833e+003,4.400751e+001
1.377797e+003,4.421887e+001
1.378761e+003,4.519110e+001
1.379725e+003,4.719495e+001
1.380690e+003,4.862573e+001
1.381654e+003,4.732257e+001
1.382618e+003,4.477228e+001
1.383582e+003,4.264252e+001
1.384547e+003,4.110559e+001
1.385511e+003,4.004761e+001
1.386475e+003,3.918353e+001
1.387439e+003,3.903766e+001
1.388403e+003,4.115680e+001
1.389368e+003,4.549164e+001
1.390332e+003,4.757257e+001
1.391296e+003,4.654437e+001
1.392260e+003,4.514307e+001
1.393225e+003,4.382642e+001
1.394189e+003,4.238190e+001
1.395153e+003,4.022754e+001
1.396117e+003,3.809283e+001
1.397082e+003,3.739563e+001
1.398046e+003,3.831567e+001
1.399010e+003,3.930273e+001
1.399974e+003,3.872473e+001
1.400938e+003,3.680847e+001
1.401903e+003,3.523724e+001
1.402867e+003,3.465759e+001
1.403831e+003,3.606158e+001
1.404795e+003,4.043274e+001
1.405760e+003,4.453668e+001
1.406724e+003,4.706000e+001
1.407688e+003,4.777417e+001
1.408652e+003,4.639703e+001
1.409617e+003,4.379510e+001
1.410581e+003,4.234662e+001
1.411545e+003,4.309839e+001
1.412509e+003,4.451300e+001
1.413474e+003,4.490802e+001
1.414438e+003,4.459729e+001
1.415402e+003,4.488037e+001
1.416366e+003,4.592261e+001
1.417330e+003,4.689758e+001
1.418295e+003,4.755365e+001
1.419259e+003,4.781274e+001
1.420223e+003,4.721588e+001
1.421187e+003,4.572498e+001
1.422152e+003,4.432495e+001
1.423116e+003,4.319019e+001
1.424080e+003,4.291193e+001
1.425044e+003,4.429901e+001
1.426009e+003,4.520685e+001
1.426973e+003,4.445221e+001
1.427937e+003,4.286713e+001
1.428901e+003,4.120508e+001
1.429865e+003,4.002069e+001
1.430830e+003,4.011981e+001
1.431794e+003,4.183569e+001
1.432758e+003,4.391870e+001
1.433722e+003,4.421539e+001
1.434687e+003,4.296545e+001
1.435651e+003,4.336450e+001
1.436615e+003,4.523419e+001
1.437579e+003,4.674261e+001
1.438544e+003,4.868463e+001
1.439508e+003,4.955566e+001
1.440472e+003,4.784222e+001
1.441436e+003,4.493311e+001
1.442401e+003,4.310278e+001
1.443365e+003,4.279938e+001
1.444329e+003,4.314111e+001
1.445293e+003,4.368451e+001
1.446257e+003,4.435956e+001
1.447222e+003,4.469458e+001
1.448186e+003,4.478046e+001
1.449150e+003,4.567444e+001
1.450114e+003,4.790686e+001
1.451079e+003,4.868781e+001
1.452043e+003,4.497375e+001
1.453007e+003,4.059662e+001
1.453971e+003,4.151538e+001
1.454936e+003,4.679102e+001
1.455900e+003,4.972278e+001
1.456864e+003,4.857666e+001
1.457828e+003,4.687335e+001
1.458792e+003,4.580096e+001
1.459757e+003,4.532416e+001
1.460721e+003,4.611841e+001
1.461685e+003,4.731665e+001
1.462649e+003,4.698755e+001
1.463614e+003,4.493030e+001
1.464578e+003,4.327106e+001
1.465542e+003,4.383789e+001
1.466506e+003,4.579340e+001
1.467471e+003,4.735748e+001
1.468435e+003,4.921478e+001
1.469399e+003,4.920648e+001
1.470363e+003,4.440259e+001
1.471328e+003,4.089557e+001
1.472292e+003,4.061761e+001
1.473256e+003,4.083032e+001
1.474220e+003,3.932550e+001
1.475184e+003,3.754633e+001
1.476149e+003,3.903815e+001
1.477113e+003,4.402393e+001
1.478077e+003,4.771582e+001
1.479041e+003,4.564209e+001
1.480006e+003,3.991376e+001
1.480970e+003,3.674115e+001
1.481934e+003,3.587219e+001
1.482898e+003,3.756586e+001
1.483863e+003,4.540131e+001
1.484827e+003,5.031720e+001
1.485791e+003,4.799512e+001
1.486755e+003,4.400409e+001
1.487719e+003,4.347009e+001
1.488684e+003,4.531000e+001
1.489648e+003,4.544617e+001
1.490612e+003,4.278870e+001
1.491576e+003,4.057788e+001
1.492541e+003,4.149310e+001
1.493505e+003,4.401825e+001
1.494469e+003,4.492523e+001
1.495433e+003,4.415576e+001
1.496398e+003,4.333551e+001
1.497362e+003,4.299237e+001
1.498326e+003,4.331134e+001
1.499290e+003,4.411011e+001
1.500255e+003,4.570819e+001
1.501219e+003,4.956628e+001
1.502183e+003,5.477753e+001
1.503147e+003,5.625061e+001
1.504111e+003,5.212500e+001
1.505076e+003,4.813531e+001
1.506040e+003,4.771307e+001
1.507004e+003,4.890125e+001
1.507968e+003,4.982697e+001
1.508933e+003,5.064215e+001
1.509897e+003,5.180347e+001
1.510861e+003,5.372986e+001
1.511825e+003,5.679425e+001
1.512790e+003,6.133240e+001
1.513754e+003,6.582214e+001
1.514718e+003,6.724072e+001
1.515682e+003,6.544867e+001
1.516646e+003,6.513635e+001
1.517611e+003,6.785480e+001
1.518575e+003,7.022174e+001
1.519539e+003,7.122467e+001
1.520503e+003,7.200879e+001
1.521468e+003,7.285486e+001
1.522432e+003,7.368170e+001
1.523396e+003,7.483716e+001
1.524360e+003,7.589990e+001
1.525325e+003,7.525531e+001
1.526289e+003,7.191296e+001
1.527253e+003,6.748621e+001
1.528217e+003,6.470319e+001
1.529182e+003,6.374976e+001
1.530146e+003,6.389600e+001
1.531110e+003,6.613666e+001
1.532074e+003,6.736017e+001
1.533039e+003,6.670764e+001
1.534003e+003,6.454309e+001
1.534967e+003,6.111224e+001
1.535931e+003,5.723950e+001
1.536896e+003,5.295532e+001
1.537860e+003,4.894403e+001
1.538824e+003,4.712024e+001
1.539788e+003,4.811261e+001
1.540752e+003,4.890564e+001
1.541717e+003,4.555939e+001
1.542681e+003,3.940454e+001
1.543645e+003,3.819757e+001
1.544609e+003,4.526691e+001
1.545573e+003,4.973621e+001
1.546538e+003,4.947266e+001
1.547502e+003,4.854370e+001
1.548466e+003,4.857721e+001
1.549430e+003,4.938086e+001
1.550395e+003,5.120502e+001
1.551359e+003,5.303595e+001
1.552323e+003,5.213440e+001
1.553287e+003,4.784119e+001
1.554252e+003,4.395435e+001
1.555216e+003,4.385022e+001
1.556180e+003,4.610248e+001
1.557144e+003,4.783002e+001
1.558109e+003,4.911646e+001
1.559073e+003,4.883289e+001
1.560037e+003,4.505676e+001
1.561001e+003,4.261713e+001
1.561966e+003,4.551685e+001
1.562930e+003,4.909424e+001
1.563894e+003,4.791016e+001
1.564858e+003,4.379456e+001
1.565823e+003,4.207062e+001
1.566787e+003,4.362421e+001
1.567751e+003,4.506622e+001
1.568715e+003,4.447180e+001
1.569679e+003,4.356091e+001
1.570644e+003,4.446472e+001
1.571608e+003,4.637262e+001
1.572572e+003,4.792285e+001
1.573536e+003,4.932709e+001
1.574500e+003,4.911987e+001
1.575465e+003,4.531256e+001
1.576429e+003,4.185468e+001
1.577393e+003,4.246240e+001
1.578357e+003,4.520905e+001
1.579322e+003,4.685443e+001
1.580286e+003,4.723895e+001
1.581250e+003,4.644415e+001
1.582214e+003,4.406543e+001
1.583179e+003,4.204645e+001
1.584143e+003,4.167670e+001
1.585107e+003,4.225543e+001
1.586071e+003,4.373877e+001
1.587036e+003,4.595190e+001
1.588000e+003,4.705023e+001
1.588964e+003,4.633789e+001
1.589928e+003,4.532684e+001
1.590893e+003,4.501892e+001
1.591857e+003,4.509406e+001
1.592821e+003,4.487262e+001
1.593785e+003,4.461090e+001
1.594750e+003,4.575354e+001
1.595714e+003,4.866547e+001
1.596678e+003,5.070691e+001
1.597642e+003,5.082220e+001
1.598606e+003,4.980426e+001
1.599571e+003,4.731061e+001
1.600535e+003,4.492828e+001
1.601499e+003,4.525879e+001
1.602463e+003,4.773871e+001
1.603427e+003,4.881421e+001
1.604392e+003,4.681750e+001
1.605356e+003,4.514014e+001
1.606320e+003,4.843610e+001
1.607284e+003,5.434869e+001
1.608249e+003,5.544116e+001
1.609213e+003,5.150232e+001
1.610177e+003,4.936633e+001
1.611141e+003,5.092810e+001
1.612106e+003,5.244232e+001
1.613070e+003,5.216229e+001
1.614034e+003,5.102112e+001
1.614998e+003,4.869043e+001
1.615963e+003,4.639087e+001
1.616927e+003,4.632086e+001
1.617891e+003,4.850214e+001
1.618855e+003,5.092859e+001
1.619820e+003,5.242255e+001
1.620784e+003,5.252771e+001
1.621748e+003,5.038055e+001
1.622712e+003,4.702472e+001
1.623677e+003,4.663965e+001
1.624641e+003,5.004358e+001
1.625605e+003,5.187445e+001
1.626569e+003,4.897998e+001
1.627533e+003,4.603601e+001
1.628498e+003,4.566650e+001
1.629462e+003,4.664154e+001
1.630426e+003,4.870081e+001
1.631390e+003,5.089734e+001
1.632354e+003,5.128448e+001
1.633319e+003,4.955560e+001
1.634283e+003,4.766852e+001
1.635247e+003,4.691125e+001
1.636211e+003,4.710028e+001
1.637176e+003,4.870404e+001
1.638140e+003,5.164740e+001
1.639104e+003,5.213885e+001
1.640068e+003,4.898175e+001
1.641033e+003,4.696582e+001
1.641997e+003,4.787769e+001
1.642961e+003,4.965948e+001
1.643925e+003,5.242676e+001
1.644890e+003,5.452753e+001
1.645854e+003,5.359497e+001
1.646818e+003,5.060327e+001
1.647782e+003,4.825134e+001
1.648747e+003,4.739197e+001
1.649711e+003,4.754602e+001
1.650675e+003,4.880713e+001
1.651639e+003,5.038550e+001
1.652604e+003,4.989917e+001
1.653568e+003,4.727325e+001
1.654532e+003,4.560773e+001
1.655496e+003,4.544220e+001
1.656460e+003,4.482965e+001
1.657425e+003,4.212610e+001
1.658389e+003,4.065613e+001
1.659353e+003,4.363330e+001
1.660317e+003,4.752966e+001
1.661281e+003,4.852081e+001
1.662246e+003,4.689441e+001
1.663210e+003,4.456458e+001
1.664174e+003,4.235718e+001
1.665138e+003,4.101501e+001
1.666103e+003,4.124597e+001
1.667067e+003,4.214838e+001
1.668031e+003,4.193488e+001
1.668995e+003,4.080627e+001
1.669960e+003,4.075439e+001
1.670924e+003,4.233728e+001
1.671888e+003,4.359314e+001
1.672852e+003,4.352728e+001
1.673817e+003,4.319800e+001
1.674781e+003,4.302985e+001
1.675745e+003,4.308691e+001
1.676709e+003,4.395807e+001
1.677674e+003,4.507190e+001
1.678638e+003,4.446979e+001
1.679602e+003,4.157916e+001
1.680566e+003,3.876569e+001
1.681531e+003,3.804321e+001
1.682495e+003,3.865887e+001
1.683459e+003,3.935486e+001
1.684423e+003,3.981964e+001
1.685387e+003,3.887689e+001
1.686352e+003,3.620715e+001
1.687316e+003,3.494708e+001
1.688280e+003,3.687476e+001
1.689244e+003,3.893695e+001
1.690208e+003,3.881830e+001
1.691173e+003,3.748547e+001
1.692137e+003,3.519330e+001
1.693101e+003,3.294562e+001
1.694065e+003,3.353357e+001
1.695030e+003,3.748859e+001
1.695994e+003,4.032574e+001
1.696958e+003,3.855774e+001
1.697922e+003,3.550610e+001
1.698887e+003,3.585504e+001
1.699851e+003,3.831732e+001
1.700815e+003,3.827838e+001
1.701779e+003,3.526678e+001
1.702744e+003,3.317871e+001
1.703708e+003,3.385626e+001
1.704672e+003,3.462817e+001
1.705636e+003,3.260242e+001
1.706601e+003,2.969061e+001
1.707565e+003,2.943213e+001
1.708529e+003,3.132385e+001
1.709493e+003,3.337610e+001
1.710458e+003,3.543005e+001
1.711422e+003,3.650616e+001
1.712386e+003,3.631335e+001
1.713350e+003,3.539081e+001
1.714314e+003,3.316937e+001
1.715279e+003,3.046844e+001
1.716243e+003,2.866711e+001
1.717207e+003,2.802161e+001
1.718171e+003,2.925525e+001
1.719135e+003,3.262573e+001
1.720100e+003,3.545874e+001
1.721064e+003,3.582465e+001
1.722028e+003,3.465350e+001
1.722992e+003,3.331213e+001
1.723957e+003,3.218079e+001
1.724921e+003,3.158820e+001
1.725885e+003,3.111682e+001
1.726849e+003,3.023291e+001
1.727814e+003,2.886932e+001
1.728778e+003,2.824750e+001
1.729742e+003,2.938184e+001
1.730706e+003,3.081610e+001
1.731671e+003,3.072314e+001
1.732635e+003,2.935144e+001
1.733599e+003,2.817657e+001
1.734563e+003,2.772528e+001
1.735528e+003,2.711890e+001
1.736492e+003,2.575415e+001
1.737456e+003,2.515643e+001
1.738420e+003,2.736627e+001
1.739385e+003,3.107306e+001
1.740349e+003,3.235236e+001
1.741313e+003,3.098254e+001
1.742277e+003,2.950287e+001
1.743241e+003,2.726733e+001
1.744206e+003,2.644489e+001
1.745170e+003,2.878571e+001
1.746134e+003,3.055402e+001
1.747098e+003,2.875262e+001
1.748063e+003,2.591779e+001
1.749027e+003,2.504126e+001
1.749991e+003,2.604553e+001
1.750955e+003,2.771985e+001
1.751919e+003,2.928857e+001
1.752884e+003,2.967487e+001
1.753848e+003,2.794952e+001
1.754812e+003,2.535022e+001
1.755776e+003,2.466193e+001
1.756741e+003,2.609167e+001
1.757705e+003,2.724115e+001
1.758669e+003,2.772369e+001
1.759633e+003,2.830774e+001
1.760598e+003,2.965881e+001
1.761562e+003,2.972083e+001
1.762526e+003,2.728754e+001
1.763490e+003,2.462341e+001
1.764455e+003,2.309570e+001
1.765419e+003,2.259753e+001
1.766383e+003,2.269452e+001
1.767347e+003,2.308234e+001
1.768312e+003,2.373840e+001
1.769276e+003,2.458655e+001
1.770240e+003,2.466132e+001
1.771204e+003,2.303656e+001
1.772168e+003,2.080951e+001
1.773133e+003,1.991547e+001
1.774097e+003,2.019244e+001
1.775061e+003,2.016028e+001
1.776025e+003,1.934100e+001
1.776990e+003,1.815546e+001
1.777954e+003,1.660107e+001
1.778918e+003,1.610858e+001
1.779882e+003,1.803564e+001
1.780846e+003,2.077527e+001
1.781811e+003,2.285199e+001
1.782775e+003,2.424719e+001
1.783739e+003,2.433777e+001
1.784703e+003,2.297217e+001
1.785668e+003,2.238605e+001
1.786632e+003,2.400726e+001
1.787596e+003,2.521545e+001
1.788560e+003,2.455383e+001
1.789525e+003,2.284235e+001
1.790489e+003,1.963782e+001
1.791453e+003,1.599414e+001
1.792417e+003,1.584576e+001
1.793382e+003,1.964294e+001
1.794346e+003,2.302777e+001
1.795310e+003,2.368066e+001
1.796274e+003,2.265588e+001
1.797239e+003,2.117218e+001
1.798203e+003,1.976892e+001
1.799167e+003,1.883514e+001
1.800131e+003,1.752820e+001
1.801095e+003,1.789429e+001
1.802060e+003,2.304968e+001
1.803024e+003,2.597113e+001
1.803988e+003,2.440015e+001
1.804952e+003,2.197308e+001
1.805917e+003,1.965527e+001
1.806881e+003,1.792377e+001
1.807845e+003,1.757922e+001
1.808809e+003,1.813617e+001
1.809773e+003,1.843811e+001
1.810738e+003,1.825665e+001
1.811702e+003,1.830591e+001
1.812666e+003,1.899207e+001
1.813630e+003,1.977350e+001
1.814595e+003,1.989044e+001
1.815559e+003,1.945569e+001
1.816523e+003,1.929370e+001
1.817487e+003,1.949603e+001
1.818452e+003,1.997705e+001
1.819416e+003,2.159454e+001
1.820380e+003,2.173120e+001
1.821344e+003,1.750452e+001
1.822309e+003,1.409772e+001
1.823273e+003,1.584827e+001
1.824237e+003,1.928412e+001
1.825201e+003,2.078577e+001
1.826166e+003,2.073926e+001
1.827130e+003,2.101959e+001
1.828094e+003,2.181598e+001
1.829058e+003,2.152606e+001
1.830022e+003,1.872882e+001
1.830987e+003,1.658813e+001
1.831951e+003,1.897913e+001
1.832915e+003,2.271545e+001
1.833879e+003,2.285583e+001
1.834844e+003,2.028625e+001
1.835808e+003,1.804242e+001
1.836772e+003,1.677972e+001
1.837736e+003,1.663208e+001
1.838700e+003,1.755865e+001
1.839665e+003,1.837201e+001
1.840629e+003,1.808179e+001
1.841593e+003,1.729169e+001
1.842557e+003,1.709857e+001
1.843522e+003,1.746948e+001
1.844486e+003,1.715295e+001
1.845450e+003,1.535449e+001
1.846414e+003,1.524445e+001
1.847379e+003,1.749951e+001
1.848343e+003,1.945313e+001
1.849307e+003,2.183417e+001
1.850271e+003,2.245795e+001
1.851236e+003,1.791174e+001
1.852200e+003,1.215021e+001
1.853164e+003,1.036682e+001
1.854128e+003,1.218018e+001
1.855093e+003,1.449353e+001
1.856057e+003,1.626196e+001
1.857021e+003,1.819061e+001
1.857985e+003,2.092542e+001
1.858949e+003,2.285712e+001
1.859914e+003,2.015088e+001
1.860878e+003,1.416510e+001
1.861842e+003,1.268750e+001
1.862806e+003,1.577917e+001
1.863771e+003,1.737854e+001
1.864735e+003,1.598608e+001
1.865699e+003,1.484631e+001
1.866663e+003,1.584698e+001
1.867627e+003,1.717236e+001
1.868592e+003,1.685382e+001
1.869556e+003,1.543555e+001
1.870520e+003,1.443823e+001
1.871484e+003,1.377917e+001
1.872449e+003,1.315131e+001
1.873413e+003,1.337677e+001
1.874377e+003,1.390234e+001
1.875341e+003,1.328021e+001
1.876306e+003,1.303577e+001
1.877270e+003,1.476642e+001
1.878234e+003,1.635315e+001
1.879198e+003,1.521368e+001
1.880163e+003,1.276367e+001
1.881127e+003,1.179614e+001
1.882091e+003,1.256903e+001
1.883055e+003,1.395074e+001
1.884020e+003,1.524384e+001
1.884984e+003,1.529987e+001
1.885948e+003,1.299133e+001
1.886912e+003,1.028961e+001
1.887876e+003,1.164532e+001
1.888841e+003,1.654352e+001
1.889805e+003,1.775531e+001
1.890769e+003,1.438245e+001
1.891733e+003,1.219409e+001
1.892698e+003,1.181885e+001
1.893662e+003,1.183636e+001
1.894626e+003,1.230554e+001
1.895590e+003,1.257489e+001
1.896554e+003,1.164703e+001
1.897519e+003,1.097278e+001
1.898483e+003,1.259979e+001
1.899447e+003,1.551404e+001
1.900411e+003,1.696271e+001
1.901376e+003,1.655548e+001
1.902340e+003,1.578345e+001
1.903304e+003,1.528870e+001
1.904268e+003,1.430890e+001
1.905233e+003,1.112897e+001
1.906197e+003,8.651123e+000
1.907161e+003,1.147559e+001
1.908125e+003,1.651758e+001
1.909090e+003,1.743939e+001
1.910054e+003,1.429010e+001
1.911018e+003,1.115729e+001
1.911982e+003,9.741577e+000
1.912947e+003,9.656311e+000
1.913911e+003,1.052429e+001
1.914875e+003,1.163464e+001
1.915839e+003,1.172577e+001
1.916803e+003,1.085541e+001
1.917768e+003,1.057739e+001
1.918732e+003,1.122931e+001
1.919696e+003,1.176001e+001
1.920660e+003,1.258466e+001
1.921625e+003,1.252734e+001
1.922589e+003,1.042578e+001
1.923553e+003,8.439514e+000
1.924517e+003,7.221863e+000
1.925481e+003,7.149353e+000
1.926446e+003,9.799927e+000
1.927410e+003,1.339642e+001
1.928374e+003,1.410895e+001
1.929338e+003,1.170215e+001
1.930303e+003,9.291321e+000
1.931267e+003,7.784851e+000
1.932231e+003,7.395996e+000
1.933195e+003,8.694763e+000
1.934160e+003,9.907227e+000
1.935124e+003,9.898987e+000
1.936088e+003,8.777771e+000
1.937052e+003,6.058594e+000
1.938017e+003,3.140625e+000
1.938981e+003,2.965271e+000
1.939945e+003,5.351257e+000
1.940909e+003,7.141174e+000
1.941874e+003,6.885071e+000
1.942838e+003,6.317200e+000
1.943802e+003,7.334961e+000
1.944766e+003,9.341309e+000
1.945730e+003,1.055884e+001
1.946695e+003,1.086804e+001
1.947659e+003,1.103497e+001
1.948623e+003,1.100421e+001
1.949587e+003,1.053839e+001
1.950552e+003,9.718994e+000
1.951516e+003,8.622192e+000
1.952480e+003,6.787598e+000
1.953444e+003,5.707764e+000
1.954408e+003,6.884094e+000
1.955373e+003,8.555237e+000
1.956337e+003,8.374084e+000
1.957301e+003,7.226074e+000
1.958265e+003,7.138794e+000
1.959230e+003,8.284485e+000
1.960194e+003,9.773315e+000
1.961158e+003,1.214612e+001
1.962122e+003,1.280603e+001
1.963087e+003,9.395813e+000
1.964051e+003,6.319885e+000
1.965015e+003,7.129578e+000
1.965979e+003,9.153442e+000
1.966944e+003,9.066956e+000
1.967908e+003,7.667236e+000
1.968872e+003,7.637573e+000
1.969836e+003,8.948120e+000
1.970801e+003,8.953247e+000
1.971765e+003,6.649841e+000
1.972729e+003,4.306946e+000
1.973693e+003,3.890442e+000
1.974657e+003,4.210083e+000
1.975622e+003,2.904297e+000
1.976586e+003,9.237671e-001
1.977550e+003,1.646545e+000
1.978514e+003,4.668457e+000
1.979479e+003,6.776123e+000
1.980443e+003,7.437317e+000
1.981407e+003,7.764709e+000
1.982371e+003,8.315247e+000
1.983335e+003,7.931030e+000
1.984300e+003,5.251770e+000
1.985264e+003,2.569885e+000
1.986228e+003,3.962097e+000
1.987192e+003,8.274536e+000
1.988157e+003,9.405518e+000
1.989121e+003,6.594055e+000
1.990085e+003,5.219543e+000
1.991049e+003,6.861328e+000
1.992014e+003,7.093323e+000
1.992978e+003,3.646790e+000
1.993942e+003,7.700806e-001
1.994906e+003,2.540283e-001
1.995871e+003,4.794922e-001
1.996835e+003,9.509277e-002
1.997799e+003,0.000000e+000
1.998763e+003,1.715027e+000
1.999728e+003,4.742676e+000
