5.003444e+002,7.529356e+001
5.013087e+002,7.568652e+001
5.022729e+002,7.492313e+001
5.032371e+002,7.334625e+001
5.042014e+002,7.180973e+001
5.051656e+002,7.036363e+001
5.061298e+002,6.926981e+001
5.070941e+002,6.879750e+001
5.080583e+002,6.908948e+001
5.090225e+002,6.886863e+001
5.099868e+002,6.760844e+001
5.109510e+002,6.653472e+001
5.119152e+002,6.656711e+001
5.128795e+002,6.784705e+001
5.138437e+002,6.844146e+001
5.148079e+002,6.653281e+001
5.157722e+002,6.490466e+001
5.167364e+002,6.521005e+001
5.177006e+002,6.725652e+001
5.186649e+002,6.904781e+001
5.196291e+002,6.759547e+001
5.205933e+002,6.506893e+001
5.215576e+002,6.374112e+001
5.225218e+002,6.378532e+001
5.234860e+002,6.454327e+001
5.244503e+002,6.495045e+001
5.254145e+002,6.501564e+001
5.263787e+002,6.495039e+001
5.273430e+002,6.457624e+001
5.283072e+002,6.419075e+001
5.292714e+002,6.427978e+001
5.302357e+002,6.526270e+001
5.311999e+002,6.542042e+001
5.321641e+002,6.440268e+001
5.331284e+002,6.300378e+001
5.340926e+002,6.159113e+001
5.350568e+002,6.020830e+001
5.360211e+002,5.928248e+001
5.369853e+002,6.000430e+001
5.379495e+002,6.104906e+001
5.389138e+002,6.117094e+001
5.398780e+002,5.992995e+001
5.408422e+002,5.791193e+001
5.418065e+002,5.670879e+001
5.427707e+002,5.621726e+001
5.437349e+002,5.579971e+001
5.446992e+002,5.522719e+001
5.456634e+002,5.464370e+001
5.466276e+002,5.460979e+001
5.475919e+002,5.628678e+001
5.485561e+002,5.710237e+001
5.495203e+002,5.607946e+001
5.504846e+002,5.436511e+001
5.514488e+002,5.386714e+001
5.524130e+002,5.613783e+001
5.533773e+002,5.771388e+001
5.543415e+002,5.635096e+001
5.553057e+002,5.380408e+001
5.562700e+002,5.163529e+001
5.572342e+002,5.080186e+001
5.581984e+002,5.110818e+001
5.591627e+002,5.313123e+001
5.601269e+002,5.596890e+001
5.610911e+002,5.715551e+001
5.620554e+002,5.526880e+001
5.630196e+002,5.074459e+001
5.639838e+002,4.784459e+001
5.649481e+002,4.726064e+001
5.659123e+002,4.725622e+001
5.668765e+002,4.796790e+001
5.678408e+002,4.921120e+001
5.688050e+002,5.041235e+001
5.697692e+002,5.200570e+001
5.707335e+002,5.228697e+001
5.716977e+002,5.014815e+001
5.726619e+002,4.678066e+001
5.736262e+002,4.348726e+001
5.745904e+002,4.099325e+001
5.755546e+002,3.972844e+001
5.765189e+002,4.045166e+001
5.774831e+002,4.235516e+001
5.784473e+002,4.425336e+001
5.794116e+002,4.536779e+001
5.803758e+002,4.582213e+001
5.813400e+002,4.638294e+001
5.823043e+002,4.723830e+001
5.832685e+002,4.743501e+001
5.842327e+002,4.634872e+001
5.851970e+002,4.427515e+001
5.861612e+002,4.279516e+001
5.871254e+002,4.256964e+001
5.880897e+002,4.236222e+001
5.890539e+002,4.187007e+001
5.900181e+002,4.120813e+001
5.909824e+002,4.062682e+001
5.919466e+002,4.029179e+001
5.929108e+002,4.017773e+001
5.938751e+002,4.029227e+001
5.948393e+002,4.051046e+001
5.958035e+002,4.051843e+001
5.967678e+002,4.011664e+001
5.977320e+002,3.952789e+001
5.986962e+002,4.082869e+001
5.996605e+002,4.408584e+001
6.006247e+002,4.628226e+001
6.015889e+002,4.540456e+001
6.025532e+002,4.174480e+001
6.035174e+002,3.953816e+001
6.044816e+002,4.008164e+001
6.054459e+002,4.089758e+001
6.064101e+002,4.215997e+001
6.073743e+002,4.337791e+001
6.083386e+002,4.368199e+001
6.093028e+002,4.216886e+001
6.102670e+002,4.060391e+001
6.112313e+002,4.039863e+001
6.121955e+002,4.095366e+001
6.131597e+002,4.155807e+001
6.141240e+002,4.171095e+001
6.150882e+002,4.144995e+001
6.160524e+002,4.099180e+001
6.170167e+002,4.041376e+001
6.179809e+002,3.938808e+001
6.189451e+002,3.736160e+001
6.199094e+002,3.460188e+001
6.208736e+002,3.348085e+001
6.218378e+002,3.602142e+001
6.228021e+002,3.818591e+001
6.237663e+002,3.981245e+001
6.247305e+002,4.084270e+001
6.256948e+002,4.106407e+001
6.266590e+002,3.988207e+001
6.276232e+002,3.882889e+001
6.285875e+002,3.908652e+001
6.295517e+002,3.991650e+001
6.305159e+002,4.065744e+001
6.314802e+002,4.088802e+001
6.324444e+002,4.057391e+001
6.334086e+002,3.917413e+001
6.343729e+002,3.718832e+001
6.353371e+002,3.597319e+001
6.363013e+002,3.606754e+001
6.372656e+002,3.711586e+001
6.382298e+002,3.792446e+001
6.391940e+002,3.839514e+001
6.401583e+002,3.862549e+001
6.411225e+002,3.863493e+001
6.420867e+002,3.856876e+001
6.430510e+002,3.865983e+001
6.440152e+002,3.911887e+001
6.449794e+002,3.885937e+001
6.459437e+002,3.655498e+001
6.469079e+002,3.399583e+001
6.478721e+002,3.291634e+001
6.488364e+002,3.374921e+001
6.498006e+002,3.502747e+001
6.507648e+002,3.367886e+001
6.517291e+002,3.072813e+001
6.526933e+002,2.872714e+001
6.536575e+002,2.816045e+001
6.546218e+002,2.852696e+001
6.555860e+002,2.885712e+001
6.565502e+002,2.891007e+001
6.575145e+002,2.953479e+001
6.584787e+002,3.106979e+001
6.594429e+002,3.283154e+001
6.604072e+002,3.450124e+001
6.613714e+002,3.611567e+001
6.623356e+002,3.691502e+001
6.632999e+002,3.542608e+001
6.642641e+002,3.389700e+001
6.652283e+002,3.402563e+001
6.661926e+002,3.557948e+001
6.671568e+002,3.674297e+001
6.681210e+002,3.495969e+001
6.690853e+002,3.143285e+001
6.700495e+002,2.959226e+001
6.710137e+002,2.945543e+001
6.719780e+002,3.003812e+001
6.729422e+002,3.030483e+001
6.739064e+002,3.014632e+001
6.748707e+002,3.014118e+001
6.758349e+002,3.060394e+001
6.767991e+002,3.079678e+001
6.777634e+002,3.010753e+001
6.787276e+002,2.878805e+001
6.796918e+002,2.831871e+001
6.806561e+002,3.013559e+001
6.816203e+002,3.181277e+001
6.825845e+002,3.234833e+001
6.835488e+002,3.211242e+001
6.845130e+002,3.174432e+001
6.854772e+002,3.168991e+001
6.864415e+002,3.204537e+001
6.874057e+002,3.327094e+001
6.883699e+002,3.487601e+001
6.893342e+002,3.555125e+001
6.902984e+002,3.448365e+001
6.912626e+002,3.208571e+001
6.922269e+002,3.105942e+001
6.931911e+002,3.285781e+001
6.941553e+002,3.429324e+001
6.951196e+002,3.514642e+001
6.960838e+002,3.537865e+001
6.970480e+002,3.480705e+001
6.980123e+002,3.293099e+001
6.989765e+002,3.155965e+001
6.999407e+002,3.113979e+001
7.009050e+002,3.152289e+001
7.018692e+002,3.306892e+001
7.028334e+002,3.564018e+001
7.037977e+002,3.811011e+001
7.047619e+002,3.863834e+001
7.057261e+002,3.777643e+001
7.066904e+002,3.624187e+001
7.076546e+002,3.414276e+001
7.086188e+002,3.201450e+001
7.095831e+002,3.075334e+001
7.105473e+002,3.072874e+001
7.115115e+002,3.032449e+001
7.124758e+002,2.889559e+001
7.134400e+002,2.773937e+001
7.144042e+002,2.758157e+001
7.153685e+002,2.848905e+001
7.163327e+002,3.014815e+001
7.172969e+002,3.390358e+001
7.182612e+002,3.702700e+001
7.192254e+002,3.846558e+001
7.201896e+002,3.828742e+001
7.211539e+002,3.668616e+001
7.221181e+002,3.360983e+001
7.230823e+002,3.001567e+001
7.240466e+002,2.844910e+001
7.250108e+002,2.857328e+001
7.259750e+002,2.919514e+001
7.269393e+002,2.963584e+001
7.279035e+002,2.980582e+001
7.288677e+002,2.959575e+001
7.298320e+002,2.835949e+001
7.307962e+002,2.787915e+001
7.317604e+002,2.863079e+001
7.327247e+002,3.008211e+001
7.336889e+002,3.168841e+001
7.346531e+002,3.355185e+001
7.356174e+002,3.418365e+001
7.365816e+002,3.212955e+001
7.375458e+002,2.949124e+001
7.385101e+002,2.771357e+001
7.394743e+002,2.723280e+001
7.404385e+002,2.758131e+001
7.414028e+002,2.825243e+001
7.423670e+002,2.895016e+001
7.433312e+002,2.888829e+001
7.442955e+002,2.801853e+001
7.452597e+002,2.741531e+001
7.462239e+002,2.856120e+001
7.471882e+002,3.228997e+001
7.481524e+002,3.385130e+001
7.491166e+002,3.124269e+001
7.500809e+002,2.894567e+001
7.510451e+002,2.923460e+001
7.520093e+002,3.136684e+001
7.529736e+002,3.223749e+001
7.539378e+002,2.940627e+001
7.549020e+002,2.674242e+001
7.558663e+002,2.683521e+001
7.568306e+002,2.853632e+001
7.577948e+002,3.035366e+001
7.587590e+002,3.132590e+001
7.597233e+002,3.160431e+001
7.606875e+002,3.170113e+001
7.616517e+002,3.167995e+001
7.626160e+002,3.137257e+001
7.635802e+002,3.058772e+001
7.645444e+002,2.967365e+001
7.655087e+002,2.939172e+001
7.664729e+002,3.012223e+001
7.674371e+002,3.062944e+001
7.684014e+002,3.096691e+001
7.693656e+002,3.098349e+001
7.703298e+002,3.017811e+001
7.712941e+002,2.870356e+001
7.722583e+002,2.800260e+001
7.732225e+002,2.994716e+001
7.741868e+002,3.234607e+001
7.751510e+002,3.359846e+001
7.761152e+002,3.379790e+001
7.770795e+002,3.351229e+001
7.780437e+002,3.322574e+001
7.790079e+002,3.289901e+001
7.799722e+002,3.226819e+001
7.809364e+002,3.131001e+001
7.819006e+002,3.041216e+001
7.828649e+002,2.992374e+001
7.838291e+002,2.969389e+001
7.847933e+002,2.898949e+001
7.857576e+002,2.691940e+001
7.867218e+002,2.572172e+001
7.876860e+002,2.626805e+001
7.886503e+002,2.748022e+001
7.896145e+002,2.846751e+001
7.905787e+002,2.899075e+001
7.915430e+002,2.957250e+001
7.925072e+002,3.109523e+001
7.934714e+002,3.262249e+001
7.944357e+002,3.315649e+001
7.953999e+002,3.272797e+001
7.963641e+002,3.179510e+001
7.973284e+002,3.079271e+001
7.982926e+002,2.967810e+001
7.992568e+002,2.962650e+001
8.002211e+002,3.101129e+001
8.011853e+002,3.217163e+001
8.021495e+002,3.270644e+001
8.031138e+002,3.275781e+001
8.040780e+002,3.248692e+001
8.050422e+002,3.164555e+001
8.060065e+002,3.065669e+001
8.069707e+002,2.916122e+001
8.079349e+002,2.780507e+001
8.088992e+002,2.728898e+001
8.098634e+002,2.785870e+001
8.108276e+002,2.911334e+001
8.117919e+002,3.081345e+001
8.127561e+002,3.246400e+001
8.137203e+002,3.334478e+001
8.146846e+002,3.344403e+001
8.156488e+002,3.287148e+001
8.166130e+002,3.155211e+001
8.175773e+002,2.910642e+001
8.185415e+002,2.812138e+001
8.195057e+002,2.934138e+001
8.204700e+002,3.064912e+001
8.214342e+002,3.170081e+001
8.223984e+002,3.230392e+001
8.233627e+002,3.195386e+001
8.243269e+002,2.998379e+001
8.252911e+002,2.805888e+001
8.262554e+002,2.684385e+001
8.272196e+002,2.628329e+001
8.281838e+002,2.651279e+001
8.291481e+002,2.745793e+001
8.301123e+002,2.868338e+001
8.310765e+002,2.945036e+001
8.320408e+002,2.972839e+001
8.330050e+002,2.986293e+001
8.339692e+002,2.991068e+001
8.349335e+002,2.974517e+001
8.358977e+002,2.900664e+001
8.368619e+002,2.750980e+001
8.378262e+002,2.714049e+001
8.387904e+002,2.914799e+001
8.397546e+002,3.078281e+001
8.407189e+002,3.116273e+001
8.416831e+002,3.077840e+001
8.426473e+002,3.069353e+001
8.436116e+002,3.152512e+001
8.445758e+002,3.214523e+001
8.455400e+002,3.063699e+001
8.465043e+002,2.845165e+001
8.474685e+002,2.726266e+001
8.484327e+002,2.761628e+001
8.493970e+002,2.917062e+001
8.503612e+002,3.135672e+001
8.513254e+002,3.441100e+001
8.522897e+002,3.556033e+001
8.532539e+002,3.348087e+001
8.542181e+002,3.137052e+001
8.551824e+002,3.148969e+001
8.561466e+002,3.359561e+001
8.571108e+002,3.500977e+001
8.580751e+002,3.446059e+001
8.590393e+002,3.368969e+001
8.600035e+002,3.303131e+001
8.609678e+002,3.270356e+001
8.619320e+002,3.297169e+001
8.628962e+002,3.389445e+001
8.638605e+002,3.507914e+001
8.648247e+002,3.594348e+001
8.657889e+002,3.661797e+001
8.667532e+002,3.754405e+001
8.677174e+002,3.877026e+001
8.686816e+002,3.973347e+001
8.696459e+002,3.972047e+001
8.706101e+002,3.858251e+001
8.715743e+002,3.789243e+001
8.725386e+002,3.781637e+001
8.735028e+002,3.793396e+001
8.744670e+002,3.812569e+001
8.754313e+002,3.834059e+001
8.763955e+002,3.856107e+001
8.773597e+002,3.879964e+001
8.783240e+002,3.914108e+001
8.792882e+002,3.961037e+001
8.802524e+002,4.015144e+001
8.812167e+002,4.082767e+001
8.821809e+002,4.158318e+001
8.831451e+002,4.221661e+001
8.841094e+002,4.246903e+001
8.850736e+002,4.239854e+001
8.860378e+002,4.236672e+001
8.870021e+002,4.228540e+001
8.879663e+002,4.235014e+001
8.889305e+002,4.281371e+001
8.898948e+002,4.351768e+001
8.908590e+002,4.372703e+001
8.918232e+002,4.306482e+001
8.927875e+002,4.256481e+001
8.937517e+002,4.217088e+001
8.947159e+002,4.219568e+001
8.956802e+002,4.316730e+001
8.966444e+002,4.496323e+001
8.976086e+002,4.649372e+001
8.985729e+002,4.659570e+001
8.995371e+002,4.591831e+001
9.005013e+002,4.539088e+001
9.014656e+002,4.511821e+001
9.024298e+002,4.526234e+001
9.033940e+002,4.594614e+001
9.043583e+002,4.701740e+001
9.053225e+002,4.773703e+001
9.062867e+002,4.817649e+001
9.072510e+002,4.795036e+001
9.082152e+002,4.642148e+001
9.091794e+002,4.480924e+001
9.101437e+002,4.435371e+001
9.111079e+002,4.525065e+001
9.120721e+002,4.644720e+001
9.130364e+002,4.761166e+001
9.140006e+002,4.852175e+001
9.149648e+002,4.905772e+001
9.159291e+002,4.933222e+001
9.168933e+002,4.957013e+001
9.178575e+002,4.988544e+001
9.188218e+002,5.003186e+001
9.197860e+002,4.904671e+001
9.207502e+002,4.684003e+001
9.217145e+002,4.541656e+001
9.226787e+002,4.550372e+001
9.236429e+002,4.637439e+001
9.246072e+002,4.724903e+001
9.255714e+002,4.827829e+001
9.265356e+002,4.818329e+001
9.274999e+002,4.520287e+001
9.284641e+002,4.270079e+001
9.294283e+002,4.222681e+001
9.303926e+002,4.303578e+001
9.313568e+002,4.374799e+001
9.323210e+002,4.368459e+001
9.332853e+002,4.290244e+001
9.342495e+002,4.047616e+001
9.352137e+002,3.758905e+001
9.361780e+002,3.669094e+001
9.371422e+002,3.830717e+001
9.381064e+002,4.037905e+001
9.390707e+002,3.988721e+001
9.400349e+002,3.608611e+001
9.409991e+002,3.432009e+001
9.419634e+002,3.556128e+001
9.429276e+002,3.722825e+001
9.438918e+002,3.922939e+001
9.448561e+002,4.108664e+001
9.458203e+002,4.206449e+001
9.467845e+002,4.192435e+001
9.477488e+002,4.121825e+001
9.487130e+002,3.970515e+001
9.496772e+002,3.824041e+001
9.506415e+002,3.746413e+001
9.516057e+002,3.744440e+001
9.525699e+002,3.818314e+001
9.535342e+002,3.973082e+001
9.544984e+002,4.171508e+001
9.554626e+002,4.058469e+001
9.564269e+002,3.564941e+001
9.573911e+002,3.203646e+001
9.583553e+002,3.193311e+001
9.593196e+002,3.353099e+001
9.602838e+002,3.388216e+001
9.612480e+002,3.255198e+001
9.622123e+002,3.121166e+001
9.631765e+002,2.982639e+001
9.641407e+002,2.908218e+001
9.651050e+002,2.972532e+001
9.660692e+002,3.119041e+001
9.670334e+002,3.239835e+001
9.679977e+002,3.271743e+001
9.689619e+002,3.255215e+001
9.699261e+002,3.219408e+001
9.708904e+002,3.185032e+001
9.718546e+002,3.258685e+001
9.728188e+002,3.471272e+001
9.737831e+002,3.757008e+001
9.747473e+002,4.074577e+001
9.757115e+002,4.470117e+001
9.766758e+002,4.648962e+001
9.776400e+002,4.450536e+001
9.786042e+002,4.243086e+001
9.795685e+002,4.105186e+001
9.805327e+002,3.999336e+001
9.814969e+002,3.849909e+001
9.824612e+002,3.636104e+001
9.834254e+002,3.475917e+001
9.843896e+002,3.595794e+001
9.853539e+002,3.748740e+001
9.863181e+002,3.617487e+001
9.872823e+002,3.228432e+001
9.882466e+002,2.831207e+001
9.892108e+002,2.645057e+001
9.901750e+002,2.647980e+001
9.911393e+002,2.620325e+001
9.921035e+002,2.507658e+001
9.930677e+002,2.415579e+001
9.940320e+002,2.358823e+001
9.949962e+002,2.328757e+001
9.959604e+002,2.325040e+001
9.969247e+002,2.346835e+001
9.978889e+002,2.368577e+001
9.988531e+002,2.356963e+001
9.998174e+002,2.351476e+001
1.000782e+003,2.374419e+001
1.001746e+003,2.429121e+001
1.002710e+003,2.539377e+001
1.003674e+003,2.701498e+001
1.004639e+003,2.847902e+001
1.005603e+003,2.855637e+001
1.006567e+003,2.705273e+001
1.007531e+003,2.558251e+001
1.008495e+003,2.402173e+001
1.009460e+003,2.273322e+001
1.010424e+003,2.176455e+001
1.011388e+003,2.124014e+001
1.012352e+003,2.188039e+001
1.013317e+003,2.495657e+001
1.014281e+003,2.661646e+001
1.015245e+003,2.457227e+001
1.016209e+003,2.190704e+001
1.017174e+003,2.107424e+001
1.018138e+003,2.201012e+001
1.019102e+003,2.282139e+001
1.020066e+003,2.193842e+001
1.021031e+003,2.005662e+001
1.021995e+003,1.897435e+001
1.022959e+003,1.849167e+001
1.023923e+003,1.827949e+001
1.024887e+003,1.831532e+001
1.025852e+003,1.839915e+001
1.026816e+003,1.814990e+001
1.027780e+003,1.744329e+001
1.028744e+003,1.723647e+001
1.029709e+003,1.839161e+001
1.030673e+003,1.909702e+001
1.031637e+003,1.826518e+001
1.032601e+003,1.684636e+001
1.033566e+003,1.629502e+001
1.034530e+003,1.712033e+001
1.035494e+003,1.835597e+001
1.036458e+003,1.924440e+001
1.037422e+003,1.956889e+001
1.038387e+003,1.840866e+001
1.039351e+003,1.604899e+001
1.040315e+003,1.492236e+001
1.041279e+003,1.714255e+001
1.042244e+003,2.174507e+001
1.043208e+003,2.374245e+001
1.044172e+003,2.110892e+001
1.045136e+003,1.900880e+001
1.046101e+003,1.764928e+001
1.047065e+003,1.678355e+001
1.048029e+003,1.645913e+001
1.048993e+003,1.648742e+001
1.049958e+003,1.618595e+001
1.050922e+003,1.484292e+001
1.051886e+003,1.425471e+001
1.052850e+003,1.757973e+001
1.053814e+003,2.204391e+001
1.054779e+003,2.387349e+001
1.055743e+003,2.234839e+001
1.056707e+003,1.931534e+001
1.057671e+003,1.690833e+001
1.058636e+003,1.511636e+001
1.059600e+003,1.442915e+001
1.060564e+003,1.585971e+001
1.061528e+003,1.701128e+001
1.062493e+003,1.726408e+001
1.063457e+003,1.718126e+001
1.064421e+003,1.748261e+001
1.065385e+003,1.826412e+001
1.066349e+003,1.886800e+001
1.067314e+003,1.899607e+001
1.068278e+003,1.877514e+001
1.069242e+003,1.813066e+001
1.070206e+003,1.732520e+001
1.071171e+003,1.662065e+001
1.072135e+003,1.615440e+001
1.073099e+003,1.608679e+001
1.074063e+003,1.679424e+001
1.075028e+003,1.842576e+001
1.075992e+003,1.912658e+001
1.076956e+003,1.841518e+001
1.077920e+003,1.767383e+001
1.078885e+003,1.751088e+001
1.079849e+003,1.769247e+001
1.080813e+003,1.767552e+001
1.081777e+003,1.730625e+001
1.082741e+003,1.725153e+001
1.083706e+003,1.814124e+001
1.084670e+003,1.906860e+001
1.085634e+003,1.964725e+001
1.086598e+003,1.985132e+001
1.087563e+003,1.983936e+001
1.088527e+003,1.970218e+001
1.089491e+003,1.920457e+001
1.090455e+003,1.764301e+001
1.091420e+003,1.481857e+001
1.092384e+003,1.322035e+001
1.093348e+003,1.303117e+001
1.094312e+003,1.356824e+001
1.095276e+003,1.513949e+001
1.096241e+003,1.718671e+001
1.097205e+003,1.765065e+001
1.098169e+003,1.556867e+001
1.099133e+003,1.387602e+001
1.100098e+003,1.381612e+001
1.101062e+003,1.436771e+001
1.102026e+003,1.512778e+001
1.102990e+003,1.595186e+001
1.103955e+003,1.690975e+001
1.104919e+003,1.801604e+001
1.105883e+003,1.878829e+001
1.106847e+003,1.802407e+001
1.107812e+003,1.569341e+001
1.108776e+003,1.421680e+001
1.109740e+003,1.395155e+001
1.110704e+003,1.400459e+001
1.111668e+003,1.378264e+001
1.112633e+003,1.341531e+001
1.113597e+003,1.338742e+001
1.114561e+003,1.401457e+001
1.115525e+003,1.420784e+001
1.116490e+003,1.285124e+001
1.117454e+003,1.172023e+001
1.118418e+003,1.258369e+001
1.119382e+003,1.470804e+001
1.120347e+003,1.587329e+001
1.121311e+003,1.467822e+001
1.122275e+003,1.225940e+001
1.123239e+003,1.087373e+001
1.124203e+003,1.063161e+001
1.125168e+003,1.157839e+001
1.126132e+003,1.448354e+001
1.127096e+003,1.665005e+001
1.128060e+003,1.511459e+001
1.129025e+003,1.087757e+001
1.129989e+003,9.024406e+000
1.130953e+003,1.102695e+001
1.131917e+003,1.279221e+001
1.132882e+003,1.328070e+001
1.133846e+003,1.322856e+001
1.134810e+003,1.275065e+001
1.135774e+003,1.215932e+001
1.136739e+003,1.189108e+001
1.137703e+003,1.218787e+001
1.138667e+003,1.294016e+001
1.139631e+003,1.415320e+001
1.140595e+003,1.569296e+001
1.141560e+003,1.663872e+001
1.142524e+003,1.692976e+001
1.143488e+003,1.685606e+001
1.144452e+003,1.625501e+001
1.145417e+003,1.540511e+001
1.146381e+003,1.540338e+001
1.147345e+003,1.648706e+001
1.148309e+003,1.780862e+001
1.149274e+003,1.934702e+001
1.150238e+003,2.090052e+001
1.151202e+003,2.243877e+001
1.152166e+003,2.394114e+001
1.153130e+003,2.538879e+001
1.154095e+003,2.672070e+001
1.155059e+003,2.784225e+001
1.156023e+003,2.888416e+001
1.156987e+003,2.961066e+001
1.157952e+003,2.842916e+001
1.158916e+003,2.501594e+001
1.159880e+003,2.204687e+001
1.160844e+003,2.107101e+001
1.161809e+003,2.128955e+001
1.162773e+003,2.116166e+001
1.163737e+003,2.073095e+001
1.164701e+003,1.974845e+001
1.165666e+003,1.709721e+001
1.166630e+003,1.505567e+001
1.167594e+003,1.515466e+001
1.168558e+003,1.606973e+001
1.169522e+003,1.581384e+001
1.170487e+003,1.391142e+001
1.171451e+003,1.175558e+001
1.172415e+003,1.084523e+001
1.173379e+003,1.105428e+001
1.174344e+003,1.208108e+001
1.175308e+003,1.410245e+001
1.176272e+003,1.495436e+001
1.177236e+003,1.323120e+001
1.178201e+003,1.058051e+001
1.179165e+003,9.031273e+000
1.180129e+003,8.550270e+000
1.181093e+003,8.204155e+000
1.182057e+003,7.787186e+000
1.183022e+003,7.596893e+000
1.183986e+003,7.721535e+000
1.184950e+003,8.111107e+000
1.185914e+003,8.935028e+000
1.186879e+003,1.003201e+001
1.187843e+003,1.091532e+001
1.188807e+003,1.118072e+001
1.189771e+003,1.082742e+001
1.190736e+003,9.701744e+000
1.191700e+003,7.647530e+000
1.192664e+003,6.545563e+000
1.193628e+003,7.114784e+000
1.194593e+003,7.997673e+000
1.195557e+003,8.312538e+000
1.196521e+003,8.148552e+000
1.197485e+003,7.777588e+000
1.198449e+003,7.119949e+000
1.199414e+003,6.664963e+000
1.200378e+003,6.787849e+000
1.201342e+003,7.050285e+000
1.202306e+003,7.323380e+000
1.203271e+003,7.460258e+000
1.204235e+003,7.212036e+000
1.205199e+003,6.503151e+000
1.206163e+003,5.648666e+000
1.207128e+003,5.181877e+000
1.208092e+003,5.140068e+000
1.209056e+003,4.699715e+000
1.210020e+003,3.404633e+000
1.210984e+003,2.666084e+000
1.211949e+003,3.399498e+000
1.212913e+003,4.564293e+000
1.213877e+003,4.783165e+000
1.214841e+003,3.997963e+000
1.215806e+003,3.211258e+000
1.216770e+003,2.822495e+000
1.217734e+003,2.471321e+000
1.218698e+003,1.698143e+000
1.219663e+003,8.831177e-001
1.220627e+003,6.185989e-001
1.221591e+003,9.115295e-001
1.222555e+003,1.198746e+000
1.223520e+003,9.636154e-001
1.224484e+003,3.367004e-001
1.225448e+003,-1.603394e-001
1.226412e+003,-7.140427e-001
1.227376e+003,-6.435471e-001
1.228341e+003,6.118393e-001
1.229305e+003,1.803879e+000
1.230269e+003,2.321793e+000
1.231233e+003,2.271378e+000
1.232198e+003,1.796722e+000
1.233162e+003,9.180145e-001
1.234126e+003,3.077698e-001
1.235090e+003,6.551819e-001
1.236055e+003,1.254501e+000
1.237019e+003,1.387032e+000
1.237983e+003,1.121178e+000
1.238947e+003,6.918488e-001
1.239911e+003,2.257309e-001
1.240876e+003,-1.396637e-001
1.241840e+003,-1.519241e-001
1.242804e+003,2.458115e-001
1.243768e+003,2.607727e-002
1.244733e+003,-2.049843e+000
1.245697e+003,-3.048889e+000
1.246661e+003,-1.992500e+000
1.247625e+003,-5.625687e-001
1.248590e+003,-4.011536e-002
1.249554e+003,-2.198868e-001
1.250518e+003,-5.111694e-002
1.251482e+003,9.575119e-001
1.252447e+003,1.958702e+000
1.253411e+003,1.921188e+000
1.254375e+003,1.211380e+000
1.255339e+003,3.481064e-001
1.256303e+003,-5.698776e-001
1.257268e+003,-6.944962e-001
1.258232e+003,8.232956e-001
1.259196e+003,2.799744e+000
1.260160e+003,2.392082e+000
1.261125e+003,-1.094452e+000
1.262089e+003,-2.323448e+000
1.263053e+003,1.970787e+000
1.264017e+003,5.096039e+000
1.264982e+003,4.827560e+000
1.265946e+003,3.236649e+000
1.266910e+003,2.078499e+000
1.267874e+003,1.647141e+000
1.268839e+003,1.456345e+000
1.269803e+003,1.195969e+000
1.270767e+003,8.932266e-001
1.271731e+003,5.536499e-001
1.272695e+003,2.258911e-001
1.273660e+003,2.811813e-001
1.274624e+003,8.161087e-001
1.275588e+003,1.300240e+000
1.276552e+003,1.658699e+000
1.277517e+003,1.772720e+000
1.278481e+003,1.067825e+000
1.279445e+003,-6.225281e-001
1.280409e+003,-1.346466e+000
1.281374e+003,5.016785e-001
1.282338e+003,2.149460e+000
1.283302e+003,2.010902e+000
1.284266e+003,9.951324e-001
1.285230e+003,-2.146606e-001
1.286195e+003,-1.207542e+000
1.287159e+003,-1.313118e+000
1.288123e+003,5.107117e-002
1.289087e+003,2.177773e+000
1.290052e+003,2.752029e+000
1.291016e+003,9.966202e-001
1.291980e+003,3.712921e-001
1.292944e+003,2.200592e+000
1.293909e+003,3.272957e+000
1.294873e+003,1.773796e+000
1.295837e+003,-7.864380e-001
1.296801e+003,-2.419876e+000
1.297766e+003,-2.843361e+000
1.298730e+003,-2.768921e+000
1.299694e+003,-2.504547e+000
1.300658e+003,-2.037224e+000
1.301622e+003,-1.039413e+000
1.302587e+003,7.849121e-002
1.303551e+003,4.931259e-001
1.304515e+003,1.411362e-001
1.305479e+003,-1.769562e-001
1.306444e+003,1.809464e-001
1.307408e+003,9.839783e-001
1.308372e+003,1.577126e+000
1.309336e+003,2.078209e+000
1.310301e+003,1.964676e+000
1.311265e+003,2.201538e-001
1.312229e+003,-8.452530e-001
1.313193e+003,1.583405e-001
1.314157e+003,1.682930e+000
1.315122e+003,1.937576e+000
1.316086e+003,8.773499e-001
1.317050e+003,-2.274933e-001
1.318014e+003,-5.470047e-001
1.318979e+003,-2.503052e-001
1.319943e+003,6.069489e-001
1.320907e+003,1.871597e+000
1.321871e+003,2.012177e+000
1.322836e+003,5.448303e-001
1.323800e+003,-7.420502e-001
1.324764e+003,-7.195358e-001
1.325728e+003,-5.210876e-003
1.326693e+003,3.992157e-001
1.327657e+003,4.391556e-001
1.328621e+003,2.184296e-001
1.329585e+003,-3.194580e-001
1.330549e+003,-7.263107e-001
1.331514e+003,-9.200211e-001
1.332478e+003,-9.765244e-001
1.333442e+003,-7.882996e-001
1.334406e+003,-4.659729e-001
1.335371e+003,-4.241486e-001
1.336335e+003,-8.946838e-001
1.337299e+003,-1.456230e+000
1.338263e+003,-1.283661e+000
1.339228e+003,-2.450943e-001
1.340192e+003,3.009644e-001
1.341156e+003,1.844330e-001
1.342120e+003,-1.337204e-001
1.343084e+003,-1.053909e+000
1.344049e+003,-1.819778e+000
1.345013e+003,-1.453140e+000
1.345977e+003,-3.413162e-001
1.346941e+003,6.237030e-002
1.347906e+003,-8.150635e-001
1.348870e+003,-1.666847e+000
1.349834e+003,-1.092575e+000
1.350798e+003,1.108093e-001
1.351763e+003,3.119965e-001
1.352727e+003,-2.915192e-001
1.353691e+003,-4.887390e-001
1.354655e+003,2.859650e-001
1.355620e+003,1.177269e+000
1.356584e+003,1.049706e+000
1.357548e+003,6.290436e-002
1.358512e+003,-4.363632e-001
1.359476e+003,-2.559052e-001
1.360441e+003,-1.344833e-001
1.361405e+003,-7.046814e-001
1.362369e+003,-8.553619e-001
1.363333e+003,4.776382e-001
1.364298e+003,2.336685e+000
1.365262e+003,3.392509e+000
1.366226e+003,3.327942e+000
1.367190e+003,2.663994e+000
1.368155e+003,1.846291e+000
1.369119e+003,1.044632e+000
1.370083e+003,8.488312e-001
1.371047e+003,1.518143e+000
1.372011e+003,1.789658e+000
1.372976e+003,9.893875e-001
1.373940e+003,5.963440e-001
1.374904e+003,1.767715e+000
1.375868e+003,3.284958e+000
1.376833e+003,3.397720e+000
1.377797e+003,2.139793e+000
1.378761e+003,1.053696e+000
1.379725e+003,7.761688e-001
1.380690e+003,9.305038e-001
1.381654e+003,1.295883e+000
1.382618e+003,1.800201e+000
1.383582e+003,2.454643e+000
1.384547e+003,3.193283e+000
1.385511e+003,3.607109e+000
1.386475e+003,3.396446e+000
1.387439e+003,3.008514e+000
1.388403e+003,3.188049e+000
1.389368e+003,3.928093e+000
1.390332e+003,4.573837e+000
1.391296e+003,5.579811e+000
1.392260e+003,5.543121e+000
1.393225e+003,2.821434e+000
1.394189e+003,4.848099e-001
1.395153e+003,8.185959e-001
1.396117e+003,2.469727e+000
1.397082e+003,3.288925e+000
1.398046e+003,2.662910e+000
1.399010e+003,1.224068e+000
1.399974e+003,-5.302353e-001
1.400938e+003,-2.166939e+000
1.401903e+003,-2.060158e+000
1.402867e+003,5.241928e-001
1.403831e+003,2.221962e+000
1.404795e+003,2.612144e+000
1.405760e+003,2.634941e+000
1.406724e+003,2.408508e+000
1.407688e+003,1.969810e+000
1.408652e+003,1.277046e+000
1.409617e+003,5.009079e-001
1.410581e+003,2.154160e-001
1.411545e+003,7.055969e-001
1.412509e+003,1.411461e+000
1.413474e+003,1.857018e+000
1.414438e+003,2.050827e+000
1.415402e+003,2.092514e+000
1.416366e+003,2.028587e+000
1.417330e+003,1.808723e+000
1.418295e+003,1.309937e+000
1.419259e+003,1.042694e+000
1.420223e+003,1.862152e+000
1.421187e+003,3.481445e+000
1.422152e+003,4.201157e+000
1.423116e+003,3.789322e+000
1.424080e+003,3.299881e+000
1.425044e+003,2.893250e+000
1.426009e+003,2.497208e+000
1.426973e+003,2.140984e+000
1.427937e+003,1.742012e+000
1.428901e+003,9.888687e-001
1.429865e+003,9.259033e-002
1.430830e+003,-1.092834e-001
1.431794e+003,8.958969e-001
1.432758e+003,2.465439e+000
1.433722e+003,3.403206e+000
1.434687e+003,3.761398e+000
1.435651e+003,3.749321e+000
1.436615e+003,2.508286e+000
1.437579e+003,1.875000e+000
1.438544e+003,2.817482e+000
1.439508e+003,3.632256e+000
1.440472e+003,2.785149e+000
1.441436e+003,1.171051e+000
1.442401e+003,6.067200e-001
1.443365e+003,1.469276e+000
1.444329e+003,2.693810e+000
1.445293e+003,3.567589e+000
1.446257e+003,4.216003e+000
1.447222e+003,4.894836e+000
1.448186e+003,5.535446e+000
1.449150e+003,5.742432e+000
1.450114e+003,5.459000e+000
1.451079e+003,4.778625e+000
1.452043e+003,3.272316e+000
1.453007e+003,1.787895e+000
1.453971e+003,1.678551e+000
1.454936e+003,2.742401e+000
1.455900e+003,3.502792e+000
1.456864e+003,3.657913e+000
1.457828e+003,3.567307e+000
1.458792e+003,3.240204e+000
1.459757e+003,2.860687e+000
1.460721e+003,2.431541e+000
1.461685e+003,2.108040e+000
1.462649e+003,2.432823e+000
1.463614e+003,3.444992e+000
1.464578e+003,3.998680e+000
1.465542e+003,2.936020e+000
1.466506e+003,8.988724e-001
1.467471e+003,-1.199341e-001
1.468435e+003,1.556244e-001
1.469399e+003,2.844849e-001
1.470363e+003,-2.871704e-001
1.471328e+003,-4.020615e-001
1.472292e+003,4.100266e-001
1.473256e+003,1.450211e+000
1.474220e+003,2.581558e+000
1.475184e+003,3.526039e+000
1.476149e+003,3.768768e+000
1.477113e+003,3.200706e+000
1.478077e+003,2.311821e+000
1.479041e+003,1.595116e+000
1.480006e+003,1.144356e+000
1.480970e+003,1.214180e+000
1.481934e+003,1.886322e+000
1.482898e+003,2.567787e+000
1.483863e+003,3.716537e+000
1.484827e+003,4.212692e+000
1.485791e+003,3.098091e+000
1.486755e+003,1.854980e+000
1.487719e+003,2.193344e+000
1.488684e+003,3.474335e+000
1.489648e+003,3.457985e+000
1.490612e+003,1.517212e+000
1.491576e+003,6.602478e-002
1.492541e+003,1.235504e+000
1.493505e+003,3.821739e+000
1.494469e+003,5.351662e+000
1.495433e+003,5.917671e+000
1.496398e+003,6.130592e+000
1.497362e+003,5.925438e+000
1.498326e+003,6.027565e+000
1.499290e+003,7.132652e+000
1.500255e+003,8.513000e+000
1.501219e+003,9.078705e+000
1.502183e+003,8.948730e+000
1.503147e+003,9.072319e+000
1.504111e+003,9.715691e+000
1.505076e+003,1.028609e+001
1.506040e+003,1.011617e+001
1.507004e+003,1.010183e+001
1.507968e+003,1.156804e+001
1.508933e+003,1.370071e+001
1.509897e+003,1.453705e+001
1.510861e+003,1.386810e+001
1.511825e+003,1.379834e+001
1.512790e+003,1.587083e+001
1.513754e+003,1.912474e+001
1.514718e+003,2.200885e+001
1.515682e+003,2.448441e+001
1.516646e+003,2.612711e+001
1.517611e+003,2.680225e+001
1.518575e+003,2.701637e+001
1.519539e+003,2.607197e+001
1.520503e+003,2.567942e+001
1.521468e+003,2.774769e+001
1.522432e+003,3.035547e+001
1.523396e+003,3.055183e+001
1.524360e+003,2.826340e+001
1.525325e+003,2.580372e+001
1.526289e+003,2.472368e+001
1.527253e+003,2.444379e+001
1.528217e+003,2.397228e+001
1.529182e+003,2.334189e+001
1.530146e+003,2.212370e+001
1.531110e+003,1.953938e+001
1.532074e+003,1.778519e+001
1.533039e+003,1.812238e+001
1.534003e+003,1.773666e+001
1.534967e+003,1.467843e+001
1.535931e+003,1.089443e+001
1.536896e+003,8.588486e+000
1.537860e+003,7.843262e+000
1.538824e+003,7.491051e+000
1.539788e+003,6.896034e+000
1.540752e+003,6.384499e+000
1.541717e+003,6.470978e+000
1.542681e+003,6.987251e+000
1.543645e+003,6.700516e+000
1.544609e+003,4.883522e+000
1.545573e+003,4.313408e+000
1.546538e+003,5.754868e+000
1.547502e+003,7.260292e+000
1.548466e+003,8.177467e+000
1.549430e+003,8.904854e+000
1.550395e+003,1.004651e+001
1.551359e+003,1.131313e+001
1.552323e+003,1.190615e+001
1.553287e+003,1.153867e+001
1.554252e+003,1.016151e+001
1.555216e+003,7.438972e+000
1.556180e+003,4.462158e+000
1.557144e+003,4.153351e+000
1.558109e+003,6.639877e+000
1.559073e+003,7.541122e+000
1.560037e+003,5.826012e+000
1.561001e+003,4.372902e+000
1.561966e+003,4.478882e+000
1.562930e+003,5.030685e+000
1.563894e+003,4.764435e+000
1.564858e+003,4.115959e+000
1.565823e+003,4.477333e+000
1.566787e+003,6.037125e+000
1.567751e+003,7.354614e+000
1.568715e+003,7.635056e+000
1.569679e+003,7.360237e+000
1.570644e+003,6.904480e+000
1.571608e+003,6.375412e+000
1.572572e+003,6.140450e+000
1.573536e+003,6.242371e+000
1.574500e+003,6.623619e+000
1.575465e+003,7.547997e+000
1.576429e+003,8.263939e+000
1.577393e+003,7.869240e+000
1.578357e+003,6.933365e+000
1.579322e+003,6.562447e+000
1.580286e+003,6.840485e+000
1.581250e+003,7.525803e+000
1.582214e+003,8.680145e+000
1.583179e+003,9.748474e+000
1.584143e+003,1.056571e+001
1.585107e+003,1.077296e+001
1.586071e+003,9.504433e+000
1.587036e+003,7.420692e+000
1.588000e+003,6.515968e+000
1.588964e+003,7.225098e+000
1.589928e+003,8.326927e+000
1.590893e+003,9.324303e+000
1.591857e+003,9.983765e+000
1.592821e+003,9.630058e+000
1.593785e+003,8.536461e+000
1.594750e+003,8.400993e+000
1.595714e+003,9.595901e+000
1.596678e+003,1.048867e+001
1.597642e+003,1.021754e+001
1.598606e+003,9.770844e+000
1.599571e+003,1.006768e+001
1.600535e+003,1.062494e+001
1.601499e+003,1.067338e+001
1.602463e+003,1.029790e+001
1.603427e+003,1.029578e+001
1.604392e+003,1.102005e+001
1.605356e+003,1.198985e+001
1.606320e+003,1.289758e+001
1.607284e+003,1.362370e+001
1.608249e+003,1.377938e+001
1.609213e+003,1.334949e+001
1.610177e+003,1.267316e+001
1.611141e+003,1.145621e+001
1.612106e+003,1.087579e+001
1.613070e+003,1.236245e+001
1.614034e+003,1.389770e+001
1.614998e+003,1.382239e+001
1.615963e+003,1.286556e+001
1.616927e+003,1.235451e+001
1.617891e+003,1.244860e+001
1.618855e+003,1.235194e+001
1.619820e+003,1.150011e+001
1.620784e+003,1.057848e+001
1.621748e+003,1.065323e+001
1.622712e+003,1.167124e+001
1.623677e+003,1.319820e+001
1.624641e+003,1.555560e+001
1.625605e+003,1.639589e+001
1.626569e+003,1.379354e+001
1.627533e+003,1.174796e+001
1.628498e+003,1.279681e+001
1.629462e+003,1.476193e+001
1.630426e+003,1.612458e+001
1.631390e+003,1.681367e+001
1.632354e+003,1.692440e+001
1.633319e+003,1.655672e+001
1.634283e+003,1.616247e+001
1.635247e+003,1.608617e+001
1.636211e+003,1.610938e+001
1.637176e+003,1.570970e+001
1.638140e+003,1.497672e+001
1.639104e+003,1.511226e+001
1.640068e+003,1.650005e+001
1.641033e+003,1.730325e+001
1.641997e+003,1.676476e+001
1.642961e+003,1.603123e+001
1.643925e+003,1.564321e+001
1.644890e+003,1.536943e+001
1.645854e+003,1.491038e+001
1.646818e+003,1.435854e+001
1.647782e+003,1.395544e+001
1.648747e+003,1.379305e+001
1.649711e+003,1.405101e+001
1.650675e+003,1.505362e+001
1.651639e+003,1.627483e+001
1.652604e+003,1.651046e+001
1.653568e+003,1.576818e+001
1.654532e+003,1.487341e+001
1.655496e+003,1.370531e+001
1.656460e+003,1.298409e+001
1.657425e+003,1.321667e+001
1.658389e+003,1.358705e+001
1.659353e+003,1.351354e+001
1.660317e+003,1.343243e+001
1.661281e+003,1.411942e+001
1.662246e+003,1.518158e+001
1.663210e+003,1.531075e+001
1.664174e+003,1.412997e+001
1.665138e+003,1.285002e+001
1.666103e+003,1.259699e+001
1.667067e+003,1.266593e+001
1.668031e+003,1.125241e+001
1.668995e+003,8.566154e+000
1.669960e+003,7.726967e+000
1.670924e+003,9.518837e+000
1.671888e+003,1.079910e+001
1.672852e+003,1.018916e+001
1.673817e+003,9.394066e+000
1.674781e+003,9.588959e+000
1.675745e+003,1.009954e+001
1.676709e+003,1.039501e+001
1.677674e+003,1.032576e+001
1.678638e+003,9.436295e+000
1.679602e+003,7.608955e+000
1.680566e+003,6.226425e+000
1.681531e+003,6.599022e+000
1.682495e+003,7.781227e+000
1.683459e+003,8.135170e+000
1.684423e+003,7.757614e+000
1.685387e+003,7.424118e+000
1.686352e+003,7.227448e+000
1.687316e+003,6.950066e+000
1.688280e+003,6.375771e+000
1.689244e+003,5.975540e+000
1.690208e+003,6.191666e+000
1.691173e+003,6.687859e+000
1.692137e+003,7.259842e+000
1.693101e+003,7.842865e+000
1.694065e+003,8.277351e+000
1.695030e+003,8.498787e+000
1.695994e+003,8.128159e+000
1.696958e+003,6.535469e+000
1.697922e+003,4.767570e+000
1.698887e+003,4.174477e+000
1.699851e+003,4.471191e+000
1.700815e+003,4.821548e+000
1.701779e+003,5.125381e+000
1.702744e+003,5.370293e+000
1.703708e+003,5.590263e+000
1.704672e+003,5.830063e+000
1.705636e+003,6.347214e+000
1.706601e+003,6.536041e+000
1.707565e+003,5.115196e+000
1.708529e+003,2.737610e+000
1.709493e+003,1.466537e+000
1.710458e+003,1.627388e+000
1.711422e+003,1.956734e+000
1.712386e+003,2.069717e+000
1.713350e+003,2.077644e+000
1.714314e+003,1.727921e+000
1.715279e+003,1.450073e+000
1.716243e+003,2.400116e+000
1.717207e+003,4.239098e+000
1.718171e+003,4.990791e+000
1.719135e+003,4.121376e+000
1.720100e+003,2.823959e+000
1.721064e+003,1.687141e+000
1.722028e+003,1.062485e+000
1.722992e+003,1.853203e+000
1.723957e+003,3.665222e+000
1.724921e+003,3.813972e+000
1.725885e+003,1.884003e+000
1.726849e+003,6.322174e-001
1.727814e+003,8.484726e-001
1.728778e+003,1.463654e+000
1.729742e+003,2.550163e+000
1.730706e+003,3.327415e+000
1.731671e+003,2.540443e+000
1.732635e+003,9.559402e-001
1.733599e+003,4.965973e-001
1.734563e+003,1.337837e+000
1.735528e+003,1.855324e+000
1.736492e+003,1.175056e+000
1.737456e+003,2.570648e-001
1.738420e+003,2.460022e-001
1.739385e+003,8.651886e-001
1.740349e+003,1.227203e+000
1.741313e+003,1.344482e+000
1.742277e+003,1.284286e+000
1.743241e+003,7.970734e-001
1.744206e+003,5.972214e-001
1.745170e+003,1.004776e+000
1.746134e+003,1.411156e+000
1.747098e+003,1.374352e+000
1.748063e+003,1.227654e+000
1.749027e+003,1.479065e+000
1.749991e+003,1.988121e+000
1.750955e+003,2.231079e+000
1.751919e+003,2.033974e+000
1.752884e+003,1.689651e+000
1.753848e+003,1.445992e+000
1.754812e+003,1.041443e+000
1.755776e+003,-2.337875e-001
1.756741e+003,-2.261871e+000
1.757705e+003,-1.854248e+000
1.758669e+003,2.550438e+000
1.759633e+003,4.662338e+000
1.760598e+003,1.804367e+000
1.761562e+003,-5.284424e-001
1.762526e+003,-2.057190e-001
1.763490e+003,7.456436e-001
1.764455e+003,1.172035e+000
1.765419e+003,1.115089e+000
1.766383e+003,6.090393e-001
1.767347e+003,-1.749878e-001
1.768312e+003,-5.762329e-001
1.769276e+003,-2.828522e-001
1.770240e+003,-1.111984e-001
1.771204e+003,-1.162270e+000
1.772168e+003,-2.576035e+000
1.773133e+003,-2.002716e+000
1.774097e+003,2.408752e-001
1.775061e+003,6.986084e-001
1.776025e+003,-1.288742e+000
1.776990e+003,-2.908905e+000
1.777954e+003,-3.163269e+000
1.778918e+003,-2.871117e+000
1.779882e+003,-2.406258e+000
1.780846e+003,-1.964531e+000
1.781811e+003,-1.901054e+000
1.782775e+003,-2.031929e+000
1.783739e+003,-1.682320e+000
1.784703e+003,-6.832733e-001
1.785668e+003,6.645203e-002
1.786632e+003,2.114868e-002
1.787596e+003,-2.440033e-001
1.788560e+003,-1.249237e-001
1.789525e+003,2.975464e-004
1.790489e+003,-7.308884e-001
1.791453e+003,-1.966080e+000
1.792417e+003,-2.428917e+000
1.793382e+003,-1.895042e+000
1.794346e+003,-1.144539e+000
1.795310e+003,-5.734253e-001
1.796274e+003,-1.613464e-001
1.797239e+003,1.844406e-001
1.798203e+003,3.634796e-001
1.799167e+003,-2.337952e-001
1.800131e+003,-2.000870e+000
1.801095e+003,-2.421860e+000
1.802060e+003,-1.494980e-001
1.803024e+003,1.329163e+000
1.803988e+003,1.081741e+000
1.804952e+003,6.629181e-001
1.805917e+003,8.785782e-001
1.806881e+003,1.212975e+000
1.807845e+003,1.023415e+000
1.808809e+003,5.541153e-001
1.809773e+003,5.383682e-001
1.810738e+003,9.984589e-001
1.811702e+003,1.037865e+000
1.812666e+003,1.108093e-001
1.813630e+003,-9.863434e-001
1.814595e+003,-1.148819e+000
1.815559e+003,-6.388397e-001
1.816523e+003,-5.189209e-001
1.817487e+003,-8.383102e-001
1.818452e+003,-8.879089e-001
1.819416e+003,-5.491333e-001
1.820380e+003,-4.130554e-002
1.821344e+003,1.022141e+000
1.822309e+003,1.522461e+000
1.823273e+003,2.067490e-001
1.824237e+003,-1.439140e+000
1.825201e+003,-1.864540e+000
1.826166e+003,-1.396729e+000
1.827130e+003,-1.119637e+000
1.828094e+003,-1.224373e+000
1.829058e+003,-9.144211e-001
1.830022e+003,6.400604e-001
1.830987e+003,1.808632e+000
1.831951e+003,5.612106e-001
1.832915e+003,-1.396278e+000
1.833879e+003,-1.212173e+000
1.834844e+003,3.759003e-001
1.835808e+003,6.588974e-001
1.836772e+003,-6.506729e-001
1.837736e+003,-1.801407e+000
1.838700e+003,-2.060699e+000
1.839665e+003,-1.731155e+000
1.840629e+003,-9.681244e-001
1.841593e+003,-5.258179e-002
1.842557e+003,3.836670e-001
1.843522e+003,3.444138e-001
1.844486e+003,3.016434e-001
1.845450e+003,2.132950e-001
1.846414e+003,3.070297e-001
1.847379e+003,7.616272e-001
1.848343e+003,1.021957e+000
1.849307e+003,7.761154e-001
1.850271e+003,4.828873e-001
1.851236e+003,6.042938e-001
1.852200e+003,8.435287e-001
1.853164e+003,5.083923e-001
1.854128e+003,-2.038040e-001
1.855093e+003,-2.068710e-001
1.856057e+003,8.315582e-001
1.857021e+003,1.714088e+000
1.857985e+003,1.381218e+000
1.858949e+003,4.995270e-001
1.859914e+003,3.032455e-001
1.860878e+003,6.238785e-001
1.861842e+003,3.588104e-001
1.862806e+003,-5.272827e-001
1.863771e+003,-1.265251e+000
1.864735e+003,-1.841614e+000
1.865699e+003,-1.781593e+000
1.866663e+003,-5.669174e-001
1.867627e+003,8.258667e-001
1.868592e+003,1.626442e+000
1.869556e+003,1.907883e+000
1.870520e+003,1.855400e+000
1.871484e+003,1.484497e+000
1.872449e+003,8.581238e-001
1.873413e+003,-4.362488e-002
1.874377e+003,-6.789246e-001
1.875341e+003,-1.346176e+000
1.876306e+003,-1.316971e+000
1.877270e+003,8.085480e-001
1.878234e+003,2.876816e+000
1.879198e+003,2.306725e+000
1.880163e+003,2.662888e-001
1.881127e+003,-9.704361e-001
1.882091e+003,-1.103531e+000
1.883055e+003,-9.841309e-001
1.884020e+003,-9.955215e-001
1.884984e+003,-8.767395e-001
1.885948e+003,-3.783112e-001
1.886912e+003,2.869568e-001
1.887876e+003,7.436218e-001
1.888841e+003,9.774094e-001
1.889805e+003,5.963745e-001
1.890769e+003,-6.512604e-001
1.891733e+003,-1.043968e+000
1.892698e+003,1.425247e-001
1.893662e+003,7.017136e-001
1.894626e+003,-8.081284e-001
1.895590e+003,-2.211327e+000
1.896554e+003,-1.749908e+000
1.897519e+003,-5.156326e-001
1.898483e+003,2.851868e-001
1.899447e+003,6.583939e-001
1.900411e+003,9.398956e-001
1.901376e+003,1.193268e+000
1.902340e+003,1.391258e+000
1.903304e+003,1.606544e+000
1.904268e+003,1.619759e+000
1.905233e+003,1.176865e+000
1.906197e+003,6.112061e-001
1.907161e+003,2.531509e-001
1.908125e+003,4.776001e-002
1.909090e+003,-1.325989e-001
1.910054e+003,-3.529434e-001
1.911018e+003,-8.181000e-001
1.911982e+003,-1.476036e+000
1.912947e+003,-1.556824e+000
1.913911e+003,-5.050583e-001
1.914875e+003,1.057274e+000
1.915839e+003,2.210442e+000
1.916803e+003,2.881401e+000
1.917768e+003,2.710983e+000
1.918732e+003,1.518608e+000
1.919696e+003,8.543472e-001
1.920660e+003,8.919525e-001
1.921625e+003,1.105621e+000
1.922589e+003,1.479401e+000
1.923553e+003,1.802002e+000
1.924517e+003,1.935501e+000
1.925481e+003,2.000961e+000
1.926446e+003,2.069267e+000
1.927410e+003,2.164024e+000
1.928374e+003,2.301895e+000
1.929338e+003,2.468658e+000
1.930303e+003,2.782616e+000
1.931267e+003,3.526398e+000
1.932231e+003,3.800606e+000
1.933195e+003,2.969093e+000
1.934160e+003,1.720047e+000
1.935124e+003,-1.352615e-001
1.936088e+003,-1.592575e+000
1.937052e+003,-1.001289e+000
1.938017e+003,8.586197e-001
1.938981e+003,2.224983e+000
1.939945e+003,2.729179e+000
1.940909e+003,2.808998e+000
1.941874e+003,2.673752e+000
1.942838e+003,2.175652e+000
1.943802e+003,1.162292e+000
1.944766e+003,1.364288e-001
1.945730e+003,9.540558e-002
1.946695e+003,8.847198e-001
1.947659e+003,1.430298e+000
1.948623e+003,1.695602e+000
1.949587e+003,2.122215e+000
1.950552e+003,2.948875e+000
1.951516e+003,3.163818e+000
1.952480e+003,2.073814e+000
1.953444e+003,1.079132e+000
1.954408e+003,1.440498e+000
1.955373e+003,2.101112e+000
1.956337e+003,1.296112e+000
1.957301e+003,-3.732834e-001
1.958265e+003,-8.319550e-001
1.959230e+003,1.139908e-001
1.960194e+003,1.047005e+000
1.961158e+003,2.141708e+000
1.962122e+003,2.522110e+000
1.963087e+003,1.202911e+000
1.964051e+003,5.258942e-002
1.965015e+003,2.545395e-001
1.965979e+003,1.108879e+000
1.966944e+003,2.393204e+000
1.967908e+003,3.413124e+000
1.968872e+003,2.779228e+000
1.969836e+003,8.273010e-001
1.970801e+003,-3.063354e-001
1.971765e+003,2.393875e-001
1.972729e+003,1.008484e+000
1.973693e+003,7.048340e-001
1.974657e+003,1.332016e-001
1.975622e+003,4.970016e-001
1.976586e+003,1.517990e+000
1.977550e+003,2.641190e+000
1.978514e+003,3.784294e+000
1.979479e+003,4.591675e+000
1.980443e+003,4.993874e+000
1.981407e+003,4.889610e+000
1.982371e+003,4.224838e+000
1.983335e+003,3.649292e+000
1.984300e+003,3.651924e+000
1.985264e+003,3.896011e+000
1.986228e+003,3.957832e+000
1.987192e+003,3.754646e+000
1.988157e+003,2.778183e+000
1.989121e+003,7.115402e-001
1.990085e+003,-3.792801e-001
1.991049e+003,-6.404114e-002
1.992014e+003,3.961258e-001
1.992978e+003,7.517319e-001
1.993942e+003,1.340324e+000
1.994906e+003,2.902885e+000
1.995871e+003,4.102608e+000
1.996835e+003,3.316208e+000
1.997799e+003,1.947968e+000
1.998763e+003,2.314034e+000
1.999728e+003,4.070274e+000
