5.003444e+002,4.161041e+001
5.013087e+002,4.127246e+001
5.022729e+002,3.938527e+001
5.032371e+002,3.676738e+001
5.042014e+002,3.573831e+001
5.051656e+002,3.610313e+001
5.061298e+002,3.697273e+001
5.070941e+002,3.757195e+001
5.080583e+002,3.783704e+001
5.090225e+002,3.773659e+001
5.099868e+002,3.722118e+001
5.109510e+002,3.652618e+001
5.119152e+002,3.561090e+001
5.128795e+002,3.444908e+001
5.138437e+002,3.375900e+001
5.148079e+002,3.438029e+001
5.157722e+002,3.502754e+001
5.167364e+002,3.524913e+001
5.177006e+002,3.488721e+001
5.186649e+002,3.399219e+001
5.196291e+002,3.233598e+001
5.205933e+002,3.057216e+001
5.215576e+002,2.903743e+001
5.225218e+002,2.781232e+001
5.234860e+002,2.725725e+001
5.244503e+002,2.822285e+001
5.254145e+002,3.159061e+001
5.263787e+002,3.293794e+001
5.273430e+002,3.120277e+001
5.283072e+002,2.818657e+001
5.292714e+002,2.620428e+001
5.302357e+002,2.527791e+001
5.311999e+002,2.527966e+001
5.321641e+002,2.733290e+001
5.331284e+002,2.951520e+001
5.340926e+002,3.004517e+001
5.350568e+002,2.811024e+001
5.360211e+002,2.586771e+001
5.369853e+002,2.567737e+001
5.379495e+002,2.616766e+001
5.389138e+002,2.621513e+001
5.398780e+002,2.535994e+001
5.408422e+002,2.395152e+001
5.418065e+002,2.284358e+001
5.427707e+002,2.203601e+001
5.437349e+002,2.177283e+001
5.446992e+002,2.224893e+001
5.456634e+002,2.321320e+001
5.466276e+002,2.382220e+001
5.475919e+002,2.384183e+001
5.485561e+002,2.380936e+001
5.495203e+002,2.368837e+001
5.504846e+002,2.346245e+001
5.514488e+002,2.309831e+001
5.524130e+002,2.250356e+001
5.533773e+002,2.214548e+001
5.543415e+002,2.249130e+001
5.553057e+002,2.302271e+001
5.562700e+002,2.318358e+001
5.572342e+002,2.261978e+001
5.581984e+002,2.158009e+001
5.591627e+002,2.055316e+001
5.601269e+002,1.966119e+001
5.610911e+002,1.919275e+001
5.620554e+002,1.931589e+001
5.630196e+002,1.985725e+001
5.639838e+002,1.956905e+001
5.649481e+002,1.764940e+001
5.659123e+002,1.608534e+001
5.668765e+002,1.548558e+001
5.678408e+002,1.561893e+001
5.688050e+002,1.568459e+001
5.697692e+002,1.540991e+001
5.707335e+002,1.481032e+001
5.716977e+002,1.358652e+001
5.726619e+002,1.224686e+001
5.736262e+002,1.146515e+001
5.745904e+002,1.176051e+001
5.755546e+002,1.264230e+001
5.765189e+002,1.347206e+001
5.774831e+002,1.404793e+001
5.784473e+002,1.404955e+001
5.794116e+002,1.330368e+001
5.803758e+002,1.194028e+001
5.813400e+002,1.074573e+001
5.823043e+002,9.414734e+000
5.832685e+002,8.505020e+000
5.842327e+002,8.329407e+000
5.851970e+002,8.899506e+000
5.861612e+002,9.894653e+000
5.871254e+002,1.195886e+001
5.880897e+002,1.356671e+001
5.890539e+002,1.449811e+001
5.900181e+002,1.470750e+001
5.909824e+002,1.406441e+001
5.919466e+002,1.215292e+001
5.929108e+002,1.020644e+001
5.938751e+002,9.459106e+000
5.948393e+002,9.526108e+000
5.958035e+002,9.966141e+000
5.967678e+002,1.045360e+001
5.977320e+002,1.095680e+001
5.986962e+002,1.077164e+001
5.996605e+002,9.797974e+000
6.006247e+002,8.829956e+000
6.015889e+002,8.277008e+000
6.025532e+002,8.116608e+000
6.035174e+002,7.808807e+000
6.044816e+002,6.649231e+000
6.054459e+002,6.196960e+000
6.064101e+002,7.276230e+000
6.073743e+002,9.116440e+000
6.083386e+002,1.028810e+001
6.093028e+002,9.788910e+000
6.102670e+002,9.049957e+000
6.112313e+002,9.253967e+000
6.121955e+002,9.923019e+000
6.131597e+002,1.028543e+001
6.141240e+002,9.835052e+000
6.150882e+002,8.995407e+000
6.160524e+002,1.028732e+001
6.170167e+002,1.335617e+001
6.179809e+002,1.537157e+001
6.189451e+002,1.470135e+001
6.199094e+002,1.170815e+001
6.208736e+002,9.572998e+000
6.218378e+002,8.793320e+000
6.228021e+002,8.658020e+000
6.237663e+002,9.821014e+000
6.247305e+002,1.145163e+001
6.256948e+002,1.212425e+001
6.266590e+002,1.084154e+001
6.276232e+002,9.292877e+000
6.285875e+002,8.528427e+000
6.295517e+002,8.263870e+000
6.305159e+002,8.134186e+000
6.314802e+002,7.926102e+000
6.324444e+002,7.806198e+000
6.334086e+002,9.110519e+000
6.343729e+002,1.123849e+001
6.353371e+002,1.169531e+001
6.363013e+002,9.245285e+000
6.372656e+002,4.917847e+000
6.382298e+002,2.504440e+000
6.391940e+002,4.435486e+000
6.401583e+002,5.142075e+000
6.411225e+002,3.624832e+000
6.420867e+002,1.515640e+000
6.430510e+002,7.728729e-001
6.440152e+002,2.154160e+000
6.449794e+002,3.728653e+000
6.459437e+002,4.797226e+000
6.469079e+002,5.414932e+000
6.478721e+002,5.520309e+000
6.488364e+002,5.171967e+000
6.498006e+002,4.644455e+000
6.507648e+002,4.432877e+000
6.517291e+002,4.323730e+000
6.526933e+002,3.645233e+000
6.536575e+002,2.203186e+000
6.546218e+002,7.674713e-001
6.555860e+002,9.041443e-001
6.565502e+002,3.931854e+000
6.575145e+002,5.683090e+000
6.584787e+002,5.829529e+000
6.594429e+002,5.183350e+000
6.604072e+002,4.178879e+000
6.613714e+002,2.813339e+000
6.623356e+002,1.663818e+000
6.632999e+002,5.870361e-001
6.642641e+002,1.547241e-002
6.652283e+002,6.075592e-001
6.661926e+002,2.182877e+000
6.671568e+002,3.914597e+000
6.681210e+002,4.814484e+000
6.690853e+002,4.974106e+000
6.700495e+002,4.960220e+000
6.710137e+002,4.788147e+000
6.719780e+002,4.385513e+000
6.729422e+002,3.629303e+000
6.739064e+002,2.403412e+000
6.748707e+002,1.334732e+000
6.758349e+002,-7.891846e-002
6.767991e+002,-8.849640e-001
6.777634e+002,-1.661377e-001
6.787276e+002,1.867966e+000
6.796918e+002,3.323898e+000
6.806561e+002,2.714478e+000
6.816203e+002,2.075333e+000
6.825845e+002,2.116699e+000
6.835488e+002,2.698578e+000
6.845130e+002,3.611130e+000
6.854772e+002,4.791275e+000
6.864415e+002,5.887009e+000
6.874057e+002,5.925873e+000
6.883699e+002,5.108871e+000
6.893342e+002,3.972427e+000
6.902984e+002,2.777588e+000
6.912626e+002,1.673492e+000
6.922269e+002,1.493073e+000
6.931911e+002,3.506393e+000
6.941553e+002,4.973831e+000
6.951196e+002,5.179596e+000
6.960838e+002,4.742218e+000
6.970480e+002,4.924835e+000
6.980123e+002,6.695023e+000
6.989765e+002,7.272552e+000
6.999407e+002,4.462677e+000
7.009050e+002,1.009445e+000
7.018692e+002,-9.130554e-001
7.028334e+002,-5.973816e-001
7.037977e+002,8.809814e-001
7.047619e+002,2.402740e+000
7.057261e+002,3.743088e+000
7.066904e+002,3.993073e+000
7.076546e+002,2.999039e+000
7.086188e+002,1.828796e+000
7.095831e+002,2.276978e+000
7.105473e+002,5.278183e+000
7.115115e+002,6.710846e+000
7.124758e+002,5.926147e+000
7.134400e+002,4.536575e+000
7.144042e+002,3.486008e+000
7.153685e+002,2.854019e+000
7.163327e+002,2.069275e+000
7.172969e+002,2.204742e-001
7.182612e+002,-1.172928e+000
7.192254e+002,-1.474319e+000
7.201896e+002,-8.415222e-001
7.211539e+002,4.530792e-001
7.221181e+002,2.322754e+000
7.230823e+002,4.247269e+000
7.240466e+002,4.908417e+000
7.250108e+002,4.602783e+000
7.259750e+002,3.898865e+000
7.269393e+002,2.922577e+000
7.279035e+002,1.715820e+000
7.288677e+002,1.379410e+000
7.298320e+002,3.754883e+000
7.307962e+002,5.041763e+000
7.317604e+002,4.033401e+000
7.327247e+002,2.202576e+000
7.336889e+002,1.659897e+000
7.346531e+002,3.183746e+000
7.356174e+002,4.582138e+000
7.365816e+002,4.730820e+000
7.375458e+002,4.530563e+000
7.385101e+002,4.706955e+000
7.394743e+002,5.392532e+000
7.404385e+002,6.093292e+000
7.414028e+002,6.017075e+000
7.423670e+002,5.054810e+000
7.433312e+002,3.534302e+000
7.442955e+002,1.457001e+000
7.452597e+002,1.886139e-001
7.462239e+002,1.735275e+000
7.471882e+002,7.427460e+000
7.481524e+002,9.762283e+000
7.491166e+002,6.058945e+000
7.500809e+002,2.452194e+000
7.510451e+002,1.328903e+000
7.520093e+002,2.278473e+000
7.529736e+002,3.210052e+000
7.539378e+002,3.215973e+000
7.549020e+002,3.142792e+000
7.558663e+002,3.656677e+000
7.568306e+002,4.387253e+000
7.577948e+002,4.736282e+000
7.587590e+002,4.336807e+000
7.597233e+002,3.438568e+000
7.606875e+002,2.963181e+000
7.616517e+002,2.923721e+000
7.626160e+002,3.020081e+000
7.635802e+002,3.399918e+000
7.645444e+002,3.698303e+000
7.655087e+002,2.950653e+000
7.664729e+002,9.538269e-002
7.674371e+002,-1.461411e+000
7.684014e+002,-1.179153e+000
7.693656e+002,-1.565094e-001
7.703298e+002,1.273636e+000
7.712941e+002,2.918976e+000
7.722583e+002,4.120209e+000
7.732225e+002,3.977600e+000
7.741868e+002,3.548157e+000
7.751510e+002,3.624115e+000
7.761152e+002,4.149216e+000
7.770795e+002,4.902176e+000
7.780437e+002,5.685806e+000
7.790079e+002,6.372299e+000
7.799722e+002,5.505859e+000
7.809364e+002,2.697128e+000
7.819006e+002,1.283142e+000
7.828649e+002,3.738647e+000
7.838291e+002,8.692459e+000
7.847933e+002,1.130171e+001
7.857576e+002,9.895309e+000
7.867218e+002,8.223648e+000
7.876860e+002,6.685745e+000
7.886503e+002,5.559143e+000
7.896145e+002,5.117538e+000
7.905787e+002,5.395996e+000
7.915430e+002,6.026901e+000
7.925072e+002,7.020203e+000
7.934714e+002,7.711060e+000
7.944357e+002,7.242920e+000
7.953999e+002,5.775162e+000
7.963641e+002,4.083588e+000
7.973284e+002,2.971130e+000
7.982926e+002,2.447372e+000
7.992568e+002,2.695389e+000
8.002211e+002,4.053009e+000
8.011853e+002,5.009293e+000
8.021495e+002,4.925262e+000
8.031138e+002,4.218643e+000
8.040780e+002,4.020020e+000
8.050422e+002,4.688644e+000
8.060065e+002,5.381836e+000
8.069707e+002,5.746506e+000
8.079349e+002,5.937851e+000
8.088992e+002,6.053421e+000
8.098634e+002,6.207916e+000
8.108276e+002,6.658783e+000
8.117919e+002,8.082199e+000
8.127561e+002,9.711517e+000
8.137203e+002,1.004727e+001
8.146846e+002,9.047241e+000
8.156488e+002,7.995377e+000
8.166130e+002,8.557434e+000
8.175773e+002,1.128545e+001
8.185415e+002,1.206038e+001
8.195057e+002,9.465363e+000
8.204700e+002,6.904816e+000
8.214342e+002,5.669678e+000
8.223984e+002,5.339706e+000
8.233627e+002,4.522583e+000
8.243269e+002,2.154816e+000
8.252911e+002,6.057434e-001
8.262554e+002,1.377533e+000
8.272196e+002,3.297363e+000
8.281838e+002,5.514557e+000
8.291481e+002,7.504242e+000
8.301123e+002,8.888290e+000
8.310765e+002,8.816299e+000
8.320408e+002,7.346863e+000
8.330050e+002,6.177689e+000
8.339692e+002,5.407181e+000
8.349335e+002,4.977448e+000
8.358977e+002,4.944077e+000
8.368619e+002,5.416916e+000
8.378262e+002,5.849060e+000
8.387904e+002,5.835922e+000
8.397546e+002,6.088089e+000
8.407189e+002,7.398987e+000
8.416831e+002,8.964325e+000
8.426473e+002,9.141556e+000
8.436116e+002,6.863174e+000
8.445758e+002,4.586166e+000
8.455400e+002,5.308243e+000
8.465043e+002,7.127747e+000
8.474685e+002,8.082932e+000
8.484327e+002,7.692947e+000
8.493970e+002,6.679260e+000
8.503612e+002,6.106308e+000
8.513254e+002,5.961746e+000
8.522897e+002,6.457214e+000
8.532539e+002,8.020126e+000
8.542181e+002,9.471039e+000
8.551824e+002,1.013440e+001
8.561466e+002,1.018835e+001
8.571108e+002,1.039845e+001
8.580751e+002,1.060594e+001
8.590393e+002,1.099117e+001
8.600035e+002,1.200027e+001
8.609678e+002,1.316206e+001
8.619320e+002,1.389104e+001
8.628962e+002,1.395703e+001
8.638605e+002,1.373889e+001
8.648247e+002,1.372636e+001
8.657889e+002,1.388318e+001
8.667532e+002,1.428972e+001
8.677174e+002,1.495244e+001
8.686816e+002,1.549603e+001
8.696459e+002,1.549460e+001
8.706101e+002,1.493169e+001
8.715743e+002,1.428830e+001
8.725386e+002,1.306511e+001
8.735028e+002,1.240144e+001
8.744670e+002,1.262807e+001
8.754313e+002,1.347462e+001
8.763955e+002,1.455765e+001
8.773597e+002,1.587601e+001
8.783240e+002,1.719260e+001
8.792882e+002,1.818549e+001
8.802524e+002,1.911894e+001
8.812167e+002,2.058087e+001
8.821809e+002,2.242630e+001
8.831451e+002,2.358728e+001
8.841094e+002,2.254567e+001
8.850736e+002,1.956328e+001
8.860378e+002,1.906021e+001
8.870021e+002,2.145706e+001
8.879663e+002,2.416100e+001
8.889305e+002,2.603018e+001
8.898948e+002,2.704498e+001
8.908590e+002,2.713571e+001
8.918232e+002,2.560919e+001
8.927875e+002,2.441226e+001
8.937517e+002,2.388063e+001
8.947159e+002,2.385168e+001
8.956802e+002,2.427441e+001
8.966444e+002,2.500288e+001
8.976086e+002,2.568155e+001
8.985729e+002,2.601312e+001
8.995371e+002,2.620857e+001
9.005013e+002,2.657863e+001
9.014656e+002,2.712013e+001
9.024298e+002,2.755234e+001
9.033940e+002,2.756485e+001
9.043583e+002,2.720055e+001
9.053225e+002,2.739052e+001
9.062867e+002,2.907074e+001
9.072510e+002,2.992661e+001
9.082152e+002,2.955283e+001
9.091794e+002,2.877051e+001
9.101437e+002,2.844688e+001
9.111079e+002,2.871576e+001
9.120721e+002,2.865349e+001
9.130364e+002,2.697328e+001
9.140006e+002,2.527817e+001
9.149648e+002,2.471269e+001
9.159291e+002,2.500359e+001
9.168933e+002,2.519287e+001
9.178575e+002,2.458562e+001
9.188218e+002,2.368587e+001
9.197860e+002,2.480556e+001
9.207502e+002,2.801944e+001
9.217145e+002,2.942133e+001
9.226787e+002,2.747264e+001
9.236429e+002,2.438258e+001
9.246072e+002,2.307649e+001
9.255714e+002,2.382639e+001
9.265356e+002,2.454095e+001
9.274999e+002,2.510321e+001
9.284641e+002,2.525471e+001
9.294283e+002,2.469109e+001
9.303926e+002,2.376308e+001
9.313568e+002,2.296428e+001
9.323210e+002,2.252455e+001
9.332853e+002,2.244240e+001
9.342495e+002,2.321611e+001
9.352137e+002,2.422496e+001
9.361780e+002,2.458266e+001
9.371422e+002,2.415697e+001
9.381064e+002,2.304730e+001
9.390707e+002,2.111098e+001
9.400349e+002,1.786871e+001
9.409991e+002,1.646278e+001
9.419634e+002,1.846872e+001
9.429276e+002,1.998180e+001
9.438918e+002,1.980855e+001
9.448561e+002,1.859915e+001
9.458203e+002,1.734059e+001
9.467845e+002,1.619363e+001
9.477488e+002,1.568437e+001
9.487130e+002,1.700504e+001
9.496772e+002,1.851491e+001
9.506415e+002,1.861580e+001
9.516057e+002,1.747615e+001
9.525699e+002,1.656401e+001
9.535342e+002,1.733034e+001
9.544984e+002,1.943417e+001
9.554626e+002,2.011484e+001
9.564269e+002,1.934691e+001
9.573911e+002,1.845512e+001
9.583553e+002,1.745282e+001
9.593196e+002,1.661043e+001
9.602838e+002,1.662772e+001
9.612480e+002,1.788831e+001
9.622123e+002,1.832462e+001
9.631765e+002,1.653900e+001
9.641407e+002,1.467984e+001
9.651050e+002,1.352022e+001
9.660692e+002,1.306523e+001
9.670334e+002,1.319623e+001
9.679977e+002,1.390701e+001
9.689619e+002,1.485852e+001
9.699261e+002,1.473518e+001
9.708904e+002,1.400496e+001
9.718546e+002,1.460562e+001
9.728188e+002,1.718646e+001
9.737831e+002,2.011615e+001
9.747473e+002,2.108626e+001
9.757115e+002,1.961423e+001
9.766758e+002,1.895892e+001
9.776400e+002,1.974594e+001
9.786042e+002,2.073726e+001
9.795685e+002,2.240541e+001
9.805327e+002,2.367101e+001
9.814969e+002,2.286107e+001
9.824612e+002,1.945833e+001
9.834254e+002,1.581075e+001
9.843896e+002,1.417834e+001
9.853539e+002,1.343013e+001
9.863181e+002,1.235350e+001
9.872823e+002,1.092537e+001
9.882466e+002,9.899490e+000
9.892108e+002,1.003458e+001
9.901750e+002,1.117738e+001
9.911393e+002,1.135982e+001
9.921035e+002,9.154190e+000
9.930677e+002,7.852280e+000
9.940320e+002,8.159164e+000
9.949962e+002,9.126053e+000
9.959604e+002,1.018857e+001
9.969247e+002,1.124866e+001
9.978889e+002,1.157938e+001
9.988531e+002,9.924347e+000
9.998174e+002,8.322830e+000
1.000782e+003,8.224976e+000
1.001746e+003,9.042282e+000
1.002710e+003,9.958496e+000
1.003674e+003,1.052539e+001
1.004639e+003,1.065515e+001
1.005603e+003,1.013560e+001
1.006567e+003,8.858566e+000
1.007531e+003,7.997604e+000
1.008495e+003,7.317139e+000
1.009460e+003,7.457962e+000
1.010424e+003,9.829010e+000
1.011388e+003,1.353136e+001
1.012352e+003,1.442453e+001
1.013317e+003,9.903214e+000
1.014281e+003,6.812485e+000
1.015245e+003,8.673538e+000
1.016209e+003,1.114827e+001
1.017174e+003,1.069371e+001
1.018138e+003,7.540909e+000
1.019102e+003,4.788025e+000
1.020066e+003,5.117325e+000
1.021031e+003,7.159836e+000
1.021995e+003,6.247940e+000
1.022959e+003,3.023895e+000
1.023923e+003,1.313507e+000
1.024887e+003,2.804443e+000
1.025852e+003,5.562683e+000
1.026816e+003,6.522278e+000
1.027780e+003,5.355438e+000
1.028744e+003,4.221542e+000
1.029709e+003,2.958527e+000
1.030673e+003,2.082001e+000
1.031637e+003,2.103210e+000
1.032601e+003,2.412613e+000
1.033566e+003,2.092758e+000
1.034530e+003,8.657379e-001
1.035494e+003,-3.890839e-001
1.036458e+003,-7.169342e-001
1.037422e+003,-4.775848e-001
1.038387e+003,-3.011322e-001
1.039351e+003,-2.020569e-001
1.040315e+003,1.877899e-001
1.041279e+003,1.249496e+000
1.042244e+003,2.777161e+000
1.043208e+003,3.587143e+000
1.044172e+003,3.365051e+000
1.045136e+003,2.673538e+000
1.046101e+003,9.807587e-001
1.047065e+003,-5.253906e-001
1.048029e+003,-9.573212e-001
1.048993e+003,-5.305176e-001
1.049958e+003,-2.609711e-001
1.050922e+003,-7.834625e-001
1.051886e+003,-1.012131e+000
1.052850e+003,6.333466e-001
1.053814e+003,2.953964e+000
1.054779e+003,4.450241e+000
1.055743e+003,4.769989e+000
1.056707e+003,4.402206e+000
1.057671e+003,3.925552e+000
1.058636e+003,3.323074e+000
1.059600e+003,2.516663e+000
1.060564e+003,9.800262e-001
1.061528e+003,1.931305e-001
1.062493e+003,8.060455e-001
1.063457e+003,1.826691e+000
1.064421e+003,2.311493e+000
1.065385e+003,2.172165e+000
1.066349e+003,1.584915e+000
1.067314e+003,-7.405090e-002
1.068278e+003,-1.260162e+000
1.069242e+003,-6.910706e-001
1.070206e+003,9.978027e-001
1.071171e+003,3.055527e+000
1.072135e+003,4.967743e+000
1.073099e+003,6.150833e+000
1.074063e+003,5.592178e+000
1.075028e+003,3.089630e+000
1.075992e+003,1.744766e+000
1.076956e+003,1.982773e+000
1.077920e+003,2.285782e+000
1.078885e+003,2.112640e+000
1.079849e+003,1.743347e+000
1.080813e+003,1.673416e+000
1.081777e+003,2.035431e+000
1.082741e+003,2.392227e+000
1.083706e+003,2.151123e+000
1.084670e+003,2.020172e+000
1.085634e+003,2.715668e+000
1.086598e+003,3.780365e+000
1.087563e+003,4.197388e+000
1.088527e+003,3.494293e+000
1.089491e+003,2.480988e+000
1.090455e+003,2.736191e+000
1.091420e+003,4.376724e+000
1.092384e+003,4.965576e+000
1.093348e+003,4.236267e+000
1.094312e+003,2.884476e+000
1.095276e+003,8.504333e-001
1.096241e+003,-1.394409e+000
1.097205e+003,-2.416687e+000
1.098169e+003,-1.765640e+000
1.099133e+003,-8.843231e-001
1.100098e+003,1.832123e-001
1.101062e+003,9.064789e-001
1.102026e+003,6.584930e-001
1.102990e+003,-1.915436e-001
1.103955e+003,-8.647156e-001
1.104919e+003,-8.944397e-001
1.105883e+003,-3.768768e-001
1.106847e+003,7.088470e-001
1.107812e+003,2.327850e+000
1.108776e+003,2.997574e+000
1.109740e+003,2.338516e+000
1.110704e+003,1.393356e+000
1.111668e+003,8.004303e-001
1.112633e+003,6.062317e-001
1.113597e+003,9.238129e-001
1.114561e+003,2.094513e+000
1.115525e+003,2.838989e+000
1.116490e+003,2.436707e+000
1.117454e+003,1.837494e+000
1.118418e+003,1.796112e+000
1.119382e+003,2.171387e+000
1.120347e+003,2.253860e+000
1.121311e+003,1.550995e+000
1.122275e+003,4.412231e-001
1.123239e+003,-2.310333e-001
1.124203e+003,-3.213043e-001
1.125168e+003,5.255432e-001
1.126132e+003,2.836731e+000
1.127096e+003,4.855682e+000
1.128060e+003,4.917114e+000
1.129025e+003,3.439209e+000
1.129989e+003,2.540527e+000
1.130953e+003,2.486023e+000
1.131917e+003,2.670563e+000
1.132882e+003,3.467575e+000
1.133846e+003,3.971481e+000
1.134810e+003,3.201599e+000
1.135774e+003,1.725281e+000
1.136739e+003,9.952698e-001
1.137703e+003,1.804138e+000
1.138667e+003,3.131134e+000
1.139631e+003,2.980011e+000
1.140595e+003,1.635986e+000
1.141560e+003,1.791153e+000
1.142524e+003,3.951797e+000
1.143488e+003,6.437241e+000
1.144452e+003,7.874252e+000
1.145417e+003,8.694214e+000
1.146381e+003,1.067010e+001
1.147345e+003,1.452443e+001
1.148309e+003,1.760614e+001
1.149274e+003,1.885608e+001
1.150238e+003,1.973610e+001
1.151202e+003,2.061794e+001
1.152166e+003,2.184779e+001
1.153130e+003,2.406392e+001
1.154095e+003,2.739099e+001
1.155059e+003,3.055902e+001
1.156023e+003,3.175009e+001
1.156987e+003,3.120099e+001
1.157952e+003,3.127463e+001
1.158916e+003,3.243166e+001
1.159880e+003,3.246603e+001
1.160844e+003,2.941017e+001
1.161809e+003,2.444116e+001
1.162773e+003,2.044710e+001
1.163737e+003,1.767328e+001
1.164701e+003,1.485812e+001
1.165666e+003,1.089061e+001
1.166630e+003,7.793655e+000
1.167594e+003,6.822006e+000
1.168558e+003,6.955124e+000
1.169522e+003,6.774460e+000
1.170487e+003,5.867828e+000
1.171451e+003,5.033661e+000
1.172415e+003,5.226028e+000
1.173379e+003,6.133972e+000
1.174344e+003,6.186279e+000
1.175308e+003,5.417221e+000
1.176272e+003,4.441681e+000
1.177236e+003,3.426300e+000
1.178201e+003,2.367706e+000
1.179165e+003,9.079132e-001
1.180129e+003,-1.023453e+000
1.181093e+003,-1.693176e+000
1.182057e+003,4.165649e-001
1.183022e+003,2.189194e+000
1.183986e+003,2.314453e+000
1.184950e+003,1.724701e+000
1.185914e+003,1.048706e+000
1.186879e+003,6.125183e-001
1.187843e+003,8.124542e-001
1.188807e+003,1.980255e+000
1.189771e+003,3.550476e+000
1.190736e+003,3.799942e+000
1.191700e+003,2.561935e+000
1.192664e+003,1.552017e+000
1.193628e+003,7.203522e-001
1.194593e+003,4.758606e-001
1.195557e+003,1.611877e+000
1.196521e+003,3.577744e+000
1.197485e+003,4.434830e+000
1.198449e+003,3.761734e+000
1.199414e+003,2.426376e+000
1.200378e+003,-8.381653e-002
1.201342e+003,-2.290543e+000
1.202306e+003,-3.030212e+000
1.203271e+003,-2.772255e+000
1.204235e+003,-2.547447e+000
1.205199e+003,-2.883926e+000
1.206163e+003,-3.630112e+000
1.207128e+003,-4.628578e+000
1.208092e+003,-5.912399e+000
1.209056e+003,-6.036400e+000
1.210020e+003,-4.000351e+000
1.210984e+003,-2.954521e+000
1.211949e+003,-4.526657e+000
1.212913e+003,-7.142883e+000
1.213877e+003,-8.881630e+000
1.214841e+003,-9.579941e+000
1.215806e+003,-9.731979e+000
1.216770e+003,-9.115990e+000
1.217734e+003,-8.682861e+000
1.218698e+003,-9.409439e+000
1.219663e+003,-1.052524e+001
1.220627e+003,-1.101832e+001
1.221591e+003,-1.076393e+001
1.222555e+003,-1.034126e+001
1.223520e+003,-1.026687e+001
1.224484e+003,-1.048952e+001
1.225448e+003,-1.089654e+001
1.226412e+003,-1.180547e+001
1.227376e+003,-1.216309e+001
1.228341e+003,-1.170522e+001
1.229305e+003,-1.106211e+001
1.230269e+003,-1.024509e+001
1.231233e+003,-9.582588e+000
1.232198e+003,-9.917328e+000
1.233162e+003,-1.151204e+001
1.234126e+003,-1.269173e+001
1.235090e+003,-1.179616e+001
1.236055e+003,-1.041324e+001
1.237019e+003,-1.030840e+001
1.237983e+003,-1.115939e+001
1.238947e+003,-1.197118e+001
1.239911e+003,-1.229405e+001
1.240876e+003,-1.232803e+001
1.241840e+003,-1.240927e+001
1.242804e+003,-1.255014e+001
1.243768e+003,-1.245344e+001
1.244733e+003,-1.181454e+001
1.245697e+003,-1.133131e+001
1.246661e+003,-1.129855e+001
1.247625e+003,-1.133393e+001
1.248590e+003,-1.100344e+001
1.249554e+003,-1.040800e+001
1.250518e+003,-1.009447e+001
1.251482e+003,-1.037292e+001
1.252447e+003,-1.070312e+001
1.253411e+003,-1.024249e+001
1.254375e+003,-9.369095e+000
1.255339e+003,-8.986137e+000
1.256303e+003,-9.088379e+000
1.257268e+003,-9.200493e+000
1.258232e+003,-9.188126e+000
1.259196e+003,-8.991714e+000
1.260160e+003,-8.220581e+000
1.261125e+003,-6.626663e+000
1.262089e+003,-5.680641e+000
1.263053e+003,-5.978020e+000
1.264017e+003,-6.559044e+000
1.264982e+003,-7.967056e+000
1.265946e+003,-8.949860e+000
1.266910e+003,-7.434082e+000
1.267874e+003,-4.235603e+000
1.268839e+003,-2.872932e+000
1.269803e+003,-5.717453e+000
1.270767e+003,-1.023273e+001
1.271731e+003,-1.131718e+001
1.272695e+003,-9.039558e+000
1.273660e+003,-8.156410e+000
1.274624e+003,-9.349632e+000
1.275588e+003,-1.067711e+001
1.276552e+003,-1.100577e+001
1.277517e+003,-1.072673e+001
1.278481e+003,-1.073211e+001
1.279445e+003,-1.114024e+001
1.280409e+003,-1.106609e+001
1.281374e+003,-9.756180e+000
1.282338e+003,-8.516869e+000
1.283302e+003,-8.121819e+000
1.284266e+003,-8.116859e+000
1.285230e+003,-7.895653e+000
1.286195e+003,-7.456970e+000
1.287159e+003,-7.331635e+000
1.288123e+003,-7.933678e+000
1.289087e+003,-8.963089e+000
1.290052e+003,-9.604080e+000
1.291016e+003,-9.703468e+000
1.291980e+003,-1.016615e+001
1.292944e+003,-1.178570e+001
1.293909e+003,-1.282892e+001
1.294873e+003,-1.211633e+001
1.295837e+003,-1.064165e+001
1.296801e+003,-9.814163e+000
1.297766e+003,-9.802567e+000
1.298730e+003,-9.795952e+000
1.299694e+003,-9.262459e+000
1.300658e+003,-8.891121e+000
1.301622e+003,-9.829819e+000
1.302587e+003,-1.122533e+001
1.303551e+003,-1.165968e+001
1.304515e+003,-1.091317e+001
1.305479e+003,-9.800133e+000
1.306444e+003,-8.934311e+000
1.307408e+003,-8.340767e+000
1.308372e+003,-8.022560e+000
1.309336e+003,-7.961784e+000
1.310301e+003,-8.266411e+000
1.311265e+003,-9.299652e+000
1.312229e+003,-1.017696e+001
1.313193e+003,-1.069176e+001
1.314157e+003,-1.091119e+001
1.315122e+003,-1.081450e+001
1.316086e+003,-1.051468e+001
1.317050e+003,-1.034988e+001
1.318014e+003,-1.054078e+001
1.318979e+003,-1.070570e+001
1.319943e+003,-9.957047e+000
1.320907e+003,-8.486267e+000
1.321871e+003,-8.281158e+000
1.322836e+003,-9.909134e+000
1.323800e+003,-1.132552e+001
1.324764e+003,-1.135962e+001
1.325728e+003,-1.053410e+001
1.326693e+003,-9.520813e+000
1.327657e+003,-8.360214e+000
1.328621e+003,-8.076324e+000
1.329585e+003,-9.831970e+000
1.330549e+003,-1.062682e+001
1.331514e+003,-7.933052e+000
1.332478e+003,-4.702332e+000
1.333442e+003,-4.014320e+000
1.334406e+003,-5.526215e+000
1.335371e+003,-6.766388e+000
1.336335e+003,-6.252190e+000
1.337299e+003,-5.048622e+000
1.338263e+003,-5.239967e+000
1.339228e+003,-7.028740e+000
1.340192e+003,-8.296700e+000
1.341156e+003,-9.121933e+000
1.342120e+003,-9.375420e+000
1.343084e+003,-8.373650e+000
1.344049e+003,-7.482498e+000
1.345013e+003,-8.148499e+000
1.345977e+003,-9.811287e+000
1.346941e+003,-1.065424e+001
1.347906e+003,-1.001306e+001
1.348870e+003,-8.788651e+000
1.349834e+003,-7.543083e+000
1.350798e+003,-6.513710e+000
1.351763e+003,-6.136246e+000
1.352727e+003,-6.283302e+000
1.353691e+003,-6.201309e+000
1.354655e+003,-5.468864e+000
1.355620e+003,-4.912537e+000
1.356584e+003,-5.700760e+000
1.357548e+003,-7.635841e+000
1.358512e+003,-9.205833e+000
1.359476e+003,-1.071233e+001
1.360441e+003,-1.112227e+001
1.361405e+003,-8.915733e+000
1.362369e+003,-6.881248e+000
1.363333e+003,-6.415855e+000
1.364298e+003,-6.960258e+000
1.365262e+003,-7.908669e+000
1.366226e+003,-8.849709e+000
1.367190e+003,-9.048401e+000
1.368155e+003,-7.806747e+000
1.369119e+003,-5.935249e+000
1.370083e+003,-6.099327e+000
1.371047e+003,-9.107399e+000
1.372011e+003,-1.054922e+001
1.372976e+003,-9.633430e+000
1.373940e+003,-8.414009e+000
1.374904e+003,-7.437096e+000
1.375868e+003,-6.646828e+000
1.376833e+003,-6.037621e+000
1.377797e+003,-5.592720e+000
1.378761e+003,-5.097054e+000
1.379725e+003,-4.343147e+000
1.380690e+003,-3.835693e+000
1.381654e+003,-4.291618e+000
1.382618e+003,-5.209641e+000
1.383582e+003,-6.142357e+000
1.384547e+003,-6.960350e+000
1.385511e+003,-7.131004e+000
1.386475e+003,-6.276024e+000
1.387439e+003,-5.121101e+000
1.388403e+003,-4.789368e+000
1.389368e+003,-5.284706e+000
1.390332e+003,-5.764130e+000
1.391296e+003,-6.368134e+000
1.392260e+003,-6.524620e+000
1.393225e+003,-5.765533e+000
1.394189e+003,-4.974998e+000
1.395153e+003,-4.648560e+000
1.396117e+003,-4.623032e+000
1.397082e+003,-4.628860e+000
1.398046e+003,-4.537651e+000
1.399010e+003,-4.301765e+000
1.399974e+003,-3.907814e+000
1.400938e+003,-3.480751e+000
1.401903e+003,-3.222855e+000
1.402867e+003,-3.012215e+000
1.403831e+003,-2.806129e+000
1.404795e+003,-2.813896e+000
1.405760e+003,-2.698769e+000
1.406724e+003,-1.783234e+000
1.407688e+003,-1.277412e+000
1.408652e+003,-3.195663e+000
1.409617e+003,-6.937393e+000
1.410581e+003,-9.129105e+000
1.411545e+003,-8.302521e+000
1.412509e+003,-6.382828e+000
1.413474e+003,-4.588203e+000
1.414438e+003,-3.398720e+000
1.415402e+003,-3.879601e+000
1.416366e+003,-5.659317e+000
1.417330e+003,-6.747505e+000
1.418295e+003,-6.270805e+000
1.419259e+003,-5.231453e+000
1.420223e+003,-4.802765e+000
1.421187e+003,-4.905083e+000
1.422152e+003,-4.882370e+000
1.423116e+003,-4.805862e+000
1.424080e+003,-4.078018e+000
1.425044e+003,-1.249710e+000
1.426009e+003,7.259445e-001
1.426973e+003,-5.658722e-002
1.427937e+003,-1.984596e+000
1.428901e+003,-3.186691e+000
1.429865e+003,-3.388786e+000
1.430830e+003,-3.417870e+000
1.431794e+003,-3.845039e+000
1.432758e+003,-4.232262e+000
1.433722e+003,-3.581230e+000
1.434687e+003,-1.677887e+000
1.435651e+003,-3.539658e-001
1.436615e+003,1.307144e-001
1.437579e+003,1.509857e-002
1.438544e+003,-1.337135e+000
1.439508e+003,-2.566010e+000
1.440472e+003,-2.478851e+000
1.441436e+003,-1.631073e+000
1.442401e+003,-1.322327e+000
1.443365e+003,-1.828041e+000
1.444329e+003,-2.150429e+000
1.445293e+003,-1.464027e+000
1.446257e+003,-3.536224e-001
1.447222e+003,-5.363464e-003
1.448186e+003,-2.804413e-001
1.449150e+003,-3.673248e-001
1.450114e+003,-1.216202e-001
1.451079e+003,-8.522034e-002
1.452043e+003,-8.750229e-001
1.453007e+003,-1.709076e+000
1.453971e+003,-1.173279e+000
1.454936e+003,4.331818e-001
1.455900e+003,7.920456e-001
1.456864e+003,-9.506302e-001
1.457828e+003,-2.525620e+000
1.458792e+003,-2.199570e+000
1.459757e+003,-1.638458e+000
1.460721e+003,-2.439133e+000
1.461685e+003,-3.985237e+000
1.462649e+003,-4.998276e+000
1.463614e+003,-5.090439e+000
1.464578e+003,-4.466057e+000
1.465542e+003,-3.176643e+000
1.466506e+003,-1.632896e+000
1.467471e+003,-1.105576e+000
1.468435e+003,-1.828552e+000
1.469399e+003,-2.017967e+000
1.470363e+003,-1.093338e+000
1.471328e+003,-4.763031e-001
1.472292e+003,-7.371826e-001
1.473256e+003,-1.268715e+000
1.474220e+003,-1.708115e+000
1.475184e+003,-1.907410e+000
1.476149e+003,-1.774567e+000
1.477113e+003,-1.344894e+000
1.478077e+003,-7.715225e-001
1.479041e+003,-1.507111e-001
1.480006e+003,5.187759e-001
1.480970e+003,1.104996e+000
1.481934e+003,1.554337e+000
1.482898e+003,1.850815e+000
1.483863e+003,2.047279e+000
1.484827e+003,2.009247e+000
1.485791e+003,1.895157e+000
1.486755e+003,1.465584e+000
1.487719e+003,-1.262283e-001
1.488684e+003,-2.203888e+000
1.489648e+003,-2.766830e+000
1.490612e+003,-1.194725e+000
1.491576e+003,7.698746e-001
1.492541e+003,1.700783e+000
1.493505e+003,2.050430e+000
1.494469e+003,2.959000e+000
1.495433e+003,4.203461e+000
1.496398e+003,4.551826e+000
1.497362e+003,3.538467e+000
1.498326e+003,2.981033e+000
1.499290e+003,4.054794e+000
1.500255e+003,5.925735e+000
1.501219e+003,7.757423e+000
1.502183e+003,9.390350e+000
1.503147e+003,1.008649e+001
1.504111e+003,9.467522e+000
1.505076e+003,9.031212e+000
1.506040e+003,9.702934e+000
1.507004e+003,1.092269e+001
1.507968e+003,1.204296e+001
1.508933e+003,1.324261e+001
1.509897e+003,1.482275e+001
1.510861e+003,1.694562e+001
1.511825e+003,1.999155e+001
1.512790e+003,2.452428e+001
1.513754e+003,2.940626e+001
1.514718e+003,3.229972e+001
1.515682e+003,3.317146e+001
1.516646e+003,3.470599e+001
1.517611e+003,3.754953e+001
1.518575e+003,4.016529e+001
1.519539e+003,4.241694e+001
1.520503e+003,4.406303e+001
1.521468e+003,4.498639e+001
1.522432e+003,4.513849e+001
1.523396e+003,4.392997e+001
1.524360e+003,4.178391e+001
1.525325e+003,4.075222e+001
1.526289e+003,4.221191e+001
1.527253e+003,4.403484e+001
1.528217e+003,4.215810e+001
1.529182e+003,3.656277e+001
1.530146e+003,3.237559e+001
1.531110e+003,3.034132e+001
1.532074e+003,2.826469e+001
1.533039e+003,2.599777e+001
1.534003e+003,2.337703e+001
1.534967e+003,2.036565e+001
1.535931e+003,1.716007e+001
1.536896e+003,1.342816e+001
1.537860e+003,9.695290e+000
1.538824e+003,7.565208e+000
1.539788e+003,7.723289e+000
1.540752e+003,8.444336e+000
1.541717e+003,7.471893e+000
1.542681e+003,5.228760e+000
1.543645e+003,4.289986e+000
1.544609e+003,5.714928e+000
1.545573e+003,5.865227e+000
1.546538e+003,2.709335e+000
1.547502e+003,8.110886e-001
1.548466e+003,3.292572e+000
1.549430e+003,6.769318e+000
1.550395e+003,7.421890e+000
1.551359e+003,5.866348e+000
1.552323e+003,5.171761e+000
1.553287e+003,6.368111e+000
1.554252e+003,7.590370e+000
1.555216e+003,7.149597e+000
1.556180e+003,5.767448e+000
1.557144e+003,5.187744e+000
1.558109e+003,5.467384e+000
1.559073e+003,5.131813e+000
1.560037e+003,3.716820e+000
1.561001e+003,2.414894e+000
1.561966e+003,1.628082e+000
1.562930e+003,1.262062e+000
1.563894e+003,1.165077e+000
1.564858e+003,1.352264e+000
1.565823e+003,2.111794e+000
1.566787e+003,3.426193e+000
1.567751e+003,4.314400e+000
1.568715e+003,4.108902e+000
1.569679e+003,3.693512e+000
1.570644e+003,4.354607e+000
1.571608e+003,5.551147e+000
1.572572e+003,5.816498e+000
1.573536e+003,5.135277e+000
1.574500e+003,4.230164e+000
1.575465e+003,2.934669e+000
1.576429e+003,2.065620e+000
1.577393e+003,2.518631e+000
1.578357e+003,3.729362e+000
1.579322e+003,4.558823e+000
1.580286e+003,5.002739e+000
1.581250e+003,6.119019e+000
1.582214e+003,8.590111e+000
1.583179e+003,1.040507e+001
1.584143e+003,9.480484e+000
1.585107e+003,7.554222e+000
1.586071e+003,7.106064e+000
1.587036e+003,7.780960e+000
1.588000e+003,8.270714e+000
1.588964e+003,8.249359e+000
1.589928e+003,8.063141e+000
1.590893e+003,7.712723e+000
1.591857e+003,7.566605e+000
1.592821e+003,8.549484e+000
1.593785e+003,1.035571e+001
1.594750e+003,1.103158e+001
1.595714e+003,1.016099e+001
1.596678e+003,9.115967e+000
1.597642e+003,8.259392e+000
1.598606e+003,7.683319e+000
1.599571e+003,7.595772e+000
1.600535e+003,7.760864e+000
1.601499e+003,7.794785e+000
1.602463e+003,7.729317e+000
1.603427e+003,7.996361e+000
1.604392e+003,8.815430e+000
1.605356e+003,9.694420e+000
1.606320e+003,1.002445e+001
1.607284e+003,1.007147e+001
1.608249e+003,1.076571e+001
1.609213e+003,1.214507e+001
1.610177e+003,1.286324e+001
1.611141e+003,1.254938e+001
1.612106e+003,1.193957e+001
1.613070e+003,1.075906e+001
1.614034e+003,9.992653e+000
1.614998e+003,1.060542e+001
1.615963e+003,1.204159e+001
1.616927e+003,1.356380e+001
1.617891e+003,1.489276e+001
1.618855e+003,1.550623e+001
1.619820e+003,1.500861e+001
1.620784e+003,1.389920e+001
1.621748e+003,1.263672e+001
1.622712e+003,1.148841e+001
1.623677e+003,1.195651e+001
1.624641e+003,1.449129e+001
1.625605e+003,1.603430e+001
1.626569e+003,1.524672e+001
1.627533e+003,1.420564e+001
1.628498e+003,1.415176e+001
1.629462e+003,1.423329e+001
1.630426e+003,1.337505e+001
1.631390e+003,1.212792e+001
1.632354e+003,1.190437e+001
1.633319e+003,1.295832e+001
1.634283e+003,1.417746e+001
1.635247e+003,1.476125e+001
1.636211e+003,1.493525e+001
1.637176e+003,1.515629e+001
1.638140e+003,1.543145e+001
1.639104e+003,1.540122e+001
1.640068e+003,1.492079e+001
1.641033e+003,1.454895e+001
1.641997e+003,1.465929e+001
1.642961e+003,1.462579e+001
1.643925e+003,1.380948e+001
1.644890e+003,1.296038e+001
1.645854e+003,1.294004e+001
1.646818e+003,1.349071e+001
1.647782e+003,1.387983e+001
1.648747e+003,1.385165e+001
1.649711e+003,1.344439e+001
1.650675e+003,1.262131e+001
1.651639e+003,1.171243e+001
1.652604e+003,1.125433e+001
1.653568e+003,1.121574e+001
1.654532e+003,1.184138e+001
1.655496e+003,1.346183e+001
1.656460e+003,1.459128e+001
1.657425e+003,1.440212e+001
1.658389e+003,1.422054e+001
1.659353e+003,1.527480e+001
1.660317e+003,1.632302e+001
1.661281e+003,1.592386e+001
1.662246e+003,1.430125e+001
1.663210e+003,1.228084e+001
1.664174e+003,1.021111e+001
1.665138e+003,8.854744e+000
1.666103e+003,8.911270e+000
1.667067e+003,9.898041e+000
1.668031e+003,1.125250e+001
1.668995e+003,1.288085e+001
1.669960e+003,1.302518e+001
1.670924e+003,1.111704e+001
1.671888e+003,9.680367e+000
1.672852e+003,9.613747e+000
1.673817e+003,9.960556e+000
1.674781e+003,1.011009e+001
1.675745e+003,1.031052e+001
1.676709e+003,1.124688e+001
1.677674e+003,1.245743e+001
1.678638e+003,1.234681e+001
1.679602e+003,1.043697e+001
1.680566e+003,8.330185e+000
1.681531e+003,7.197334e+000
1.682495e+003,6.762245e+000
1.683459e+003,6.588226e+000
1.684423e+003,6.614929e+000
1.685387e+003,6.629852e+000
1.686352e+003,6.601280e+000
1.687316e+003,6.899689e+000
1.688280e+003,7.991455e+000
1.689244e+003,8.777046e+000
1.690208e+003,8.150223e+000
1.691173e+003,6.942200e+000
1.692137e+003,5.848259e+000
1.693101e+003,5.020241e+000
1.694065e+003,4.719482e+000
1.695030e+003,4.981522e+000
1.695994e+003,5.309464e+000
1.696958e+003,5.417656e+000
1.697922e+003,5.471878e+000
1.698887e+003,5.807510e+000
1.699851e+003,6.254631e+000
1.700815e+003,6.170280e+000
1.701779e+003,5.487137e+000
1.702744e+003,4.828011e+000
1.703708e+003,4.467361e+000
1.704672e+003,4.072639e+000
1.705636e+003,3.053329e+000
1.706601e+003,2.087372e+000
1.707565e+003,2.577782e+000
1.708529e+003,4.052666e+000
1.709493e+003,4.898872e+000
1.710458e+003,4.886337e+000
1.711422e+003,4.606155e+000
1.712386e+003,3.865669e+000
1.713350e+003,3.547050e+000
1.714314e+003,4.978714e+000
1.715279e+003,6.842155e+000
1.716243e+003,6.513374e+000
1.717207e+003,4.425713e+000
1.718171e+003,3.822548e+000
1.719135e+003,5.610214e+000
1.720100e+003,6.622147e+000
1.721064e+003,4.430481e+000
1.722028e+003,1.305946e+000
1.722992e+003,6.250153e-001
1.723957e+003,1.985695e+000
1.724921e+003,2.753586e+000
1.725885e+003,2.804619e+000
1.726849e+003,2.586853e+000
1.727814e+003,1.858536e+000
1.728778e+003,1.487595e+000
1.729742e+003,2.212189e+000
1.730706e+003,3.092163e+000
1.731671e+003,2.867691e+000
1.732635e+003,2.098297e+000
1.733599e+003,2.369270e+000
1.734563e+003,3.813011e+000
1.735528e+003,5.125336e+000
1.736492e+003,5.592728e+000
1.737456e+003,5.184692e+000
1.738420e+003,3.704697e+000
1.739385e+003,1.643898e+000
1.740349e+003,1.018288e+000
1.741313e+003,2.185478e+000
1.742277e+003,3.184052e+000
1.743241e+003,4.419304e+000
1.744206e+003,4.965897e+000
1.745170e+003,4.409325e+000
1.746134e+003,3.419281e+000
1.747098e+003,1.946526e+000
1.748063e+003,5.412979e-001
1.749027e+003,-2.617188e-001
1.749991e+003,-4.323730e-001
1.750955e+003,5.396271e-002
1.751919e+003,1.021645e+000
1.752884e+003,1.596931e+000
1.753848e+003,1.039536e+000
1.754812e+003,4.113770e-002
1.755776e+003,8.704376e-002
1.756741e+003,1.177238e+000
1.757705e+003,1.798912e+000
1.758669e+003,1.735863e+000
1.759633e+003,1.715523e+000
1.760598e+003,1.943687e+000
1.761562e+003,1.936050e+000
1.762526e+003,1.470184e+000
1.763490e+003,9.099884e-001
1.764455e+003,2.493515e-001
1.765419e+003,-1.888275e-001
1.766383e+003,2.775574e-001
1.767347e+003,1.437263e+000
1.768312e+003,2.085686e+000
1.769276e+003,1.633858e+000
1.770240e+003,8.641129e-001
1.771204e+003,6.266785e-001
1.772168e+003,7.621765e-001
1.773133e+003,7.677536e-001
1.774097e+003,6.715851e-001
1.775061e+003,8.371582e-001
1.776025e+003,1.304276e+000
1.776990e+003,1.529556e+000
1.777954e+003,1.099396e+000
1.778918e+003,1.121292e+000
1.779882e+003,3.283676e+000
1.780846e+003,5.522820e+000
1.781811e+003,4.388329e+000
1.782775e+003,1.100723e+000
1.783739e+003,-1.303635e-001
1.784703e+003,1.467384e+000
1.785668e+003,3.098785e+000
1.786632e+003,3.990707e+000
1.787596e+003,3.943047e+000
1.788560e+003,2.214668e+000
1.789525e+003,1.644135e-002
1.790489e+003,-1.242195e+000
1.791453e+003,-1.508797e+000
1.792417e+003,-6.841049e-001
1.793382e+003,1.090836e+000
1.794346e+003,2.590752e+000
1.795310e+003,3.175674e+000
1.796274e+003,3.051109e+000
1.797239e+003,2.347969e+000
1.798203e+003,1.448822e+000
1.799167e+003,1.429520e+000
1.800131e+003,2.355164e+000
1.801095e+003,3.000015e+000
1.802060e+003,3.472954e+000
1.803024e+003,3.719086e+000
1.803988e+003,3.524780e+000
1.804952e+003,3.285454e+000
1.805917e+003,3.427422e+000
1.806881e+003,3.408676e+000
1.807845e+003,2.321060e+000
1.808809e+003,7.968140e-001
1.809773e+003,2.346344e-001
1.810738e+003,8.206024e-001
1.811702e+003,1.454063e+000
1.812666e+003,1.450958e+000
1.813630e+003,1.520187e+000
1.814595e+003,2.762115e+000
1.815559e+003,4.669113e+000
1.816523e+003,5.067139e+000
1.817487e+003,3.810448e+000
1.818452e+003,2.782959e+000
1.819416e+003,2.033012e+000
1.820380e+003,1.793213e+000
1.821344e+003,2.362511e+000
1.822309e+003,3.017921e+000
1.823273e+003,3.326736e+000
1.824237e+003,3.592018e+000
1.825201e+003,4.311745e+000
1.826166e+003,5.162315e+000
1.827130e+003,5.217117e+000
1.828094e+003,4.320358e+000
1.829058e+003,3.388466e+000
1.830022e+003,2.965240e+000
1.830987e+003,2.492531e+000
1.831951e+003,1.304314e+000
1.832915e+003,-6.229401e-002
1.833879e+003,-1.018173e+000
1.834844e+003,-1.447403e+000
1.835808e+003,-8.676224e-001
1.836772e+003,6.332703e-001
1.837736e+003,1.623024e+000
1.838700e+003,1.431313e+000
1.839665e+003,1.186241e+000
1.840629e+003,2.031265e+000
1.841593e+003,3.241837e+000
1.842557e+003,3.112511e+000
1.843522e+003,1.671623e+000
1.844486e+003,1.343132e+000
1.845450e+003,3.200371e+000
1.846414e+003,4.225891e+000
1.847379e+003,3.616646e+000
1.848343e+003,3.116150e+000
1.849307e+003,3.371315e+000
1.850271e+003,3.817253e+000
1.851236e+003,4.188583e+000
1.852200e+003,4.434441e+000
1.853164e+003,4.604446e+000
1.854128e+003,4.539848e+000
1.855093e+003,3.600220e+000
1.856057e+003,1.792809e+000
1.857021e+003,9.228973e-001
1.857985e+003,2.665733e+000
1.858949e+003,5.195518e+000
1.859914e+003,5.276421e+000
1.860878e+003,3.330124e+000
1.861842e+003,1.288239e+000
1.862806e+003,-8.868484e-001
1.863771e+003,-1.061920e+000
1.864735e+003,1.614220e+000
1.865699e+003,3.922997e+000
1.866663e+003,4.428108e+000
1.867627e+003,4.320526e+000
1.868592e+003,4.535568e+000
1.869556e+003,4.809219e+000
1.870520e+003,4.688652e+000
1.871484e+003,4.231400e+000
1.872449e+003,3.854485e+000
1.873413e+003,3.742592e+000
1.874377e+003,3.711662e+000
1.875341e+003,3.448341e+000
1.876306e+003,3.343483e+000
1.877270e+003,3.975136e+000
1.878234e+003,4.498009e+000
1.879198e+003,3.725266e+000
1.880163e+003,2.400787e+000
1.881127e+003,2.158173e+000
1.882091e+003,2.918358e+000
1.883055e+003,3.146751e+000
1.884020e+003,2.254967e+000
1.884984e+003,1.246490e+000
1.885948e+003,1.020950e+000
1.886912e+003,1.492462e+000
1.887876e+003,2.652885e+000
1.888841e+003,4.388733e+000
1.889805e+003,5.055252e+000
1.890769e+003,4.384209e+000
1.891733e+003,4.123352e+000
1.892698e+003,4.610054e+000
1.893662e+003,4.983841e+000
1.894626e+003,4.886421e+000
1.895590e+003,4.720276e+000
1.896554e+003,4.999397e+000
1.897519e+003,5.249947e+000
1.898483e+003,4.361443e+000
1.899447e+003,2.876701e+000
1.900411e+003,3.109505e+000
1.901376e+003,5.581902e+000
1.902340e+003,7.379547e+000
1.903304e+003,7.117470e+000
1.904268e+003,6.366982e+000
1.905233e+003,6.129166e+000
1.906197e+003,5.862999e+000
1.907161e+003,4.694664e+000
1.908125e+003,3.265320e+000
1.909090e+003,2.744934e+000
1.910054e+003,3.107552e+000
1.911018e+003,3.701935e+000
1.911982e+003,4.296043e+000
1.912947e+003,4.991554e+000
1.913911e+003,5.853050e+000
1.914875e+003,6.737579e+000
1.915839e+003,7.434570e+000
1.916803e+003,7.856041e+000
1.917768e+003,7.752274e+000
1.918732e+003,7.144958e+000
1.919696e+003,5.963554e+000
1.920660e+003,3.674789e+000
1.921625e+003,2.461716e+000
1.922589e+003,3.240723e+000
1.923553e+003,4.375313e+000
1.924517e+003,5.354767e+000
1.925481e+003,6.024643e+000
1.926446e+003,6.119858e+000
1.927410e+003,5.862747e+000
1.928374e+003,5.517303e+000
1.929338e+003,5.141685e+000
1.930303e+003,5.385544e+000
1.931267e+003,6.838310e+000
1.932231e+003,7.789063e+000
1.933195e+003,6.935715e+000
1.934160e+003,5.842499e+000
1.935124e+003,5.765160e+000
1.936088e+003,5.970024e+000
1.937052e+003,5.128479e+000
1.938017e+003,4.029617e+000
1.938981e+003,5.028625e+000
1.939945e+003,7.845009e+000
1.940909e+003,9.324539e+000
1.941874e+003,8.131516e+000
1.942838e+003,6.446899e+000
1.943802e+003,6.360603e+000
1.944766e+003,6.923386e+000
1.945730e+003,5.901642e+000
1.946695e+003,3.612404e+000
1.947659e+003,3.106628e+000
1.948623e+003,4.533218e+000
1.949587e+003,5.915970e+000
1.950552e+003,7.071770e+000
1.951516e+003,8.257492e+000
1.952480e+003,9.812996e+000
1.953444e+003,1.084314e+001
1.954408e+003,1.032452e+001
1.955373e+003,9.271774e+000
1.956337e+003,9.442741e+000
1.957301e+003,1.036771e+001
1.958265e+003,9.969597e+000
1.959230e+003,7.971375e+000
1.960194e+003,6.737747e+000
1.961158e+003,6.757675e+000
1.962122e+003,7.148064e+000
1.963087e+003,8.336914e+000
1.964051e+003,9.076561e+000
1.965015e+003,8.170502e+000
1.965979e+003,6.986526e+000
1.966944e+003,6.917450e+000
1.967908e+003,7.566414e+000
1.968872e+003,8.122398e+000
1.969836e+003,8.367668e+000
1.970801e+003,8.233902e+000
1.971765e+003,7.744743e+000
1.972729e+003,7.469215e+000
1.973693e+003,7.933670e+000
1.974657e+003,8.714241e+000
1.975622e+003,9.321472e+000
1.976586e+003,9.661423e+000
1.977550e+003,9.343437e+000
1.978514e+003,8.552780e+000
1.979479e+003,8.303391e+000
1.980443e+003,8.701370e+000
1.981407e+003,8.944313e+000
1.982371e+003,8.734962e+000
1.983335e+003,8.760994e+000
1.984300e+003,9.575668e+000
1.985264e+003,1.053839e+001
1.986228e+003,1.065911e+001
1.987192e+003,1.013037e+001
1.988157e+003,9.973396e+000
1.989121e+003,1.032070e+001
1.990085e+003,1.046174e+001
1.991049e+003,1.038911e+001
1.992014e+003,1.018307e+001
1.992978e+003,9.732147e+000
1.993942e+003,9.256760e+000
1.994906e+003,8.514664e+000
1.995871e+003,8.099739e+000
1.996835e+003,8.767937e+000
1.997799e+003,9.882553e+000
1.998763e+003,1.051026e+001
1.999728e+003,1.063705e+001
