5.003444e+002,2.910956e+001
5.013087e+002,3.060797e+001
5.022729e+002,2.823010e+001
5.032371e+002,2.376202e+001
5.042014e+002,2.118640e+001
5.051656e+002,2.046429e+001
5.061298e+002,2.166058e+001
5.070941e+002,2.505902e+001
5.080583e+002,3.132568e+001
5.090225e+002,3.396631e+001
5.099868e+002,3.149200e+001
5.109510e+002,2.822516e+001
5.119152e+002,2.613580e+001
5.128795e+002,2.539984e+001
5.138437e+002,2.537634e+001
5.148079e+002,2.647687e+001
5.157722e+002,2.790302e+001
5.167364e+002,2.976300e+001
5.177006e+002,3.152771e+001
5.186649e+002,3.190857e+001
5.196291e+002,2.848920e+001
5.205933e+002,2.437604e+001
5.215576e+002,2.233350e+001
5.225218e+002,2.225043e+001
5.234860e+002,2.303668e+001
5.244503e+002,2.333990e+001
5.254145e+002,2.375244e+001
5.263787e+002,2.327454e+001
5.273430e+002,2.134125e+001
5.283072e+002,1.890887e+001
5.292714e+002,1.713849e+001
5.302357e+002,1.576099e+001
5.311999e+002,1.400476e+001
5.321641e+002,1.238190e+001
5.331284e+002,1.112695e+001
5.340926e+002,9.698730e+000
5.350568e+002,7.509521e+000
5.360211e+002,6.456482e+000
5.369853e+002,1.148114e+001
5.379495e+002,1.757990e+001
5.389138e+002,1.962250e+001
5.398780e+002,1.593555e+001
5.408422e+002,9.343506e+000
5.418065e+002,8.225891e+000
5.427707e+002,1.174487e+001
5.437349e+002,1.440698e+001
5.446992e+002,1.447681e+001
5.456634e+002,1.278925e+001
5.466276e+002,1.255334e+001
5.475919e+002,1.736304e+001
5.485561e+002,1.938025e+001
5.495203e+002,1.579004e+001
5.504846e+002,9.683533e+000
5.514488e+002,5.846008e+000
5.524130e+002,7.127502e+000
5.533773e+002,8.980652e+000
5.543415e+002,8.666748e+000
5.553057e+002,7.673523e+000
5.562700e+002,7.660889e+000
5.572342e+002,9.558655e+000
5.581984e+002,1.197314e+001
5.591627e+002,1.153522e+001
5.601269e+002,9.624939e+000
5.610911e+002,8.596497e+000
5.620554e+002,9.613831e+000
5.630196e+002,1.204205e+001
5.639838e+002,1.186169e+001
5.649481e+002,6.769043e+000
5.659123e+002,2.506714e+000
5.668765e+002,5.146484e-001
5.678408e+002,7.137451e-001
5.688050e+002,2.241638e+000
5.697692e+002,5.829712e+000
5.707335e+002,7.775513e+000
5.716977e+002,7.450012e+000
5.726619e+002,5.223083e+000
5.736262e+002,9.288940e-001
5.745904e+002,-6.095215e+000
5.755546e+002,-1.234180e+001
5.765189e+002,-1.265234e+001
5.774831e+002,-9.420654e+000
5.784473e+002,-5.796753e+000
5.794116e+002,-3.719421e+000
5.803758e+002,-2.695801e+000
5.813400e+002,-1.007507e+000
5.823043e+002,1.074829e+000
5.832685e+002,2.331604e+000
5.842327e+002,2.242188e+000
5.851970e+002,1.462158e+000
5.861612e+002,2.121216e+000
5.871254e+002,6.357605e+000
5.880897e+002,9.213379e+000
5.890539e+002,8.961182e+000
5.900181e+002,6.546936e+000
5.909824e+002,3.631348e+000
5.919466e+002,1.030579e+000
5.929108e+002,-6.475830e-001
5.938751e+002,-1.026001e-001
5.948393e+002,1.263611e+000
5.958035e+002,9.191895e-001
5.967678e+002,-2.853577e+000
5.977320e+002,-8.966370e+000
5.986962e+002,-1.008588e+001
5.996605e+002,-7.078857e+000
6.006247e+002,-3.384521e+000
6.015889e+002,-1.213379e-001
6.025532e+002,2.758667e+000
6.035174e+002,5.224304e+000
6.044816e+002,7.630066e+000
6.054459e+002,9.310608e+000
6.064101e+002,1.023230e+001
6.073743e+002,1.027808e+001
6.083386e+002,9.210144e+000
6.093028e+002,6.608521e+000
6.102670e+002,3.695313e+000
6.112313e+002,2.429199e-001
6.121955e+002,-2.663269e+000
6.131597e+002,-3.282837e+000
6.141240e+002,-4.981079e-001
6.150882e+002,4.535889e+000
6.160524e+002,7.635010e+000
6.170167e+002,9.382446e+000
6.179809e+002,9.768738e+000
6.189451e+002,7.971985e+000
6.199094e+002,4.177490e+000
6.208736e+002,1.775391e+000
6.218378e+002,3.954590e+000
6.228021e+002,4.965820e+000
6.237663e+002,3.931335e+000
6.247305e+002,1.699768e+000
6.256948e+002,-7.483521e-001
6.266590e+002,-4.002014e+000
6.276232e+002,-6.418213e+000
6.285875e+002,-6.905273e+000
6.295517e+002,-5.712402e+000
6.305159e+002,-2.391602e+000
6.314802e+002,2.896423e+000
6.324444e+002,8.060364e+000
6.334086e+002,6.383789e+000
6.343729e+002,5.187988e-001
6.353371e+002,-3.725281e+000
6.363013e+002,-4.203491e+000
6.372656e+002,-2.244568e+000
6.382298e+002,-2.204224e+000
6.391940e+002,-7.282898e+000
6.401583e+002,-1.044531e+001
6.411225e+002,-1.004108e+001
6.420867e+002,-7.447693e+000
6.430510e+002,-4.246033e+000
6.440152e+002,-6.956787e-001
6.449794e+002,1.021606e+000
6.459437e+002,-1.124695e+000
6.469079e+002,-4.420654e+000
6.478721e+002,-6.580078e+000
6.488364e+002,-6.750977e+000
6.498006e+002,-6.070923e+000
6.507648e+002,-7.273499e+000
6.517291e+002,-9.483765e+000
6.526933e+002,-9.696228e+000
6.536575e+002,-7.252686e+000
6.546218e+002,-3.928223e+000
6.555860e+002,-3.180115e+000
6.565502e+002,-6.978088e+000
6.575145e+002,-9.447327e+000
6.584787e+002,-1.050079e+001
6.594429e+002,-1.044495e+001
6.604072e+002,-9.297302e+000
6.613714e+002,-6.947693e+000
6.623356e+002,-4.275818e+000
6.632999e+002,-6.612549e-001
6.642641e+002,1.624573e+000
6.652283e+002,9.797974e-001
6.661926e+002,-1.947815e+000
6.671568e+002,-4.921814e+000
6.681210e+002,-5.505981e+000
6.690853e+002,-4.630676e+000
6.700495e+002,-4.253113e+000
6.710137e+002,-4.402222e+000
6.719780e+002,-4.997803e+000
6.729422e+002,-6.213928e+000
6.739064e+002,-8.742676e+000
6.748707e+002,-8.543945e+000
6.758349e+002,-2.836670e+000
6.767991e+002,1.394958e+000
6.777634e+002,5.347900e-001
6.787276e+002,-4.315063e+000
6.796918e+002,-7.087830e+000
6.806561e+002,-4.078491e+000
6.816203e+002,-1.155151e+000
6.825845e+002,-7.099609e-001
6.835488e+002,-1.864075e+000
6.845130e+002,-3.045837e+000
6.854772e+002,-3.088806e+000
6.864415e+002,-1.595032e+000
6.874057e+002,2.454651e+000
6.883699e+002,7.395996e+000
6.893342e+002,9.982300e+000
6.902984e+002,8.433960e+000
6.912626e+002,3.470764e+000
6.922269e+002,-1.034302e+000
6.931911e+002,-5.903442e+000
6.941553e+002,-7.523071e+000
6.951196e+002,-4.042969e+000
6.960838e+002,1.436401e+000
6.970480e+002,4.293335e+000
6.980123e+002,2.938110e+000
6.989765e+002,1.206970e+000
6.999407e+002,3.563843e-001
7.009050e+002,-2.532959e-002
7.018692e+002,-1.575928e-001
7.028334e+002,-2.378540e-001
7.037977e+002,-5.095215e-001
7.047619e+002,-1.221191e+000
7.057261e+002,-1.762451e+000
7.066904e+002,-1.494995e+000
7.076546e+002,-3.571167e-001
7.086188e+002,8.444824e-001
7.095831e+002,6.796265e-001
7.105473e+002,-2.145264e+000
7.115115e+002,-2.961304e+000
7.124758e+002,-8.188477e-001
7.134400e+002,1.590759e+000
7.144042e+002,3.326111e+000
7.153685e+002,4.451233e+000
7.163327e+002,4.383789e+000
7.172969e+002,1.224426e+000
7.182612e+002,-1.634399e+000
7.192254e+002,-3.154724e+000
7.201896e+002,-3.501465e+000
7.211539e+002,-3.054382e+000
7.221181e+002,-1.933777e+000
7.230823e+002,-5.895996e-001
7.240466e+002,-1.239014e-002
7.250108e+002,2.863770e-001
7.259750e+002,2.052612e-001
7.269393e+002,-9.283447e-001
7.279035e+002,-3.403931e+000
7.288677e+002,-5.112732e+000
7.298320e+002,-3.794556e+000
7.307962e+002,-2.313660e+000
7.317604e+002,-7.913208e-001
7.327247e+002,9.138184e-001
7.336889e+002,2.717529e+000
7.346531e+002,4.017944e+000
7.356174e+002,3.925720e+000
7.365816e+002,2.810303e+000
7.375458e+002,1.626526e+000
7.385101e+002,9.254150e-001
7.394743e+002,8.648682e-001
7.404385e+002,1.174194e+000
7.414028e+002,1.104919e+000
7.423670e+002,-3.778076e-002
7.433312e+002,-3.596802e-001
7.442955e+002,1.160217e+000
7.452597e+002,3.528809e+000
7.462239e+002,5.260803e+000
7.471882e+002,5.973694e+000
7.481524e+002,6.484131e+000
7.491166e+002,5.011780e+000
7.500809e+002,3.839111e+000
7.510451e+002,4.824158e+000
7.520093e+002,7.058044e+000
7.529736e+002,7.155273e+000
7.539378e+002,2.597839e+000
7.549020e+002,-1.628967e+000
7.558663e+002,-2.621887e+000
7.568306e+002,-1.449036e+000
7.577948e+002,2.562866e-001
7.587590e+002,1.329773e+000
7.597233e+002,1.923950e+000
7.606875e+002,4.150452e+000
7.616517e+002,8.084717e+000
7.626160e+002,1.043091e+001
7.635802e+002,1.017542e+001
7.645444e+002,8.290283e+000
7.655087e+002,6.444214e+000
7.664729e+002,3.915039e+000
7.674371e+002,2.831116e+000
7.684014e+002,4.333618e+000
7.693656e+002,5.984009e+000
7.703298e+002,6.132202e+000
7.712941e+002,4.756958e+000
7.722583e+002,3.554993e+000
7.732225e+002,4.181274e+000
7.741868e+002,4.984497e+000
7.751510e+002,4.203918e+000
7.761152e+002,2.498840e+000
7.770795e+002,1.671265e+000
7.780437e+002,3.264404e+000
7.790079e+002,6.650391e+000
7.799722e+002,7.345825e+000
7.809364e+002,5.210083e+000
7.819006e+002,3.142395e+000
7.828649e+002,3.272522e+000
7.838291e+002,4.890259e+000
7.847933e+002,4.441772e+000
7.857576e+002,-1.167969e+000
7.867218e+002,-5.333862e+000
7.876860e+002,-5.909729e+000
7.886503e+002,-4.542053e+000
7.896145e+002,-2.065979e+000
7.905787e+002,1.059814e+000
7.915430e+002,3.732483e+000
7.925072e+002,3.909546e+000
7.934714e+002,2.449341e+000
7.944357e+002,1.907349e-001
7.953999e+002,-2.016235e+000
7.963641e+002,-2.561096e+000
7.973284e+002,3.275146e-001
7.982926e+002,7.011292e+000
7.992568e+002,9.871399e+000
8.002211e+002,6.468689e+000
8.011853e+002,2.208740e+000
8.021495e+002,-2.462158e-001
8.031138e+002,-5.162964e-001
8.040780e+002,2.554932e-001
8.050422e+002,1.184204e+000
8.060065e+002,2.813538e+000
8.069707e+002,6.010010e+000
8.079349e+002,8.836426e+000
8.088992e+002,9.314209e+000
8.098634e+002,7.139038e+000
8.108276e+002,4.438965e+000
8.117919e+002,3.883118e+000
8.127561e+002,3.786133e+000
8.137203e+002,2.120544e+000
8.146846e+002,-7.122803e-001
8.156488e+002,-2.486694e+000
8.166130e+002,-6.099854e-001
8.175773e+002,5.715149e+000
8.185415e+002,9.979675e+000
8.195057e+002,1.040717e+001
8.204700e+002,1.039056e+001
8.214342e+002,1.097296e+001
8.223984e+002,1.199121e+001
8.233627e+002,1.281549e+001
8.243269e+002,1.318109e+001
8.252911e+002,1.395190e+001
8.262554e+002,1.689319e+001
8.272196e+002,1.960754e+001
8.281838e+002,1.847589e+001
8.291481e+002,1.284430e+001
8.301123e+002,6.501587e+000
8.310765e+002,6.647522e+000
8.320408e+002,1.260791e+001
8.330050e+002,1.572467e+001
8.339692e+002,1.522675e+001
8.349335e+002,1.336462e+001
8.358977e+002,1.246625e+001
8.368619e+002,1.298291e+001
8.378262e+002,1.346838e+001
8.387904e+002,1.300165e+001
8.397546e+002,1.261493e+001
8.407189e+002,1.269720e+001
8.416831e+002,1.310669e+001
8.426473e+002,1.360712e+001
8.436116e+002,1.420587e+001
8.445758e+002,1.478986e+001
8.455400e+002,1.415387e+001
8.465043e+002,1.280634e+001
8.474685e+002,1.229742e+001
8.484327e+002,1.332983e+001
8.493970e+002,1.518146e+001
8.503612e+002,1.593250e+001
8.513254e+002,1.507166e+001
8.522897e+002,1.475391e+001
8.532539e+002,1.446124e+001
8.542181e+002,1.454749e+001
8.551824e+002,1.642639e+001
8.561466e+002,2.028259e+001
8.571108e+002,2.304559e+001
8.580751e+002,2.083704e+001
8.590393e+002,1.901855e+001
8.600035e+002,2.094647e+001
8.609678e+002,2.428473e+001
8.619320e+002,2.585962e+001
8.628962e+002,2.444305e+001
8.638605e+002,2.236829e+001
8.648247e+002,2.382617e+001
8.657889e+002,2.703156e+001
8.667532e+002,2.829327e+001
8.677174e+002,2.712988e+001
8.686816e+002,2.505145e+001
8.696459e+002,2.376678e+001
8.706101e+002,2.354517e+001
8.715743e+002,2.445465e+001
8.725386e+002,2.802722e+001
8.735028e+002,3.081085e+001
8.744670e+002,3.061346e+001
8.754313e+002,2.857068e+001
8.763955e+002,2.729242e+001
8.773597e+002,2.787976e+001
8.783240e+002,2.955920e+001
8.792882e+002,3.319757e+001
8.802524e+002,3.616766e+001
8.812167e+002,3.546667e+001
8.821809e+002,3.108923e+001
8.831451e+002,2.568951e+001
8.841094e+002,2.271301e+001
8.850736e+002,2.265649e+001
8.860378e+002,2.464832e+001
8.870021e+002,2.883032e+001
8.879663e+002,3.300879e+001
8.889305e+002,3.625769e+001
8.898948e+002,3.829352e+001
8.908590e+002,3.819073e+001
8.918232e+002,3.383087e+001
8.927875e+002,3.176483e+001
8.937517e+002,3.523608e+001
8.947159e+002,3.994415e+001
8.956802e+002,4.148041e+001
8.966444e+002,3.897906e+001
8.976086e+002,3.601440e+001
8.985729e+002,3.722510e+001
8.995371e+002,4.041125e+001
9.005013e+002,4.090527e+001
9.014656e+002,3.926959e+001
9.024298e+002,3.763794e+001
9.033940e+002,3.721625e+001
9.043583e+002,3.759222e+001
9.053225e+002,3.879303e+001
9.062867e+002,4.264014e+001
9.072510e+002,4.400891e+001
9.082152e+002,4.155804e+001
9.091794e+002,3.857281e+001
9.101437e+002,3.854413e+001
9.111079e+002,4.199872e+001
9.120721e+002,4.493054e+001
9.130364e+002,4.303986e+001
9.140006e+002,4.068066e+001
9.149648e+002,4.096198e+001
9.159291e+002,4.353503e+001
9.168933e+002,4.688538e+001
9.178575e+002,4.966125e+001
9.188218e+002,5.133850e+001
9.197860e+002,5.066412e+001
9.207502e+002,4.741144e+001
9.217145e+002,4.326501e+001
9.226787e+002,3.821521e+001
9.236429e+002,3.393695e+001
9.246072e+002,3.258246e+001
9.255714e+002,3.437360e+001
9.265356e+002,3.576398e+001
9.274999e+002,3.448474e+001
9.284641e+002,3.407330e+001
9.294283e+002,3.754987e+001
9.303926e+002,4.279779e+001
9.313568e+002,4.575488e+001
9.323210e+002,4.421075e+001
9.332853e+002,4.055530e+001
9.342495e+002,3.789728e+001
9.352137e+002,3.578333e+001
9.361780e+002,3.451202e+001
9.371422e+002,3.448785e+001
9.381064e+002,3.460425e+001
9.390707e+002,3.239960e+001
9.400349e+002,2.619897e+001
9.409991e+002,2.540698e+001
9.419634e+002,3.516052e+001
9.429276e+002,4.270117e+001
9.438918e+002,4.400946e+001
9.448561e+002,4.147418e+001
9.458203e+002,3.856097e+001
9.467845e+002,3.576727e+001
9.477488e+002,3.579492e+001
9.487130e+002,4.384106e+001
9.496772e+002,5.300909e+001
9.506415e+002,5.803442e+001
9.516057e+002,5.854956e+001
9.525699e+002,5.670795e+001
9.535342e+002,5.451794e+001
9.544984e+002,5.183545e+001
9.554626e+002,4.910492e+001
9.564269e+002,4.658417e+001
9.573911e+002,4.608984e+001
9.583553e+002,4.936639e+001
9.593196e+002,5.407379e+001
9.602838e+002,5.629401e+001
9.612480e+002,5.515088e+001
9.622123e+002,5.375153e+001
9.631765e+002,5.262860e+001
9.641407e+002,5.220166e+001
9.651050e+002,5.364026e+001
9.660692e+002,5.544043e+001
9.670334e+002,5.474792e+001
9.679977e+002,5.003009e+001
9.689619e+002,4.407727e+001
9.699261e+002,4.144208e+001
9.708904e+002,4.114124e+001
9.718546e+002,4.295013e+001
9.728188e+002,4.708649e+001
9.737831e+002,5.119208e+001
9.747473e+002,5.189606e+001
9.757115e+002,4.838342e+001
9.766758e+002,4.695435e+001
9.776400e+002,4.995325e+001
9.786042e+002,5.309155e+001
9.795685e+002,5.624823e+001
9.805327e+002,5.785187e+001
9.814969e+002,5.537592e+001
9.824612e+002,4.828174e+001
9.834254e+002,4.208801e+001
9.843896e+002,4.217249e+001
9.853539e+002,4.534351e+001
9.863181e+002,4.953333e+001
9.872823e+002,5.363440e+001
9.882466e+002,5.583301e+001
9.892108e+002,5.499548e+001
9.901750e+002,5.261078e+001
9.911393e+002,5.402448e+001
9.921035e+002,6.069208e+001
9.930677e+002,6.582312e+001
9.940320e+002,6.830042e+001
9.949962e+002,7.092993e+001
9.959604e+002,7.653436e+001
9.969247e+002,8.530170e+001
9.978889e+002,9.441205e+001
9.988531e+002,1.030272e+002
9.998174e+002,1.090883e+002
1.000782e+003,1.114113e+002
1.001746e+003,1.115996e+002
1.002710e+003,1.110876e+002
1.003674e+003,1.107193e+002
1.004639e+003,1.113143e+002
1.005603e+003,1.145956e+002
1.006567e+003,1.206855e+002
1.007531e+003,1.248274e+002
1.008495e+003,1.271475e+002
1.009460e+003,1.277503e+002
1.010424e+003,1.256022e+002
1.011388e+003,1.218337e+002
1.012352e+003,1.211385e+002
1.013317e+003,1.270460e+002
1.014281e+003,1.289396e+002
1.015245e+003,1.213818e+002
1.016209e+003,1.109821e+002
1.017174e+003,1.023418e+002
1.018138e+003,9.604773e+001
1.019102e+003,8.988379e+001
1.020066e+003,8.205756e+001
1.021031e+003,7.393671e+001
1.021995e+003,6.843677e+001
1.022959e+003,6.456604e+001
1.023923e+003,6.135046e+001
1.024887e+003,5.858136e+001
1.025852e+003,5.587885e+001
1.026816e+003,5.302075e+001
1.027780e+003,5.059436e+001
1.028744e+003,4.737097e+001
1.029709e+003,4.080017e+001
1.030673e+003,3.603943e+001
1.031637e+003,3.595691e+001
1.032601e+003,3.772192e+001
1.033566e+003,3.752460e+001
1.034530e+003,3.420630e+001
1.035494e+003,2.994653e+001
1.036458e+003,2.597852e+001
1.037422e+003,2.294891e+001
1.038387e+003,2.276465e+001
1.039351e+003,2.495178e+001
1.040315e+003,2.636945e+001
1.041279e+003,2.452386e+001
1.042244e+003,2.086157e+001
1.043208e+003,2.171991e+001
1.044172e+003,3.140863e+001
1.045136e+003,3.704010e+001
1.046101e+003,3.685822e+001
1.047065e+003,3.490863e+001
1.048029e+003,3.286816e+001
1.048993e+003,3.103381e+001
1.049958e+003,2.982507e+001
1.050922e+003,2.984857e+001
1.051886e+003,3.049646e+001
1.052850e+003,3.061853e+001
1.053814e+003,3.090820e+001
1.054779e+003,3.277014e+001
1.055743e+003,3.616345e+001
1.056707e+003,3.928754e+001
1.057671e+003,3.999988e+001
1.058636e+003,3.816705e+001
1.059600e+003,3.600092e+001
1.060564e+003,3.314795e+001
1.061528e+003,3.189948e+001
1.062493e+003,3.315350e+001
1.063457e+003,3.470203e+001
1.064421e+003,3.467029e+001
1.065385e+003,3.305212e+001
1.066349e+003,3.033185e+001
1.067314e+003,2.503101e+001
1.068278e+003,2.089203e+001
1.069242e+003,2.100134e+001
1.070206e+003,2.403278e+001
1.071171e+003,2.813409e+001
1.072135e+003,3.198718e+001
1.073099e+003,3.451868e+001
1.074063e+003,3.422058e+001
1.075028e+003,3.094623e+001
1.075992e+003,2.949469e+001
1.076956e+003,3.133325e+001
1.077920e+003,3.136133e+001
1.078885e+003,2.598547e+001
1.079849e+003,1.895355e+001
1.080813e+003,1.756866e+001
1.081777e+003,2.400122e+001
1.082741e+003,2.986005e+001
1.083706e+003,2.921295e+001
1.084670e+003,2.710913e+001
1.085634e+003,2.628961e+001
1.086598e+003,2.616602e+001
1.087563e+003,2.492633e+001
1.088527e+003,2.192725e+001
1.089491e+003,1.884650e+001
1.090455e+003,1.819537e+001
1.091420e+003,1.985095e+001
1.092384e+003,2.181598e+001
1.093348e+003,2.450922e+001
1.094312e+003,2.596362e+001
1.095276e+003,2.413293e+001
1.096241e+003,2.088300e+001
1.097205e+003,2.143585e+001
1.098169e+003,2.764471e+001
1.099133e+003,3.270490e+001
1.100098e+003,3.460425e+001
1.101062e+003,3.473212e+001
1.102026e+003,3.212744e+001
1.102990e+003,2.869434e+001
1.103955e+003,2.812720e+001
1.104919e+003,3.252161e+001
1.105883e+003,3.955457e+001
1.106847e+003,4.504437e+001
1.107812e+003,4.870087e+001
1.108776e+003,4.966443e+001
1.109740e+003,4.691418e+001
1.110704e+003,4.354102e+001
1.111668e+003,4.204443e+001
1.112633e+003,4.244379e+001
1.113597e+003,4.329291e+001
1.114561e+003,4.406909e+001
1.115525e+003,4.509949e+001
1.116490e+003,4.626819e+001
1.117454e+003,4.770154e+001
1.118418e+003,4.978156e+001
1.119382e+003,5.283893e+001
1.120347e+003,5.717517e+001
1.121311e+003,6.252100e+001
1.122275e+003,6.709094e+001
1.123239e+003,6.837561e+001
1.124203e+003,6.737762e+001
1.125168e+003,6.789996e+001
1.126132e+003,7.079761e+001
1.127096e+003,7.418665e+001
1.128060e+003,7.581372e+001
1.129025e+003,7.615161e+001
1.129989e+003,7.870929e+001
1.130953e+003,8.487128e+001
1.131917e+003,9.000146e+001
1.132882e+003,9.273523e+001
1.133846e+003,9.485303e+001
1.134810e+003,9.680310e+001
1.135774e+003,9.922699e+001
1.136739e+003,1.028101e+002
1.137703e+003,1.078992e+002
1.138667e+003,1.144879e+002
1.139631e+003,1.231929e+002
1.140595e+003,1.336140e+002
1.141560e+003,1.426071e+002
1.142524e+003,1.490770e+002
1.143488e+003,1.592570e+002
1.144452e+003,1.789010e+002
1.145417e+003,2.054742e+002
1.146381e+003,2.294739e+002
1.147345e+003,2.490447e+002
1.148309e+003,2.697984e+002
1.149274e+003,2.928875e+002
1.150238e+003,3.182217e+002
1.151202e+003,3.478992e+002
1.152166e+003,3.799136e+002
1.153130e+003,4.120574e+002
1.154095e+003,4.422126e+002
1.155059e+003,4.655406e+002
1.156023e+003,4.754553e+002
1.156987e+003,4.727693e+002
1.157952e+003,4.678146e+002
1.158916e+003,4.623669e+002
1.159880e+003,4.518907e+002
1.160844e+003,4.300782e+002
1.161809e+003,4.006569e+002
1.162773e+003,3.742506e+002
1.163737e+003,3.521239e+002
1.164701e+003,3.278199e+002
1.165666e+003,2.957656e+002
1.166630e+003,2.662516e+002
1.167594e+003,2.422036e+002
1.168558e+003,2.232644e+002
1.169522e+003,2.089952e+002
1.170487e+003,1.989660e+002
1.171451e+003,1.926785e+002
1.172415e+003,1.897054e+002
1.173379e+003,1.894592e+002
1.174344e+003,1.899409e+002
1.175308e+003,1.914270e+002
1.176272e+003,1.924789e+002
1.177236e+003,1.937005e+002
1.178201e+003,1.938619e+002
1.179165e+003,1.904724e+002
1.180129e+003,1.830507e+002
1.181093e+003,1.754647e+002
1.182057e+003,1.682720e+002
1.183022e+003,1.620297e+002
1.183986e+003,1.562248e+002
1.184950e+003,1.518733e+002
1.185914e+003,1.509406e+002
1.186879e+003,1.529032e+002
1.187843e+003,1.546503e+002
1.188807e+003,1.534161e+002
1.189771e+003,1.505953e+002
1.190736e+003,1.514866e+002
1.191700e+003,1.565483e+002
1.192664e+003,1.599938e+002
1.193628e+003,1.622548e+002
1.194593e+003,1.623765e+002
1.195557e+003,1.585805e+002
1.196521e+003,1.518254e+002
1.197485e+003,1.458949e+002
1.198449e+003,1.418048e+002
1.199414e+003,1.374634e+002
1.200378e+003,1.308210e+002
1.201342e+003,1.247055e+002
1.202306e+003,1.212068e+002
1.203271e+003,1.192937e+002
1.204235e+003,1.168318e+002
1.205199e+003,1.128793e+002
1.206163e+003,1.083411e+002
1.207128e+003,1.046567e+002
1.208092e+003,1.019856e+002
1.209056e+003,9.733130e+001
1.210020e+003,8.986096e+001
1.210984e+003,8.257996e+001
1.211949e+003,7.704327e+001
1.212913e+003,7.144183e+001
1.213877e+003,6.252063e+001
1.214841e+003,5.047083e+001
1.215806e+003,4.199438e+001
1.216770e+003,4.137793e+001
1.217734e+003,4.209991e+001
1.218698e+003,3.963531e+001
1.219663e+003,3.520569e+001
1.220627e+003,2.949963e+001
1.221591e+003,2.339368e+001
1.222555e+003,1.911670e+001
1.223520e+003,1.894330e+001
1.224484e+003,2.190070e+001
1.225448e+003,2.219495e+001
1.226412e+003,1.767664e+001
1.227376e+003,1.495630e+001
1.228341e+003,1.498877e+001
1.229305e+003,1.528497e+001
1.230269e+003,1.400153e+001
1.231233e+003,1.209692e+001
1.232198e+003,1.203003e+001
1.233162e+003,1.475684e+001
1.234126e+003,1.822498e+001
1.235090e+003,2.191876e+001
1.236055e+003,2.381610e+001
1.237019e+003,2.040527e+001
1.237983e+003,1.361255e+001
1.238947e+003,9.285278e+000
1.239911e+003,1.009338e+001
1.240876e+003,1.274078e+001
1.241840e+003,1.178131e+001
1.242804e+003,6.898926e+000
1.243768e+003,4.827576e+000
1.244733e+003,7.667969e+000
1.245697e+003,1.085034e+001
1.246661e+003,1.375336e+001
1.247625e+003,1.614508e+001
1.248590e+003,1.825818e+001
1.249554e+003,2.040869e+001
1.250518e+003,2.237805e+001
1.251482e+003,2.369788e+001
1.252447e+003,2.536066e+001
1.253411e+003,2.990253e+001
1.254375e+003,3.582642e+001
1.255339e+003,3.946387e+001
1.256303e+003,4.092529e+001
1.257268e+003,4.153857e+001
1.258232e+003,4.118988e+001
1.259196e+003,4.029462e+001
1.260160e+003,4.033484e+001
1.261125e+003,4.163831e+001
1.262089e+003,4.502026e+001
1.263053e+003,5.293201e+001
1.264017e+003,5.885797e+001
1.264982e+003,6.120026e+001
1.265946e+003,6.140771e+001
1.266910e+003,6.023499e+001
1.267874e+003,5.833057e+001
1.268839e+003,5.691052e+001
1.269803e+003,5.685315e+001
1.270767e+003,5.669287e+001
1.271731e+003,5.311267e+001
1.272695e+003,4.655396e+001
1.273660e+003,4.280603e+001
1.274624e+003,4.234717e+001
1.275588e+003,4.143835e+001
1.276552e+003,3.792688e+001
1.277517e+003,3.366589e+001
1.278481e+003,3.168262e+001
1.279445e+003,3.211353e+001
1.280409e+003,3.257617e+001
1.281374e+003,3.293347e+001
1.282338e+003,3.244250e+001
1.283302e+003,2.967834e+001
1.284266e+003,2.644067e+001
1.285230e+003,2.509595e+001
1.286195e+003,2.557996e+001
1.287159e+003,2.605103e+001
1.288123e+003,2.522620e+001
1.289087e+003,2.339355e+001
1.290052e+003,2.026355e+001
1.291016e+003,1.441162e+001
1.291980e+003,1.104858e+001
1.292944e+003,1.147400e+001
1.293909e+003,1.150916e+001
1.294873e+003,8.852173e+000
1.295837e+003,6.107056e+000
1.296801e+003,7.533569e+000
1.297766e+003,1.329309e+001
1.298730e+003,1.792529e+001
1.299694e+003,1.789819e+001
1.300658e+003,1.608313e+001
1.301622e+003,1.559509e+001
1.302587e+003,1.610669e+001
1.303551e+003,1.724707e+001
1.304515e+003,1.899194e+001
1.305479e+003,2.053235e+001
1.306444e+003,2.096606e+001
1.307408e+003,2.023621e+001
1.308372e+003,1.851965e+001
1.309336e+003,1.452930e+001
1.310301e+003,1.349365e+001
1.311265e+003,1.971802e+001
1.312229e+003,2.444714e+001
1.313193e+003,2.413000e+001
1.314157e+003,2.147717e+001
1.315122e+003,1.907104e+001
1.316086e+003,1.735559e+001
1.317050e+003,1.555054e+001
1.318014e+003,1.330823e+001
1.318979e+003,1.170972e+001
1.319943e+003,1.284277e+001
1.320907e+003,1.649414e+001
1.321871e+003,1.847534e+001
1.322836e+003,1.770496e+001
1.323800e+003,1.601563e+001
1.324764e+003,1.316602e+001
1.325728e+003,1.082166e+001
1.326693e+003,1.262292e+001
1.327657e+003,1.847046e+001
1.328621e+003,2.135925e+001
1.329585e+003,1.882556e+001
1.330549e+003,1.714404e+001
1.331514e+003,1.829895e+001
1.332478e+003,2.038428e+001
1.333442e+003,2.324866e+001
1.334406e+003,2.602698e+001
1.335371e+003,2.597693e+001
1.336335e+003,2.156580e+001
1.337299e+003,1.556628e+001
1.338263e+003,1.315369e+001
1.339228e+003,1.485266e+001
1.340192e+003,1.540796e+001
1.341156e+003,1.276428e+001
1.342120e+003,1.200977e+001
1.343084e+003,1.529041e+001
1.344049e+003,1.848804e+001
1.345013e+003,1.804749e+001
1.345977e+003,1.530115e+001
1.346941e+003,1.432605e+001
1.347906e+003,1.661816e+001
1.348870e+003,1.953113e+001
1.349834e+003,2.071960e+001
1.350798e+003,2.037537e+001
1.351763e+003,1.975513e+001
1.352727e+003,1.890027e+001
1.353691e+003,1.695044e+001
1.354655e+003,1.329504e+001
1.355620e+003,9.734009e+000
1.356584e+003,9.035522e+000
1.357548e+003,1.089807e+001
1.358512e+003,1.060022e+001
1.359476e+003,5.678101e+000
1.360441e+003,2.821655e+000
1.361405e+003,5.079834e+000
1.362369e+003,8.805664e+000
1.363333e+003,1.380334e+001
1.364298e+003,1.847205e+001
1.365262e+003,2.078320e+001
1.366226e+003,2.042883e+001
1.367190e+003,1.868152e+001
1.368155e+003,1.663708e+001
1.369119e+003,1.458521e+001
1.370083e+003,1.363037e+001
1.371047e+003,1.445325e+001
1.372011e+003,1.469067e+001
1.372976e+003,1.239893e+001
1.373940e+003,1.092859e+001
1.374904e+003,1.286365e+001
1.375868e+003,1.588416e+001
1.376833e+003,1.659277e+001
1.377797e+003,1.487402e+001
1.378761e+003,1.354163e+001
1.379725e+003,1.422986e+001
1.380690e+003,1.466577e+001
1.381654e+003,1.068359e+001
1.382618e+003,6.163208e+000
1.383582e+003,7.313599e+000
1.384547e+003,1.372034e+001
1.385511e+003,1.974524e+001
1.386475e+003,2.232227e+001
1.387439e+003,2.311877e+001
1.388403e+003,2.529993e+001
1.389368e+003,2.879346e+001
1.390332e+003,2.851648e+001
1.391296e+003,2.115491e+001
1.392260e+003,1.729346e+001
1.393225e+003,2.223669e+001
1.394189e+003,2.749890e+001
1.395153e+003,2.788245e+001
1.396117e+003,2.559082e+001
1.397082e+003,2.496106e+001
1.398046e+003,2.700757e+001
1.399010e+003,2.877502e+001
1.399974e+003,2.717273e+001
1.400938e+003,2.306042e+001
1.401903e+003,2.096753e+001
1.402867e+003,2.296765e+001
1.403831e+003,2.478235e+001
1.404795e+003,2.540198e+001
1.405760e+003,2.583411e+001
1.406724e+003,2.562634e+001
1.407688e+003,2.414014e+001
1.408652e+003,2.151819e+001
1.409617e+003,1.845593e+001
1.410581e+003,1.518799e+001
1.411545e+003,1.146985e+001
1.412509e+003,9.206055e+000
1.413474e+003,1.016736e+001
1.414438e+003,1.305884e+001
1.415402e+003,1.821216e+001
1.416366e+003,2.512976e+001
1.417330e+003,2.802417e+001
1.418295e+003,2.370178e+001
1.419259e+003,1.824280e+001
1.420223e+003,1.907813e+001
1.421187e+003,2.470227e+001
1.422152e+003,2.758813e+001
1.423116e+003,2.733496e+001
1.424080e+003,2.721338e+001
1.425044e+003,2.764282e+001
1.426009e+003,2.773132e+001
1.426973e+003,2.565381e+001
1.427937e+003,2.385864e+001
1.428901e+003,2.671118e+001
1.429865e+003,3.354700e+001
1.430830e+003,3.888013e+001
1.431794e+003,3.886487e+001
1.432758e+003,3.553589e+001
1.433722e+003,3.342419e+001
1.434687e+003,3.321143e+001
1.435651e+003,3.599719e+001
1.436615e+003,4.355786e+001
1.437579e+003,4.767102e+001
1.438544e+003,4.582324e+001
1.439508e+003,4.265381e+001
1.440472e+003,4.122681e+001
1.441436e+003,4.147852e+001
1.442401e+003,4.266211e+001
1.443365e+003,4.420056e+001
1.444329e+003,4.463733e+001
1.445293e+003,4.272925e+001
1.446257e+003,4.030701e+001
1.447222e+003,4.110327e+001
1.448186e+003,4.426843e+001
1.449150e+003,4.548621e+001
1.450114e+003,4.397290e+001
1.451079e+003,4.146606e+001
1.452043e+003,3.813660e+001
1.453007e+003,3.554541e+001
1.453971e+003,3.625793e+001
1.454936e+003,3.947644e+001
1.455900e+003,4.055969e+001
1.456864e+003,3.814233e+001
1.457828e+003,3.603210e+001
1.458792e+003,3.602454e+001
1.459757e+003,3.689685e+001
1.460721e+003,3.871875e+001
1.461685e+003,4.039246e+001
1.462649e+003,3.966931e+001
1.463614e+003,3.637976e+001
1.464578e+003,3.296350e+001
1.465542e+003,3.135791e+001
1.466506e+003,3.084155e+001
1.467471e+003,2.947974e+001
1.468435e+003,2.698132e+001
1.469399e+003,2.849634e+001
1.470363e+003,3.924500e+001
1.471328e+003,4.546533e+001
1.472292e+003,3.983777e+001
1.473256e+003,3.182410e+001
1.474220e+003,2.774170e+001
1.475184e+003,2.810645e+001
1.476149e+003,3.257788e+001
1.477113e+003,3.969727e+001
1.478077e+003,4.523547e+001
1.479041e+003,4.540698e+001
1.480006e+003,4.250098e+001
1.480970e+003,4.301453e+001
1.481934e+003,4.769336e+001
1.482898e+003,5.003955e+001
1.483863e+003,4.820874e+001
1.484827e+003,4.664490e+001
1.485791e+003,4.676904e+001
1.486755e+003,4.835364e+001
1.487719e+003,5.136804e+001
1.488684e+003,5.496912e+001
1.489648e+003,5.730249e+001
1.490612e+003,5.816699e+001
1.491576e+003,6.107556e+001
1.492541e+003,6.945215e+001
1.493505e+003,8.005554e+001
1.494469e+003,8.549365e+001
1.495433e+003,8.608130e+001
1.496398e+003,8.709424e+001
1.497362e+003,8.984546e+001
1.498326e+003,9.384583e+001
1.499290e+003,9.812207e+001
1.500255e+003,1.038085e+002
1.501219e+003,1.129341e+002
1.502183e+003,1.247760e+002
1.503147e+003,1.354702e+002
1.504111e+003,1.434935e+002
1.505076e+003,1.538409e+002
1.506040e+003,1.698232e+002
1.507004e+003,1.894546e+002
1.507968e+003,2.111349e+002
1.508933e+003,2.344197e+002
1.509897e+003,2.580707e+002
1.510861e+003,2.828480e+002
1.511825e+003,3.116017e+002
1.512790e+003,3.459281e+002
1.513754e+003,3.841844e+002
1.514718e+003,4.253483e+002
1.515682e+003,4.688267e+002
1.516646e+003,5.084879e+002
1.517611e+003,5.437711e+002
1.518575e+003,5.771025e+002
1.519539e+003,6.130427e+002
1.520503e+003,6.444125e+002
1.521468e+003,6.687098e+002
1.522432e+003,6.847650e+002
1.523396e+003,6.908322e+002
1.524360e+003,6.873046e+002
1.525325e+003,6.767859e+002
1.526289e+003,6.611847e+002
1.527253e+003,6.412344e+002
1.528217e+003,6.180134e+002
1.529182e+003,5.920220e+002
1.530146e+003,5.605035e+002
1.531110e+003,5.209818e+002
1.532074e+003,4.791769e+002
1.533039e+003,4.336014e+002
1.534003e+003,3.858619e+002
1.534967e+003,3.351479e+002
1.535931e+003,2.860337e+002
1.536896e+003,2.421819e+002
1.537860e+003,2.047308e+002
1.538824e+003,1.737179e+002
1.539788e+003,1.487654e+002
1.540752e+003,1.289132e+002
1.541717e+003,1.134939e+002
1.542681e+003,1.022883e+002
1.543645e+003,9.159753e+001
1.544609e+003,8.114758e+001
1.545573e+003,7.389648e+001
1.546538e+003,7.133899e+001
1.547502e+003,6.822131e+001
1.548466e+003,6.219006e+001
1.549430e+003,5.654529e+001
1.550395e+003,5.489099e+001
1.551359e+003,5.588525e+001
1.552323e+003,5.566357e+001
1.553287e+003,5.294873e+001
1.554252e+003,4.899854e+001
1.555216e+003,4.452905e+001
1.556180e+003,4.031262e+001
1.557144e+003,3.842163e+001
1.558109e+003,3.918689e+001
1.559073e+003,4.036194e+001
1.560037e+003,4.198230e+001
1.561001e+003,4.191394e+001
1.561966e+003,3.924158e+001
1.562930e+003,3.639429e+001
1.563894e+003,3.520447e+001
1.564858e+003,3.498755e+001
1.565823e+003,3.414099e+001
1.566787e+003,3.234119e+001
1.567751e+003,3.072327e+001
1.568715e+003,2.985779e+001
1.569679e+003,3.046570e+001
1.570644e+003,3.454114e+001
1.571608e+003,3.981396e+001
1.572572e+003,4.044092e+001
1.573536e+003,3.651660e+001
1.574500e+003,3.346826e+001
1.575465e+003,3.312695e+001
1.576429e+003,3.359021e+001
1.577393e+003,3.275513e+001
1.578357e+003,3.154578e+001
1.579322e+003,3.256799e+001
1.580286e+003,3.597241e+001
1.581250e+003,3.899207e+001
1.582214e+003,4.059766e+001
1.583179e+003,4.243115e+001
1.584143e+003,4.665356e+001
1.585107e+003,5.022522e+001
1.586071e+003,4.943542e+001
1.587036e+003,4.596655e+001
1.588000e+003,4.285876e+001
1.588964e+003,4.028125e+001
1.589928e+003,3.854822e+001
1.590893e+003,3.796155e+001
1.591857e+003,3.847363e+001
1.592821e+003,4.076306e+001
1.593785e+003,4.440625e+001
1.594750e+003,4.612939e+001
1.595714e+003,4.500708e+001
1.596678e+003,4.354138e+001
1.597642e+003,4.206848e+001
1.598606e+003,4.171167e+001
1.599571e+003,4.434265e+001
1.600535e+003,4.829431e+001
1.601499e+003,5.156714e+001
1.602463e+003,5.376624e+001
1.603427e+003,5.489685e+001
1.604392e+003,5.502234e+001
1.605356e+003,5.404395e+001
1.606320e+003,5.159070e+001
1.607284e+003,4.810815e+001
1.608249e+003,4.460388e+001
1.609213e+003,4.108264e+001
1.610177e+003,3.781165e+001
1.611141e+003,3.464600e+001
1.612106e+003,3.225342e+001
1.613070e+003,3.149927e+001
1.614034e+003,3.104358e+001
1.614998e+003,2.943542e+001
1.615963e+003,2.771436e+001
1.616927e+003,2.779272e+001
1.617891e+003,2.965283e+001
1.618855e+003,3.152991e+001
1.619820e+003,3.224646e+001
1.620784e+003,3.144568e+001
1.621748e+003,2.874133e+001
1.622712e+003,2.545532e+001
1.623677e+003,2.561731e+001
1.624641e+003,3.008862e+001
1.625605e+003,3.349878e+001
1.626569e+003,3.328589e+001
1.627533e+003,3.136255e+001
1.628498e+003,2.855737e+001
1.629462e+003,2.591675e+001
1.630426e+003,2.334937e+001
1.631390e+003,2.162170e+001
1.632354e+003,2.331421e+001
1.633319e+003,2.841309e+001
1.634283e+003,3.171765e+001
1.635247e+003,2.886340e+001
1.636211e+003,2.329370e+001
1.637176e+003,2.171960e+001
1.638140e+003,2.407410e+001
1.639104e+003,2.549561e+001
1.640068e+003,2.553833e+001
1.641033e+003,2.473145e+001
1.641997e+003,2.190430e+001
1.642961e+003,2.070703e+001
1.643925e+003,2.522461e+001
1.644890e+003,3.015613e+001
1.645854e+003,2.902185e+001
1.646818e+003,2.377820e+001
1.647782e+003,2.059082e+001
1.648747e+003,2.133655e+001
1.649711e+003,2.379736e+001
1.650675e+003,2.681372e+001
1.651639e+003,2.998193e+001
1.652604e+003,3.158643e+001
1.653568e+003,3.139465e+001
1.654532e+003,3.124036e+001
1.655496e+003,3.143774e+001
1.656460e+003,3.093652e+001
1.657425e+003,2.999255e+001
1.658389e+003,2.793542e+001
1.659353e+003,2.306763e+001
1.660317e+003,1.790564e+001
1.661281e+003,1.496753e+001
1.662246e+003,1.399329e+001
1.663210e+003,1.386218e+001
1.664174e+003,1.437317e+001
1.665138e+003,1.566150e+001
1.666103e+003,1.777185e+001
1.667067e+003,2.012964e+001
1.668031e+003,2.211816e+001
1.668995e+003,2.383325e+001
1.669960e+003,2.501770e+001
1.670924e+003,2.594385e+001
1.671888e+003,2.562231e+001
1.672852e+003,2.228760e+001
1.673817e+003,1.912231e+001
1.674781e+003,1.849097e+001
1.675745e+003,1.871594e+001
1.676709e+003,1.789600e+001
1.677674e+003,1.623486e+001
1.678638e+003,1.500098e+001
1.679602e+003,1.459827e+001
1.680566e+003,1.392834e+001
1.681531e+003,1.200574e+001
1.682495e+003,1.022266e+001
1.683459e+003,1.073914e+001
1.684423e+003,1.285071e+001
1.685387e+003,1.414050e+001
1.686352e+003,1.458276e+001
1.687316e+003,1.419360e+001
1.688280e+003,1.280334e+001
1.689244e+003,1.085938e+001
1.690208e+003,7.768921e+000
1.691173e+003,4.646729e+000
1.692137e+003,2.956543e+000
1.693101e+003,2.914429e+000
1.694065e+003,3.826660e+000
1.695030e+003,5.069458e+000
1.695994e+003,6.548950e+000
1.696958e+003,8.968262e+000
1.697922e+003,1.124805e+001
1.698887e+003,1.191736e+001
1.699851e+003,1.151453e+001
1.700815e+003,1.112537e+001
1.701779e+003,1.059900e+001
1.702744e+003,9.732544e+000
1.703708e+003,8.760986e+000
1.704672e+003,8.849243e+000
1.705636e+003,1.094812e+001
1.706601e+003,1.291089e+001
1.707565e+003,1.188257e+001
1.708529e+003,9.231323e+000
1.709493e+003,8.138916e+000
1.710458e+003,9.021973e+000
1.711422e+003,1.008655e+001
1.712386e+003,1.170630e+001
1.713350e+003,1.279199e+001
1.714314e+003,1.141016e+001
1.715279e+003,8.542480e+000
1.716243e+003,5.776001e+000
1.717207e+003,3.630005e+000
1.718171e+003,3.714233e+000
1.719135e+003,6.579468e+000
1.720100e+003,9.004639e+000
1.721064e+003,8.624390e+000
1.722028e+003,6.535156e+000
1.722992e+003,4.705933e+000
1.723957e+003,3.500366e+000
1.724921e+003,1.415894e+000
1.725885e+003,-2.995972e+000
1.726849e+003,-5.234863e+000
1.727814e+003,-1.570923e+000
1.728778e+003,2.264282e+000
1.729742e+003,4.036987e+000
1.730706e+003,4.303223e+000
1.731671e+003,2.451050e+000
1.732635e+003,-1.041870e+000
1.733599e+003,-4.615356e+000
1.734563e+003,-7.171631e+000
1.735528e+003,-7.598389e+000
1.736492e+003,-5.572754e+000
1.737456e+003,-2.900024e+000
1.738420e+003,-1.591797e+000
1.739385e+003,-1.994873e+000
1.740349e+003,-4.020142e+000
1.741313e+003,-8.115112e+000
1.742277e+003,-9.450684e+000
1.743241e+003,-5.352783e+000
1.744206e+003,-2.005005e+000
1.745170e+003,-5.383301e-001
1.746134e+003,-1.539307e-001
1.747098e+003,-1.635986e+000
1.748063e+003,-3.133545e+000
1.749027e+003,-2.124878e+000
1.749991e+003,8.166504e-001
1.750955e+003,3.653442e+000
1.751919e+003,5.335693e+000
1.752884e+003,5.328003e+000
1.753848e+003,3.151733e+000
1.754812e+003,-2.562256e-001
1.755776e+003,-2.762817e+000
1.756741e+003,-3.887695e+000
1.757705e+003,-3.067749e+000
1.758669e+003,6.507568e-001
1.759633e+003,2.134644e+000
1.760598e+003,-1.999268e+000
1.761562e+003,-5.104858e+000
1.762526e+003,-3.556885e+000
1.763490e+003,-1.025879e+000
1.764455e+003,9.887695e-003
1.765419e+003,3.649902e-001
1.766383e+003,1.305786e+000
1.767347e+003,2.689087e+000
1.768312e+003,4.046265e+000
1.769276e+003,5.044312e+000
1.770240e+003,4.143066e+000
1.771204e+003,-6.472168e-001
1.772168e+003,-6.463013e+000
1.773133e+003,-7.181885e+000
1.774097e+003,-3.457397e+000
1.775061e+003,-2.004150e+000
1.776025e+003,-4.423340e+000
1.776990e+003,-5.979736e+000
1.777954e+003,-4.013672e+000
1.778918e+003,-1.441895e+000
1.779882e+003,-1.022461e+000
1.780846e+003,-1.659546e+000
1.781811e+003,-1.123901e+000
1.782775e+003,2.794189e-001
1.783739e+003,7.630615e-001
1.784703e+003,7.666016e-002
1.785668e+003,7.813721e-001
1.786632e+003,5.453857e+000
1.787596e+003,8.443726e+000
1.788560e+003,4.353882e+000
1.789525e+003,-1.568848e+000
1.790489e+003,-2.058472e+000
1.791453e+003,1.179932e+000
1.792417e+003,1.935181e+000
1.793382e+003,-8.316650e-001
1.794346e+003,-3.043945e+000
1.795310e+003,-2.568481e+000
1.796274e+003,-1.611328e+000
1.797239e+003,-2.531616e+000
1.798203e+003,-3.740479e+000
1.799167e+003,-1.911865e+000
1.800131e+003,2.760864e+000
1.801095e+003,3.958496e+000
1.802060e+003,-2.382813e-001
1.803024e+003,-2.363159e+000
1.803988e+003,-9.140625e-001
1.804952e+003,9.843750e-001
1.805917e+003,2.837158e+000
1.806881e+003,3.564819e+000
1.807845e+003,1.476685e+000
1.808809e+003,-1.855225e+000
1.809773e+003,-3.875977e+000
1.810738e+003,-3.767334e+000
1.811702e+003,-1.223145e+000
1.812666e+003,3.784424e+000
1.813630e+003,8.461060e+000
1.814595e+003,8.885498e+000
1.815559e+003,5.910400e+000
1.816523e+003,3.773804e+000
1.817487e+003,2.813232e+000
1.818452e+003,-5.468750e-002
1.819416e+003,-6.628784e+000
1.820380e+003,-8.472168e+000
1.821344e+003,6.950684e-001
1.822309e+003,8.291748e+000
1.823273e+003,5.621582e+000
1.824237e+003,-2.845459e-001
1.825201e+003,-3.575317e+000
1.826166e+003,-4.443481e+000
1.827130e+003,-3.552734e+000
1.828094e+003,-1.330933e+000
1.829058e+003,-4.167480e-001
1.830022e+003,-2.210571e+000
1.830987e+003,-4.413452e+000
1.831951e+003,-5.045410e+000
1.832915e+003,-4.971069e+000
1.833879e+003,-5.658203e+000
1.834844e+003,-6.779541e+000
1.835808e+003,-7.058960e+000
1.836772e+003,-6.298340e+000
1.837736e+003,-5.431396e+000
1.838700e+003,-5.119629e+000
1.839665e+003,-5.076538e+000
1.840629e+003,-4.870361e+000
1.841593e+003,-4.173218e+000
1.842557e+003,-2.370728e+000
1.843522e+003,4.577637e-001
1.844486e+003,4.078369e-001
1.845450e+003,-5.030029e+000
1.846414e+003,-7.089844e+000
1.847379e+003,-4.002808e+000
1.848343e+003,-1.797852e+000
1.849307e+003,-1.475708e+000
1.850271e+003,-2.774902e+000
1.851236e+003,-7.687012e+000
1.852200e+003,-1.212512e+001
1.853164e+003,-1.006287e+001
1.854128e+003,-3.307495e+000
1.855093e+003,2.099365e+000
1.856057e+003,4.039917e+000
1.857021e+003,2.868286e+000
1.857985e+003,-1.793457e+000
1.858949e+003,-7.923462e+000
1.859914e+003,-1.278162e+001
1.860878e+003,-1.579065e+001
1.861842e+003,-1.362927e+001
1.862806e+003,-6.329834e+000
1.863771e+003,-5.764160e-001
1.864735e+003,2.331787e+000
1.865699e+003,3.446167e+000
1.866663e+003,2.863037e+000
1.867627e+003,2.345703e+000
1.868592e+003,3.472900e+000
1.869556e+003,4.636230e+000
1.870520e+003,3.862305e+000
1.871484e+003,1.228638e+000
1.872449e+003,-2.802612e+000
1.873413e+003,-7.642944e+000
1.874377e+003,-9.853027e+000
1.875341e+003,-9.648071e+000
1.876306e+003,-7.743164e+000
1.877270e+003,-2.994995e+000
1.878234e+003,1.563477e+000
1.879198e+003,3.278320e+000
1.880163e+003,2.724976e+000
1.881127e+003,3.743896e-001
1.882091e+003,-2.618530e+000
1.883055e+003,-3.089233e+000
1.884020e+003,-1.219482e-001
1.884984e+003,2.417969e+000
1.885948e+003,9.986572e-001
1.886912e+003,-2.342773e+000
1.887876e+003,-3.430298e+000
1.888841e+003,-2.413452e+000
1.889805e+003,-1.750122e+000
1.890769e+003,-1.383057e+000
1.891733e+003,-1.838867e+000
1.892698e+003,-4.386108e+000
1.893662e+003,-5.781372e+000
1.894626e+003,-3.574219e+000
1.895590e+003,-1.268066e+000
1.896554e+003,-1.686523e+000
1.897519e+003,-2.488892e+000
1.898483e+003,-3.848877e-001
1.899447e+003,2.912598e+000
1.900411e+003,2.101929e+000
1.901376e+003,-3.820068e+000
1.902340e+003,-7.475952e+000
1.903304e+003,-4.826904e+000
1.904268e+003,-1.489014e+000
1.905233e+003,-6.060791e-001
1.906197e+003,-5.242920e-001
1.907161e+003,9.012451e-001
1.908125e+003,2.789917e+000
1.909090e+003,2.325439e+000
1.910054e+003,-2.125244e-001
1.911018e+003,-1.599487e+000
1.911982e+003,-5.218506e-001
1.912947e+003,2.059448e+000
1.913911e+003,5.296875e+000
1.914875e+003,7.623291e+000
1.915839e+003,6.140381e+000
1.916803e+003,1.470337e+000
1.917768e+003,-1.111938e+000
1.918732e+003,-1.056030e+000
1.919696e+003,1.047363e-001
1.920660e+003,3.249390e+000
1.921625e+003,5.882690e+000
1.922589e+003,7.320313e+000
1.923553e+003,7.627563e+000
1.924517e+003,5.838745e+000
1.925481e+003,3.951904e+000
1.926446e+003,3.721802e+000
1.927410e+003,4.717773e+000
1.928374e+003,6.350952e+000
1.929338e+003,8.064941e+000
1.930303e+003,7.937500e+000
1.931267e+003,5.510986e+000
1.932231e+003,3.887451e+000
1.933195e+003,4.504272e+000
1.934160e+003,5.132935e+000
1.935124e+003,3.814453e+000
1.936088e+003,1.552856e+000
1.937052e+003,-1.025391e-002
1.938017e+003,-6.865234e-001
1.938981e+003,-9.228516e-001
1.939945e+003,-9.904785e-001
1.940909e+003,-9.791260e-001
1.941874e+003,-1.109253e+000
1.942838e+003,-1.985107e+000
1.943802e+003,-3.802734e+000
1.944766e+003,-5.211548e+000
1.945730e+003,-4.430298e+000
1.946695e+003,-2.098877e+000
1.947659e+003,-3.320313e-001
1.948623e+003,7.460938e-001
1.949587e+003,1.129028e+000
1.950552e+003,1.077271e+000
1.951516e+003,2.150879e-001
1.952480e+003,-2.861328e+000
1.953444e+003,-3.960449e+000
1.954408e+003,1.873657e+000
1.955373e+003,8.603516e+000
1.956337e+003,7.047607e+000
1.957301e+003,3.935547e-001
1.958265e+003,-1.737183e+000
1.959230e+003,1.550171e+000
1.960194e+003,4.112915e+000
1.961158e+003,3.989258e+000
1.962122e+003,2.964111e+000
1.963087e+003,4.893799e-001
1.964051e+003,-1.269531e+000
1.965015e+003,-5.993652e-002
1.965979e+003,2.580200e+000
1.966944e+003,5.591064e+000
1.967908e+003,7.485352e+000
1.968872e+003,5.567383e+000
1.969836e+003,8.928223e-001
1.970801e+003,-1.302246e+000
1.971765e+003,1.071289e+000
1.972729e+003,3.663940e+000
1.973693e+003,2.436279e+000
1.974657e+003,3.172607e-001
1.975622e+003,2.405640e+000
1.976586e+003,6.435059e+000
1.977550e+003,6.303711e+000
1.978514e+003,2.916748e+000
1.979479e+003,1.174438e+000
1.980443e+003,1.606567e+000
1.981407e+003,1.578735e+000
1.982371e+003,2.419434e-001
1.983335e+003,3.454590e-001
1.984300e+003,3.967773e+000
1.985264e+003,8.111572e+000
1.986228e+003,8.423828e+000
1.987192e+003,5.636963e+000
1.988157e+003,3.582031e+000
1.989121e+003,2.522583e+000
1.990085e+003,2.015137e+000
1.991049e+003,2.642700e+000
1.992014e+003,3.286133e+000
1.992978e+003,3.561035e+000
1.993942e+003,3.558350e+000
1.994906e+003,2.927979e+000
1.995871e+003,2.470581e+000
1.996835e+003,3.265625e+000
1.997799e+003,4.666748e+000
1.998763e+003,5.402588e+000
1.999728e+003,5.265015e+000
