5.003444e+002,3.302515e+001
5.013087e+002,2.907556e+001
5.022729e+002,2.560223e+001
5.032371e+002,2.371637e+001
5.042014e+002,2.490814e+001
5.051656e+002,2.875610e+001
5.061298e+002,3.262549e+001
5.070941e+002,3.395679e+001
5.080583e+002,3.186285e+001
5.090225e+002,3.048462e+001
5.099868e+002,3.008777e+001
5.109510e+002,2.982886e+001
5.119152e+002,2.947986e+001
5.128795e+002,2.908667e+001
5.138437e+002,2.824438e+001
5.148079e+002,2.598499e+001
5.157722e+002,2.425043e+001
5.167364e+002,2.377075e+001
5.177006e+002,2.444501e+001
5.186649e+002,2.557520e+001
5.196291e+002,2.754163e+001
5.205933e+002,2.968695e+001
5.215576e+002,3.052478e+001
5.225218e+002,2.952209e+001
5.234860e+002,2.664374e+001
5.244503e+002,2.219141e+001
5.254145e+002,1.593298e+001
5.263787e+002,1.344647e+001
5.273430e+002,1.694678e+001
5.283072e+002,2.270068e+001
5.292714e+002,2.531305e+001
5.302357e+002,2.238318e+001
5.311999e+002,1.956183e+001
5.321641e+002,1.838660e+001
5.331284e+002,1.810236e+001
5.340926e+002,1.758173e+001
5.350568e+002,1.606165e+001
5.360211e+002,1.514838e+001
5.369853e+002,1.902264e+001
5.379495e+002,2.365759e+001
5.389138e+002,2.485901e+001
5.398780e+002,2.124121e+001
5.408422e+002,1.510541e+001
5.418065e+002,1.338318e+001
5.427707e+002,1.534705e+001
5.437349e+002,1.574432e+001
5.446992e+002,1.245532e+001
5.456634e+002,7.015442e+000
5.466276e+002,5.075073e+000
5.475919e+002,1.112921e+001
5.485561e+002,1.590735e+001
5.495203e+002,1.852942e+001
5.504846e+002,1.944836e+001
5.514488e+002,1.963715e+001
5.524130e+002,1.989191e+001
5.533773e+002,1.890625e+001
5.543415e+002,1.509290e+001
5.553057e+002,1.051929e+001
5.562700e+002,7.218384e+000
5.572342e+002,6.359985e+000
5.581984e+002,6.888245e+000
5.591627e+002,6.942200e+000
5.601269e+002,6.892639e+000
5.610911e+002,6.730347e+000
5.620554e+002,6.267334e+000
5.630196e+002,5.381714e+000
5.639838e+002,4.783936e+000
5.649481e+002,4.895508e+000
5.659123e+002,4.742371e+000
5.668765e+002,4.700012e+000
5.678408e+002,4.984863e+000
5.688050e+002,5.360352e+000
5.697692e+002,4.757080e+000
5.707335e+002,4.080627e+000
5.716977e+002,4.620239e+000
5.726619e+002,5.337830e+000
5.736262e+002,4.515686e+000
5.745904e+002,7.162476e-001
5.755546e+002,-3.389709e+000
5.765189e+002,-4.155762e+000
5.774831e+002,-2.988098e+000
5.784473e+002,-1.434570e+000
5.794116e+002,-3.422852e-001
5.803758e+002,6.629639e-001
5.813400e+002,1.937500e+000
5.823043e+002,3.163086e+000
5.832685e+002,3.480042e+000
5.842327e+002,2.654480e+000
5.851970e+002,1.225952e+000
5.861612e+002,5.831299e-001
5.871254e+002,1.626587e+000
5.880897e+002,1.877869e+000
5.890539e+002,-8.541870e-001
5.900181e+002,-4.658508e+000
5.909824e+002,-5.887878e+000
5.919466e+002,-1.076782e+000
5.929108e+002,4.915466e+000
5.938751e+002,7.224854e+000
5.948393e+002,6.867798e+000
5.958035e+002,4.998291e+000
5.967678e+002,2.591492e+000
5.977320e+002,1.272583e-001
5.986962e+002,1.945190e-001
5.996605e+002,2.169189e+000
6.006247e+002,3.923157e+000
6.015889e+002,4.800049e+000
6.025532e+002,4.846313e+000
6.035174e+002,3.969299e+000
6.044816e+002,-1.156616e-001
6.054459e+002,-2.385254e+000
6.064101e+002,-7.510986e-001
6.073743e+002,2.929260e+000
6.083386e+002,5.302979e+000
6.093028e+002,4.378296e+000
6.102670e+002,2.557068e+000
6.112313e+002,7.118530e-001
6.121955e+002,-4.754028e-001
6.131597e+002,2.858276e-001
6.141240e+002,3.791626e+000
6.150882e+002,8.874878e+000
6.160524e+002,1.117151e+001
6.170167e+002,1.142120e+001
6.179809e+002,9.766479e+000
6.189451e+002,5.343506e+000
6.199094e+002,-1.575745e+000
6.208736e+002,-6.957520e+000
6.218378e+002,-9.697388e+000
6.228021e+002,-1.078717e+001
6.237663e+002,-9.429993e+000
6.247305e+002,-6.507263e+000
6.256948e+002,-3.335876e+000
6.266590e+002,-2.584839e-001
6.276232e+002,1.242310e+000
6.285875e+002,1.780396e-001
6.295517e+002,-1.658752e+000
6.305159e+002,-2.568420e+000
6.314802e+002,-1.777893e+000
6.324444e+002,-2.310181e-001
6.334086e+002,5.000000e-001
6.343729e+002,8.961182e-001
6.353371e+002,7.064819e-001
6.363013e+002,-3.515625e-001
6.372656e+002,-2.242493e+000
6.382298e+002,-4.444824e+000
6.391940e+002,-8.383179e+000
6.401583e+002,-1.095129e+001
6.411225e+002,-1.076239e+001
6.420867e+002,-8.857056e+000
6.430510e+002,-6.545532e+000
6.440152e+002,-4.207092e+000
6.449794e+002,-3.206360e+000
6.459437e+002,-5.142761e+000
6.469079e+002,-7.717407e+000
6.478721e+002,-8.816223e+000
6.488364e+002,-7.718384e+000
6.498006e+002,-5.714722e+000
6.507648e+002,-5.595154e+000
6.517291e+002,-6.679932e+000
6.526933e+002,-6.823059e+000
6.536575e+002,-5.616150e+000
6.546218e+002,-3.729858e+000
6.555860e+002,-2.402283e+000
6.565502e+002,-1.964661e+000
6.575145e+002,-1.640930e+000
6.584787e+002,-1.035461e+000
6.594429e+002,-7.453613e-001
6.604072e+002,-1.658630e+000
6.613714e+002,-4.097778e+000
6.623356e+002,-5.430908e+000
6.632999e+002,-3.048523e+000
6.642641e+002,-1.080505e+000
6.652283e+002,-2.256470e+000
6.661926e+002,-5.830017e+000
6.671568e+002,-8.352112e+000
6.681210e+002,-5.327148e+000
6.690853e+002,7.885742e-001
6.700495e+002,4.065857e+000
6.710137e+002,4.445984e+000
6.719780e+002,2.962830e+000
6.729422e+002,3.203125e-001
6.739064e+002,-4.402893e+000
6.748707e+002,-5.411316e+000
6.758349e+002,8.516846e-001
6.767991e+002,5.443848e+000
6.777634e+002,3.814331e+000
6.787276e+002,-2.816345e+000
6.796918e+002,-7.385681e+000
6.806561e+002,-6.718994e+000
6.816203e+002,-4.936951e+000
6.825845e+002,-3.120544e+000
6.835488e+002,-1.390015e+000
6.845130e+002,6.444092e-001
6.854772e+002,3.505554e+000
6.864415e+002,6.465088e+000
6.874057e+002,6.849121e+000
6.883699e+002,4.937317e+000
6.893342e+002,2.418396e+000
6.902984e+002,2.739868e-001
6.912626e+002,-1.219482e+000
6.922269e+002,-1.252075e+000
6.931911e+002,3.012207e+000
6.941553e+002,6.350525e+000
6.951196e+002,7.702271e+000
6.960838e+002,7.246338e+000
6.970480e+002,5.272217e+000
6.980123e+002,1.031494e+000
6.989765e+002,-1.858276e+000
6.999407e+002,-1.922424e+000
7.009050e+002,-6.350098e-001
7.018692e+002,1.535522e+000
7.028334e+002,4.001953e+000
7.037977e+002,5.433105e+000
7.047619e+002,3.128906e+000
7.057261e+002,-9.727173e-001
7.066904e+002,-4.070801e+000
7.076546e+002,-5.736328e+000
7.086188e+002,-5.720459e+000
7.095831e+002,-3.421936e+000
7.105473e+002,2.183838e+000
7.115115e+002,5.884827e+000
7.124758e+002,7.521179e+000
7.134400e+002,7.588074e+000
7.144042e+002,5.919250e+000
7.153685e+002,2.834412e+000
7.163327e+002,6.260986e-001
7.172969e+002,1.010010e+000
7.182612e+002,2.087891e+000
7.192254e+002,3.608704e+000
7.201896e+002,4.915466e+000
7.211539e+002,4.996521e+000
7.221181e+002,2.894775e+000
7.230823e+002,-2.389526e-001
7.240466e+002,-1.091125e+000
7.250108e+002,2.343750e-001
7.259750e+002,1.939209e+000
7.269393e+002,2.568909e+000
7.279035e+002,1.704590e+000
7.288677e+002,3.332520e-001
7.298320e+002,-1.048950e+000
7.307962e+002,-1.402222e+000
7.317604e+002,2.630005e-001
7.327247e+002,2.767456e+000
7.336889e+002,3.791931e+000
7.346531e+002,1.386536e+000
7.356174e+002,-1.126099e+000
7.365816e+002,-1.410522e-001
7.375458e+002,2.033569e+000
7.385101e+002,4.011230e+000
7.394743e+002,5.133972e+000
7.404385e+002,4.997131e+000
7.414028e+002,1.758240e+000
7.423670e+002,-4.101074e+000
7.433312e+002,-5.300842e+000
7.442955e+002,-1.928101e-001
7.452597e+002,7.064880e+000
7.462239e+002,1.141211e+001
7.471882e+002,1.179828e+001
7.481524e+002,1.247852e+001
7.491166e+002,1.184161e+001
7.500809e+002,1.171149e+001
7.510451e+002,1.432813e+001
7.520093e+002,1.834406e+001
7.529736e+002,1.891876e+001
7.539378e+002,1.202277e+001
7.549020e+002,5.200928e+000
7.558663e+002,2.846252e+000
7.568306e+002,3.514038e+000
7.577948e+002,5.156250e+000
7.587590e+002,6.319336e+000
7.597233e+002,7.013550e+000
7.606875e+002,8.946533e+000
7.616517e+002,1.221899e+001
7.626160e+002,1.324359e+001
7.635802e+002,1.052643e+001
7.645444e+002,5.885437e+000
7.655087e+002,2.796082e+000
7.664729e+002,1.047119e+000
7.674371e+002,1.374207e+000
7.684014e+002,5.122620e+000
7.693656e+002,9.188171e+000
7.703298e+002,1.184821e+001
7.712941e+002,1.291040e+001
7.722583e+002,1.321344e+001
7.732225e+002,1.294348e+001
7.741868e+002,1.239954e+001
7.751510e+002,1.188696e+001
7.761152e+002,1.136584e+001
7.770795e+002,1.045758e+001
7.780437e+002,8.742004e+000
7.790079e+002,6.300598e+000
7.799722e+002,5.309265e+000
7.809364e+002,5.811035e+000
7.819006e+002,6.195313e+000
7.828649e+002,5.968811e+000
7.838291e+002,5.697144e+000
7.847933e+002,6.567566e+000
7.857576e+002,9.306946e+000
7.867218e+002,1.028400e+001
7.876860e+002,8.669495e+000
7.886503e+002,6.481506e+000
7.896145e+002,5.329590e+000
7.905787e+002,5.622437e+000
7.915430e+002,6.378357e+000
7.925072e+002,6.096008e+000
7.934714e+002,5.061523e+000
7.944357e+002,4.170349e+000
7.953999e+002,3.841309e+000
7.963641e+002,4.044800e+000
7.973284e+002,4.542114e+000
7.982926e+002,5.334106e+000
7.992568e+002,6.677917e+000
8.002211e+002,8.050781e+000
8.011853e+002,8.353882e+000
8.021495e+002,8.028992e+000
8.031138e+002,7.806641e+000
8.040780e+002,7.606628e+000
8.050422e+002,5.021973e+000
8.060065e+002,5.183105e+000
8.069707e+002,1.254663e+001
8.079349e+002,2.073279e+001
8.088992e+002,2.293475e+001
8.098634e+002,1.740179e+001
8.108276e+002,9.941956e+000
8.117919e+002,8.674988e+000
8.127561e+002,1.027362e+001
8.137203e+002,9.844971e+000
8.146846e+002,7.385986e+000
8.156488e+002,4.249512e+000
8.166130e+002,1.380066e+000
8.175773e+002,-1.966736e+000
8.185415e+002,-1.215027e+000
8.195057e+002,5.910400e+000
8.204700e+002,1.247534e+001
8.214342e+002,1.605298e+001
8.223984e+002,1.732446e+001
8.233627e+002,1.852124e+001
8.243269e+002,2.111633e+001
8.252911e+002,2.255048e+001
8.262554e+002,2.033643e+001
8.272196e+002,1.700183e+001
8.281838e+002,1.522028e+001
8.291481e+002,1.584454e+001
8.301123e+002,1.744427e+001
8.310765e+002,1.753625e+001
8.320408e+002,1.607483e+001
8.330050e+002,1.495197e+001
8.339692e+002,1.438593e+001
8.349335e+002,1.422919e+001
8.358977e+002,1.454169e+001
8.368619e+002,1.566205e+001
8.378262e+002,1.710974e+001
8.387904e+002,1.907776e+001
8.397546e+002,2.023389e+001
8.407189e+002,2.020435e+001
8.416831e+002,1.924506e+001
8.426473e+002,1.746173e+001
8.436116e+002,1.458563e+001
8.445758e+002,1.267285e+001
8.455400e+002,1.350873e+001
8.465043e+002,1.544983e+001
8.474685e+002,1.832642e+001
8.484327e+002,2.202234e+001
8.493970e+002,2.512097e+001
8.503612e+002,2.444397e+001
8.513254e+002,1.888226e+001
8.522897e+002,1.509320e+001
8.532539e+002,1.237585e+001
8.542181e+002,1.126892e+001
8.551824e+002,1.325360e+001
8.561466e+002,1.850378e+001
8.571108e+002,2.418158e+001
8.580751e+002,2.965503e+001
8.590393e+002,3.262384e+001
8.600035e+002,3.132880e+001
8.609678e+002,2.878296e+001
8.619320e+002,2.854340e+001
8.628962e+002,3.182184e+001
8.638605e+002,3.581335e+001
8.648247e+002,3.614111e+001
8.657889e+002,3.397760e+001
8.667532e+002,3.137305e+001
8.677174e+002,2.861493e+001
8.686816e+002,2.752582e+001
8.696459e+002,3.098114e+001
8.706101e+002,4.041650e+001
8.715743e+002,4.546320e+001
8.725386e+002,4.361267e+001
8.735028e+002,4.121429e+001
8.744670e+002,3.835840e+001
8.754313e+002,3.555444e+001
8.763955e+002,3.421582e+001
8.773597e+002,3.546185e+001
8.783240e+002,3.706628e+001
8.792882e+002,3.743701e+001
8.802524e+002,3.691583e+001
8.812167e+002,3.534863e+001
8.821809e+002,3.310120e+001
8.831451e+002,3.131934e+001
8.841094e+002,3.164722e+001
8.850736e+002,3.439941e+001
8.860378e+002,3.701324e+001
8.870021e+002,3.960809e+001
8.879663e+002,4.079041e+001
8.889305e+002,3.847668e+001
8.898948e+002,3.344696e+001
8.908590e+002,3.066626e+001
8.918232e+002,3.182172e+001
8.927875e+002,3.417535e+001
8.937517e+002,3.752625e+001
8.947159e+002,4.140106e+001
8.956802e+002,4.577802e+001
8.966444e+002,4.999634e+001
8.976086e+002,5.222955e+001
8.985729e+002,5.031873e+001
8.995371e+002,4.656848e+001
9.005013e+002,4.390021e+001
9.014656e+002,4.272516e+001
9.024298e+002,4.333771e+001
9.033940e+002,4.580023e+001
9.043583e+002,4.943402e+001
9.053225e+002,5.214001e+001
9.062867e+002,5.271930e+001
9.072510e+002,5.304297e+001
9.082152e+002,5.438690e+001
9.091794e+002,5.583923e+001
9.101437e+002,5.617554e+001
9.111079e+002,5.513525e+001
9.120721e+002,5.392133e+001
9.130364e+002,5.202032e+001
9.140006e+002,5.029590e+001
9.149648e+002,4.988702e+001
9.159291e+002,5.077240e+001
9.168933e+002,5.242651e+001
9.178575e+002,5.420874e+001
9.188218e+002,5.557306e+001
9.197860e+002,5.530353e+001
9.207502e+002,5.315863e+001
9.217145e+002,5.061243e+001
9.226787e+002,4.815344e+001
9.236429e+002,4.643805e+001
9.246072e+002,4.601874e+001
9.255714e+002,4.674091e+001
9.265356e+002,4.746417e+001
9.274999e+002,4.852753e+001
9.284641e+002,4.852551e+001
9.294283e+002,4.630035e+001
9.303926e+002,4.321289e+001
9.313568e+002,4.150153e+001
9.323210e+002,4.231653e+001
9.332853e+002,4.423724e+001
9.342495e+002,4.595929e+001
9.352137e+002,4.691272e+001
9.361780e+002,4.607684e+001
9.371422e+002,4.366748e+001
9.381064e+002,4.091968e+001
9.390707e+002,3.878082e+001
9.400349e+002,3.643201e+001
9.409991e+002,3.652142e+001
9.419634e+002,4.134552e+001
9.429276e+002,4.504865e+001
9.438918e+002,4.521283e+001
9.448561e+002,4.380695e+001
9.458203e+002,4.462756e+001
9.467845e+002,4.940887e+001
9.477488e+002,5.385089e+001
9.487130e+002,5.329810e+001
9.496772e+002,5.181866e+001
9.506415e+002,5.275104e+001
9.516057e+002,5.610913e+001
9.525699e+002,6.019794e+001
9.535342e+002,6.340601e+001
9.544984e+002,6.511920e+001
9.554626e+002,6.036224e+001
9.564269e+002,4.770386e+001
9.573911e+002,3.989368e+001
9.583553e+002,4.242682e+001
9.593196e+002,5.051752e+001
9.602838e+002,5.677655e+001
9.612480e+002,6.056256e+001
9.622123e+002,6.318439e+001
9.631765e+002,6.630023e+001
9.641407e+002,6.756506e+001
9.651050e+002,6.374408e+001
9.660692e+002,5.701306e+001
9.670334e+002,5.248108e+001
9.679977e+002,5.368567e+001
9.689619e+002,5.792133e+001
9.699261e+002,5.810681e+001
9.708904e+002,5.520227e+001
9.718546e+002,5.306317e+001
9.728188e+002,5.242120e+001
9.737831e+002,5.210138e+001
9.747473e+002,5.033917e+001
9.757115e+002,4.661469e+001
9.766758e+002,4.539111e+001
9.776400e+002,5.030695e+001
9.786042e+002,5.417419e+001
9.795685e+002,5.422009e+001
9.805327e+002,5.198486e+001
9.814969e+002,4.969250e+001
9.824612e+002,4.840460e+001
9.834254e+002,4.882300e+001
9.843896e+002,5.262054e+001
9.853539e+002,5.701196e+001
9.863181e+002,5.865308e+001
9.872823e+002,5.751495e+001
9.882466e+002,5.607629e+001
9.892108e+002,5.693060e+001
9.901750e+002,6.060681e+001
9.911393e+002,6.542438e+001
9.921035e+002,6.991931e+001
9.930677e+002,7.495288e+001
9.940320e+002,8.263586e+001
9.949962e+002,9.038086e+001
9.959604e+002,9.452441e+001
9.969247e+002,9.524646e+001
9.978889e+002,9.928796e+001
9.988531e+002,1.127577e+002
9.998174e+002,1.248805e+002
1.000782e+003,1.297704e+002
1.001746e+003,1.299091e+002
1.002710e+003,1.280751e+002
1.003674e+003,1.258821e+002
1.004639e+003,1.243968e+002
1.005603e+003,1.257324e+002
1.006567e+003,1.300237e+002
1.007531e+003,1.330848e+002
1.008495e+003,1.353143e+002
1.009460e+003,1.359446e+002
1.010424e+003,1.336379e+002
1.011388e+003,1.294412e+002
1.012352e+003,1.273981e+002
1.013317e+003,1.294815e+002
1.014281e+003,1.298425e+002
1.015245e+003,1.260523e+002
1.016209e+003,1.203447e+002
1.017174e+003,1.139995e+002
1.018138e+003,1.075972e+002
1.019102e+003,1.016702e+002
1.020066e+003,9.701630e+001
1.021031e+003,9.274774e+001
1.021995e+003,8.357001e+001
1.022959e+003,7.023553e+001
1.023923e+003,6.064526e+001
1.024887e+003,5.824329e+001
1.025852e+003,5.896344e+001
1.026816e+003,5.649390e+001
1.027780e+003,5.044489e+001
1.028744e+003,4.517065e+001
1.029709e+003,4.014362e+001
1.030673e+003,3.664166e+001
1.031637e+003,3.531689e+001
1.032601e+003,3.532111e+001
1.033566e+003,3.600885e+001
1.034530e+003,3.726337e+001
1.035494e+003,3.855237e+001
1.036458e+003,3.898224e+001
1.037422e+003,3.876123e+001
1.038387e+003,3.817310e+001
1.039351e+003,3.723730e+001
1.040315e+003,3.697412e+001
1.041279e+003,3.861273e+001
1.042244e+003,4.160297e+001
1.043208e+003,4.185669e+001
1.044172e+003,3.544476e+001
1.045136e+003,3.199915e+001
1.046101e+003,3.382098e+001
1.047065e+003,3.688293e+001
1.048029e+003,3.885852e+001
1.048993e+003,3.953864e+001
1.049958e+003,3.951410e+001
1.050922e+003,3.891742e+001
1.051886e+003,3.907758e+001
1.052850e+003,4.232654e+001
1.053814e+003,4.640173e+001
1.054779e+003,4.826624e+001
1.055743e+003,4.722998e+001
1.056707e+003,4.448352e+001
1.057671e+003,4.134387e+001
1.058636e+003,3.768939e+001
1.059600e+003,3.617572e+001
1.060564e+003,3.986920e+001
1.061528e+003,4.255780e+001
1.062493e+003,4.221350e+001
1.063457e+003,4.020813e+001
1.064421e+003,3.819495e+001
1.065385e+003,3.661981e+001
1.066349e+003,3.540472e+001
1.067314e+003,3.418878e+001
1.068278e+003,3.387720e+001
1.069242e+003,3.610876e+001
1.070206e+003,3.953320e+001
1.071171e+003,4.155261e+001
1.072135e+003,4.097736e+001
1.073099e+003,3.915735e+001
1.074063e+003,3.885413e+001
1.075028e+003,4.051434e+001
1.075992e+003,4.069678e+001
1.076956e+003,3.781342e+001
1.077920e+003,3.543005e+001
1.078885e+003,3.606427e+001
1.079849e+003,3.838208e+001
1.080813e+003,3.947314e+001
1.081777e+003,3.881287e+001
1.082741e+003,3.823907e+001
1.083706e+003,3.790784e+001
1.084670e+003,3.742426e+001
1.085634e+003,3.628339e+001
1.086598e+003,3.490643e+001
1.087563e+003,3.466870e+001
1.088527e+003,3.641199e+001
1.089491e+003,3.878271e+001
1.090455e+003,3.799304e+001
1.091420e+003,3.314362e+001
1.092384e+003,3.145117e+001
1.093348e+003,3.426257e+001
1.094312e+003,3.684863e+001
1.095276e+003,3.655939e+001
1.096241e+003,3.461078e+001
1.097205e+003,3.361938e+001
1.098169e+003,3.349500e+001
1.099133e+003,3.418433e+001
1.100098e+003,3.749231e+001
1.101062e+003,4.038696e+001
1.102026e+003,3.985406e+001
1.102990e+003,3.744122e+001
1.103955e+003,3.718536e+001
1.104919e+003,4.138312e+001
1.105883e+003,4.736133e+001
1.106847e+003,4.985071e+001
1.107812e+003,4.855420e+001
1.108776e+003,4.560663e+001
1.109740e+003,3.938708e+001
1.110704e+003,3.506921e+001
1.111668e+003,3.781177e+001
1.112633e+003,4.639716e+001
1.113597e+003,5.419434e+001
1.114561e+003,6.062817e+001
1.115525e+003,6.491394e+001
1.116490e+003,6.655627e+001
1.117454e+003,6.647705e+001
1.118418e+003,6.441504e+001
1.119382e+003,6.185156e+001
1.120347e+003,6.082605e+001
1.121311e+003,6.214587e+001
1.122275e+003,6.496594e+001
1.123239e+003,6.989197e+001
1.124203e+003,7.722815e+001
1.125168e+003,8.188647e+001
1.126132e+003,8.300061e+001
1.127096e+003,8.318713e+001
1.128060e+003,8.279211e+001
1.129025e+003,8.239099e+001
1.129989e+003,8.654993e+001
1.130953e+003,9.896130e+001
1.131917e+003,1.074364e+002
1.132882e+003,1.065457e+002
1.133846e+003,1.040065e+002
1.134810e+003,1.036820e+002
1.135774e+003,1.058976e+002
1.136739e+003,1.091613e+002
1.137703e+003,1.126246e+002
1.138667e+003,1.179874e+002
1.139631e+003,1.294981e+002
1.140595e+003,1.461489e+002
1.141560e+003,1.593806e+002
1.142524e+003,1.680378e+002
1.143488e+003,1.777667e+002
1.144452e+003,1.912272e+002
1.145417e+003,2.085438e+002
1.146381e+003,2.306235e+002
1.147345e+003,2.587055e+002
1.148309e+003,2.878834e+002
1.149274e+003,3.180121e+002
1.150238e+003,3.483564e+002
1.151202e+003,3.807988e+002
1.152166e+003,4.132523e+002
1.153130e+003,4.423812e+002
1.154095e+003,4.659370e+002
1.155059e+003,4.827368e+002
1.156023e+003,4.920069e+002
1.156987e+003,4.936736e+002
1.157952e+003,4.899335e+002
1.158916e+003,4.822320e+002
1.159880e+003,4.684208e+002
1.160844e+003,4.433908e+002
1.161809e+003,4.105229e+002
1.162773e+003,3.788471e+002
1.163737e+003,3.483257e+002
1.164701e+003,3.196896e+002
1.165666e+003,2.935245e+002
1.166630e+003,2.698514e+002
1.167594e+003,2.469073e+002
1.168558e+003,2.271436e+002
1.169522e+003,2.148491e+002
1.170487e+003,2.106305e+002
1.171451e+003,2.101642e+002
1.172415e+003,2.087285e+002
1.173379e+003,2.063789e+002
1.174344e+003,2.048167e+002
1.175308e+003,2.044850e+002
1.176272e+003,2.024384e+002
1.177236e+003,1.969800e+002
1.178201e+003,1.903171e+002
1.179165e+003,1.849871e+002
1.180129e+003,1.805677e+002
1.181093e+003,1.749940e+002
1.182057e+003,1.667847e+002
1.183022e+003,1.596378e+002
1.183986e+003,1.551324e+002
1.184950e+003,1.521046e+002
1.185914e+003,1.489574e+002
1.186879e+003,1.461633e+002
1.187843e+003,1.463071e+002
1.188807e+003,1.514071e+002
1.189771e+003,1.592982e+002
1.190736e+003,1.643019e+002
1.191700e+003,1.661267e+002
1.192664e+003,1.668042e+002
1.193628e+003,1.667809e+002
1.194593e+003,1.660173e+002
1.195557e+003,1.643657e+002
1.196521e+003,1.617421e+002
1.197485e+003,1.581646e+002
1.198449e+003,1.537561e+002
1.199414e+003,1.483505e+002
1.200378e+003,1.398785e+002
1.201342e+003,1.322860e+002
1.202306e+003,1.285907e+002
1.203271e+003,1.273917e+002
1.204235e+003,1.259030e+002
1.205199e+003,1.227500e+002
1.206163e+003,1.183930e+002
1.207128e+003,1.134139e+002
1.208092e+003,1.078632e+002
1.209056e+003,1.012679e+002
1.210020e+003,9.234320e+001
1.210984e+003,8.512384e+001
1.211949e+003,8.222064e+001
1.212913e+003,8.046283e+001
1.213877e+003,7.573016e+001
1.214841e+003,6.797723e+001
1.215806e+003,6.058527e+001
1.216770e+003,5.462665e+001
1.217734e+003,4.944757e+001
1.218698e+003,4.361444e+001
1.219663e+003,3.817303e+001
1.220627e+003,3.471869e+001
1.221591e+003,3.337677e+001
1.222555e+003,3.301605e+001
1.223520e+003,3.271368e+001
1.224484e+003,3.271759e+001
1.225448e+003,3.319708e+001
1.226412e+003,3.542426e+001
1.227376e+003,3.460419e+001
1.228341e+003,2.770343e+001
1.229305e+003,2.089685e+001
1.230269e+003,1.756268e+001
1.231233e+003,1.663458e+001
1.232198e+003,1.578851e+001
1.233162e+003,1.463507e+001
1.234126e+003,1.471838e+001
1.235090e+003,1.763177e+001
1.236055e+003,2.114935e+001
1.237019e+003,2.316760e+001
1.237983e+003,2.370728e+001
1.238947e+003,2.333313e+001
1.239911e+003,2.256213e+001
1.240876e+003,2.185718e+001
1.241840e+003,2.144867e+001
1.242804e+003,2.127545e+001
1.243768e+003,2.298755e+001
1.244733e+003,3.007971e+001
1.245697e+003,3.436560e+001
1.246661e+003,3.334326e+001
1.247625e+003,3.002539e+001
1.248590e+003,2.519299e+001
1.249554e+003,2.082983e+001
1.250518e+003,2.114673e+001
1.251482e+003,2.808960e+001
1.252447e+003,3.622437e+001
1.253411e+003,3.997083e+001
1.254375e+003,4.054980e+001
1.255339e+003,3.930334e+001
1.256303e+003,3.674268e+001
1.257268e+003,3.609814e+001
1.258232e+003,3.925879e+001
1.259196e+003,4.402319e+001
1.260160e+003,4.662964e+001
1.261125e+003,4.705994e+001
1.262089e+003,4.843933e+001
1.263053e+003,5.150903e+001
1.264017e+003,5.393774e+001
1.264982e+003,5.466638e+001
1.265946e+003,5.530920e+001
1.266910e+003,5.812671e+001
1.267874e+003,6.247510e+001
1.268839e+003,6.562183e+001
1.269803e+003,6.579431e+001
1.270767e+003,6.344653e+001
1.271731e+003,5.875372e+001
1.272695e+003,5.216681e+001
1.273660e+003,4.847626e+001
1.274624e+003,4.808868e+001
1.275588e+003,4.748724e+001
1.276552e+003,4.477399e+001
1.277517e+003,4.155743e+001
1.278481e+003,4.066058e+001
1.279445e+003,4.229388e+001
1.280409e+003,4.273932e+001
1.281374e+003,3.995551e+001
1.282338e+003,3.702057e+001
1.283302e+003,3.531427e+001
1.284266e+003,3.433112e+001
1.285230e+003,3.357233e+001
1.286195e+003,3.280890e+001
1.287159e+003,3.224091e+001
1.288123e+003,3.226215e+001
1.289087e+003,3.256989e+001
1.290052e+003,3.114569e+001
1.291016e+003,2.685101e+001
1.291980e+003,2.329340e+001
1.292944e+003,1.982416e+001
1.293909e+003,1.688983e+001
1.294873e+003,1.562396e+001
1.295837e+003,1.529083e+001
1.296801e+003,1.465576e+001
1.297766e+003,1.357764e+001
1.298730e+003,1.255603e+001
1.299694e+003,1.124927e+001
1.300658e+003,1.043591e+001
1.301622e+003,1.159888e+001
1.302587e+003,1.399243e+001
1.303551e+003,1.649231e+001
1.304515e+003,1.898438e+001
1.305479e+003,2.122925e+001
1.306444e+003,2.274207e+001
1.307408e+003,2.346301e+001
1.308372e+003,2.401770e+001
1.309336e+003,2.467517e+001
1.310301e+003,2.415100e+001
1.311265e+003,2.100342e+001
1.312229e+003,1.901294e+001
1.313193e+003,2.050378e+001
1.314157e+003,2.265637e+001
1.315122e+003,2.189148e+001
1.316086e+003,1.825793e+001
1.317050e+003,1.505957e+001
1.318014e+003,1.472021e+001
1.318979e+003,1.596130e+001
1.319943e+003,1.607690e+001
1.320907e+003,1.551392e+001
1.321871e+003,1.625513e+001
1.322836e+003,1.809387e+001
1.323800e+003,1.974756e+001
1.324764e+003,2.002966e+001
1.325728e+003,2.017224e+001
1.326693e+003,2.303674e+001
1.327657e+003,2.849536e+001
1.328621e+003,3.011511e+001
1.329585e+003,2.550513e+001
1.330549e+003,2.089758e+001
1.331514e+003,1.618640e+001
1.332478e+003,1.321814e+001
1.333442e+003,1.627246e+001
1.334406e+003,2.366345e+001
1.335371e+003,2.858032e+001
1.336335e+003,2.698181e+001
1.337299e+003,2.257263e+001
1.338263e+003,2.237158e+001
1.339228e+003,2.712866e+001
1.340192e+003,2.922083e+001
1.341156e+003,2.591235e+001
1.342120e+003,2.410785e+001
1.343084e+003,2.558954e+001
1.344049e+003,2.724298e+001
1.345013e+003,2.694061e+001
1.345977e+003,2.527850e+001
1.346941e+003,2.377728e+001
1.347906e+003,2.290765e+001
1.348870e+003,2.255609e+001
1.349834e+003,2.244330e+001
1.350798e+003,2.252203e+001
1.351763e+003,2.376605e+001
1.352727e+003,2.589178e+001
1.353691e+003,2.618939e+001
1.354655e+003,2.331403e+001
1.355620e+003,1.985040e+001
1.356584e+003,1.879633e+001
1.357548e+003,2.014392e+001
1.358512e+003,2.274890e+001
1.359476e+003,2.757703e+001
1.360441e+003,2.915149e+001
1.361405e+003,2.307739e+001
1.362369e+003,1.734900e+001
1.363333e+003,1.594763e+001
1.364298e+003,1.736890e+001
1.365262e+003,1.975452e+001
1.366226e+003,2.211670e+001
1.367190e+003,2.358142e+001
1.368155e+003,2.336035e+001
1.369119e+003,2.177722e+001
1.370083e+003,1.979724e+001
1.371047e+003,1.710632e+001
1.372011e+003,1.699158e+001
1.372976e+003,2.077966e+001
1.373940e+003,2.409790e+001
1.374904e+003,2.582837e+001
1.375868e+003,2.637781e+001
1.376833e+003,2.592371e+001
1.377797e+003,2.443835e+001
1.378761e+003,2.175220e+001
1.379725e+003,1.720374e+001
1.380690e+003,1.385193e+001
1.381654e+003,1.663684e+001
1.382618e+003,2.196936e+001
1.383582e+003,2.461865e+001
1.384547e+003,2.460657e+001
1.385511e+003,2.501294e+001
1.386475e+003,2.732361e+001
1.387439e+003,3.002124e+001
1.388403e+003,3.056689e+001
1.389368e+003,2.891504e+001
1.390332e+003,2.903979e+001
1.391296e+003,3.379639e+001
1.392260e+003,3.537646e+001
1.393225e+003,2.877527e+001
1.394189e+003,2.212671e+001
1.395153e+003,1.968750e+001
1.396117e+003,2.046997e+001
1.397082e+003,2.308899e+001
1.398046e+003,2.666699e+001
1.399010e+003,2.994531e+001
1.399974e+003,3.144543e+001
1.400938e+003,3.080591e+001
1.401903e+003,2.838916e+001
1.402867e+003,2.467444e+001
1.403831e+003,2.402966e+001
1.404795e+003,2.827905e+001
1.405760e+003,3.163013e+001
1.406724e+003,2.994226e+001
1.407688e+003,2.602698e+001
1.408652e+003,2.449475e+001
1.409617e+003,2.572388e+001
1.410581e+003,2.655066e+001
1.411545e+003,2.571765e+001
1.412509e+003,2.410718e+001
1.413474e+003,2.125598e+001
1.414438e+003,1.812830e+001
1.415402e+003,1.789722e+001
1.416366e+003,2.053394e+001
1.417330e+003,2.278064e+001
1.418295e+003,2.325391e+001
1.419259e+003,2.344067e+001
1.420223e+003,2.475317e+001
1.421187e+003,2.673450e+001
1.422152e+003,2.860706e+001
1.423116e+003,3.081494e+001
1.424080e+003,3.346851e+001
1.425044e+003,3.740515e+001
1.426009e+003,3.973999e+001
1.426973e+003,3.811890e+001
1.427937e+003,3.483655e+001
1.428901e+003,3.226672e+001
1.429865e+003,3.132666e+001
1.430830e+003,3.254871e+001
1.431794e+003,3.594971e+001
1.432758e+003,3.947168e+001
1.433722e+003,3.937585e+001
1.434687e+003,3.577014e+001
1.435651e+003,3.788928e+001
1.436615e+003,5.062585e+001
1.437579e+003,5.801160e+001
1.438544e+003,5.641846e+001
1.439508e+003,5.186182e+001
1.440472e+003,4.715710e+001
1.441436e+003,4.358386e+001
1.442401e+003,4.251208e+001
1.443365e+003,4.389404e+001
1.444329e+003,4.600415e+001
1.445293e+003,4.804712e+001
1.446257e+003,4.945862e+001
1.447222e+003,4.794006e+001
1.448186e+003,4.421265e+001
1.449150e+003,4.306299e+001
1.450114e+003,4.541296e+001
1.451079e+003,4.742639e+001
1.452043e+003,4.835864e+001
1.453007e+003,4.778149e+001
1.453971e+003,4.291687e+001
1.454936e+003,3.461047e+001
1.455900e+003,3.126111e+001
1.456864e+003,3.603491e+001
1.457828e+003,4.194739e+001
1.458792e+003,4.639539e+001
1.459757e+003,4.826526e+001
1.460721e+003,4.506909e+001
1.461685e+003,3.903809e+001
1.462649e+003,3.420044e+001
1.463614e+003,3.206042e+001
1.464578e+003,3.328699e+001
1.465542e+003,3.918054e+001
1.466506e+003,4.673047e+001
1.467471e+003,4.655164e+001
1.468435e+003,3.670227e+001
1.469399e+003,3.222778e+001
1.470363e+003,3.692261e+001
1.471328e+003,4.156824e+001
1.472292e+003,4.410461e+001
1.473256e+003,4.486438e+001
1.474220e+003,4.463733e+001
1.475184e+003,4.400391e+001
1.476149e+003,4.235388e+001
1.477113e+003,3.971021e+001
1.478077e+003,3.872705e+001
1.479041e+003,4.257471e+001
1.480006e+003,4.947839e+001
1.480970e+003,5.215686e+001
1.481934e+003,4.844531e+001
1.482898e+003,4.711182e+001
1.483863e+003,4.886121e+001
1.484827e+003,5.143835e+001
1.485791e+003,5.593201e+001
1.486755e+003,6.049902e+001
1.487719e+003,6.253674e+001
1.488684e+003,6.270605e+001
1.489648e+003,6.383838e+001
1.490612e+003,6.709570e+001
1.491576e+003,7.109583e+001
1.492541e+003,7.434900e+001
1.493505e+003,7.751587e+001
1.494469e+003,8.256555e+001
1.495433e+003,8.856641e+001
1.496398e+003,9.320398e+001
1.497362e+003,9.603455e+001
1.498326e+003,1.010906e+002
1.499290e+003,1.124215e+002
1.500255e+003,1.255481e+002
1.501219e+003,1.327533e+002
1.502183e+003,1.353407e+002
1.503147e+003,1.426676e+002
1.504111e+003,1.571249e+002
1.505076e+003,1.746132e+002
1.506040e+003,1.939966e+002
1.507004e+003,2.144418e+002
1.507968e+003,2.349467e+002
1.508933e+003,2.558616e+002
1.509897e+003,2.771349e+002
1.510861e+003,2.998744e+002
1.511825e+003,3.281591e+002
1.512790e+003,3.650427e+002
1.513754e+003,4.068463e+002
1.514718e+003,4.478895e+002
1.515682e+003,4.876118e+002
1.516646e+003,5.271365e+002
1.517611e+003,5.694556e+002
1.518575e+003,6.061851e+002
1.519539e+003,6.345530e+002
1.520503e+003,6.579893e+002
1.521468e+003,6.794552e+002
1.522432e+003,6.957914e+002
1.523396e+003,7.028838e+002
1.524360e+003,7.000461e+002
1.525325e+003,6.887371e+002
1.526289e+003,6.701034e+002
1.527253e+003,6.459949e+002
1.528217e+003,6.192629e+002
1.529182e+003,5.903917e+002
1.530146e+003,5.582466e+002
1.531110e+003,5.218646e+002
1.532074e+003,4.826891e+002
1.533039e+003,4.406152e+002
1.534003e+003,3.938617e+002
1.534967e+003,3.378225e+002
1.535931e+003,2.816696e+002
1.536896e+003,2.337639e+002
1.537860e+003,1.958531e+002
1.538824e+003,1.671587e+002
1.539788e+003,1.465989e+002
1.540752e+003,1.306172e+002
1.541717e+003,1.149775e+002
1.542681e+003,1.003215e+002
1.543645e+003,8.855188e+001
1.544609e+003,8.035010e+001
1.545573e+003,7.542981e+001
1.546538e+003,7.573682e+001
1.547502e+003,7.499854e+001
1.548466e+003,7.094592e+001
1.549430e+003,6.625464e+001
1.550395e+003,6.279272e+001
1.551359e+003,6.052576e+001
1.552323e+003,5.951160e+001
1.553287e+003,5.970154e+001
1.554252e+003,5.950732e+001
1.555216e+003,5.752454e+001
1.556180e+003,5.396155e+001
1.557144e+003,4.884583e+001
1.558109e+003,4.235974e+001
1.559073e+003,3.804895e+001
1.560037e+003,3.494629e+001
1.561001e+003,3.439978e+001
1.561966e+003,4.147180e+001
1.562930e+003,4.853845e+001
1.563894e+003,4.609607e+001
1.564858e+003,3.789868e+001
1.565823e+003,3.472668e+001
1.566787e+003,3.831714e+001
1.567751e+003,4.063330e+001
1.568715e+003,3.660962e+001
1.569679e+003,3.207141e+001
1.570644e+003,3.570020e+001
1.571608e+003,4.350842e+001
1.572572e+003,4.423633e+001
1.573536e+003,3.776440e+001
1.574500e+003,3.303784e+001
1.575465e+003,3.258228e+001
1.576429e+003,3.483862e+001
1.577393e+003,4.082422e+001
1.578357e+003,4.732922e+001
1.579322e+003,4.699585e+001
1.580286e+003,4.024792e+001
1.581250e+003,3.714978e+001
1.582214e+003,4.178540e+001
1.583179e+003,4.660474e+001
1.584143e+003,4.537976e+001
1.585107e+003,4.132629e+001
1.586071e+003,3.935315e+001
1.587036e+003,3.950818e+001
1.588000e+003,4.012549e+001
1.588964e+003,4.047729e+001
1.589928e+003,4.046826e+001
1.590893e+003,4.022583e+001
1.591857e+003,3.961731e+001
1.592821e+003,3.767578e+001
1.593785e+003,3.508801e+001
1.594750e+003,3.560608e+001
1.595714e+003,3.988904e+001
1.596678e+003,4.428687e+001
1.597642e+003,4.790796e+001
1.598606e+003,5.050549e+001
1.599571e+003,5.209839e+001
1.600535e+003,5.289221e+001
1.601499e+003,5.253577e+001
1.602463e+003,5.119031e+001
1.603427e+003,5.030750e+001
1.604392e+003,5.061780e+001
1.605356e+003,5.071289e+001
1.606320e+003,4.883521e+001
1.607284e+003,4.580127e+001
1.608249e+003,4.395520e+001
1.609213e+003,4.335522e+001
1.610177e+003,4.231543e+001
1.611141e+003,4.019775e+001
1.612106e+003,3.857764e+001
1.613070e+003,3.887683e+001
1.614034e+003,3.922705e+001
1.614998e+003,3.817236e+001
1.615963e+003,3.632776e+001
1.616927e+003,3.422986e+001
1.617891e+003,3.214038e+001
1.618855e+003,3.130725e+001
1.619820e+003,3.243481e+001
1.620784e+003,3.363342e+001
1.621748e+003,3.330151e+001
1.622712e+003,3.225159e+001
1.623677e+003,3.001892e+001
1.624641e+003,2.579675e+001
1.625605e+003,2.598560e+001
1.626569e+003,3.467700e+001
1.627533e+003,4.056396e+001
1.628498e+003,3.559363e+001
1.629462e+003,2.918530e+001
1.630426e+003,3.016760e+001
1.631390e+003,3.563318e+001
1.632354e+003,3.807898e+001
1.633319e+003,3.577039e+001
1.634283e+003,3.276660e+001
1.635247e+003,3.200500e+001
1.636211e+003,3.211206e+001
1.637176e+003,3.046472e+001
1.638140e+003,2.753699e+001
1.639104e+003,2.721533e+001
1.640068e+003,3.021924e+001
1.641033e+003,3.247217e+001
1.641997e+003,3.327344e+001
1.642961e+003,3.324304e+001
1.643925e+003,3.255176e+001
1.644890e+003,3.129956e+001
1.645854e+003,2.844006e+001
1.646818e+003,2.511340e+001
1.647782e+003,2.455017e+001
1.648747e+003,2.752356e+001
1.649711e+003,3.099329e+001
1.650675e+003,3.284595e+001
1.651639e+003,3.383899e+001
1.652604e+003,3.480054e+001
1.653568e+003,3.542786e+001
1.654532e+003,3.556763e+001
1.655496e+003,3.546558e+001
1.656460e+003,3.392883e+001
1.657425e+003,2.939880e+001
1.658389e+003,2.545508e+001
1.659353e+003,2.423511e+001
1.660317e+003,2.426294e+001
1.661281e+003,2.388586e+001
1.662246e+003,2.312610e+001
1.663210e+003,2.347864e+001
1.664174e+003,2.549719e+001
1.665138e+003,2.618213e+001
1.666103e+003,2.201416e+001
1.667067e+003,1.576965e+001
1.668031e+003,1.359241e+001
1.668995e+003,1.535144e+001
1.669960e+003,1.734167e+001
1.670924e+003,1.972327e+001
1.671888e+003,2.114758e+001
1.672852e+003,2.009412e+001
1.673817e+003,1.898657e+001
1.674781e+003,1.997095e+001
1.675745e+003,2.117725e+001
1.676709e+003,2.060815e+001
1.677674e+003,1.836084e+001
1.678638e+003,1.472339e+001
1.679602e+003,9.860840e+000
1.680566e+003,6.690552e+000
1.681531e+003,8.635864e+000
1.682495e+003,1.274878e+001
1.683459e+003,1.338391e+001
1.684423e+003,1.074524e+001
1.685387e+003,7.628784e+000
1.686352e+003,4.125000e+000
1.687316e+003,3.027222e+000
1.688280e+003,6.221558e+000
1.689244e+003,1.009717e+001
1.690208e+003,1.164343e+001
1.691173e+003,1.240735e+001
1.692137e+003,1.514185e+001
1.693101e+003,1.912646e+001
1.694065e+003,2.018567e+001
1.695030e+003,1.671338e+001
1.695994e+003,1.301086e+001
1.696958e+003,1.205945e+001
1.697922e+003,1.241431e+001
1.698887e+003,1.224768e+001
1.699851e+003,1.203186e+001
1.700815e+003,1.321997e+001
1.701779e+003,1.560437e+001
1.702744e+003,1.594470e+001
1.703708e+003,1.319470e+001
1.704672e+003,1.088989e+001
1.705636e+003,1.129309e+001
1.706601e+003,1.233289e+001
1.707565e+003,1.176941e+001
1.708529e+003,1.038562e+001
1.709493e+003,9.207520e+000
1.710458e+003,8.168823e+000
1.711422e+003,8.230713e+000
1.712386e+003,1.082898e+001
1.713350e+003,1.425940e+001
1.714314e+003,1.788086e+001
1.715279e+003,2.009180e+001
1.716243e+003,1.780676e+001
1.717207e+003,1.192261e+001
1.718171e+003,7.051392e+000
1.719135e+003,4.588989e+000
1.720100e+003,3.253418e+000
1.721064e+003,2.066528e+000
1.722028e+003,1.286133e+000
1.722992e+003,2.254272e+000
1.723957e+003,4.885010e+000
1.724921e+003,5.275024e+000
1.725885e+003,2.119873e+000
1.726849e+003,-6.315918e-001
1.727814e+003,-1.738770e+000
1.728778e+003,-1.236084e+000
1.729742e+003,1.590332e+000
1.730706e+003,4.983276e+000
1.731671e+003,6.852051e+000
1.732635e+003,7.079102e+000
1.733599e+003,7.112427e+000
1.734563e+003,7.562988e+000
1.735528e+003,7.283691e+000
1.736492e+003,5.429810e+000
1.737456e+003,2.708984e+000
1.738420e+003,-2.969971e-001
1.739385e+003,-3.220825e+000
1.740349e+003,-2.869629e+000
1.741313e+003,2.326904e+000
1.742277e+003,4.815918e+000
1.743241e+003,2.978760e+000
1.744206e+003,2.046875e+000
1.745170e+003,2.711426e+000
1.746134e+003,3.801758e+000
1.747098e+003,4.599731e+000
1.748063e+003,5.430176e+000
1.749027e+003,7.371094e+000
1.749991e+003,9.774414e+000
1.750955e+003,1.058252e+001
1.751919e+003,9.155518e+000
1.752884e+003,6.960449e+000
1.753848e+003,5.210205e+000
1.754812e+003,3.427979e+000
1.755776e+003,8.627930e-001
1.756741e+003,-1.948853e+000
1.757705e+003,-2.430054e+000
1.758669e+003,2.722168e-001
1.759633e+003,1.496582e+000
1.760598e+003,-6.312256e-001
1.761562e+003,-3.091309e+000
1.762526e+003,-5.071167e+000
1.763490e+003,-5.995728e+000
1.764455e+003,-4.632690e+000
1.765419e+003,-2.246582e+000
1.766383e+003,-1.110474e+000
1.767347e+003,-1.613647e+000
1.768312e+003,-2.738770e+000
1.769276e+003,-4.183838e+000
1.770240e+003,-5.046631e+000
1.771204e+003,-3.101929e+000
1.772168e+003,4.250488e-001
1.773133e+003,1.584717e+000
1.774097e+003,5.141602e-001
1.775061e+003,-1.796265e+000
1.776025e+003,-6.292236e+000
1.776990e+003,-8.067505e+000
1.777954e+003,-3.479004e+000
1.778918e+003,1.516724e+000
1.779882e+003,2.055298e+000
1.780846e+003,2.978516e-002
1.781811e+003,-2.391968e+000
1.782775e+003,-4.437622e+000
1.783739e+003,-3.537720e+000
1.784703e+003,1.147583e+000
1.785668e+003,5.302246e+000
1.786632e+003,7.232788e+000
1.787596e+003,6.665771e+000
1.788560e+003,2.208984e+000
1.789525e+003,-2.604492e+000
1.790489e+003,-2.979492e+000
1.791453e+003,-2.801514e-001
1.792417e+003,1.021362e+000
1.793382e+003,1.545410e-001
1.794346e+003,-9.045410e-002
1.795310e+003,1.774780e+000
1.796274e+003,3.663940e+000
1.797239e+003,3.423584e+000
1.798203e+003,2.419800e+000
1.799167e+003,3.133179e+000
1.800131e+003,5.024658e+000
1.801095e+003,4.528442e+000
1.802060e+003,6.505127e-001
1.803024e+003,-1.676025e+000
1.803988e+003,-1.694214e+000
1.804952e+003,-1.199097e+000
1.805917e+003,-7.608643e-001
1.806881e+003,-4.866943e-001
1.807845e+003,-6.568604e-001
1.808809e+003,-5.701904e-001
1.809773e+003,1.780151e+000
1.810738e+003,5.948364e+000
1.811702e+003,7.673462e+000
1.812666e+003,4.325073e+000
1.813630e+003,-5.269775e-001
1.814595e+003,-2.177368e+000
1.815559e+003,-1.327515e+000
1.816523e+003,2.728271e-001
1.817487e+003,2.981567e+000
1.818452e+003,3.566650e+000
1.819416e+003,1.338379e+000
1.820380e+003,1.264648e-001
1.821344e+003,1.313354e+000
1.822309e+003,2.158081e+000
1.823273e+003,8.969727e-001
1.824237e+003,-5.760498e-001
1.825201e+003,-9.678955e-001
1.826166e+003,-3.625488e-001
1.827130e+003,1.872925e+000
1.828094e+003,5.504883e+000
1.829058e+003,6.194702e+000
1.830022e+003,5.043945e-001
1.830987e+003,-4.840698e+000
1.831951e+003,-3.123047e+000
1.832915e+003,1.497070e+000
1.833879e+003,3.325195e+000
1.834844e+003,2.632690e+000
1.835808e+003,3.072510e-001
1.836772e+003,-2.914917e+000
1.837736e+003,-2.995605e+000
1.838700e+003,1.718018e+000
1.839665e+003,5.923218e+000
1.840629e+003,4.783325e+000
1.841593e+003,9.556885e-001
1.842557e+003,-1.605225e-001
1.843522e+003,1.344482e+000
1.844486e+003,4.409180e-001
1.845450e+003,-5.085571e+000
1.846414e+003,-7.338623e+000
1.847379e+003,-5.380005e+000
1.848343e+003,-3.226807e+000
1.849307e+003,-7.078857e-001
1.850271e+003,8.383789e-001
1.851236e+003,5.930176e-001
1.852200e+003,-7.200928e-001
1.853164e+003,-3.606689e+000
1.854128e+003,-7.414673e+000
1.855093e+003,-9.145386e+000
1.856057e+003,-7.431885e+000
1.857021e+003,-4.602661e+000
1.857985e+003,-2.689697e+000
1.858949e+003,-2.110596e+000
1.859914e+003,-4.429077e+000
1.860878e+003,-8.553345e+000
1.861842e+003,-8.423218e+000
1.862806e+003,-4.060669e+000
1.863771e+003,-1.869751e+000
1.864735e+003,-3.574341e+000
1.865699e+003,-5.492554e+000
1.866663e+003,-5.839966e+000
1.867627e+003,-5.299316e+000
1.868592e+003,-4.646973e+000
1.869556e+003,-4.402954e+000
1.870520e+003,-5.012207e+000
1.871484e+003,-6.253418e+000
1.872449e+003,-5.921387e+000
1.873413e+003,-1.659058e+000
1.874377e+003,2.013672e+000
1.875341e+003,1.155029e+000
1.876306e+003,1.810303e-001
1.877270e+003,1.429565e+000
1.878234e+003,3.348145e+000
1.879198e+003,5.067383e+000
1.880163e+003,6.288086e+000
1.881127e+003,6.718384e+000
1.882091e+003,6.447021e+000
1.883055e+003,5.878906e+000
1.884020e+003,5.046387e+000
1.884984e+003,2.843262e+000
1.885948e+003,-1.820801e+000
1.886912e+003,-6.895142e+000
1.887876e+003,-8.035156e+000
1.888841e+003,-5.506836e+000
1.889805e+003,-3.145020e+000
1.890769e+003,-8.504639e-001
1.891733e+003,6.735840e-001
1.892698e+003,5.690918e-001
1.893662e+003,6.137695e-001
1.894626e+003,2.264404e+000
1.895590e+003,3.489014e+000
1.896554e+003,2.266724e+000
1.897519e+003,8.460693e-001
1.898483e+003,2.270874e+000
1.899447e+003,4.999146e+000
1.900411e+003,4.572388e+000
1.901376e+003,2.292480e-001
1.902340e+003,-2.861450e+000
1.903304e+003,-1.858154e+000
1.904268e+003,-7.890625e-001
1.905233e+003,-3.264648e+000
1.906197e+003,-5.362183e+000
1.907161e+003,-9.807129e-001
1.908125e+003,5.938965e+000
1.909090e+003,6.651978e+000
1.910054e+003,1.645020e+000
1.911018e+003,-1.760864e+000
1.911982e+003,-8.709717e-001
1.912947e+003,1.504761e+000
1.913911e+003,3.152100e+000
1.914875e+003,4.253174e+000
1.915839e+003,4.876709e+000
1.916803e+003,4.702637e+000
1.917768e+003,4.259033e+000
1.918732e+003,3.976196e+000
1.919696e+003,2.837158e+000
1.920660e+003,1.062012e-001
1.921625e+003,-3.352051e-001
1.922589e+003,3.652344e+000
1.923553e+003,7.176880e+000
1.924517e+003,7.172852e+000
1.925481e+003,6.167358e+000
1.926446e+003,6.423218e+000
1.927410e+003,7.324829e+000
1.928374e+003,7.297119e+000
1.929338e+003,6.015259e+000
1.930303e+003,4.875000e+000
1.931267e+003,5.130615e+000
1.932231e+003,5.312988e+000
1.933195e+003,4.108643e+000
1.934160e+003,2.190063e+000
1.935124e+003,-1.814331e+000
1.936088e+003,-5.068726e+000
1.937052e+003,-1.638794e+000
1.938017e+003,5.298218e+000
1.938981e+003,7.540405e+000
1.939945e+003,4.263306e+000
1.940909e+003,1.696777e-002
1.941874e+003,-2.990601e+000
1.942838e+003,-4.635254e+000
1.943802e+003,-4.298706e+000
1.944766e+003,-2.523438e+000
1.945730e+003,-1.516357e+000
1.946695e+003,-1.453003e+000
1.947659e+003,-5.108643e-001
1.948623e+003,1.370483e+000
1.949587e+003,1.579590e+000
1.950552e+003,-6.110840e-001
1.951516e+003,-1.172363e+000
1.952480e+003,2.406250e+000
1.953444e+003,5.253052e+000
1.954408e+003,2.761353e+000
1.955373e+003,-1.779907e+000
1.956337e+003,-2.741699e+000
1.957301e+003,-8.176270e-001
1.958265e+003,-9.528809e-001
1.959230e+003,-3.723877e+000
1.960194e+003,-3.765259e+000
1.961158e+003,1.105713e+000
1.962122e+003,4.742554e+000
1.963087e+003,6.517578e+000
1.964051e+003,5.795288e+000
1.965015e+003,5.895996e-002
1.965979e+003,-5.453247e+000
1.966944e+003,-5.903687e+000
1.967908e+003,-2.946045e+000
1.968872e+003,8.540039e-001
1.969836e+003,4.410889e+000
1.970801e+003,6.548340e+000
1.971765e+003,6.866089e+000
1.972729e+003,6.085083e+000
1.973693e+003,4.481934e+000
1.974657e+003,2.930542e+000
1.975622e+003,2.796265e+000
1.976586e+003,3.355591e+000
1.977550e+003,3.136719e+000
1.978514e+003,2.475220e+000
1.979479e+003,2.559937e+000
1.980443e+003,3.381348e+000
1.981407e+003,3.434326e+000
1.982371e+003,2.294678e+000
1.983335e+003,1.983887e+000
1.984300e+003,3.822388e+000
1.985264e+003,6.398682e+000
1.986228e+003,8.024414e+000
1.987192e+003,8.682129e+000
1.988157e+003,8.359009e+000
1.989121e+003,7.332642e+000
1.990085e+003,4.825928e+000
1.991049e+003,-1.036011e+000
1.992014e+003,-3.937622e+000
1.992978e+003,-1.089111e+000
1.993942e+003,1.440063e+000
1.994906e+003,1.415405e+000
1.995871e+003,5.716553e-001
1.996835e+003,-5.455322e-001
1.997799e+003,-9.007568e-001
1.998763e+003,1.210205e+000
1.999728e+003,4.918457e+000
