5.003444e+002,3.959352e+001
5.013087e+002,3.887210e+001
5.022729e+002,3.904434e+001
5.032371e+002,3.956544e+001
5.042014e+002,3.796591e+001
5.051656e+002,3.464769e+001
5.061298e+002,3.145901e+001
5.070941e+002,3.002400e+001
5.080583e+002,3.053360e+001
5.090225e+002,3.166116e+001
5.099868e+002,3.430595e+001
5.109510e+002,3.645680e+001
5.119152e+002,3.684387e+001
5.128795e+002,3.531737e+001
5.138437e+002,3.396655e+001
5.148079e+002,3.350073e+001
5.157722e+002,3.341055e+001
5.167364e+002,3.379408e+001
5.177006e+002,3.441396e+001
5.186649e+002,3.460599e+001
5.196291e+002,3.301750e+001
5.205933e+002,3.116347e+001
5.215576e+002,3.101427e+001
5.225218e+002,3.245493e+001
5.234860e+002,3.400859e+001
5.244503e+002,3.306839e+001
5.254145e+002,2.870680e+001
5.263787e+002,2.629625e+001
5.273430e+002,2.672545e+001
5.283072e+002,2.847813e+001
5.292714e+002,2.952188e+001
5.302357e+002,2.948438e+001
5.311999e+002,2.902641e+001
5.321641e+002,2.817278e+001
5.331284e+002,2.733569e+001
5.340926e+002,2.688098e+001
5.350568e+002,2.692191e+001
5.360211e+002,2.669644e+001
5.369853e+002,2.542795e+001
5.379495e+002,2.386974e+001
5.389138e+002,2.224802e+001
5.398780e+002,2.079922e+001
5.408422e+002,1.997229e+001
5.418065e+002,2.179303e+001
5.427707e+002,2.576373e+001
5.437349e+002,2.821204e+001
5.446992e+002,2.791093e+001
5.456634e+002,2.556406e+001
5.466276e+002,2.368683e+001
5.475919e+002,2.262665e+001
5.485561e+002,2.180997e+001
5.495203e+002,2.118669e+001
5.504846e+002,2.070860e+001
5.514488e+002,2.036171e+001
5.524130e+002,2.021396e+001
5.533773e+002,2.025099e+001
5.543415e+002,2.069815e+001
5.553057e+002,2.116470e+001
5.562700e+002,2.118042e+001
5.572342e+002,2.044604e+001
5.581984e+002,1.927457e+001
5.591627e+002,1.838138e+001
5.601269e+002,1.778157e+001
5.610911e+002,1.750685e+001
5.620554e+002,1.757443e+001
5.630196e+002,1.786832e+001
5.639838e+002,1.769771e+001
5.649481e+002,1.681773e+001
5.659123e+002,1.585463e+001
5.668765e+002,1.466681e+001
5.678408e+002,1.358905e+001
5.688050e+002,1.352289e+001
5.697692e+002,1.577933e+001
5.707335e+002,1.719632e+001
5.716977e+002,1.653160e+001
5.726619e+002,1.470363e+001
5.736262e+002,1.281432e+001
5.745904e+002,1.151234e+001
5.755546e+002,1.095749e+001
5.765189e+002,1.166333e+001
5.774831e+002,1.289548e+001
5.784473e+002,1.329779e+001
5.794116e+002,1.200316e+001
5.803758e+002,9.348694e+000
5.813400e+002,8.978622e+000
5.823043e+002,1.164275e+001
5.832685e+002,1.348741e+001
5.842327e+002,1.269733e+001
5.851970e+002,9.842285e+000
5.861612e+002,8.214279e+000
5.871254e+002,9.088821e+000
5.880897e+002,1.026241e+001
5.890539e+002,1.157402e+001
5.900181e+002,1.280167e+001
5.909824e+002,1.385126e+001
5.919466e+002,1.491641e+001
5.929108e+002,1.518286e+001
5.938751e+002,1.336734e+001
5.948393e+002,1.056383e+001
5.958035e+002,8.419479e+000
5.967678e+002,8.147934e+000
5.977320e+002,9.577820e+000
5.986962e+002,1.160147e+001
5.996605e+002,1.428360e+001
6.006247e+002,1.592287e+001
6.015889e+002,1.561920e+001
6.025532e+002,1.347264e+001
6.035174e+002,1.087706e+001
6.044816e+002,6.050278e+000
6.054459e+002,2.847473e+000
6.064101e+002,2.314255e+000
6.073743e+002,3.713974e+000
6.083386e+002,5.945572e+000
6.093028e+002,9.246658e+000
6.102670e+002,1.161806e+001
6.112313e+002,1.107219e+001
6.121955e+002,9.063446e+000
6.131597e+002,7.468353e+000
6.141240e+002,7.565598e+000
6.150882e+002,8.874161e+000
6.160524e+002,9.497467e+000
6.170167e+002,9.606598e+000
6.179809e+002,9.531479e+000
6.189451e+002,9.292664e+000
6.199094e+002,8.881470e+000
6.208736e+002,8.613922e+000
6.218378e+002,8.836655e+000
6.228021e+002,9.029831e+000
6.237663e+002,9.355453e+000
6.247305e+002,9.606766e+000
6.256948e+002,9.235992e+000
6.266590e+002,7.405792e+000
6.276232e+002,6.188126e+000
6.285875e+002,7.741531e+000
6.295517e+002,1.009164e+001
6.305159e+002,1.084735e+001
6.314802e+002,8.773727e+000
6.324444e+002,5.318146e+000
6.334086e+002,5.042938e+000
6.343729e+002,6.962601e+000
6.353371e+002,8.396057e+000
6.363013e+002,8.371658e+000
6.372656e+002,7.170670e+000
6.382298e+002,5.853226e+000
6.391940e+002,3.635895e+000
6.401583e+002,2.393005e+000
6.411225e+002,2.710388e+000
6.420867e+002,3.905472e+000
6.430510e+002,5.299820e+000
6.440152e+002,6.895798e+000
6.449794e+002,7.703598e+000
6.459437e+002,6.967819e+000
6.469079e+002,5.630386e+000
6.478721e+002,4.196960e+000
6.488364e+002,2.985123e+000
6.498006e+002,2.241577e+000
6.507648e+002,2.812042e+000
6.517291e+002,4.040131e+000
6.526933e+002,4.189850e+000
6.536575e+002,2.865143e+000
6.546218e+002,9.734955e-001
6.555860e+002,2.806854e-001
6.565502e+002,1.517883e+000
6.575145e+002,2.508530e+000
6.584787e+002,3.406464e+000
6.594429e+002,3.999344e+000
6.604072e+002,3.670822e+000
6.613714e+002,2.128448e+000
6.623356e+002,1.890396e+000
6.632999e+002,6.844757e+000
6.642641e+002,1.098073e+001
6.652283e+002,1.015440e+001
6.661926e+002,4.948914e+000
6.671568e+002,-5.592499e-001
6.681210e+002,-1.514420e+000
6.690853e+002,8.010254e-001
6.700495e+002,2.745285e+000
6.710137e+002,4.192078e+000
6.719780e+002,5.016388e+000
6.729422e+002,5.005966e+000
6.739064e+002,3.885864e+000
6.748707e+002,3.360504e+000
6.758349e+002,3.665771e+000
6.767991e+002,4.056549e+000
6.777634e+002,4.389771e+000
6.787276e+002,4.701309e+000
6.796918e+002,4.932510e+000
6.806561e+002,5.168625e+000
6.816203e+002,4.935898e+000
6.825845e+002,3.539368e+000
6.835488e+002,1.666641e+000
6.845130e+002,4.337463e-001
6.854772e+002,7.213135e-001
6.864415e+002,2.000061e+000
6.874057e+002,3.100128e+000
6.883699e+002,3.891937e+000
6.893342e+002,4.121216e+000
6.902984e+002,3.617065e+000
6.912626e+002,2.570053e+000
6.922269e+002,2.095047e+000
6.931911e+002,2.957321e+000
6.941553e+002,3.634354e+000
6.951196e+002,3.590530e+000
6.960838e+002,3.270523e+000
6.970480e+002,3.603867e+000
6.980123e+002,5.300339e+000
6.989765e+002,6.412842e+000
6.999407e+002,5.872620e+000
7.009050e+002,4.746307e+000
7.018692e+002,3.683670e+000
7.028334e+002,2.985870e+000
7.037977e+002,2.695389e+000
7.047619e+002,3.243820e+000
7.057261e+002,4.269836e+000
7.066904e+002,4.852890e+000
7.076546e+002,4.837463e+000
7.086188e+002,4.531906e+000
7.095831e+002,4.441757e+000
7.105473e+002,4.745850e+000
7.115115e+002,4.449265e+000
7.124758e+002,2.987732e+000
7.134400e+002,1.548538e+000
7.144042e+002,1.003571e+000
7.153685e+002,1.394089e+000
7.163327e+002,1.648026e+000
7.172969e+002,6.795807e-001
7.182612e+002,8.987427e-002
7.192254e+002,6.913757e-001
7.201896e+002,2.155960e+000
7.211539e+002,3.773499e+000
7.221181e+002,4.994034e+000
7.230823e+002,5.905914e+000
7.240466e+002,7.150421e+000
7.250108e+002,8.604095e+000
7.259750e+002,9.099762e+000
7.269393e+002,7.700241e+000
7.279035e+002,4.625259e+000
7.288677e+002,2.570435e+000
7.298320e+002,2.265656e+000
7.307962e+002,2.590179e+000
7.317604e+002,4.177826e+000
7.327247e+002,6.113190e+000
7.336889e+002,6.969391e+000
7.346531e+002,5.985580e+000
7.356174e+002,4.625763e+000
7.365816e+002,3.823883e+000
7.375458e+002,3.309128e+000
7.385101e+002,2.763290e+000
7.394743e+002,2.168823e+000
7.404385e+002,1.889938e+000
7.414028e+002,2.617722e+000
7.423670e+002,3.902847e+000
7.433312e+002,4.554871e+000
7.442955e+002,4.634613e+000
7.452597e+002,4.348206e+000
7.462239e+002,3.749130e+000
7.471882e+002,2.617340e+000
7.481524e+002,1.967163e+000
7.491166e+002,1.998825e+000
7.500809e+002,1.918823e+000
7.510451e+002,1.129028e+000
7.520093e+002,-6.242371e-002
7.529736e+002,-5.027924e-001
7.539378e+002,9.165344e-001
7.549020e+002,2.623169e+000
7.558663e+002,3.691513e+000
7.568306e+002,4.311539e+000
7.577948e+002,4.669601e+000
7.587590e+002,4.868484e+000
7.597233e+002,4.960831e+000
7.606875e+002,5.529816e+000
7.616517e+002,6.542221e+000
7.626160e+002,6.626160e+000
7.635802e+002,5.085037e+000
7.645444e+002,2.822083e+000
7.655087e+002,1.771011e+000
7.664729e+002,2.644775e+000
7.674371e+002,3.169922e+000
7.684014e+002,2.753937e+000
7.693656e+002,2.377914e+000
7.703298e+002,2.771927e+000
7.712941e+002,3.981949e+000
7.722583e+002,5.321274e+000
7.732225e+002,6.704971e+000
7.741868e+002,7.548721e+000
7.751510e+002,7.066376e+000
7.761152e+002,5.660507e+000
7.770795e+002,4.242996e+000
7.780437e+002,3.603790e+000
7.790079e+002,3.637253e+000
7.799722e+002,3.775452e+000
7.809364e+002,4.087799e+000
7.819006e+002,4.102478e+000
7.828649e+002,3.287079e+000
7.838291e+002,2.113953e+000
7.847933e+002,2.137924e+000
7.857576e+002,4.413696e+000
7.867218e+002,5.879044e+000
7.876860e+002,5.803604e+000
7.886503e+002,5.161697e+000
7.896145e+002,4.630936e+000
7.905787e+002,4.433685e+000
7.915430e+002,4.486343e+000
7.925072e+002,4.606461e+000
7.934714e+002,4.858185e+000
7.944357e+002,5.849091e+000
7.953999e+002,7.402206e+000
7.963641e+002,8.374191e+000
7.973284e+002,7.367599e+000
7.982926e+002,4.200272e+000
7.992568e+002,2.689575e+000
8.002211e+002,3.236938e+000
8.011853e+002,3.792496e+000
8.021495e+002,3.707825e+000
8.031138e+002,3.297165e+000
8.040780e+002,3.252594e+000
8.050422e+002,3.628937e+000
8.060065e+002,4.260941e+000
8.069707e+002,5.379272e+000
8.079349e+002,6.404449e+000
8.088992e+002,6.718353e+000
8.098634e+002,6.195114e+000
8.108276e+002,5.474884e+000
8.117919e+002,5.655212e+000
8.127561e+002,5.947861e+000
8.137203e+002,4.755157e+000
8.146846e+002,2.042114e+000
8.156488e+002,-7.029724e-001
8.166130e+002,-1.735413e+000
8.175773e+002,-8.864899e-001
8.185415e+002,5.957031e-001
8.195057e+002,3.505646e+000
8.204700e+002,5.793579e+000
8.214342e+002,6.677856e+000
8.223984e+002,6.411545e+000
8.233627e+002,5.603928e+000
8.243269e+002,4.003540e+000
8.252911e+002,2.909714e+000
8.262554e+002,3.034790e+000
8.272196e+002,3.871857e+000
8.281838e+002,5.007706e+000
8.291481e+002,6.219467e+000
8.301123e+002,7.496796e+000
8.310765e+002,8.927963e+000
8.320408e+002,1.035300e+001
8.330050e+002,1.083066e+001
8.339692e+002,1.022736e+001
8.349335e+002,9.008682e+000
8.358977e+002,7.636841e+000
8.368619e+002,6.172287e+000
8.378262e+002,4.468307e+000
8.387904e+002,1.106262e+000
8.397546e+002,-1.000839e+000
8.407189e+002,-5.339508e-001
8.416831e+002,1.563568e+000
8.426473e+002,3.773926e+000
8.436116e+002,5.573669e+000
8.445758e+002,6.781143e+000
8.455400e+002,6.609665e+000
8.465043e+002,5.894974e+000
8.474685e+002,5.746216e+000
8.484327e+002,6.510422e+000
8.493970e+002,7.746399e+000
8.503612e+002,8.603943e+000
8.513254e+002,8.981659e+000
8.522897e+002,9.190338e+000
8.532539e+002,8.901855e+000
8.542181e+002,8.751495e+000
8.551824e+002,9.388062e+000
8.561466e+002,1.078601e+001
8.571108e+002,1.191643e+001
8.580751e+002,1.204440e+001
8.590393e+002,1.206471e+001
8.600035e+002,1.268361e+001
8.609678e+002,1.332208e+001
8.619320e+002,1.316748e+001
8.628962e+002,1.192947e+001
8.638605e+002,1.028780e+001
8.648247e+002,9.004868e+000
8.657889e+002,8.220306e+000
8.667532e+002,8.539108e+000
8.677174e+002,1.003656e+001
8.686816e+002,1.174384e+001
8.696459e+002,1.249573e+001
8.706101e+002,1.210567e+001
8.715743e+002,1.254655e+001
8.725386e+002,1.488419e+001
8.735028e+002,1.664914e+001
8.744670e+002,1.671681e+001
8.754313e+002,1.577281e+001
8.763955e+002,1.524666e+001
8.773597e+002,1.572334e+001
8.783240e+002,1.642000e+001
8.792882e+002,1.682288e+001
8.802524e+002,1.703806e+001
8.812167e+002,1.719487e+001
8.821809e+002,1.729796e+001
8.831451e+002,1.714140e+001
8.841094e+002,1.638873e+001
8.850736e+002,1.524007e+001
8.860378e+002,1.595334e+001
8.870021e+002,1.904506e+001
8.879663e+002,2.172571e+001
8.889305e+002,2.210129e+001
8.898948e+002,2.062033e+001
8.908590e+002,1.969241e+001
8.918232e+002,1.940793e+001
8.927875e+002,2.010484e+001
8.937517e+002,2.300722e+001
8.947159e+002,2.596524e+001
8.956802e+002,2.672223e+001
8.966444e+002,2.502171e+001
8.976086e+002,2.313034e+001
8.985729e+002,2.360510e+001
8.995371e+002,2.529347e+001
9.005013e+002,2.611438e+001
9.014656e+002,2.613713e+001
9.024298e+002,2.579474e+001
9.033940e+002,2.528760e+001
9.043583e+002,2.462813e+001
9.053225e+002,2.453607e+001
9.062867e+002,2.554399e+001
9.072510e+002,2.632469e+001
9.082152e+002,2.724181e+001
9.091794e+002,2.787744e+001
9.101437e+002,2.741220e+001
9.111079e+002,2.568463e+001
9.120721e+002,2.465080e+001
9.130364e+002,2.685506e+001
9.140006e+002,2.868527e+001
9.149648e+002,2.721297e+001
9.159291e+002,2.386411e+001
9.168933e+002,2.194666e+001
9.178575e+002,2.369199e+001
9.188218e+002,2.760359e+001
9.197860e+002,2.847990e+001
9.207502e+002,2.621461e+001
9.217145e+002,2.458078e+001
9.226787e+002,2.470154e+001
9.236429e+002,2.556366e+001
9.246072e+002,2.565076e+001
9.255714e+002,2.466258e+001
9.265356e+002,2.410539e+001
9.274999e+002,2.473756e+001
9.284641e+002,2.519148e+001
9.294283e+002,2.530933e+001
9.303926e+002,2.490918e+001
9.313568e+002,2.340305e+001
9.323210e+002,2.036078e+001
9.332853e+002,1.740822e+001
9.342495e+002,1.794344e+001
9.352137e+002,2.018155e+001
9.361780e+002,2.184813e+001
9.371422e+002,2.248547e+001
9.381064e+002,2.211809e+001
9.390707e+002,2.041533e+001
9.400349e+002,1.672893e+001
9.409991e+002,1.549304e+001
9.419634e+002,1.852550e+001
9.429276e+002,2.126254e+001
9.438918e+002,2.285152e+001
9.448561e+002,2.333899e+001
9.458203e+002,2.264659e+001
9.467845e+002,2.050827e+001
9.477488e+002,1.857251e+001
9.487130e+002,1.848862e+001
9.496772e+002,1.878825e+001
9.506415e+002,1.805298e+001
9.516057e+002,1.643878e+001
9.525699e+002,1.536140e+001
9.535342e+002,1.623285e+001
9.544984e+002,1.861075e+001
9.554626e+002,1.865460e+001
9.564269e+002,1.593446e+001
9.573911e+002,1.410585e+001
9.583553e+002,1.470290e+001
9.593196e+002,1.644025e+001
9.602838e+002,1.729242e+001
9.612480e+002,1.704349e+001
9.622123e+002,1.631679e+001
9.631765e+002,1.444026e+001
9.641407e+002,1.304230e+001
9.651050e+002,1.339906e+001
9.660692e+002,1.473233e+001
9.670334e+002,1.534221e+001
9.679977e+002,1.420969e+001
9.689619e+002,1.232066e+001
9.699261e+002,1.129845e+001
9.708904e+002,1.100661e+001
9.718546e+002,1.170793e+001
9.728188e+002,1.355046e+001
9.737831e+002,1.588141e+001
9.747473e+002,1.804353e+001
9.757115e+002,2.017427e+001
9.766758e+002,2.151758e+001
9.776400e+002,2.175795e+001
9.786042e+002,2.175278e+001
9.795685e+002,2.172203e+001
9.805327e+002,2.140535e+001
9.814969e+002,2.034221e+001
9.824612e+002,1.843542e+001
9.834254e+002,1.660136e+001
9.843896e+002,1.609264e+001
9.853539e+002,1.572430e+001
9.863181e+002,1.376036e+001
9.872823e+002,1.045909e+001
9.882466e+002,7.680222e+000
9.892108e+002,7.108856e+000
9.901750e+002,8.565811e+000
9.911393e+002,9.866745e+000
9.921035e+002,1.085654e+001
9.930677e+002,1.136969e+001
9.940320e+002,1.139740e+001
9.949962e+002,1.112753e+001
9.959604e+002,1.054498e+001
9.969247e+002,9.711151e+000
9.978889e+002,9.274628e+000
9.988531e+002,9.922623e+000
9.998174e+002,1.029073e+001
1.000782e+003,9.151596e+000
1.001746e+003,7.504761e+000
1.002710e+003,7.063187e+000
1.003674e+003,8.393265e+000
1.004639e+003,1.005466e+001
1.005603e+003,9.349503e+000
1.006567e+003,5.968857e+000
1.007531e+003,4.675705e+000
1.008495e+003,6.058609e+000
1.009460e+003,8.199738e+000
1.010424e+003,1.056360e+001
1.011388e+003,1.288795e+001
1.012352e+003,1.390695e+001
1.013317e+003,1.294669e+001
1.014281e+003,1.152783e+001
1.015245e+003,9.768433e+000
1.016209e+003,8.075699e+000
1.017174e+003,6.960602e+000
1.018138e+003,6.289169e+000
1.019102e+003,5.259445e+000
1.020066e+003,3.115982e+000
1.021031e+003,6.409760e-001
1.021995e+003,1.379395e-002
1.022959e+003,8.210754e-001
1.023923e+003,2.210449e+000
1.024887e+003,4.322067e+000
1.025852e+003,6.130798e+000
1.026816e+003,5.827469e+000
1.027780e+003,2.948883e+000
1.028744e+003,4.769592e-001
1.029709e+003,-2.235413e+000
1.030673e+003,-3.557083e+000
1.031637e+003,-2.213379e+000
1.032601e+003,4.613800e-001
1.033566e+003,2.917221e+000
1.034530e+003,4.599091e+000
1.035494e+003,5.446564e+000
1.036458e+003,5.098679e+000
1.037422e+003,3.902420e+000
1.038387e+003,1.978348e+000
1.039351e+003,-4.282227e-001
1.040315e+003,-1.571930e+000
1.041279e+003,1.273499e-001
1.042244e+003,3.886337e+000
1.043208e+003,5.618988e+000
1.044172e+003,4.078003e+000
1.045136e+003,2.220459e+000
1.046101e+003,-6.054077e-001
1.047065e+003,-2.911713e+000
1.048029e+003,-3.590591e+000
1.048993e+003,-2.902985e+000
1.049958e+003,-1.950058e+000
1.050922e+003,-1.144409e+000
1.051886e+003,-2.952271e-001
1.052850e+003,9.038239e-001
1.053814e+003,2.181107e+000
1.054779e+003,3.418655e+000
1.055743e+003,4.446106e+000
1.056707e+003,4.544739e+000
1.057671e+003,2.714874e+000
1.058636e+003,-1.080353e+000
1.059600e+003,-2.601318e+000
1.060564e+003,1.695251e-001
1.061528e+003,2.366394e+000
1.062493e+003,3.126526e+000
1.063457e+003,3.011703e+000
1.064421e+003,2.531204e+000
1.065385e+003,1.802704e+000
1.066349e+003,1.093338e+000
1.067314e+003,2.751465e-001
1.068278e+003,-1.171265e-001
1.069242e+003,7.572784e-001
1.070206e+003,2.156631e+000
1.071171e+003,2.734634e+000
1.072135e+003,1.975769e+000
1.073099e+003,7.430115e-001
1.074063e+003,5.840454e-001
1.075028e+003,1.671432e+000
1.075992e+003,2.133911e+000
1.076956e+003,1.510483e+000
1.077920e+003,1.008926e+000
1.078885e+003,1.213959e+000
1.079849e+003,1.892303e+000
1.080813e+003,2.682861e+000
1.081777e+003,3.645340e+000
1.082741e+003,4.204163e+000
1.083706e+003,3.618134e+000
1.084670e+003,2.729843e+000
1.085634e+003,1.986435e+000
1.086598e+003,1.300171e+000
1.087563e+003,1.942139e-001
1.088527e+003,-1.464386e+000
1.089491e+003,-2.795868e+000
1.090455e+003,-1.999176e+000
1.091420e+003,1.155289e+000
1.092384e+003,2.753036e+000
1.093348e+003,2.294418e+000
1.094312e+003,1.143204e+000
1.095276e+003,-2.114410e-001
1.096241e+003,-1.542435e+000
1.097205e+003,-2.261520e+000
1.098169e+003,-2.253265e+000
1.099133e+003,-1.956863e+000
1.100098e+003,-1.341934e+000
1.101062e+003,-6.273804e-001
1.102026e+003,3.321991e-001
1.102990e+003,1.257736e+000
1.103955e+003,1.434845e+000
1.104919e+003,4.396515e-001
1.105883e+003,-9.525452e-001
1.106847e+003,-8.625793e-001
1.107812e+003,7.054749e-001
1.108776e+003,1.062653e+000
1.109740e+003,-5.213928e-001
1.110704e+003,-2.032928e+000
1.111668e+003,-1.577332e+000
1.112633e+003,3.253937e-001
1.113597e+003,1.023941e+000
1.114561e+003,-4.509430e-001
1.115525e+003,-1.595154e+000
1.116490e+003,-1.394318e+000
1.117454e+003,-9.081573e-001
1.118418e+003,-5.076294e-001
1.119382e+003,-3.548737e-001
1.120347e+003,-8.320618e-001
1.121311e+003,-2.231567e+000
1.122275e+003,-3.815155e+000
1.123239e+003,-3.586777e+000
1.124203e+003,-1.653320e+000
1.125168e+003,-9.719849e-001
1.126132e+003,-2.265060e+000
1.127096e+003,-3.415588e+000
1.128060e+003,-2.387054e+000
1.129025e+003,1.743164e-001
1.129989e+003,1.072357e+000
1.130953e+003,-1.132980e+000
1.131917e+003,-2.226929e+000
1.132882e+003,1.450653e-001
1.133846e+003,2.684937e+000
1.134810e+003,3.238632e+000
1.135774e+003,2.275116e+000
1.136739e+003,1.438736e+000
1.137703e+003,1.648743e+000
1.138667e+003,2.220947e+000
1.139631e+003,1.819000e+000
1.140595e+003,6.365814e-001
1.141560e+003,4.720154e-001
1.142524e+003,1.636520e+000
1.143488e+003,3.232178e+000
1.144452e+003,4.448441e+000
1.145417e+003,5.573486e+000
1.146381e+003,7.901672e+000
1.147345e+003,1.222269e+001
1.148309e+003,1.557486e+001
1.149274e+003,1.679741e+001
1.150238e+003,1.749266e+001
1.151202e+003,1.805196e+001
1.152166e+003,1.886992e+001
1.153130e+003,2.053316e+001
1.154095e+003,2.317705e+001
1.155059e+003,2.595116e+001
1.156023e+003,2.797314e+001
1.156987e+003,2.904718e+001
1.157952e+003,2.823686e+001
1.158916e+003,2.540469e+001
1.159880e+003,2.233449e+001
1.160844e+003,1.978703e+001
1.161809e+003,1.743593e+001
1.162773e+003,1.450534e+001
1.163737e+003,1.057375e+001
1.164701e+003,8.031128e+000
1.165666e+003,9.202850e+000
1.166630e+003,1.018929e+001
1.167594e+003,9.355637e+000
1.168558e+003,7.528839e+000
1.169522e+003,5.772324e+000
1.170487e+003,4.548782e+000
1.171451e+003,3.950287e+000
1.172415e+003,4.161331e+000
1.173379e+003,4.937424e+000
1.174344e+003,4.969681e+000
1.175308e+003,4.221420e+000
1.176272e+003,3.879639e+000
1.177236e+003,5.087204e+000
1.178201e+003,6.359192e+000
1.179165e+003,5.223740e+000
1.180129e+003,1.579727e+000
1.181093e+003,-6.250458e-001
1.182057e+003,6.045685e-001
1.183022e+003,1.702698e+000
1.183986e+003,1.241684e+000
1.184950e+003,1.207275e-001
1.185914e+003,-9.393463e-001
1.186879e+003,-1.704880e+000
1.187843e+003,-2.226532e+000
1.188807e+003,-2.573929e+000
1.189771e+003,-2.703262e+000
1.190736e+003,-2.332016e+000
1.191700e+003,-1.418091e+000
1.192664e+003,-4.385986e-001
1.193628e+003,1.204453e+000
1.194593e+003,2.174866e+000
1.195557e+003,1.079987e+000
1.196521e+003,-1.508438e+000
1.197485e+003,-3.611191e+000
1.198449e+003,-4.992935e+000
1.199414e+003,-5.639053e+000
1.200378e+003,-4.942047e+000
1.201342e+003,-4.051361e+000
1.202306e+003,-3.675064e+000
1.203271e+003,-3.733017e+000
1.204235e+003,-3.838745e+000
1.205199e+003,-3.790298e+000
1.206163e+003,-3.756424e+000
1.207128e+003,-4.077240e+000
1.208092e+003,-4.779465e+000
1.209056e+003,-4.899307e+000
1.210020e+003,-4.020065e+000
1.210984e+003,-3.477646e+000
1.211949e+003,-3.603912e+000
1.212913e+003,-4.331253e+000
1.213877e+003,-5.984253e+000
1.214841e+003,-8.468506e+000
1.215806e+003,-9.709747e+000
1.216770e+003,-7.949768e+000
1.217734e+003,-6.313660e+000
1.218698e+003,-7.689346e+000
1.219663e+003,-1.005119e+001
1.220627e+003,-1.072450e+001
1.221591e+003,-9.409897e+000
1.222555e+003,-7.740646e+000
1.223520e+003,-7.200150e+000
1.224484e+003,-7.604462e+000
1.225448e+003,-8.213226e+000
1.226412e+003,-9.114044e+000
1.227376e+003,-1.009026e+001
1.228341e+003,-1.178912e+001
1.229305e+003,-1.289578e+001
1.230269e+003,-1.210480e+001
1.231233e+003,-1.038391e+001
1.232198e+003,-9.982071e+000
1.233162e+003,-1.154207e+001
1.234126e+003,-1.245831e+001
1.235090e+003,-9.979919e+000
1.236055e+003,-6.894684e+000
1.237019e+003,-6.261337e+000
1.237983e+003,-7.527222e+000
1.238947e+003,-9.065887e+000
1.239911e+003,-1.014870e+001
1.240876e+003,-1.089304e+001
1.241840e+003,-1.152966e+001
1.242804e+003,-1.207274e+001
1.243768e+003,-1.218385e+001
1.244733e+003,-1.097977e+001
1.245697e+003,-1.054417e+001
1.246661e+003,-1.229239e+001
1.247625e+003,-1.386595e+001
1.248590e+003,-1.285161e+001
1.249554e+003,-1.000255e+001
1.250518e+003,-8.122482e+000
1.251482e+003,-8.537018e+000
1.252447e+003,-9.981125e+000
1.253411e+003,-1.117973e+001
1.254375e+003,-1.211378e+001
1.255339e+003,-1.302304e+001
1.256303e+003,-1.383698e+001
1.257268e+003,-1.365735e+001
1.258232e+003,-1.166423e+001
1.259196e+003,-8.976532e+000
1.260160e+003,-7.827911e+000
1.261125e+003,-8.416504e+000
1.262089e+003,-8.956192e+000
1.263053e+003,-9.550980e+000
1.264017e+003,-9.853928e+000
1.264982e+003,-9.657547e+000
1.265946e+003,-9.181519e+000
1.266910e+003,-8.426208e+000
1.267874e+003,-7.587921e+000
1.268839e+003,-7.192291e+000
1.269803e+003,-7.597992e+000
1.270767e+003,-8.233475e+000
1.271731e+003,-7.782791e+000
1.272695e+003,-6.311752e+000
1.273660e+003,-6.196808e+000
1.274624e+003,-8.138306e+000
1.275588e+003,-1.001793e+001
1.276552e+003,-1.068045e+001
1.277517e+003,-1.042586e+001
1.278481e+003,-9.667389e+000
1.279445e+003,-8.373734e+000
1.280409e+003,-7.683319e+000
1.281374e+003,-8.391449e+000
1.282338e+003,-9.208374e+000
1.283302e+003,-9.478165e+000
1.284266e+003,-9.490646e+000
1.285230e+003,-9.525467e+000
1.286195e+003,-9.683640e+000
1.287159e+003,-1.005124e+001
1.288123e+003,-1.067386e+001
1.289087e+003,-1.122647e+001
1.290052e+003,-1.078885e+001
1.291016e+003,-8.854309e+000
1.291980e+003,-8.004654e+000
1.292944e+003,-9.340088e+000
1.293909e+003,-1.036388e+001
1.294873e+003,-9.523666e+000
1.295837e+003,-8.044632e+000
1.296801e+003,-7.827393e+000
1.297766e+003,-9.035645e+000
1.298730e+003,-1.008757e+001
1.299694e+003,-1.010941e+001
1.300658e+003,-9.869019e+000
1.301622e+003,-1.051291e+001
1.302587e+003,-1.132294e+001
1.303551e+003,-1.090363e+001
1.304515e+003,-9.111801e+000
1.305479e+003,-7.360733e+000
1.306444e+003,-6.814087e+000
1.307408e+003,-7.225449e+000
1.308372e+003,-7.771500e+000
1.309336e+003,-8.688782e+000
1.310301e+003,-9.005356e+000
1.311265e+003,-7.903275e+000
1.312229e+003,-7.084686e+000
1.313193e+003,-7.131851e+000
1.314157e+003,-7.681244e+000
1.315122e+003,-8.412598e+000
1.316086e+003,-9.231766e+000
1.317050e+003,-1.025359e+001
1.318014e+003,-1.157907e+001
1.318979e+003,-1.256140e+001
1.319943e+003,-1.160640e+001
1.320907e+003,-9.092728e+000
1.321871e+003,-8.829254e+000
1.322836e+003,-1.179654e+001
1.323800e+003,-1.435658e+001
1.324764e+003,-1.446054e+001
1.325728e+003,-1.300104e+001
1.326693e+003,-1.108708e+001
1.327657e+003,-8.768494e+000
1.328621e+003,-7.828888e+000
1.329585e+003,-9.610962e+000
1.330549e+003,-1.097847e+001
1.331514e+003,-9.756180e+000
1.332478e+003,-8.128586e+000
1.333442e+003,-8.386215e+000
1.334406e+003,-1.022771e+001
1.335371e+003,-1.181169e+001
1.336335e+003,-1.201601e+001
1.337299e+003,-1.136758e+001
1.338263e+003,-1.088672e+001
1.339228e+003,-1.062282e+001
1.340192e+003,-1.001239e+001
1.341156e+003,-8.507477e+000
1.342120e+003,-7.484009e+000
1.343084e+003,-7.374069e+000
1.344049e+003,-7.727097e+000
1.345013e+003,-8.565201e+000
1.345977e+003,-9.426987e+000
1.346941e+003,-9.080307e+000
1.347906e+003,-7.019913e+000
1.348870e+003,-4.774902e+000
1.349834e+003,-3.686615e+000
1.350798e+003,-3.468872e+000
1.351763e+003,-3.404968e+000
1.352727e+003,-3.478851e+000
1.353691e+003,-3.790024e+000
1.354655e+003,-4.448975e+000
1.355620e+003,-5.064407e+000
1.356584e+003,-4.828064e+000
1.357548e+003,-3.929108e+000
1.358512e+003,-4.470642e+000
1.359476e+003,-7.302002e+000
1.360441e+003,-9.778305e+000
1.361405e+003,-1.182243e+001
1.362369e+003,-1.266960e+001
1.363333e+003,-1.099323e+001
1.364298e+003,-8.315048e+000
1.365262e+003,-6.758453e+000
1.366226e+003,-6.762833e+000
1.367190e+003,-7.080505e+000
1.368155e+003,-6.582977e+000
1.369119e+003,-5.780319e+000
1.370083e+003,-6.365387e+000
1.371047e+003,-8.945679e+000
1.372011e+003,-1.008224e+001
1.372976e+003,-8.777267e+000
1.373940e+003,-7.573746e+000
1.374904e+003,-7.943176e+000
1.375868e+003,-8.514023e+000
1.376833e+003,-6.934921e+000
1.377797e+003,-3.523361e+000
1.378761e+003,-1.856934e+000
1.379725e+003,-3.920883e+000
1.380690e+003,-6.535172e+000
1.381654e+003,-6.087219e+000
1.382618e+003,-4.276993e+000
1.383582e+003,-3.355011e+000
1.384547e+003,-3.403915e+000
1.385511e+003,-3.642548e+000
1.386475e+003,-3.705780e+000
1.387439e+003,-3.818008e+000
1.388403e+003,-4.254272e+000
1.389368e+003,-5.022049e+000
1.390332e+003,-6.297745e+000
1.391296e+003,-8.867462e+000
1.392260e+003,-1.022510e+001
1.393225e+003,-8.826767e+000
1.394189e+003,-7.301865e+000
1.395153e+003,-7.419022e+000
1.396117e+003,-8.274826e+000
1.397082e+003,-8.188782e+000
1.398046e+003,-6.807190e+000
1.399010e+003,-5.182373e+000
1.399974e+003,-4.307678e+000
1.400938e+003,-4.191895e+000
1.401903e+003,-4.748947e+000
1.402867e+003,-6.213959e+000
1.403831e+003,-6.263519e+000
1.404795e+003,-3.663788e+000
1.405760e+003,-1.551712e+000
1.406724e+003,-1.214737e+000
1.407688e+003,-2.014236e+000
1.408652e+003,-3.428558e+000
1.409617e+003,-5.092178e+000
1.410581e+003,-6.205002e+000
1.411545e+003,-6.472443e+000
1.412509e+003,-6.022522e+000
1.413474e+003,-4.646774e+000
1.414438e+003,-2.933090e+000
1.415402e+003,-1.292068e+000
1.416366e+003,9.553528e-002
1.417330e+003,-2.651672e-001
1.418295e+003,-3.367157e+000
1.419259e+003,-6.839661e+000
1.420223e+003,-7.784271e+000
1.421187e+003,-6.652573e+000
1.422152e+003,-6.080719e+000
1.423116e+003,-6.324921e+000
1.424080e+003,-6.206039e+000
1.425044e+003,-4.748688e+000
1.426009e+003,-3.733810e+000
1.426973e+003,-4.671265e+000
1.427937e+003,-6.008453e+000
1.428901e+003,-5.439102e+000
1.429865e+003,-3.151474e+000
1.430830e+003,-1.454788e+000
1.431794e+003,-1.898514e+000
1.432758e+003,-3.585632e+000
1.433722e+003,-4.701294e+000
1.434687e+003,-5.151031e+000
1.435651e+003,-4.966995e+000
1.436615e+003,-3.736603e+000
1.437579e+003,-2.968796e+000
1.438544e+003,-3.105103e+000
1.439508e+003,-3.361404e+000
1.440472e+003,-3.110245e+000
1.441436e+003,-2.539825e+000
1.442401e+003,-2.107849e+000
1.443365e+003,-1.961517e+000
1.444329e+003,-2.059616e+000
1.445293e+003,-2.414459e+000
1.446257e+003,-2.779144e+000
1.447222e+003,-2.474258e+000
1.448186e+003,-1.748322e+000
1.449150e+003,-2.156525e+000
1.450114e+003,-4.257080e+000
1.451079e+003,-5.850616e+000
1.452043e+003,-5.676514e+000
1.453007e+003,-4.380096e+000
1.453971e+003,-2.282608e+000
1.454936e+003,2.793427e-001
1.455900e+003,9.074707e-001
1.456864e+003,-1.519867e+000
1.457828e+003,-3.564316e+000
1.458792e+003,-2.659912e+000
1.459757e+003,-1.171158e+000
1.460721e+003,-1.033783e+000
1.461685e+003,-1.796219e+000
1.462649e+003,-2.436340e+000
1.463614e+003,-2.620712e+000
1.464578e+003,-2.435104e+000
1.465542e+003,-1.906464e+000
1.466506e+003,-1.255676e+000
1.467471e+003,-1.072968e+000
1.468435e+003,-1.361893e+000
1.469399e+003,-1.670258e+000
1.470363e+003,-1.952484e+000
1.471328e+003,-2.484787e+000
1.472292e+003,-4.436798e+000
1.473256e+003,-5.748169e+000
1.474220e+003,-3.732376e+000
1.475184e+003,-1.598663e-001
1.476149e+003,1.039871e+000
1.477113e+003,-1.152008e+000
1.478077e+003,-3.745728e+000
1.479041e+003,-3.756897e+000
1.480006e+003,-2.140045e+000
1.480970e+003,-2.288498e+000
1.481934e+003,-5.121552e+000
1.482898e+003,-6.052902e+000
1.483863e+003,-3.779205e+000
1.484827e+003,-1.696808e+000
1.485791e+003,-3.891144e-001
1.486755e+003,2.170715e-001
1.487719e+003,-1.531830e-001
1.488684e+003,-1.178696e+000
1.489648e+003,-2.102280e+000
1.490612e+003,-2.635681e+000
1.491576e+003,-2.790558e+000
1.492541e+003,-2.645859e+000
1.493505e+003,-2.111206e+000
1.494469e+003,-5.439606e-001
1.495433e+003,1.708572e+000
1.496398e+003,2.769348e+000
1.497362e+003,2.315857e+000
1.498326e+003,1.389435e+000
1.499290e+003,-2.318420e-001
1.500255e+003,-1.512558e+000
1.501219e+003,-7.348328e-001
1.502183e+003,1.757935e+000
1.503147e+003,3.937225e+000
1.504111e+003,5.330215e+000
1.505076e+003,6.561646e+000
1.506040e+003,8.080307e+000
1.507004e+003,9.515762e+000
1.507968e+003,1.005695e+001
1.508933e+003,1.037494e+001
1.509897e+003,1.199417e+001
1.510861e+003,1.523846e+001
1.511825e+003,1.901601e+001
1.512790e+003,2.257959e+001
1.513754e+003,2.595735e+001
1.514718e+003,2.940836e+001
1.515682e+003,3.287355e+001
1.516646e+003,3.565610e+001
1.517611e+003,3.766531e+001
1.518575e+003,3.929491e+001
1.519539e+003,4.082669e+001
1.520503e+003,4.196651e+001
1.521468e+003,4.238675e+001
1.522432e+003,4.231767e+001
1.523396e+003,4.209619e+001
1.524360e+003,4.175499e+001
1.525325e+003,4.111523e+001
1.526289e+003,4.007983e+001
1.527253e+003,3.874130e+001
1.528217e+003,3.727788e+001
1.529182e+003,3.574524e+001
1.530146e+003,3.341570e+001
1.531110e+003,2.959656e+001
1.532074e+003,2.616692e+001
1.533039e+003,2.334355e+001
1.534003e+003,2.051205e+001
1.534967e+003,1.739748e+001
1.535931e+003,1.438438e+001
1.536896e+003,1.167853e+001
1.537860e+003,9.496536e+000
1.538824e+003,8.394455e+000
1.539788e+003,8.532867e+000
1.540752e+003,8.833405e+000
1.541717e+003,7.963547e+000
1.542681e+003,6.057877e+000
1.543645e+003,3.702332e+000
1.544609e+003,3.059387e-002
1.545573e+003,-1.484360e+000
1.546538e+003,3.411102e-001
1.547502e+003,2.481110e+000
1.548466e+003,4.157578e+000
1.549430e+003,5.563736e+000
1.550395e+003,7.098709e+000
1.551359e+003,8.476212e+000
1.552323e+003,8.702362e+000
1.553287e+003,7.531448e+000
1.554252e+003,6.425735e+000
1.555216e+003,6.806763e+000
1.556180e+003,7.684631e+000
1.557144e+003,6.447937e+000
1.558109e+003,3.046097e+000
1.559073e+003,1.243347e+000
1.560037e+003,1.832809e+000
1.561001e+003,2.271622e+000
1.561966e+003,1.629807e+000
1.562930e+003,7.760620e-001
1.563894e+003,1.703796e-001
1.564858e+003,-1.885986e-002
1.565823e+003,9.034271e-001
1.566787e+003,2.939911e+000
1.567751e+003,4.172607e+000
1.568715e+003,3.274658e+000
1.569679e+003,2.002060e+000
1.570644e+003,2.854523e+000
1.571608e+003,4.895935e+000
1.572572e+003,5.485886e+000
1.573536e+003,4.573517e+000
1.574500e+003,3.498322e+000
1.575465e+003,2.402191e+000
1.576429e+003,1.669266e+000
1.577393e+003,1.655716e+000
1.578357e+003,2.167526e+000
1.579322e+003,3.038666e+000
1.580286e+003,4.219147e+000
1.581250e+003,5.227402e+000
1.582214e+003,6.057617e+000
1.583179e+003,6.119888e+000
1.584143e+003,4.373489e+000
1.585107e+003,2.074738e+000
1.586071e+003,8.328552e-001
1.587036e+003,5.982513e-001
1.588000e+003,1.176895e+000
1.588964e+003,2.541046e+000
1.589928e+003,3.646545e+000
1.590893e+003,3.491074e+000
1.591857e+003,3.015259e+000
1.592821e+003,3.829208e+000
1.593785e+003,5.678726e+000
1.594750e+003,7.035339e+000
1.595714e+003,7.676834e+000
1.596678e+003,7.797256e+000
1.597642e+003,7.041885e+000
1.598606e+003,6.449112e+000
1.599571e+003,7.318069e+000
1.600535e+003,8.596832e+000
1.601499e+003,8.582031e+000
1.602463e+003,7.490784e+000
1.603427e+003,7.280655e+000
1.604392e+003,8.878387e+000
1.605356e+003,1.051854e+001
1.606320e+003,1.004106e+001
1.607284e+003,8.352325e+000
1.608249e+003,8.269699e+000
1.609213e+003,9.868774e+000
1.610177e+003,1.067416e+001
1.611141e+003,9.969009e+000
1.612106e+003,9.227997e+000
1.613070e+003,8.707840e+000
1.614034e+003,8.844666e+000
1.614998e+003,1.091379e+001
1.615963e+003,1.348950e+001
1.616927e+003,1.369254e+001
1.617891e+003,1.143477e+001
1.618855e+003,9.687851e+000
1.619820e+003,1.023402e+001
1.620784e+003,1.173688e+001
1.621748e+003,1.252197e+001
1.622712e+003,1.279124e+001
1.623677e+003,1.325169e+001
1.624641e+003,1.405615e+001
1.625605e+003,1.415990e+001
1.626569e+003,1.245883e+001
1.627533e+003,1.113206e+001
1.628498e+003,1.184386e+001
1.629462e+003,1.298729e+001
1.630426e+003,1.325122e+001
1.631390e+003,1.279854e+001
1.632354e+003,1.216098e+001
1.633319e+003,1.150786e+001
1.634283e+003,1.089876e+001
1.635247e+003,1.034457e+001
1.636211e+003,9.911743e+000
1.637176e+003,9.748001e+000
1.638140e+003,9.881363e+000
1.639104e+003,1.038304e+001
1.640068e+003,1.150894e+001
1.641033e+003,1.184332e+001
1.641997e+003,1.021933e+001
1.642961e+003,8.981308e+000
1.643925e+003,9.880493e+000
1.644890e+003,1.119756e+001
1.645854e+003,1.076202e+001
1.646818e+003,9.317429e+000
1.647782e+003,9.396194e+000
1.648747e+003,1.165829e+001
1.649711e+003,1.386954e+001
1.650675e+003,1.417548e+001
1.651639e+003,1.344203e+001
1.652604e+003,1.337589e+001
1.653568e+003,1.390294e+001
1.654532e+003,1.404396e+001
1.655496e+003,1.367024e+001
1.656460e+003,1.321021e+001
1.657425e+003,1.291104e+001
1.658389e+003,1.243112e+001
1.659353e+003,1.119931e+001
1.660317e+003,9.978943e+000
1.661281e+003,9.789368e+000
1.662246e+003,1.030762e+001
1.663210e+003,1.030650e+001
1.664174e+003,9.444611e+000
1.665138e+003,8.934219e+000
1.666103e+003,9.982758e+000
1.667067e+003,1.164651e+001
1.668031e+003,1.203596e+001
1.668995e+003,1.124350e+001
1.669960e+003,1.033658e+001
1.670924e+003,9.345810e+000
1.671888e+003,8.504608e+000
1.672852e+003,7.770859e+000
1.673817e+003,7.294189e+000
1.674781e+003,7.411575e+000
1.675745e+003,7.627182e+000
1.676709e+003,7.325592e+000
1.677674e+003,6.628448e+000
1.678638e+003,5.957092e+000
1.679602e+003,5.454056e+000
1.680566e+003,5.392014e+000
1.681531e+003,6.274368e+000
1.682495e+003,7.422211e+000
1.683459e+003,7.408722e+000
1.684423e+003,6.437698e+000
1.685387e+003,6.187607e+000
1.686352e+003,6.950455e+000
1.687316e+003,7.394714e+000
1.688280e+003,6.927383e+000
1.689244e+003,6.360214e+000
1.690208e+003,6.317947e+000
1.691173e+003,6.438553e+000
1.692137e+003,6.384491e+000
1.693101e+003,6.225555e+000
1.694065e+003,6.157593e+000
1.695030e+003,6.184769e+000
1.695994e+003,5.782806e+000
1.696958e+003,4.232346e+000
1.697922e+003,2.652679e+000
1.698887e+003,2.747375e+000
1.699851e+003,3.919479e+000
1.700815e+003,4.213776e+000
1.701779e+003,3.447708e+000
1.702744e+003,2.712143e+000
1.703708e+003,2.376785e+000
1.704672e+003,2.342148e+000
1.705636e+003,2.599808e+000
1.706601e+003,2.872360e+000
1.707565e+003,2.804672e+000
1.708529e+003,2.549866e+000
1.709493e+003,2.537598e+000
1.710458e+003,2.879517e+000
1.711422e+003,2.758804e+000
1.712386e+003,1.328766e+000
1.713350e+003,3.898621e-002
1.714314e+003,2.861328e-001
1.715279e+003,1.168304e+000
1.716243e+003,1.011780e+000
1.717207e+003,3.123474e-002
1.718171e+003,-8.972168e-003
1.719135e+003,1.389526e+000
1.720100e+003,2.646423e+000
1.721064e+003,2.643509e+000
1.722028e+003,2.081558e+000
1.722992e+003,2.059235e+000
1.723957e+003,2.476776e+000
1.724921e+003,2.245453e+000
1.725885e+003,1.047974e+000
1.726849e+003,5.002289e-001
1.727814e+003,1.228348e+000
1.728778e+003,2.374237e+000
1.729742e+003,4.148438e+000
1.730706e+003,5.613602e+000
1.731671e+003,5.621796e+000
1.732635e+003,4.569214e+000
1.733599e+003,3.364044e+000
1.734563e+003,2.362762e+000
1.735528e+003,1.880127e+000
1.736492e+003,2.041534e+000
1.737456e+003,2.058670e+000
1.738420e+003,8.661499e-001
1.739385e+003,-9.487152e-001
1.740349e+003,-9.258728e-001
1.741313e+003,1.538605e+000
1.742277e+003,3.013214e+000
1.743241e+003,3.374893e+000
1.744206e+003,3.140457e+000
1.745170e+003,1.503571e+000
1.746134e+003,2.123108e-001
1.747098e+003,7.022247e-001
1.748063e+003,1.689850e+000
1.749027e+003,1.604797e+000
1.749991e+003,6.299438e-001
1.750955e+003,-2.186584e-001
1.751919e+003,-5.798340e-001
1.752884e+003,-7.696228e-001
1.753848e+003,-1.048401e+000
1.754812e+003,-1.351532e+000
1.755776e+003,-1.526230e+000
1.756741e+003,-1.512207e+000
1.757705e+003,-1.096420e+000
1.758669e+003,-1.304474e-001
1.759633e+003,6.550140e-001
1.760598e+003,1.368164e+000
1.761562e+003,1.505600e+000
1.762526e+003,9.009552e-001
1.763490e+003,-1.541901e-001
1.764455e+003,-2.190704e+000
1.765419e+003,-4.154907e+000
1.766383e+003,-4.307747e+000
1.767347e+003,-2.760025e+000
1.768312e+003,-1.044373e+000
1.769276e+003,1.172943e-001
1.770240e+003,6.495209e-001
1.771204e+003,3.464813e-001
1.772168e+003,-3.215942e-001
1.773133e+003,-3.193512e-001
1.774097e+003,2.599335e-001
1.775061e+003,4.273529e-001
1.776025e+003,-5.676270e-002
1.776990e+003,-3.737488e-001
1.777954e+003,-2.266998e-001
1.778918e+003,3.246918e-001
1.779882e+003,1.677338e+000
1.780846e+003,2.934998e+000
1.781811e+003,2.728622e+000
1.782775e+003,1.516891e+000
1.783739e+003,7.272186e-001
1.784703e+003,5.812225e-001
1.785668e+003,8.376923e-001
1.786632e+003,1.835892e+000
1.787596e+003,2.462128e+000
1.788560e+003,1.626068e+000
1.789525e+003,2.933350e-001
1.790489e+003,-5.630646e-001
1.791453e+003,-7.777405e-001
1.792417e+003,3.277130e-001
1.793382e+003,2.655518e+000
1.794346e+003,4.077957e+000
1.795310e+003,3.424713e+000
1.796274e+003,1.837921e+000
1.797239e+003,5.115509e-001
1.798203e+003,-3.659668e-001
1.799167e+003,-3.822632e-001
1.800131e+003,4.658508e-001
1.801095e+003,1.262833e+000
1.802060e+003,2.736389e+000
1.803024e+003,3.253952e+000
1.803988e+003,1.287369e+000
1.804952e+003,-6.718445e-002
1.805917e+003,1.439194e+000
1.806881e+003,3.589737e+000
1.807845e+003,4.355331e+000
1.808809e+003,3.858444e+000
1.809773e+003,2.628616e+000
1.810738e+003,1.066116e+000
1.811702e+003,-1.199799e-001
1.812666e+003,-4.965363e-001
1.813630e+003,-3.962555e-001
1.814595e+003,-2.477722e-001
1.815559e+003,-3.715515e-002
1.816523e+003,4.380493e-001
1.817487e+003,1.242722e+000
1.818452e+003,1.677841e+000
1.819416e+003,1.554749e+000
1.820380e+003,1.721329e+000
1.821344e+003,2.652664e+000
1.822309e+003,3.446350e+000
1.823273e+003,4.194550e+000
1.824237e+003,4.173141e+000
1.825201e+003,1.431900e+000
1.826166e+003,-2.560890e+000
1.827130e+003,-3.522972e+000
1.828094e+003,-8.334961e-001
1.829058e+003,1.429443e+000
1.830022e+003,1.190231e+000
1.830987e+003,3.976440e-001
1.831951e+003,4.610443e-001
1.832915e+003,1.096802e+000
1.833879e+003,2.192657e+000
1.834844e+003,3.447403e+000
1.835808e+003,4.072540e+000
1.836772e+003,3.964981e+000
1.837736e+003,3.325729e+000
1.838700e+003,2.181091e+000
1.839665e+003,1.272461e+000
1.840629e+003,1.376312e+000
1.841593e+003,2.003265e+000
1.842557e+003,2.049484e+000
1.843522e+003,1.522171e+000
1.844486e+003,1.239792e+000
1.845450e+003,1.328659e+000
1.846414e+003,1.594467e+000
1.847379e+003,2.239273e+000
1.848343e+003,2.568817e+000
1.849307e+003,2.236572e+000
1.850271e+003,1.745453e+000
1.851236e+003,1.370636e+000
1.852200e+003,1.184097e+000
1.853164e+003,1.419632e+000
1.854128e+003,1.744888e+000
1.855093e+003,1.049454e+000
1.856057e+003,-8.246307e-001
1.857021e+003,-1.905182e+000
1.857985e+003,-4.337463e-001
1.858949e+003,1.987350e+000
1.859914e+003,2.509583e+000
1.860878e+003,1.523026e+000
1.861842e+003,1.096802e+000
1.862806e+003,1.227768e+000
1.863771e+003,1.728455e+000
1.864735e+003,2.660980e+000
1.865699e+003,3.440811e+000
1.866663e+003,3.905869e+000
1.867627e+003,4.086700e+000
1.868592e+003,3.915146e+000
1.869556e+003,3.410477e+000
1.870520e+003,2.608810e+000
1.871484e+003,1.580917e+000
1.872449e+003,8.233185e-001
1.873413e+003,5.176697e-001
1.874377e+003,6.516418e-001
1.875341e+003,1.195801e+000
1.876306e+003,1.907501e+000
1.877270e+003,3.179260e+000
1.878234e+003,4.044968e+000
1.879198e+003,2.821274e+000
1.880163e+003,8.522491e-001
1.881127e+003,9.541626e-001
1.882091e+003,3.000854e+000
1.883055e+003,4.545578e+000
1.884020e+003,4.568375e+000
1.884984e+003,4.110596e+000
1.885948e+003,4.117599e+000
1.886912e+003,4.377274e+000
1.887876e+003,4.476456e+000
1.888841e+003,4.437073e+000
1.889805e+003,4.493729e+000
1.890769e+003,4.743332e+000
1.891733e+003,4.446640e+000
1.892698e+003,2.895691e+000
1.893662e+003,2.280533e+000
1.894626e+003,4.228729e+000
1.895590e+003,6.208481e+000
1.896554e+003,6.519073e+000
1.897519e+003,5.948929e+000
1.898483e+003,4.963058e+000
1.899447e+003,3.819656e+000
1.900411e+003,3.581497e+000
1.901376e+003,4.523682e+000
1.902340e+003,4.916870e+000
1.903304e+003,3.521660e+000
1.904268e+003,2.328850e+000
1.905233e+003,3.179466e+000
1.906197e+003,4.270866e+000
1.907161e+003,3.217567e+000
1.908125e+003,1.324821e+000
1.909090e+003,1.119736e+000
1.910054e+003,2.548599e+000
1.911018e+003,4.260254e+000
1.911982e+003,5.681000e+000
1.912947e+003,6.427078e+000
1.913911e+003,6.202682e+000
1.914875e+003,5.606659e+000
1.915839e+003,5.601715e+000
1.916803e+003,5.900528e+000
1.917768e+003,5.022659e+000
1.918732e+003,2.570007e+000
1.919696e+003,2.049179e+000
1.920660e+003,4.640579e+000
1.921625e+003,5.940689e+000
1.922589e+003,3.794540e+000
1.923553e+003,2.083420e+000
1.924517e+003,3.535110e+000
1.925481e+003,5.710678e+000
1.926446e+003,6.684639e+000
1.927410e+003,6.757179e+000
1.928374e+003,6.299126e+000
1.929338e+003,5.425713e+000
1.930303e+003,5.275459e+000
1.931267e+003,6.475822e+000
1.932231e+003,7.614441e+000
1.933195e+003,8.210770e+000
1.934160e+003,8.219574e+000
1.935124e+003,7.083237e+000
1.936088e+003,5.727997e+000
1.937052e+003,5.440826e+000
1.938017e+003,5.899414e+000
1.938981e+003,6.225098e+000
1.939945e+003,6.184158e+000
1.940909e+003,5.769257e+000
1.941874e+003,5.024460e+000
1.942838e+003,4.474716e+000
1.943802e+003,4.688980e+000
1.944766e+003,5.169785e+000
1.945730e+003,4.610611e+000
1.946695e+003,3.220612e+000
1.947659e+003,3.343262e+000
1.948623e+003,5.179916e+000
1.949587e+003,5.944572e+000
1.950552e+003,5.091499e+000
1.951516e+003,4.360115e+000
1.952480e+003,4.376961e+000
1.953444e+003,4.490211e+000
1.954408e+003,3.886269e+000
1.955373e+003,3.415497e+000
1.956337e+003,4.964676e+000
1.957301e+003,7.752167e+000
1.958265e+003,8.607056e+000
1.959230e+003,7.207977e+000
1.960194e+003,6.112015e+000
1.961158e+003,5.630737e+000
1.962122e+003,5.325851e+000
1.963087e+003,5.094208e+000
1.964051e+003,5.040009e+000
1.965015e+003,5.384888e+000
1.965979e+003,5.907013e+000
1.966944e+003,6.191284e+000
1.967908e+003,6.453354e+000
1.968872e+003,7.601654e+000
1.969836e+003,9.301804e+000
1.970801e+003,9.618591e+000
1.971765e+003,7.843185e+000
1.972729e+003,6.009308e+000
1.973693e+003,5.887276e+000
1.974657e+003,6.454659e+000
1.975622e+003,5.967888e+000
1.976586e+003,4.995766e+000
1.977550e+003,5.403938e+000
1.978514e+003,6.933418e+000
1.979479e+003,7.734680e+000
1.980443e+003,7.555969e+000
1.981407e+003,7.395035e+000
1.982371e+003,7.647568e+000
1.983335e+003,8.044754e+000
1.984300e+003,8.443298e+000
1.985264e+003,8.284622e+000
1.986228e+003,6.493195e+000
1.987192e+003,3.708923e+000
1.988157e+003,3.380524e+000
1.989121e+003,6.097336e+000
1.990085e+003,8.428268e+000
1.991049e+003,1.093776e+001
1.992014e+003,1.198763e+001
1.992978e+003,1.018181e+001
1.993942e+003,8.444763e+000
1.994906e+003,7.790787e+000
1.995871e+003,7.540543e+000
1.996835e+003,7.288750e+000
1.997799e+003,7.113899e+000
1.998763e+003,7.185127e+000
1.999728e+003,7.412987e+000
