5.003444e+002,3.650833e+001
5.013087e+002,3.831848e+001
5.022729e+002,3.700298e+001
5.032371e+002,3.401474e+001
5.042014e+002,3.441086e+001
5.051656e+002,3.762660e+001
5.061298e+002,4.063911e+001
5.070941e+002,4.056966e+001
5.080583e+002,3.651836e+001
5.090225e+002,3.407112e+001
5.099868e+002,3.377505e+001
5.109510e+002,3.391148e+001
5.119152e+002,3.373506e+001
5.128795e+002,3.320355e+001
5.138437e+002,3.252756e+001
5.148079e+002,3.141953e+001
5.157722e+002,3.055830e+001
5.167364e+002,3.067136e+001
5.177006e+002,3.149461e+001
5.186649e+002,3.170126e+001
5.196291e+002,2.888029e+001
5.205933e+002,2.526804e+001
5.215576e+002,2.320049e+001
5.225218e+002,2.284999e+001
5.234860e+002,2.358969e+001
5.244503e+002,2.446393e+001
5.254145e+002,2.576843e+001
5.263787e+002,2.586981e+001
5.273430e+002,2.353369e+001
5.283072e+002,2.081978e+001
5.292714e+002,2.084850e+001
5.302357e+002,2.556207e+001
5.311999e+002,2.849953e+001
5.321641e+002,2.867902e+001
5.331284e+002,2.761247e+001
5.340926e+002,2.601515e+001
5.350568e+002,2.400363e+001
5.360211e+002,2.248955e+001
5.369853e+002,2.313568e+001
5.379495e+002,2.435458e+001
5.389138e+002,2.480429e+001
5.398780e+002,2.395279e+001
5.408422e+002,2.225450e+001
5.418065e+002,2.082027e+001
5.427707e+002,1.964189e+001
5.437349e+002,1.880493e+001
5.446992e+002,1.841150e+001
5.456634e+002,1.830827e+001
5.466276e+002,1.798254e+001
5.475919e+002,1.709018e+001
5.485561e+002,1.648790e+001
5.495203e+002,1.601962e+001
5.504846e+002,1.583340e+001
5.514488e+002,1.632492e+001
5.524130e+002,1.816068e+001
5.533773e+002,1.963818e+001
5.543415e+002,1.986418e+001
5.553057e+002,1.940567e+001
5.562700e+002,1.874599e+001
5.572342e+002,1.817059e+001
5.581984e+002,1.761537e+001
5.591627e+002,1.715755e+001
5.601269e+002,1.673259e+001
5.610911e+002,1.580609e+001
5.620554e+002,1.399243e+001
5.630196e+002,1.149347e+001
5.639838e+002,1.056058e+001
5.649481e+002,1.259953e+001
5.659123e+002,1.415446e+001
5.668765e+002,1.444659e+001
5.678408e+002,1.397990e+001
5.688050e+002,1.411681e+001
5.697692e+002,1.604083e+001
5.707335e+002,1.699142e+001
5.716977e+002,1.583043e+001
5.726619e+002,1.346559e+001
5.736262e+002,1.093739e+001
5.745904e+002,8.828583e+000
5.755546e+002,7.458466e+000
5.765189e+002,7.255875e+000
5.774831e+002,7.768799e+000
5.784473e+002,8.497055e+000
5.794116e+002,9.135315e+000
5.803758e+002,9.692764e+000
5.813400e+002,9.269562e+000
5.823043e+002,7.233475e+000
5.832685e+002,5.744980e+000
5.842327e+002,5.931458e+000
5.851970e+002,7.577393e+000
5.861612e+002,8.860947e+000
5.871254e+002,8.913269e+000
5.880897e+002,9.162216e+000
5.890539e+002,1.041116e+001
5.900181e+002,1.188087e+001
5.909824e+002,1.215395e+001
5.919466e+002,9.940643e+000
5.929108e+002,7.240799e+000
5.938751e+002,6.163391e+000
5.948393e+002,6.135284e+000
5.958035e+002,6.373352e+000
5.967678e+002,6.307144e+000
5.977320e+002,6.021423e+000
5.986962e+002,5.741302e+000
5.996605e+002,5.259399e+000
6.006247e+002,5.253555e+000
6.015889e+002,6.521637e+000
6.025532e+002,8.911301e+000
6.035174e+002,1.003542e+001
6.044816e+002,7.952652e+000
6.054459e+002,6.681732e+000
6.064101e+002,7.404831e+000
6.073743e+002,9.221893e+000
6.083386e+002,1.053090e+001
6.093028e+002,1.063824e+001
6.102670e+002,9.722900e+000
6.112313e+002,6.917160e+000
6.121955e+002,3.772873e+000
6.131597e+002,2.733643e+000
6.141240e+002,5.392334e+000
6.150882e+002,1.030733e+001
6.160524e+002,1.093597e+001
6.170167e+002,8.107574e+000
6.179809e+002,5.104233e+000
6.189451e+002,3.144669e+000
6.199094e+002,2.149490e+000
6.208736e+002,1.849442e+000
6.218378e+002,3.536911e+000
6.228021e+002,4.640854e+000
6.237663e+002,4.220657e+000
6.247305e+002,3.298096e+000
6.256948e+002,3.812576e+000
6.266590e+002,7.455734e+000
6.276232e+002,1.008743e+001
6.285875e+002,8.445511e+000
6.295517e+002,5.277802e+000
6.305159e+002,3.680008e+000
6.314802e+002,5.220856e+000
6.324444e+002,8.142883e+000
6.334086e+002,6.889206e+000
6.343729e+002,3.003662e+000
6.353371e+002,5.175171e-001
6.363013e+002,9.677277e-001
6.372656e+002,3.553650e+000
6.382298e+002,5.518036e+000
6.391940e+002,6.850555e+000
6.401583e+002,7.274353e+000
6.411225e+002,6.132751e+000
6.420867e+002,4.618164e+000
6.430510e+002,4.321777e+000
6.440152e+002,6.130341e+000
6.449794e+002,7.130630e+000
6.459437e+002,5.057846e+000
6.469079e+002,2.278564e+000
6.478721e+002,7.837372e-001
6.488364e+002,1.192642e+000
6.498006e+002,2.229446e+000
6.507648e+002,1.043442e+000
6.517291e+002,-1.229019e+000
6.526933e+002,-1.294952e+000
6.536575e+002,1.587234e+000
6.546218e+002,5.613007e+000
6.555860e+002,7.260620e+000
6.565502e+002,4.780991e+000
6.575145e+002,3.491272e+000
6.584787e+002,4.010178e+000
6.594429e+002,5.059235e+000
6.604072e+002,5.878677e+000
6.613714e+002,6.428375e+000
6.623356e+002,6.188766e+000
6.632999e+002,3.629822e+000
6.642641e+002,1.208755e+000
6.652283e+002,6.271820e-001
6.661926e+002,1.757172e+000
6.671568e+002,3.011292e+000
6.681210e+002,2.213715e+000
6.690853e+002,3.559418e-001
6.700495e+002,4.261017e-001
6.710137e+002,2.359818e+000
6.719780e+002,4.398560e+000
6.729422e+002,4.587769e+000
6.739064e+002,2.387924e+000
6.748707e+002,1.342056e+000
6.758349e+002,2.365295e+000
6.767991e+002,3.108215e+000
6.777634e+002,2.464798e+000
6.787276e+002,6.654053e-001
6.796918e+002,-8.949280e-001
6.806561e+002,-2.419510e+000
6.816203e+002,-2.845093e+000
6.825845e+002,-9.242706e-001
6.835488e+002,2.196045e+000
6.845130e+002,4.684540e+000
6.854772e+002,5.155533e+000
6.864415e+002,4.574081e+000
6.874057e+002,5.094284e+000
6.883699e+002,6.263107e+000
6.893342e+002,7.227127e+000
6.902984e+002,7.551727e+000
6.912626e+002,7.296738e+000
6.922269e+002,6.685272e+000
6.931911e+002,5.180954e+000
6.941553e+002,4.328445e+000
6.951196e+002,4.837204e+000
6.960838e+002,5.710281e+000
6.970480e+002,5.259445e+000
6.980123e+002,2.522293e+000
6.989765e+002,1.603851e-001
6.999407e+002,-1.124985e+000
7.009050e+002,-1.487320e+000
7.018692e+002,-6.251984e-001
7.028334e+002,1.334793e+000
7.037977e+002,3.412262e+000
7.047619e+002,4.000290e+000
7.057261e+002,3.646606e+000
7.066904e+002,3.190765e+000
7.076546e+002,2.757431e+000
7.086188e+002,2.513901e+000
7.095831e+002,2.797089e+000
7.105473e+002,4.017502e+000
7.115115e+002,4.186783e+000
7.124758e+002,2.426376e+000
7.134400e+002,6.533813e-001
7.144042e+002,6.477356e-002
7.153685e+002,7.320404e-001
7.163327e+002,1.668930e+000
7.172969e+002,2.968323e+000
7.182612e+002,3.967758e+000
7.192254e+002,4.141678e+000
7.201896e+002,3.748413e+000
7.211539e+002,3.413635e+000
7.221181e+002,3.714005e+000
7.230823e+002,4.224075e+000
7.240466e+002,3.541779e+000
7.250108e+002,2.062469e+000
7.259750e+002,1.144455e+000
7.269393e+002,1.563232e+000
7.279035e+002,3.051071e+000
7.288677e+002,4.111557e+000
7.298320e+002,5.469025e+000
7.307962e+002,5.736023e+000
7.317604e+002,3.897324e+000
7.327247e+002,1.293762e+000
7.336889e+002,-2.315216e-001
7.346531e+002,-1.007538e-001
7.356174e+002,1.903687e-001
7.365816e+002,1.823425e-001
7.375458e+002,1.174927e-002
7.385101e+002,-4.999237e-001
7.394743e+002,-1.230286e+000
7.404385e+002,-1.599106e+000
7.414028e+002,-5.473785e-001
7.423670e+002,1.421677e+000
7.433312e+002,2.710709e+000
7.442955e+002,3.352249e+000
7.452597e+002,3.503067e+000
7.462239e+002,3.150269e+000
7.471882e+002,2.017776e+000
7.481524e+002,1.426788e+000
7.491166e+002,1.497787e+000
7.500809e+002,1.611404e+000
7.510451e+002,1.617630e+000
7.520093e+002,1.493500e+000
7.529736e+002,1.221298e+000
7.539378e+002,7.342377e-001
7.549020e+002,4.295959e-001
7.558663e+002,6.033020e-001
7.568306e+002,1.038071e+000
7.577948e+002,1.330154e+000
7.587590e+002,1.236008e+000
7.597233e+002,1.016785e+000
7.606875e+002,2.035614e+000
7.616517e+002,4.137054e+000
7.626160e+002,4.921539e+000
7.635802e+002,3.254669e+000
7.645444e+002,5.152588e-001
7.655087e+002,-3.081970e-001
7.664729e+002,2.020905e+000
7.674371e+002,3.570999e+000
7.684014e+002,3.889313e+000
7.693656e+002,3.687958e+000
7.703298e+002,3.193314e+000
7.712941e+002,2.555511e+000
7.722583e+002,2.254654e+000
7.732225e+002,3.032501e+000
7.741868e+002,3.913971e+000
7.751510e+002,3.945770e+000
7.761152e+002,3.412064e+000
7.770795e+002,3.155151e+000
7.780437e+002,3.915619e+000
7.790079e+002,5.468506e+000
7.799722e+002,5.995682e+000
7.809364e+002,5.498230e+000
7.819006e+002,4.832748e+000
7.828649e+002,4.043472e+000
7.838291e+002,3.399689e+000
7.847933e+002,3.830872e+000
7.857576e+002,6.591217e+000
7.867218e+002,7.976929e+000
7.876860e+002,6.844299e+000
7.886503e+002,4.840942e+000
7.896145e+002,2.883881e+000
7.905787e+002,1.372421e+000
7.915430e+002,9.411011e-001
7.925072e+002,3.440109e+000
7.934714e+002,6.561035e+000
7.944357e+002,7.845520e+000
7.953999e+002,7.251099e+000
7.963641e+002,5.785538e+000
7.973284e+002,4.488037e+000
7.982926e+002,3.342514e+000
7.992568e+002,2.998260e+000
8.002211e+002,3.616379e+000
8.011853e+002,4.116989e+000
8.021495e+002,4.154327e+000
8.031138e+002,3.994064e+000
8.040780e+002,4.218475e+000
8.050422e+002,5.034027e+000
8.060065e+002,5.826340e+000
8.069707e+002,6.467819e+000
8.079349e+002,6.850510e+000
8.088992e+002,6.716080e+000
8.098634e+002,6.101120e+000
8.108276e+002,5.689011e+000
8.117919e+002,6.851837e+000
8.127561e+002,8.540665e+000
8.137203e+002,8.725739e+000
8.146846e+002,7.296738e+000
8.156488e+002,5.512970e+000
8.166130e+002,4.892990e+000
8.175773e+002,5.697037e+000
8.185415e+002,5.922211e+000
8.195057e+002,4.795288e+000
8.204700e+002,3.978119e+000
8.214342e+002,4.472702e+000
8.223984e+002,5.703262e+000
8.233627e+002,6.032501e+000
8.243269e+002,4.487823e+000
8.252911e+002,2.859512e+000
8.262554e+002,2.285675e+000
8.272196e+002,2.116730e+000
8.281838e+002,1.461487e+000
8.291481e+002,1.277466e-001
8.301123e+002,-1.026840e+000
8.310765e+002,-2.535858e-001
8.320408e+002,2.218781e+000
8.330050e+002,3.508514e+000
8.339692e+002,3.319794e+000
8.349335e+002,2.472809e+000
8.358977e+002,1.583359e+000
8.368619e+002,5.797424e-001
8.378262e+002,4.387512e-001
8.387904e+002,1.391556e+000
8.397546e+002,2.837921e+000
8.407189e+002,5.584366e+000
8.416831e+002,8.525269e+000
8.426473e+002,9.667023e+000
8.436116e+002,7.828781e+000
8.445758e+002,5.330750e+000
8.455400e+002,3.974564e+000
8.465043e+002,3.527802e+000
8.474685e+002,4.443893e+000
8.484327e+002,6.637711e+000
8.493970e+002,8.974228e+000
8.503612e+002,9.396881e+000
8.513254e+002,7.447006e+000
8.522897e+002,6.305206e+000
8.532539e+002,6.229309e+000
8.542181e+002,6.387207e+000
8.551824e+002,6.303040e+000
8.561466e+002,6.133255e+000
8.571108e+002,6.514862e+000
8.580751e+002,7.911148e+000
8.590393e+002,9.003693e+000
8.600035e+002,9.364853e+000
8.609678e+002,9.374817e+000
8.619320e+002,9.425934e+000
8.628962e+002,9.674469e+000
8.638605e+002,9.984772e+000
8.648247e+002,1.004691e+001
8.657889e+002,1.006534e+001
8.667532e+002,1.056566e+001
8.677174e+002,1.161423e+001
8.686816e+002,1.297014e+001
8.696459e+002,1.454988e+001
8.706101e+002,1.661024e+001
8.715743e+002,1.715359e+001
8.725386e+002,1.464037e+001
8.735028e+002,1.273596e+001
8.744670e+002,1.253188e+001
8.754313e+002,1.338181e+001
8.763955e+002,1.396344e+001
8.773597e+002,1.368167e+001
8.783240e+002,1.392552e+001
8.792882e+002,1.657918e+001
8.802524e+002,1.951303e+001
8.812167e+002,2.068414e+001
8.821809e+002,1.984831e+001
8.831451e+002,1.822690e+001
8.841094e+002,1.736899e+001
8.850736e+002,1.737381e+001
8.860378e+002,1.801141e+001
8.870021e+002,1.944916e+001
8.879663e+002,2.066611e+001
8.889305e+002,2.092543e+001
8.898948e+002,2.039415e+001
8.908590e+002,2.004353e+001
8.918232e+002,1.986729e+001
8.927875e+002,2.021355e+001
8.937517e+002,2.152684e+001
8.947159e+002,2.305363e+001
8.956802e+002,2.429939e+001
8.966444e+002,2.501048e+001
8.976086e+002,2.491100e+001
8.985729e+002,2.319826e+001
8.995371e+002,2.120718e+001
9.005013e+002,2.130463e+001
9.014656e+002,2.321568e+001
9.024298e+002,2.512218e+001
9.033940e+002,2.554103e+001
9.043583e+002,2.468742e+001
9.053225e+002,2.489217e+001
9.062867e+002,2.811809e+001
9.072510e+002,2.964655e+001
9.082152e+002,2.823123e+001
9.091794e+002,2.603098e+001
9.101437e+002,2.529308e+001
9.111079e+002,2.637640e+001
9.120721e+002,2.725174e+001
9.130364e+002,2.610924e+001
9.140006e+002,2.477966e+001
9.149648e+002,2.449275e+001
9.159291e+002,2.499516e+001
9.168933e+002,2.537015e+001
9.178575e+002,2.494702e+001
9.188218e+002,2.412369e+001
9.197860e+002,2.457477e+001
9.207502e+002,2.629129e+001
9.217145e+002,2.768336e+001
9.226787e+002,2.902078e+001
9.236429e+002,2.961032e+001
9.246072e+002,2.779996e+001
9.255714e+002,2.268663e+001
9.265356e+002,1.959456e+001
9.274999e+002,2.114919e+001
9.284641e+002,2.285478e+001
9.294283e+002,2.350769e+001
9.303926e+002,2.319643e+001
9.313568e+002,2.229803e+001
9.323210e+002,2.095961e+001
9.332853e+002,1.950821e+001
9.342495e+002,1.810878e+001
9.352137e+002,1.702089e+001
9.361780e+002,1.725163e+001
9.371422e+002,1.903323e+001
9.381064e+002,2.100508e+001
9.390707e+002,2.111212e+001
9.400349e+002,1.878404e+001
9.409991e+002,1.787659e+001
9.419634e+002,1.949174e+001
9.429276e+002,2.085992e+001
9.438918e+002,2.129901e+001
9.448561e+002,2.106520e+001
9.458203e+002,2.053999e+001
9.467845e+002,1.975911e+001
9.477488e+002,1.917493e+001
9.487130e+002,1.938226e+001
9.496772e+002,1.970543e+001
9.506415e+002,1.961949e+001
9.516057e+002,1.909230e+001
9.525699e+002,1.840993e+001
9.535342e+002,1.784636e+001
9.544984e+002,1.729816e+001
9.554626e+002,1.602481e+001
9.564269e+002,1.396806e+001
9.573911e+002,1.224696e+001
9.583553e+002,1.116113e+001
9.593196e+002,1.053134e+001
9.602838e+002,1.013615e+001
9.612480e+002,9.981689e+000
9.622123e+002,9.873795e+000
9.631765e+002,9.343979e+000
9.641407e+002,9.302719e+000
9.651050e+002,1.056969e+001
9.660692e+002,1.257997e+001
9.670334e+002,1.422302e+001
9.679977e+002,1.485349e+001
9.689619e+002,1.494727e+001
9.699261e+002,1.515646e+001
9.708904e+002,1.543552e+001
9.718546e+002,1.591533e+001
9.728188e+002,1.659041e+001
9.737831e+002,1.746846e+001
9.747473e+002,1.870712e+001
9.757115e+002,2.048137e+001
9.766758e+002,2.181267e+001
9.776400e+002,2.303210e+001
9.786042e+002,2.354507e+001
9.795685e+002,2.292729e+001
9.805327e+002,2.150267e+001
9.814969e+002,1.954454e+001
9.824612e+002,1.719354e+001
9.834254e+002,1.518999e+001
9.843896e+002,1.461082e+001
9.853539e+002,1.440459e+001
9.863181e+002,1.334668e+001
9.872823e+002,1.145876e+001
9.882466e+002,9.525772e+000
9.892108e+002,8.291519e+000
9.901750e+002,7.796844e+000
9.911393e+002,7.583191e+000
9.921035e+002,7.433533e+000
9.930677e+002,7.511810e+000
9.940320e+002,8.368469e+000
9.949962e+002,9.204025e+000
9.959604e+002,9.040421e+000
9.969247e+002,7.892670e+000
9.978889e+002,7.203415e+000
9.988531e+002,7.742310e+000
9.998174e+002,8.599823e+000
1.000782e+003,9.625259e+000
1.001746e+003,1.055949e+001
1.002710e+003,1.097737e+001
1.003674e+003,1.072099e+001
1.004639e+003,1.010498e+001
1.005603e+003,9.699158e+000
1.006567e+003,9.494598e+000
1.007531e+003,8.962219e+000
1.008495e+003,7.907013e+000
1.009460e+003,6.949692e+000
1.010424e+003,6.607056e+000
1.011388e+003,6.718491e+000
1.012352e+003,6.488342e+000
1.013317e+003,5.379868e+000
1.014281e+003,4.773758e+000
1.015245e+003,5.775894e+000
1.016209e+003,6.678970e+000
1.017174e+003,5.879700e+000
1.018138e+003,3.661697e+000
1.019102e+003,1.851456e+000
1.020066e+003,2.064575e+000
1.021031e+003,3.390396e+000
1.021995e+003,2.903717e+000
1.022959e+003,9.115295e-001
1.023923e+003,-1.119827e+000
1.024887e+003,-3.068481e+000
1.025852e+003,-4.264847e+000
1.026816e+003,-3.132858e+000
1.027780e+003,1.241562e+000
1.028744e+003,3.873154e+000
1.029709e+003,3.328903e+000
1.030673e+003,2.241531e+000
1.031637e+003,6.833496e-001
1.032601e+003,-7.267303e-001
1.033566e+003,-9.935913e-001
1.034530e+003,2.030945e-001
1.035494e+003,1.495438e+000
1.036458e+003,1.018661e+000
1.037422e+003,-1.753845e-001
1.038387e+003,-1.558075e-001
1.039351e+003,1.014664e+000
1.040315e+003,2.223114e+000
1.041279e+003,2.707321e+000
1.042244e+003,2.574707e+000
1.043208e+003,2.171494e+000
1.044172e+003,1.302582e+000
1.045136e+003,3.027344e-001
1.046101e+003,-1.582123e+000
1.047065e+003,-2.782593e+000
1.048029e+003,-1.733551e+000
1.048993e+003,9.498901e-001
1.049958e+003,2.772537e+000
1.050922e+003,2.201797e+000
1.051886e+003,1.583679e+000
1.052850e+003,4.651917e+000
1.053814e+003,8.512970e+000
1.054779e+003,8.831024e+000
1.055743e+003,4.962875e+000
1.056707e+003,-5.438232e-002
1.057671e+003,-2.599091e+000
1.058636e+003,-2.670288e+000
1.059600e+003,-2.356400e+000
1.060564e+003,-1.049042e+000
1.061528e+003,-6.260681e-002
1.062493e+003,-8.496094e-002
1.063457e+003,-3.221893e-001
1.064421e+003,5.494995e-001
1.065385e+003,2.645859e+000
1.066349e+003,3.579712e+000
1.067314e+003,8.687286e-001
1.068278e+003,-1.842316e+000
1.069242e+003,-1.561478e+000
1.070206e+003,3.572083e-001
1.071171e+003,1.660797e+000
1.072135e+003,1.370697e+000
1.073099e+003,2.447052e-001
1.074063e+003,-4.056091e-001
1.075028e+003,-5.136108e-001
1.075992e+003,-4.138336e-001
1.076956e+003,-5.091858e-002
1.077920e+003,2.610321e-001
1.078885e+003,4.732056e-001
1.079849e+003,6.420135e-001
1.080813e+003,8.623962e-001
1.081777e+003,1.200333e+000
1.082741e+003,1.363983e+000
1.083706e+003,8.946228e-001
1.084670e+003,3.141479e-001
1.085634e+003,-1.775665e-001
1.086598e+003,-5.362091e-001
1.087563e+003,-7.260895e-001
1.088527e+003,-6.964417e-001
1.089491e+003,-4.050446e-001
1.090455e+003,1.969147e-001
1.091420e+003,1.094910e+000
1.092384e+003,1.207092e+000
1.093348e+003,-3.251648e-002
1.094312e+003,-1.128006e+000
1.095276e+003,-8.901672e-001
1.096241e+003,2.381592e-001
1.097205e+003,7.297058e-001
1.098169e+003,1.618958e-001
1.099133e+003,-5.019989e-001
1.100098e+003,-1.568542e+000
1.101062e+003,-1.949234e+000
1.102026e+003,-2.935333e-001
1.102990e+003,2.596909e+000
1.103955e+003,4.930771e+000
1.104919e+003,5.601395e+000
1.105883e+003,4.958481e+000
1.106847e+003,3.500961e+000
1.107812e+003,1.246796e+000
1.108776e+003,3.261871e-001
1.109740e+003,1.543549e+000
1.110704e+003,2.610199e+000
1.111668e+003,1.382172e+000
1.112633e+003,-1.372437e+000
1.113597e+003,-2.286331e+000
1.114561e+003,-1.706543e-001
1.115525e+003,1.587372e+000
1.116490e+003,1.842255e+000
1.117454e+003,1.535767e+000
1.118418e+003,1.055664e+000
1.119382e+003,6.474915e-001
1.120347e+003,5.809937e-001
1.121311e+003,9.572296e-001
1.122275e+003,1.319641e+000
1.123239e+003,8.411255e-001
1.124203e+003,-3.092346e-001
1.125168e+003,-1.072617e+000
1.126132e+003,-1.216507e+000
1.127096e+003,-1.320145e+000
1.128060e+003,-1.993469e+000
1.129025e+003,-3.082321e+000
1.129989e+003,-3.682861e+000
1.130953e+003,-3.553757e+000
1.131917e+003,-3.409561e+000
1.132882e+003,-3.639587e+000
1.133846e+003,-3.678436e+000
1.134810e+003,-3.091507e+000
1.135774e+003,-2.017380e+000
1.136739e+003,-8.412170e-001
1.137703e+003,2.104187e-001
1.138667e+003,1.220993e+000
1.139631e+003,2.513092e+000
1.140595e+003,3.913132e+000
1.141560e+003,4.128418e+000
1.142524e+003,2.640274e+000
1.143488e+003,1.819626e+000
1.144452e+003,4.019333e+000
1.145417e+003,8.167679e+000
1.146381e+003,1.008459e+001
1.147345e+003,8.466476e+000
1.148309e+003,7.746796e+000
1.149274e+003,9.203232e+000
1.150238e+003,1.160971e+001
1.151202e+003,1.523528e+001
1.152166e+003,1.918501e+001
1.153130e+003,2.199519e+001
1.154095e+003,2.296652e+001
1.155059e+003,2.286600e+001
1.156023e+003,2.294772e+001
1.156987e+003,2.306621e+001
1.157952e+003,2.198631e+001
1.158916e+003,1.965938e+001
1.159880e+003,1.715315e+001
1.160844e+003,1.451262e+001
1.161809e+003,1.200662e+001
1.162773e+003,1.071170e+001
1.163737e+003,1.109242e+001
1.164701e+003,1.062569e+001
1.165666e+003,7.132828e+000
1.166630e+003,4.388718e+000
1.167594e+003,4.800339e+000
1.168558e+003,6.356888e+000
1.169522e+003,5.931091e+000
1.170487e+003,2.826874e+000
1.171451e+003,-4.842072e-001
1.172415e+003,-1.214813e+000
1.173379e+003,1.424713e-001
1.174344e+003,1.161087e+000
1.175308e+003,1.937683e+000
1.176272e+003,2.048401e+000
1.177236e+003,6.467743e-001
1.178201e+003,-9.020081e-001
1.179165e+003,-4.041443e-001
1.180129e+003,2.132950e+000
1.181093e+003,3.040344e+000
1.182057e+003,2.353668e-001
1.183022e+003,-2.247269e+000
1.183986e+003,-3.017532e+000
1.184950e+003,-2.723389e+000
1.185914e+003,-1.468689e+000
1.186879e+003,2.745667e-001
1.187843e+003,1.471893e+000
1.188807e+003,1.259369e+000
1.189771e+003,-1.036530e-001
1.190736e+003,-2.061218e+000
1.191700e+003,-4.796890e+000
1.192664e+003,-5.964027e+000
1.193628e+003,-4.502441e+000
1.194593e+003,-2.476883e+000
1.195557e+003,-8.478241e-001
1.196521e+003,1.680756e-001
1.197485e+003,-4.581299e-001
1.198449e+003,-3.515053e+000
1.199414e+003,-6.159859e+000
1.200378e+003,-7.499519e+000
1.201342e+003,-7.656258e+000
1.202306e+003,-5.580826e+000
1.203271e+003,-2.561783e+000
1.204235e+003,-1.239929e+000
1.205199e+003,-2.758026e+000
1.206163e+003,-5.286430e+000
1.207128e+003,-5.714775e+000
1.208092e+003,-3.880157e+000
1.209056e+003,-3.402885e+000
1.210020e+003,-5.057350e+000
1.210984e+003,-6.268616e+000
1.211949e+003,-5.748604e+000
1.212913e+003,-4.768936e+000
1.213877e+003,-5.071793e+000
1.214841e+003,-6.718819e+000
1.215806e+003,-8.208771e+000
1.216770e+003,-8.970467e+000
1.217734e+003,-9.447693e+000
1.218698e+003,-1.015688e+001
1.219663e+003,-1.077006e+001
1.220627e+003,-1.068791e+001
1.221591e+003,-9.955284e+000
1.222555e+003,-9.304878e+000
1.223520e+003,-9.411011e+000
1.224484e+003,-1.008130e+001
1.225448e+003,-1.051935e+001
1.226412e+003,-1.067204e+001
1.227376e+003,-1.070093e+001
1.228341e+003,-1.048743e+001
1.229305e+003,-1.033209e+001
1.230269e+003,-1.041542e+001
1.231233e+003,-1.067488e+001
1.232198e+003,-1.110454e+001
1.233162e+003,-1.171461e+001
1.234126e+003,-1.170438e+001
1.235090e+003,-9.641571e+000
1.236055e+003,-7.611343e+000
1.237019e+003,-8.622482e+000
1.237983e+003,-1.145863e+001
1.238947e+003,-1.249231e+001
1.239911e+003,-1.020735e+001
1.240876e+003,-6.947350e+000
1.241840e+003,-6.329025e+000
1.242804e+003,-8.539108e+000
1.243768e+003,-9.834419e+000
1.244733e+003,-9.301399e+000
1.245697e+003,-9.003647e+000
1.246661e+003,-9.227768e+000
1.247625e+003,-9.729683e+000
1.248590e+003,-1.059131e+001
1.249554e+003,-1.147409e+001
1.250518e+003,-1.147130e+001
1.251482e+003,-1.012604e+001
1.252447e+003,-8.718643e+000
1.253411e+003,-8.850288e+000
1.254375e+003,-9.907867e+000
1.255339e+003,-1.073531e+001
1.256303e+003,-1.123584e+001
1.257268e+003,-1.138172e+001
1.258232e+003,-1.116290e+001
1.259196e+003,-1.071973e+001
1.260160e+003,-1.017261e+001
1.261125e+003,-9.416298e+000
1.262089e+003,-8.886536e+000
1.263053e+003,-9.022011e+000
1.264017e+003,-9.018204e+000
1.264982e+003,-8.539780e+000
1.265946e+003,-7.901398e+000
1.266910e+003,-7.124504e+000
1.267874e+003,-6.471764e+000
1.268839e+003,-6.680458e+000
1.269803e+003,-8.255562e+000
1.270767e+003,-1.033229e+001
1.271731e+003,-1.126476e+001
1.272695e+003,-1.099387e+001
1.273660e+003,-1.036379e+001
1.274624e+003,-9.417862e+000
1.275588e+003,-8.315811e+000
1.276552e+003,-6.539238e+000
1.277517e+003,-4.811470e+000
1.278481e+003,-4.813324e+000
1.279445e+003,-6.786499e+000
1.280409e+003,-8.566521e+000
1.281374e+003,-9.453560e+000
1.282338e+003,-9.964142e+000
1.283302e+003,-1.050275e+001
1.284266e+003,-1.079202e+001
1.285230e+003,-1.028665e+001
1.286195e+003,-9.119789e+000
1.287159e+003,-8.068001e+000
1.288123e+003,-7.747620e+000
1.289087e+003,-7.912041e+000
1.290052e+003,-7.910004e+000
1.291016e+003,-7.609322e+000
1.291980e+003,-7.864349e+000
1.292944e+003,-9.376663e+000
1.293909e+003,-1.059843e+001
1.294873e+003,-1.040305e+001
1.295837e+003,-9.775436e+000
1.296801e+003,-1.034896e+001
1.297766e+003,-1.222012e+001
1.298730e+003,-1.369375e+001
1.299694e+003,-1.391595e+001
1.300658e+003,-1.341740e+001
1.301622e+003,-1.264751e+001
1.302587e+003,-1.162940e+001
1.303551e+003,-1.024068e+001
1.304515e+003,-8.512260e+000
1.305479e+003,-7.011200e+000
1.306444e+003,-6.195946e+000
1.307408e+003,-6.039032e+000
1.308372e+003,-6.391724e+000
1.309336e+003,-7.312607e+000
1.310301e+003,-8.598900e+000
1.311265e+003,-1.150113e+001
1.312229e+003,-1.312837e+001
1.313193e+003,-1.136116e+001
1.314157e+003,-8.755219e+000
1.315122e+003,-8.359901e+000
1.316086e+003,-1.015028e+001
1.317050e+003,-1.155707e+001
1.318014e+003,-1.084511e+001
1.318979e+003,-9.081078e+000
1.319943e+003,-8.087418e+000
1.320907e+003,-7.804451e+000
1.321871e+003,-7.732819e+000
1.322836e+003,-7.987244e+000
1.323800e+003,-8.262619e+000
1.324764e+003,-8.462631e+000
1.325728e+003,-8.527061e+000
1.326693e+003,-8.172020e+000
1.327657e+003,-7.407204e+000
1.328621e+003,-7.486023e+000
1.329585e+003,-9.378853e+000
1.330549e+003,-1.073053e+001
1.331514e+003,-9.967255e+000
1.332478e+003,-8.710381e+000
1.333442e+003,-8.415344e+000
1.334406e+003,-9.079979e+000
1.335371e+003,-1.017951e+001
1.336335e+003,-1.133701e+001
1.337299e+003,-1.190130e+001
1.338263e+003,-1.048962e+001
1.339228e+003,-6.678520e+000
1.340192e+003,-4.880241e+000
1.341156e+003,-6.891220e+000
1.342120e+003,-8.123756e+000
1.343084e+003,-7.369598e+000
1.344049e+003,-6.226135e+000
1.345013e+003,-5.833061e+000
1.345977e+003,-6.132156e+000
1.346941e+003,-6.860229e+000
1.347906e+003,-7.992516e+000
1.348870e+003,-8.478447e+000
1.349834e+003,-6.592995e+000
1.350798e+003,-4.092018e+000
1.351763e+003,-4.601814e+000
1.352727e+003,-7.576141e+000
1.353691e+003,-9.858810e+000
1.354655e+003,-1.032762e+001
1.355620e+003,-9.677261e+000
1.356584e+003,-8.320404e+000
1.357548e+003,-6.387505e+000
1.358512e+003,-5.278152e+000
1.359476e+003,-5.277336e+000
1.360441e+003,-5.697014e+000
1.361405e+003,-7.125938e+000
1.362369e+003,-8.042343e+000
1.363333e+003,-7.277702e+000
1.364298e+003,-5.721046e+000
1.365262e+003,-4.588997e+000
1.366226e+003,-4.214516e+000
1.367190e+003,-4.155144e+000
1.368155e+003,-4.011856e+000
1.369119e+003,-3.943558e+000
1.370083e+003,-4.496353e+000
1.371047e+003,-5.965698e+000
1.372011e+003,-6.587234e+000
1.372976e+003,-5.693596e+000
1.373940e+003,-5.006935e+000
1.374904e+003,-5.388733e+000
1.375868e+003,-6.119232e+000
1.376833e+003,-6.215782e+000
1.377797e+003,-5.706749e+000
1.378761e+003,-5.437248e+000
1.379725e+003,-5.766869e+000
1.380690e+003,-6.368378e+000
1.381654e+003,-7.302544e+000
1.382618e+003,-8.066315e+000
1.383582e+003,-7.652763e+000
1.384547e+003,-6.217300e+000
1.385511e+003,-5.217766e+000
1.386475e+003,-5.506912e+000
1.387439e+003,-6.250595e+000
1.388403e+003,-6.102791e+000
1.389368e+003,-5.073112e+000
1.390332e+003,-4.235359e+000
1.391296e+003,-3.131294e+000
1.392260e+003,-3.186226e+000
1.393225e+003,-5.974487e+000
1.394189e+003,-8.556061e+000
1.395153e+003,-9.124939e+000
1.396117e+003,-8.427940e+000
1.397082e+003,-7.592064e+000
1.398046e+003,-7.078598e+000
1.399010e+003,-7.071358e+000
1.399974e+003,-7.819427e+000
1.400938e+003,-8.851578e+000
1.401903e+003,-8.398262e+000
1.402867e+003,-5.751038e+000
1.403831e+003,-3.995804e+000
1.404795e+003,-3.629471e+000
1.405760e+003,-3.573105e+000
1.406724e+003,-3.497337e+000
1.407688e+003,-3.716217e+000
1.408652e+003,-4.837646e+000
1.409617e+003,-6.536331e+000
1.410581e+003,-7.323685e+000
1.411545e+003,-6.502541e+000
1.412509e+003,-5.262741e+000
1.413474e+003,-4.814529e+000
1.414438e+003,-4.727623e+000
1.415402e+003,-3.867470e+000
1.416366e+003,-2.414574e+000
1.417330e+003,-2.051743e+000
1.418295e+003,-3.741562e+000
1.419259e+003,-5.558434e+000
1.420223e+003,-4.872536e+000
1.421187e+003,-2.250862e+000
1.422152e+003,-1.151894e+000
1.423116e+003,-2.036758e+000
1.424080e+003,-2.935753e+000
1.425044e+003,-3.542564e+000
1.426009e+003,-3.938171e+000
1.426973e+003,-3.915627e+000
1.427937e+003,-3.840973e+000
1.428901e+003,-4.019035e+000
1.429865e+003,-4.536285e+000
1.430830e+003,-5.736595e+000
1.431794e+003,-7.821030e+000
1.432758e+003,-9.539970e+000
1.433722e+003,-8.143150e+000
1.434687e+003,-3.127266e+000
1.435651e+003,-3.991852e-001
1.436615e+003,-2.186226e+000
1.437579e+003,-3.326408e+000
1.438544e+003,-2.704147e+000
1.439508e+003,-1.950462e+000
1.440472e+003,-2.048103e+000
1.441436e+003,-2.782700e+000
1.442401e+003,-3.879150e+000
1.443365e+003,-5.168777e+000
1.444329e+003,-5.894730e+000
1.445293e+003,-5.411102e+000
1.446257e+003,-4.204857e+000
1.447222e+003,-2.974136e+000
1.448186e+003,-1.823563e+000
1.449150e+003,-1.456169e+000
1.450114e+003,-2.102104e+000
1.451079e+003,-2.919037e+000
1.452043e+003,-3.890205e+000
1.453007e+003,-4.430054e+000
1.453971e+003,-3.071320e+000
1.454936e+003,-2.845154e-001
1.455900e+003,2.636032e-001
1.456864e+003,-2.878563e+000
1.457828e+003,-5.756142e+000
1.458792e+003,-6.082703e+000
1.459757e+003,-5.252686e+000
1.460721e+003,-3.800713e+000
1.461685e+003,-2.229385e+000
1.462649e+003,-1.450806e+000
1.463614e+003,-1.633453e+000
1.464578e+003,-2.053459e+000
1.465542e+003,-2.086067e+000
1.466506e+003,-1.949097e+000
1.467471e+003,-2.248558e+000
1.468435e+003,-3.023399e+000
1.469399e+003,-3.703850e+000
1.470363e+003,-4.659279e+000
1.471328e+003,-5.059204e+000
1.472292e+003,-4.154243e+000
1.473256e+003,-3.302261e+000
1.474220e+003,-3.788414e+000
1.475184e+003,-4.860825e+000
1.476149e+003,-4.788643e+000
1.477113e+003,-3.237373e+000
1.478077e+003,-1.827309e+000
1.479041e+003,-2.111412e+000
1.480006e+003,-3.417549e+000
1.480970e+003,-3.614365e+000
1.481934e+003,-2.395683e+000
1.482898e+003,-1.607597e+000
1.483863e+003,-1.434441e+000
1.484827e+003,-1.410645e+000
1.485791e+003,-1.667145e+000
1.486755e+003,-1.707947e+000
1.487719e+003,-7.712479e-001
1.488684e+003,6.574402e-001
1.489648e+003,1.019028e+000
1.490612e+003,-8.934021e-002
1.491576e+003,-4.879684e-001
1.492541e+003,2.082199e+000
1.493505e+003,5.602448e+000
1.494469e+003,4.870834e+000
1.495433e+003,6.971588e-001
1.496398e+003,-1.381134e+000
1.497362e+003,-1.141357e-001
1.498326e+003,1.624733e+000
1.499290e+003,2.283951e+000
1.500255e+003,2.609772e+000
1.501219e+003,3.635437e+000
1.502183e+003,5.245110e+000
1.503147e+003,6.758270e+000
1.504111e+003,8.069595e+000
1.505076e+003,9.028900e+000
1.506040e+003,9.202713e+000
1.507004e+003,9.378616e+000
1.507968e+003,1.030893e+001
1.508933e+003,1.181712e+001
1.509897e+003,1.355824e+001
1.510861e+003,1.553736e+001
1.511825e+003,1.793352e+001
1.512790e+003,2.088858e+001
1.513754e+003,2.410021e+001
1.514718e+003,2.718372e+001
1.515682e+003,3.008934e+001
1.516646e+003,3.243559e+001
1.517611e+003,3.415860e+001
1.518575e+003,3.558559e+001
1.519539e+003,3.694519e+001
1.520503e+003,3.800740e+001
1.521468e+003,3.870827e+001
1.522432e+003,3.892871e+001
1.523396e+003,3.860461e+001
1.524360e+003,3.766456e+001
1.525325e+003,3.570770e+001
1.526289e+003,3.249386e+001
1.527253e+003,2.923615e+001
1.528217e+003,2.827667e+001
1.529182e+003,2.970191e+001
1.530146e+003,2.953319e+001
1.531110e+003,2.690757e+001
1.532074e+003,2.417316e+001
1.533039e+003,2.112114e+001
1.534003e+003,1.823009e+001
1.534967e+003,1.595763e+001
1.535931e+003,1.399767e+001
1.536896e+003,1.188282e+001
1.537860e+003,9.686394e+000
1.538824e+003,7.789909e+000
1.539788e+003,6.375168e+000
1.540752e+003,5.420326e+000
1.541717e+003,4.962318e+000
1.542681e+003,4.983055e+000
1.543645e+003,5.209785e+000
1.544609e+003,6.004700e+000
1.545573e+003,6.192825e+000
1.546538e+003,4.713379e+000
1.547502e+003,3.860107e+000
1.548466e+003,5.342972e+000
1.549430e+003,7.288643e+000
1.550395e+003,7.661385e+000
1.551359e+003,6.680046e+000
1.552323e+003,5.527351e+000
1.553287e+003,4.682961e+000
1.554252e+003,4.376236e+000
1.555216e+003,4.976936e+000
1.556180e+003,5.761742e+000
1.557144e+003,4.739944e+000
1.558109e+003,1.869392e+000
1.559073e+003,5.210571e-001
1.560037e+003,1.246162e+000
1.561001e+003,2.277344e+000
1.561966e+003,3.528999e+000
1.562930e+003,4.557205e+000
1.563894e+003,4.751183e+000
1.564858e+003,4.369499e+000
1.565823e+003,4.040329e+000
1.566787e+003,3.897491e+000
1.567751e+003,4.056206e+000
1.568715e+003,4.800026e+000
1.569679e+003,5.280617e+000
1.570644e+003,3.973618e+000
1.571608e+003,1.618607e+000
1.572572e+003,4.427414e-001
1.573536e+003,5.623322e-001
1.574500e+003,1.249992e+000
1.575465e+003,2.479858e+000
1.576429e+003,3.833878e+000
1.577393e+003,5.159615e+000
1.578357e+003,6.242981e+000
1.579322e+003,6.552933e+000
1.580286e+003,6.146454e+000
1.581250e+003,5.911774e+000
1.582214e+003,6.099281e+000
1.583179e+003,6.594284e+000
1.584143e+003,7.625679e+000
1.585107e+003,8.566650e+000
1.586071e+003,8.647911e+000
1.587036e+003,8.104126e+000
1.588000e+003,7.386765e+000
1.588964e+003,6.526451e+000
1.589928e+003,5.736992e+000
1.590893e+003,5.106216e+000
1.591857e+003,4.705376e+000
1.592821e+003,4.582954e+000
1.593785e+003,4.787201e+000
1.594750e+003,5.793396e+000
1.595714e+003,7.898705e+000
1.596678e+003,8.967888e+000
1.597642e+003,7.350334e+000
1.598606e+003,5.636299e+000
1.599571e+003,6.348503e+000
1.600535e+003,7.964264e+000
1.601499e+003,8.181221e+000
1.602463e+003,7.221291e+000
1.603427e+003,7.404343e+000
1.604392e+003,9.836922e+000
1.605356e+003,1.235761e+001
1.606320e+003,1.261951e+001
1.607284e+003,1.134145e+001
1.608249e+003,1.055772e+001
1.609213e+003,1.029218e+001
1.610177e+003,9.767998e+000
1.611141e+003,8.426659e+000
1.612106e+003,7.907059e+000
1.613070e+003,1.021683e+001
1.614034e+003,1.251035e+001
1.614998e+003,1.221027e+001
1.615963e+003,1.067662e+001
1.616927e+003,1.056380e+001
1.617891e+003,1.205015e+001
1.618855e+003,1.286813e+001
1.619820e+003,1.152769e+001
1.620784e+003,9.479408e+000
1.621748e+003,8.823784e+000
1.622712e+003,9.475845e+000
1.623677e+003,1.061955e+001
1.624641e+003,1.248352e+001
1.625605e+003,1.342824e+001
1.626569e+003,1.232446e+001
1.627533e+003,1.123380e+001
1.628498e+003,1.154596e+001
1.629462e+003,1.209827e+001
1.630426e+003,1.177124e+001
1.631390e+003,1.089151e+001
1.632354e+003,1.022181e+001
1.633319e+003,9.997749e+000
1.634283e+003,1.033960e+001
1.635247e+003,1.145168e+001
1.636211e+003,1.278027e+001
1.637176e+003,1.332827e+001
1.638140e+003,1.317075e+001
1.639104e+003,1.309678e+001
1.640068e+003,1.319864e+001
1.641033e+003,1.294579e+001
1.641997e+003,1.153712e+001
1.642961e+003,1.078577e+001
1.643925e+003,1.239862e+001
1.644890e+003,1.437222e+001
1.645854e+003,1.466393e+001
1.646818e+003,1.358598e+001
1.647782e+003,1.214036e+001
1.648747e+003,1.075486e+001
1.649711e+003,1.040295e+001
1.650675e+003,1.232844e+001
1.651639e+003,1.492826e+001
1.652604e+003,1.432172e+001
1.653568e+003,1.063810e+001
1.654532e+003,8.584030e+000
1.655496e+003,8.770546e+000
1.656460e+003,9.264679e+000
1.657425e+003,9.639740e+000
1.658389e+003,1.011776e+001
1.659353e+003,1.123404e+001
1.660317e+003,1.219743e+001
1.661281e+003,1.192519e+001
1.662246e+003,1.073527e+001
1.663210e+003,9.724442e+000
1.664174e+003,9.287727e+000
1.665138e+003,9.291756e+000
1.666103e+003,9.749115e+000
1.667067e+003,1.028201e+001
1.668031e+003,1.007486e+001
1.668995e+003,9.202209e+000
1.669960e+003,8.548676e+000
1.670924e+003,8.250450e+000
1.671888e+003,7.894951e+000
1.672852e+003,6.925262e+000
1.673817e+003,6.442566e+000
1.674781e+003,7.813965e+000
1.675745e+003,9.498230e+000
1.676709e+003,9.573990e+000
1.677674e+003,8.438606e+000
1.678638e+003,7.694862e+000
1.679602e+003,7.845917e+000
1.680566e+003,8.435211e+000
1.681531e+003,9.409019e+000
1.682495e+003,1.029153e+001
1.683459e+003,1.007056e+001
1.684423e+003,8.886269e+000
1.685387e+003,7.787880e+000
1.686352e+003,6.856293e+000
1.687316e+003,6.293549e+000
1.688280e+003,6.351563e+000
1.689244e+003,6.427513e+000
1.690208e+003,5.912140e+000
1.691173e+003,5.263611e+000
1.692137e+003,4.918137e+000
1.693101e+003,4.941978e+000
1.694065e+003,5.479378e+000
1.695030e+003,6.547112e+000
1.695994e+003,7.285698e+000
1.696958e+003,7.177872e+000
1.697922e+003,6.515800e+000
1.698887e+003,5.407982e+000
1.699851e+003,4.097481e+000
1.700815e+003,3.141296e+000
1.701779e+003,2.584236e+000
1.702744e+003,3.157074e+000
1.703708e+003,5.609924e+000
1.704672e+003,7.336067e+000
1.705636e+003,5.635841e+000
1.706601e+003,2.825829e+000
1.707565e+003,2.571701e+000
1.708529e+003,4.206131e+000
1.709493e+003,5.743355e+000
1.710458e+003,7.022331e+000
1.711422e+003,7.512596e+000
1.712386e+003,6.949036e+000
1.713350e+003,5.674194e+000
1.714314e+003,2.902534e+000
1.715279e+003,8.099365e-002
1.716243e+003,1.993484e-001
1.717207e+003,2.784111e+000
1.718171e+003,4.683289e+000
1.719135e+003,5.036819e+000
1.720100e+003,4.420898e+000
1.721064e+003,2.917229e+000
1.722028e+003,1.381577e+000
1.722992e+003,1.176460e+000
1.723957e+003,2.125038e+000
1.724921e+003,2.952019e+000
1.725885e+003,3.660645e+000
1.726849e+003,3.724937e+000
1.727814e+003,2.333740e+000
1.728778e+003,1.472603e+000
1.729742e+003,2.921112e+000
1.730706e+003,4.404129e+000
1.731671e+003,3.002068e+000
1.732635e+003,3.127289e-002
1.733599e+003,-1.302292e+000
1.734563e+003,-5.325165e-001
1.735528e+003,5.756302e-001
1.736492e+003,1.061104e+000
1.737456e+003,1.237656e+000
1.738420e+003,1.484657e+000
1.739385e+003,1.654907e+000
1.740349e+003,1.295151e+000
1.741313e+003,1.589890e-001
1.742277e+003,-3.392029e-002
1.743241e+003,1.688255e+000
1.744206e+003,2.854149e+000
1.745170e+003,2.965111e+000
1.746134e+003,2.612549e+000
1.747098e+003,1.554771e+000
1.748063e+003,6.245575e-001
1.749027e+003,9.955750e-001
1.749991e+003,2.295425e+000
1.750955e+003,3.373497e+000
1.751919e+003,3.750511e+000
1.752884e+003,3.472771e+000
1.753848e+003,2.563400e+000
1.754812e+003,1.407722e+000
1.755776e+003,8.501358e-001
1.756741e+003,9.132385e-001
1.757705e+003,7.660217e-001
1.758669e+003,1.547012e-001
1.759633e+003,-3.627777e-002
1.760598e+003,6.795883e-001
1.761562e+003,1.169167e+000
1.762526e+003,1.101662e+000
1.763490e+003,7.983170e-001
1.764455e+003,4.765091e-001
1.765419e+003,9.145355e-002
1.766383e+003,-9.131851e-001
1.767347e+003,-2.223724e+000
1.768312e+003,-1.975616e+000
1.769276e+003,7.416153e-001
1.770240e+003,3.264091e+000
1.771204e+003,2.559380e+000
1.772168e+003,1.257248e-001
1.773133e+003,-5.735855e-001
1.774097e+003,2.426834e-001
1.775061e+003,2.209778e-001
1.776025e+003,-1.112251e+000
1.776990e+003,-1.740463e+000
1.777954e+003,-6.251831e-001
1.778918e+003,6.821823e-001
1.779882e+003,8.488388e-001
1.780846e+003,6.663132e-001
1.781811e+003,1.578178e+000
1.782775e+003,3.105186e+000
1.783739e+003,3.470673e+000
1.784703e+003,2.346939e+000
1.785668e+003,1.228706e+000
1.786632e+003,3.427124e-001
1.787596e+003,3.648376e-002
1.788560e+003,1.225197e+000
1.789525e+003,2.815826e+000
1.790489e+003,2.998611e+000
1.791453e+003,2.139420e+000
1.792417e+003,1.848068e+000
1.793382e+003,2.413582e+000
1.794346e+003,2.868843e+000
1.795310e+003,2.701118e+000
1.796274e+003,2.043625e+000
1.797239e+003,8.905029e-001
1.798203e+003,-2.057648e-001
1.799167e+003,5.015030e-001
1.800131e+003,3.378761e+000
1.801095e+003,4.848816e+000
1.802060e+003,4.492928e+000
1.803024e+003,3.751213e+000
1.803988e+003,1.709953e+000
1.804952e+003,5.250702e-001
1.805917e+003,2.266724e+000
1.806881e+003,4.459793e+000
1.807845e+003,4.516846e+000
1.808809e+003,3.054840e+000
1.809773e+003,1.742683e+000
1.810738e+003,1.066452e+000
1.811702e+003,5.929794e-001
1.812666e+003,5.430603e-002
1.813630e+003,-1.075592e-001
1.814595e+003,8.416214e-001
1.815559e+003,2.469742e+000
1.816523e+003,2.908714e+000
1.817487e+003,2.016136e+000
1.818452e+003,1.748192e+000
1.819416e+003,2.602867e+000
1.820380e+003,3.023018e+000
1.821344e+003,2.143791e+000
1.822309e+003,1.260567e+000
1.823273e+003,1.298996e+000
1.824237e+003,1.645584e+000
1.825201e+003,1.618652e+000
1.826166e+003,1.341118e+000
1.827130e+003,1.264809e+000
1.828094e+003,1.447464e+000
1.829058e+003,1.643738e+000
1.830022e+003,1.759842e+000
1.830987e+003,1.895844e+000
1.831951e+003,2.192657e+000
1.832915e+003,2.519020e+000
1.833879e+003,2.711494e+000
1.834844e+003,2.755974e+000
1.835808e+003,2.547585e+000
1.836772e+003,2.135246e+000
1.837736e+003,2.040115e+000
1.838700e+003,2.483063e+000
1.839665e+003,2.779343e+000
1.840629e+003,2.242119e+000
1.841593e+003,1.439713e+000
1.842557e+003,1.667603e+000
1.843522e+003,2.895493e+000
1.844486e+003,2.953629e+000
1.845450e+003,5.652771e-001
1.846414e+003,-3.761978e-001
1.847379e+003,1.246117e+000
1.848343e+003,2.602615e+000
1.849307e+003,2.720284e+000
1.850271e+003,2.511955e+000
1.851236e+003,2.543518e+000
1.852200e+003,2.805489e+000
1.853164e+003,3.224411e+000
1.854128e+003,3.660141e+000
1.855093e+003,3.986389e+000
1.856057e+003,4.169701e+000
1.857021e+003,3.977753e+000
1.857985e+003,3.080803e+000
1.858949e+003,2.182724e+000
1.859914e+003,2.811226e+000
1.860878e+003,4.605087e+000
1.861842e+003,5.377342e+000
1.862806e+003,5.075829e+000
1.863771e+003,4.650360e+000
1.864735e+003,4.159912e+000
1.865699e+003,3.908493e+000
1.866663e+003,4.263306e+000
1.867627e+003,4.531013e+000
1.868592e+003,3.888954e+000
1.869556e+003,2.786957e+000
1.870520e+003,2.296959e+000
1.871484e+003,2.270744e+000
1.872449e+003,1.602280e+000
1.873413e+003,-3.811646e-002
1.874377e+003,-9.063568e-001
1.875341e+003,-2.128525e-001
1.876306e+003,7.428131e-001
1.877270e+003,1.465378e+000
1.878234e+003,1.915413e+000
1.879198e+003,1.783745e+000
1.880163e+003,1.531532e+000
1.881127e+003,2.166000e+000
1.882091e+003,3.548500e+000
1.883055e+003,4.598221e+000
1.884020e+003,4.831062e+000
1.884984e+003,4.371544e+000
1.885948e+003,3.297310e+000
1.886912e+003,2.161911e+000
1.887876e+003,2.151024e+000
1.888841e+003,3.163742e+000
1.889805e+003,3.971245e+000
1.890769e+003,4.663536e+000
1.891733e+003,4.539330e+000
1.892698e+003,2.873611e+000
1.893662e+003,1.928726e+000
1.894626e+003,3.073593e+000
1.895590e+003,4.406334e+000
1.896554e+003,4.831482e+000
1.897519e+003,4.630821e+000
1.898483e+003,3.531326e+000
1.899447e+003,2.023399e+000
1.900411e+003,2.055878e+000
1.901376e+003,4.073822e+000
1.902340e+003,5.592323e+000
1.903304e+003,5.384628e+000
1.904268e+003,4.904831e+000
1.905233e+003,4.983154e+000
1.906197e+003,5.306526e+000
1.907161e+003,5.736763e+000
1.908125e+003,6.099945e+000
1.909090e+003,6.138397e+000
1.910054e+003,5.772186e+000
1.911018e+003,4.766708e+000
1.911982e+003,3.227303e+000
1.912947e+003,2.168411e+000
1.913911e+003,2.314308e+000
1.914875e+003,3.501312e+000
1.915839e+003,5.679123e+000
1.916803e+003,8.274338e+000
1.917768e+003,8.189224e+000
1.918732e+003,4.787704e+000
1.919696e+003,3.183228e+000
1.920660e+003,4.034561e+000
1.921625e+003,5.165543e+000
1.922589e+003,6.638290e+000
1.923553e+003,7.391563e+000
1.924517e+003,6.102264e+000
1.925481e+003,4.533813e+000
1.926446e+003,4.026527e+000
1.927410e+003,4.443703e+000
1.928374e+003,5.906853e+000
1.929338e+003,8.179810e+000
1.930303e+003,9.116043e+000
1.931267e+003,7.874580e+000
1.932231e+003,6.526306e+000
1.933195e+003,5.593262e+000
1.934160e+003,5.224861e+000
1.935124e+003,5.717949e+000
1.936088e+003,6.654549e+000
1.937052e+003,8.266571e+000
1.938017e+003,9.711960e+000
1.938981e+003,8.654434e+000
1.939945e+003,5.460976e+000
1.940909e+003,3.484100e+000
1.941874e+003,4.167862e+000
1.942838e+003,5.686012e+000
1.943802e+003,6.426369e+000
1.944766e+003,6.524757e+000
1.945730e+003,5.962776e+000
1.946695e+003,4.886497e+000
1.947659e+003,4.900436e+000
1.948623e+003,6.097290e+000
1.949587e+003,7.261093e+000
1.950552e+003,8.419342e+000
1.951516e+003,8.981377e+000
1.952480e+003,8.490997e+000
1.953444e+003,7.930389e+000
1.954408e+003,8.216576e+000
1.955373e+003,8.509720e+000
1.956337e+003,7.181786e+000
1.957301e+003,4.986259e+000
1.958265e+003,4.585365e+000
1.959230e+003,6.286858e+000
1.960194e+003,7.699707e+000
1.961158e+003,8.267075e+000
1.962122e+003,8.706749e+000
1.963087e+003,9.707573e+000
1.964051e+003,1.003249e+001
1.965015e+003,8.238823e+000
1.965979e+003,6.169235e+000
1.966944e+003,5.775681e+000
1.967908e+003,6.419075e+000
1.968872e+003,6.654442e+000
1.969836e+003,6.315987e+000
1.970801e+003,6.053726e+000
1.971765e+003,6.171196e+000
1.972729e+003,6.652161e+000
1.973693e+003,7.544594e+000
1.974657e+003,8.588425e+000
1.975622e+003,9.509148e+000
1.976586e+003,1.020187e+001
1.977550e+003,1.044048e+001
1.978514e+003,1.025832e+001
1.979479e+003,9.610870e+000
1.980443e+003,8.539215e+000
1.981407e+003,7.940895e+000
1.982371e+003,8.189354e+000
1.983335e+003,8.541077e+000
1.984300e+003,8.399277e+000
1.985264e+003,8.064590e+000
1.986228e+003,8.009933e+000
1.987192e+003,8.226486e+000
1.988157e+003,8.712364e+000
1.989121e+003,9.617126e+000
1.990085e+003,1.015007e+001
1.991049e+003,1.071401e+001
1.992014e+003,1.013413e+001
1.992978e+003,6.438911e+000
1.993942e+003,4.040436e+000
1.994906e+003,5.724007e+000
1.995871e+003,7.903824e+000
1.996835e+003,7.622009e+000
1.997799e+003,6.401665e+000
1.998763e+003,6.653458e+000
1.999728e+003,8.182663e+000
