5.003444e+002,1.611875e+002
5.013087e+002,1.601902e+002
5.022729e+002,1.582242e+002
5.032371e+002,1.563938e+002
5.042014e+002,1.557141e+002
5.051656e+002,1.561494e+002
5.061298e+002,1.567421e+002
5.070941e+002,1.564740e+002
5.080583e+002,1.548380e+002
5.090225e+002,1.527428e+002
5.099868e+002,1.502928e+002
5.109510e+002,1.474180e+002
5.119152e+002,1.436868e+002
5.128795e+002,1.390284e+002
5.138437e+002,1.356887e+002
5.148079e+002,1.363385e+002
5.157722e+002,1.370579e+002
5.167364e+002,1.354535e+002
5.177006e+002,1.314277e+002
5.186649e+002,1.272433e+002
5.196291e+002,1.272578e+002
5.205933e+002,1.290399e+002
5.215576e+002,1.287754e+002
5.225218e+002,1.255651e+002
5.234860e+002,1.200997e+002
5.244503e+002,1.142194e+002
5.254145e+002,1.085226e+002
5.263787e+002,1.051787e+002
5.273430e+002,1.049094e+002
5.283072e+002,1.064678e+002
5.292714e+002,1.080974e+002
5.302357e+002,1.091952e+002
5.311999e+002,1.092931e+002
5.321641e+002,1.098898e+002
5.331284e+002,1.102224e+002
5.340926e+002,1.089276e+002
5.350568e+002,1.050109e+002
5.360211e+002,1.005486e+002
5.369853e+002,9.902991e+001
5.379495e+002,9.847302e+001
5.389138e+002,9.663953e+001
5.398780e+002,9.271790e+001
5.408422e+002,8.788379e+001
5.418065e+002,8.588623e+001
5.427707e+002,8.632385e+001
5.437349e+002,8.698071e+001
5.446992e+002,8.762903e+001
5.456634e+002,8.770203e+001
5.466276e+002,8.536499e+001
5.475919e+002,7.616113e+001
5.485561e+002,7.079724e+001
5.495203e+002,7.205627e+001
5.504846e+002,7.599988e+001
5.514488e+002,7.694714e+001
5.524130e+002,7.184106e+001
5.533773e+002,6.725256e+001
5.543415e+002,6.723047e+001
5.553057e+002,6.903857e+001
5.562700e+002,6.993884e+001
5.572342e+002,6.814990e+001
5.581984e+002,6.430762e+001
5.591627e+002,5.927405e+001
5.601269e+002,5.427612e+001
5.610911e+002,5.170056e+001
5.620554e+002,5.274451e+001
5.630196e+002,5.660364e+001
5.639838e+002,5.836926e+001
5.649481e+002,5.762329e+001
5.659123e+002,5.555237e+001
5.668765e+002,5.186719e+001
5.678408e+002,4.783362e+001
5.688050e+002,4.610876e+001
5.697692e+002,4.818506e+001
5.707335e+002,4.946216e+001
5.716977e+002,4.927344e+001
5.726619e+002,4.781433e+001
5.736262e+002,4.500513e+001
5.745904e+002,4.048157e+001
5.755546e+002,3.656458e+001
5.765189e+002,3.666687e+001
5.774831e+002,3.872693e+001
5.784473e+002,4.003174e+001
5.794116e+002,3.902441e+001
5.803758e+002,3.640198e+001
5.813400e+002,3.538818e+001
5.823043e+002,3.568030e+001
5.832685e+002,3.517297e+001
5.842327e+002,3.324854e+001
5.851970e+002,3.065430e+001
5.861612e+002,2.947266e+001
5.871254e+002,3.051904e+001
5.880897e+002,3.153296e+001
5.890539e+002,3.157678e+001
5.900181e+002,3.102332e+001
5.909824e+002,3.095605e+001
5.919466e+002,3.269507e+001
5.929108e+002,3.428967e+001
5.938751e+002,3.326013e+001
5.948393e+002,3.081494e+001
5.958035e+002,2.907556e+001
5.967678e+002,2.965576e+001
5.977320e+002,3.225671e+001
5.986962e+002,3.196704e+001
5.996605e+002,2.802686e+001
6.006247e+002,2.428625e+001
6.015889e+002,2.271680e+001
6.025532e+002,2.324231e+001
6.035174e+002,2.341943e+001
6.044816e+002,2.171484e+001
6.054459e+002,2.170239e+001
6.064101e+002,2.603589e+001
6.073743e+002,3.201147e+001
6.083386e+002,3.445032e+001
6.093028e+002,2.900317e+001
6.102670e+002,2.326880e+001
6.112313e+002,2.396948e+001
6.121955e+002,2.763489e+001
6.131597e+002,2.935400e+001
6.141240e+002,2.581030e+001
6.150882e+002,1.882214e+001
6.160524e+002,1.697009e+001
6.170167e+002,1.963562e+001
6.179809e+002,2.294812e+001
6.189451e+002,2.521338e+001
6.199094e+002,2.609204e+001
6.208736e+002,2.539307e+001
6.218378e+002,2.328735e+001
6.228021e+002,2.049475e+001
6.237663e+002,1.553381e+001
6.247305e+002,1.051074e+001
6.256948e+002,9.075317e+000
6.266590e+002,1.407788e+001
6.276232e+002,1.783606e+001
6.285875e+002,1.442432e+001
6.295517e+002,9.133545e+000
6.305159e+002,8.120850e+000
6.314802e+002,1.428052e+001
6.324444e+002,2.325269e+001
6.334086e+002,2.249475e+001
6.343729e+002,1.559790e+001
6.353371e+002,1.013855e+001
6.363013e+002,8.808960e+000
6.372656e+002,1.014478e+001
6.382298e+002,9.389648e+000
6.391940e+002,2.517212e+000
6.401583e+002,-1.495850e+000
6.411225e+002,7.425537e-001
6.420867e+002,5.530518e+000
6.430510e+002,7.912231e+000
6.440152e+002,5.525757e+000
6.449794e+002,2.035767e+000
6.459437e+002,-1.127930e+000
6.469079e+002,-3.950439e+000
6.478721e+002,-6.063232e+000
6.488364e+002,-7.298584e+000
6.498006e+002,-7.984863e+000
6.507648e+002,-9.563843e+000
6.517291e+002,-1.138269e+001
6.526933e+002,-1.068860e+001
6.536575e+002,-6.838501e+000
6.546218e+002,-1.951782e+000
6.555860e+002,-1.186523e-001
6.565502e+002,-3.418091e+000
6.575145e+002,-5.840088e+000
6.584787e+002,-7.371826e+000
6.594429e+002,-8.092651e+000
6.604072e+002,-7.789795e+000
6.613714e+002,-6.293701e+000
6.623356e+002,-4.887451e+000
6.632999e+002,-5.064209e+000
6.642641e+002,-5.559326e+000
6.652283e+002,-4.934204e+000
6.661926e+002,-3.119141e+000
6.671568e+002,-1.248657e+000
6.681210e+002,-1.104492e+000
6.690853e+002,-2.438721e+000
6.700495e+002,-4.080811e+000
6.710137e+002,-5.828491e+000
6.719780e+002,-6.125000e+000
6.729422e+002,-3.056396e+000
6.739064e+002,4.325806e+000
6.748707e+002,7.617065e+000
6.758349e+002,4.260376e+000
6.767991e+002,7.772217e-001
6.777634e+002,1.194458e+000
6.787276e+002,5.245361e+000
6.796918e+002,7.636597e+000
6.806561e+002,3.391113e+000
6.816203e+002,-8.271484e-001
6.825845e+002,-2.470825e+000
6.835488e+002,-2.235962e+000
6.845130e+002,-1.540771e+000
6.854772e+002,-1.322876e+000
6.864415e+002,-6.672363e-001
6.874057e+002,1.882080e+000
6.883699e+002,5.013184e+000
6.893342e+002,7.070190e+000
6.902984e+002,7.337524e+000
6.912626e+002,6.051880e+000
6.922269e+002,3.499634e+000
6.931911e+002,-1.434082e+000
6.941553e+002,-4.268188e+000
6.951196e+002,-5.185425e+000
6.960838e+002,-4.756348e+000
6.970480e+002,-3.041260e+000
6.980123e+002,1.089722e+000
6.989765e+002,4.464844e+000
6.999407e+002,5.721191e+000
7.009050e+002,5.770264e+000
7.018692e+002,4.862915e+000
7.028334e+002,3.230103e+000
7.037977e+002,1.458740e+000
7.047619e+002,1.008789e+000
7.057261e+002,1.790039e+000
7.066904e+002,2.764771e+000
7.076546e+002,3.724365e+000
7.086188e+002,4.510498e+000
7.095831e+002,4.805298e+000
7.105473e+002,3.990112e+000
7.115115e+002,3.554199e+000
7.124758e+002,4.195923e+000
7.134400e+002,4.081421e+000
7.144042e+002,2.251587e+000
7.153685e+002,-1.075073e+000
7.163327e+002,-4.714355e+000
7.172969e+002,-1.074609e+001
7.182612e+002,-1.420300e+001
7.192254e+002,-1.130859e+001
7.201896e+002,-4.521729e+000
7.211539e+002,1.374390e+000
7.221181e+002,2.455444e+000
7.230823e+002,2.413330e-001
7.240466e+002,-6.873779e-001
7.250108e+002,-1.921387e-001
7.259750e+002,1.080322e-001
7.269393e+002,-1.510498e+000
7.279035e+002,-5.219727e+000
7.288677e+002,-7.059204e+000
7.298320e+002,-3.028564e+000
7.307962e+002,5.499268e-001
7.317604e+002,3.181885e+000
7.327247e+002,5.351074e+000
7.336889e+002,7.321899e+000
7.346531e+002,8.370850e+000
7.356174e+002,7.737183e+000
7.365816e+002,5.582642e+000
7.375458e+002,3.693481e+000
7.385101e+002,3.541626e+000
7.394743e+002,5.318481e+000
7.404385e+002,7.904175e+000
7.414028e+002,9.724487e+000
7.423670e+002,9.217163e+000
7.433312e+002,5.465698e+000
7.442955e+002,-1.071411e+000
7.452597e+002,-6.434937e+000
7.462239e+002,-6.340332e+000
7.471882e+002,3.638916e-001
7.481524e+002,6.525024e+000
7.491166e+002,1.287732e+001
7.500809e+002,1.625574e+001
7.510451e+002,1.427417e+001
7.520093e+002,8.151733e+000
7.529736e+002,1.986328e+000
7.539378e+002,-2.679565e+000
7.549020e+002,-4.426758e+000
7.558663e+002,-1.151611e+000
7.568306e+002,4.400635e+000
7.577948e+002,8.328735e+000
7.587590e+002,8.131592e+000
7.597233e+002,4.877075e+000
7.606875e+002,2.786377e+000
7.616517e+002,2.178223e+000
7.626160e+002,2.036865e+000
7.635802e+002,2.220459e+000
7.645444e+002,2.934326e+000
7.655087e+002,4.671509e+000
7.664729e+002,8.478394e+000
7.674371e+002,1.040442e+001
7.684014e+002,8.987915e+000
7.693656e+002,6.995361e+000
7.703298e+002,5.851563e+000
7.712941e+002,5.987061e+000
7.722583e+002,7.652954e+000
7.732225e+002,1.269092e+001
7.741868e+002,1.770483e+001
7.751510e+002,2.048853e+001
7.761152e+002,2.098816e+001
7.770795e+002,1.892822e+001
7.780437e+002,1.390210e+001
7.790079e+002,6.656738e+000
7.799722e+002,6.744263e+000
7.809364e+002,1.488928e+001
7.819006e+002,2.080835e+001
7.828649e+002,1.897156e+001
7.838291e+002,1.252002e+001
7.847933e+002,1.138354e+001
7.857576e+002,1.961108e+001
7.867218e+002,2.493030e+001
7.876860e+002,2.500220e+001
7.886503e+002,2.313550e+001
7.896145e+002,2.194177e+001
7.905787e+002,2.213098e+001
7.915430e+002,2.232495e+001
7.925072e+002,1.940466e+001
7.934714e+002,1.565808e+001
7.944357e+002,1.503247e+001
7.953999e+002,1.771106e+001
7.963641e+002,2.109204e+001
7.973284e+002,2.200525e+001
7.982926e+002,2.029541e+001
7.992568e+002,1.888635e+001
8.002211e+002,1.630981e+001
8.011853e+002,1.352283e+001
8.021495e+002,1.195654e+001
8.031138e+002,1.223145e+001
8.040780e+002,1.382019e+001
8.050422e+002,1.690479e+001
8.060065e+002,1.883020e+001
8.069707e+002,1.643396e+001
8.079349e+002,1.323132e+001
8.088992e+002,1.393848e+001
8.098634e+002,1.998975e+001
8.108276e+002,2.685474e+001
8.117919e+002,2.681396e+001
8.127561e+002,2.154456e+001
8.137203e+002,1.597375e+001
8.146846e+002,1.143054e+001
8.156488e+002,9.020874e+000
8.166130e+002,1.006140e+001
8.175773e+002,1.548877e+001
8.185415e+002,1.748230e+001
8.195057e+002,1.158704e+001
8.204700e+002,7.176514e+000
8.214342e+002,8.255249e+000
8.223984e+002,1.324805e+001
8.233627e+002,1.787634e+001
8.243269e+002,2.131726e+001
8.252911e+002,2.339954e+001
8.262554e+002,2.363782e+001
8.272196e+002,2.300745e+001
8.281838e+002,2.245032e+001
8.291481e+002,2.227417e+001
8.301123e+002,2.192346e+001
8.310765e+002,2.009863e+001
8.320408e+002,1.701367e+001
8.330050e+002,1.657007e+001
8.339692e+002,1.974377e+001
8.349335e+002,2.371130e+001
8.358977e+002,2.595667e+001
8.368619e+002,2.672632e+001
8.378262e+002,2.671716e+001
8.387904e+002,2.411609e+001
8.397546e+002,2.183105e+001
8.407189e+002,1.997107e+001
8.416831e+002,1.918420e+001
8.426473e+002,2.080859e+001
8.436116e+002,2.602405e+001
8.445758e+002,3.174365e+001
8.455400e+002,3.411304e+001
8.465043e+002,3.407117e+001
8.474685e+002,3.317480e+001
8.484327e+002,3.243555e+001
8.493970e+002,3.203870e+001
8.503612e+002,3.148865e+001
8.513254e+002,3.043628e+001
8.522897e+002,2.940247e+001
8.532539e+002,2.701392e+001
8.542181e+002,2.550916e+001
8.551824e+002,2.757544e+001
8.561466e+002,3.333667e+001
8.571108e+002,3.854419e+001
8.580751e+002,3.941895e+001
8.590393e+002,4.035083e+001
8.600035e+002,4.393994e+001
8.609678e+002,4.881775e+001
8.619320e+002,5.323376e+001
8.628962e+002,5.638379e+001
8.638605e+002,5.899915e+001
8.648247e+002,6.292163e+001
8.657889e+002,6.673267e+001
8.667532e+002,6.690527e+001
8.677174e+002,6.299243e+001
8.686816e+002,5.853503e+001
8.696459e+002,5.783826e+001
8.706101e+002,6.181946e+001
8.715743e+002,6.538940e+001
8.725386e+002,6.734448e+001
8.735028e+002,7.055859e+001
8.744670e+002,7.692847e+001
8.754313e+002,8.387549e+001
8.763955e+002,8.667322e+001
8.773597e+002,8.293591e+001
8.783240e+002,7.921594e+001
8.792882e+002,7.967236e+001
8.802524e+002,8.207800e+001
8.812167e+002,8.542090e+001
8.821809e+002,8.903259e+001
8.831451e+002,9.214722e+001
8.841094e+002,9.378149e+001
8.850736e+002,9.450452e+001
8.860378e+002,9.720300e+001
8.870021e+002,1.023745e+002
8.879663e+002,1.062745e+002
8.889305e+002,1.053485e+002
8.898948e+002,1.006534e+002
8.908590e+002,9.883398e+001
8.918232e+002,1.026852e+002
8.927875e+002,1.068311e+002
8.937517e+002,1.103259e+002
8.947159e+002,1.135057e+002
8.956802e+002,1.163074e+002
8.966444e+002,1.183964e+002
8.976086e+002,1.195601e+002
8.985729e+002,1.201317e+002
8.995371e+002,1.204683e+002
9.005013e+002,1.202462e+002
9.014656e+002,1.199048e+002
9.024298e+002,1.200453e+002
9.033940e+002,1.206688e+002
9.043583e+002,1.214045e+002
9.053225e+002,1.233329e+002
9.062867e+002,1.277711e+002
9.072510e+002,1.307441e+002
9.082152e+002,1.340920e+002
9.091794e+002,1.360770e+002
9.101437e+002,1.332892e+002
9.111079e+002,1.250372e+002
9.120721e+002,1.189979e+002
9.130364e+002,1.213110e+002
9.140006e+002,1.248165e+002
9.149648e+002,1.268656e+002
9.159291e+002,1.275259e+002
9.168933e+002,1.269236e+002
9.178575e+002,1.249059e+002
9.188218e+002,1.218429e+002
9.197860e+002,1.202023e+002
9.207502e+002,1.196996e+002
9.217145e+002,1.192390e+002
9.226787e+002,1.203334e+002
9.236429e+002,1.213120e+002
9.246072e+002,1.185575e+002
9.255714e+002,1.104244e+002
9.265356e+002,1.046868e+002
9.274999e+002,1.041345e+002
9.284641e+002,1.039496e+002
9.294283e+002,1.032350e+002
9.303926e+002,1.020244e+002
9.313568e+002,1.005439e+002
9.323210e+002,9.884644e+001
9.332853e+002,9.690063e+001
9.342495e+002,9.440747e+001
9.352137e+002,9.155298e+001
9.361780e+002,8.921289e+001
9.371422e+002,8.803235e+001
9.381064e+002,8.791895e+001
9.390707e+002,8.812549e+001
9.400349e+002,8.791248e+001
9.409991e+002,8.856079e+001
9.419634e+002,9.045410e+001
9.429276e+002,9.225928e+001
9.438918e+002,9.457947e+001
9.448561e+002,9.654761e+001
9.458203e+002,9.656726e+001
9.467845e+002,9.410400e+001
9.477488e+002,9.122607e+001
9.487130e+002,8.801965e+001
9.496772e+002,8.579297e+001
9.506415e+002,8.679749e+001
9.516057e+002,9.023181e+001
9.525699e+002,9.259570e+001
9.535342e+002,9.031897e+001
9.544984e+002,8.396802e+001
9.554626e+002,8.093701e+001
9.564269e+002,8.281958e+001
9.573911e+002,8.412402e+001
9.583553e+002,8.142542e+001
9.593196e+002,7.779041e+001
9.602838e+002,7.943201e+001
9.612480e+002,8.848022e+001
9.622123e+002,9.370264e+001
9.631765e+002,8.825378e+001
9.641407e+002,8.242981e+001
9.651050e+002,8.099536e+001
9.660692e+002,8.262085e+001
9.670334e+002,8.384924e+001
9.679977e+002,8.288928e+001
9.689619e+002,8.120984e+001
9.699261e+002,8.050073e+001
9.708904e+002,8.011584e+001
9.718546e+002,7.943335e+001
9.728188e+002,7.769580e+001
9.737831e+002,7.703845e+001
9.747473e+002,8.128748e+001
9.757115e+002,9.201392e+001
9.766758e+002,1.002795e+002
9.776400e+002,1.058512e+002
9.786042e+002,1.102617e+002
9.795685e+002,1.145212e+002
9.805327e+002,1.165845e+002
9.814969e+002,1.134525e+002
9.824612e+002,1.044958e+002
9.834254e+002,9.454858e+001
9.843896e+002,8.716418e+001
9.853539e+002,8.089795e+001
9.863181e+002,7.379919e+001
9.872823e+002,6.596375e+001
9.882466e+002,5.999939e+001
9.892108e+002,5.883398e+001
9.901750e+002,6.246960e+001
9.911393e+002,6.477209e+001
9.921035e+002,6.161865e+001
9.930677e+002,6.044800e+001
9.940320e+002,6.370862e+001
9.949962e+002,6.860510e+001
9.959604e+002,7.193164e+001
9.969247e+002,7.374634e+001
9.978889e+002,7.851514e+001
9.988531e+002,9.143188e+001
9.998174e+002,1.019487e+002
1.000782e+003,1.024240e+002
1.001746e+003,9.803345e+001
1.002710e+003,9.656226e+001
1.003674e+003,1.010895e+002
1.004639e+003,1.076160e+002
1.005603e+003,1.089335e+002
1.006567e+003,1.042064e+002
1.007531e+003,1.024495e+002
1.008495e+003,1.044771e+002
1.009460e+003,1.077937e+002
1.010424e+003,1.125531e+002
1.011388e+003,1.179006e+002
1.012352e+003,1.194071e+002
1.013317e+003,1.145486e+002
1.014281e+003,1.088705e+002
1.015245e+003,1.038003e+002
1.016209e+003,9.848901e+001
1.017174e+003,9.237952e+001
1.018138e+003,8.564026e+001
1.019102e+003,7.898877e+001
1.020066e+003,7.321106e+001
1.021031e+003,6.815454e+001
1.021995e+003,6.182422e+001
1.022959e+003,5.398169e+001
1.023923e+003,4.689160e+001
1.024887e+003,4.141748e+001
1.025852e+003,3.652917e+001
1.026816e+003,3.040088e+001
1.027780e+003,2.269385e+001
1.028744e+003,1.771948e+001
1.029709e+003,1.821033e+001
1.030673e+003,1.833093e+001
1.031637e+003,1.564978e+001
1.032601e+003,1.148767e+001
1.033566e+003,7.693726e+000
1.034530e+003,5.151611e+000
1.035494e+003,4.543701e+000
1.036458e+003,7.432983e+000
1.037422e+003,1.183521e+001
1.038387e+003,1.470923e+001
1.039351e+003,1.583167e+001
1.040315e+003,1.608801e+001
1.041279e+003,1.632153e+001
1.042244e+003,1.668286e+001
1.043208e+003,1.663770e+001
1.044172e+003,1.476721e+001
1.045136e+003,1.379016e+001
1.046101e+003,1.497998e+001
1.047065e+003,1.639612e+001
1.048029e+003,1.678308e+001
1.048993e+003,1.601587e+001
1.049958e+003,1.443469e+001
1.050922e+003,1.200256e+001
1.051886e+003,1.036060e+001
1.052850e+003,1.050916e+001
1.053814e+003,1.235437e+001
1.054779e+003,1.721899e+001
1.055743e+003,2.458716e+001
1.056707e+003,3.049915e+001
1.057671e+003,3.005151e+001
1.058636e+003,2.306995e+001
1.059600e+003,1.808240e+001
1.060564e+003,1.629211e+001
1.061528e+003,1.608997e+001
1.062493e+003,1.780115e+001
1.063457e+003,1.956384e+001
1.064421e+003,1.989844e+001
1.065385e+003,1.885681e+001
1.066349e+003,1.667627e+001
1.067314e+003,1.150073e+001
1.068278e+003,7.753174e+000
1.069242e+003,9.569702e+000
1.070206e+003,1.470557e+001
1.071171e+003,1.971582e+001
1.072135e+003,2.268213e+001
1.073099e+003,2.345435e+001
1.074063e+003,2.209448e+001
1.075028e+003,1.853687e+001
1.075992e+003,1.678479e+001
1.076956e+003,1.770789e+001
1.077920e+003,1.768018e+001
1.078885e+003,1.488037e+001
1.079849e+003,1.125269e+001
1.080813e+003,1.040417e+001
1.081777e+003,1.350085e+001
1.082741e+003,1.609253e+001
1.083706e+003,1.341040e+001
1.084670e+003,1.059570e+001
1.085634e+003,1.113232e+001
1.086598e+003,1.369263e+001
1.087563e+003,1.537988e+001
1.088527e+003,1.487744e+001
1.089491e+003,1.374915e+001
1.090455e+003,1.426831e+001
1.091420e+003,1.618567e+001
1.092384e+003,1.733569e+001
1.093348e+003,1.795142e+001
1.094312e+003,1.659705e+001
1.095276e+003,1.062036e+001
1.096241e+003,2.785034e+000
1.097205e+003,1.443970e+000
1.098169e+003,9.903076e+000
1.099133e+003,1.665381e+001
1.100098e+003,1.697937e+001
1.101062e+003,1.533984e+001
1.102026e+003,1.410681e+001
1.102990e+003,1.335168e+001
1.103955e+003,1.150098e+001
1.104919e+003,7.549072e+000
1.105883e+003,3.651367e+000
1.106847e+003,5.420532e+000
1.107812e+003,1.284656e+001
1.108776e+003,1.694958e+001
1.109740e+003,1.618909e+001
1.110704e+003,1.455847e+001
1.111668e+003,1.550305e+001
1.112633e+003,1.870862e+001
1.113597e+003,2.098792e+001
1.114561e+003,2.079614e+001
1.115525e+003,2.147375e+001
1.116490e+003,2.531335e+001
1.117454e+003,2.889673e+001
1.118418e+003,2.989417e+001
1.119382e+003,2.936389e+001
1.120347e+003,2.992053e+001
1.121311e+003,3.269263e+001
1.122275e+003,3.543726e+001
1.123239e+003,3.474097e+001
1.124203e+003,3.169836e+001
1.125168e+003,3.075989e+001
1.126132e+003,3.278223e+001
1.127096e+003,3.602063e+001
1.128060e+003,3.899707e+001
1.129025e+003,4.163818e+001
1.129989e+003,4.459326e+001
1.130953e+003,4.784045e+001
1.131917e+003,5.093982e+001
1.132882e+003,5.405286e+001
1.133846e+003,5.723718e+001
1.134810e+003,6.046960e+001
1.135774e+003,6.390051e+001
1.136739e+003,6.749890e+001
1.137703e+003,7.122522e+001
1.138667e+003,7.569556e+001
1.139631e+003,8.245349e+001
1.140595e+003,9.116138e+001
1.141560e+003,9.915564e+001
1.142524e+003,1.059363e+002
1.143488e+003,1.151226e+002
1.144452e+003,1.287009e+002
1.145417e+003,1.464026e+002
1.146381e+003,1.680720e+002
1.147345e+003,1.958584e+002
1.148309e+003,2.210793e+002
1.149274e+003,2.383411e+002
1.150238e+003,2.566484e+002
1.151202e+003,2.821174e+002
1.152166e+003,3.123768e+002
1.153130e+003,3.431031e+002
1.154095e+003,3.713317e+002
1.155059e+003,3.941992e+002
1.156023e+003,4.082919e+002
1.156987e+003,4.139940e+002
1.157952e+003,4.170615e+002
1.158916e+003,4.194495e+002
1.159880e+003,4.155028e+002
1.160844e+003,3.999230e+002
1.161809e+003,3.745587e+002
1.162773e+003,3.439634e+002
1.163737e+003,3.064205e+002
1.164701e+003,2.719618e+002
1.165666e+003,2.446500e+002
1.166630e+003,2.203041e+002
1.167594e+003,1.964808e+002
1.168558e+003,1.749757e+002
1.169522e+003,1.585912e+002
1.170487e+003,1.480563e+002
1.171451e+003,1.421144e+002
1.172415e+003,1.396421e+002
1.173379e+003,1.398400e+002
1.174344e+003,1.396045e+002
1.175308e+003,1.392747e+002
1.176272e+003,1.378210e+002
1.177236e+003,1.343804e+002
1.178201e+003,1.304535e+002
1.179165e+003,1.283463e+002
1.180129e+003,1.276827e+002
1.181093e+003,1.232703e+002
1.182057e+003,1.114047e+002
1.183022e+003,1.001395e+002
1.183986e+003,9.075867e+001
1.184950e+003,8.452039e+001
1.185914e+003,8.408167e+001
1.186879e+003,8.848291e+001
1.187843e+003,9.363342e+001
1.188807e+003,9.607520e+001
1.189771e+003,9.590527e+001
1.190736e+003,9.331470e+001
1.191700e+003,8.769910e+001
1.192664e+003,8.605347e+001
1.193628e+003,9.243469e+001
1.194593e+003,9.910840e+001
1.195557e+003,1.009033e+002
1.196521e+003,9.836963e+001
1.197485e+003,9.320544e+001
1.198449e+003,8.474646e+001
1.199414e+003,7.689355e+001
1.200378e+003,7.065906e+001
1.201342e+003,6.635754e+001
1.202306e+003,6.599304e+001
1.203271e+003,6.714819e+001
1.204235e+003,6.506177e+001
1.205199e+003,5.773584e+001
1.206163e+003,4.824280e+001
1.207128e+003,4.151709e+001
1.208092e+003,3.778345e+001
1.209056e+003,3.442688e+001
1.210020e+003,3.258740e+001
1.210984e+003,2.901135e+001
1.211949e+003,2.140698e+001
1.212913e+003,1.215344e+001
1.213877e+003,4.476440e+000
1.214841e+003,-1.268188e+000
1.215806e+003,-6.604736e+000
1.216770e+003,-1.229053e+001
1.217734e+003,-1.769080e+001
1.218698e+003,-2.364648e+001
1.219663e+003,-2.891156e+001
1.220627e+003,-3.099878e+001
1.221591e+003,-3.014771e+001
1.222555e+003,-2.965784e+001
1.223520e+003,-3.254126e+001
1.224484e+003,-3.768365e+001
1.225448e+003,-4.078552e+001
1.226412e+003,-4.076764e+001
1.227376e+003,-4.123969e+001
1.228341e+003,-4.328931e+001
1.229305e+003,-4.496924e+001
1.230269e+003,-4.468787e+001
1.231233e+003,-4.349445e+001
1.232198e+003,-4.369653e+001
1.233162e+003,-4.575488e+001
1.234126e+003,-4.687921e+001
1.235090e+003,-4.470013e+001
1.236055e+003,-4.165906e+001
1.237019e+003,-3.989618e+001
1.237983e+003,-3.957635e+001
1.238947e+003,-4.063312e+001
1.239911e+003,-4.275970e+001
1.240876e+003,-4.514905e+001
1.241840e+003,-4.706488e+001
1.242804e+003,-4.855591e+001
1.243768e+003,-4.819824e+001
1.244733e+003,-4.361536e+001
1.245697e+003,-4.024988e+001
1.246661e+003,-3.944135e+001
1.247625e+003,-4.009894e+001
1.248590e+003,-4.227197e+001
1.249554e+003,-4.447992e+001
1.250518e+003,-4.339630e+001
1.251482e+003,-3.753369e+001
1.252447e+003,-3.122601e+001
1.253411e+003,-2.942059e+001
1.254375e+003,-3.025049e+001
1.255339e+003,-3.038470e+001
1.256303e+003,-2.942108e+001
1.257268e+003,-2.764136e+001
1.258232e+003,-2.540143e+001
1.259196e+003,-2.342523e+001
1.260160e+003,-2.278168e+001
1.261125e+003,-2.355939e+001
1.262089e+003,-2.212897e+001
1.263053e+003,-1.636322e+001
1.264017e+003,-1.153925e+001
1.264982e+003,-9.286499e+000
1.265946e+003,-7.816284e+000
1.266910e+003,-5.095337e+000
1.267874e+003,-1.366943e+000
1.268839e+003,1.835083e+000
1.269803e+003,3.551758e+000
1.270767e+003,3.204346e+000
1.271731e+003,-1.105591e+000
1.272695e+003,-8.922668e+000
1.273660e+003,-1.375867e+001
1.274624e+003,-1.548102e+001
1.275588e+003,-1.639233e+001
1.276552e+003,-1.657300e+001
1.277517e+003,-1.631769e+001
1.278481e+003,-1.660309e+001
1.279445e+003,-1.759619e+001
1.280409e+003,-1.999896e+001
1.281374e+003,-2.572913e+001
1.282338e+003,-3.042255e+001
1.283302e+003,-3.181274e+001
1.284266e+003,-3.120483e+001
1.285230e+003,-2.908337e+001
1.286195e+003,-2.647662e+001
1.287159e+003,-2.567902e+001
1.288123e+003,-2.838647e+001
1.289087e+003,-3.300836e+001
1.290052e+003,-3.570441e+001
1.291016e+003,-3.666913e+001
1.291980e+003,-3.604279e+001
1.292944e+003,-3.141077e+001
1.293909e+003,-2.930829e+001
1.294873e+003,-3.361035e+001
1.295837e+003,-4.031171e+001
1.296801e+003,-4.407562e+001
1.297766e+003,-4.424969e+001
1.298730e+003,-4.384589e+001
1.299694e+003,-4.482593e+001
1.300658e+003,-4.581018e+001
1.301622e+003,-4.492078e+001
1.302587e+003,-4.272626e+001
1.303551e+003,-3.966467e+001
1.304515e+003,-3.590521e+001
1.305479e+003,-3.351324e+001
1.306444e+003,-3.503058e+001
1.307408e+003,-3.866913e+001
1.308372e+003,-3.679004e+001
1.309336e+003,-2.598645e+001
1.310301e+003,-2.042065e+001
1.311265e+003,-2.387585e+001
1.312229e+003,-2.811035e+001
1.313193e+003,-3.242627e+001
1.314157e+003,-3.549451e+001
1.315122e+003,-3.518719e+001
1.316086e+003,-3.232587e+001
1.317050e+003,-3.055969e+001
1.318014e+003,-3.210516e+001
1.318979e+003,-3.530835e+001
1.319943e+003,-3.805896e+001
1.320907e+003,-3.996429e+001
1.321871e+003,-3.989856e+001
1.322836e+003,-3.792511e+001
1.323800e+003,-3.599902e+001
1.324764e+003,-3.512482e+001
1.325728e+003,-3.475562e+001
1.326693e+003,-3.437653e+001
1.327657e+003,-3.425342e+001
1.328621e+003,-3.355817e+001
1.329585e+003,-3.033368e+001
1.330549e+003,-2.658112e+001
1.331514e+003,-2.434857e+001
1.332478e+003,-2.346051e+001
1.333442e+003,-2.319238e+001
1.334406e+003,-2.341779e+001
1.335371e+003,-2.510089e+001
1.336335e+003,-2.872284e+001
1.337299e+003,-3.235876e+001
1.338263e+003,-3.236951e+001
1.339228e+003,-2.819849e+001
1.340192e+003,-2.541492e+001
1.341156e+003,-2.378357e+001
1.342120e+003,-2.378253e+001
1.343084e+003,-2.696808e+001
1.344049e+003,-3.138397e+001
1.345013e+003,-3.612543e+001
1.345977e+003,-3.994586e+001
1.346941e+003,-4.025317e+001
1.347906e+003,-3.601062e+001
1.348870e+003,-3.061267e+001
1.349834e+003,-2.647791e+001
1.350798e+003,-2.428082e+001
1.351763e+003,-2.527173e+001
1.352727e+003,-2.862085e+001
1.353691e+003,-3.001807e+001
1.354655e+003,-2.736951e+001
1.355620e+003,-2.393695e+001
1.356584e+003,-2.368756e+001
1.357548e+003,-2.607629e+001
1.358512e+003,-2.757434e+001
1.359476e+003,-2.804315e+001
1.360441e+003,-2.947644e+001
1.361405e+003,-3.340979e+001
1.362369e+003,-3.673859e+001
1.363333e+003,-3.806824e+001
1.364298e+003,-3.772870e+001
1.365262e+003,-3.547821e+001
1.366226e+003,-3.198029e+001
1.367190e+003,-2.998145e+001
1.368155e+003,-3.202155e+001
1.369119e+003,-3.613953e+001
1.370083e+003,-3.584381e+001
1.371047e+003,-2.919128e+001
1.372011e+003,-2.519336e+001
1.372976e+003,-2.686890e+001
1.373940e+003,-2.817731e+001
1.374904e+003,-2.538873e+001
1.375868e+003,-2.156421e+001
1.376833e+003,-2.145636e+001
1.377797e+003,-2.497052e+001
1.378761e+003,-2.736310e+001
1.379725e+003,-2.635229e+001
1.380690e+003,-2.411493e+001
1.381654e+003,-2.261011e+001
1.382618e+003,-2.117145e+001
1.383582e+003,-1.865442e+001
1.384547e+003,-1.523627e+001
1.385511e+003,-1.231000e+001
1.386475e+003,-1.054907e+001
1.387439e+003,-1.056873e+001
1.388403e+003,-1.482111e+001
1.389368e+003,-2.332404e+001
1.390332e+003,-2.509674e+001
1.391296e+003,-1.503674e+001
1.392260e+003,-7.231995e+000
1.393225e+003,-5.469360e+000
1.394189e+003,-6.070313e+000
1.395153e+003,-8.448914e+000
1.396117e+003,-1.114722e+001
1.397082e+003,-1.179120e+001
1.398046e+003,-1.014771e+001
1.399010e+003,-9.248291e+000
1.399974e+003,-1.226794e+001
1.400938e+003,-1.784448e+001
1.401903e+003,-1.987939e+001
1.402867e+003,-1.583435e+001
1.403831e+003,-1.292365e+001
1.404795e+003,-1.246051e+001
1.405760e+003,-1.256757e+001
1.406724e+003,-1.438354e+001
1.407688e+003,-1.689740e+001
1.408652e+003,-1.772357e+001
1.409617e+003,-1.651343e+001
1.410581e+003,-1.527649e+001
1.411545e+003,-1.495056e+001
1.412509e+003,-1.404907e+001
1.413474e+003,-1.021954e+001
1.414438e+003,-6.433411e+000
1.415402e+003,-7.188843e+000
1.416366e+003,-1.142749e+001
1.417330e+003,-1.510956e+001
1.418295e+003,-1.696863e+001
1.419259e+003,-1.658691e+001
1.420223e+003,-1.256085e+001
1.421187e+003,-6.035339e+000
1.422152e+003,-2.331726e+000
1.423116e+003,-1.552551e+000
1.424080e+003,-1.690247e+000
1.425044e+003,-4.746521e+000
1.426009e+003,-6.906921e+000
1.426973e+003,-5.266174e+000
1.427937e+003,-2.677979e+000
1.428901e+003,-2.605347e+000
1.429865e+003,-4.922485e+000
1.430830e+003,-7.378540e+000
1.431794e+003,-8.667114e+000
1.432758e+003,-8.632446e+000
1.433722e+003,-6.112915e+000
1.434687e+003,-1.763916e-002
1.435651e+003,4.391296e+000
1.436615e+003,2.539490e+000
1.437579e+003,2.365967e+000
1.438544e+003,6.653381e+000
1.439508e+003,1.112097e+001
1.440472e+003,1.346246e+001
1.441436e+003,1.434344e+001
1.442401e+003,1.502649e+001
1.443365e+003,1.563574e+001
1.444329e+003,1.507129e+001
1.445293e+003,1.227197e+001
1.446257e+003,9.227661e+000
1.447222e+003,1.027454e+001
1.448186e+003,1.433057e+001
1.449150e+003,1.568457e+001
1.450114e+003,1.324005e+001
1.451079e+003,9.908203e+000
1.452043e+003,6.724304e+000
1.453007e+003,4.476440e+000
1.453971e+003,4.278931e+000
1.454936e+003,5.649841e+000
1.455900e+003,6.550842e+000
1.456864e+003,6.739807e+000
1.457828e+003,6.800781e+000
1.458792e+003,6.634521e+000
1.459757e+003,6.181396e+000
1.460721e+003,5.292297e+000
1.461685e+003,4.132874e+000
1.462649e+003,3.214966e+000
1.463614e+003,2.845947e+000
1.464578e+003,2.590881e+000
1.465542e+003,1.651062e+000
1.466506e+003,6.303101e-001
1.467471e+003,2.710449e+000
1.468435e+003,9.948425e+000
1.469399e+003,1.291345e+001
1.470363e+003,5.877991e+000
1.471328e+003,6.643677e-001
1.472292e+003,-2.227173e-001
1.473256e+003,5.907593e-001
1.474220e+003,3.460205e+000
1.475184e+003,6.882874e+000
1.476149e+003,7.035889e+000
1.477113e+003,3.151611e+000
1.478077e+003,-2.178955e-002
1.479041e+003,2.585449e+000
1.480006e+003,9.651306e+000
1.480970e+003,1.583820e+001
1.481934e+003,2.091754e+001
1.482898e+003,2.337549e+001
1.483863e+003,2.099622e+001
1.484827e+003,1.917224e+001
1.485791e+003,1.953851e+001
1.486755e+003,2.171381e+001
1.487719e+003,2.567090e+001
1.488684e+003,3.046753e+001
1.489648e+003,3.456458e+001
1.490612e+003,3.772455e+001
1.491576e+003,4.071924e+001
1.492541e+003,4.387463e+001
1.493505e+003,4.711499e+001
1.494469e+003,4.978632e+001
1.495433e+003,5.173285e+001
1.496398e+003,5.651807e+001
1.497362e+003,6.659644e+001
1.498326e+003,7.583984e+001
1.499290e+003,7.943036e+001
1.500255e+003,8.136676e+001
1.501219e+003,8.645715e+001
1.502183e+003,9.450977e+001
1.503147e+003,1.043783e+002
1.504111e+003,1.158941e+002
1.505076e+003,1.288044e+002
1.506040e+003,1.434294e+002
1.507004e+003,1.592129e+002
1.507968e+003,1.743907e+002
1.508933e+003,1.905024e+002
1.509897e+003,2.110253e+002
1.510861e+003,2.372694e+002
1.511825e+003,2.673153e+002
1.512790e+003,2.995977e+002
1.513754e+003,3.335067e+002
1.514718e+003,3.687531e+002
1.515682e+003,4.048263e+002
1.516646e+003,4.421318e+002
1.517611e+003,4.832084e+002
1.518575e+003,5.209763e+002
1.519539e+003,5.549318e+002
1.520503e+003,5.843013e+002
1.521468e+003,6.092199e+002
1.522432e+003,6.284357e+002
1.523396e+003,6.408208e+002
1.524360e+003,6.458202e+002
1.525325e+003,6.429401e+002
1.526289e+003,6.319947e+002
1.527253e+003,6.149695e+002
1.528217e+003,5.952401e+002
1.529182e+003,5.732909e+002
1.530146e+003,5.452977e+002
1.531110e+003,5.094731e+002
1.532074e+003,4.695201e+002
1.533039e+003,4.214348e+002
1.534003e+003,3.725131e+002
1.534967e+003,3.261520e+002
1.535931e+003,2.827300e+002
1.536896e+003,2.409532e+002
1.537860e+003,2.019758e+002
1.538824e+003,1.688691e+002
1.539788e+003,1.428588e+002
1.540752e+003,1.219933e+002
1.541717e+003,1.040894e+002
1.542681e+003,8.950500e+001
1.543645e+003,7.834137e+001
1.544609e+003,7.249896e+001
1.545573e+003,6.700610e+001
1.546538e+003,5.994788e+001
1.547502e+003,5.418018e+001
1.548466e+003,5.160712e+001
1.549430e+003,5.145148e+001
1.550395e+003,5.366785e+001
1.551359e+003,5.672583e+001
1.552323e+003,5.741663e+001
1.553287e+003,5.481586e+001
1.554252e+003,5.146844e+001
1.555216e+003,4.953516e+001
1.556180e+003,4.827148e+001
1.557144e+003,4.601605e+001
1.558109e+003,4.293292e+001
1.559073e+003,3.997070e+001
1.560037e+003,3.635669e+001
1.561001e+003,3.281592e+001
1.561966e+003,3.002679e+001
1.562930e+003,2.843146e+001
1.563894e+003,2.777002e+001
1.564858e+003,2.809314e+001
1.565823e+003,3.065833e+001
1.566787e+003,3.537665e+001
1.567751e+003,3.824762e+001
1.568715e+003,3.671301e+001
1.569679e+003,3.409326e+001
1.570644e+003,3.483258e+001
1.571608e+003,3.704413e+001
1.572572e+003,3.561670e+001
1.573536e+003,3.064124e+001
1.574500e+003,2.795178e+001
1.575465e+003,3.010468e+001
1.576429e+003,3.362323e+001
1.577393e+003,3.601648e+001
1.578357e+003,3.735034e+001
1.579322e+003,3.764966e+001
1.580286e+003,3.727606e+001
1.581250e+003,3.861420e+001
1.582214e+003,4.293787e+001
1.583179e+003,4.697705e+001
1.584143e+003,4.803973e+001
1.585107e+003,4.716791e+001
1.586071e+003,4.603088e+001
1.587036e+003,4.539502e+001
1.588000e+003,4.607397e+001
1.588964e+003,4.795197e+001
1.589928e+003,4.936835e+001
1.590893e+003,4.899377e+001
1.591857e+003,4.796631e+001
1.592821e+003,4.764612e+001
1.593785e+003,4.824188e+001
1.594750e+003,5.094012e+001
1.595714e+003,5.621301e+001
1.596678e+003,5.972351e+001
1.597642e+003,5.885541e+001
1.598606e+003,5.712958e+001
1.599571e+003,5.708594e+001
1.600535e+003,5.839380e+001
1.601499e+003,6.093799e+001
1.602463e+003,6.424738e+001
1.603427e+003,6.710211e+001
1.604392e+003,6.910278e+001
1.605356e+003,7.021472e+001
1.606320e+003,7.054248e+001
1.607284e+003,6.997894e+001
1.608249e+003,6.738702e+001
1.609213e+003,6.263806e+001
1.610177e+003,6.079932e+001
1.611141e+003,6.428082e+001
1.612106e+003,6.681818e+001
1.613070e+003,6.469580e+001
1.614034e+003,6.097766e+001
1.614998e+003,5.634534e+001
1.615963e+003,5.230450e+001
1.616927e+003,5.154779e+001
1.617891e+003,5.399731e+001
1.618855e+003,5.664905e+001
1.619820e+003,5.754614e+001
1.620784e+003,5.712958e+001
1.621748e+003,5.674896e+001
1.622712e+003,5.707312e+001
1.623677e+003,5.788135e+001
1.624641e+003,5.935480e+001
1.625605e+003,6.058807e+001
1.626569e+003,5.992822e+001
1.627533e+003,5.879224e+001
1.628498e+003,5.847424e+001
1.629462e+003,5.865692e+001
1.630426e+003,5.895905e+001
1.631390e+003,5.930408e+001
1.632354e+003,5.982947e+001
1.633319e+003,6.046863e+001
1.634283e+003,6.077997e+001
1.635247e+003,6.036273e+001
1.636211e+003,5.933093e+001
1.637176e+003,5.800867e+001
1.638140e+003,5.666412e+001
1.639104e+003,5.568365e+001
1.640068e+003,5.458191e+001
1.641033e+003,5.485278e+001
1.641997e+003,5.821118e+001
1.642961e+003,6.164777e+001
1.643925e+003,6.374603e+001
1.644890e+003,6.505786e+001
1.645854e+003,6.586987e+001
1.646818e+003,6.625842e+001
1.647782e+003,6.634186e+001
1.648747e+003,6.613507e+001
1.649711e+003,6.579614e+001
1.650675e+003,6.568982e+001
1.651639e+003,6.604901e+001
1.652604e+003,6.712286e+001
1.653568e+003,6.855054e+001
1.654532e+003,6.762366e+001
1.655496e+003,6.339172e+001
1.656460e+003,5.978717e+001
1.657425e+003,5.863324e+001
1.658389e+003,5.782910e+001
1.659353e+003,5.577527e+001
1.660317e+003,5.370044e+001
1.661281e+003,5.327240e+001
1.662246e+003,5.381317e+001
1.663210e+003,5.308569e+001
1.664174e+003,5.061792e+001
1.665138e+003,4.908795e+001
1.666103e+003,5.128204e+001
1.667067e+003,5.432666e+001
1.668031e+003,5.196021e+001
1.668995e+003,4.479333e+001
1.669960e+003,3.981671e+001
1.670924e+003,3.777563e+001
1.671888e+003,3.755823e+001
1.672852e+003,3.926532e+001
1.673817e+003,4.157800e+001
1.674781e+003,4.513483e+001
1.675745e+003,4.767865e+001
1.676709e+003,4.556030e+001
1.677674e+003,4.019006e+001
1.678638e+003,3.646283e+001
1.679602e+003,3.591895e+001
1.680566e+003,3.593170e+001
1.681531e+003,3.470746e+001
1.682495e+003,3.319098e+001
1.683459e+003,3.272125e+001
1.684423e+003,3.275549e+001
1.685387e+003,3.138190e+001
1.686352e+003,2.834656e+001
1.687316e+003,2.596222e+001
1.688280e+003,2.469305e+001
1.689244e+003,2.470221e+001
1.690208e+003,2.753973e+001
1.691173e+003,3.048816e+001
1.692137e+003,3.032068e+001
1.693101e+003,2.818579e+001
1.694065e+003,2.703693e+001
1.695030e+003,2.718176e+001
1.695994e+003,2.704132e+001
1.696958e+003,2.553564e+001
1.697922e+003,2.392627e+001
1.698887e+003,2.399414e+001
1.699851e+003,2.532904e+001
1.700815e+003,2.617780e+001
1.701779e+003,2.617719e+001
1.702744e+003,2.658734e+001
1.703708e+003,2.866638e+001
1.704672e+003,2.996332e+001
1.705636e+003,2.713177e+001
1.706601e+003,2.274359e+001
1.707565e+003,2.208386e+001
1.708529e+003,2.409650e+001
1.709493e+003,2.405774e+001
1.710458e+003,2.108539e+001
1.711422e+003,1.861768e+001
1.712386e+003,1.943140e+001
1.713350e+003,2.036646e+001
1.714314e+003,1.721411e+001
1.715279e+003,1.258765e+001
1.716243e+003,1.209271e+001
1.717207e+003,1.507263e+001
1.718171e+003,1.582782e+001
1.719135e+003,1.289178e+001
1.720100e+003,1.027838e+001
1.721064e+003,1.066943e+001
1.722028e+003,1.187164e+001
1.722992e+003,1.104315e+001
1.723957e+003,9.100769e+000
1.724921e+003,8.432983e+000
1.725885e+003,8.329651e+000
1.726849e+003,8.483032e+000
1.727814e+003,1.041382e+001
1.728778e+003,1.224829e+001
1.729742e+003,1.292145e+001
1.730706e+003,1.303088e+001
1.731671e+003,1.274567e+001
1.732635e+003,1.161523e+001
1.733599e+003,9.083435e+000
1.734563e+003,6.009155e+000
1.735528e+003,5.087463e+000
1.736492e+003,7.505432e+000
1.737456e+003,1.083038e+001
1.738420e+003,1.231506e+001
1.739385e+003,1.182971e+001
1.740349e+003,1.029474e+001
1.741313e+003,8.076111e+000
1.742277e+003,4.750488e+000
1.743241e+003,-2.908875e+000
1.744206e+003,-5.846252e+000
1.745170e+003,1.995239e-001
1.746134e+003,7.123840e+000
1.747098e+003,1.139319e+001
1.748063e+003,1.336975e+001
1.749027e+003,1.348291e+001
1.749991e+003,1.227338e+001
1.750955e+003,9.958923e+000
1.751919e+003,6.879211e+000
1.752884e+003,4.537842e+000
1.753848e+003,4.202087e+000
1.754812e+003,4.786743e+000
1.755776e+003,4.314453e+000
1.756741e+003,3.274475e+000
1.757705e+003,4.528625e+000
1.758669e+003,9.471863e+000
1.759633e+003,1.139594e+001
1.760598e+003,6.564697e+000
1.761562e+003,2.318115e+000
1.762526e+003,2.130066e+000
1.763490e+003,2.828186e+000
1.764455e+003,1.964661e+000
1.765419e+003,6.791992e-001
1.766383e+003,5.054321e-001
1.767347e+003,1.530579e+000
1.768312e+003,3.724792e+000
1.769276e+003,6.988708e+000
1.770240e+003,9.636414e+000
1.771204e+003,1.086902e+001
1.772168e+003,1.076257e+001
1.773133e+003,7.074097e+000
1.774097e+003,5.008545e-001
1.775061e+003,-7.464600e-001
1.776025e+003,4.576965e+000
1.776990e+003,8.103943e+000
1.777954e+003,7.242493e+000
1.778918e+003,5.163940e+000
1.779882e+003,2.546326e+000
1.780846e+003,3.902588e-001
1.781811e+003,1.060120e+000
1.782775e+003,3.798035e+000
1.783739e+003,5.781067e+000
1.784703e+003,6.764832e+000
1.785668e+003,7.221558e+000
1.786632e+003,7.160522e+000
1.787596e+003,5.710022e+000
1.788560e+003,1.106079e+000
1.789525e+003,-3.232666e+000
1.790489e+003,-1.857056e+000
1.791453e+003,3.101318e+000
1.792417e+003,4.408569e+000
1.793382e+003,9.945679e-001
1.794346e+003,-1.170715e+000
1.795310e+003,1.112244e+000
1.796274e+003,4.437744e+000
1.797239e+003,5.246765e+000
1.798203e+003,4.724548e+000
1.799167e+003,4.730286e+000
1.800131e+003,4.221863e+000
1.801095e+003,4.567200e+000
1.802060e+003,8.512207e+000
1.803024e+003,1.068604e+001
1.803988e+003,8.089966e+000
1.804952e+003,6.012329e+000
1.805917e+003,8.515625e+000
1.806881e+003,1.138416e+001
1.807845e+003,9.664978e+000
1.808809e+003,5.351563e+000
1.809773e+003,3.216248e+000
1.810738e+003,4.142761e+000
1.811702e+003,5.417236e+000
1.812666e+003,5.293945e+000
1.813630e+003,4.755127e+000
1.814595e+003,5.097839e+000
1.815559e+003,6.043396e+000
1.816523e+003,7.288879e+000
1.817487e+003,9.110840e+000
1.818452e+003,9.272888e+000
1.819416e+003,7.625366e+000
1.820380e+003,5.632690e+000
1.821344e+003,1.600586e+000
1.822309e+003,-6.495972e-001
1.823273e+003,3.170288e+000
1.824237e+003,8.831177e+000
1.825201e+003,1.197382e+001
1.826166e+003,1.292053e+001
1.827130e+003,1.363885e+001
1.828094e+003,1.427832e+001
1.829058e+003,1.306744e+001
1.830022e+003,8.483337e+000
1.830987e+003,4.101196e+000
1.831951e+003,3.091309e+000
1.832915e+003,3.940674e+000
1.833879e+003,4.783508e+000
1.834844e+003,5.445190e+000
1.835808e+003,5.719421e+000
1.836772e+003,5.692444e+000
1.837736e+003,5.726257e+000
1.838700e+003,5.735718e+000
1.839665e+003,6.205750e+000
1.840629e+003,7.936096e+000
1.841593e+003,1.032056e+001
1.842557e+003,1.185681e+001
1.843522e+003,1.251282e+001
1.844486e+003,1.172552e+001
1.845450e+003,7.969238e+000
1.846414e+003,6.961914e+000
1.847379e+003,1.069769e+001
1.848343e+003,1.286237e+001
1.849307e+003,1.128119e+001
1.850271e+003,8.407593e+000
1.851236e+003,4.397339e+000
1.852200e+003,1.723755e+000
1.853164e+003,4.094666e+000
1.854128e+003,9.820618e+000
1.855093e+003,1.402094e+001
1.856057e+003,1.513654e+001
1.857021e+003,1.427570e+001
1.857985e+003,1.179675e+001
1.858949e+003,9.060364e+000
1.859914e+003,9.100586e+000
1.860878e+003,1.135132e+001
1.861842e+003,1.155322e+001
1.862806e+003,9.460388e+000
1.863771e+003,8.201050e+000
1.864735e+003,8.071411e+000
1.865699e+003,8.956726e+000
1.866663e+003,1.187823e+001
1.867627e+003,1.455536e+001
1.868592e+003,1.369995e+001
1.869556e+003,1.120917e+001
1.870520e+003,1.209125e+001
1.871484e+003,1.558875e+001
1.872449e+003,1.682104e+001
1.873413e+003,1.603357e+001
1.874377e+003,1.559729e+001
1.875341e+003,1.406097e+001
1.876306e+003,1.344812e+001
1.877270e+003,1.649286e+001
1.878234e+003,1.918311e+001
1.879198e+003,1.636810e+001
1.880163e+003,1.103680e+001
1.881127e+003,9.311768e+000
1.882091e+003,1.142456e+001
1.883055e+003,1.332196e+001
1.884020e+003,1.326929e+001
1.884984e+003,1.309705e+001
1.885948e+003,1.453839e+001
1.886912e+003,1.643787e+001
1.887876e+003,1.625146e+001
1.888841e+003,1.435931e+001
1.889805e+003,1.510022e+001
1.890769e+003,1.909094e+001
1.891733e+003,2.256433e+001
1.892698e+003,2.547815e+001
1.893662e+003,2.611053e+001
1.894626e+003,2.236322e+001
1.895590e+003,1.847961e+001
1.896554e+003,1.793292e+001
1.897519e+003,1.893378e+001
1.898483e+003,1.843134e+001
1.899447e+003,1.689807e+001
1.900411e+003,1.835870e+001
1.901376e+003,2.393622e+001
1.902340e+003,2.686896e+001
1.903304e+003,2.236053e+001
1.904268e+003,1.799213e+001
1.905233e+003,1.958771e+001
1.906197e+003,2.275684e+001
1.907161e+003,2.298346e+001
1.908125e+003,2.162006e+001
1.909090e+003,2.086938e+001
1.910054e+003,2.087445e+001
1.911018e+003,2.148767e+001
1.911982e+003,2.277368e+001
1.912947e+003,2.445587e+001
1.913911e+003,2.620667e+001
1.914875e+003,2.736090e+001
1.915839e+003,2.652271e+001
1.916803e+003,2.402551e+001
1.917768e+003,2.376331e+001
1.918732e+003,2.673639e+001
1.919696e+003,2.724622e+001
1.920660e+003,2.408868e+001
1.921625e+003,2.251312e+001
1.922589e+003,2.386694e+001
1.923553e+003,2.595636e+001
1.924517e+003,2.781616e+001
1.925481e+003,2.989270e+001
1.926446e+003,3.342084e+001
1.927410e+003,3.718616e+001
1.928374e+003,3.874683e+001
1.929338e+003,3.769519e+001
1.930303e+003,3.476898e+001
1.931267e+003,2.952136e+001
1.932231e+003,2.673389e+001
1.933195e+003,2.964758e+001
1.934160e+003,3.342682e+001
1.935124e+003,3.498370e+001
1.936088e+003,3.480737e+001
1.937052e+003,3.396350e+001
1.938017e+003,3.264850e+001
1.938981e+003,2.982501e+001
1.939945e+003,2.596021e+001
1.940909e+003,2.399353e+001
1.941874e+003,2.494928e+001
1.942838e+003,2.575885e+001
1.943802e+003,2.380176e+001
1.944766e+003,2.185590e+001
1.945730e+003,2.512207e+001
1.946695e+003,3.244226e+001
1.947659e+003,3.690350e+001
1.948623e+003,3.827942e+001
1.949587e+003,3.787646e+001
1.950552e+003,3.555762e+001
1.951516e+003,3.364026e+001
1.952480e+003,3.306097e+001
1.953444e+003,3.259119e+001
1.954408e+003,3.089935e+001
1.955373e+003,2.875220e+001
1.956337e+003,2.771655e+001
1.957301e+003,2.804651e+001
1.958265e+003,2.915295e+001
1.959230e+003,3.123663e+001
1.960194e+003,3.280194e+001
1.961158e+003,3.218347e+001
1.962122e+003,3.171942e+001
1.963087e+003,3.214056e+001
1.964051e+003,3.294684e+001
1.965015e+003,3.469580e+001
1.965979e+003,3.680426e+001
1.966944e+003,3.858020e+001
1.967908e+003,3.945758e+001
1.968872e+003,3.828253e+001
1.969836e+003,3.589661e+001
1.970801e+003,3.561835e+001
1.971765e+003,3.876984e+001
1.972729e+003,4.266187e+001
1.973693e+003,4.540704e+001
1.974657e+003,4.637311e+001
1.975622e+003,4.279694e+001
1.976586e+003,3.701752e+001
1.977550e+003,3.684949e+001
1.978514e+003,4.135211e+001
1.979479e+003,4.286804e+001
1.980443e+003,4.040295e+001
1.981407e+003,3.968085e+001
1.982371e+003,4.311298e+001
1.983335e+003,4.674109e+001
1.984300e+003,4.733484e+001
1.985264e+003,4.613867e+001
1.986228e+003,4.534357e+001
1.987192e+003,4.475128e+001
1.988157e+003,4.341406e+001
1.989121e+003,4.152264e+001
1.990085e+003,3.876996e+001
1.991049e+003,3.413727e+001
1.992014e+003,3.122461e+001
1.992978e+003,2.945367e+001
1.993942e+003,3.037811e+001
1.994906e+003,3.791345e+001
1.995871e+003,4.487146e+001
1.996835e+003,4.453967e+001
1.997799e+003,4.143903e+001
1.998763e+003,4.208484e+001
1.999728e+003,4.603528e+001
