5.003444e+002,2.982707e+001
5.013087e+002,3.244974e+001
5.022729e+002,3.315024e+001
5.032371e+002,3.234531e+001
5.042014e+002,3.117683e+001
5.051656e+002,2.977303e+001
5.061298e+002,2.875999e+001
5.070941e+002,2.876706e+001
5.080583e+002,3.008887e+001
5.090225e+002,3.018613e+001
5.099868e+002,2.789693e+001
5.109510e+002,2.596767e+001
5.119152e+002,2.622900e+001
5.128795e+002,2.893506e+001
5.138437e+002,3.084152e+001
5.148079e+002,3.021275e+001
5.157722e+002,2.922569e+001
5.167364e+002,2.866045e+001
5.177006e+002,2.858954e+001
5.186649e+002,2.850177e+001
5.196291e+002,2.788562e+001
5.205933e+002,2.712788e+001
5.215576e+002,2.642445e+001
5.225218e+002,2.569511e+001
5.234860e+002,2.484299e+001
5.244503e+002,2.383646e+001
5.254145e+002,2.281909e+001
5.263787e+002,2.183470e+001
5.273430e+002,2.085220e+001
5.283072e+002,1.991982e+001
5.292714e+002,1.896941e+001
5.302357e+002,1.746089e+001
5.311999e+002,1.679251e+001
5.321641e+002,1.816721e+001
5.331284e+002,1.983734e+001
5.340926e+002,2.013696e+001
5.350568e+002,1.828185e+001
5.360211e+002,1.632738e+001
5.369853e+002,1.714217e+001
5.379495e+002,1.852412e+001
5.389138e+002,1.812918e+001
5.398780e+002,1.526859e+001
5.408422e+002,1.148718e+001
5.418065e+002,1.166977e+001
5.427707e+002,1.516571e+001
5.437349e+002,1.741985e+001
5.446992e+002,1.689258e+001
5.456634e+002,1.451425e+001
5.466276e+002,1.365561e+001
5.475919e+002,1.679468e+001
5.485561e+002,1.853293e+001
5.495203e+002,1.780054e+001
5.504846e+002,1.573817e+001
5.514488e+002,1.398985e+001
5.524130e+002,1.317163e+001
5.533773e+002,1.285086e+001
5.543415e+002,1.320969e+001
5.553057e+002,1.361026e+001
5.562700e+002,1.324916e+001
5.572342e+002,1.162447e+001
5.581984e+002,9.390274e+000
5.591627e+002,7.850677e+000
5.601269e+002,7.059525e+000
5.610911e+002,7.531128e+000
5.620554e+002,9.624176e+000
5.630196e+002,1.293170e+001
5.639838e+002,1.418401e+001
5.649481e+002,1.188292e+001
5.659123e+002,9.758301e+000
5.668765e+002,8.771698e+000
5.678408e+002,8.587967e+000
5.688050e+002,7.950729e+000
5.697692e+002,5.498123e+000
5.707335e+002,3.676743e+000
5.716977e+002,3.460648e+000
5.726619e+002,4.291306e+000
5.736262e+002,5.470169e+000
5.745904e+002,6.604309e+000
5.755546e+002,7.730164e+000
5.765189e+002,9.061295e+000
5.774831e+002,1.022847e+001
5.784473e+002,1.061214e+001
5.794116e+002,9.853043e+000
5.803758e+002,8.181686e+000
5.813400e+002,7.385559e+000
5.823043e+002,7.404907e+000
5.832685e+002,7.536682e+000
5.842327e+002,7.786774e+000
5.851970e+002,8.203796e+000
5.861612e+002,8.501007e+000
5.871254e+002,7.778107e+000
5.880897e+002,7.753662e+000
5.890539e+002,9.538208e+000
5.900181e+002,1.201373e+001
5.909824e+002,1.340959e+001
5.919466e+002,1.257397e+001
5.929108e+002,1.040677e+001
5.938751e+002,7.344376e+000
5.948393e+002,4.140793e+000
5.958035e+002,2.066986e+000
5.967678e+002,2.046417e+000
5.977320e+002,3.841492e+000
5.986962e+002,5.534592e+000
5.996605e+002,7.114502e+000
6.006247e+002,7.923264e+000
6.015889e+002,7.327698e+000
6.025532e+002,5.466034e+000
6.035174e+002,4.165695e+000
6.044816e+002,3.930176e+000
6.054459e+002,3.835312e+000
6.064101e+002,3.958847e+000
6.073743e+002,4.091888e+000
6.083386e+002,3.869446e+000
6.093028e+002,2.927750e+000
6.102670e+002,2.038834e+000
6.112313e+002,1.610886e+000
6.121955e+002,1.593979e+000
6.131597e+002,2.083893e+000
6.141240e+002,3.114990e+000
6.150882e+002,4.357681e+000
6.160524e+002,4.221603e+000
6.170167e+002,3.026077e+000
6.179809e+002,2.078903e+000
6.189451e+002,1.984818e+000
6.199094e+002,2.540359e+000
6.208736e+002,2.670883e+000
6.218378e+002,1.671555e+000
6.228021e+002,1.367401e+000
6.237663e+002,2.782654e+000
6.247305e+002,4.816116e+000
6.256948e+002,5.450684e+000
6.266590e+002,3.111694e+000
6.276232e+002,7.843781e-001
6.285875e+002,4.959717e-001
6.295517e+002,1.265564e+000
6.305159e+002,2.074951e+000
6.314802e+002,2.321716e+000
6.324444e+002,2.245682e+000
6.334086e+002,3.041382e+000
6.343729e+002,4.407898e+000
6.353371e+002,4.966629e+000
6.363013e+002,4.105103e+000
6.372656e+002,2.154953e+000
6.382298e+002,3.988342e-001
6.391940e+002,-1.290726e+000
6.401583e+002,-2.624115e+000
6.411225e+002,-3.375946e+000
6.420867e+002,-3.625259e+000
6.430510e+002,-3.594879e+000
6.440152e+002,-3.505951e+000
6.449794e+002,-2.981781e+000
6.459437e+002,-1.190216e+000
6.469079e+002,6.024323e-001
6.478721e+002,1.286682e+000
6.488364e+002,5.965881e-001
6.498006e+002,-5.963593e-001
6.507648e+002,-9.778137e-001
6.517291e+002,-7.017059e-001
6.526933e+002,2.548065e-001
6.536575e+002,1.955170e+000
6.546218e+002,3.695679e+000
6.555860e+002,4.072723e+000
6.565502e+002,1.963531e+000
6.575145e+002,8.274231e-001
6.584787e+002,1.925980e+000
6.594429e+002,2.899323e+000
6.604072e+002,1.125687e+000
6.613714e+002,-4.198685e+000
6.623356e+002,-7.571350e+000
6.632999e+002,-4.255615e+000
6.642641e+002,-3.523712e-001
6.652283e+002,8.052826e-001
6.661926e+002,-7.037659e-001
6.671568e+002,-2.233261e+000
6.681210e+002,-3.379059e-001
6.690853e+002,3.324738e+000
6.700495e+002,4.465851e+000
6.710137e+002,3.092758e+000
6.719780e+002,6.785583e-001
6.729422e+002,-1.325165e+000
6.739064e+002,-2.952103e+000
6.748707e+002,-4.071396e+000
6.758349e+002,-5.059036e+000
6.767991e+002,-5.370621e+000
6.777634e+002,-4.100906e+000
6.787276e+002,-1.485748e+000
6.796918e+002,2.665710e-001
6.806561e+002,-1.082779e+000
6.816203e+002,-2.120987e+000
6.825845e+002,-1.204086e+000
6.835488e+002,8.813324e-001
6.845130e+002,2.837860e+000
6.854772e+002,3.777176e+000
6.864415e+002,3.899017e+000
6.874057e+002,3.279358e+000
6.883699e+002,2.055420e+000
6.893342e+002,8.768463e-001
6.902984e+002,1.362762e-001
6.912626e+002,-1.598053e-001
6.922269e+002,-2.556000e-001
6.931911e+002,-2.451630e-001
6.941553e+002,5.250092e-001
6.951196e+002,3.162277e+000
6.960838e+002,6.024704e+000
6.970480e+002,6.272095e+000
6.980123e+002,2.158722e+000
6.989765e+002,-1.459351e+000
6.999407e+002,-3.139481e+000
7.009050e+002,-3.346008e+000
7.018692e+002,-1.746262e+000
7.028334e+002,1.395615e+000
7.037977e+002,4.521347e+000
7.047619e+002,4.890671e+000
7.057261e+002,3.615097e+000
7.066904e+002,2.587051e+000
7.076546e+002,2.096344e+000
7.086188e+002,2.139053e+000
7.095831e+002,2.830414e+000
7.105473e+002,4.765411e+000
7.115115e+002,5.007523e+000
7.124758e+002,2.217484e+000
7.134400e+002,-6.560974e-001
7.144042e+002,-1.513779e+000
7.153685e+002,-2.889404e-001
7.163327e+002,4.830627e-001
7.172969e+002,-9.654846e-001
7.182612e+002,-2.530655e+000
7.192254e+002,-3.919357e+000
7.201896e+002,-4.768021e+000
7.211539e+002,-4.384964e+000
7.221181e+002,-1.971542e+000
7.230823e+002,1.310638e+000
7.240466e+002,2.463165e+000
7.250108e+002,1.952698e+000
7.259750e+002,6.095734e-001
7.269393e+002,-1.435364e+000
7.279035e+002,-4.053482e+000
7.288677e+002,-5.069229e+000
7.298320e+002,-2.299438e+000
7.307962e+002,-3.495789e-002
7.317604e+002,1.141479e+000
7.327247e+002,1.828156e+000
7.336889e+002,2.920029e+000
7.346531e+002,4.759827e+000
7.356174e+002,5.657516e+000
7.365816e+002,3.974731e+000
7.375458e+002,2.108673e+000
7.385101e+002,2.559860e+000
7.394743e+002,5.482773e+000
7.404385e+002,8.219284e+000
7.414028e+002,6.037979e+000
7.423670e+002,-1.129150e-003
7.433312e+002,-3.173340e+000
7.442955e+002,-2.711090e+000
7.452597e+002,-5.411835e-001
7.462239e+002,1.257324e+000
7.471882e+002,2.674332e+000
7.481524e+002,3.345566e+000
7.491166e+002,2.875488e+000
7.500809e+002,1.900742e+000
7.510451e+002,1.372070e-001
7.520093e+002,-2.002472e+000
7.529736e+002,-3.215927e+000
7.539378e+002,-2.248337e+000
7.549020e+002,-7.910309e-001
7.558663e+002,2.959442e-001
7.568306e+002,9.897766e-001
7.577948e+002,1.040710e+000
7.587590e+002,3.286438e-001
7.597233e+002,-6.835022e-001
7.606875e+002,-1.676941e-002
7.616517e+002,2.180557e+000
7.626160e+002,3.946426e+000
7.635802e+002,4.773132e+000
7.645444e+002,4.980865e+000
7.655087e+002,5.250427e+000
7.664729e+002,5.963181e+000
7.674371e+002,5.677307e+000
7.684014e+002,3.367905e+000
7.693656e+002,1.055161e+000
7.703298e+002,3.005371e-001
7.712941e+002,1.162979e+000
7.722583e+002,1.865051e+000
7.732225e+002,3.563690e-001
7.741868e+002,-1.064636e+000
7.751510e+002,1.046143e-001
7.761152e+002,2.960587e+000
7.770795e+002,4.962524e+000
7.780437e+002,3.826218e+000
7.790079e+002,7.473755e-002
7.799722e+002,-1.186386e+000
7.809364e+002,1.843262e-001
7.819006e+002,1.290207e+000
7.828649e+002,6.575165e-001
7.838291e+002,-9.546204e-001
7.847933e+002,-1.036316e+000
7.857576e+002,1.933853e+000
7.867218e+002,3.519577e+000
7.876860e+002,2.561432e+000
7.886503e+002,6.715698e-001
7.896145e+002,-1.293747e+000
7.905787e+002,-2.939484e+000
7.915430e+002,-3.519745e+000
7.925072e+002,-1.217529e+000
7.934714e+002,1.796768e+000
7.944357e+002,3.322937e+000
7.953999e+002,3.325790e+000
7.963641e+002,2.649918e+000
7.973284e+002,2.152023e+000
7.982926e+002,1.823914e+000
7.992568e+002,2.091553e+000
8.002211e+002,3.446320e+000
8.011853e+002,3.891144e+000
8.021495e+002,2.162369e+000
8.031138e+002,-7.882233e-001
8.040780e+002,-2.025101e+000
8.050422e+002,-5.284119e-002
8.060065e+002,1.739670e+000
8.069707e+002,1.804291e+000
8.079349e+002,1.283203e+000
8.088992e+002,1.372162e+000
8.098634e+002,2.539993e+000
8.108276e+002,4.259995e+000
8.117919e+002,6.038055e+000
8.127561e+002,7.344193e+000
8.137203e+002,7.379288e+000
8.146846e+002,6.216736e+000
8.156488e+002,4.713242e+000
8.166130e+002,3.797775e+000
8.175773e+002,3.499283e+000
8.185415e+002,3.392822e+000
8.195057e+002,3.445862e+000
8.204700e+002,3.440796e+000
8.214342e+002,3.437378e+000
8.223984e+002,3.326828e+000
8.233627e+002,2.730515e+000
8.243269e+002,1.108612e+000
8.252911e+002,-3.831482e-002
8.262554e+002,3.218079e-001
8.272196e+002,1.324188e+000
8.281838e+002,1.970352e+000
8.291481e+002,1.955978e+000
8.301123e+002,1.947388e+000
8.310765e+002,3.289627e+000
8.320408e+002,5.765930e+000
8.330050e+002,7.138168e+000
8.339692e+002,7.179718e+000
8.349335e+002,6.558701e+000
8.358977e+002,5.794952e+000
8.368619e+002,4.868683e+000
8.378262e+002,4.519836e+000
8.387904e+002,5.068466e+000
8.397546e+002,5.631470e+000
8.407189e+002,6.290710e+000
8.416831e+002,6.773102e+000
8.426473e+002,6.528427e+000
8.436116e+002,5.153214e+000
8.445758e+002,3.782013e+000
8.455400e+002,3.857193e+000
8.465043e+002,4.233337e+000
8.474685e+002,3.442200e+000
8.484327e+002,1.377151e+000
8.493970e+002,-5.595856e-001
8.503612e+002,-1.276398e-001
8.513254e+002,3.125732e+000
8.522897e+002,5.408585e+000
8.532539e+002,6.349945e+000
8.542181e+002,6.786331e+000
8.551824e+002,6.968918e+000
8.561466e+002,7.149933e+000
8.571108e+002,8.483658e+000
8.580751e+002,1.260057e+001
8.590393e+002,1.529309e+001
8.600035e+002,1.470955e+001
8.609678e+002,1.259093e+001
8.619320e+002,1.064201e+001
8.628962e+002,9.617752e+000
8.638605e+002,9.319809e+000
8.648247e+002,9.707642e+000
8.657889e+002,1.057811e+001
8.667532e+002,1.171379e+001
8.677174e+002,1.307944e+001
8.686816e+002,1.427013e+001
8.696459e+002,1.483951e+001
8.706101e+002,1.478860e+001
8.715743e+002,1.459631e+001
8.725386e+002,1.410458e+001
8.735028e+002,1.371466e+001
8.744670e+002,1.326221e+001
8.754313e+002,1.284653e+001
8.763955e+002,1.273174e+001
8.773597e+002,1.304872e+001
8.783240e+002,1.382454e+001
8.792882e+002,1.560132e+001
8.802524e+002,1.733810e+001
8.812167e+002,1.791275e+001
8.821809e+002,1.728062e+001
8.831451e+002,1.639577e+001
8.841094e+002,1.653961e+001
8.850736e+002,1.775581e+001
8.860378e+002,1.845972e+001
8.870021e+002,1.849832e+001
8.879663e+002,1.838643e+001
8.889305e+002,1.825063e+001
8.898948e+002,1.808806e+001
8.908590e+002,1.813452e+001
8.918232e+002,1.878021e+001
8.927875e+002,1.923358e+001
8.937517e+002,1.846841e+001
8.947159e+002,1.807245e+001
8.956802e+002,2.010913e+001
8.966444e+002,2.443880e+001
8.976086e+002,2.778909e+001
8.985729e+002,2.617053e+001
8.995371e+002,2.237181e+001
9.005013e+002,2.119073e+001
9.014656e+002,2.241658e+001
9.024298e+002,2.403990e+001
9.033940e+002,2.449504e+001
9.043583e+002,2.382278e+001
9.053225e+002,2.320729e+001
9.062867e+002,2.164395e+001
9.072510e+002,2.141672e+001
9.082152e+002,2.444923e+001
9.091794e+002,2.789505e+001
9.101437e+002,2.831728e+001
9.111079e+002,2.511926e+001
9.120721e+002,2.272433e+001
9.130364e+002,2.514626e+001
9.140006e+002,2.768411e+001
9.149648e+002,2.753015e+001
9.159291e+002,2.546555e+001
9.168933e+002,2.328973e+001
9.178575e+002,2.222612e+001
9.188218e+002,2.211453e+001
9.197860e+002,2.301596e+001
9.207502e+002,2.494183e+001
9.217145e+002,2.570732e+001
9.226787e+002,2.456082e+001
9.236429e+002,2.271936e+001
9.246072e+002,2.157333e+001
9.255714e+002,2.103807e+001
9.265356e+002,2.111838e+001
9.274999e+002,2.245503e+001
9.284641e+002,2.358664e+001
9.294283e+002,2.423430e+001
9.303926e+002,2.436563e+001
9.313568e+002,2.396585e+001
9.323210e+002,2.299916e+001
9.332853e+002,2.166638e+001
9.342495e+002,1.993768e+001
9.352137e+002,1.810805e+001
9.361780e+002,1.687984e+001
9.371422e+002,1.648874e+001
9.381064e+002,1.655359e+001
9.390707e+002,1.638039e+001
9.400349e+002,1.565350e+001
9.409991e+002,1.594487e+001
9.419634e+002,1.857405e+001
9.429276e+002,2.033453e+001
9.438918e+002,1.982773e+001
9.448561e+002,1.816226e+001
9.458203e+002,1.734138e+001
9.467845e+002,1.812550e+001
9.477488e+002,1.889963e+001
9.487130e+002,1.839655e+001
9.496772e+002,1.736052e+001
9.506415e+002,1.616545e+001
9.516057e+002,1.495728e+001
9.525699e+002,1.366351e+001
9.535342e+002,1.214378e+001
9.544984e+002,1.061055e+001
9.554626e+002,1.196973e+001
9.564269e+002,1.729269e+001
9.573911e+002,2.093962e+001
9.583553e+002,2.032878e+001
9.593196e+002,1.756432e+001
9.602838e+002,1.611281e+001
9.612480e+002,1.641333e+001
9.622123e+002,1.653220e+001
9.631765e+002,1.591920e+001
9.641407e+002,1.509087e+001
9.651050e+002,1.368504e+001
9.660692e+002,1.224036e+001
9.670334e+002,1.203419e+001
9.679977e+002,1.397430e+001
9.689619e+002,1.679945e+001
9.699261e+002,1.717523e+001
9.708904e+002,1.584953e+001
9.718546e+002,1.519948e+001
9.728188e+002,1.575713e+001
9.737831e+002,1.680597e+001
9.747473e+002,1.735832e+001
9.757115e+002,1.723453e+001
9.766758e+002,1.786351e+001
9.776400e+002,1.991176e+001
9.786042e+002,2.211980e+001
9.795685e+002,2.528525e+001
9.805327e+002,2.778189e+001
9.814969e+002,2.698262e+001
9.824612e+002,2.206792e+001
9.834254e+002,1.697684e+001
9.843896e+002,1.591121e+001
9.853539e+002,1.634108e+001
9.863181e+002,1.558295e+001
9.872823e+002,1.355324e+001
9.882466e+002,1.142809e+001
9.892108e+002,1.030072e+001
9.901750e+002,1.033440e+001
9.911393e+002,1.151056e+001
9.921035e+002,1.497034e+001
9.930677e+002,1.694835e+001
9.940320e+002,1.630090e+001
9.949962e+002,1.514525e+001
9.959604e+002,1.569662e+001
9.969247e+002,1.804083e+001
9.978889e+002,1.967068e+001
9.988531e+002,1.842711e+001
9.998174e+002,1.699109e+001
1.000782e+003,1.705338e+001
1.001746e+003,1.820189e+001
1.002710e+003,2.018481e+001
1.003674e+003,2.259113e+001
1.004639e+003,2.408990e+001
1.005603e+003,2.197194e+001
1.006567e+003,1.576900e+001
1.007531e+003,1.377087e+001
1.008495e+003,1.766364e+001
1.009460e+003,2.214473e+001
1.010424e+003,2.455165e+001
1.011388e+003,2.510593e+001
1.012352e+003,2.430338e+001
1.013317e+003,2.110812e+001
1.014281e+003,1.860854e+001
1.015245e+003,1.804535e+001
1.016209e+003,1.798349e+001
1.017174e+003,1.763222e+001
1.018138e+003,1.679198e+001
1.019102e+003,1.547409e+001
1.020066e+003,1.362775e+001
1.021031e+003,1.170451e+001
1.021995e+003,1.094058e+001
1.022959e+003,1.097302e+001
1.023923e+003,1.085104e+001
1.024887e+003,1.034547e+001
1.025852e+003,9.351852e+000
1.026816e+003,7.610641e+000
1.027780e+003,4.980408e+000
1.028744e+003,2.762436e+000
1.029709e+003,5.927734e-001
1.030673e+003,-6.876831e-001
1.031637e+003,-2.674713e-001
1.032601e+003,9.012146e-001
1.033566e+003,1.535324e+000
1.034530e+003,1.230591e+000
1.035494e+003,7.680817e-001
1.036458e+003,8.586121e-001
1.037422e+003,1.360703e+000
1.038387e+003,2.351379e+000
1.039351e+003,3.657272e+000
1.040315e+003,4.246948e+000
1.041279e+003,3.215240e+000
1.042244e+003,1.162567e+000
1.043208e+003,9.255829e-001
1.044172e+003,4.302933e+000
1.045136e+003,6.154861e+000
1.046101e+003,5.447739e+000
1.047065e+003,4.340820e+000
1.048029e+003,4.058472e+000
1.048993e+003,4.549927e+000
1.049958e+003,5.363892e+000
1.050922e+003,6.689514e+000
1.051886e+003,7.450348e+000
1.052850e+003,6.008926e+000
1.053814e+003,3.629333e+000
1.054779e+003,1.811005e+000
1.055743e+003,9.047394e-001
1.056707e+003,5.052795e-001
1.057671e+003,1.199951e-001
1.058636e+003,-2.772522e-001
1.059600e+003,-7.278442e-003
1.060564e+003,2.018875e+000
1.061528e+003,3.420197e+000
1.062493e+003,3.466034e+000
1.063457e+003,2.770325e+000
1.064421e+003,1.878418e+000
1.065385e+003,9.340820e-001
1.066349e+003,4.287415e-001
1.067314e+003,8.559418e-001
1.068278e+003,1.554977e+000
1.069242e+003,2.304214e+000
1.070206e+003,2.964828e+000
1.071171e+003,3.214340e+000
1.072135e+003,2.911041e+000
1.073099e+003,2.316284e+000
1.074063e+003,1.963470e+000
1.075028e+003,1.921890e+000
1.075992e+003,1.936691e+000
1.076956e+003,1.617874e+000
1.077920e+003,1.748428e+000
1.078885e+003,3.443756e+000
1.079849e+003,5.660065e+000
1.080813e+003,6.171738e+000
1.081777e+003,4.378479e+000
1.082741e+003,2.713242e+000
1.083706e+003,2.331772e+000
1.084670e+003,2.228531e+000
1.085634e+003,1.757462e+000
1.086598e+003,1.174088e+000
1.087563e+003,1.251343e+000
1.088527e+003,2.408493e+000
1.089491e+003,4.049103e+000
1.090455e+003,4.842377e+000
1.091420e+003,4.574280e+000
1.092384e+003,3.901688e+000
1.093348e+003,2.374527e+000
1.094312e+003,1.068939e+000
1.095276e+003,1.078262e+000
1.096241e+003,1.923477e+000
1.097205e+003,1.648865e+000
1.098169e+003,-8.503571e-001
1.099133e+003,-2.162323e+000
1.100098e+003,4.760590e-001
1.101062e+003,3.347107e+000
1.102026e+003,3.768112e+000
1.102990e+003,2.479813e+000
1.103955e+003,1.930862e+000
1.104919e+003,3.565262e+000
1.105883e+003,5.982483e+000
1.106847e+003,6.051590e+000
1.107812e+003,3.717743e+000
1.108776e+003,2.775238e+000
1.109740e+003,4.087341e+000
1.110704e+003,5.332260e+000
1.111668e+003,4.394699e+000
1.112633e+003,2.055634e+000
1.113597e+003,1.624847e+000
1.114561e+003,4.328674e+000
1.115525e+003,6.534439e+000
1.116490e+003,7.508987e+000
1.117454e+003,7.343063e+000
1.118418e+003,5.275528e+000
1.119382e+003,2.305679e+000
1.120347e+003,4.598999e-001
1.121311e+003,8.752136e-001
1.122275e+003,2.403336e+000
1.123239e+003,3.124039e+000
1.124203e+003,3.232407e+000
1.125168e+003,3.374008e+000
1.126132e+003,3.488297e+000
1.127096e+003,4.013748e+000
1.128060e+003,5.526291e+000
1.129025e+003,7.699188e+000
1.129989e+003,9.091583e+000
1.130953e+003,9.168106e+000
1.131917e+003,9.330887e+000
1.132882e+003,1.041228e+001
1.133846e+003,1.136354e+001
1.134810e+003,1.126663e+001
1.135774e+003,1.054311e+001
1.136739e+003,1.027411e+001
1.137703e+003,1.105280e+001
1.138667e+003,1.233426e+001
1.139631e+003,1.314325e+001
1.140595e+003,1.357552e+001
1.141560e+003,1.452266e+001
1.142524e+003,1.597513e+001
1.143488e+003,1.847882e+001
1.144452e+003,2.292168e+001
1.145417e+003,2.868907e+001
1.146381e+003,3.356488e+001
1.147345e+003,3.735999e+001
1.148309e+003,4.040686e+001
1.149274e+003,4.129724e+001
1.150238e+003,4.315779e+001
1.151202e+003,4.828612e+001
1.152166e+003,5.556046e+001
1.153130e+003,6.291583e+001
1.154095e+003,6.918533e+001
1.155059e+003,7.420464e+001
1.156023e+003,7.803212e+001
1.156987e+003,8.048891e+001
1.157952e+003,8.092505e+001
1.158916e+003,7.940521e+001
1.159880e+003,7.698651e+001
1.160844e+003,7.342680e+001
1.161809e+003,6.915135e+001
1.162773e+003,6.588353e+001
1.163737e+003,6.428857e+001
1.164701e+003,6.077097e+001
1.165666e+003,5.208249e+001
1.166630e+003,4.389345e+001
1.167594e+003,3.787822e+001
1.168558e+003,3.379044e+001
1.169522e+003,3.133269e+001
1.170487e+003,3.021965e+001
1.171451e+003,3.004066e+001
1.172415e+003,3.049580e+001
1.173379e+003,3.121458e+001
1.174344e+003,3.003966e+001
1.175308e+003,2.682732e+001
1.176272e+003,2.485753e+001
1.177236e+003,2.621358e+001
1.178201e+003,2.861700e+001
1.179165e+003,2.903711e+001
1.180129e+003,2.736797e+001
1.181093e+003,2.546387e+001
1.182057e+003,2.369499e+001
1.183022e+003,2.183963e+001
1.183986e+003,1.961060e+001
1.184950e+003,1.742044e+001
1.185914e+003,1.530789e+001
1.186879e+003,1.362651e+001
1.187843e+003,1.329599e+001
1.188807e+003,1.505843e+001
1.189771e+003,1.819421e+001
1.190736e+003,2.086783e+001
1.191700e+003,2.308701e+001
1.192664e+003,2.432034e+001
1.193628e+003,2.436653e+001
1.194593e+003,2.377609e+001
1.195557e+003,2.277374e+001
1.196521e+003,2.139938e+001
1.197485e+003,1.980496e+001
1.198449e+003,1.793571e+001
1.199414e+003,1.617786e+001
1.200378e+003,1.483125e+001
1.201342e+003,1.356004e+001
1.202306e+003,1.203247e+001
1.203271e+003,1.036104e+001
1.204235e+003,8.843018e+000
1.205199e+003,7.656403e+000
1.206163e+003,6.767349e+000
1.207128e+003,6.115402e+000
1.208092e+003,5.731705e+000
1.209056e+003,5.149384e+000
1.210020e+003,4.345566e+000
1.210984e+003,3.456207e+000
1.211949e+003,2.189651e+000
1.212913e+003,1.009018e+000
1.213877e+003,9.199524e-001
1.214841e+003,1.940186e+000
1.215806e+003,1.977921e+000
1.216770e+003,-4.729767e-001
1.217734e+003,-3.066345e+000
1.218698e+003,-4.041229e+000
1.219663e+003,-4.375305e+000
1.220627e+003,-5.383087e+000
1.221591e+003,-7.163742e+000
1.222555e+003,-8.735138e+000
1.223520e+003,-9.157410e+000
1.224484e+003,-8.625946e+000
1.225448e+003,-8.311951e+000
1.226412e+003,-8.619431e+000
1.227376e+003,-8.235077e+000
1.228341e+003,-6.171295e+000
1.229305e+003,-4.622086e+000
1.230269e+003,-5.315399e+000
1.231233e+003,-7.235275e+000
1.232198e+003,-7.981949e+000
1.233162e+003,-6.806320e+000
1.234126e+003,-6.045334e+000
1.235090e+003,-8.261032e+000
1.236055e+003,-1.100726e+001
1.237019e+003,-1.143456e+001
1.237983e+003,-1.022095e+001
1.238947e+003,-9.139709e+000
1.239911e+003,-8.888092e+000
1.240876e+003,-9.195023e+000
1.241840e+003,-9.766785e+000
1.242804e+003,-1.061304e+001
1.243768e+003,-1.140483e+001
1.244733e+003,-1.294916e+001
1.245697e+003,-1.323770e+001
1.246661e+003,-1.149472e+001
1.247625e+003,-9.216309e+000
1.248590e+003,-6.637161e+000
1.249554e+003,-4.408905e+000
1.250518e+003,-4.499542e+000
1.251482e+003,-8.077667e+000
1.252447e+003,-1.194003e+001
1.253411e+003,-1.183743e+001
1.254375e+003,-9.251801e+000
1.255339e+003,-7.143448e+000
1.256303e+003,-5.660080e+000
1.257268e+003,-5.260193e+000
1.258232e+003,-6.803421e+000
1.259196e+003,-9.023636e+000
1.260160e+003,-8.985870e+000
1.261125e+003,-6.184525e+000
1.262089e+003,-3.633865e+000
1.263053e+003,-1.261902e+000
1.264017e+003,6.451416e-002
1.264982e+003,-8.069763e-001
1.265946e+003,-2.010452e+000
1.266910e+003,-1.457367e+000
1.267874e+003,5.738068e-001
1.268839e+003,2.060837e+000
1.269803e+003,1.664124e+000
1.270767e+003,2.319641e-001
1.271731e+003,-6.660767e-001
1.272695e+003,-9.786530e-001
1.273660e+003,-1.299026e+000
1.274624e+003,-1.844223e+000
1.275588e+003,-2.328445e+000
1.276552e+003,-2.014008e+000
1.277517e+003,-1.588791e+000
1.278481e+003,-2.823746e+000
1.279445e+003,-6.013367e+000
1.280409e+003,-8.482941e+000
1.281374e+003,-9.235382e+000
1.282338e+003,-9.150070e+000
1.283302e+003,-8.001816e+000
1.284266e+003,-6.797729e+000
1.285230e+003,-7.128693e+000
1.286195e+003,-8.789368e+000
1.287159e+003,-9.621582e+000
1.288123e+003,-7.793579e+000
1.289087e+003,-4.528595e+000
1.290052e+003,-3.850174e+000
1.291016e+003,-6.882370e+000
1.291980e+003,-8.879471e+000
1.292944e+003,-9.620422e+000
1.293909e+003,-9.922409e+000
1.294873e+003,-9.641907e+000
1.295837e+003,-9.184357e+000
1.296801e+003,-9.281006e+000
1.297766e+003,-9.959198e+000
1.298730e+003,-1.028767e+001
1.299694e+003,-9.665665e+000
1.300658e+003,-8.887589e+000
1.301622e+003,-8.816605e+000
1.302587e+003,-9.096527e+000
1.303551e+003,-9.270172e+000
1.304515e+003,-9.206833e+000
1.305479e+003,-8.905487e+000
1.306444e+003,-8.357712e+000
1.307408e+003,-7.747955e+000
1.308372e+003,-7.658859e+000
1.309336e+003,-8.497421e+000
1.310301e+003,-8.609039e+000
1.311265e+003,-7.055054e+000
1.312229e+003,-5.722717e+000
1.313193e+003,-4.839127e+000
1.314157e+003,-4.713165e+000
1.315122e+003,-6.115921e+000
1.316086e+003,-8.703476e+000
1.317050e+003,-1.097032e+001
1.318014e+003,-1.189912e+001
1.318979e+003,-1.179990e+001
1.319943e+003,-1.125804e+001
1.320907e+003,-1.017073e+001
1.321871e+003,-8.057648e+000
1.322836e+003,-4.386688e+000
1.323800e+003,-2.015503e+000
1.324764e+003,-3.512924e+000
1.325728e+003,-6.668350e+000
1.326693e+003,-7.493240e+000
1.327657e+003,-5.889450e+000
1.328621e+003,-5.125839e+000
1.329585e+003,-6.460968e+000
1.330549e+003,-7.459473e+000
1.331514e+003,-6.702362e+000
1.332478e+003,-5.636734e+000
1.333442e+003,-5.578094e+000
1.334406e+003,-6.438324e+000
1.335371e+003,-7.615753e+000
1.336335e+003,-8.689178e+000
1.337299e+003,-9.021683e+000
1.338263e+003,-7.251404e+000
1.339228e+003,-2.911392e+000
1.340192e+003,-8.507996e-001
1.341156e+003,-2.330750e+000
1.342120e+003,-4.051422e+000
1.343084e+003,-6.051651e+000
1.344049e+003,-7.878448e+000
1.345013e+003,-9.110748e+000
1.345977e+003,-9.697006e+000
1.346941e+003,-9.711807e+000
1.347906e+003,-9.176834e+000
1.348870e+003,-8.312393e+000
1.349834e+003,-7.050217e+000
1.350798e+003,-5.901413e+000
1.351763e+003,-6.006042e+000
1.352727e+003,-7.037308e+000
1.353691e+003,-6.973679e+000
1.354655e+003,-4.652176e+000
1.355620e+003,-2.470200e+000
1.356584e+003,-4.125549e+000
1.357548e+003,-8.909409e+000
1.358512e+003,-1.025760e+001
1.359476e+003,-6.155777e+000
1.360441e+003,-3.721848e+000
1.361405e+003,-6.340515e+000
1.362369e+003,-9.163116e+000
1.363333e+003,-9.678879e+000
1.364298e+003,-8.967377e+000
1.365262e+003,-8.844345e+000
1.366226e+003,-9.695328e+000
1.367190e+003,-1.054742e+001
1.368155e+003,-1.053876e+001
1.369119e+003,-9.817963e+000
1.370083e+003,-8.765778e+000
1.371047e+003,-7.075150e+000
1.372011e+003,-6.235489e+000
1.372976e+003,-7.478348e+000
1.373940e+003,-8.142380e+000
1.374904e+003,-6.318954e+000
1.375868e+003,-3.894196e+000
1.376833e+003,-3.631729e+000
1.377797e+003,-5.467209e+000
1.378761e+003,-6.753586e+000
1.379725e+003,-6.198669e+000
1.380690e+003,-5.263992e+000
1.381654e+003,-5.529633e+000
1.382618e+003,-6.269974e+000
1.383582e+003,-6.649628e+000
1.384547e+003,-6.580322e+000
1.385511e+003,-5.871933e+000
1.386475e+003,-4.229584e+000
1.387439e+003,-2.767471e+000
1.388403e+003,-3.604523e+000
1.389368e+003,-6.740204e+000
1.390332e+003,-8.443024e+000
1.391296e+003,-8.163391e+000
1.392260e+003,-7.149017e+000
1.393225e+003,-4.937744e+000
1.394189e+003,-3.008118e+000
1.395153e+003,-2.044159e+000
1.396117e+003,-1.986115e+000
1.397082e+003,-2.987137e+000
1.398046e+003,-4.747116e+000
1.399010e+003,-6.033905e+000
1.399974e+003,-5.737991e+000
1.400938e+003,-4.695236e+000
1.401903e+003,-5.360260e+000
1.402867e+003,-8.367172e+000
1.403831e+003,-8.701431e+000
1.404795e+003,-4.152893e+000
1.405760e+003,-3.018036e-001
1.406724e+003,6.693420e-001
1.407688e+003,-2.201843e-001
1.408652e+003,-2.220245e+000
1.409617e+003,-4.698410e+000
1.410581e+003,-5.955887e+000
1.411545e+003,-5.204666e+000
1.412509e+003,-3.746368e+000
1.413474e+003,-2.630875e+000
1.414438e+003,-1.916306e+000
1.415402e+003,-1.369308e+000
1.416366e+003,-9.625397e-001
1.417330e+003,-1.211456e+000
1.418295e+003,-2.492340e+000
1.419259e+003,-3.817017e+000
1.420223e+003,-4.012939e+000
1.421187e+003,-3.313660e+000
1.422152e+003,-2.654663e+000
1.423116e+003,-1.722122e+000
1.424080e+003,-1.547653e+000
1.425044e+003,-4.074753e+000
1.426009e+003,-5.816071e+000
1.426973e+003,-4.517181e+000
1.427937e+003,-2.115036e+000
1.428901e+003,-6.835480e-001
1.429865e+003,-5.710297e-001
1.430830e+003,-1.369370e+000
1.431794e+003,-2.815857e+000
1.432758e+003,-4.372406e+000
1.433722e+003,-4.831116e+000
1.434687e+003,-3.988800e+000
1.435651e+003,-2.662949e+000
1.436615e+003,-1.265259e-001
1.437579e+003,1.072159e+000
1.438544e+003,-5.566254e-001
1.439508e+003,-2.203186e+000
1.440472e+003,-1.597839e+000
1.441436e+003,3.643951e-001
1.442401e+003,1.700851e+000
1.443365e+003,1.892975e+000
1.444329e+003,1.696030e+000
1.445293e+003,1.649551e+000
1.446257e+003,1.716751e+000
1.447222e+003,1.890167e+000
1.448186e+003,2.068054e+000
1.449150e+003,1.567459e+000
1.450114e+003,-3.207397e-002
1.451079e+003,-9.934082e-001
1.452043e+003,5.498047e-001
1.453007e+003,2.686157e+000
1.453971e+003,2.262772e+000
1.454936e+003,-3.700256e-001
1.455900e+003,-1.912781e+000
1.456864e+003,-1.466400e+000
1.457828e+003,-4.231110e-001
1.458792e+003,1.386414e+000
1.459757e+003,2.419540e+000
1.460721e+003,3.079071e-001
1.461685e+003,-3.250992e+000
1.462649e+003,-4.474564e+000
1.463614e+003,-2.505753e+000
1.464578e+003,-1.540070e-001
1.465542e+003,-2.198792e-002
1.466506e+003,-1.227783e+000
1.467471e+003,-9.486542e-001
1.468435e+003,1.308868e+000
1.469399e+003,3.211884e+000
1.470363e+003,4.464081e+000
1.471328e+003,5.302292e+000
1.472292e+003,5.778900e+000
1.473256e+003,5.664886e+000
1.474220e+003,4.681473e+000
1.475184e+003,3.272949e+000
1.476149e+003,1.862885e+000
1.477113e+003,6.876526e-001
1.478077e+003,3.404694e-001
1.479041e+003,1.558609e+000
1.480006e+003,3.594849e+000
1.480970e+003,3.620331e+000
1.481934e+003,6.958771e-001
1.482898e+003,-7.295380e-001
1.483863e+003,5.430145e-001
1.484827e+003,1.409668e+000
1.485791e+003,4.972534e-001
1.486755e+003,-4.877472e-001
1.487719e+003,1.849976e-001
1.488684e+003,1.999649e+000
1.489648e+003,3.310684e+000
1.490612e+003,3.656082e+000
1.491576e+003,3.982529e+000
1.492541e+003,4.999603e+000
1.493505e+003,6.473236e+000
1.494469e+003,8.237411e+000
1.495433e+003,1.003438e+001
1.496398e+003,1.061005e+001
1.497362e+003,9.428741e+000
1.498326e+003,8.860550e+000
1.499290e+003,1.060722e+001
1.500255e+003,1.328018e+001
1.501219e+003,1.467853e+001
1.502183e+003,1.510861e+001
1.503147e+003,1.703424e+001
1.504111e+003,2.132336e+001
1.505076e+003,2.537862e+001
1.506040e+003,2.733031e+001
1.507004e+003,2.881383e+001
1.507968e+003,3.119733e+001
1.508933e+003,3.444176e+001
1.509897e+003,3.844746e+001
1.510861e+003,4.334775e+001
1.511825e+003,4.937892e+001
1.512790e+003,5.680153e+001
1.513754e+003,6.491568e+001
1.514718e+003,7.258331e+001
1.515682e+003,7.970139e+001
1.516646e+003,8.677965e+001
1.517611e+003,9.420589e+001
1.518575e+003,1.010590e+002
1.519539e+003,1.067303e+002
1.520503e+003,1.123127e+002
1.521468e+003,1.198238e+002
1.522432e+003,1.267478e+002
1.523396e+003,1.291774e+002
1.524360e+003,1.271103e+002
1.525325e+003,1.240054e+002
1.526289e+003,1.221893e+002
1.527253e+003,1.205139e+002
1.528217e+003,1.167647e+002
1.529182e+003,1.110034e+002
1.530146e+003,1.056224e+002
1.531110e+003,1.018051e+002
1.532074e+003,9.586832e+001
1.533039e+003,8.604155e+001
1.534003e+003,7.557051e+001
1.534967e+003,6.571159e+001
1.535931e+003,5.654520e+001
1.536896e+003,4.791254e+001
1.537860e+003,3.986674e+001
1.538824e+003,3.241801e+001
1.539788e+003,2.555412e+001
1.540752e+003,1.958308e+001
1.541717e+003,1.489839e+001
1.542681e+003,1.167462e+001
1.543645e+003,1.060472e+001
1.544609e+003,1.338454e+001
1.545573e+003,1.424298e+001
1.546538e+003,1.136925e+001
1.547502e+003,8.698074e+000
1.548466e+003,7.942123e+000
1.549430e+003,8.105499e+000
1.550395e+003,7.814560e+000
1.551359e+003,7.347290e+000
1.552323e+003,8.459579e+000
1.553287e+003,1.160220e+001
1.554252e+003,1.410046e+001
1.555216e+003,1.351979e+001
1.556180e+003,1.089183e+001
1.557144e+003,8.356796e+000
1.558109e+003,5.978165e+000
1.559073e+003,4.362686e+000
1.560037e+003,3.627747e+000
1.561001e+003,3.082855e+000
1.561966e+003,2.798599e+000
1.562930e+003,2.629395e+000
1.563894e+003,2.170212e+000
1.564858e+003,1.639053e+000
1.565823e+003,1.712875e+000
1.566787e+003,2.481720e+000
1.567751e+003,3.433960e+000
1.568715e+003,4.441864e+000
1.569679e+003,5.184769e+000
1.570644e+003,5.101257e+000
1.571608e+003,4.331848e+000
1.572572e+003,3.284821e+000
1.573536e+003,2.016251e+000
1.574500e+003,1.831558e+000
1.575465e+003,3.688980e+000
1.576429e+003,5.824570e+000
1.577393e+003,7.031723e+000
1.578357e+003,7.351913e+000
1.579322e+003,6.405930e+000
1.580286e+003,4.427032e+000
1.581250e+003,4.139740e+000
1.582214e+003,6.930557e+000
1.583179e+003,9.415955e+000
1.584143e+003,8.670944e+000
1.585107e+003,6.525497e+000
1.586071e+003,5.558502e+000
1.587036e+003,5.566727e+000
1.588000e+003,5.412598e+000
1.588964e+003,4.724716e+000
1.589928e+003,4.570221e+000
1.590893e+003,5.915817e+000
1.591857e+003,7.975235e+000
1.592821e+003,1.010944e+001
1.593785e+003,1.204744e+001
1.594750e+003,1.155525e+001
1.595714e+003,7.718048e+000
1.596678e+003,5.387268e+000
1.597642e+003,7.421478e+000
1.598606e+003,1.022760e+001
1.599571e+003,1.125665e+001
1.600535e+003,1.118753e+001
1.601499e+003,1.028548e+001
1.602463e+003,8.941513e+000
1.603427e+003,8.870773e+000
1.604392e+003,1.095406e+001
1.605356e+003,1.303456e+001
1.606320e+003,1.252368e+001
1.607284e+003,1.046614e+001
1.608249e+003,1.013979e+001
1.609213e+003,1.163843e+001
1.610177e+003,1.180811e+001
1.611141e+003,9.496750e+000
1.612106e+003,7.423279e+000
1.613070e+003,6.731827e+000
1.614034e+003,6.927704e+000
1.614998e+003,8.468338e+000
1.615963e+003,1.034769e+001
1.616927e+003,1.044646e+001
1.617891e+003,8.760315e+000
1.618855e+003,8.003876e+000
1.619820e+003,9.975693e+000
1.620784e+003,1.229144e+001
1.621748e+003,1.126874e+001
1.622712e+003,7.733643e+000
1.623677e+003,6.022125e+000
1.624641e+003,6.456894e+000
1.625605e+003,7.059113e+000
1.626569e+003,7.029846e+000
1.627533e+003,7.229492e+000
1.628498e+003,9.012955e+000
1.629462e+003,1.062935e+001
1.630426e+003,1.007320e+001
1.631390e+003,8.229172e+000
1.632354e+003,7.109390e+000
1.633319e+003,7.235855e+000
1.634283e+003,8.135696e+000
1.635247e+003,9.608368e+000
1.636211e+003,1.111995e+001
1.637176e+003,1.191096e+001
1.638140e+003,1.201389e+001
1.639104e+003,1.076251e+001
1.640068e+003,7.171234e+000
1.641033e+003,5.883621e+000
1.641997e+003,1.061075e+001
1.642961e+003,1.430151e+001
1.643925e+003,1.237161e+001
1.644890e+003,8.706528e+000
1.645854e+003,6.451828e+000
1.646818e+003,5.890747e+000
1.647782e+003,7.159363e+000
1.648747e+003,1.006702e+001
1.649711e+003,1.232233e+001
1.650675e+003,1.194316e+001
1.651639e+003,1.015884e+001
1.652604e+003,9.095810e+000
1.653568e+003,8.703293e+000
1.654532e+003,9.652283e+000
1.655496e+003,1.268756e+001
1.656460e+003,1.452235e+001
1.657425e+003,1.387225e+001
1.658389e+003,1.233290e+001
1.659353e+003,9.957993e+000
1.660317e+003,7.798706e+000
1.661281e+003,7.286636e+000
1.662246e+003,7.932404e+000
1.663210e+003,8.049911e+000
1.664174e+003,7.145020e+000
1.665138e+003,6.390549e+000
1.666103e+003,6.919632e+000
1.667067e+003,7.861176e+000
1.668031e+003,7.273102e+000
1.668995e+003,5.332458e+000
1.669960e+003,4.324905e+000
1.670924e+003,4.651367e+000
1.671888e+003,5.028824e+000
1.672852e+003,5.029022e+000
1.673817e+003,4.925034e+000
1.674781e+003,4.853165e+000
1.675745e+003,4.785767e+000
1.676709e+003,4.490448e+000
1.677674e+003,4.173401e+000
1.678638e+003,4.669357e+000
1.679602e+003,6.220474e+000
1.680566e+003,7.378494e+000
1.681531e+003,6.863785e+000
1.682495e+003,5.649765e+000
1.683459e+003,5.450516e+000
1.684423e+003,5.964935e+000
1.685387e+003,5.421509e+000
1.686352e+003,3.485855e+000
1.687316e+003,2.370453e+000
1.688280e+003,3.297867e+000
1.689244e+003,4.207352e+000
1.690208e+003,2.713196e+000
1.691173e+003,9.445496e-001
1.692137e+003,2.134888e+000
1.693101e+003,5.198227e+000
1.694065e+003,5.726547e+000
1.695030e+003,2.451736e+000
1.695994e+003,-3.278198e-001
1.696958e+003,5.380859e-001
1.697922e+003,2.746826e+000
1.698887e+003,3.753479e+000
1.699851e+003,3.721603e+000
1.700815e+003,2.719208e+000
1.701779e+003,7.587128e-001
1.702744e+003,-4.363403e-001
1.703708e+003,-2.442932e-002
1.704672e+003,4.761353e-001
1.705636e+003,-4.913330e-001
1.706601e+003,-1.779282e+000
1.707565e+003,-9.949188e-001
1.708529e+003,1.092667e+000
1.709493e+003,1.601318e+000
1.710458e+003,1.968384e-003
1.711422e+003,-1.406189e+000
1.712386e+003,-1.581024e+000
1.713350e+003,-1.202240e+000
1.714314e+003,-7.562866e-001
1.715279e+003,-3.293152e-001
1.716243e+003,-8.078003e-002
1.717207e+003,9.806824e-002
1.718171e+003,7.223053e-001
1.719135e+003,1.951645e+000
1.720100e+003,3.488693e+000
1.721064e+003,5.339523e+000
1.722028e+003,6.595627e+000
1.722992e+003,5.698578e+000
1.723957e+003,3.236465e+000
1.724921e+003,2.138748e+000
1.725885e+003,2.510727e+000
1.726849e+003,2.303650e+000
1.727814e+003,8.822021e-001
1.728778e+003,-3.584442e-001
1.729742e+003,-1.275208e+000
1.730706e+003,-1.413605e+000
1.731671e+003,4.055328e-001
1.732635e+003,2.885010e+000
1.733599e+003,3.357666e+000
1.734563e+003,1.743683e+000
1.735528e+003,2.519684e-001
1.736492e+003,2.960205e-003
1.737456e+003,2.970276e-001
1.738420e+003,2.862091e-001
1.739385e+003,1.605530e-001
1.740349e+003,1.025360e+000
1.741313e+003,3.422089e+000
1.742277e+003,4.416962e+000
1.743241e+003,3.260468e+000
1.744206e+003,2.158310e+000
1.745170e+003,1.421631e+000
1.746134e+003,6.427460e-001
1.747098e+003,-4.819489e-001
1.748063e+003,-1.731445e+000
1.749027e+003,-3.016815e+000
1.749991e+003,-4.111969e+000
1.750955e+003,-4.738281e+000
1.751919e+003,-4.766617e+000
1.752884e+003,-3.870483e+000
1.753848e+003,-1.742905e+000
1.754812e+003,4.908752e-001
1.755776e+003,4.402313e-001
1.756741e+003,-1.703720e+000
1.757705e+003,-2.463455e+000
1.758669e+003,-1.481110e+000
1.759633e+003,-3.729553e-001
1.760598e+003,1.411118e+000
1.761562e+003,2.093887e+000
1.762526e+003,3.341370e-001
1.763490e+003,-1.644196e+000
1.764455e+003,-2.333710e+000
1.765419e+003,-2.137924e+000
1.766383e+003,-1.847610e+000
1.767347e+003,-1.651550e+000
1.768312e+003,-1.315353e+000
1.769276e+003,-7.472687e-001
1.770240e+003,-3.923187e-001
1.771204e+003,-6.860199e-001
1.772168e+003,-1.245193e+000
1.773133e+003,-1.222900e+000
1.774097e+003,-7.475433e-001
1.775061e+003,-1.320969e+000
1.776025e+003,-3.428680e+000
1.776990e+003,-4.801163e+000
1.777954e+003,-4.524567e+000
1.778918e+003,-3.350754e+000
1.779882e+003,-1.118378e+000
1.780846e+003,9.634552e-001
1.781811e+003,1.367981e+000
1.782775e+003,4.075928e-001
1.783739e+003,-1.414139e+000
1.784703e+003,-4.219391e+000
1.785668e+003,-5.222260e+000
1.786632e+003,-2.009048e+000
1.787596e+003,1.408463e+000
1.788560e+003,2.272614e+000
1.789525e+003,1.715622e+000
1.790489e+003,9.207764e-001
1.791453e+003,-1.658630e-002
1.792417e+003,-1.383636e+000
1.793382e+003,-3.062637e+000
1.794346e+003,-3.496872e+000
1.795310e+003,-1.781143e+000
1.796274e+003,3.352356e-001
1.797239e+003,9.978333e-001
1.798203e+003,5.130920e-001
1.799167e+003,-6.787415e-001
1.800131e+003,-3.051086e+000
1.801095e+003,-4.373062e+000
1.802060e+003,-3.451675e+000
1.803024e+003,-3.100525e+000
1.803988e+003,-4.481155e+000
1.804952e+003,-5.523239e+000
1.805917e+003,-5.130844e+000
1.806881e+003,-4.036484e+000
1.807845e+003,-2.645935e+000
1.808809e+003,-1.274445e+000
1.809773e+003,-1.930084e-001
1.810738e+003,4.397430e-001
1.811702e+003,2.510071e-001
1.812666e+003,-9.678650e-001
1.813630e+003,-2.279633e+000
1.814595e+003,-2.375778e+000
1.815559e+003,-1.597412e+000
1.816523e+003,-1.203278e+000
1.817487e+003,-1.200272e+000
1.818452e+003,-1.212463e+000
1.819416e+003,-1.007477e+000
1.820380e+003,-1.206665e+000
1.821344e+003,-2.645340e+000
1.822309e+003,-3.775070e+000
1.823273e+003,-3.265366e+000
1.824237e+003,-2.214584e+000
1.825201e+003,-1.907959e+000
1.826166e+003,-2.055756e+000
1.827130e+003,-1.543365e+000
1.828094e+003,-2.415619e-001
1.829058e+003,6.260223e-001
1.830022e+003,3.087769e-001
1.830987e+003,-7.913208e-002
1.831951e+003,6.480408e-001
1.832915e+003,1.675781e+000
1.833879e+003,1.680328e+000
1.834844e+003,9.556885e-001
1.835808e+003,5.331573e-001
1.836772e+003,5.855865e-001
1.837736e+003,8.963470e-001
1.838700e+003,1.356003e+000
1.839665e+003,1.117859e+000
1.840629e+003,-8.508301e-001
1.841593e+003,-3.062881e+000
1.842557e+003,-2.110443e+000
1.843522e+003,1.930313e+000
1.844486e+003,3.533081e+000
1.845450e+003,1.243423e+000
1.846414e+003,-4.953308e-001
1.847379e+003,-2.027634e+000
1.848343e+003,-2.850754e+000
1.849307e+003,-2.450790e+000
1.850271e+003,-1.565704e+000
1.851236e+003,4.074097e-003
1.852200e+003,1.356506e+000
1.853164e+003,7.193146e-001
1.854128e+003,-1.385056e+000
1.855093e+003,-2.622009e+000
1.856057e+003,-2.022400e+000
1.857021e+003,-3.257751e-001
1.857985e+003,2.004669e+000
1.858949e+003,4.010880e+000
1.859914e+003,3.539658e+000
1.860878e+003,1.242645e+000
1.861842e+003,1.005341e+000
1.862806e+003,2.882401e+000
1.863771e+003,3.457123e+000
1.864735e+003,1.787521e+000
1.865699e+003,4.348145e-001
1.866663e+003,9.764709e-001
1.867627e+003,1.416382e+000
1.868592e+003,-7.901001e-001
1.869556e+003,-3.954529e+000
1.870520e+003,-4.620972e+000
1.871484e+003,-3.120483e+000
1.872449e+003,-1.371613e+000
1.873413e+003,1.074646e+000
1.874377e+003,2.479706e+000
1.875341e+003,1.155167e+000
1.876306e+003,-2.733307e-001
1.877270e+003,-2.922974e-001
1.878234e+003,7.920837e-002
1.879198e+003,-9.109497e-002
1.880163e+003,-6.431580e-001
1.881127e+003,-1.435852e+000
1.882091e+003,-2.118408e+000
1.883055e+003,-1.561401e+000
1.884020e+003,5.129395e-001
1.884984e+003,2.398056e+000
1.885948e+003,2.557404e+000
1.886912e+003,1.419342e+000
1.887876e+003,-4.481812e-001
1.888841e+003,-2.831482e+000
1.889805e+003,-2.800812e+000
1.890769e+003,3.189240e-001
1.891733e+003,2.116119e+000
1.892698e+003,1.486252e+000
1.893662e+003,1.040939e+000
1.894626e+003,2.005646e+000
1.895590e+003,3.012787e+000
1.896554e+003,3.247513e+000
1.897519e+003,3.024506e+000
1.898483e+003,2.063354e+000
1.899447e+003,8.249359e-001
1.900411e+003,1.441788e+000
1.901376e+003,4.455765e+000
1.902340e+003,6.379318e+000
1.903304e+003,5.481369e+000
1.904268e+003,3.816620e+000
1.905233e+003,1.873337e+000
1.906197e+003,5.579376e-001
1.907161e+003,1.519272e+000
1.908125e+003,3.472198e+000
1.909090e+003,3.826828e+000
1.910054e+003,2.637848e+000
1.911018e+003,1.688507e+000
1.911982e+003,1.658936e+000
1.912947e+003,2.137146e+000
1.913911e+003,2.793549e+000
1.914875e+003,3.274094e+000
1.915839e+003,2.903564e+000
1.916803e+003,1.914444e+000
1.917768e+003,1.961548e+000
1.918732e+003,3.309280e+000
1.919696e+003,4.490616e+000
1.920660e+003,5.792511e+000
1.921625e+003,6.160095e+000
1.922589e+003,4.714493e+000
1.923553e+003,3.216003e+000
1.924517e+003,2.292786e+000
1.925481e+003,2.019150e+000
1.926446e+003,3.145996e+000
1.927410e+003,4.719818e+000
1.928374e+003,4.498672e+000
1.929338e+003,2.480560e+000
1.930303e+003,1.430603e+000
1.931267e+003,2.464355e+000
1.932231e+003,3.596939e+000
1.933195e+003,3.947586e+000
1.934160e+003,3.874878e+000
1.935124e+003,3.381348e+000
1.936088e+003,2.765182e+000
1.937052e+003,2.379196e+000
1.938017e+003,2.320419e+000
1.938981e+003,2.708481e+000
1.939945e+003,3.423401e+000
1.940909e+003,4.071594e+000
1.941874e+003,4.432220e+000
1.942838e+003,4.448212e+000
1.943802e+003,4.122940e+000
1.944766e+003,3.819305e+000
1.945730e+003,4.193039e+000
1.946695e+003,5.021820e+000
1.947659e+003,4.826721e+000
1.948623e+003,3.423828e+000
1.949587e+003,2.910538e+000
1.950552e+003,3.820953e+000
1.951516e+003,4.519196e+000
1.952480e+003,4.300644e+000
1.953444e+003,4.098572e+000
1.954408e+003,4.655716e+000
1.955373e+003,5.373276e+000
1.956337e+003,5.562851e+000
1.957301e+003,5.399231e+000
1.958265e+003,5.005203e+000
1.959230e+003,4.299393e+000
1.960194e+003,4.231476e+000
1.961158e+003,5.560074e+000
1.962122e+003,6.244949e+000
1.963087e+003,5.179932e+000
1.964051e+003,4.101776e+000
1.965015e+003,4.292038e+000
1.965979e+003,4.878403e+000
1.966944e+003,4.686996e+000
1.967908e+003,4.099152e+000
1.968872e+003,4.293076e+000
1.969836e+003,5.184845e+000
1.970801e+003,5.381378e+000
1.971765e+003,4.364487e+000
1.972729e+003,3.511307e+000
1.973693e+003,4.092712e+000
1.974657e+003,5.111404e+000
1.975622e+003,4.802277e+000
1.976586e+003,3.783279e+000
1.977550e+003,3.850250e+000
1.978514e+003,4.948090e+000
1.979479e+003,6.589279e+000
1.980443e+003,8.581116e+000
1.981407e+003,9.667175e+000
1.982371e+003,9.412445e+000
1.983335e+003,8.238586e+000
1.984300e+003,6.254471e+000
1.985264e+003,4.161850e+000
1.986228e+003,3.108948e+000
1.987192e+003,2.975052e+000
1.988157e+003,3.161102e+000
1.989121e+003,3.679260e+000
1.990085e+003,4.740707e+000
1.991049e+003,7.508774e+000
1.992014e+003,8.564499e+000
1.992978e+003,5.407837e+000
1.993942e+003,3.241821e+000
1.994906e+003,4.925705e+000
1.995871e+003,7.103577e+000
1.996835e+003,7.215607e+000
1.997799e+003,6.385818e+000
1.998763e+003,6.288544e+000
1.999728e+003,6.849289e+000
