5.003444e+002,1.629307e+002
5.013087e+002,1.589144e+002
5.022729e+002,1.567182e+002
5.032371e+002,1.563118e+002
5.042014e+002,1.548878e+002
5.051656e+002,1.527147e+002
5.061298e+002,1.501489e+002
5.070941e+002,1.472720e+002
5.080583e+002,1.435498e+002
5.090225e+002,1.406642e+002
5.099868e+002,1.390950e+002
5.109510e+002,1.375259e+002
5.119152e+002,1.350591e+002
5.128795e+002,1.316058e+002
5.138437e+002,1.291336e+002
5.148079e+002,1.305582e+002
5.157722e+002,1.313742e+002
5.167364e+002,1.282341e+002
5.177006e+002,1.214267e+002
5.186649e+002,1.149932e+002
5.196291e+002,1.158153e+002
5.205933e+002,1.198539e+002
5.215576e+002,1.216659e+002
5.225218e+002,1.202377e+002
5.234860e+002,1.168781e+002
5.244503e+002,1.146323e+002
5.254145e+002,1.149429e+002
5.263787e+002,1.131804e+002
5.273430e+002,1.076330e+002
5.283072e+002,1.011649e+002
5.292714e+002,9.767572e+001
5.302357e+002,9.801990e+001
5.311999e+002,9.779059e+001
5.321641e+002,9.762695e+001
5.331284e+002,9.733496e+001
5.340926e+002,9.611237e+001
5.350568e+002,9.324646e+001
5.360211e+002,9.025726e+001
5.369853e+002,8.972998e+001
5.379495e+002,9.030194e+001
5.389138e+002,9.116675e+001
5.398780e+002,9.164886e+001
5.408422e+002,9.106305e+001
5.418065e+002,8.666235e+001
5.427707e+002,7.917010e+001
5.437349e+002,7.413818e+001
5.446992e+002,7.356476e+001
5.456634e+002,7.591992e+001
5.466276e+002,7.597369e+001
5.475919e+002,7.049829e+001
5.485561e+002,6.712305e+001
5.495203e+002,6.732843e+001
5.504846e+002,6.890088e+001
5.514488e+002,6.879510e+001
5.524130e+002,6.568298e+001
5.533773e+002,6.236322e+001
5.543415e+002,6.035913e+001
5.553057e+002,5.895227e+001
5.562700e+002,5.713904e+001
5.572342e+002,5.423541e+001
5.581984e+002,5.097180e+001
5.591627e+002,4.951056e+001
5.601269e+002,4.968109e+001
5.610911e+002,5.096722e+001
5.620554e+002,5.304907e+001
5.630196e+002,5.545892e+001
5.639838e+002,5.594208e+001
5.649481e+002,5.398364e+001
5.659123e+002,5.098840e+001
5.668765e+002,4.685083e+001
5.678408e+002,4.257147e+001
5.688050e+002,4.007349e+001
5.697692e+002,3.959985e+001
5.707335e+002,3.971820e+001
5.716977e+002,4.149530e+001
5.726619e+002,4.351849e+001
5.736262e+002,4.382288e+001
5.745904e+002,4.091327e+001
5.755546e+002,3.698395e+001
5.765189e+002,3.464716e+001
5.774831e+002,3.316571e+001
5.784473e+002,3.219702e+001
5.794116e+002,3.175586e+001
5.803758e+002,3.214172e+001
5.813400e+002,3.222839e+001
5.823043e+002,3.119452e+001
5.832685e+002,2.982086e+001
5.842327e+002,2.922839e+001
5.851970e+002,2.951794e+001
5.861612e+002,2.887445e+001
5.871254e+002,2.473279e+001
5.880897e+002,2.130621e+001
5.890539e+002,1.918402e+001
5.900181e+002,1.803088e+001
5.909824e+002,1.739246e+001
5.919466e+002,1.734235e+001
5.929108e+002,1.759772e+001
5.938751e+002,1.813202e+001
5.948393e+002,1.856250e+001
5.958035e+002,1.817523e+001
5.967678e+002,1.655450e+001
5.977320e+002,1.423785e+001
5.986962e+002,1.358600e+001
5.996605e+002,1.369379e+001
6.006247e+002,1.476959e+001
6.015889e+002,1.829388e+001
6.025532e+002,2.393140e+001
6.035174e+002,2.587286e+001
6.044816e+002,1.857349e+001
6.054459e+002,1.359686e+001
6.064101e+002,1.432654e+001
6.073743e+002,1.816071e+001
6.083386e+002,2.009821e+001
6.093028e+002,1.685529e+001
6.102670e+002,1.297052e+001
6.112313e+002,1.154248e+001
6.121955e+002,1.177765e+001
6.131597e+002,1.267035e+001
6.141240e+002,1.350775e+001
6.150882e+002,1.434894e+001
6.160524e+002,1.623462e+001
6.170167e+002,1.923059e+001
6.179809e+002,2.187671e+001
6.189451e+002,2.343005e+001
6.199094e+002,2.357025e+001
6.208736e+002,2.192645e+001
6.218378e+002,1.669745e+001
6.228021e+002,1.285382e+001
6.237663e+002,1.170166e+001
6.247305e+002,1.215021e+001
6.256948e+002,1.203461e+001
6.266590e+002,9.566223e+000
6.276232e+002,7.376282e+000
6.285875e+002,8.011475e+000
6.295517e+002,9.987305e+000
6.305159e+002,1.175836e+001
6.314802e+002,1.227411e+001
6.324444e+002,1.150238e+001
6.334086e+002,9.391663e+000
6.343729e+002,6.843567e+000
6.353371e+002,5.256775e+000
6.363013e+002,5.114441e+000
6.372656e+002,5.815857e+000
6.382298e+002,5.675964e+000
6.391940e+002,3.603882e+000
6.401583e+002,1.624451e+000
6.411225e+002,7.528687e-001
6.420867e+002,6.336060e-001
6.430510e+002,4.985962e-001
6.440152e+002,-2.199707e-001
6.449794e+002,-1.754700e+000
6.459437e+002,-5.557800e+000
6.469079e+002,-9.121643e+000
6.478721e+002,-9.505371e+000
6.488364e+002,-6.029602e+000
6.498006e+002,-1.557373e+000
6.507648e+002,-2.191772e+000
6.517291e+002,-6.117859e+000
6.526933e+002,-8.533875e+000
6.536575e+002,-8.555725e+000
6.546218e+002,-7.065491e+000
6.555860e+002,-5.641052e+000
6.565502e+002,-3.925049e+000
6.575145e+002,-3.472229e+000
6.584787e+002,-5.558044e+000
6.594429e+002,-7.644226e+000
6.604072e+002,-7.063904e+000
6.613714e+002,-3.030396e+000
6.623356e+002,-5.540771e-001
6.632999e+002,-4.167847e+000
6.642641e+002,-8.773987e+000
6.652283e+002,-1.185541e+001
6.661926e+002,-1.269348e+001
6.671568e+002,-1.174854e+001
6.681210e+002,-9.322571e+000
6.690853e+002,-6.346680e+000
6.700495e+002,-4.805115e+000
6.710137e+002,-4.610962e+000
6.719780e+002,-4.375122e+000
6.729422e+002,-2.509155e+000
6.739064e+002,1.472778e+000
6.748707e+002,2.656982e+000
6.758349e+002,-1.379517e+000
6.767991e+002,-4.818176e+000
6.777634e+002,-3.789551e+000
6.787276e+002,1.305664e+000
6.796918e+002,4.778137e+000
6.806561e+002,1.951172e+000
6.816203e+002,-1.184387e+000
6.825845e+002,-2.685730e+000
6.835488e+002,-2.757751e+000
6.845130e+002,-1.929749e+000
6.854772e+002,-4.171753e-001
6.864415e+002,1.838989e+000
6.874057e+002,4.693787e+000
6.883699e+002,7.154846e+000
6.893342e+002,7.592712e+000
6.902984e+002,5.085144e+000
6.912626e+002,3.685913e-001
6.922269e+002,-2.629150e+000
6.931911e+002,-7.345581e-001
6.941553e+002,7.421875e-002
6.951196e+002,-2.728027e+000
6.960838e+002,-7.130127e+000
6.970480e+002,-9.395142e+000
6.980123e+002,-7.787292e+000
6.989765e+002,-5.613098e+000
6.999407e+002,-4.008301e+000
7.009050e+002,-2.930054e+000
7.018692e+002,-2.464355e+000
7.028334e+002,-2.659180e+000
7.037977e+002,-3.435913e+000
7.047619e+002,-4.535889e+000
7.057261e+002,-5.482910e+000
7.066904e+002,-6.371765e+000
7.076546e+002,-7.241089e+000
7.086188e+002,-7.455078e+000
7.095831e+002,-5.835205e+000
7.105473e+002,-1.403809e+000
7.115115e+002,6.378784e-001
7.124758e+002,-1.244629e+000
7.134400e+002,-3.792786e+000
7.144042e+002,-4.622925e+000
7.153685e+002,-3.497131e+000
7.163327e+002,-2.918579e+000
7.172969e+002,-5.222778e+000
7.182612e+002,-7.062866e+000
7.192254e+002,-6.973633e+000
7.201896e+002,-5.592163e+000
7.211539e+002,-4.366150e+000
7.221181e+002,-4.489380e+000
7.230823e+002,-5.199768e+000
7.240466e+002,-3.646973e+000
7.250108e+002,-1.354980e-001
7.259750e+002,1.908630e+000
7.269393e+002,-3.359375e-001
7.279035e+002,-6.650940e+000
7.288677e+002,-1.056696e+001
7.298320e+002,-7.630798e+000
7.307962e+002,-5.574890e+000
7.317604e+002,-5.823181e+000
7.327247e+002,-6.714355e+000
7.336889e+002,-6.208496e+000
7.346531e+002,-4.193237e+000
7.356174e+002,-2.840637e+000
7.365816e+002,-2.052429e+000
7.375458e+002,-1.348206e+000
7.385101e+002,-7.258301e-001
7.394743e+002,-3.784180e-002
7.404385e+002,1.169312e+000
7.414028e+002,3.694946e+000
7.423670e+002,6.019348e+000
7.433312e+002,6.312561e+000
7.442955e+002,5.128845e+000
7.452597e+002,3.983521e+000
7.462239e+002,4.161316e+000
7.471882e+002,5.681030e+000
7.481524e+002,7.419983e+000
7.491166e+002,9.111450e+000
7.500809e+002,9.760803e+000
7.510451e+002,9.124817e+000
7.520093e+002,7.199158e+000
7.529736e+002,3.857117e+000
7.539378e+002,-1.881958e+000
7.549020e+002,-6.087830e+000
7.558663e+002,-6.234680e+000
7.568306e+002,-3.805237e+000
7.577948e+002,-5.399780e-001
7.587590e+002,2.210815e+000
7.597233e+002,3.836853e+000
7.606875e+002,3.071960e+000
7.616517e+002,6.190186e-001
7.626160e+002,-1.521240e+000
7.635802e+002,-3.228210e+000
7.645444e+002,-3.733215e+000
7.655087e+002,-1.106995e+000
7.664729e+002,7.070923e+000
7.674371e+002,1.262457e+001
7.684014e+002,1.441113e+001
7.693656e+002,1.449347e+001
7.703298e+002,1.360297e+001
7.712941e+002,1.220276e+001
7.722583e+002,1.157642e+001
7.732225e+002,1.371338e+001
7.741868e+002,1.591473e+001
7.751510e+002,1.604010e+001
7.761152e+002,1.443378e+001
7.770795e+002,1.190057e+001
7.780437e+002,9.044312e+000
7.790079e+002,6.025452e+000
7.799722e+002,6.242432e+000
7.809364e+002,9.948547e+000
7.819006e+002,1.287079e+001
7.828649e+002,1.311530e+001
7.838291e+002,1.187939e+001
7.847933e+002,1.248993e+001
7.857576e+002,1.629480e+001
7.867218e+002,1.807788e+001
7.876860e+002,1.719061e+001
7.886503e+002,1.512451e+001
7.896145e+002,1.222986e+001
7.905787e+002,8.898071e+000
7.915430e+002,7.119019e+000
7.925072e+002,1.031891e+001
7.934714e+002,1.460883e+001
7.944357e+002,1.638660e+001
7.953999e+002,1.583105e+001
7.963641e+002,1.452710e+001
7.973284e+002,1.397632e+001
7.982926e+002,1.418158e+001
7.992568e+002,1.573669e+001
8.002211e+002,1.887750e+001
8.011853e+002,2.025653e+001
8.021495e+002,1.884424e+001
8.031138e+002,1.613068e+001
8.040780e+002,1.510840e+001
8.050422e+002,1.667493e+001
8.060065e+002,1.771210e+001
8.069707e+002,1.624194e+001
8.079349e+002,1.375897e+001
8.088992e+002,1.181140e+001
8.098634e+002,1.122827e+001
8.108276e+002,1.198102e+001
8.117919e+002,1.445361e+001
8.127561e+002,1.667877e+001
8.137203e+002,1.606049e+001
8.146846e+002,1.293073e+001
8.156488e+002,9.644348e+000
8.166130e+002,8.700134e+000
8.175773e+002,1.029681e+001
8.185415e+002,1.218292e+001
8.195057e+002,1.418359e+001
8.204700e+002,1.563379e+001
8.214342e+002,1.627777e+001
8.223984e+002,1.622339e+001
8.233627e+002,1.577924e+001
8.243269e+002,1.515466e+001
8.252911e+002,1.432947e+001
8.262554e+002,1.199902e+001
8.272196e+002,1.006372e+001
8.281838e+002,1.128357e+001
8.291481e+002,1.610425e+001
8.301123e+002,2.154834e+001
8.310765e+002,2.198718e+001
8.320408e+002,1.771423e+001
8.330050e+002,1.583142e+001
8.339692e+002,1.736237e+001
8.349335e+002,1.968304e+001
8.358977e+002,2.003021e+001
8.368619e+002,1.823840e+001
8.378262e+002,1.808594e+001
8.387904e+002,2.123383e+001
8.397546e+002,2.334399e+001
8.407189e+002,2.272388e+001
8.416831e+002,2.059161e+001
8.426473e+002,1.893420e+001
8.436116e+002,1.853186e+001
8.445758e+002,1.965149e+001
8.455400e+002,2.287903e+001
8.465043e+002,2.633795e+001
8.474685e+002,2.876208e+001
8.484327e+002,3.013647e+001
8.493970e+002,3.098535e+001
8.503612e+002,3.146759e+001
8.513254e+002,3.123431e+001
8.522897e+002,3.121021e+001
8.532539e+002,3.102118e+001
8.542181e+002,3.077631e+001
8.551824e+002,3.047577e+001
8.561466e+002,3.088824e+001
8.571108e+002,3.420044e+001
8.580751e+002,4.216254e+001
8.590393e+002,4.871936e+001
8.600035e+002,5.226111e+001
8.609678e+002,5.424207e+001
8.619320e+002,5.627722e+001
8.628962e+002,5.893176e+001
8.638605e+002,6.121790e+001
8.648247e+002,6.085754e+001
8.657889e+002,5.925342e+001
8.667532e+002,6.030188e+001
8.677174e+002,6.448639e+001
8.686816e+002,6.870978e+001
8.696459e+002,6.952222e+001
8.706101e+002,6.682404e+001
8.715743e+002,6.349933e+001
8.725386e+002,5.561682e+001
8.735028e+002,5.211261e+001
8.744670e+002,5.691199e+001
8.754313e+002,6.647913e+001
8.763955e+002,7.520135e+001
8.773597e+002,8.210065e+001
8.783240e+002,8.614282e+001
8.792882e+002,8.430927e+001
8.802524e+002,8.072266e+001
8.812167e+002,7.879828e+001
8.821809e+002,7.937158e+001
8.831451e+002,8.146643e+001
8.841094e+002,8.397296e+001
8.850736e+002,8.728369e+001
8.860378e+002,9.120160e+001
8.870021e+002,9.592371e+001
8.879663e+002,9.946625e+001
8.889305e+002,9.913300e+001
8.898948e+002,9.595313e+001
8.908590e+002,9.654242e+001
8.918232e+002,1.059250e+002
8.927875e+002,1.123107e+002
8.937517e+002,1.108785e+002
8.947159e+002,1.075735e+002
8.956802e+002,1.069732e+002
8.966444e+002,1.097811e+002
8.976086e+002,1.135150e+002
8.985729e+002,1.171950e+002
8.995371e+002,1.199198e+002
9.005013e+002,1.187990e+002
9.014656e+002,1.149041e+002
9.024298e+002,1.122183e+002
9.033940e+002,1.134602e+002
9.043583e+002,1.178121e+002
9.053225e+002,1.221646e+002
9.062867e+002,1.278624e+002
9.072510e+002,1.306928e+002
9.082152e+002,1.301355e+002
9.091794e+002,1.281624e+002
9.101437e+002,1.259373e+002
9.111079e+002,1.235592e+002
9.120721e+002,1.224239e+002
9.130364e+002,1.238180e+002
9.140006e+002,1.254279e+002
9.149648e+002,1.269398e+002
9.159291e+002,1.282692e+002
9.168933e+002,1.288899e+002
9.178575e+002,1.281991e+002
9.188218e+002,1.263120e+002
9.197860e+002,1.245028e+002
9.207502e+002,1.225307e+002
9.217145e+002,1.202471e+002
9.226787e+002,1.182835e+002
9.236429e+002,1.166805e+002
9.246072e+002,1.149863e+002
9.255714e+002,1.127473e+002
9.265356e+002,1.105702e+002
9.274999e+002,1.079180e+002
9.284641e+002,1.055613e+002
9.294283e+002,1.050967e+002
9.303926e+002,1.052319e+002
9.313568e+002,1.031280e+002
9.323210e+002,9.711102e+001
9.332853e+002,9.016431e+001
9.342495e+002,8.692181e+001
9.352137e+002,8.597015e+001
9.361780e+002,8.665533e+001
9.371422e+002,8.914374e+001
9.381064e+002,9.234351e+001
9.390707e+002,9.424255e+001
9.400349e+002,9.406946e+001
9.409991e+002,9.394470e+001
9.419634e+002,9.389850e+001
9.429276e+002,9.358240e+001
9.438918e+002,9.292914e+001
9.448561e+002,9.215625e+001
9.458203e+002,9.186353e+001
9.467845e+002,9.260840e+001
9.477488e+002,9.273993e+001
9.487130e+002,8.853290e+001
9.496772e+002,8.469617e+001
9.506415e+002,8.630756e+001
9.516057e+002,9.257501e+001
9.525699e+002,9.850708e+001
9.535342e+002,9.916028e+001
9.544984e+002,9.491687e+001
9.554626e+002,9.042242e+001
9.564269e+002,8.594452e+001
9.573911e+002,8.333954e+001
9.583553e+002,8.375421e+001
9.593196e+002,8.573145e+001
9.602838e+002,8.704932e+001
9.612480e+002,8.736169e+001
9.622123e+002,8.729883e+001
9.631765e+002,8.785620e+001
9.641407e+002,8.768408e+001
9.651050e+002,8.533435e+001
9.660692e+002,8.144659e+001
9.670334e+002,7.741003e+001
9.679977e+002,7.432703e+001
9.689619e+002,7.314185e+001
9.699261e+002,7.611426e+001
9.708904e+002,8.152020e+001
9.718546e+002,8.562140e+001
9.728188e+002,8.709277e+001
9.737831e+002,8.823920e+001
9.747473e+002,9.294928e+001
9.757115e+002,1.025696e+002
9.766758e+002,1.093841e+002
9.776400e+002,1.125231e+002
9.786042e+002,1.147912e+002
9.795685e+002,1.177039e+002
9.805327e+002,1.189316e+002
9.814969e+002,1.152068e+002
9.824612e+002,1.057672e+002
9.834254e+002,9.468182e+001
9.843896e+002,8.287408e+001
9.853539e+002,7.251697e+001
9.863181e+002,6.679315e+001
9.872823e+002,6.511932e+001
9.882466e+002,6.528052e+001
9.892108e+002,6.601599e+001
9.901750e+002,6.780591e+001
9.911393e+002,6.882690e+001
9.921035e+002,6.598645e+001
9.930677e+002,6.452185e+001
9.940320e+002,6.585663e+001
9.949962e+002,6.873401e+001
9.959604e+002,7.165985e+001
9.969247e+002,7.470697e+001
9.978889e+002,8.014795e+001
9.988531e+002,9.101245e+001
9.998174e+002,1.004638e+002
1.000782e+003,1.043010e+002
1.001746e+003,1.050590e+002
1.002710e+003,1.067824e+002
1.003674e+003,1.109133e+002
1.004639e+003,1.146202e+002
1.005603e+003,1.125261e+002
1.006567e+003,1.037492e+002
1.007531e+003,9.976752e+001
1.008495e+003,1.029411e+002
1.009460e+003,1.060968e+002
1.010424e+003,1.050057e+002
1.011388e+003,1.006322e+002
1.012352e+003,9.622302e+001
1.013317e+003,9.143335e+001
1.014281e+003,8.746375e+001
1.015245e+003,8.462793e+001
1.016209e+003,8.206293e+001
1.017174e+003,8.024109e+001
1.018138e+003,7.843610e+001
1.019102e+003,7.435748e+001
1.020066e+003,6.591699e+001
1.021031e+003,5.542993e+001
1.021995e+003,4.855804e+001
1.022959e+003,4.415656e+001
1.023923e+003,4.060699e+001
1.024887e+003,3.770490e+001
1.025852e+003,3.463043e+001
1.026816e+003,2.986774e+001
1.027780e+003,2.303674e+001
1.028744e+003,1.829443e+001
1.029709e+003,1.742383e+001
1.030673e+003,1.668329e+001
1.031637e+003,1.437683e+001
1.032601e+003,1.148181e+001
1.033566e+003,9.811462e+000
1.034530e+003,1.011517e+001
1.035494e+003,1.119727e+001
1.036458e+003,1.172534e+001
1.037422e+003,1.176569e+001
1.038387e+003,1.153607e+001
1.039351e+003,1.097223e+001
1.040315e+003,1.028467e+001
1.041279e+003,9.736511e+000
1.042244e+003,9.633728e+000
1.043208e+003,1.053333e+001
1.044172e+003,1.257837e+001
1.045136e+003,1.444580e+001
1.046101e+003,1.672601e+001
1.047065e+003,1.871313e+001
1.048029e+003,2.010748e+001
1.048993e+003,2.059998e+001
1.049958e+003,1.954919e+001
1.050922e+003,1.641461e+001
1.051886e+003,1.311542e+001
1.052850e+003,1.078040e+001
1.053814e+003,9.609741e+000
1.054779e+003,1.051257e+001
1.055743e+003,1.331177e+001
1.056707e+003,1.625012e+001
1.057671e+003,1.720282e+001
1.058636e+003,1.605243e+001
1.059600e+003,1.564752e+001
1.060564e+003,1.751575e+001
1.061528e+003,1.914337e+001
1.062493e+003,1.933191e+001
1.063457e+003,1.873444e+001
1.064421e+003,1.860822e+001
1.065385e+003,1.926416e+001
1.066349e+003,1.919019e+001
1.067314e+003,1.649078e+001
1.068278e+003,1.428375e+001
1.069242e+003,1.578613e+001
1.070206e+003,1.913660e+001
1.071171e+003,2.095361e+001
1.072135e+003,1.971057e+001
1.073099e+003,1.674597e+001
1.074063e+003,1.459375e+001
1.075028e+003,1.341687e+001
1.075992e+003,1.454535e+001
1.076956e+003,1.924512e+001
1.077920e+003,2.290942e+001
1.078885e+003,2.417230e+001
1.079849e+003,2.390308e+001
1.080813e+003,2.318628e+001
1.081777e+003,2.212695e+001
1.082741e+003,2.130060e+001
1.083706e+003,2.030518e+001
1.084670e+003,1.921442e+001
1.085634e+003,1.842957e+001
1.086598e+003,1.754907e+001
1.087563e+003,1.566608e+001
1.088527e+003,1.263165e+001
1.089491e+003,9.952026e+000
1.090455e+003,1.002429e+001
1.091420e+003,1.283136e+001
1.092384e+003,1.460223e+001
1.093348e+003,1.462225e+001
1.094312e+003,1.421680e+001
1.095276e+003,1.490051e+001
1.096241e+003,1.632245e+001
1.097205e+003,1.626044e+001
1.098169e+003,1.337219e+001
1.099133e+003,1.100885e+001
1.100098e+003,1.125500e+001
1.101062e+003,1.205908e+001
1.102026e+003,1.214081e+001
1.102990e+003,1.174390e+001
1.103955e+003,1.163824e+001
1.104919e+003,1.220422e+001
1.105883e+003,1.321558e+001
1.106847e+003,1.455573e+001
1.107812e+003,1.614935e+001
1.108776e+003,1.766974e+001
1.109740e+003,1.976416e+001
1.110704e+003,2.044086e+001
1.111668e+003,1.728528e+001
1.112633e+003,1.188367e+001
1.113597e+003,1.009003e+001
1.114561e+003,1.330383e+001
1.115525e+003,1.724786e+001
1.116490e+003,2.124701e+001
1.117454e+003,2.465942e+001
1.118418e+003,2.764838e+001
1.119382e+003,3.020520e+001
1.120347e+003,3.140973e+001
1.121311e+003,3.033191e+001
1.122275e+003,2.828314e+001
1.123239e+003,2.988525e+001
1.124203e+003,3.524695e+001
1.125168e+003,3.743097e+001
1.126132e+003,3.493665e+001
1.127096e+003,3.227002e+001
1.128060e+003,3.246735e+001
1.129025e+003,3.495416e+001
1.129989e+003,3.790472e+001
1.130953e+003,4.113226e+001
1.131917e+003,4.453229e+001
1.132882e+003,4.865680e+001
1.133846e+003,5.276941e+001
1.134810e+003,5.621277e+001
1.135774e+003,5.936700e+001
1.136739e+003,6.285980e+001
1.137703e+003,6.702899e+001
1.138667e+003,7.216125e+001
1.139631e+003,7.901318e+001
1.140595e+003,8.747681e+001
1.141560e+003,9.688678e+001
1.142524e+003,1.075923e+002
1.143488e+003,1.193620e+002
1.144452e+003,1.306538e+002
1.145417e+003,1.426479e+002
1.146381e+003,1.599911e+002
1.147345e+003,1.839869e+002
1.148309e+003,2.099326e+002
1.149274e+003,2.385793e+002
1.150238e+003,2.672623e+002
1.151202e+003,2.955051e+002
1.152166e+003,3.230943e+002
1.153130e+003,3.510149e+002
1.154095e+003,3.787607e+002
1.155059e+003,4.009801e+002
1.156023e+003,4.108782e+002
1.156987e+003,4.084171e+002
1.157952e+003,3.982549e+002
1.158916e+003,3.803444e+002
1.159880e+003,3.610347e+002
1.160844e+003,3.443349e+002
1.161809e+003,3.265056e+002
1.162773e+003,2.989865e+002
1.163737e+003,2.586309e+002
1.164701e+003,2.229468e+002
1.165666e+003,1.978766e+002
1.166630e+003,1.776949e+002
1.167594e+003,1.622015e+002
1.168558e+003,1.494372e+002
1.169522e+003,1.367916e+002
1.170487e+003,1.238179e+002
1.171451e+003,1.133894e+002
1.172415e+003,1.088174e+002
1.173379e+003,1.091124e+002
1.174344e+003,1.104029e+002
1.175308e+003,1.132319e+002
1.176272e+003,1.131906e+002
1.177236e+003,1.065120e+002
1.178201e+003,9.839185e+001
1.179165e+003,9.625476e+001
1.180129e+003,9.984796e+001
1.181093e+003,9.956903e+001
1.182057e+003,9.086072e+001
1.183022e+003,8.235553e+001
1.183986e+003,7.619092e+001
1.184950e+003,7.250922e+001
1.185914e+003,7.235150e+001
1.186879e+003,7.508038e+001
1.187843e+003,7.827740e+001
1.188807e+003,7.981750e+001
1.189771e+003,8.038037e+001
1.190736e+003,8.312354e+001
1.191700e+003,8.851703e+001
1.192664e+003,8.998187e+001
1.193628e+003,8.507013e+001
1.194593e+003,7.920135e+001
1.195557e+003,7.624097e+001
1.196521e+003,7.527417e+001
1.197485e+003,7.332587e+001
1.198449e+003,6.989984e+001
1.199414e+003,6.597314e+001
1.200378e+003,6.142010e+001
1.201342e+003,5.710626e+001
1.202306e+003,5.357654e+001
1.203271e+003,5.044818e+001
1.204235e+003,4.692950e+001
1.205199e+003,4.278796e+001
1.206163e+003,3.878943e+001
1.207128e+003,3.617126e+001
1.208092e+003,3.508868e+001
1.209056e+003,3.310522e+001
1.210020e+003,3.085449e+001
1.210984e+003,2.685602e+001
1.211949e+003,1.921783e+001
1.212913e+003,1.029236e+001
1.213877e+003,3.226807e+000
1.214841e+003,-1.654480e+000
1.215806e+003,-5.750732e+000
1.216770e+003,-9.355164e+000
1.217734e+003,-1.290076e+001
1.218698e+003,-1.697583e+001
1.219663e+003,-2.137787e+001
1.220627e+003,-2.597443e+001
1.221591e+003,-3.055231e+001
1.222555e+003,-3.470563e+001
1.223520e+003,-3.799268e+001
1.224484e+003,-4.020166e+001
1.225448e+003,-4.118384e+001
1.226412e+003,-4.031421e+001
1.227376e+003,-3.976111e+001
1.228341e+003,-3.939716e+001
1.229305e+003,-3.977264e+001
1.230269e+003,-4.179639e+001
1.231233e+003,-4.465332e+001
1.232198e+003,-4.648938e+001
1.233162e+003,-4.660028e+001
1.234126e+003,-4.622736e+001
1.235090e+003,-4.699774e+001
1.236055e+003,-4.752863e+001
1.237019e+003,-4.567816e+001
1.237983e+003,-4.248206e+001
1.238947e+003,-4.006494e+001
1.239911e+003,-3.912732e+001
1.240876e+003,-3.988379e+001
1.241840e+003,-4.338147e+001
1.242804e+003,-4.992041e+001
1.243768e+003,-5.320392e+001
1.244733e+003,-5.072589e+001
1.245697e+003,-4.797778e+001
1.246661e+003,-4.522632e+001
1.247625e+003,-4.323254e+001
1.248590e+003,-4.301331e+001
1.249554e+003,-4.348816e+001
1.250518e+003,-4.197925e+001
1.251482e+003,-3.735547e+001
1.252447e+003,-3.228778e+001
1.253411e+003,-2.931061e+001
1.254375e+003,-2.790063e+001
1.255339e+003,-2.751373e+001
1.256303e+003,-2.787817e+001
1.257268e+003,-2.820184e+001
1.258232e+003,-2.867401e+001
1.259196e+003,-2.899188e+001
1.260160e+003,-2.785870e+001
1.261125e+003,-2.482599e+001
1.262089e+003,-2.070471e+001
1.263053e+003,-1.374664e+001
1.264017e+003,-8.930969e+000
1.264982e+003,-8.297119e+000
1.265946e+003,-9.305542e+000
1.266910e+003,-9.702454e+000
1.267874e+003,-9.280701e+000
1.268839e+003,-8.999512e+000
1.269803e+003,-9.457642e+000
1.270767e+003,-1.053516e+001
1.271731e+003,-1.197583e+001
1.272695e+003,-1.363043e+001
1.273660e+003,-1.582092e+001
1.274624e+003,-1.945435e+001
1.275588e+003,-2.303156e+001
1.276552e+003,-2.526141e+001
1.277517e+003,-2.637683e+001
1.278481e+003,-2.701508e+001
1.279445e+003,-2.724176e+001
1.280409e+003,-2.865143e+001
1.281374e+003,-3.394934e+001
1.282338e+003,-3.730756e+001
1.283302e+003,-3.427380e+001
1.284266e+003,-2.886731e+001
1.285230e+003,-2.493518e+001
1.286195e+003,-2.365912e+001
1.287159e+003,-2.508453e+001
1.288123e+003,-2.910822e+001
1.289087e+003,-3.418774e+001
1.290052e+003,-3.631433e+001
1.291016e+003,-3.462897e+001
1.291980e+003,-3.417249e+001
1.292944e+003,-3.678418e+001
1.293909e+003,-3.887958e+001
1.294873e+003,-3.763574e+001
1.295837e+003,-3.524512e+001
1.296801e+003,-3.533716e+001
1.297766e+003,-3.818115e+001
1.298730e+003,-4.042230e+001
1.299694e+003,-4.021637e+001
1.300658e+003,-3.956995e+001
1.301622e+003,-4.093213e+001
1.302587e+003,-4.293427e+001
1.303551e+003,-4.344940e+001
1.304515e+003,-4.204248e+001
1.305479e+003,-3.987518e+001
1.306444e+003,-3.794495e+001
1.307408e+003,-3.649622e+001
1.308372e+003,-3.592712e+001
1.309336e+003,-3.676904e+001
1.310301e+003,-3.694531e+001
1.311265e+003,-3.477362e+001
1.312229e+003,-3.342773e+001
1.313193e+003,-3.456171e+001
1.314157e+003,-3.668280e+001
1.315122e+003,-3.841553e+001
1.316086e+003,-3.954688e+001
1.317050e+003,-4.050580e+001
1.318014e+003,-4.143488e+001
1.318979e+003,-4.167786e+001
1.319943e+003,-3.987396e+001
1.320907e+003,-3.621399e+001
1.321871e+003,-3.420032e+001
1.322836e+003,-3.492993e+001
1.323800e+003,-3.579065e+001
1.324764e+003,-3.517908e+001
1.325728e+003,-3.379230e+001
1.326693e+003,-3.305170e+001
1.327657e+003,-3.323016e+001
1.328621e+003,-3.340759e+001
1.329585e+003,-3.264893e+001
1.330549e+003,-3.068048e+001
1.331514e+003,-2.684863e+001
1.332478e+003,-2.398895e+001
1.333442e+003,-2.579755e+001
1.334406e+003,-3.078326e+001
1.335371e+003,-3.361346e+001
1.336335e+003,-3.115448e+001
1.337299e+003,-2.624908e+001
1.338263e+003,-2.447571e+001
1.339228e+003,-2.624280e+001
1.340192e+003,-2.713629e+001
1.341156e+003,-2.564252e+001
1.342120e+003,-2.559106e+001
1.343084e+003,-2.970630e+001
1.344049e+003,-3.422351e+001
1.345013e+003,-3.530286e+001
1.345977e+003,-3.352142e+001
1.346941e+003,-3.238361e+001
1.347906e+003,-3.329510e+001
1.348870e+003,-3.303876e+001
1.349834e+003,-2.697644e+001
1.350798e+003,-1.949774e+001
1.351763e+003,-1.902100e+001
1.352727e+003,-2.436670e+001
1.353691e+003,-2.898029e+001
1.354655e+003,-3.034338e+001
1.355620e+003,-3.059674e+001
1.356584e+003,-3.285736e+001
1.357548e+003,-3.648224e+001
1.358512e+003,-3.637659e+001
1.359476e+003,-3.102850e+001
1.360441e+003,-2.688525e+001
1.361405e+003,-2.551532e+001
1.362369e+003,-2.530878e+001
1.363333e+003,-2.630017e+001
1.364298e+003,-2.754395e+001
1.365262e+003,-2.781830e+001
1.366226e+003,-2.690552e+001
1.367190e+003,-2.543756e+001
1.368155e+003,-2.394220e+001
1.369119e+003,-2.282471e+001
1.370083e+003,-2.344971e+001
1.371047e+003,-2.648511e+001
1.372011e+003,-2.731219e+001
1.372976e+003,-2.377045e+001
1.373940e+003,-2.185541e+001
1.374904e+003,-2.540546e+001
1.375868e+003,-3.036279e+001
1.376833e+003,-3.143903e+001
1.377797e+003,-2.869366e+001
1.378761e+003,-2.603918e+001
1.379725e+003,-2.498358e+001
1.380690e+003,-2.452563e+001
1.381654e+003,-2.381232e+001
1.382618e+003,-2.279858e+001
1.383582e+003,-2.134814e+001
1.384547e+003,-1.955219e+001
1.385511e+003,-1.797369e+001
1.386475e+003,-1.704456e+001
1.387439e+003,-1.664978e+001
1.388403e+003,-1.664111e+001
1.389368e+003,-1.705914e+001
1.390332e+003,-1.710468e+001
1.391296e+003,-1.583643e+001
1.392260e+003,-1.553937e+001
1.393225e+003,-1.750549e+001
1.394189e+003,-1.981354e+001
1.395153e+003,-2.191925e+001
1.396117e+003,-2.337518e+001
1.397082e+003,-2.328186e+001
1.398046e+003,-2.165082e+001
1.399010e+003,-2.009082e+001
1.399974e+003,-2.036298e+001
1.400938e+003,-2.196777e+001
1.401903e+003,-2.190930e+001
1.402867e+003,-1.844916e+001
1.403831e+003,-1.595459e+001
1.404795e+003,-1.547992e+001
1.405760e+003,-1.551721e+001
1.406724e+003,-1.697919e+001
1.407688e+003,-1.906342e+001
1.408652e+003,-1.978705e+001
1.409617e+003,-1.892328e+001
1.410581e+003,-1.846124e+001
1.411545e+003,-1.941699e+001
1.412509e+003,-1.974268e+001
1.413474e+003,-1.653265e+001
1.414438e+003,-1.276019e+001
1.415402e+003,-1.314465e+001
1.416366e+003,-1.672113e+001
1.417330e+003,-1.920789e+001
1.418295e+003,-1.891272e+001
1.419259e+003,-1.707800e+001
1.420223e+003,-1.490936e+001
1.421187e+003,-1.278381e+001
1.422152e+003,-1.166675e+001
1.423116e+003,-1.167786e+001
1.424080e+003,-1.078198e+001
1.425044e+003,-7.847046e+000
1.426009e+003,-5.358276e+000
1.426973e+003,-4.442322e+000
1.427937e+003,-4.533875e+000
1.428901e+003,-4.882629e+000
1.429865e+003,-5.153503e+000
1.430830e+003,-5.496582e+000
1.431794e+003,-6.186462e+000
1.432758e+003,-7.035217e+000
1.433722e+003,-7.198975e+000
1.434687e+003,-6.138062e+000
1.435651e+003,-3.411926e+000
1.436615e+003,2.441772e+000
1.437579e+003,4.940369e+000
1.438544e+003,4.011841e-001
1.439508e+003,-4.106934e+000
1.440472e+003,-3.307007e+000
1.441436e+003,1.312561e+000
1.442401e+003,6.669067e+000
1.443365e+003,1.152155e+001
1.444329e+003,1.442242e+001
1.445293e+003,1.415997e+001
1.446257e+003,1.225671e+001
1.447222e+003,1.123663e+001
1.448186e+003,1.083301e+001
1.449150e+003,9.877441e+000
1.450114e+003,7.918091e+000
1.451079e+003,6.263489e+000
1.452043e+003,6.338074e+000
1.453007e+003,7.124451e+000
1.453971e+003,6.908386e+000
1.454936e+003,5.609070e+000
1.455900e+003,3.967712e+000
1.456864e+003,2.028625e+000
1.457828e+003,9.442749e-001
1.458792e+003,1.725342e+000
1.459757e+003,2.810852e+000
1.460721e+003,3.283325e+000
1.461685e+003,3.003906e+000
1.462649e+003,1.493103e+000
1.463614e+003,-9.890137e-001
1.464578e+003,-2.319946e+000
1.465542e+003,-3.220825e-001
1.466506e+003,3.030640e+000
1.467471e+003,1.407715e+000
1.468435e+003,-6.812500e+000
1.469399e+003,-9.348022e+000
1.470363e+003,-1.154297e+000
1.471328e+003,5.597534e+000
1.472292e+003,7.620850e+000
1.473256e+003,7.133484e+000
1.474220e+003,4.711365e+000
1.475184e+003,2.421814e+000
1.476149e+003,3.433533e+000
1.477113e+003,8.048828e+000
1.478077e+003,1.299066e+001
1.479041e+003,1.544745e+001
1.480006e+003,1.595599e+001
1.480970e+003,1.519458e+001
1.481934e+003,1.197931e+001
1.482898e+003,1.073199e+001
1.483863e+003,1.162061e+001
1.484827e+003,1.379291e+001
1.485791e+003,1.929102e+001
1.486755e+003,2.473505e+001
1.487719e+003,2.592950e+001
1.488684e+003,2.409729e+001
1.489648e+003,2.340540e+001
1.490612e+003,2.543353e+001
1.491576e+003,2.953345e+001
1.492541e+003,3.545264e+001
1.493505e+003,4.209436e+001
1.494469e+003,4.715240e+001
1.495433e+003,5.042010e+001
1.496398e+003,5.293915e+001
1.497362e+003,5.473419e+001
1.498326e+003,5.835382e+001
1.499290e+003,6.559985e+001
1.500255e+003,7.491333e+001
1.501219e+003,8.425293e+001
1.502183e+003,9.350214e+001
1.503147e+003,1.029250e+002
1.504111e+003,1.123624e+002
1.505076e+003,1.229779e+002
1.506040e+003,1.347100e+002
1.507004e+003,1.491149e+002
1.507968e+003,1.681467e+002
1.508933e+003,1.905095e+002
1.509897e+003,2.135249e+002
1.510861e+003,2.373813e+002
1.511825e+003,2.639481e+002
1.512790e+003,2.944980e+002
1.513754e+003,3.271720e+002
1.514718e+003,3.592756e+002
1.515682e+003,3.903745e+002
1.516646e+003,4.214274e+002
1.517611e+003,4.544305e+002
1.518575e+003,4.840017e+002
1.519539e+003,5.094375e+002
1.520503e+003,5.308955e+002
1.521468e+003,5.491846e+002
1.522432e+003,5.626312e+002
1.523396e+003,5.693514e+002
1.524360e+003,5.688480e+002
1.525325e+003,5.611902e+002
1.526289e+003,5.465599e+002
1.527253e+003,5.270322e+002
1.528217e+003,5.062065e+002
1.529182e+003,4.845085e+002
1.530146e+003,4.570447e+002
1.531110e+003,4.203218e+002
1.532074e+003,3.832610e+002
1.533039e+003,3.458533e+002
1.534003e+003,3.072006e+002
1.534967e+003,2.660997e+002
1.535931e+003,2.258972e+002
1.536896e+003,1.887107e+002
1.537860e+003,1.560286e+002
1.538824e+003,1.298641e+002
1.539788e+003,1.108615e+002
1.540752e+003,9.667181e+001
1.541717e+003,8.467462e+001
1.542681e+003,7.489478e+001
1.543645e+003,6.573224e+001
1.544609e+003,5.673053e+001
1.545573e+003,5.111353e+001
1.546538e+003,5.048621e+001
1.547502e+003,4.976538e+001
1.548466e+003,4.659741e+001
1.549430e+003,4.397736e+001
1.550395e+003,4.577765e+001
1.551359e+003,5.026038e+001
1.552323e+003,5.207483e+001
1.553287e+003,4.953937e+001
1.554252e+003,4.629309e+001
1.555216e+003,4.563440e+001
1.556180e+003,4.587933e+001
1.557144e+003,4.285144e+001
1.558109e+003,3.658478e+001
1.559073e+003,3.160986e+001
1.560037e+003,2.780554e+001
1.561001e+003,2.438495e+001
1.561966e+003,2.146191e+001
1.562930e+003,1.959619e+001
1.563894e+003,1.940631e+001
1.564858e+003,2.010620e+001
1.565823e+003,1.972845e+001
1.566787e+003,1.798132e+001
1.567751e+003,1.762671e+001
1.568715e+003,2.083167e+001
1.569679e+003,2.475806e+001
1.570644e+003,2.559155e+001
1.571608e+003,2.388141e+001
1.572572e+003,2.180127e+001
1.573536e+003,1.964258e+001
1.574500e+003,1.905469e+001
1.575465e+003,2.120532e+001
1.576429e+003,2.375348e+001
1.577393e+003,2.423016e+001
1.578357e+003,2.375769e+001
1.579322e+003,2.522180e+001
1.580286e+003,2.873706e+001
1.581250e+003,3.135272e+001
1.582214e+003,3.189117e+001
1.583179e+003,3.247632e+001
1.584143e+003,3.553680e+001
1.585107e+003,3.820093e+001
1.586071e+003,3.623541e+001
1.587036e+003,3.168176e+001
1.588000e+003,2.951825e+001
1.588964e+003,3.054480e+001
1.589928e+003,3.288947e+001
1.590893e+003,3.631274e+001
1.591857e+003,3.956213e+001
1.592821e+003,4.003925e+001
1.593785e+003,3.850800e+001
1.594750e+003,3.926733e+001
1.595714e+003,4.302258e+001
1.596678e+003,4.661743e+001
1.597642e+003,4.933923e+001
1.598606e+003,5.079303e+001
1.599571e+003,4.964941e+001
1.600535e+003,4.801898e+001
1.601499e+003,4.884900e+001
1.602463e+003,5.178217e+001
1.603427e+003,5.449713e+001
1.604392e+003,5.621118e+001
1.605356e+003,5.653589e+001
1.606320e+003,5.436389e+001
1.607284e+003,5.078052e+001
1.608249e+003,4.919183e+001
1.609213e+003,4.971680e+001
1.610177e+003,4.835431e+001
1.611141e+003,4.302325e+001
1.612106e+003,3.936725e+001
1.613070e+003,4.157941e+001
1.614034e+003,4.509668e+001
1.614998e+003,4.707770e+001
1.615963e+003,4.795026e+001
1.616927e+003,4.853333e+001
1.617891e+003,4.889075e+001
1.618855e+003,4.847943e+001
1.619820e+003,4.661609e+001
1.620784e+003,4.439661e+001
1.621748e+003,4.419379e+001
1.622712e+003,4.625708e+001
1.623677e+003,4.899377e+001
1.624641e+003,5.286646e+001
1.625605e+003,5.478979e+001
1.626569e+003,5.193439e+001
1.627533e+003,4.852435e+001
1.628498e+003,4.694397e+001
1.629462e+003,4.635620e+001
1.630426e+003,4.595044e+001
1.631390e+003,4.577869e+001
1.632354e+003,4.613135e+001
1.633319e+003,4.707837e+001
1.634283e+003,4.887915e+001
1.635247e+003,5.195111e+001
1.636211e+003,5.502557e+001
1.637176e+003,5.608679e+001
1.638140e+003,5.538159e+001
1.639104e+003,5.339343e+001
1.640068e+003,4.894769e+001
1.641033e+003,4.707874e+001
1.641997e+003,5.082025e+001
1.642961e+003,5.529816e+001
1.643925e+003,5.934949e+001
1.644890e+003,6.185559e+001
1.645854e+003,6.091949e+001
1.646818e+003,5.749890e+001
1.647782e+003,5.377728e+001
1.648747e+003,5.057520e+001
1.649711e+003,4.902087e+001
1.650675e+003,5.065631e+001
1.651639e+003,5.393829e+001
1.652604e+003,5.518463e+001
1.653568e+003,5.424005e+001
1.654532e+003,5.273285e+001
1.655496e+003,5.051477e+001
1.656460e+003,4.859717e+001
1.657425e+003,4.761450e+001
1.658389e+003,4.687994e+001
1.659353e+003,4.646393e+001
1.660317e+003,4.569305e+001
1.661281e+003,4.266327e+001
1.662246e+003,3.859552e+001
1.663210e+003,3.793500e+001
1.664174e+003,4.210529e+001
1.665138e+003,4.624872e+001
1.666103e+003,4.601367e+001
1.667067e+003,4.299786e+001
1.668031e+003,4.075336e+001
1.668995e+003,3.926001e+001
1.669960e+003,3.598248e+001
1.670924e+003,2.979266e+001
1.671888e+003,2.652515e+001
1.672852e+003,2.938971e+001
1.673817e+003,3.314453e+001
1.674781e+003,3.464410e+001
1.675745e+003,3.503644e+001
1.676709e+003,3.611462e+001
1.677674e+003,3.715955e+001
1.678638e+003,3.512018e+001
1.679602e+003,2.911920e+001
1.680566e+003,2.348309e+001
1.681531e+003,2.205261e+001
1.682495e+003,2.281079e+001
1.683459e+003,2.141583e+001
1.684423e+003,1.830194e+001
1.685387e+003,1.836157e+001
1.686352e+003,2.275739e+001
1.687316e+003,2.520575e+001
1.688280e+003,2.265222e+001
1.689244e+003,1.966583e+001
1.690208e+003,1.961475e+001
1.691173e+003,2.071912e+001
1.692137e+003,2.163843e+001
1.693101e+003,2.246088e+001
1.694065e+003,2.284277e+001
1.695030e+003,2.234869e+001
1.695994e+003,2.133990e+001
1.696958e+003,2.040485e+001
1.697922e+003,1.904645e+001
1.698887e+003,1.538470e+001
1.699851e+003,1.106226e+001
1.700815e+003,1.211047e+001
1.701779e+003,1.864075e+001
1.702744e+003,2.131110e+001
1.703708e+003,1.680066e+001
1.704672e+003,1.123645e+001
1.705636e+003,7.833252e+000
1.706601e+003,6.001038e+000
1.707565e+003,6.367981e+000
1.708529e+003,8.273193e+000
1.709493e+003,8.302368e+000
1.710458e+003,5.664307e+000
1.711422e+003,4.417786e+000
1.712386e+003,8.160156e+000
1.713350e+003,1.214893e+001
1.714314e+003,1.194336e+001
1.715279e+003,9.201111e+000
1.716243e+003,6.237122e+000
1.717207e+003,3.751038e+000
1.718171e+003,3.796570e+000
1.719135e+003,7.011719e+000
1.720100e+003,1.001349e+001
1.721064e+003,1.048608e+001
1.722028e+003,9.204956e+000
1.722992e+003,7.242798e+000
1.723957e+003,5.175964e+000
1.724921e+003,4.220032e+000
1.725885e+003,4.002380e+000
1.726849e+003,3.009094e+000
1.727814e+003,8.329468e-001
1.728778e+003,-5.325928e-001
1.729742e+003,-3.381348e-001
1.730706e+003,8.652344e-001
1.731671e+003,2.962158e+000
1.732635e+003,4.776184e+000
1.733599e+003,4.716003e+000
1.734563e+003,3.090088e+000
1.735528e+003,1.390381e+000
1.736492e+003,2.371216e-001
1.737456e+003,-1.528931e-001
1.738420e+003,5.871582e-001
1.739385e+003,1.838013e+000
1.740349e+003,2.471130e+000
1.741313e+003,2.847839e+000
1.742277e+003,2.161011e+000
1.743241e+003,-5.560913e-001
1.744206e+003,-2.140198e+000
1.745170e+003,-1.722229e+000
1.746134e+003,-1.027832e+000
1.747098e+003,-4.436646e-001
1.748063e+003,-5.740356e-001
1.749027e+003,-3.011108e+000
1.749991e+003,-6.409424e+000
1.750955e+003,-6.898438e+000
1.751919e+003,-3.764404e+000
1.752884e+003,-1.206482e+000
1.753848e+003,-2.733398e+000
1.754812e+003,-6.289978e+000
1.755776e+003,-7.393005e+000
1.756741e+003,-5.829102e+000
1.757705e+003,-5.186218e+000
1.758669e+003,-5.788269e+000
1.759633e+003,-7.299683e+000
1.760598e+003,-1.156091e+001
1.761562e+003,-1.454926e+001
1.762526e+003,-1.408734e+001
1.763490e+003,-1.232892e+001
1.764455e+003,-1.044647e+001
1.765419e+003,-8.376831e+000
1.766383e+003,-5.625183e+000
1.767347e+003,-2.666931e+000
1.768312e+003,-1.077271e+000
1.769276e+003,-1.716187e+000
1.770240e+003,-3.255310e+000
1.771204e+003,-4.073853e+000
1.772168e+003,-3.953430e+000
1.773133e+003,-2.649719e+000
1.774097e+003,-4.484863e-001
1.775061e+003,-3.516846e-001
1.776025e+003,-3.289856e+000
1.776990e+003,-6.612854e+000
1.777954e+003,-9.832825e+000
1.778918e+003,-1.112384e+001
1.779882e+003,-8.264526e+000
1.780846e+003,-4.117493e+000
1.781811e+003,-2.149536e+000
1.782775e+003,-1.762390e+000
1.783739e+003,-1.056030e+000
1.784703e+003,4.855347e-001
1.785668e+003,8.245850e-001
1.786632e+003,-2.725708e+000
1.787596e+003,-6.157715e+000
1.788560e+003,-5.329712e+000
1.789525e+003,-2.512329e+000
1.790489e+003,-1.397095e+000
1.791453e+003,-1.794434e+000
1.792417e+003,-1.678589e+000
1.793382e+003,-6.364136e-001
1.794346e+003,5.023193e-001
1.795310e+003,1.331787e+000
1.796274e+003,8.072510e-001
1.797239e+003,-2.420288e+000
1.798203e+003,-6.678772e+000
1.799167e+003,-7.881287e+000
1.800131e+003,-6.207947e+000
1.801095e+003,-5.479370e+000
1.802060e+003,-6.056458e+000
1.803024e+003,-5.493042e+000
1.803988e+003,-2.969666e+000
1.804952e+003,-5.049438e-001
1.805917e+003,1.285889e+000
1.806881e+003,2.249084e+000
1.807845e+003,2.150085e+000
1.808809e+003,1.476196e+000
1.809773e+003,7.669678e-001
1.810738e+003,3.085938e-001
1.811702e+003,3.875732e-001
1.812666e+003,1.155029e+000
1.813630e+003,2.890808e+000
1.814595e+003,6.510132e+000
1.815559e+003,1.062079e+001
1.816523e+003,8.959656e+000
1.817487e+003,8.184814e-001
1.818452e+003,-3.766968e+000
1.819416e+003,-2.912842e+000
1.820380e+003,-1.625122e+000
1.821344e+003,-1.894409e+000
1.822309e+003,-1.859863e+000
1.823273e+003,1.358215e+000
1.824237e+003,4.537354e+000
1.825201e+003,3.017578e+000
1.826166e+003,-1.414490e+000
1.827130e+003,-3.306702e+000
1.828094e+003,-1.894226e+000
1.829058e+003,-7.012329e-001
1.830022e+003,-1.661682e+000
1.830987e+003,-2.119751e+000
1.831951e+003,1.429260e+000
1.832915e+003,5.878113e+000
1.833879e+003,5.885498e+000
1.834844e+003,2.911987e+000
1.835808e+003,2.429626e+000
1.836772e+003,5.001221e+000
1.837736e+003,6.136841e+000
1.838700e+003,3.654236e+000
1.839665e+003,7.623291e-001
1.840629e+003,5.818481e-001
1.841593e+003,2.069031e+000
1.842557e+003,2.862000e+000
1.843522e+003,2.943604e+000
1.844486e+003,2.306458e+000
1.845450e+003,8.126831e-001
1.846414e+003,-2.349854e-001
1.847379e+003,-1.651611e+000
1.848343e+003,-2.687378e+000
1.849307e+003,-1.926025e+000
1.850271e+003,-1.543823e+000
1.851236e+003,-4.385559e+000
1.852200e+003,-7.445801e+000
1.853164e+003,-6.216431e+000
1.854128e+003,-1.757080e+000
1.855093e+003,1.742920e+000
1.856057e+003,2.916809e+000
1.857021e+003,2.916199e+000
1.857985e+003,2.396301e+000
1.858949e+003,1.544373e+000
1.859914e+003,3.513794e-001
1.860878e+003,-7.324219e-001
1.861842e+003,9.113770e-001
1.862806e+003,5.267700e+000
1.863771e+003,7.388123e+000
1.864735e+003,5.804077e+000
1.865699e+003,4.233887e+000
1.866663e+003,4.474976e+000
1.867627e+003,5.527466e+000
1.868592e+003,6.518616e+000
1.869556e+003,7.052124e+000
1.870520e+003,6.882813e+000
1.871484e+003,6.090149e+000
1.872449e+003,5.537903e+000
1.873413e+003,6.454224e+000
1.874377e+003,7.287537e+000
1.875341e+003,5.705505e+000
1.876306e+003,4.591003e+000
1.877270e+003,6.375610e+000
1.878234e+003,8.320007e+000
1.879198e+003,6.989990e+000
1.880163e+003,4.314026e+000
1.881127e+003,4.647217e+000
1.882091e+003,7.793823e+000
1.883055e+003,9.481873e+000
1.884020e+003,8.130615e+000
1.884984e+003,7.444824e+000
1.885948e+003,1.094641e+001
1.886912e+003,1.553101e+001
1.887876e+003,1.452710e+001
1.888841e+003,8.644348e+000
1.889805e+003,6.430298e+000
1.890769e+003,8.588562e+000
1.891733e+003,1.073163e+001
1.892698e+003,1.252728e+001
1.893662e+003,1.341693e+001
1.894626e+003,1.321515e+001
1.895590e+003,1.229211e+001
1.896554e+003,1.005859e+001
1.897519e+003,8.213196e+000
1.898483e+003,9.053955e+000
1.899447e+003,1.151239e+001
1.900411e+003,1.264880e+001
1.901376e+003,1.203351e+001
1.902340e+003,1.171558e+001
1.903304e+003,1.269031e+001
1.904268e+003,1.364642e+001
1.905233e+003,1.432886e+001
1.906197e+003,1.437372e+001
1.907161e+003,1.304443e+001
1.908125e+003,1.113013e+001
1.909090e+003,9.232727e+000
1.910054e+003,7.706177e+000
1.911018e+003,7.925415e+000
1.911982e+003,1.032373e+001
1.912947e+003,1.370172e+001
1.913911e+003,1.709442e+001
1.914875e+003,1.892993e+001
1.915839e+003,1.614862e+001
1.916803e+003,1.005914e+001
1.917768e+003,9.492432e+000
1.918732e+003,1.616101e+001
1.919696e+003,1.825385e+001
1.920660e+003,1.318994e+001
1.921625e+003,1.125507e+001
1.922589e+003,1.690234e+001
1.923553e+003,2.186987e+001
1.924517e+003,2.046082e+001
1.925481e+003,1.779413e+001
1.926446e+003,1.902527e+001
1.927410e+003,2.204413e+001
1.928374e+003,2.205115e+001
1.929338e+003,1.879077e+001
1.930303e+003,1.642694e+001
1.931267e+003,1.656586e+001
1.932231e+003,1.756744e+001
1.933195e+003,1.910938e+001
1.934160e+003,2.000189e+001
1.935124e+003,1.899792e+001
1.936088e+003,1.696356e+001
1.937052e+003,1.455463e+001
1.938017e+003,1.275684e+001
1.938981e+003,1.345752e+001
1.939945e+003,1.628265e+001
1.940909e+003,1.848883e+001
1.941874e+003,1.878522e+001
1.942838e+003,1.860907e+001
1.943802e+003,1.963751e+001
1.944766e+003,2.120160e+001
1.945730e+003,2.105432e+001
1.946695e+003,1.928070e+001
1.947659e+003,1.860626e+001
1.948623e+003,1.899695e+001
1.949587e+003,2.003424e+001
1.950552e+003,2.229791e+001
1.951516e+003,2.335834e+001
1.952480e+003,2.183685e+001
1.953444e+003,2.008771e+001
1.954408e+003,1.938086e+001
1.955373e+003,1.926990e+001
1.956337e+003,1.965332e+001
1.957301e+003,2.080157e+001
1.958265e+003,2.254645e+001
1.959230e+003,2.504639e+001
1.960194e+003,2.714197e+001
1.961158e+003,2.898450e+001
1.962122e+003,2.873956e+001
1.963087e+003,2.364301e+001
1.964051e+003,1.931464e+001
1.965015e+003,2.010657e+001
1.965979e+003,2.287372e+001
1.966944e+003,2.452509e+001
1.967908e+003,2.478320e+001
1.968872e+003,2.371173e+001
1.969836e+003,2.205518e+001
1.970801e+003,2.176971e+001
1.971765e+003,2.365167e+001
1.972729e+003,2.623993e+001
1.973693e+003,2.850336e+001
1.974657e+003,3.008032e+001
1.975622e+003,2.982013e+001
1.976586e+003,2.842200e+001
1.977550e+003,2.805066e+001
1.978514e+003,2.883173e+001
1.979479e+003,3.089508e+001
1.980443e+003,3.400336e+001
1.981407e+003,3.536548e+001
1.982371e+003,3.400330e+001
1.983335e+003,3.232721e+001
1.984300e+003,3.186377e+001
1.985264e+003,3.222095e+001
1.986228e+003,3.321698e+001
1.987192e+003,3.454852e+001
1.988157e+003,3.462946e+001
1.989121e+003,3.330853e+001
1.990085e+003,3.220520e+001
1.991049e+003,3.112256e+001
1.992014e+003,3.106952e+001
1.992978e+003,3.208716e+001
1.993942e+003,3.388190e+001
1.994906e+003,3.802423e+001
1.995871e+003,4.122968e+001
1.996835e+003,4.050336e+001
1.997799e+003,3.788708e+001
1.998763e+003,3.555963e+001
1.999728e+003,3.388086e+001
