5.003444e+002,1.924069e+002
5.013087e+002,1.922450e+002
5.022729e+002,1.898715e+002
5.032371e+002,1.862113e+002
5.042014e+002,1.809773e+002
5.051656e+002,1.747504e+002
5.061298e+002,1.699423e+002
5.070941e+002,1.687827e+002
5.080583e+002,1.718940e+002
5.090225e+002,1.723582e+002
5.099868e+002,1.680668e+002
5.109510e+002,1.641307e+002
5.119152e+002,1.639274e+002
5.128795e+002,1.679592e+002
5.138437e+002,1.705330e+002
5.148079e+002,1.697067e+002
5.157722e+002,1.675167e+002
5.167364e+002,1.635814e+002
5.177006e+002,1.581838e+002
5.186649e+002,1.525487e+002
5.196291e+002,1.488075e+002
5.205933e+002,1.471411e+002
5.215576e+002,1.469556e+002
5.225218e+002,1.473422e+002
5.234860e+002,1.472836e+002
5.244503e+002,1.458673e+002
5.254145e+002,1.437975e+002
5.263787e+002,1.410974e+002
5.273430e+002,1.369232e+002
5.283072e+002,1.326782e+002
5.292714e+002,1.301720e+002
5.302357e+002,1.294008e+002
5.311999e+002,1.277620e+002
5.321641e+002,1.265181e+002
5.331284e+002,1.252489e+002
5.340926e+002,1.228577e+002
5.350568e+002,1.184038e+002
5.360211e+002,1.134690e+002
5.369853e+002,1.108821e+002
5.379495e+002,1.094547e+002
5.389138e+002,1.078590e+002
5.398780e+002,1.054750e+002
5.408422e+002,1.027421e+002
5.418065e+002,1.015947e+002
5.427707e+002,1.017048e+002
5.437349e+002,1.004569e+002
5.446992e+002,9.661365e+001
5.456634e+002,9.104395e+001
5.466276e+002,8.712390e+001
5.475919e+002,8.747949e+001
5.485561e+002,8.701660e+001
5.495203e+002,8.433862e+001
5.504846e+002,8.047534e+001
5.514488e+002,7.719348e+001
5.524130e+002,7.555750e+001
5.533773e+002,7.494604e+001
5.543415e+002,7.569995e+001
5.553057e+002,7.668530e+001
5.562700e+002,7.637317e+001
5.572342e+002,7.373486e+001
5.581984e+002,6.985791e+001
5.591627e+002,6.823438e+001
5.601269e+002,6.843530e+001
5.610911e+002,6.871228e+001
5.620554e+002,6.795203e+001
5.630196e+002,6.591895e+001
5.639838e+002,6.325586e+001
5.649481e+002,5.897400e+001
5.659123e+002,5.558215e+001
5.668765e+002,5.545203e+001
5.678408e+002,5.768774e+001
5.688050e+002,5.829504e+001
5.697692e+002,5.325562e+001
5.707335e+002,4.813757e+001
5.716977e+002,4.501379e+001
5.726619e+002,4.334521e+001
5.736262e+002,4.238135e+001
5.745904e+002,4.184143e+001
5.755546e+002,4.167371e+001
5.765189e+002,4.027710e+001
5.774831e+002,3.806787e+001
5.784473e+002,3.719312e+001
5.794116e+002,3.942871e+001
5.803758e+002,4.486365e+001
5.813400e+002,4.763708e+001
5.823043e+002,4.672302e+001
5.832685e+002,4.390723e+001
5.842327e+002,3.912439e+001
5.851970e+002,3.347729e+001
5.861612e+002,3.084241e+001
5.871254e+002,3.325818e+001
5.880897e+002,3.624219e+001
5.890539e+002,4.024683e+001
5.900181e+002,4.356458e+001
5.909824e+002,4.348328e+001
5.919466e+002,3.727637e+001
5.929108e+002,3.024011e+001
5.938751e+002,2.834045e+001
5.948393e+002,2.938916e+001
5.958035e+002,3.007422e+001
5.967678e+002,2.809546e+001
5.977320e+002,2.436853e+001
5.986962e+002,2.405359e+001
5.996605e+002,2.627283e+001
6.006247e+002,2.781873e+001
6.015889e+002,2.694275e+001
6.025532e+002,2.394763e+001
6.035174e+002,2.197595e+001
6.044816e+002,2.217346e+001
6.054459e+002,2.256653e+001
6.064101e+002,2.270642e+001
6.073743e+002,2.280688e+001
6.083386e+002,2.380481e+001
6.093028e+002,2.752954e+001
6.102670e+002,2.974512e+001
6.112313e+002,2.459119e+001
6.121955e+002,1.693787e+001
6.131597e+002,1.405176e+001
6.141240e+002,2.071533e+001
6.150882e+002,3.328149e+001
6.160524e+002,3.576868e+001
6.170167e+002,3.038831e+001
6.179809e+002,2.478052e+001
6.189451e+002,2.170862e+001
6.199094e+002,2.057361e+001
6.208736e+002,1.963501e+001
6.218378e+002,2.142712e+001
6.228021e+002,2.199915e+001
6.237663e+002,1.997986e+001
6.247305e+002,1.704639e+001
6.256948e+002,1.581689e+001
6.266590e+002,1.752222e+001
6.276232e+002,1.854285e+001
6.285875e+002,1.766882e+001
6.295517e+002,1.578833e+001
6.305159e+002,1.289917e+001
6.314802e+002,8.974243e+000
6.324444e+002,4.870850e+000
6.334086e+002,5.003662e+000
6.343729e+002,8.541382e+000
6.353371e+002,1.232324e+001
6.363013e+002,1.541467e+001
6.372656e+002,1.708472e+001
6.382298e+002,1.522461e+001
6.391940e+002,3.284058e+000
6.401583e+002,-3.952026e+000
6.411225e+002,-1.569458e+000
6.420867e+002,4.736694e+000
6.430510e+002,7.142578e+000
6.440152e+002,1.558228e+000
6.449794e+002,-3.509033e+000
6.459437e+002,-2.073486e+000
6.469079e+002,6.087646e-001
6.478721e+002,3.209229e-001
6.488364e+002,-4.019531e+000
6.498006e+002,-9.374634e+000
6.507648e+002,-1.072620e+001
6.517291e+002,-9.410889e+000
6.526933e+002,-7.795654e+000
6.536575e+002,-6.336792e+000
6.546218e+002,-4.980957e+000
6.555860e+002,-3.512573e+000
6.565502e+002,-1.523071e+000
6.575145e+002,-7.506104e-001
6.584787e+002,-1.419678e+000
6.594429e+002,-2.809204e+000
6.604072e+002,-4.673584e+000
6.613714e+002,-7.083130e+000
6.623356e+002,-8.685303e+000
6.632999e+002,-8.851807e+000
6.642641e+002,-9.043579e+000
6.652283e+002,-9.185303e+000
6.661926e+002,-9.197266e+000
6.671568e+002,-9.406860e+000
6.681210e+002,-1.112451e+001
6.690853e+002,-1.337073e+001
6.700495e+002,-1.257593e+001
6.710137e+002,-8.819580e+000
6.719780e+002,-4.447510e+000
6.729422e+002,-1.989990e+000
6.739064e+002,-2.010620e+000
6.748707e+002,-2.624756e+000
6.758349e+002,-4.341064e+000
6.767991e+002,-6.191528e+000
6.777634e+002,-7.449341e+000
6.787276e+002,-7.578247e+000
6.796918e+002,-6.180908e+000
6.806561e+002,-1.656006e+000
6.816203e+002,1.274658e+000
6.825845e+002,-4.353027e-001
6.835488e+002,-4.670410e+000
6.845130e+002,-7.660034e+000
6.854772e+002,-6.316528e+000
6.864415e+002,-2.491455e+000
6.874057e+002,-2.058960e+000
6.883699e+002,-4.563843e+000
6.893342e+002,-6.879517e+000
6.902984e+002,-6.979858e+000
6.912626e+002,-5.127319e+000
6.922269e+002,-4.761108e+000
6.931911e+002,-6.182373e+000
6.941553e+002,-6.544678e+000
6.951196e+002,-6.336792e+000
6.960838e+002,-6.036987e+000
6.970480e+002,-5.786865e+000
6.980123e+002,-5.269165e+000
6.989765e+002,-4.604248e+000
6.999407e+002,-3.426758e+000
7.009050e+002,-2.667480e+000
7.018692e+002,-3.822388e+000
7.028334e+002,-7.095459e+000
7.037977e+002,-1.034558e+001
7.047619e+002,-8.524658e+000
7.057261e+002,-3.750122e+000
7.066904e+002,-2.076416e+000
7.076546e+002,-4.513184e+000
7.086188e+002,-8.120728e+000
7.095831e+002,-8.143555e+000
7.105473e+002,-3.196045e+000
7.115115e+002,-2.296143e-001
7.124758e+002,4.802246e-001
7.134400e+002,-4.707031e-001
7.144042e+002,-3.205444e+000
7.153685e+002,-7.297974e+000
7.163327e+002,-1.013013e+001
7.172969e+002,-1.005872e+001
7.182612e+002,-8.515869e+000
7.192254e+002,-4.950806e+000
7.201896e+002,-7.947998e-001
7.211539e+002,1.622314e+000
7.221181e+002,2.979736e-001
7.230823e+002,-3.388916e+000
7.240466e+002,-5.677002e+000
7.250108e+002,-6.225708e+000
7.259750e+002,-5.789429e+000
7.269393e+002,-5.496704e+000
7.279035e+002,-5.955688e+000
7.288677e+002,-5.833496e+000
7.298320e+002,-8.254395e-001
7.307962e+002,2.343506e+000
7.317604e+002,1.286865e+000
7.327247e+002,-8.884277e-001
7.336889e+002,1.865234e-001
7.346531e+002,5.875122e+000
7.356174e+002,8.942505e+000
7.365816e+002,5.681396e+000
7.375458e+002,1.139893e+000
7.385101e+002,-1.233032e+000
7.394743e+002,-4.752197e-001
7.404385e+002,2.055420e+000
7.414028e+002,4.478149e+000
7.423670e+002,5.068970e+000
7.433312e+002,3.709961e+000
7.442955e+002,1.460938e+000
7.452597e+002,-1.119873e+000
7.462239e+002,-4.672974e+000
7.471882e+002,-1.079285e+001
7.481524e+002,-1.198682e+001
7.491166e+002,-5.858276e+000
7.500809e+002,-6.356201e-001
7.510451e+002,7.581787e-001
7.520093e+002,-1.272217e+000
7.529736e+002,-4.591553e+000
7.539378e+002,-8.802124e+000
7.549020e+002,-1.107764e+001
7.558663e+002,-9.774780e+000
7.568306e+002,-6.022583e+000
7.577948e+002,-9.089355e-001
7.587590e+002,4.462524e+000
7.597233e+002,8.727173e+000
7.606875e+002,8.360962e+000
7.616517e+002,4.528442e+000
7.626160e+002,1.864868e+000
7.635802e+002,1.765381e+000
7.645444e+002,3.538208e+000
7.655087e+002,5.797363e+000
7.664729e+002,9.220093e+000
7.674371e+002,1.091663e+001
7.684014e+002,8.466187e+000
7.693656e+002,6.414917e+000
7.703298e+002,8.573242e+000
7.712941e+002,1.505505e+001
7.722583e+002,2.133289e+001
7.732225e+002,2.446057e+001
7.741868e+002,2.541797e+001
7.751510e+002,2.385608e+001
7.761152e+002,2.089197e+001
7.770795e+002,1.863220e+001
7.780437e+002,1.884680e+001
7.790079e+002,2.097070e+001
7.799722e+002,2.213403e+001
7.809364e+002,2.254468e+001
7.819006e+002,2.175623e+001
7.828649e+002,1.960327e+001
7.838291e+002,1.688367e+001
7.847933e+002,1.492786e+001
7.857576e+002,1.263770e+001
7.867218e+002,1.094763e+001
7.876860e+002,1.168274e+001
7.886503e+002,1.322192e+001
7.896145e+002,1.390076e+001
7.905787e+002,1.336353e+001
7.915430e+002,1.324146e+001
7.925072e+002,1.519836e+001
7.934714e+002,1.729260e+001
7.944357e+002,1.878613e+001
7.953999e+002,1.982715e+001
7.963641e+002,1.990662e+001
7.973284e+002,1.802429e+001
7.982926e+002,1.396814e+001
7.992568e+002,1.263391e+001
8.002211e+002,1.327356e+001
8.011853e+002,1.357239e+001
8.021495e+002,1.456006e+001
8.031138e+002,1.674109e+001
8.040780e+002,1.832312e+001
8.050422e+002,1.677356e+001
8.060065e+002,1.601416e+001
8.069707e+002,1.718921e+001
8.079349e+002,1.880286e+001
8.088992e+002,1.911816e+001
8.098634e+002,1.809912e+001
8.108276e+002,1.870874e+001
8.117919e+002,2.774268e+001
8.127561e+002,3.839111e+001
8.137203e+002,3.764624e+001
8.146846e+002,2.506897e+001
8.156488e+002,1.025647e+001
8.166130e+002,4.537964e+000
8.175773e+002,9.426025e+000
8.185415e+002,1.309021e+001
8.195057e+002,1.342163e+001
8.204700e+002,1.393665e+001
8.214342e+002,1.616479e+001
8.223984e+002,1.950488e+001
8.233627e+002,2.249036e+001
8.243269e+002,2.553406e+001
8.252911e+002,2.674963e+001
8.262554e+002,2.421094e+001
8.272196e+002,2.018628e+001
8.281838e+002,1.645264e+001
8.291481e+002,1.389954e+001
8.301123e+002,1.269958e+001
8.310765e+002,1.344495e+001
8.320408e+002,1.590564e+001
8.330050e+002,1.851563e+001
8.339692e+002,2.158606e+001
8.349335e+002,2.421228e+001
8.358977e+002,2.566162e+001
8.368619e+002,2.628284e+001
8.378262e+002,2.642712e+001
8.387904e+002,2.529797e+001
8.397546e+002,2.338281e+001
8.407189e+002,1.893335e+001
8.416831e+002,1.436316e+001
8.426473e+002,1.435083e+001
8.436116e+002,2.201770e+001
8.445758e+002,3.072656e+001
8.455400e+002,3.238269e+001
8.465043e+002,2.996692e+001
8.474685e+002,2.680432e+001
8.484327e+002,2.481970e+001
8.493970e+002,2.499988e+001
8.503612e+002,2.818396e+001
8.513254e+002,3.473706e+001
8.522897e+002,3.915942e+001
8.532539e+002,4.019690e+001
8.542181e+002,4.007324e+001
8.551824e+002,4.059717e+001
8.561466e+002,4.247412e+001
8.571108e+002,4.537097e+001
8.580751e+002,4.723181e+001
8.590393e+002,4.903748e+001
8.600035e+002,5.210779e+001
8.609678e+002,5.609045e+001
8.619320e+002,6.037463e+001
8.628962e+002,6.459985e+001
8.638605e+002,6.899121e+001
8.648247e+002,7.482739e+001
8.657889e+002,8.062805e+001
8.667532e+002,8.292993e+001
8.677174e+002,8.128003e+001
8.686816e+002,7.881348e+001
8.696459e+002,7.959363e+001
8.706101e+002,8.483777e+001
8.715743e+002,8.716223e+001
8.725386e+002,8.311194e+001
8.735028e+002,8.096313e+001
8.744670e+002,8.309155e+001
8.754313e+002,8.735132e+001
8.763955e+002,9.014307e+001
8.773597e+002,9.026160e+001
8.783240e+002,9.060645e+001
8.792882e+002,9.368872e+001
8.802524e+002,9.701160e+001
8.812167e+002,9.790479e+001
8.821809e+002,9.636536e+001
8.831451e+002,9.511438e+001
8.841094e+002,9.799609e+001
8.850736e+002,1.052648e+002
8.860378e+002,1.094803e+002
8.870021e+002,1.096409e+002
8.879663e+002,1.092156e+002
8.889305e+002,1.095326e+002
8.898948e+002,1.103042e+002
8.908590e+002,1.112943e+002
8.918232e+002,1.130693e+002
8.927875e+002,1.155182e+002
8.937517e+002,1.189740e+002
8.947159e+002,1.227896e+002
8.956802e+002,1.258601e+002
8.966444e+002,1.276508e+002
8.976086e+002,1.288091e+002
8.985729e+002,1.308400e+002
8.995371e+002,1.334928e+002
9.005013e+002,1.353364e+002
9.014656e+002,1.368035e+002
9.024298e+002,1.386836e+002
9.033940e+002,1.411797e+002
9.043583e+002,1.435216e+002
9.053225e+002,1.443608e+002
9.062867e+002,1.404163e+002
9.072510e+002,1.382031e+002
9.082152e+002,1.403284e+002
9.091794e+002,1.443162e+002
9.101437e+002,1.474574e+002
9.111079e+002,1.492372e+002
9.120721e+002,1.512701e+002
9.130364e+002,1.544966e+002
9.140006e+002,1.568586e+002
9.149648e+002,1.576012e+002
9.159291e+002,1.575323e+002
9.168933e+002,1.579755e+002
9.178575e+002,1.594586e+002
9.188218e+002,1.604751e+002
9.197860e+002,1.562944e+002
9.207502e+002,1.464154e+002
9.217145e+002,1.381984e+002
9.226787e+002,1.343694e+002
9.236429e+002,1.332805e+002
9.246072e+002,1.322161e+002
9.255714e+002,1.305137e+002
9.265356e+002,1.292863e+002
9.274999e+002,1.293376e+002
9.284641e+002,1.285499e+002
9.294283e+002,1.261979e+002
9.303926e+002,1.230521e+002
9.313568e+002,1.199984e+002
9.323210e+002,1.173479e+002
9.332853e+002,1.156227e+002
9.342495e+002,1.183329e+002
9.352137e+002,1.218173e+002
9.361780e+002,1.194871e+002
9.371422e+002,1.106156e+002
9.381064e+002,1.009349e+002
9.390707e+002,9.749573e+001
9.400349e+002,1.003947e+002
9.409991e+002,1.035371e+002
9.419634e+002,1.078011e+002
9.429276e+002,1.107955e+002
9.438918e+002,1.119648e+002
9.448561e+002,1.117552e+002
9.458203e+002,1.105803e+002
9.467845e+002,1.084211e+002
9.477488e+002,1.072235e+002
9.487130e+002,1.096545e+002
9.496772e+002,1.124502e+002
9.506415e+002,1.124978e+002
9.516057e+002,1.100658e+002
9.525699e+002,1.077571e+002
9.535342e+002,1.080439e+002
9.544984e+002,1.102216e+002
9.554626e+002,1.107719e+002
9.564269e+002,1.107830e+002
9.573911e+002,1.102655e+002
9.583553e+002,1.077198e+002
9.593196e+002,1.048069e+002
9.602838e+002,1.046589e+002
9.612480e+002,1.078676e+002
9.622123e+002,1.107378e+002
9.631765e+002,1.134464e+002
9.641407e+002,1.149309e+002
9.651050e+002,1.142385e+002
9.660692e+002,1.113993e+002
9.670334e+002,1.064746e+002
9.679977e+002,9.981335e+001
9.689619e+002,9.405127e+001
9.699261e+002,9.381213e+001
9.708904e+002,9.739551e+001
9.718546e+002,1.031182e+002
9.728188e+002,1.106429e+002
9.737831e+002,1.188074e+002
9.747473e+002,1.263293e+002
9.757115e+002,1.331840e+002
9.766758e+002,1.409951e+002
9.776400e+002,1.554905e+002
9.786042e+002,1.652075e+002
9.795685e+002,1.659659e+002
9.805327e+002,1.598485e+002
9.814969e+002,1.494467e+002
9.824612e+002,1.360769e+002
9.834254e+002,1.226210e+002
9.843896e+002,1.093024e+002
9.853539e+002,9.772803e+001
9.863181e+002,9.069043e+001
9.872823e+002,8.738257e+001
9.882466e+002,8.514319e+001
9.892108e+002,8.243457e+001
9.901750e+002,8.058386e+001
9.911393e+002,8.202075e+001
9.921035e+002,8.681018e+001
9.930677e+002,9.083057e+001
9.940320e+002,9.356555e+001
9.949962e+002,9.722839e+001
9.959604e+002,1.044956e+002
9.969247e+002,1.154742e+002
9.978889e+002,1.260197e+002
9.988531e+002,1.336230e+002
9.998174e+002,1.384637e+002
1.000782e+003,1.410953e+002
1.001746e+003,1.424594e+002
1.002710e+003,1.432509e+002
1.003674e+003,1.437574e+002
1.004639e+003,1.440071e+002
1.005603e+003,1.440686e+002
1.006567e+003,1.436475e+002
1.007531e+003,1.437811e+002
1.008495e+003,1.447626e+002
1.009460e+003,1.459406e+002
1.010424e+003,1.473827e+002
1.011388e+003,1.490710e+002
1.012352e+003,1.503473e+002
1.013317e+003,1.513767e+002
1.014281e+003,1.503158e+002
1.015245e+003,1.474460e+002
1.016209e+003,1.415680e+002
1.017174e+003,1.302053e+002
1.018138e+003,1.149545e+002
1.019102e+003,1.009569e+002
1.020066e+003,9.276501e+001
1.021031e+003,8.857239e+001
1.021995e+003,8.134399e+001
1.022959e+003,7.114954e+001
1.023923e+003,6.242383e+001
1.024887e+003,5.676563e+001
1.025852e+003,5.261780e+001
1.026816e+003,4.774695e+001
1.027780e+003,4.238257e+001
1.028744e+003,3.799719e+001
1.029709e+003,3.420618e+001
1.030673e+003,3.163318e+001
1.031637e+003,3.171875e+001
1.032601e+003,3.218689e+001
1.033566e+003,2.942896e+001
1.034530e+003,2.253918e+001
1.035494e+003,1.639600e+001
1.036458e+003,1.680493e+001
1.037422e+003,2.071338e+001
1.038387e+003,2.331812e+001
1.039351e+003,2.429626e+001
1.040315e+003,2.497180e+001
1.041279e+003,2.663684e+001
1.042244e+003,2.923767e+001
1.043208e+003,3.096594e+001
1.044172e+003,2.994629e+001
1.045136e+003,2.982922e+001
1.046101e+003,3.300427e+001
1.047065e+003,3.550085e+001
1.048029e+003,3.358508e+001
1.048993e+003,2.822705e+001
1.049958e+003,2.409241e+001
1.050922e+003,2.369226e+001
1.051886e+003,2.554419e+001
1.052850e+003,2.985352e+001
1.053814e+003,3.417871e+001
1.054779e+003,3.414111e+001
1.055743e+003,2.930286e+001
1.056707e+003,2.414014e+001
1.057671e+003,2.416064e+001
1.058636e+003,2.925977e+001
1.059600e+003,3.310889e+001
1.060564e+003,3.780615e+001
1.061528e+003,4.019165e+001
1.062493e+003,3.685938e+001
1.063457e+003,3.152820e+001
1.064421e+003,2.900171e+001
1.065385e+003,3.006641e+001
1.066349e+003,3.115906e+001
1.067314e+003,3.042297e+001
1.068278e+003,2.931396e+001
1.069242e+003,2.916467e+001
1.070206e+003,2.965369e+001
1.071171e+003,2.984961e+001
1.072135e+003,2.908411e+001
1.073099e+003,2.737134e+001
1.074063e+003,2.523950e+001
1.075028e+003,2.286060e+001
1.075992e+003,2.183777e+001
1.076956e+003,2.245374e+001
1.077920e+003,2.251465e+001
1.078885e+003,2.145056e+001
1.079849e+003,2.020459e+001
1.080813e+003,2.006934e+001
1.081777e+003,2.142773e+001
1.082741e+003,2.336377e+001
1.083706e+003,2.569104e+001
1.084670e+003,2.673816e+001
1.085634e+003,2.484961e+001
1.086598e+003,2.105847e+001
1.087563e+003,1.713879e+001
1.088527e+003,1.456299e+001
1.089491e+003,1.446667e+001
1.090455e+003,1.866663e+001
1.091420e+003,2.720276e+001
1.092384e+003,3.046924e+001
1.093348e+003,2.565930e+001
1.094312e+003,1.981921e+001
1.095276e+003,1.705029e+001
1.096241e+003,1.722815e+001
1.097205e+003,1.933936e+001
1.098169e+003,2.418005e+001
1.099133e+003,2.661597e+001
1.100098e+003,2.248389e+001
1.101062e+003,1.826636e+001
1.102026e+003,1.864355e+001
1.102990e+003,2.243225e+001
1.103955e+003,2.547278e+001
1.104919e+003,2.512598e+001
1.105883e+003,2.322180e+001
1.106847e+003,2.441174e+001
1.107812e+003,2.859619e+001
1.108776e+003,3.014868e+001
1.109740e+003,2.792432e+001
1.110704e+003,2.498450e+001
1.111668e+003,2.321643e+001
1.112633e+003,2.326917e+001
1.113597e+003,2.671375e+001
1.114561e+003,3.557776e+001
1.115525e+003,4.191907e+001
1.116490e+003,4.077551e+001
1.117454e+003,3.884778e+001
1.118418e+003,4.135986e+001
1.119382e+003,4.765808e+001
1.120347e+003,5.379260e+001
1.121311e+003,5.678650e+001
1.122275e+003,5.707886e+001
1.123239e+003,5.691248e+001
1.124203e+003,5.738904e+001
1.125168e+003,6.040515e+001
1.126132e+003,6.735437e+001
1.127096e+003,7.420349e+001
1.128060e+003,7.695972e+001
1.129025e+003,7.633923e+001
1.129989e+003,7.707495e+001
1.130953e+003,8.005310e+001
1.131917e+003,8.228809e+001
1.132882e+003,8.188623e+001
1.133846e+003,8.225049e+001
1.134810e+003,8.527136e+001
1.135774e+003,9.096570e+001
1.136739e+003,9.877405e+001
1.137703e+003,1.082804e+002
1.138667e+003,1.187020e+002
1.139631e+003,1.285865e+002
1.140595e+003,1.381802e+002
1.141560e+003,1.504479e+002
1.142524e+003,1.660299e+002
1.143488e+003,1.845878e+002
1.144452e+003,2.064265e+002
1.145417e+003,2.308185e+002
1.146381e+003,2.545940e+002
1.147345e+003,2.755869e+002
1.148309e+003,3.011434e+002
1.149274e+003,3.348840e+002
1.150238e+003,3.720338e+002
1.151202e+003,4.147496e+002
1.152166e+003,4.587020e+002
1.153130e+003,4.965792e+002
1.154095e+003,5.244286e+002
1.155059e+003,5.446776e+002
1.156023e+003,5.629563e+002
1.156987e+003,5.776420e+002
1.157952e+003,5.785670e+002
1.158916e+003,5.658746e+002
1.159880e+003,5.476913e+002
1.160844e+003,5.263967e+002
1.161809e+003,5.004497e+002
1.162773e+003,4.676991e+002
1.163737e+003,4.265491e+002
1.164701e+003,3.862158e+002
1.165666e+003,3.487050e+002
1.166630e+003,3.138846e+002
1.167594e+003,2.782146e+002
1.168558e+003,2.465920e+002
1.169522e+003,2.268073e+002
1.170487e+003,2.202876e+002
1.171451e+003,2.205010e+002
1.172415e+003,2.205294e+002
1.173379e+003,2.201046e+002
1.174344e+003,2.191969e+002
1.175308e+003,2.181744e+002
1.176272e+003,2.162267e+002
1.177236e+003,2.140741e+002
1.178201e+003,2.106167e+002
1.179165e+003,2.032281e+002
1.180129e+003,1.913021e+002
1.181093e+003,1.796370e+002
1.182057e+003,1.679136e+002
1.183022e+003,1.595269e+002
1.183986e+003,1.577190e+002
1.184950e+003,1.580419e+002
1.185914e+003,1.560243e+002
1.186879e+003,1.517651e+002
1.187843e+003,1.486973e+002
1.188807e+003,1.494080e+002
1.189771e+003,1.527206e+002
1.190736e+003,1.566780e+002
1.191700e+003,1.615878e+002
1.192664e+003,1.622211e+002
1.193628e+003,1.564877e+002
1.194593e+003,1.494409e+002
1.195557e+003,1.441835e+002
1.196521e+003,1.402405e+002
1.197485e+003,1.366147e+002
1.198449e+003,1.338514e+002
1.199414e+003,1.296487e+002
1.200378e+003,1.212385e+002
1.201342e+003,1.127429e+002
1.202306e+003,1.071571e+002
1.203271e+003,1.030778e+002
1.204235e+003,9.709314e+001
1.205199e+003,8.786194e+001
1.206163e+003,7.798193e+001
1.207128e+003,7.185718e+001
1.208092e+003,6.988196e+001
1.209056e+003,6.385901e+001
1.210020e+003,5.149695e+001
1.210984e+003,4.053430e+001
1.211949e+003,3.419067e+001
1.212913e+003,2.945801e+001
1.213877e+003,2.279041e+001
1.214841e+003,1.412976e+001
1.215806e+003,5.031738e+000
1.216770e+003,-5.861084e+000
1.217734e+003,-1.410083e+001
1.218698e+003,-1.521460e+001
1.219663e+003,-1.387732e+001
1.220627e+003,-1.583215e+001
1.221591e+003,-2.185364e+001
1.222555e+003,-2.900476e+001
1.223520e+003,-3.452246e+001
1.224484e+003,-3.813904e+001
1.225448e+003,-3.985925e+001
1.226412e+003,-3.861963e+001
1.227376e+003,-3.810083e+001
1.228341e+003,-4.073572e+001
1.229305e+003,-4.181775e+001
1.230269e+003,-3.549255e+001
1.231233e+003,-2.678223e+001
1.232198e+003,-2.735083e+001
1.233162e+003,-4.046545e+001
1.234126e+003,-5.192944e+001
1.235090e+003,-5.048462e+001
1.236055e+003,-4.414746e+001
1.237019e+003,-4.032349e+001
1.237983e+003,-3.924805e+001
1.238947e+003,-4.070715e+001
1.239911e+003,-4.424146e+001
1.240876e+003,-4.758215e+001
1.241840e+003,-4.747864e+001
1.242804e+003,-4.364575e+001
1.243768e+003,-4.099658e+001
1.244733e+003,-3.997754e+001
1.245697e+003,-3.966772e+001
1.246661e+003,-4.236462e+001
1.247625e+003,-4.482068e+001
1.248590e+003,-4.369604e+001
1.249554e+003,-3.939075e+001
1.250518e+003,-3.433655e+001
1.251482e+003,-2.975085e+001
1.252447e+003,-2.744983e+001
1.253411e+003,-3.175146e+001
1.254375e+003,-3.784644e+001
1.255339e+003,-3.509753e+001
1.256303e+003,-2.315662e+001
1.257268e+003,-1.071301e+001
1.258232e+003,-2.730469e+000
1.259196e+003,1.393311e+000
1.260160e+003,3.365479e+000
1.261125e+003,3.270752e+000
1.262089e+003,4.060547e+000
1.263053e+003,4.956299e+000
1.264017e+003,6.971558e+000
1.264982e+003,1.268469e+001
1.265946e+003,1.837573e+001
1.266910e+003,2.037769e+001
1.267874e+003,1.878528e+001
1.268839e+003,1.608777e+001
1.269803e+003,1.395264e+001
1.270767e+003,1.212915e+001
1.271731e+003,1.047620e+001
1.272695e+003,9.140625e+000
1.273660e+003,5.991821e+000
1.274624e+003,-6.340332e-001
1.275588e+003,-7.461548e+000
1.276552e+003,-1.224084e+001
1.277517e+003,-1.518225e+001
1.278481e+003,-1.745911e+001
1.279445e+003,-1.935889e+001
1.280409e+003,-2.021399e+001
1.281374e+003,-1.817273e+001
1.282338e+003,-1.709058e+001
1.283302e+003,-2.021094e+001
1.284266e+003,-2.467432e+001
1.285230e+003,-2.697083e+001
1.286195e+003,-2.694458e+001
1.287159e+003,-2.686633e+001
1.288123e+003,-2.833630e+001
1.289087e+003,-3.078162e+001
1.290052e+003,-3.370032e+001
1.291016e+003,-3.799634e+001
1.291980e+003,-4.120850e+001
1.292944e+003,-4.422705e+001
1.293909e+003,-4.624438e+001
1.294873e+003,-4.560962e+001
1.295837e+003,-4.358582e+001
1.296801e+003,-4.182935e+001
1.297766e+003,-4.067285e+001
1.298730e+003,-4.085144e+001
1.299694e+003,-4.430774e+001
1.300658e+003,-4.724780e+001
1.301622e+003,-4.259448e+001
1.302587e+003,-3.521741e+001
1.303551e+003,-3.431641e+001
1.304515e+003,-4.072791e+001
1.305479e+003,-4.689355e+001
1.306444e+003,-4.719568e+001
1.307408e+003,-4.300562e+001
1.308372e+003,-3.730652e+001
1.309336e+003,-2.815552e+001
1.310301e+003,-2.382861e+001
1.311265e+003,-2.774841e+001
1.312229e+003,-3.196875e+001
1.313193e+003,-3.483398e+001
1.314157e+003,-3.674072e+001
1.315122e+003,-3.832031e+001
1.316086e+003,-3.979028e+001
1.317050e+003,-4.100061e+001
1.318014e+003,-4.162329e+001
1.318979e+003,-4.120886e+001
1.319943e+003,-3.891565e+001
1.320907e+003,-3.479858e+001
1.321871e+003,-3.172278e+001
1.322836e+003,-3.047327e+001
1.323800e+003,-3.073291e+001
1.324764e+003,-3.390613e+001
1.325728e+003,-3.744812e+001
1.326693e+003,-3.671655e+001
1.327657e+003,-3.184229e+001
1.328621e+003,-2.774768e+001
1.329585e+003,-2.418005e+001
1.330549e+003,-2.075500e+001
1.331514e+003,-1.810986e+001
1.332478e+003,-1.729175e+001
1.333442e+003,-1.953320e+001
1.334406e+003,-2.380762e+001
1.335371e+003,-2.791516e+001
1.336335e+003,-3.047559e+001
1.337299e+003,-3.123792e+001
1.338263e+003,-2.977258e+001
1.339228e+003,-2.570190e+001
1.340192e+003,-2.268176e+001
1.341156e+003,-1.986865e+001
1.342120e+003,-1.926855e+001
1.343084e+003,-2.381116e+001
1.344049e+003,-2.939929e+001
1.345013e+003,-3.247449e+001
1.345977e+003,-3.279504e+001
1.346941e+003,-3.114990e+001
1.347906e+003,-2.772571e+001
1.348870e+003,-2.487366e+001
1.349834e+003,-2.553870e+001
1.350798e+003,-2.812000e+001
1.351763e+003,-2.850720e+001
1.352727e+003,-2.699048e+001
1.353691e+003,-2.657068e+001
1.354655e+003,-2.863806e+001
1.355620e+003,-3.078516e+001
1.356584e+003,-2.962488e+001
1.357548e+003,-2.543103e+001
1.358512e+003,-2.245203e+001
1.359476e+003,-2.162573e+001
1.360441e+003,-2.205945e+001
1.361405e+003,-2.427576e+001
1.362369e+003,-2.620190e+001
1.363333e+003,-2.603711e+001
1.364298e+003,-2.526343e+001
1.365262e+003,-2.634607e+001
1.366226e+003,-2.955432e+001
1.367190e+003,-3.286267e+001
1.368155e+003,-3.449084e+001
1.369119e+003,-3.456897e+001
1.370083e+003,-3.322461e+001
1.371047e+003,-2.952283e+001
1.372011e+003,-2.705823e+001
1.372976e+003,-2.770313e+001
1.373940e+003,-2.837048e+001
1.374904e+003,-2.770276e+001
1.375868e+003,-2.606213e+001
1.376833e+003,-2.382544e+001
1.377797e+003,-2.136365e+001
1.378761e+003,-1.960718e+001
1.379725e+003,-1.891223e+001
1.380690e+003,-1.856396e+001
1.381654e+003,-1.714404e+001
1.382618e+003,-1.572778e+001
1.383582e+003,-1.747168e+001
1.384547e+003,-2.158301e+001
1.385511e+003,-2.149719e+001
1.386475e+003,-1.328174e+001
1.387439e+003,-2.587769e+000
1.388403e+003,2.089966e+000
1.389368e+003,6.990967e-001
1.390332e+003,-1.379028e+000
1.391296e+003,-4.396484e+000
1.392260e+003,-6.442261e+000
1.393225e+003,-6.965576e+000
1.394189e+003,-6.974976e+000
1.395153e+003,-5.841797e+000
1.396117e+003,-5.044189e+000
1.397082e+003,-7.739502e+000
1.398046e+003,-1.365161e+001
1.399010e+003,-1.764685e+001
1.399974e+003,-1.523682e+001
1.400938e+003,-9.643066e+000
1.401903e+003,-9.227539e+000
1.402867e+003,-1.413257e+001
1.403831e+003,-1.633276e+001
1.404795e+003,-1.608826e+001
1.405760e+003,-1.452893e+001
1.406724e+003,-1.216907e+001
1.407688e+003,-1.063550e+001
1.408652e+003,-1.099695e+001
1.409617e+003,-1.234717e+001
1.410581e+003,-1.261853e+001
1.411545e+003,-1.083704e+001
1.412509e+003,-8.840820e+000
1.413474e+003,-9.050293e+000
1.414438e+003,-1.082813e+001
1.415402e+003,-1.186987e+001
1.416366e+003,-1.173779e+001
1.417330e+003,-1.128625e+001
1.418295e+003,-1.081580e+001
1.419259e+003,-1.017639e+001
1.420223e+003,-9.510254e+000
1.421187e+003,-9.167969e+000
1.422152e+003,-8.961792e+000
1.423116e+003,-8.296509e+000
1.424080e+003,-7.401733e+000
1.425044e+003,-7.468750e+000
1.426009e+003,-7.311768e+000
1.426973e+003,-6.596191e+000
1.427937e+003,-5.340576e+000
1.428901e+003,-2.290405e+000
1.429865e+003,1.866455e+000
1.430830e+003,3.140869e+000
1.431794e+003,-1.227539e+000
1.432758e+003,-7.075806e+000
1.433722e+003,-5.094849e+000
1.434687e+003,6.421143e+000
1.435651e+003,1.549255e+001
1.436615e+003,1.903589e+001
1.437579e+003,2.053638e+001
1.438544e+003,1.951917e+001
1.439508e+003,1.785242e+001
1.440472e+003,1.675879e+001
1.441436e+003,1.671753e+001
1.442401e+003,1.819067e+001
1.443365e+003,2.088428e+001
1.444329e+003,2.314111e+001
1.445293e+003,2.399561e+001
1.446257e+003,2.379065e+001
1.447222e+003,2.214368e+001
1.448186e+003,1.941479e+001
1.449150e+003,1.852417e+001
1.450114e+003,2.018359e+001
1.451079e+003,2.090625e+001
1.452043e+003,1.828174e+001
1.453007e+003,1.501990e+001
1.453971e+003,1.531287e+001
1.454936e+003,1.819653e+001
1.455900e+003,1.753870e+001
1.456864e+003,1.120117e+001
1.457828e+003,5.461304e+000
1.458792e+003,2.526855e+000
1.459757e+003,2.281372e+000
1.460721e+003,6.768433e+000
1.461685e+003,1.332678e+001
1.462649e+003,1.666663e+001
1.463614e+003,1.582690e+001
1.464578e+003,1.447864e+001
1.465542e+003,1.579651e+001
1.466506e+003,1.820654e+001
1.467471e+003,1.722363e+001
1.468435e+003,1.225793e+001
1.469399e+003,1.055481e+001
1.470363e+003,1.391443e+001
1.471328e+003,1.710510e+001
1.472292e+003,1.879724e+001
1.473256e+003,1.890198e+001
1.474220e+003,1.797595e+001
1.475184e+003,1.668762e+001
1.476149e+003,1.444458e+001
1.477113e+003,1.132495e+001
1.478077e+003,1.032898e+001
1.479041e+003,1.502844e+001
1.480006e+003,2.349194e+001
1.480970e+003,2.775073e+001
1.481934e+003,2.543774e+001
1.482898e+003,2.615295e+001
1.483863e+003,3.204187e+001
1.484827e+003,3.727612e+001
1.485791e+003,4.139307e+001
1.486755e+003,4.435730e+001
1.487719e+003,4.471228e+001
1.488684e+003,4.340259e+001
1.489648e+003,4.302881e+001
1.490612e+003,4.481372e+001
1.491576e+003,4.994519e+001
1.492541e+003,6.010645e+001
1.493505e+003,7.221399e+001
1.494469e+003,7.923743e+001
1.495433e+003,8.140161e+001
1.496398e+003,8.358044e+001
1.497362e+003,8.646692e+001
1.498326e+003,9.234949e+001
1.499290e+003,1.034602e+002
1.500255e+003,1.172611e+002
1.501219e+003,1.298748e+002
1.502183e+003,1.415319e+002
1.503147e+003,1.552147e+002
1.504111e+003,1.716592e+002
1.505076e+003,1.895344e+002
1.506040e+003,2.069321e+002
1.507004e+003,2.271931e+002
1.507968e+003,2.544368e+002
1.508933e+003,2.863857e+002
1.509897e+003,3.178981e+002
1.510861e+003,3.491704e+002
1.511825e+003,3.850261e+002
1.512790e+003,4.283698e+002
1.513754e+003,4.769907e+002
1.514718e+003,5.287446e+002
1.515682e+003,5.829315e+002
1.516646e+003,6.353369e+002
1.517611e+003,6.873187e+002
1.518575e+003,7.352694e+002
1.519539e+003,7.807076e+002
1.520503e+003,8.204413e+002
1.521468e+003,8.551104e+002
1.522432e+003,8.810886e+002
1.523396e+003,8.933662e+002
1.524360e+003,8.917424e+002
1.525325e+003,8.799944e+002
1.526289e+003,8.608235e+002
1.527253e+003,8.351683e+002
1.528217e+003,8.042300e+002
1.529182e+003,7.685801e+002
1.530146e+003,7.275482e+002
1.531110e+003,6.818759e+002
1.532074e+003,6.274727e+002
1.533039e+003,5.548837e+002
1.534003e+003,4.825781e+002
1.534967e+003,4.206608e+002
1.535931e+003,3.646888e+002
1.536896e+003,3.057954e+002
1.537860e+003,2.467584e+002
1.538824e+003,1.990997e+002
1.539788e+003,1.681946e+002
1.540752e+003,1.477627e+002
1.541717e+003,1.304156e+002
1.542681e+003,1.162065e+002
1.543645e+003,1.028716e+002
1.544609e+003,8.982007e+001
1.545573e+003,8.151624e+001
1.546538e+003,7.878821e+001
1.547502e+003,7.766101e+001
1.548466e+003,7.923132e+001
1.549430e+003,8.133472e+001
1.550395e+003,8.069849e+001
1.551359e+003,7.791113e+001
1.552323e+003,7.699646e+001
1.553287e+003,7.913037e+001
1.554252e+003,7.876709e+001
1.555216e+003,7.041211e+001
1.556180e+003,5.769348e+001
1.557144e+003,4.870642e+001
1.558109e+003,4.392114e+001
1.559073e+003,4.184583e+001
1.560037e+003,4.333789e+001
1.561001e+003,4.356506e+001
1.561966e+003,4.109717e+001
1.562930e+003,3.831934e+001
1.563894e+003,3.640662e+001
1.564858e+003,3.536670e+001
1.565823e+003,3.557996e+001
1.566787e+003,3.697778e+001
1.567751e+003,3.863513e+001
1.568715e+003,4.023962e+001
1.569679e+003,4.213672e+001
1.570644e+003,4.484302e+001
1.571608e+003,4.740051e+001
1.572572e+003,4.825232e+001
1.573536e+003,4.772937e+001
1.574500e+003,4.725452e+001
1.575465e+003,4.672607e+001
1.576429e+003,4.674341e+001
1.577393e+003,4.694727e+001
1.578357e+003,4.798267e+001
1.579322e+003,5.320337e+001
1.580286e+003,6.231677e+001
1.581250e+003,6.657886e+001
1.582214e+003,6.208435e+001
1.583179e+003,5.686206e+001
1.584143e+003,5.622937e+001
1.585107e+003,5.796362e+001
1.586071e+003,6.052405e+001
1.587036e+003,6.398547e+001
1.588000e+003,6.633203e+001
1.588964e+003,6.663574e+001
1.589928e+003,6.620972e+001
1.590893e+003,6.548486e+001
1.591857e+003,6.517114e+001
1.592821e+003,6.690295e+001
1.593785e+003,7.030103e+001
1.594750e+003,7.216882e+001
1.595714e+003,7.147559e+001
1.596678e+003,7.149573e+001
1.597642e+003,7.382385e+001
1.598606e+003,7.703015e+001
1.599571e+003,8.071399e+001
1.600535e+003,8.449255e+001
1.601499e+003,8.806836e+001
1.602463e+003,9.096716e+001
1.603427e+003,9.163257e+001
1.604392e+003,8.920972e+001
1.605356e+003,8.667236e+001
1.606320e+003,8.772949e+001
1.607284e+003,9.083582e+001
1.608249e+003,9.102039e+001
1.609213e+003,8.814819e+001
1.610177e+003,8.701392e+001
1.611141e+003,8.980164e+001
1.612106e+003,9.092163e+001
1.613070e+003,8.535986e+001
1.614034e+003,7.910132e+001
1.614998e+003,7.653235e+001
1.615963e+003,7.631201e+001
1.616927e+003,7.545349e+001
1.617891e+003,7.360010e+001
1.618855e+003,7.330823e+001
1.619820e+003,7.617566e+001
1.620784e+003,7.891614e+001
1.621748e+003,7.712415e+001
1.622712e+003,7.260327e+001
1.623677e+003,7.137830e+001
1.624641e+003,7.395496e+001
1.625605e+003,7.782410e+001
1.626569e+003,8.323181e+001
1.627533e+003,8.530579e+001
1.628498e+003,7.951440e+001
1.629462e+003,7.294568e+001
1.630426e+003,7.205933e+001
1.631390e+003,7.478088e+001
1.632354e+003,7.560107e+001
1.633319e+003,7.330627e+001
1.634283e+003,7.149072e+001
1.635247e+003,7.280823e+001
1.636211e+003,7.572937e+001
1.637176e+003,7.828137e+001
1.638140e+003,8.066113e+001
1.639104e+003,8.142859e+001
1.640068e+003,7.960046e+001
1.641033e+003,7.868042e+001
1.641997e+003,8.087976e+001
1.642961e+003,8.286108e+001
1.643925e+003,8.255725e+001
1.644890e+003,8.148071e+001
1.645854e+003,8.027966e+001
1.646818e+003,7.954932e+001
1.647782e+003,8.098169e+001
1.648747e+003,8.482788e+001
1.649711e+003,8.820984e+001
1.650675e+003,8.904431e+001
1.651639e+003,8.854993e+001
1.652604e+003,8.873657e+001
1.653568e+003,8.917712e+001
1.654532e+003,8.687061e+001
1.655496e+003,8.058936e+001
1.656460e+003,7.551270e+001
1.657425e+003,7.406311e+001
1.658389e+003,7.340393e+001
1.659353e+003,7.218018e+001
1.660317e+003,7.064294e+001
1.661281e+003,6.900220e+001
1.662246e+003,6.709827e+001
1.663210e+003,6.461548e+001
1.664174e+003,6.170801e+001
1.665138e+003,5.957483e+001
1.666103e+003,5.929333e+001
1.667067e+003,5.948572e+001
1.668031e+003,5.726794e+001
1.668995e+003,5.305957e+001
1.669960e+003,5.093396e+001
1.670924e+003,5.173206e+001
1.671888e+003,5.311328e+001
1.672852e+003,5.502502e+001
1.673817e+003,5.569312e+001
1.674781e+003,5.258044e+001
1.675745e+003,4.867407e+001
1.676709e+003,4.764185e+001
1.677674e+003,4.871741e+001
1.678638e+003,4.854761e+001
1.679602e+003,4.613074e+001
1.680566e+003,4.400256e+001
1.681531e+003,4.507300e+001
1.682495e+003,4.710193e+001
1.683459e+003,4.491089e+001
1.684423e+003,3.904822e+001
1.685387e+003,3.521155e+001
1.686352e+003,3.418335e+001
1.687316e+003,3.474194e+001
1.688280e+003,3.767554e+001
1.689244e+003,3.983044e+001
1.690208e+003,3.713501e+001
1.691173e+003,3.328564e+001
1.692137e+003,3.302686e+001
1.693101e+003,3.578662e+001
1.694065e+003,3.800488e+001
1.695030e+003,3.833032e+001
1.695994e+003,3.715649e+001
1.696958e+003,3.461340e+001
1.697922e+003,3.147974e+001
1.698887e+003,2.826123e+001
1.699851e+003,2.544397e+001
1.700815e+003,2.443616e+001
1.701779e+003,2.501917e+001
1.702744e+003,2.420667e+001
1.703708e+003,2.113989e+001
1.704672e+003,1.895239e+001
1.705636e+003,1.950562e+001
1.706601e+003,2.097852e+001
1.707565e+003,2.206689e+001
1.708529e+003,2.299634e+001
1.709493e+003,2.314221e+001
1.710458e+003,2.237146e+001
1.711422e+003,2.049805e+001
1.712386e+003,1.693518e+001
1.713350e+003,1.377637e+001
1.714314e+003,1.227454e+001
1.715279e+003,1.142078e+001
1.716243e+003,9.616821e+000
1.717207e+003,7.321777e+000
1.718171e+003,7.130005e+000
1.719135e+003,9.871094e+000
1.720100e+003,1.342346e+001
1.721064e+003,1.681152e+001
1.722028e+003,1.801965e+001
1.722992e+003,1.335059e+001
1.723957e+003,4.983887e+000
1.724921e+003,2.372070e+000
1.725885e+003,5.410034e+000
1.726849e+003,7.763550e+000
1.727814e+003,1.085010e+001
1.728778e+003,1.199487e+001
1.729742e+003,7.025269e+000
1.730706e+003,1.902588e+000
1.731671e+003,3.298584e+000
1.732635e+003,7.737305e+000
1.733599e+003,8.008179e+000
1.734563e+003,3.990112e+000
1.735528e+003,1.285522e+000
1.736492e+003,2.586182e+000
1.737456e+003,5.197388e+000
1.738420e+003,6.054565e+000
1.739385e+003,5.020386e+000
1.740349e+003,3.130615e+000
1.741313e+003,3.469238e-001
1.742277e+003,-8.848877e-001
1.743241e+003,1.582764e+000
1.744206e+003,3.077271e+000
1.745170e+003,1.495117e+000
1.746134e+003,-4.431152e-002
1.747098e+003,7.309570e-001
1.748063e+003,1.976440e+000
1.749027e+003,1.025024e+000
1.749991e+003,-1.271973e+000
1.750955e+003,-1.970947e+000
1.751919e+003,-3.725586e-001
1.752884e+003,1.449829e+000
1.753848e+003,1.797607e+000
1.754812e+003,6.942139e-001
1.755776e+003,-1.681274e+000
1.756741e+003,-4.751709e+000
1.757705e+003,-5.795898e+000
1.758669e+003,-4.985107e+000
1.759633e+003,-2.903809e+000
1.760598e+003,2.949829e+000
1.761562e+003,5.413818e+000
1.762526e+003,-4.495850e-001
1.763490e+003,-6.388550e+000
1.764455e+003,-5.282959e+000
1.765419e+003,-8.718262e-001
1.766383e+003,-8.010254e-001
1.767347e+003,-5.086304e+000
1.768312e+003,-6.073608e+000
1.769276e+003,-2.044678e-001
1.770240e+003,4.890625e+000
1.771204e+003,6.126709e-001
1.772168e+003,-7.695190e+000
1.773133e+003,-7.935425e+000
1.774097e+003,-1.165894e+000
1.775061e+003,1.876465e+000
1.776025e+003,-8.421631e-001
1.776990e+003,-4.401978e+000
1.777954e+003,-7.733643e+000
1.778918e+003,-8.295898e+000
1.779882e+003,-1.452148e+000
1.780846e+003,5.858154e+000
1.781811e+003,2.765381e+000
1.782775e+003,-6.933838e+000
1.783739e+003,-1.033997e+001
1.784703e+003,-4.878906e+000
1.785668e+003,-1.806641e-001
1.786632e+003,-1.757690e+000
1.787596e+003,-4.581543e+000
1.788560e+003,-3.780273e+000
1.789525e+003,-1.376221e+000
1.790489e+003,-1.500244e+000
1.791453e+003,-3.495605e+000
1.792417e+003,-3.544189e+000
1.793382e+003,-9.720459e-001
1.794346e+003,1.615723e+000
1.795310e+003,2.800537e+000
1.796274e+003,2.988770e+000
1.797239e+003,2.935181e+000
1.798203e+003,3.300659e+000
1.799167e+003,4.227417e+000
1.800131e+003,4.994141e+000
1.801095e+003,3.014893e+000
1.802060e+003,-4.092041e+000
1.803024e+003,-7.654785e+000
1.803988e+003,-5.696411e+000
1.804952e+003,-2.263550e+000
1.805917e+003,2.220581e+000
1.806881e+003,5.963379e+000
1.807845e+003,7.465942e+000
1.808809e+003,7.268066e+000
1.809773e+003,6.444336e+000
1.810738e+003,5.319824e+000
1.811702e+003,3.334106e+000
1.812666e+003,1.553955e-001
1.813630e+003,-2.126221e+000
1.814595e+003,-3.320313e-001
1.815559e+003,4.091187e+000
1.816523e+003,5.742554e+000
1.817487e+003,4.496948e+000
1.818452e+003,3.102539e+000
1.819416e+003,1.287231e+000
1.820380e+003,2.317139e+000
1.821344e+003,9.738159e+000
1.822309e+003,1.525562e+001
1.823273e+003,1.346436e+001
1.824237e+003,8.768188e+000
1.825201e+003,3.151489e+000
1.826166e+003,-1.758667e+000
1.827130e+003,-9.407959e-001
1.828094e+003,6.007813e+000
1.829058e+003,1.053796e+001
1.830022e+003,7.956909e+000
1.830987e+003,4.142700e+000
1.831951e+003,4.085083e+000
1.832915e+003,5.673096e+000
1.833879e+003,6.019775e+000
1.834844e+003,5.219604e+000
1.835808e+003,3.801758e+000
1.836772e+003,2.076538e+000
1.837736e+003,9.759521e-001
1.838700e+003,6.657715e-001
1.839665e+003,4.246826e-001
1.840629e+003,-9.521484e-002
1.841593e+003,-8.859863e-001
1.842557e+003,-2.685425e+000
1.843522e+003,-5.471313e+000
1.844486e+003,-5.279663e+000
1.845450e+003,1.304932e+000
1.846414e+003,5.674194e+000
1.847379e+003,4.904419e+000
1.848343e+003,4.089478e+000
1.849307e+003,6.110962e+000
1.850271e+003,7.772217e+000
1.851236e+003,6.070923e+000
1.852200e+003,3.497925e+000
1.853164e+003,3.588013e+000
1.854128e+003,5.326172e+000
1.855093e+003,4.982910e+000
1.856057e+003,1.854004e+000
1.857021e+003,-7.547607e-001
1.857985e+003,-3.037109e-001
1.858949e+003,1.390625e+000
1.859914e+003,1.066650e+000
1.860878e+003,-5.378418e-001
1.861842e+003,1.568604e-001
1.862806e+003,3.035645e+000
1.863771e+003,5.619751e+000
1.864735e+003,7.484985e+000
1.865699e+003,7.868042e+000
1.866663e+003,5.992920e+000
1.867627e+003,4.380493e+000
1.868592e+003,4.627563e+000
1.869556e+003,5.970825e+000
1.870520e+003,8.763550e+000
1.871484e+003,1.241553e+001
1.872449e+003,1.306934e+001
1.873413e+003,1.102429e+001
1.874377e+003,9.802734e+000
1.875341e+003,8.593994e+000
1.876306e+003,8.003662e+000
1.877270e+003,8.379639e+000
1.878234e+003,9.165405e+000
1.879198e+003,1.084888e+001
1.880163e+003,1.243811e+001
1.881127e+003,1.108887e+001
1.882091e+003,7.892334e+000
1.883055e+003,8.557861e+000
1.884020e+003,1.492224e+001
1.884984e+003,2.118091e+001
1.885948e+003,2.210352e+001
1.886912e+003,1.946094e+001
1.887876e+003,1.646069e+001
1.888841e+003,1.332800e+001
1.889805e+003,1.239673e+001
1.890769e+003,1.406360e+001
1.891733e+003,1.590979e+001
1.892698e+003,1.775256e+001
1.893662e+003,1.855542e+001
1.894626e+003,1.757837e+001
1.895590e+003,1.636987e+001
1.896554e+003,1.607312e+001
1.897519e+003,1.663965e+001
1.898483e+003,1.763696e+001
1.899447e+003,1.858301e+001
1.900411e+003,1.986108e+001
1.901376e+003,2.184253e+001
1.902340e+003,2.211584e+001
1.903304e+003,1.776892e+001
1.904268e+003,1.444312e+001
1.905233e+003,1.753552e+001
1.906197e+003,2.187231e+001
1.907161e+003,2.163110e+001
1.908125e+003,1.916772e+001
1.909090e+003,1.865955e+001
1.910054e+003,2.003638e+001
1.911018e+003,2.179541e+001
1.911982e+003,2.340576e+001
1.912947e+003,2.336267e+001
1.913911e+003,2.038965e+001
1.914875e+003,1.813342e+001
1.915839e+003,2.257642e+001
1.916803e+003,3.141016e+001
1.917768e+003,3.483447e+001
1.918732e+003,3.243396e+001
1.919696e+003,2.971509e+001
1.920660e+003,2.627026e+001
1.921625e+003,2.501013e+001
1.922589e+003,2.744775e+001
1.923553e+003,2.994250e+001
1.924517e+003,3.016101e+001
1.925481e+003,3.014832e+001
1.926446e+003,3.231909e+001
1.927410e+003,3.538489e+001
1.928374e+003,3.637488e+001
1.929338e+003,3.493445e+001
1.930303e+003,3.369763e+001
1.931267e+003,3.429236e+001
1.932231e+003,3.476904e+001
1.933195e+003,3.272009e+001
1.934160e+003,3.082434e+001
1.935124e+003,3.134436e+001
1.936088e+003,3.255103e+001
1.937052e+003,3.377930e+001
1.938017e+003,3.428137e+001
1.938981e+003,3.085803e+001
1.939945e+003,2.451379e+001
1.940909e+003,2.234326e+001
1.941874e+003,2.694067e+001
1.942838e+003,3.135327e+001
1.943802e+003,2.949658e+001
1.944766e+003,2.474011e+001
1.945730e+003,2.258679e+001
1.946695e+003,2.243518e+001
1.947659e+003,2.234778e+001
1.948623e+003,2.205933e+001
1.949587e+003,2.360413e+001
1.950552e+003,2.823425e+001
1.951516e+003,3.176343e+001
1.952480e+003,3.306445e+001
1.953444e+003,3.222803e+001
1.954408e+003,2.755115e+001
1.955373e+003,2.181726e+001
1.956337e+003,1.913232e+001
1.957301e+003,1.977893e+001
1.958265e+003,2.371423e+001
1.959230e+003,3.176416e+001
1.960194e+003,3.651917e+001
1.961158e+003,3.311584e+001
1.962122e+003,3.038245e+001
1.963087e+003,3.162561e+001
1.964051e+003,3.311340e+001
1.965015e+003,3.279871e+001
1.965979e+003,3.263647e+001
1.966944e+003,3.451465e+001
1.967908e+003,3.718567e+001
1.968872e+003,3.881738e+001
1.969836e+003,3.916455e+001
1.970801e+003,3.853003e+001
1.971765e+003,3.720276e+001
1.972729e+003,3.619507e+001
1.973693e+003,3.619629e+001
1.974657e+003,3.725854e+001
1.975622e+003,4.015344e+001
1.976586e+003,4.355225e+001
1.977550e+003,4.408508e+001
1.978514e+003,4.240918e+001
1.979479e+003,4.172571e+001
1.980443e+003,4.229846e+001
1.981407e+003,4.147913e+001
1.982371e+003,3.833545e+001
1.983335e+003,3.718445e+001
1.984300e+003,4.132874e+001
1.985264e+003,4.701758e+001
1.986228e+003,4.896167e+001
1.987192e+003,4.757117e+001
1.988157e+003,4.479065e+001
1.989121e+003,4.000476e+001
1.990085e+003,3.827942e+001
1.991049e+003,4.136145e+001
1.992014e+003,4.462793e+001
1.992978e+003,4.816699e+001
1.993942e+003,5.031799e+001
1.994906e+003,4.867639e+001
1.995871e+003,4.739001e+001
1.996835e+003,5.145801e+001
1.997799e+003,5.699866e+001
1.998763e+003,5.682495e+001
1.999728e+003,5.195544e+001
