5.003444e+002,1.986436e+002
5.013087e+002,1.961154e+002
5.022729e+002,1.916484e+002
5.032371e+002,1.861427e+002
5.042014e+002,1.799829e+002
5.051656e+002,1.735765e+002
5.061298e+002,1.688862e+002
5.070941e+002,1.677388e+002
5.080583e+002,1.706506e+002
5.090225e+002,1.726226e+002
5.099868e+002,1.750452e+002
5.109510e+002,1.755440e+002
5.119152e+002,1.715858e+002
5.128795e+002,1.627381e+002
5.138437e+002,1.566178e+002
5.148079e+002,1.588407e+002
5.157722e+002,1.617902e+002
5.167364e+002,1.624297e+002
5.177006e+002,1.601075e+002
5.186649e+002,1.561345e+002
5.196291e+002,1.511039e+002
5.205933e+002,1.472014e+002
5.215576e+002,1.473243e+002
5.225218e+002,1.507073e+002
5.234860e+002,1.539878e+002
5.244503e+002,1.516217e+002
5.254145e+002,1.421883e+002
5.263787e+002,1.341113e+002
5.273430e+002,1.260897e+002
5.283072e+002,1.202026e+002
5.292714e+002,1.201327e+002
5.302357e+002,1.298679e+002
5.311999e+002,1.349525e+002
5.321641e+002,1.331934e+002
5.331284e+002,1.288045e+002
5.340926e+002,1.242807e+002
5.350568e+002,1.201843e+002
5.360211e+002,1.161234e+002
5.369853e+002,1.121839e+002
5.379495e+002,1.088951e+002
5.389138e+002,1.067313e+002
5.398780e+002,1.056814e+002
5.408422e+002,1.051832e+002
5.418065e+002,1.037430e+002
5.427707e+002,1.015546e+002
5.437349e+002,1.002144e+002
5.446992e+002,1.002072e+002
5.456634e+002,1.011306e+002
5.466276e+002,1.018162e+002
5.475919e+002,1.043571e+002
5.485561e+002,1.039697e+002
5.495203e+002,9.783984e+001
5.504846e+002,8.916638e+001
5.514488e+002,8.258331e+001
5.524130e+002,8.011969e+001
5.533773e+002,8.006818e+001
5.543415e+002,8.309186e+001
5.553057e+002,8.658728e+001
5.562700e+002,8.738306e+001
5.572342e+002,8.350214e+001
5.581984e+002,7.734131e+001
5.591627e+002,7.524988e+001
5.601269e+002,7.607477e+001
5.610911e+002,7.718524e+001
5.620554e+002,7.712494e+001
5.630196e+002,7.579205e+001
5.639838e+002,7.399048e+001
5.649481e+002,7.234991e+001
5.659123e+002,6.943640e+001
5.668765e+002,6.418811e+001
5.678408e+002,5.810339e+001
5.688050e+002,5.471710e+001
5.697692e+002,5.563593e+001
5.707335e+002,5.705457e+001
5.716977e+002,5.866882e+001
5.726619e+002,6.013763e+001
5.736262e+002,6.135272e+001
5.745904e+002,6.244354e+001
5.755546e+002,6.272986e+001
5.765189e+002,6.042090e+001
5.774831e+002,5.619171e+001
5.784473e+002,5.150415e+001
5.794116e+002,4.759259e+001
5.803758e+002,4.483331e+001
5.813400e+002,4.433173e+001
5.823043e+002,4.635803e+001
5.832685e+002,4.725439e+001
5.842327e+002,4.525562e+001
5.851970e+002,4.134003e+001
5.861612e+002,3.986713e+001
5.871254e+002,4.441650e+001
5.880897e+002,4.743481e+001
5.890539e+002,4.659021e+001
5.900181e+002,4.314563e+001
5.909824e+002,3.939301e+001
5.919466e+002,3.661188e+001
5.929108e+002,3.487292e+001
5.938751e+002,3.399139e+001
5.948393e+002,3.377808e+001
5.958035e+002,3.440472e+001
5.967678e+002,3.601508e+001
5.977320e+002,3.833521e+001
5.986962e+002,3.663550e+001
5.996605e+002,3.020966e+001
6.006247e+002,2.491144e+001
6.015889e+002,2.393494e+001
6.025532e+002,2.702728e+001
6.035174e+002,2.936963e+001
6.044816e+002,3.070880e+001
6.054459e+002,3.161890e+001
6.064101e+002,3.267969e+001
6.073743e+002,3.321539e+001
6.083386e+002,3.167352e+001
6.093028e+002,2.599359e+001
6.102670e+002,2.100897e+001
6.112313e+002,2.031335e+001
6.121955e+002,2.225348e+001
6.131597e+002,2.501904e+001
6.141240e+002,2.730243e+001
6.150882e+002,2.888696e+001
6.160524e+002,2.860077e+001
6.170167e+002,2.702081e+001
6.179809e+002,2.619031e+001
6.189451e+002,2.693024e+001
6.199094e+002,2.879675e+001
6.208736e+002,3.012445e+001
6.218378e+002,3.132349e+001
6.228021e+002,3.245319e+001
6.237663e+002,3.433435e+001
6.247305e+002,3.610132e+001
6.256948e+002,3.604279e+001
6.266590e+002,3.257556e+001
6.276232e+002,2.793823e+001
6.285875e+002,2.316870e+001
6.295517e+002,1.918475e+001
6.305159e+002,1.686798e+001
6.314802e+002,1.653540e+001
6.324444e+002,1.745410e+001
6.334086e+002,1.922388e+001
6.343729e+002,2.168213e+001
6.353371e+002,2.272559e+001
6.363013e+002,2.123773e+001
6.372656e+002,1.791840e+001
6.382298e+002,1.567877e+001
6.391940e+002,1.553882e+001
6.401583e+002,1.491357e+001
6.411225e+002,1.410455e+001
6.420867e+002,1.359711e+001
6.430510e+002,1.380652e+001
6.440152e+002,1.481921e+001
6.449794e+002,1.484186e+001
6.459437e+002,1.286597e+001
6.469079e+002,9.910889e+000
6.478721e+002,6.034607e+000
6.488364e+002,1.795349e+000
6.498006e+002,-1.019287e+000
6.507648e+002,2.405579e+000
6.517291e+002,9.093750e+000
6.526933e+002,1.162115e+001
6.536575e+002,8.388367e+000
6.546218e+002,2.209351e+000
6.555860e+002,-1.525513e+000
6.565502e+002,-1.646118e+000
6.575145e+002,-1.513000e+000
6.584787e+002,-1.299805e+000
6.594429e+002,-6.790161e-001
6.604072e+002,1.162354e+000
6.613714e+002,4.618958e+000
6.623356e+002,6.601318e+000
6.632999e+002,2.532471e+000
6.642641e+002,-1.312866e+000
6.652283e+002,6.262207e-002
6.661926e+002,6.073303e+000
6.671568e+002,1.160260e+001
6.681210e+002,9.554626e+000
6.690853e+002,2.764160e+000
6.700495e+002,-8.062744e-002
6.710137e+002,1.057495e+000
6.719780e+002,3.411560e+000
6.729422e+002,3.929321e+000
6.739064e+002,1.884216e+000
6.748707e+002,1.358032e+000
6.758349e+002,3.554688e+000
6.767991e+002,5.237793e+000
6.777634e+002,5.122803e+000
6.787276e+002,3.730164e+000
6.796918e+002,3.040710e+000
6.806561e+002,3.970581e+000
6.816203e+002,4.631592e+000
6.825845e+002,4.065613e+000
6.835488e+002,2.810669e+000
6.845130e+002,1.796997e+000
6.854772e+002,1.776367e+000
6.864415e+002,2.840942e+000
6.874057e+002,4.576782e+000
6.883699e+002,6.333923e+000
6.893342e+002,7.809937e+000
6.902984e+002,9.047791e+000
6.912626e+002,9.963196e+000
6.922269e+002,9.009094e+000
6.931911e+002,3.434204e+000
6.941553e+002,1.140259e+000
6.951196e+002,4.461731e+000
6.960838e+002,1.003912e+001
6.970480e+002,1.276013e+001
6.980123e+002,1.078790e+001
6.989765e+002,8.482849e+000
6.999407e+002,7.381653e+000
7.009050e+002,6.848633e+000
7.018692e+002,6.530518e+000
7.028334e+002,6.175232e+000
7.037977e+002,5.524231e+000
7.047619e+002,3.968262e+000
7.057261e+002,2.515869e+000
7.066904e+002,3.057800e+000
7.076546e+002,5.860291e+000
7.086188e+002,8.976135e+000
7.095831e+002,9.188171e+000
7.105473e+002,4.899658e+000
7.115115e+002,1.815186e+000
7.124758e+002,-4.724731e-001
7.134400e+002,-1.777954e+000
7.144042e+002,-1.171082e+000
7.153685e+002,1.411926e+000
7.163327e+002,3.319153e+000
7.172969e+002,3.044800e+000
7.182612e+002,2.115173e+000
7.192254e+002,-9.167480e-002
7.201896e+002,-2.644043e+000
7.211539e+002,-3.588928e+000
7.221181e+002,-9.674072e-001
7.230823e+002,3.350708e+000
7.240466e+002,4.176575e+000
7.250108e+002,2.583069e+000
7.259750e+002,8.408813e-001
7.269393e+002,-3.048706e-001
7.279035e+002,-1.200073e+000
7.288677e+002,-9.329834e-001
7.298320e+002,4.140930e+000
7.307962e+002,7.620239e+000
7.317604e+002,7.743713e+000
7.327247e+002,6.696106e+000
7.336889e+002,7.653687e+000
7.346531e+002,1.177570e+001
7.356174e+002,1.360486e+001
7.365816e+002,1.011169e+001
7.375458e+002,5.203430e+000
7.385101e+002,1.348328e+000
7.394743e+002,-6.215820e-001
7.404385e+002,-1.338013e+000
7.414028e+002,-1.757996e+000
7.423670e+002,-2.689392e+000
7.433312e+002,-3.591064e+000
7.442955e+002,-3.726807e+000
7.452597e+002,-3.427979e+000
7.462239e+002,-3.638855e+000
7.471882e+002,-5.085449e+000
7.481524e+002,-4.637146e+000
7.491166e+002,-2.904541e+000
7.500809e+002,-2.960205e-001
7.510451e+002,4.661255e+000
7.520093e+002,1.068170e+001
7.529736e+002,1.355170e+001
7.539378e+002,1.014423e+001
7.549020e+002,5.865479e+000
7.558663e+002,3.543152e+000
7.568306e+002,2.753113e+000
7.577948e+002,2.905457e+000
7.587590e+002,3.434021e+000
7.597233e+002,3.792114e+000
7.606875e+002,2.911438e+000
7.616517e+002,1.316711e+000
7.626160e+002,1.125854e+000
7.635802e+002,3.512512e+000
7.645444e+002,7.148132e+000
7.655087e+002,8.920776e+000
7.664729e+002,7.074463e+000
7.674371e+002,6.947815e+000
7.684014e+002,1.001123e+001
7.693656e+002,1.342529e+001
7.703298e+002,1.547180e+001
7.712941e+002,1.601624e+001
7.722583e+002,1.626807e+001
7.732225e+002,1.710681e+001
7.741868e+002,1.789032e+001
7.751510e+002,1.790424e+001
7.761152e+002,1.745789e+001
7.770795e+002,1.727472e+001
7.780437e+002,1.793781e+001
7.790079e+002,1.919171e+001
7.799722e+002,1.992041e+001
7.809364e+002,2.012842e+001
7.819006e+002,2.011194e+001
7.828649e+002,2.059344e+001
7.838291e+002,2.142096e+001
7.847933e+002,2.114185e+001
7.857576e+002,1.769525e+001
7.867218e+002,1.527588e+001
7.876860e+002,1.639655e+001
7.886503e+002,1.827582e+001
7.896145e+002,1.803436e+001
7.905787e+002,1.510974e+001
7.915430e+002,1.256866e+001
7.925072e+002,1.385870e+001
7.934714e+002,1.658569e+001
7.944357e+002,1.952234e+001
7.953999e+002,2.237256e+001
7.963641e+002,2.401471e+001
7.973284e+002,2.289386e+001
7.982926e+002,1.876489e+001
7.992568e+002,1.683862e+001
8.002211e+002,1.710779e+001
8.011853e+002,1.688702e+001
8.021495e+002,1.569635e+001
8.031138e+002,1.445715e+001
8.040780e+002,1.446368e+001
8.050422e+002,1.580591e+001
8.060065e+002,1.738483e+001
8.069707e+002,1.862860e+001
8.079349e+002,1.948193e+001
8.088992e+002,2.014063e+001
8.098634e+002,2.084070e+001
8.108276e+002,2.165430e+001
8.117919e+002,2.249286e+001
8.127561e+002,2.238208e+001
8.137203e+002,2.023706e+001
8.146846e+002,1.649835e+001
8.156488e+002,1.373694e+001
8.166130e+002,1.510522e+001
8.175773e+002,2.163519e+001
8.185415e+002,2.525385e+001
8.195057e+002,2.442651e+001
8.204700e+002,2.241595e+001
8.214342e+002,1.906482e+001
8.223984e+002,1.538452e+001
8.233627e+002,1.394543e+001
8.243269e+002,1.654932e+001
8.252911e+002,2.019769e+001
8.262554e+002,2.447406e+001
8.272196e+002,2.779083e+001
8.281838e+002,2.756293e+001
8.291481e+002,2.339569e+001
8.301123e+002,1.817780e+001
8.310765e+002,1.719183e+001
8.320408e+002,2.008649e+001
8.330050e+002,2.195258e+001
8.339692e+002,2.248254e+001
8.349335e+002,2.255524e+001
8.358977e+002,2.309760e+001
8.368619e+002,2.438654e+001
8.378262e+002,2.605713e+001
8.387904e+002,2.861273e+001
8.397546e+002,3.020477e+001
8.407189e+002,2.971484e+001
8.416831e+002,2.819025e+001
8.426473e+002,2.743976e+001
8.436116e+002,2.837982e+001
8.445758e+002,3.010022e+001
8.455400e+002,3.120569e+001
8.465043e+002,3.172076e+001
8.474685e+002,3.241632e+001
8.484327e+002,3.375183e+001
8.493970e+002,3.537482e+001
8.503612e+002,3.609503e+001
8.513254e+002,3.547723e+001
8.522897e+002,3.549481e+001
8.532539e+002,3.587970e+001
8.542181e+002,3.653882e+001
8.551824e+002,3.826239e+001
8.561466e+002,4.128931e+001
8.571108e+002,4.390149e+001
8.580751e+002,4.404279e+001
8.590393e+002,4.364685e+001
8.600035e+002,4.236902e+001
8.609678e+002,4.216248e+001
8.619320e+002,4.592322e+001
8.628962e+002,5.440112e+001
8.638605e+002,6.371454e+001
8.648247e+002,6.786505e+001
8.657889e+002,6.829578e+001
8.667532e+002,6.780115e+001
8.677174e+002,6.674066e+001
8.686816e+002,6.578296e+001
8.696459e+002,6.576666e+001
8.706101e+002,6.696893e+001
8.715743e+002,6.897662e+001
8.725386e+002,7.236737e+001
8.735028e+002,7.583704e+001
8.744670e+002,7.835486e+001
8.754313e+002,8.025604e+001
8.763955e+002,8.266425e+001
8.773597e+002,8.624744e+001
8.783240e+002,9.026605e+001
8.792882e+002,9.454272e+001
8.802524e+002,9.834271e+001
8.812167e+002,1.011428e+002
8.821809e+002,1.027947e+002
8.831451e+002,1.032268e+002
8.841094e+002,1.022456e+002
8.850736e+002,1.003984e+002
8.860378e+002,1.015740e+002
8.870021e+002,1.061202e+002
8.879663e+002,1.108664e+002
8.889305e+002,1.144785e+002
8.898948e+002,1.167045e+002
8.908590e+002,1.165026e+002
8.918232e+002,1.103870e+002
8.927875e+002,1.086520e+002
8.937517e+002,1.170715e+002
8.947159e+002,1.275790e+002
8.956802e+002,1.329257e+002
8.966444e+002,1.315507e+002
8.976086e+002,1.278416e+002
8.985729e+002,1.256547e+002
8.995371e+002,1.255118e+002
9.005013e+002,1.283267e+002
9.014656e+002,1.335672e+002
9.024298e+002,1.379080e+002
9.033940e+002,1.384279e+002
9.043583e+002,1.353151e+002
9.053225e+002,1.330850e+002
9.062867e+002,1.315298e+002
9.072510e+002,1.306708e+002
9.082152e+002,1.314515e+002
9.091794e+002,1.333593e+002
9.101437e+002,1.362568e+002
9.111079e+002,1.400989e+002
9.120721e+002,1.428801e+002
9.130364e+002,1.423002e+002
9.140006e+002,1.402847e+002
9.149648e+002,1.374673e+002
9.159291e+002,1.348016e+002
9.168933e+002,1.335273e+002
9.178575e+002,1.342604e+002
9.188218e+002,1.358995e+002
9.197860e+002,1.352944e+002
9.207502e+002,1.322110e+002
9.217145e+002,1.290373e+002
9.226787e+002,1.264935e+002
9.236429e+002,1.248624e+002
9.246072e+002,1.243882e+002
9.255714e+002,1.250551e+002
9.265356e+002,1.250746e+002
9.274999e+002,1.235618e+002
9.284641e+002,1.216069e+002
9.294283e+002,1.198126e+002
9.303926e+002,1.181357e+002
9.313568e+002,1.161970e+002
9.323210e+002,1.137439e+002
9.332853e+002,1.110724e+002
9.342495e+002,1.089622e+002
9.352137e+002,1.067952e+002
9.361780e+002,1.035162e+002
9.371422e+002,9.927905e+001
9.381064e+002,9.592346e+001
9.390707e+002,9.562842e+001
9.400349e+002,9.842639e+001
9.409991e+002,1.008435e+002
9.419634e+002,1.042601e+002
9.429276e+002,1.054244e+002
9.438918e+002,1.020663e+002
9.448561e+002,9.655054e+001
9.458203e+002,9.275562e+001
9.467845e+002,9.195447e+001
9.477488e+002,9.253204e+001
9.487130e+002,9.467322e+001
9.496772e+002,9.647455e+001
9.506415e+002,9.564276e+001
9.516057e+002,9.265027e+001
9.525699e+002,9.009772e+001
9.535342e+002,9.049622e+001
9.544984e+002,9.320935e+001
9.554626e+002,9.426428e+001
9.564269e+002,9.428772e+001
9.573911e+002,9.373212e+001
9.583553e+002,9.258698e+001
9.593196e+002,9.068811e+001
9.602838e+002,8.736194e+001
9.612480e+002,8.172058e+001
9.622123e+002,7.768274e+001
9.631765e+002,7.745758e+001
9.641407e+002,7.823230e+001
9.651050e+002,7.944214e+001
9.660692e+002,8.022089e+001
9.670334e+002,7.937482e+001
9.679977e+002,7.635345e+001
9.689619e+002,7.295642e+001
9.699261e+002,7.227142e+001
9.708904e+002,7.334918e+001
9.718546e+002,7.492224e+001
9.728188e+002,7.651862e+001
9.737831e+002,7.856995e+001
9.747473e+002,8.193335e+001
9.757115e+002,8.697632e+001
9.766758e+002,9.220569e+001
9.776400e+002,1.009877e+002
9.786042e+002,1.065650e+002
9.795685e+002,1.064080e+002
9.805327e+002,1.018389e+002
9.814969e+002,9.396820e+001
9.824612e+002,8.340948e+001
9.834254e+002,7.403107e+001
9.843896e+002,7.003082e+001
9.853539e+002,6.832489e+001
9.863181e+002,6.613855e+001
9.872823e+002,6.296771e+001
9.882466e+002,5.908490e+001
9.892108e+002,5.506586e+001
9.901750e+002,5.179871e+001
9.911393e+002,5.172614e+001
9.921035e+002,5.668091e+001
9.930677e+002,5.954578e+001
9.940320e+002,5.825177e+001
9.949962e+002,5.700342e+001
9.959604e+002,6.058606e+001
9.969247e+002,6.912036e+001
9.978889e+002,7.611603e+001
9.988531e+002,7.672748e+001
9.998174e+002,7.584265e+001
1.000782e+003,7.709155e+001
1.001746e+003,7.944861e+001
1.002710e+003,8.114795e+001
1.003674e+003,8.127850e+001
1.004639e+003,8.004675e+001
1.005603e+003,7.776062e+001
1.006567e+003,7.412024e+001
1.007531e+003,7.054926e+001
1.008495e+003,6.643726e+001
1.009460e+003,6.363745e+001
1.010424e+003,6.463672e+001
1.011388e+003,6.823767e+001
1.012352e+003,6.896808e+001
1.013317e+003,6.461566e+001
1.014281e+003,5.989917e+001
1.015245e+003,5.632239e+001
1.016209e+003,5.265112e+001
1.017174e+003,4.750647e+001
1.018138e+003,4.141083e+001
1.019102e+003,3.665845e+001
1.020066e+003,3.548431e+001
1.021031e+003,3.631348e+001
1.021995e+003,3.305817e+001
1.022959e+003,2.629913e+001
1.023923e+003,2.107947e+001
1.024887e+003,1.945587e+001
1.025852e+003,1.920178e+001
1.026816e+003,1.669714e+001
1.027780e+003,1.149841e+001
1.028744e+003,7.703247e+000
1.029709e+003,5.663147e+000
1.030673e+003,4.794678e+000
1.031637e+003,5.712830e+000
1.032601e+003,7.154480e+000
1.033566e+003,7.590698e+000
1.034530e+003,6.613708e+000
1.035494e+003,5.199707e+000
1.036458e+003,3.724976e+000
1.037422e+003,2.651001e+000
1.038387e+003,3.008301e+000
1.039351e+003,4.625671e+000
1.040315e+003,6.720459e+000
1.041279e+003,9.021362e+000
1.042244e+003,1.141058e+001
1.043208e+003,1.238470e+001
1.044172e+003,1.027252e+001
1.045136e+003,8.725281e+000
1.046101e+003,8.328369e+000
1.047065e+003,8.367249e+000
1.048029e+003,8.396667e+000
1.048993e+003,8.279480e+000
1.049958e+003,7.971985e+000
1.050922e+003,7.412354e+000
1.051886e+003,7.494568e+000
1.052850e+003,9.698547e+000
1.053814e+003,1.259558e+001
1.054779e+003,1.406848e+001
1.055743e+003,1.375500e+001
1.056707e+003,1.323553e+001
1.057671e+003,1.452704e+001
1.058636e+003,1.756506e+001
1.059600e+003,1.860651e+001
1.060564e+003,1.768927e+001
1.061528e+003,1.588995e+001
1.062493e+003,1.133948e+001
1.063457e+003,6.485291e+000
1.064421e+003,4.392517e+000
1.065385e+003,5.543945e+000
1.066349e+003,8.080811e+000
1.067314e+003,1.326617e+001
1.068278e+003,1.685620e+001
1.069242e+003,1.419568e+001
1.070206e+003,8.850952e+000
1.071171e+003,6.775635e+000
1.072135e+003,1.000775e+001
1.073099e+003,1.463300e+001
1.074063e+003,1.415411e+001
1.075028e+003,7.953491e+000
1.075992e+003,7.138306e+000
1.076956e+003,1.582086e+001
1.077920e+003,2.147839e+001
1.078885e+003,1.792487e+001
1.079849e+003,9.516052e+000
1.080813e+003,3.515259e+000
1.081777e+003,9.052734e-001
1.082741e+003,9.154053e-001
1.083706e+003,5.902222e+000
1.084670e+003,1.032928e+001
1.085634e+003,1.025214e+001
1.086598e+003,7.355042e+000
1.087563e+003,5.674988e+000
1.088527e+003,7.522217e+000
1.089491e+003,1.104474e+001
1.090455e+003,1.197028e+001
1.091420e+003,9.623535e+000
1.092384e+003,7.908020e+000
1.093348e+003,6.651794e+000
1.094312e+003,5.699158e+000
1.095276e+003,5.497192e+000
1.096241e+003,5.984924e+000
1.097205e+003,6.099854e+000
1.098169e+003,4.961243e+000
1.099133e+003,4.778320e+000
1.100098e+003,7.527893e+000
1.101062e+003,1.070209e+001
1.102026e+003,1.341223e+001
1.102990e+003,1.518475e+001
1.103955e+003,1.517932e+001
1.104919e+003,1.285614e+001
1.105883e+003,9.439209e+000
1.106847e+003,7.843628e+000
1.107812e+003,8.059998e+000
1.108776e+003,7.507019e+000
1.109740e+003,5.656799e+000
1.110704e+003,3.914673e+000
1.111668e+003,3.568970e+000
1.112633e+003,4.638428e+000
1.113597e+003,6.270569e+000
1.114561e+003,8.501221e+000
1.115525e+003,1.023639e+001
1.116490e+003,1.095807e+001
1.117454e+003,1.123303e+001
1.118418e+003,1.138324e+001
1.119382e+003,1.185052e+001
1.120347e+003,1.304230e+001
1.121311e+003,1.489905e+001
1.122275e+003,1.654651e+001
1.123239e+003,1.711182e+001
1.124203e+003,1.718494e+001
1.125168e+003,1.803748e+001
1.126132e+003,2.014911e+001
1.127096e+003,2.235779e+001
1.128060e+003,2.364575e+001
1.129025e+003,2.399084e+001
1.129989e+003,2.356378e+001
1.130953e+003,2.074695e+001
1.131917e+003,2.066565e+001
1.132882e+003,2.722351e+001
1.133846e+003,3.434021e+001
1.134810e+003,3.836572e+001
1.135774e+003,3.984778e+001
1.136739e+003,4.088666e+001
1.137703e+003,4.266754e+001
1.138667e+003,4.504730e+001
1.139631e+003,4.774133e+001
1.140595e+003,5.088025e+001
1.141560e+003,5.555194e+001
1.142524e+003,6.205182e+001
1.143488e+003,7.036060e+001
1.144452e+003,8.012750e+001
1.145417e+003,9.154059e+001
1.146381e+003,1.053683e+002
1.147345e+003,1.217945e+002
1.148309e+003,1.399998e+002
1.149274e+003,1.618472e+002
1.150238e+003,1.835576e+002
1.151202e+003,2.045638e+002
1.152166e+003,2.240327e+002
1.153130e+003,2.411718e+002
1.154095e+003,2.551265e+002
1.155059e+003,2.643689e+002
1.156023e+003,2.673781e+002
1.156987e+003,2.640221e+002
1.157952e+003,2.554615e+002
1.158916e+003,2.419055e+002
1.159880e+003,2.265498e+002
1.160844e+003,2.097504e+002
1.161809e+003,1.913336e+002
1.162773e+003,1.715623e+002
1.163737e+003,1.496358e+002
1.164701e+003,1.301775e+002
1.165666e+003,1.155458e+002
1.166630e+003,1.030208e+002
1.167594e+003,9.142572e+001
1.168558e+003,8.135681e+001
1.169522e+003,7.428876e+001
1.170487e+003,7.034528e+001
1.171451e+003,6.762958e+001
1.172415e+003,6.384808e+001
1.173379e+003,5.943408e+001
1.174344e+003,5.769470e+001
1.175308e+003,5.893646e+001
1.176272e+003,5.921826e+001
1.177236e+003,5.714294e+001
1.178201e+003,5.384637e+001
1.179165e+003,5.030420e+001
1.180129e+003,4.623193e+001
1.181093e+003,4.206250e+001
1.182057e+003,3.678479e+001
1.183022e+003,3.363269e+001
1.183986e+003,3.552936e+001
1.184950e+003,3.866107e+001
1.185914e+003,3.909241e+001
1.186879e+003,3.689929e+001
1.187843e+003,3.531519e+001
1.188807e+003,3.690833e+001
1.189771e+003,4.008594e+001
1.190736e+003,4.032739e+001
1.191700e+003,3.724554e+001
1.192664e+003,3.466058e+001
1.193628e+003,3.339581e+001
1.194593e+003,3.248535e+001
1.195557e+003,3.133496e+001
1.196521e+003,2.986340e+001
1.197485e+003,2.809552e+001
1.198449e+003,2.635492e+001
1.199414e+003,2.350751e+001
1.200378e+003,1.708221e+001
1.201342e+003,1.121826e+001
1.202306e+003,8.953430e+000
1.203271e+003,9.107056e+000
1.204235e+003,9.037964e+000
1.205199e+003,7.460510e+000
1.206163e+003,5.118530e+000
1.207128e+003,3.174866e+000
1.208092e+003,1.712769e+000
1.209056e+003,-6.380005e-001
1.210020e+003,-3.982361e+000
1.210984e+003,-7.719971e+000
1.211949e+003,-1.192157e+001
1.212913e+003,-1.644598e+001
1.213877e+003,-2.133112e+001
1.214841e+003,-2.641376e+001
1.215806e+003,-3.013086e+001
1.216770e+003,-3.134418e+001
1.217734e+003,-3.201154e+001
1.218698e+003,-3.317889e+001
1.219663e+003,-3.512726e+001
1.220627e+003,-3.887354e+001
1.221591e+003,-4.397522e+001
1.222555e+003,-4.796234e+001
1.223520e+003,-4.841547e+001
1.224484e+003,-4.613635e+001
1.225448e+003,-4.565790e+001
1.226412e+003,-4.823706e+001
1.227376e+003,-5.008276e+001
1.228341e+003,-5.088782e+001
1.229305e+003,-5.156738e+001
1.230269e+003,-5.269720e+001
1.231233e+003,-5.406415e+001
1.232198e+003,-5.490607e+001
1.233162e+003,-5.483093e+001
1.234126e+003,-5.500391e+001
1.235090e+003,-5.748969e+001
1.236055e+003,-5.985175e+001
1.237019e+003,-5.876801e+001
1.237983e+003,-5.551196e+001
1.238947e+003,-5.336493e+001
1.239911e+003,-5.353058e+001
1.240876e+003,-5.444952e+001
1.241840e+003,-5.388446e+001
1.242804e+003,-5.167633e+001
1.243768e+003,-5.056244e+001
1.244733e+003,-5.156757e+001
1.245697e+003,-5.235608e+001
1.246661e+003,-5.315552e+001
1.247625e+003,-5.393823e+001
1.248590e+003,-5.451868e+001
1.249554e+003,-5.466882e+001
1.250518e+003,-5.432544e+001
1.251482e+003,-5.364264e+001
1.252447e+003,-5.261188e+001
1.253411e+003,-5.053101e+001
1.254375e+003,-4.792688e+001
1.255339e+003,-4.617468e+001
1.256303e+003,-4.519067e+001
1.257268e+003,-4.468512e+001
1.258232e+003,-4.516760e+001
1.259196e+003,-4.588580e+001
1.260160e+003,-4.461334e+001
1.261125e+003,-4.073566e+001
1.262089e+003,-3.688776e+001
1.263053e+003,-3.370496e+001
1.264017e+003,-3.075787e+001
1.264982e+003,-2.713409e+001
1.265946e+003,-2.402716e+001
1.266910e+003,-2.279016e+001
1.267874e+003,-2.323798e+001
1.268839e+003,-2.393457e+001
1.269803e+003,-2.389465e+001
1.270767e+003,-2.409943e+001
1.271731e+003,-2.684766e+001
1.272695e+003,-3.183990e+001
1.273660e+003,-3.469788e+001
1.274624e+003,-3.508276e+001
1.275588e+003,-3.534271e+001
1.276552e+003,-3.677069e+001
1.277517e+003,-3.832013e+001
1.278481e+003,-3.798285e+001
1.279445e+003,-3.555109e+001
1.280409e+003,-3.426160e+001
1.281374e+003,-3.583099e+001
1.282338e+003,-3.780176e+001
1.283302e+003,-3.920496e+001
1.284266e+003,-4.016687e+001
1.285230e+003,-4.053772e+001
1.286195e+003,-4.062354e+001
1.287159e+003,-4.137561e+001
1.288123e+003,-4.344910e+001
1.289087e+003,-4.602850e+001
1.290052e+003,-4.719220e+001
1.291016e+003,-4.668341e+001
1.291980e+003,-4.649774e+001
1.292944e+003,-4.818835e+001
1.293909e+003,-4.876074e+001
1.294873e+003,-4.492511e+001
1.295837e+003,-4.000842e+001
1.296801e+003,-3.925433e+001
1.297766e+003,-4.308282e+001
1.298730e+003,-4.708301e+001
1.299694e+003,-4.945770e+001
1.300658e+003,-5.068048e+001
1.301622e+003,-5.065118e+001
1.302587e+003,-4.991687e+001
1.303551e+003,-4.950885e+001
1.304515e+003,-4.947388e+001
1.305479e+003,-4.917584e+001
1.306444e+003,-4.827045e+001
1.307408e+003,-4.696356e+001
1.308372e+003,-4.544769e+001
1.309336e+003,-4.359015e+001
1.310301e+003,-4.202399e+001
1.311265e+003,-3.999847e+001
1.312229e+003,-3.886688e+001
1.313193e+003,-3.986627e+001
1.314157e+003,-4.155615e+001
1.315122e+003,-4.247174e+001
1.316086e+003,-4.253412e+001
1.317050e+003,-4.243567e+001
1.318014e+003,-4.245178e+001
1.318979e+003,-4.275616e+001
1.319943e+003,-4.444141e+001
1.320907e+003,-4.693481e+001
1.321871e+003,-4.639148e+001
1.322836e+003,-4.204163e+001
1.323800e+003,-3.835992e+001
1.324764e+003,-3.860968e+001
1.325728e+003,-4.041754e+001
1.326693e+003,-3.941467e+001
1.327657e+003,-3.559113e+001
1.328621e+003,-3.330908e+001
1.329585e+003,-3.351648e+001
1.330549e+003,-3.403192e+001
1.331514e+003,-3.470203e+001
1.332478e+003,-3.563702e+001
1.333442e+003,-3.702765e+001
1.334406e+003,-3.837207e+001
1.335371e+003,-3.841364e+001
1.336335e+003,-3.647272e+001
1.337299e+003,-3.382550e+001
1.338263e+003,-3.304486e+001
1.339228e+003,-3.437109e+001
1.340192e+003,-3.518726e+001
1.341156e+003,-3.552954e+001
1.342120e+003,-3.539233e+001
1.343084e+003,-3.486957e+001
1.344049e+003,-3.433136e+001
1.345013e+003,-3.376581e+001
1.345977e+003,-3.302838e+001
1.346941e+003,-3.187909e+001
1.347906e+003,-3.019165e+001
1.348870e+003,-2.913599e+001
1.349834e+003,-3.018097e+001
1.350798e+003,-3.258368e+001
1.351763e+003,-3.498920e+001
1.352727e+003,-3.709210e+001
1.353691e+003,-3.732941e+001
1.354655e+003,-3.449280e+001
1.355620e+003,-3.173981e+001
1.356584e+003,-3.368347e+001
1.357548e+003,-3.946106e+001
1.358512e+003,-4.195026e+001
1.359476e+003,-4.013580e+001
1.360441e+003,-3.815533e+001
1.361405e+003,-3.624066e+001
1.362369e+003,-3.494891e+001
1.363333e+003,-3.527960e+001
1.364298e+003,-3.603461e+001
1.365262e+003,-3.530457e+001
1.366226e+003,-3.287341e+001
1.367190e+003,-3.035883e+001
1.368155e+003,-2.920093e+001
1.369119e+003,-2.904474e+001
1.370083e+003,-2.868182e+001
1.371047e+003,-2.767566e+001
1.372011e+003,-2.784094e+001
1.372976e+003,-3.059515e+001
1.373940e+003,-3.326813e+001
1.374904e+003,-3.528937e+001
1.375868e+003,-3.616943e+001
1.376833e+003,-3.482715e+001
1.377797e+003,-3.165942e+001
1.378761e+003,-2.924329e+001
1.379725e+003,-2.881409e+001
1.380690e+003,-2.864996e+001
1.381654e+003,-2.630341e+001
1.382618e+003,-2.333295e+001
1.383582e+003,-2.201239e+001
1.384547e+003,-2.236536e+001
1.385511e+003,-2.341406e+001
1.386475e+003,-2.496387e+001
1.387439e+003,-2.649609e+001
1.388403e+003,-2.721991e+001
1.389368e+003,-2.716669e+001
1.390332e+003,-2.617346e+001
1.391296e+003,-2.357629e+001
1.392260e+003,-2.090399e+001
1.393225e+003,-1.760883e+001
1.394189e+003,-1.540759e+001
1.395153e+003,-1.550482e+001
1.396117e+003,-1.723730e+001
1.397082e+003,-2.017523e+001
1.398046e+003,-2.356873e+001
1.399010e+003,-2.555414e+001
1.399974e+003,-2.453235e+001
1.400938e+003,-2.186652e+001
1.401903e+003,-2.077271e+001
1.402867e+003,-2.059570e+001
1.403831e+003,-2.152405e+001
1.404795e+003,-2.672455e+001
1.405760e+003,-2.956409e+001
1.406724e+003,-2.648981e+001
1.407688e+003,-2.179138e+001
1.408652e+003,-1.969806e+001
1.409617e+003,-2.005133e+001
1.410581e+003,-2.122125e+001
1.411545e+003,-2.286896e+001
1.412509e+003,-2.367609e+001
1.413474e+003,-2.208569e+001
1.414438e+003,-1.948810e+001
1.415402e+003,-1.734985e+001
1.416366e+003,-1.550415e+001
1.417330e+003,-1.405981e+001
1.418295e+003,-1.293500e+001
1.419259e+003,-1.266760e+001
1.420223e+003,-1.488928e+001
1.421187e+003,-1.911340e+001
1.422152e+003,-2.095758e+001
1.423116e+003,-1.962048e+001
1.424080e+003,-1.704730e+001
1.425044e+003,-1.215375e+001
1.426009e+003,-8.503967e+000
1.426973e+003,-8.079163e+000
1.427937e+003,-9.478577e+000
1.428901e+003,-1.139050e+001
1.429865e+003,-1.309686e+001
1.430830e+003,-1.411987e+001
1.431794e+003,-1.428448e+001
1.432758e+003,-1.362988e+001
1.433722e+003,-1.176831e+001
1.434687e+003,-8.125610e+000
1.435651e+003,-4.554688e+000
1.436615e+003,-1.278564e+000
1.437579e+003,9.991455e-002
1.438544e+003,-2.329773e+000
1.439508e+003,-4.621399e+000
1.440472e+003,-3.129395e+000
1.441436e+003,4.760742e-001
1.442401e+003,2.228333e+000
1.443365e+003,1.219055e+000
1.444329e+003,2.863159e-001
1.445293e+003,1.872681e+000
1.446257e+003,4.144897e+000
1.447222e+003,2.888733e+000
1.448186e+003,-1.168823e+000
1.449150e+003,-3.758484e+000
1.450114e+003,-4.457336e+000
1.451079e+003,-4.420471e+000
1.452043e+003,-3.202209e+000
1.453007e+003,-1.858582e+000
1.453971e+003,-2.693115e+000
1.454936e+003,-5.395508e+000
1.455900e+003,-6.216980e+000
1.456864e+003,-3.552795e+000
1.457828e+003,-1.279114e+000
1.458792e+003,-2.411621e+000
1.459757e+003,-4.585510e+000
1.460721e+003,-6.449280e+000
1.461685e+003,-7.692200e+000
1.462649e+003,-7.498779e+000
1.463614e+003,-5.707886e+000
1.464578e+003,-3.874817e+000
1.465542e+003,-3.556946e+000
1.466506e+003,-4.283997e+000
1.467471e+003,-4.281982e+000
1.468435e+003,-3.043396e+000
1.469399e+003,-1.768738e+000
1.470363e+003,-7.894897e-001
1.471328e+003,-1.964111e-001
1.472292e+003,-8.989258e-001
1.473256e+003,-1.756958e+000
1.474220e+003,-9.238892e-001
1.475184e+003,7.786865e-001
1.476149e+003,8.031616e-001
1.477113e+003,-1.510315e+000
1.478077e+003,-3.807678e+000
1.479041e+003,-3.572571e+000
1.480006e+003,-9.139404e-001
1.480970e+003,3.437317e+000
1.481934e+003,1.054736e+001
1.482898e+003,1.298767e+001
1.483863e+003,6.466003e+000
1.484827e+003,1.705383e+000
1.485791e+003,2.526428e+000
1.486755e+003,5.919189e+000
1.487719e+003,9.531982e+000
1.488684e+003,1.287012e+001
1.489648e+003,1.607898e+001
1.490612e+003,1.933978e+001
1.491576e+003,2.215527e+001
1.492541e+003,2.387000e+001
1.493505e+003,2.490228e+001
1.494469e+003,2.580695e+001
1.495433e+003,2.644116e+001
1.496398e+003,2.850372e+001
1.497362e+003,3.299658e+001
1.498326e+003,3.808337e+001
1.499290e+003,4.200604e+001
1.500255e+003,4.644171e+001
1.501219e+003,5.432153e+001
1.502183e+003,6.486047e+001
1.503147e+003,7.325928e+001
1.504111e+003,7.770868e+001
1.505076e+003,8.398676e+001
1.506040e+003,9.670844e+001
1.507004e+003,1.116481e+002
1.507968e+003,1.237322e+002
1.508933e+003,1.348989e+002
1.509897e+003,1.494738e+002
1.510861e+003,1.686652e+002
1.511825e+003,1.898965e+002
1.512790e+003,2.111738e+002
1.513754e+003,2.326715e+002
1.514718e+003,2.556845e+002
1.515682e+003,2.798765e+002
1.516646e+003,3.024660e+002
1.517611e+003,3.243732e+002
1.518575e+003,3.429216e+002
1.519539e+003,3.568395e+002
1.520503e+003,3.683102e+002
1.521468e+003,3.803916e+002
1.522432e+003,3.893038e+002
1.523396e+003,3.884717e+002
1.524360e+003,3.784539e+002
1.525325e+003,3.668657e+002
1.526289e+003,3.588740e+002
1.527253e+003,3.508955e+002
1.528217e+003,3.360778e+002
1.529182e+003,3.146126e+002
1.530146e+003,2.926698e+002
1.531110e+003,2.710165e+002
1.532074e+003,2.466494e+002
1.533039e+003,2.160715e+002
1.534003e+003,1.855669e+002
1.534967e+003,1.578284e+002
1.535931e+003,1.329479e+002
1.536896e+003,1.096488e+002
1.537860e+003,8.889032e+001
1.538824e+003,7.397699e+001
1.539788e+003,6.620618e+001
1.540752e+003,6.201508e+001
1.541717e+003,5.712909e+001
1.542681e+003,5.183075e+001
1.543645e+003,4.683258e+001
1.544609e+003,4.198419e+001
1.545573e+003,3.892749e+001
1.546538e+003,3.756421e+001
1.547502e+003,3.710303e+001
1.548466e+003,3.771631e+001
1.549430e+003,3.955090e+001
1.550395e+003,4.381415e+001
1.551359e+003,4.888824e+001
1.552323e+003,5.067047e+001
1.553287e+003,4.790100e+001
1.554252e+003,4.353717e+001
1.555216e+003,4.011127e+001
1.556180e+003,3.681061e+001
1.557144e+003,3.125940e+001
1.558109e+003,2.352441e+001
1.559073e+003,1.858795e+001
1.560037e+003,1.708630e+001
1.561001e+003,1.623456e+001
1.561966e+003,1.566217e+001
1.562930e+003,1.571271e+001
1.563894e+003,1.623633e+001
1.564858e+003,1.733392e+001
1.565823e+003,2.011609e+001
1.566787e+003,2.452740e+001
1.567751e+003,2.699963e+001
1.568715e+003,2.500885e+001
1.569679e+003,2.228314e+001
1.570644e+003,2.403448e+001
1.571608e+003,2.820453e+001
1.572572e+003,2.914178e+001
1.573536e+003,2.682764e+001
1.574500e+003,2.503290e+001
1.575465e+003,2.482458e+001
1.576429e+003,2.547107e+001
1.577393e+003,2.656085e+001
1.578357e+003,2.782263e+001
1.579322e+003,2.888879e+001
1.580286e+003,2.987042e+001
1.581250e+003,3.143146e+001
1.582214e+003,3.404840e+001
1.583179e+003,3.619275e+001
1.584143e+003,3.623541e+001
1.585107e+003,3.528802e+001
1.586071e+003,3.516125e+001
1.587036e+003,3.601422e+001
1.588000e+003,3.726385e+001
1.588964e+003,3.856396e+001
1.589928e+003,3.994458e+001
1.590893e+003,4.158612e+001
1.591857e+003,4.327826e+001
1.592821e+003,4.459943e+001
1.593785e+003,4.571600e+001
1.594750e+003,4.743524e+001
1.595714e+003,4.989581e+001
1.596678e+003,5.161005e+001
1.597642e+003,5.146442e+001
1.598606e+003,5.124854e+001
1.599571e+003,5.313770e+001
1.600535e+003,5.558038e+001
1.601499e+003,5.592499e+001
1.602463e+003,5.448456e+001
1.603427e+003,5.435321e+001
1.604392e+003,5.697961e+001
1.605356e+003,5.986407e+001
1.606320e+003,6.051239e+001
1.607284e+003,5.948926e+001
1.608249e+003,5.792719e+001
1.609213e+003,5.577228e+001
1.610177e+003,5.538281e+001
1.611141e+003,5.814441e+001
1.612106e+003,6.021027e+001
1.613070e+003,5.809418e+001
1.614034e+003,5.605469e+001
1.614998e+003,5.839661e+001
1.615963e+003,6.249072e+001
1.616927e+003,6.288861e+001
1.617891e+003,5.929761e+001
1.618855e+003,5.712170e+001
1.619820e+003,5.976025e+001
1.620784e+003,6.324524e+001
1.621748e+003,6.169684e+001
1.622712e+003,5.665063e+001
1.623677e+003,5.537048e+001
1.624641e+003,5.870667e+001
1.625605e+003,6.126947e+001
1.626569e+003,6.050769e+001
1.627533e+003,5.955420e+001
1.628498e+003,6.044281e+001
1.629462e+003,6.207837e+001
1.630426e+003,6.328278e+001
1.631390e+003,6.439374e+001
1.632354e+003,6.683313e+001
1.633319e+003,7.066113e+001
1.634283e+003,7.347736e+001
1.635247e+003,7.339722e+001
1.636211e+003,7.144257e+001
1.637176e+003,6.912091e+001
1.638140e+003,6.668945e+001
1.639104e+003,6.608264e+001
1.640068e+003,6.790210e+001
1.641033e+003,6.879724e+001
1.641997e+003,6.742444e+001
1.642961e+003,6.604126e+001
1.643925e+003,6.537640e+001
1.644890e+003,6.547083e+001
1.645854e+003,6.689508e+001
1.646818e+003,6.891412e+001
1.647782e+003,6.988586e+001
1.648747e+003,6.928772e+001
1.649711e+003,6.781036e+001
1.650675e+003,6.591174e+001
1.651639e+003,6.438403e+001
1.652604e+003,6.495239e+001
1.653568e+003,6.732135e+001
1.654532e+003,6.788562e+001
1.655496e+003,6.608875e+001
1.656460e+003,6.383044e+001
1.657425e+003,6.127997e+001
1.658389e+003,5.914313e+001
1.659353e+003,5.809467e+001
1.660317e+003,5.732971e+001
1.661281e+003,5.570648e+001
1.662246e+003,5.349902e+001
1.663210e+003,5.205176e+001
1.664174e+003,5.188019e+001
1.665138e+003,5.191547e+001
1.666103e+003,5.096594e+001
1.667067e+003,4.967853e+001
1.668031e+003,4.984625e+001
1.668995e+003,5.139301e+001
1.669960e+003,5.211847e+001
1.670924e+003,5.193237e+001
1.671888e+003,5.094940e+001
1.672852e+003,4.823956e+001
1.673817e+003,4.577832e+001
1.674781e+003,4.474707e+001
1.675745e+003,4.458508e+001
1.676709e+003,4.519592e+001
1.677674e+003,4.608008e+001
1.678638e+003,4.591449e+001
1.679602e+003,4.430603e+001
1.680566e+003,4.224707e+001
1.681531e+003,4.043066e+001
1.682495e+003,3.911456e+001
1.683459e+003,3.855524e+001
1.684423e+003,3.847137e+001
1.685387e+003,3.824982e+001
1.686352e+003,3.797516e+001
1.687316e+003,3.719312e+001
1.688280e+003,3.521899e+001
1.689244e+003,3.369104e+001
1.690208e+003,3.443127e+001
1.691173e+003,3.569366e+001
1.692137e+003,3.555908e+001
1.693101e+003,3.461115e+001
1.694065e+003,3.439746e+001
1.695030e+003,3.506427e+001
1.695994e+003,3.527423e+001
1.696958e+003,3.419910e+001
1.697922e+003,3.258179e+001
1.698887e+003,3.129883e+001
1.699851e+003,3.030774e+001
1.700815e+003,2.926880e+001
1.701779e+003,2.801288e+001
1.702744e+003,2.631561e+001
1.703708e+003,2.423053e+001
1.704672e+003,2.253723e+001
1.705636e+003,2.125708e+001
1.706601e+003,2.045050e+001
1.707565e+003,2.103821e+001
1.708529e+003,2.273682e+001
1.709493e+003,2.415594e+001
1.710458e+003,2.515778e+001
1.711422e+003,2.524115e+001
1.712386e+003,2.391174e+001
1.713350e+003,2.240387e+001
1.714314e+003,2.130646e+001
1.715279e+003,2.035883e+001
1.716243e+003,1.962909e+001
1.717207e+003,1.895868e+001
1.718171e+003,1.716425e+001
1.719135e+003,1.398712e+001
1.720100e+003,1.190784e+001
1.721064e+003,1.264459e+001
1.722028e+003,1.476727e+001
1.722992e+003,1.714575e+001
1.723957e+003,1.957196e+001
1.724921e+003,1.888605e+001
1.725885e+003,1.400995e+001
1.726849e+003,1.002454e+001
1.727814e+003,7.615845e+000
1.728778e+003,7.389771e+000
1.729742e+003,1.189716e+001
1.730706e+003,1.644067e+001
1.731671e+003,1.513202e+001
1.732635e+003,1.019989e+001
1.733599e+003,7.517334e+000
1.734563e+003,8.238037e+000
1.735528e+003,9.779175e+000
1.736492e+003,1.063263e+001
1.737456e+003,1.049231e+001
1.738420e+003,8.795349e+000
1.739385e+003,6.093201e+000
1.740349e+003,5.327759e+000
1.741313e+003,7.206299e+000
1.742277e+003,8.499756e+000
1.743241e+003,9.857849e+000
1.744206e+003,1.014545e+001
1.745170e+003,7.547363e+000
1.746134e+003,5.471313e+000
1.747098e+003,6.722473e+000
1.748063e+003,8.768860e+000
1.749027e+003,8.112732e+000
1.749991e+003,5.635071e+000
1.750955e+003,4.567688e+000
1.751919e+003,5.931946e+000
1.752884e+003,8.497131e+000
1.753848e+003,1.129163e+001
1.754812e+003,1.335529e+001
1.755776e+003,1.268677e+001
1.756741e+003,9.647766e+000
1.757705e+003,8.195374e+000
1.758669e+003,8.702942e+000
1.759633e+003,9.083130e+000
1.760598e+003,1.000873e+001
1.761562e+003,9.041199e+000
1.762526e+003,2.901001e+000
1.763490e+003,-2.203674e+000
1.764455e+003,-1.070190e+000
1.765419e+003,3.660156e+000
1.766383e+003,8.260986e+000
1.767347e+003,1.144183e+001
1.768312e+003,1.209204e+001
1.769276e+003,9.564514e+000
1.770240e+003,6.305969e+000
1.771204e+003,5.114563e+000
1.772168e+003,5.554504e+000
1.773133e+003,6.210266e+000
1.774097e+003,7.034180e+000
1.775061e+003,7.749939e+000
1.776025e+003,8.138672e+000
1.776990e+003,7.504456e+000
1.777954e+003,5.035278e+000
1.778918e+003,3.776917e+000
1.779882e+003,7.446838e+000
1.780846e+003,1.180817e+001
1.781811e+003,1.057104e+001
1.782775e+003,5.588684e+000
1.783739e+003,2.952515e+000
1.784703e+003,3.769592e+000
1.785668e+003,4.891907e+000
1.786632e+003,4.791992e+000
1.787596e+003,4.257141e+000
1.788560e+003,3.757629e+000
1.789525e+003,3.959106e+000
1.790489e+003,5.923950e+000
1.791453e+003,8.885864e+000
1.792417e+003,1.092279e+001
1.793382e+003,1.163953e+001
1.794346e+003,1.158832e+001
1.795310e+003,1.097943e+001
1.796274e+003,1.019568e+001
1.797239e+003,9.858948e+000
1.798203e+003,1.008441e+001
1.799167e+003,1.017847e+001
1.800131e+003,9.521912e+000
1.801095e+003,8.996704e+000
1.802060e+003,9.149719e+000
1.803024e+003,9.614075e+000
1.803988e+003,1.038416e+001
1.804952e+003,1.103217e+001
1.805917e+003,1.105707e+001
1.806881e+003,1.109753e+001
1.807845e+003,1.264038e+001
1.808809e+003,1.459845e+001
1.809773e+003,1.409692e+001
1.810738e+003,1.105066e+001
1.811702e+003,8.648682e+000
1.812666e+003,8.854919e+000
1.813630e+003,1.041187e+001
1.814595e+003,1.178961e+001
1.815559e+003,1.282788e+001
1.816523e+003,1.321136e+001
1.817487e+003,1.301678e+001
1.818452e+003,1.196802e+001
1.819416e+003,9.905945e+000
1.820380e+003,8.080200e+000
1.821344e+003,5.506592e+000
1.822309e+003,4.594727e+000
1.823273e+003,9.057190e+000
1.824237e+003,1.437250e+001
1.825201e+003,1.495099e+001
1.826166e+003,1.243469e+001
1.827130e+003,1.213257e+001
1.828094e+003,1.480719e+001
1.829058e+003,1.673987e+001
1.830022e+003,1.627490e+001
1.830987e+003,1.482129e+001
1.831951e+003,1.287421e+001
1.832915e+003,1.114105e+001
1.833879e+003,1.045331e+001
1.834844e+003,1.087415e+001
1.835808e+003,1.313000e+001
1.836772e+003,1.695508e+001
1.837736e+003,1.902271e+001
1.838700e+003,1.770343e+001
1.839665e+003,1.543555e+001
1.840629e+003,1.449103e+001
1.841593e+003,1.439252e+001
1.842557e+003,1.386249e+001
1.843522e+003,1.290613e+001
1.844486e+003,1.288464e+001
1.845450e+003,1.559314e+001
1.846414e+003,1.638770e+001
1.847379e+003,1.232867e+001
1.848343e+003,9.533264e+000
1.849307e+003,1.119006e+001
1.850271e+003,1.354462e+001
1.851236e+003,1.385297e+001
1.852200e+003,1.338116e+001
1.853164e+003,1.384918e+001
1.854128e+003,1.510388e+001
1.855093e+003,1.664594e+001
1.856057e+003,1.828857e+001
1.857021e+003,1.844891e+001
1.857985e+003,1.524158e+001
1.858949e+003,1.164282e+001
1.859914e+003,1.428937e+001
1.860878e+003,2.153094e+001
1.861842e+003,2.270093e+001
1.862806e+003,1.747058e+001
1.863771e+003,1.457892e+001
1.864735e+003,1.567828e+001
1.865699e+003,1.763617e+001
1.866663e+003,1.976855e+001
1.867627e+003,2.154816e+001
1.868592e+003,2.213818e+001
1.869556e+003,2.179419e+001
1.870520e+003,2.153546e+001
1.871484e+003,2.125513e+001
1.872449e+003,2.015381e+001
1.873413e+003,1.822382e+001
1.874377e+003,1.822748e+001
1.875341e+003,2.251581e+001
1.876306e+003,2.558105e+001
1.877270e+003,2.314240e+001
1.878234e+003,1.913965e+001
1.879198e+003,1.709149e+001
1.880163e+003,1.696088e+001
1.881127e+003,1.867303e+001
1.882091e+003,2.150452e+001
1.883055e+003,2.359125e+001
1.884020e+003,2.408325e+001
1.884984e+003,2.308643e+001
1.885948e+003,2.061420e+001
1.886912e+003,1.814801e+001
1.887876e+003,1.898877e+001
1.888841e+003,2.279065e+001
1.889805e+003,2.461890e+001
1.890769e+003,2.385138e+001
1.891733e+003,2.476312e+001
1.892698e+003,2.908075e+001
1.893662e+003,3.122351e+001
1.894626e+003,2.755267e+001
1.895590e+003,2.366077e+001
1.896554e+003,2.388074e+001
1.897519e+003,2.591510e+001
1.898483e+003,2.691290e+001
1.899447e+003,2.691095e+001
1.900411e+003,2.753314e+001
1.901376e+003,2.924091e+001
1.902340e+003,2.961542e+001
1.903304e+003,2.651868e+001
1.904268e+003,2.370599e+001
1.905233e+003,2.407764e+001
1.906197e+003,2.545404e+001
1.907161e+003,2.581915e+001
1.908125e+003,2.551660e+001
1.909090e+003,2.482819e+001
1.910054e+003,2.400659e+001
1.911018e+003,2.408105e+001
1.911982e+003,2.541681e+001
1.912947e+003,2.701410e+001
1.913911e+003,2.806476e+001
1.914875e+003,2.919531e+001
1.915839e+003,3.138232e+001
1.916803e+003,3.408228e+001
1.917768e+003,3.558240e+001
1.918732e+003,3.599042e+001
1.919696e+003,3.560535e+001
1.920660e+003,3.401398e+001
1.921625e+003,3.331708e+001
1.922589e+003,3.404382e+001
1.923553e+003,3.523193e+001
1.924517e+003,3.731293e+001
1.925481e+003,3.887323e+001
1.926446e+003,3.784027e+001
1.927410e+003,3.572852e+001
1.928374e+003,3.580231e+001
1.929338e+003,3.791351e+001
1.930303e+003,3.881024e+001
1.931267e+003,3.767902e+001
1.932231e+003,3.665527e+001
1.933195e+003,3.640753e+001
1.934160e+003,3.633838e+001
1.935124e+003,3.623468e+001
1.936088e+003,3.573688e+001
1.937052e+003,3.432617e+001
1.938017e+003,3.265955e+001
1.938981e+003,3.186023e+001
1.939945e+003,3.202222e+001
1.940909e+003,3.258887e+001
1.941874e+003,3.322137e+001
1.942838e+003,3.394763e+001
1.943802e+003,3.502820e+001
1.944766e+003,3.653003e+001
1.945730e+003,3.815021e+001
1.946695e+003,3.965381e+001
1.947659e+003,4.044617e+001
1.948623e+003,4.035443e+001
1.949587e+003,4.099072e+001
1.950552e+003,4.315173e+001
1.951516e+003,4.393335e+001
1.952480e+003,4.164661e+001
1.953444e+003,3.927728e+001
1.954408e+003,3.879291e+001
1.955373e+003,3.915131e+001
1.956337e+003,3.960962e+001
1.957301e+003,4.018896e+001
1.958265e+003,3.953479e+001
1.959230e+003,3.726599e+001
1.960194e+003,3.719385e+001
1.961158e+003,4.139600e+001
1.962122e+003,4.456494e+001
1.963087e+003,4.520844e+001
1.964051e+003,4.477728e+001
1.965015e+003,4.370959e+001
1.965979e+003,4.281030e+001
1.966944e+003,4.267694e+001
1.967908e+003,4.284247e+001
1.968872e+003,4.249469e+001
1.969836e+003,4.173163e+001
1.970801e+003,4.124872e+001
1.971765e+003,4.140594e+001
1.972729e+003,4.246613e+001
1.973693e+003,4.484033e+001
1.974657e+003,4.757434e+001
1.975622e+003,4.922363e+001
1.976586e+003,4.993713e+001
1.977550e+003,5.057367e+001
1.978514e+003,5.107910e+001
1.979479e+003,4.990155e+001
1.980443e+003,4.698376e+001
1.981407e+003,4.644464e+001
1.982371e+003,5.006299e+001
1.983335e+003,5.357275e+001
1.984300e+003,5.358740e+001
1.985264e+003,5.163177e+001
1.986228e+003,4.997748e+001
1.987192e+003,4.883917e+001
1.988157e+003,4.950781e+001
1.989121e+003,5.261597e+001
1.990085e+003,5.482849e+001
1.991049e+003,5.630432e+001
1.992014e+003,5.686658e+001
1.992978e+003,5.515863e+001
1.993942e+003,5.405200e+001
1.994906e+003,5.534436e+001
1.995871e+003,5.675946e+001
1.996835e+003,5.597296e+001
1.997799e+003,5.481433e+001
1.998763e+003,5.655383e+001
1.999728e+003,6.032098e+001
