5.003444e+002,4.141055e+001
5.013087e+002,4.067435e+001
5.022729e+002,4.034253e+001
5.032371e+002,4.026935e+001
5.042014e+002,3.902255e+001
5.051656e+002,3.686023e+001
5.061298e+002,3.482019e+001
5.070941e+002,3.378415e+001
5.080583e+002,3.379138e+001
5.090225e+002,3.406262e+001
5.099868e+002,3.504617e+001
5.109510e+002,3.574573e+001
5.119152e+002,3.549939e+001
5.128795e+002,3.423352e+001
5.138437e+002,3.320526e+001
5.148079e+002,3.331128e+001
5.157722e+002,3.342398e+001
5.167364e+002,3.290335e+001
5.177006e+002,3.168863e+001
5.186649e+002,3.027255e+001
5.196291e+002,2.929123e+001
5.205933e+002,2.890302e+001
5.215576e+002,2.896631e+001
5.225218e+002,2.931955e+001
5.234860e+002,2.996704e+001
5.244503e+002,3.122064e+001
5.254145e+002,3.372009e+001
5.263787e+002,3.473233e+001
5.273430e+002,3.365924e+001
5.283072e+002,3.152707e+001
5.292714e+002,2.954538e+001
5.302357e+002,2.727313e+001
5.311999e+002,2.552744e+001
5.321641e+002,2.475845e+001
5.331284e+002,2.461658e+001
5.340926e+002,2.477823e+001
5.350568e+002,2.502588e+001
5.360211e+002,2.529395e+001
5.369853e+002,2.640244e+001
5.379495e+002,2.745303e+001
5.389138e+002,2.735904e+001
5.398780e+002,2.577435e+001
5.408422e+002,2.333499e+001
5.418065e+002,2.169971e+001
5.427707e+002,2.081738e+001
5.437349e+002,2.082101e+001
5.446992e+002,2.209277e+001
5.456634e+002,2.401529e+001
5.466276e+002,2.446854e+001
5.475919e+002,2.158713e+001
5.485561e+002,1.960086e+001
5.495203e+002,1.918076e+001
5.504846e+002,1.940100e+001
5.514488e+002,1.891840e+001
5.524130e+002,1.700674e+001
5.533773e+002,1.532520e+001
5.543415e+002,1.448993e+001
5.553057e+002,1.435373e+001
5.562700e+002,1.506882e+001
5.572342e+002,1.667596e+001
5.581984e+002,1.824463e+001
5.591627e+002,1.693668e+001
5.601269e+002,1.411304e+001
5.610911e+002,1.272769e+001
5.620554e+002,1.441293e+001
5.630196e+002,1.845551e+001
5.639838e+002,1.899707e+001
5.649481e+002,1.207645e+001
5.659123e+002,7.442261e+000
5.668765e+002,8.462250e+000
5.678408e+002,1.327029e+001
5.688050e+002,1.614685e+001
5.697692e+002,1.383975e+001
5.707335e+002,1.131232e+001
5.716977e+002,1.033350e+001
5.726619e+002,1.015775e+001
5.736262e+002,9.382874e+000
5.745904e+002,6.841156e+000
5.755546e+002,4.580811e+000
5.765189e+002,5.969177e+000
5.774831e+002,9.419434e+000
5.784473e+002,1.272351e+001
5.794116e+002,1.444998e+001
5.803758e+002,1.477399e+001
5.813400e+002,1.376627e+001
5.823043e+002,1.090472e+001
5.832685e+002,7.761047e+000
5.842327e+002,4.438690e+000
5.851970e+002,1.310242e+000
5.861612e+002,-9.368896e-003
5.871254e+002,2.727264e+000
5.880897e+002,4.888428e+000
5.890539e+002,5.222351e+000
5.900181e+002,4.350677e+000
5.909824e+002,3.527588e+000
5.919466e+002,3.653290e+000
5.929108e+002,3.980988e+000
5.938751e+002,3.288269e+000
5.948393e+002,2.256195e+000
5.958035e+002,2.203979e+000
5.967678e+002,4.092407e+000
5.977320e+002,7.510376e+000
5.986962e+002,8.232178e+000
5.996605e+002,6.040405e+000
6.006247e+002,4.028839e+000
6.015889e+002,4.022949e+000
6.025532e+002,5.836243e+000
6.035174e+002,6.305054e+000
6.044816e+002,3.150696e+000
6.054459e+002,1.157196e+000
6.064101e+002,1.635590e+000
6.073743e+002,3.622528e+000
6.083386e+002,5.423553e+000
6.093028e+002,6.418365e+000
6.102670e+002,6.573212e+000
6.112313e+002,5.254944e+000
6.121955e+002,3.475250e+000
6.131597e+002,2.774323e+000
6.141240e+002,4.157867e+000
6.150882e+002,6.781647e+000
6.160524e+002,6.904663e+000
6.170167e+002,5.082031e+000
6.179809e+002,3.156525e+000
6.189451e+002,1.639648e+000
6.199094e+002,4.977112e-001
6.208736e+002,2.141418e-001
6.218378e+002,2.309174e+000
6.228021e+002,3.986847e+000
6.237663e+002,4.848816e+000
6.247305e+002,5.260040e+000
6.256948e+002,5.894073e+000
6.266590e+002,7.251709e+000
6.276232e+002,7.658447e+000
6.285875e+002,5.737213e+000
6.295517e+002,3.105743e+000
6.305159e+002,1.506866e+000
6.314802e+002,1.787811e+000
6.324444e+002,2.932098e+000
6.334086e+002,2.167816e+000
6.343729e+002,2.734375e-001
6.353371e+002,-1.273956e+000
6.363013e+002,-2.093964e+000
6.372656e+002,-2.191711e+000
6.382298e+002,-1.359375e+000
6.391940e+002,2.314758e+000
6.401583e+002,4.135651e+000
6.411225e+002,3.248444e+000
6.420867e+002,1.332947e+000
6.430510e+002,2.867126e-001
6.440152e+002,7.096252e-001
6.449794e+002,8.239441e-001
6.459437e+002,-6.816406e-001
6.469079e+002,-2.521912e+000
6.478721e+002,-3.564423e+000
6.488364e+002,-3.428619e+000
6.498006e+002,-2.803741e+000
6.507648e+002,-3.317169e+000
6.517291e+002,-4.362000e+000
6.526933e+002,-4.032410e+000
6.536575e+002,-1.905060e+000
6.546218e+002,9.804077e-001
6.555860e+002,2.649384e+000
6.565502e+002,2.453491e+000
6.575145e+002,2.146515e+000
6.584787e+002,1.686005e+000
6.594429e+002,1.196228e+000
6.604072e+002,7.700195e-001
6.613714e+002,4.263000e-001
6.623356e+002,1.452942e-001
6.632999e+002,-2.100220e-001
6.642641e+002,-6.551819e-001
6.652283e+002,-1.198944e+000
6.661926e+002,-1.657867e+000
6.671568e+002,-1.704895e+000
6.681210e+002,-9.447632e-001
6.690853e+002,2.908630e-001
6.700495e+002,1.417358e+000
6.710137e+002,2.402466e+000
6.719780e+002,3.003174e+000
6.729422e+002,2.894623e+000
6.739064e+002,1.836151e+000
6.748707e+002,1.036316e+000
6.758349e+002,1.031250e+000
6.767991e+002,5.423584e-001
6.777634e+002,-1.484833e+000
6.787276e+002,-4.551392e+000
6.796918e+002,-5.991913e+000
6.806561e+002,-3.672943e+000
6.816203e+002,-1.043915e+000
6.825845e+002,1.466736e+000
6.835488e+002,3.191711e+000
6.845130e+002,2.978546e+000
6.854772e+002,-2.391968e-001
6.864415e+002,-4.439819e+000
6.874057e+002,-5.291138e+000
6.883699e+002,-3.910736e+000
6.893342e+002,-2.264160e+000
6.902984e+002,-1.311157e+000
6.912626e+002,-1.011383e+000
6.922269e+002,-1.483521e+000
6.931911e+002,-4.222412e+000
6.941553e+002,-5.061523e+000
6.951196e+002,-2.833435e+000
6.960838e+002,8.561707e-001
6.970480e+002,3.773865e+000
6.980123e+002,5.674072e+000
6.989765e+002,6.372955e+000
6.999407e+002,5.386902e+000
7.009050e+002,3.783997e+000
7.018692e+002,2.378021e+000
7.028334e+002,1.425232e+000
7.037977e+002,4.791565e-001
7.047619e+002,-1.346863e+000
7.057261e+002,-3.333130e+000
7.066904e+002,-4.081299e+000
7.076546e+002,-3.376953e+000
7.086188e+002,-2.225647e+000
7.095831e+002,-2.287048e+000
7.105473e+002,-4.382660e+000
7.115115e+002,-5.387482e+000
7.124758e+002,-4.532440e+000
7.134400e+002,-3.708344e+000
7.144042e+002,-4.095459e+000
7.153685e+002,-5.641022e+000
7.163327e+002,-6.992859e+000
7.172969e+002,-8.037140e+000
7.182612e+002,-8.160583e+000
7.192254e+002,-6.211426e+000
7.201896e+002,-3.257416e+000
7.211539e+002,-1.429749e+000
7.221181e+002,-2.653381e+000
7.230823e+002,-5.458008e+000
7.240466e+002,-5.517670e+000
7.250108e+002,-3.324615e+000
7.259750e+002,-1.290314e+000
7.269393e+002,-1.026520e+000
7.279035e+002,-2.487366e+000
7.288677e+002,-3.585022e+000
7.298320e+002,-3.718323e+000
7.307962e+002,-3.380676e+000
7.317604e+002,-2.305176e+000
7.327247e+002,-8.362427e-001
7.336889e+002,4.205627e-001
7.346531e+002,1.012238e+000
7.356174e+002,1.139801e+000
7.365816e+002,1.756104e+000
7.375458e+002,2.161713e+000
7.385101e+002,1.271759e+000
7.394743e+002,-8.640442e-001
7.404385e+002,-2.767578e+000
7.414028e+002,-1.905273e+000
7.423670e+002,6.255798e-001
7.433312e+002,1.271545e+000
7.442955e+002,-3.225708e-002
7.452597e+002,-1.710449e+000
7.462239e+002,-2.161713e+000
7.471882e+002,-1.228546e+000
7.481524e+002,-4.190063e-002
7.491166e+002,1.627289e+000
7.500809e+002,2.694580e+000
7.510451e+002,2.676819e+000
7.520093e+002,1.713898e+000
7.529736e+002,3.202515e-001
7.539378e+002,-1.515045e+000
7.549020e+002,-2.787445e+000
7.558663e+002,-3.030457e+000
7.568306e+002,-2.447571e+000
7.577948e+002,-1.285614e+000
7.587590e+002,2.125549e-001
7.597233e+002,1.858429e+000
7.606875e+002,3.812469e+000
7.616517e+002,6.106995e+000
7.626160e+002,7.069153e+000
7.635802e+002,5.789551e+000
7.645444e+002,3.508759e+000
7.655087e+002,2.864990e+000
7.664729e+002,4.858002e+000
7.674371e+002,6.227142e+000
7.684014e+002,7.002716e+000
7.693656e+002,6.998657e+000
7.703298e+002,5.741486e+000
7.712941e+002,3.391205e+000
7.722583e+002,1.243469e+000
7.732225e+002,9.262085e-002
7.741868e+002,-2.723083e-001
7.751510e+002,4.410400e-001
7.761152e+002,1.803436e+000
7.770795e+002,2.836609e+000
7.780437e+002,2.640930e+000
7.790079e+002,1.383881e+000
7.799722e+002,1.124573e+000
7.809364e+002,1.934784e+000
7.819006e+002,2.531219e+000
7.828649e+002,2.598785e+000
7.838291e+002,2.295502e+000
7.847933e+002,1.672638e+000
7.857576e+002,-5.107727e-001
7.867218e+002,-1.314423e+000
7.876860e+002,1.299957e+000
7.886503e+002,4.563293e+000
7.896145e+002,5.801086e+000
7.905787e+002,4.452057e+000
7.915430e+002,3.118774e+000
7.925072e+002,5.434601e+000
7.934714e+002,8.389832e+000
7.944357e+002,8.459869e+000
7.953999e+002,5.905823e+000
7.963641e+002,3.220520e+000
7.973284e+002,3.159698e+000
7.982926e+002,5.940857e+000
7.992568e+002,7.404602e+000
8.002211e+002,6.953339e+000
8.011853e+002,5.790894e+000
8.021495e+002,4.662140e+000
8.031138e+002,3.725464e+000
8.040780e+002,2.407593e+000
8.050422e+002,-1.030609e+000
8.060065e+002,-2.509430e+000
8.069707e+002,3.483887e-001
8.079349e+002,4.593689e+000
8.088992e+002,7.577606e+000
8.098634e+002,8.400909e+000
8.108276e+002,8.202271e+000
8.117919e+002,8.356842e+000
8.127561e+002,8.181000e+000
8.137203e+002,6.584839e+000
8.146846e+002,3.709717e+000
8.156488e+002,1.206146e+000
8.166130e+002,1.152618e+000
8.175773e+002,4.208832e+000
8.185415e+002,5.330231e+000
8.195057e+002,2.672699e+000
8.204700e+002,3.651733e-001
8.214342e+002,-2.937012e-001
8.223984e+002,4.648132e-001
8.233627e+002,2.050995e+000
8.243269e+002,5.055267e+000
8.252911e+002,7.419647e+000
8.262554e+002,7.721649e+000
8.272196e+002,7.075745e+000
8.281838e+002,6.373932e+000
8.291481e+002,6.064178e+000
8.301123e+002,6.305115e+000
8.310765e+002,7.737091e+000
8.320408e+002,9.986115e+000
8.330050e+002,9.927063e+000
8.339692e+002,6.915222e+000
8.349335e+002,3.252167e+000
8.358977e+002,1.212067e+000
8.368619e+002,1.013245e+000
8.378262e+002,1.654999e+000
8.387904e+002,4.136505e+000
8.397546e+002,5.924255e+000
8.407189e+002,5.900421e+000
8.416831e+002,4.915680e+000
8.426473e+002,4.545654e+000
8.436116e+002,5.608521e+000
8.445758e+002,7.051056e+000
8.455400e+002,7.789276e+000
8.465043e+002,7.817963e+000
8.474685e+002,7.082794e+000
8.484327e+002,5.860107e+000
8.493970e+002,4.798553e+000
8.503612e+002,4.733978e+000
8.513254e+002,5.727356e+000
8.522897e+002,7.119812e+000
8.532539e+002,9.951904e+000
8.542181e+002,1.159784e+001
8.551824e+002,9.495728e+000
8.561466e+002,4.528870e+000
8.571108e+002,2.661041e+000
8.580751e+002,7.487793e+000
8.590393e+002,1.152130e+001
8.600035e+002,1.226099e+001
8.609678e+002,1.138742e+001
8.619320e+002,1.062671e+001
8.628962e+002,1.072980e+001
8.638605e+002,1.149960e+001
8.648247e+002,1.330148e+001
8.657889e+002,1.531552e+001
8.667532e+002,1.546561e+001
8.677174e+002,1.348907e+001
8.686816e+002,1.130920e+001
8.696459e+002,1.125449e+001
8.706101e+002,1.377225e+001
8.715743e+002,1.590082e+001
8.725386e+002,1.832770e+001
8.735028e+002,1.962997e+001
8.744670e+002,1.799417e+001
8.754313e+002,1.503101e+001
8.763955e+002,1.423773e+001
8.773597e+002,1.753690e+001
8.783240e+002,2.072839e+001
8.792882e+002,2.020789e+001
8.802524e+002,1.841220e+001
8.812167e+002,1.711630e+001
8.821809e+002,1.690826e+001
8.831451e+002,1.775894e+001
8.841094e+002,1.978696e+001
8.850736e+002,2.299915e+001
8.860378e+002,2.450690e+001
8.870021e+002,2.359454e+001
8.879663e+002,2.321942e+001
8.889305e+002,2.586780e+001
8.898948e+002,3.056628e+001
8.908590e+002,3.237183e+001
8.918232e+002,2.876450e+001
8.927875e+002,2.616397e+001
8.937517e+002,2.649240e+001
8.947159e+002,2.784680e+001
8.956802e+002,2.875150e+001
8.966444e+002,2.865524e+001
8.976086e+002,2.762433e+001
8.985729e+002,2.530435e+001
8.995371e+002,2.295428e+001
9.005013e+002,2.255786e+001
9.014656e+002,2.395410e+001
9.024298e+002,2.566931e+001
9.033940e+002,2.642944e+001
9.043583e+002,2.632559e+001
9.053225e+002,2.736261e+001
9.062867e+002,3.191794e+001
9.072510e+002,3.409818e+001
9.082152e+002,3.232184e+001
9.091794e+002,2.950864e+001
9.101437e+002,2.847180e+001
9.111079e+002,2.964252e+001
9.120721e+002,3.119345e+001
9.130364e+002,3.219946e+001
9.140006e+002,3.280679e+001
9.149648e+002,3.337317e+001
9.159291e+002,3.385345e+001
9.168933e+002,3.373563e+001
9.178575e+002,3.259921e+001
9.188218e+002,3.091678e+001
9.197860e+002,3.090909e+001
9.207502e+002,3.254462e+001
9.217145e+002,3.335632e+001
9.226787e+002,3.296930e+001
9.236429e+002,3.196774e+001
9.246072e+002,3.074707e+001
9.255714e+002,2.899249e+001
9.265356e+002,2.787900e+001
9.274999e+002,2.861655e+001
9.284641e+002,2.874301e+001
9.294283e+002,2.694308e+001
9.303926e+002,2.417017e+001
9.313568e+002,2.208005e+001
9.323210e+002,2.150888e+001
9.332853e+002,2.179214e+001
9.342495e+002,2.248187e+001
9.352137e+002,2.313260e+001
9.361780e+002,2.308163e+001
9.371422e+002,2.233765e+001
9.381064e+002,2.128986e+001
9.390707e+002,2.015851e+001
9.400349e+002,1.854758e+001
9.409991e+002,1.818228e+001
9.419634e+002,2.032697e+001
9.429276e+002,2.182593e+001
9.438918e+002,2.125784e+001
9.448561e+002,1.980023e+001
9.458203e+002,1.953046e+001
9.467845e+002,2.121973e+001
9.477488e+002,2.341934e+001
9.487130e+002,2.580365e+001
9.496772e+002,2.761240e+001
9.506415e+002,2.784418e+001
9.516057e+002,2.671768e+001
9.525699e+002,2.523584e+001
9.535342e+002,2.433121e+001
9.544984e+002,2.394809e+001
9.554626e+002,2.457202e+001
9.564269e+002,2.687567e+001
9.573911e+002,2.837003e+001
9.583553e+002,2.784631e+001
9.593196e+002,2.624084e+001
9.602838e+002,2.499869e+001
9.612480e+002,2.409744e+001
9.622123e+002,2.361548e+001
9.631765e+002,2.406723e+001
9.641407e+002,2.457602e+001
9.651050e+002,2.441730e+001
9.660692e+002,2.389270e+001
9.670334e+002,2.393753e+001
9.679977e+002,2.525797e+001
9.689619e+002,2.729858e+001
9.699261e+002,2.853967e+001
9.708904e+002,2.903842e+001
9.718546e+002,2.916565e+001
9.728188e+002,2.881281e+001
9.737831e+002,2.851233e+001
9.747473e+002,2.924133e+001
9.757115e+002,3.141025e+001
9.766758e+002,3.273392e+001
9.776400e+002,3.192505e+001
9.786042e+002,3.216953e+001
9.795685e+002,3.558884e+001
9.805327e+002,3.962564e+001
9.814969e+002,4.064117e+001
9.824612e+002,3.753262e+001
9.834254e+002,3.376593e+001
9.843896e+002,3.264401e+001
9.853539e+002,3.238599e+001
9.863181e+002,3.121774e+001
9.872823e+002,2.895853e+001
9.882466e+002,2.613806e+001
9.892108e+002,2.336838e+001
9.901750e+002,2.101901e+001
9.911393e+002,1.994037e+001
9.921035e+002,2.026596e+001
9.930677e+002,2.066415e+001
9.940320e+002,2.145236e+001
9.949962e+002,2.241367e+001
9.959604e+002,2.343106e+001
9.969247e+002,2.450723e+001
9.978889e+002,2.532678e+001
9.988531e+002,2.496341e+001
9.998174e+002,2.469244e+001
1.000782e+003,2.527090e+001
1.001746e+003,2.675787e+001
1.002710e+003,2.957092e+001
1.003674e+003,3.359158e+001
1.004639e+003,3.739935e+001
1.005603e+003,3.834271e+001
1.006567e+003,3.601389e+001
1.007531e+003,3.511365e+001
1.008495e+003,3.624692e+001
1.009460e+003,3.757181e+001
1.010424e+003,3.806418e+001
1.011388e+003,3.794376e+001
1.012352e+003,3.796625e+001
1.013317e+003,3.846738e+001
1.014281e+003,3.828711e+001
1.015245e+003,3.626254e+001
1.016209e+003,3.408160e+001
1.017174e+003,3.357007e+001
1.018138e+003,3.436072e+001
1.019102e+003,3.426279e+001
1.020066e+003,3.141351e+001
1.021031e+003,2.700781e+001
1.021995e+003,2.372525e+001
1.022959e+003,2.125226e+001
1.023923e+003,2.024036e+001
1.024887e+003,2.165851e+001
1.025852e+003,2.323386e+001
1.026816e+003,2.072833e+001
1.027780e+003,1.281424e+001
1.028744e+003,7.903717e+000
1.029709e+003,8.458832e+000
1.030673e+003,9.798462e+000
1.031637e+003,1.133948e+001
1.032601e+003,1.241367e+001
1.033566e+003,1.223868e+001
1.034530e+003,1.063367e+001
1.035494e+003,8.644135e+000
1.036458e+003,7.063080e+000
1.037422e+003,5.923096e+000
1.038387e+003,5.580017e+000
1.039351e+003,5.858917e+000
1.040315e+003,5.753998e+000
1.041279e+003,4.461884e+000
1.042244e+003,2.474426e+000
1.043208e+003,1.903564e+000
1.044172e+003,3.640991e+000
1.045136e+003,4.979309e+000
1.046101e+003,5.919556e+000
1.047065e+003,6.600952e+000
1.048029e+003,6.549683e+000
1.048993e+003,6.164154e+000
1.049958e+003,7.185181e+000
1.050922e+003,1.129144e+001
1.051886e+003,1.511432e+001
1.052850e+003,1.459021e+001
1.053814e+003,1.200565e+001
1.054779e+003,9.885590e+000
1.055743e+003,8.919342e+000
1.056707e+003,8.927979e+000
1.057671e+003,9.785278e+000
1.058636e+003,1.146039e+001
1.059600e+003,1.218573e+001
1.060564e+003,1.195792e+001
1.061528e+003,1.134912e+001
1.062493e+003,9.771423e+000
1.063457e+003,7.894623e+000
1.064421e+003,6.442139e+000
1.065385e+003,5.593109e+000
1.066349e+003,5.629211e+000
1.067314e+003,7.931824e+000
1.068278e+003,9.658203e+000
1.069242e+003,8.231049e+000
1.070206e+003,5.228485e+000
1.071171e+003,2.826324e+000
1.072135e+003,1.993988e+000
1.073099e+003,2.533569e+000
1.074063e+003,4.359955e+000
1.075028e+003,7.731049e+000
1.075992e+003,1.010571e+001
1.076956e+003,1.155615e+001
1.077920e+003,1.187958e+001
1.078885e+003,1.042740e+001
1.079849e+003,8.270203e+000
1.080813e+003,7.242767e+000
1.081777e+003,7.714966e+000
1.082741e+003,8.773041e+000
1.083706e+003,1.054797e+001
1.084670e+003,1.188568e+001
1.085634e+003,1.196109e+001
1.086598e+003,1.111346e+001
1.087563e+003,1.005563e+001
1.088527e+003,9.302338e+000
1.089491e+003,8.948029e+000
1.090455e+003,8.935638e+000
1.091420e+003,9.158539e+000
1.092384e+003,9.173706e+000
1.093348e+003,8.813904e+000
1.094312e+003,8.274200e+000
1.095276e+003,7.990997e+000
1.096241e+003,7.836975e+000
1.097205e+003,6.896637e+000
1.098169e+003,4.422241e+000
1.099133e+003,2.589905e+000
1.100098e+003,2.321533e+000
1.101062e+003,2.939972e+000
1.102026e+003,4.678589e+000
1.102990e+003,6.921417e+000
1.103955e+003,8.556152e+000
1.104919e+003,8.873108e+000
1.105883e+003,8.113892e+000
1.106847e+003,6.568420e+000
1.107812e+003,4.264465e+000
1.108776e+003,3.777100e+000
1.109740e+003,5.878571e+000
1.110704e+003,8.426636e+000
1.111668e+003,1.024847e+001
1.112633e+003,1.150751e+001
1.113597e+003,1.235300e+001
1.114561e+003,1.265988e+001
1.115525e+003,1.243622e+001
1.116490e+003,1.105478e+001
1.117454e+003,9.773468e+000
1.118418e+003,9.514618e+000
1.119382e+003,1.028085e+001
1.120347e+003,1.168286e+001
1.121311e+003,1.332666e+001
1.122275e+003,1.463708e+001
1.123239e+003,1.488882e+001
1.124203e+003,1.435828e+001
1.125168e+003,1.372168e+001
1.126132e+003,1.300214e+001
1.127096e+003,1.239310e+001
1.128060e+003,1.129498e+001
1.129025e+003,1.014197e+001
1.129989e+003,1.187823e+001
1.130953e+003,1.895065e+001
1.131917e+003,2.346649e+001
1.132882e+003,2.158130e+001
1.133846e+003,1.877316e+001
1.134810e+003,1.805331e+001
1.135774e+003,1.931912e+001
1.136739e+003,2.127734e+001
1.137703e+003,2.316165e+001
1.138667e+003,2.503030e+001
1.139631e+003,2.704340e+001
1.140595e+003,2.915396e+001
1.141560e+003,3.114499e+001
1.142524e+003,3.283444e+001
1.143488e+003,3.558109e+001
1.144452e+003,4.066821e+001
1.145417e+003,4.749036e+001
1.146381e+003,5.389362e+001
1.147345e+003,5.970911e+001
1.148309e+003,6.515277e+001
1.149274e+003,6.918213e+001
1.150238e+003,7.417844e+001
1.151202e+003,8.141641e+001
1.152166e+003,9.074252e+001
1.153130e+003,1.024309e+002
1.154095e+003,1.160841e+002
1.155059e+003,1.283767e+002
1.156023e+003,1.345823e+002
1.156987e+003,1.351733e+002
1.157952e+003,1.355638e+002
1.158916e+003,1.361962e+002
1.159880e+003,1.363239e+002
1.160844e+003,1.362744e+002
1.161809e+003,1.345733e+002
1.162773e+003,1.277503e+002
1.163737e+003,1.145442e+002
1.164701e+003,1.020464e+002
1.165666e+003,9.233774e+001
1.166630e+003,8.366003e+001
1.167594e+003,7.530405e+001
1.168558e+003,6.756937e+001
1.169522e+003,6.078360e+001
1.170487e+003,5.516653e+001
1.171451e+003,5.133487e+001
1.172415e+003,5.023904e+001
1.173379e+003,5.107642e+001
1.174344e+003,4.926874e+001
1.175308e+003,4.458896e+001
1.176272e+003,4.191342e+001
1.177236e+003,4.465598e+001
1.178201e+003,4.887778e+001
1.179165e+003,4.899527e+001
1.180129e+003,4.481918e+001
1.181093e+003,4.149872e+001
1.182057e+003,4.073801e+001
1.183022e+003,4.020142e+001
1.183986e+003,3.924158e+001
1.184950e+003,3.793222e+001
1.185914e+003,3.618073e+001
1.186879e+003,3.421249e+001
1.187843e+003,3.251801e+001
1.188807e+003,3.142807e+001
1.189771e+003,3.088907e+001
1.190736e+003,3.110748e+001
1.191700e+003,3.216638e+001
1.192664e+003,3.289413e+001
1.193628e+003,3.273865e+001
1.194593e+003,3.306024e+001
1.195557e+003,3.577362e+001
1.196521e+003,3.974152e+001
1.197485e+003,4.071466e+001
1.198449e+003,3.722446e+001
1.199414e+003,3.349026e+001
1.200378e+003,3.122275e+001
1.201342e+003,2.954926e+001
1.202306e+003,2.795822e+001
1.203271e+003,2.642859e+001
1.204235e+003,2.525674e+001
1.205199e+003,2.457129e+001
1.206163e+003,2.393448e+001
1.207128e+003,2.247595e+001
1.208092e+003,2.013388e+001
1.209056e+003,1.925049e+001
1.210020e+003,2.090677e+001
1.210984e+003,2.165616e+001
1.211949e+003,1.995822e+001
1.212913e+003,1.709695e+001
1.213877e+003,1.496402e+001
1.214841e+003,1.369162e+001
1.215806e+003,1.140079e+001
1.216770e+003,6.120850e+000
1.217734e+003,1.574646e+000
1.218698e+003,6.954651e-001
1.219663e+003,1.473633e+000
1.220627e+003,1.817352e+000
1.221591e+003,1.133484e+000
1.222555e+003,-4.573059e-001
1.223520e+003,-2.850159e+000
1.224484e+003,-5.766937e+000
1.225448e+003,-8.273010e+000
1.226412e+003,-1.099686e+001
1.227376e+003,-1.165048e+001
1.228341e+003,-8.159760e+000
1.229305e+003,-5.123566e+000
1.230269e+003,-5.809021e+000
1.231233e+003,-8.529114e+000
1.232198e+003,-9.278290e+000
1.233162e+003,-6.822235e+000
1.234126e+003,-4.848083e+000
1.235090e+003,-7.091370e+000
1.236055e+003,-1.030673e+001
1.237019e+003,-1.075949e+001
1.237983e+003,-9.276733e+000
1.238947e+003,-8.118073e+000
1.239911e+003,-8.147491e+000
1.240876e+003,-8.649750e+000
1.241840e+003,-8.663116e+000
1.242804e+003,-8.146606e+000
1.243768e+003,-7.721375e+000
1.244733e+003,-7.354584e+000
1.245697e+003,-7.130310e+000
1.246661e+003,-7.736633e+000
1.247625e+003,-8.202179e+000
1.248590e+003,-7.130981e+000
1.249554e+003,-5.066406e+000
1.250518e+003,-4.248199e+000
1.251482e+003,-5.893829e+000
1.252447e+003,-7.922668e+000
1.253411e+003,-7.494568e+000
1.254375e+003,-5.548889e+000
1.255339e+003,-4.255798e+000
1.256303e+003,-3.623718e+000
1.257268e+003,-2.966064e+000
1.258232e+003,-2.056244e+000
1.259196e+003,-1.086151e+000
1.260160e+003,8.184814e-002
1.261125e+003,1.848328e+000
1.262089e+003,2.219391e+000
1.263053e+003,-1.692474e+000
1.264017e+003,-3.953156e+000
1.264982e+003,-1.729523e+000
1.265946e+003,1.799225e+000
1.266910e+003,3.756500e+000
1.267874e+003,3.917114e+000
1.268839e+003,3.696777e+000
1.269803e+003,4.035339e+000
1.270767e+003,4.463409e+000
1.271731e+003,3.923553e+000
1.272695e+003,2.566223e+000
1.273660e+003,2.302399e+000
1.274624e+003,3.516449e+000
1.275588e+003,4.169403e+000
1.276552e+003,3.158813e+000
1.277517e+003,1.175507e+000
1.278481e+003,-1.052490e+000
1.279445e+003,-3.651855e+000
1.280409e+003,-4.911041e+000
1.281374e+003,-3.125732e+000
1.282338e+003,-1.334106e+000
1.283302e+003,-8.302917e-001
1.284266e+003,-1.381866e+000
1.285230e+003,-3.433624e+000
1.286195e+003,-6.403809e+000
1.287159e+003,-8.198822e+000
1.288123e+003,-7.011688e+000
1.289087e+003,-3.809082e+000
1.290052e+003,-1.850098e+000
1.291016e+003,-1.494171e+000
1.291980e+003,-1.773193e+000
1.292944e+003,-3.556396e+000
1.293909e+003,-5.097778e+000
1.294873e+003,-5.168762e+000
1.295837e+003,-4.657745e+000
1.296801e+003,-5.141357e+000
1.297766e+003,-6.699005e+000
1.298730e+003,-7.418701e+000
1.299694e+003,-5.811188e+000
1.300658e+003,-4.179749e+000
1.301622e+003,-5.844757e+000
1.302587e+003,-8.743866e+000
1.303551e+003,-9.200714e+000
1.304515e+003,-6.753204e+000
1.305479e+003,-4.566193e+000
1.306444e+003,-5.465698e+000
1.307408e+003,-8.376221e+000
1.308372e+003,-9.288391e+000
1.309336e+003,-7.394073e+000
1.310301e+003,-6.018890e+000
1.311265e+003,-5.461792e+000
1.312229e+003,-5.075134e+000
1.313193e+003,-4.861481e+000
1.314157e+003,-4.687836e+000
1.315122e+003,-3.954285e+000
1.316086e+003,-3.079559e+000
1.317050e+003,-4.004150e+000
1.318014e+003,-8.127014e+000
1.318979e+003,-1.285678e+001
1.319943e+003,-1.340274e+001
1.320907e+003,-1.011017e+001
1.321871e+003,-7.434418e+000
1.322836e+003,-5.757294e+000
1.323800e+003,-4.701080e+000
1.324764e+003,-4.253021e+000
1.325728e+003,-4.140015e+000
1.326693e+003,-3.758362e+000
1.327657e+003,-3.164398e+000
1.328621e+003,-3.857361e+000
1.329585e+003,-7.209137e+000
1.330549e+003,-9.272766e+000
1.331514e+003,-7.742950e+000
1.332478e+003,-5.122833e+000
1.333442e+003,-3.272827e+000
1.334406e+003,-2.458710e+000
1.335371e+003,-2.572205e+000
1.336335e+003,-3.493408e+000
1.337299e+003,-4.524597e+000
1.338263e+003,-4.323242e+000
1.339228e+003,-2.651428e+000
1.340192e+003,-1.931274e+000
1.341156e+003,-2.445984e+000
1.342120e+003,-3.425323e+000
1.343084e+003,-5.846436e+000
1.344049e+003,-8.025909e+000
1.345013e+003,-7.969727e+000
1.345977e+003,-6.250946e+000
1.346941e+003,-5.090149e+000
1.347906e+003,-5.305359e+000
1.348870e+003,-6.114960e+000
1.349834e+003,-7.505829e+000
1.350798e+003,-8.547791e+000
1.351763e+003,-6.945831e+000
1.352727e+003,-3.177948e+000
1.353691e+003,-2.781372e-001
1.354655e+003,7.097473e-001
1.355620e+003,4.166565e-001
1.356584e+003,-6.745300e-001
1.357548e+003,-2.415955e+000
1.358512e+003,-4.011963e+000
1.359476e+003,-5.745087e+000
1.360441e+003,-7.104340e+000
1.361405e+003,-8.345764e+000
1.362369e+003,-8.614960e+000
1.363333e+003,-6.254272e+000
1.364298e+003,-3.218567e+000
1.365262e+003,-2.597137e+000
1.366226e+003,-4.737518e+000
1.367190e+003,-6.996399e+000
1.368155e+003,-7.013885e+000
1.369119e+003,-5.434326e+000
1.370083e+003,-4.159698e+000
1.371047e+003,-2.942322e+000
1.372011e+003,-3.000732e+000
1.372976e+003,-6.336609e+000
1.373940e+003,-8.621552e+000
1.374904e+003,-7.095001e+000
1.375868e+003,-4.267395e+000
1.376833e+003,-3.453827e+000
1.377797e+003,-4.790558e+000
1.378761e+003,-6.340912e+000
1.379725e+003,-7.444153e+000
1.380690e+003,-7.885315e+000
1.381654e+003,-6.920837e+000
1.382618e+003,-5.323090e+000
1.383582e+003,-4.122620e+000
1.384547e+003,-3.372070e+000
1.385511e+003,-2.835754e+000
1.386475e+003,-2.526550e+000
1.387439e+003,-2.222687e+000
1.388403e+003,-1.282227e+000
1.389368e+003,2.711487e-001
1.390332e+003,5.702209e-001
1.391296e+003,-1.150269e+000
1.392260e+003,-2.456085e+000
1.393225e+003,-2.989685e+000
1.394189e+003,-2.910889e+000
1.395153e+003,-1.382202e+000
1.396117e+003,3.146667e-001
1.397082e+003,4.351807e-002
1.398046e+003,-2.438843e+000
1.399010e+003,-5.327484e+000
1.399974e+003,-7.096191e+000
1.400938e+003,-7.930939e+000
1.401903e+003,-7.796021e+000
1.402867e+003,-5.964691e+000
1.403831e+003,-4.230896e+000
1.404795e+003,-3.314697e+000
1.405760e+003,-1.943085e+000
1.406724e+003,7.408752e-001
1.407688e+003,3.254883e+000
1.408652e+003,4.118378e+000
1.409617e+003,3.565399e+000
1.410581e+003,2.705200e+000
1.411545e+003,1.945129e+000
1.412509e+003,1.049255e+000
1.413474e+003,-8.535767e-001
1.414438e+003,-2.864960e+000
1.415402e+003,-2.764099e+000
1.416366e+003,-7.723389e-001
1.417330e+003,7.156372e-001
1.418295e+003,7.336731e-001
1.419259e+003,1.118774e-001
1.420223e+003,-3.843689e-001
1.421187e+003,-8.740845e-001
1.422152e+003,-1.544922e+000
1.423116e+003,-2.480896e+000
1.424080e+003,-2.691254e+000
1.425044e+003,-1.280396e+000
1.426009e+003,-9.497070e-002
1.426973e+003,-4.272461e-003
1.427937e+003,-5.173035e-001
1.428901e+003,-1.119659e+000
1.429865e+003,-1.546478e+000
1.430830e+003,-1.553497e+000
1.431794e+003,-1.076355e+000
1.432758e+003,-6.522827e-001
1.433722e+003,-1.223297e+000
1.434687e+003,-2.730621e+000
1.435651e+003,-2.742859e+000
1.436615e+003,-6.494141e-001
1.437579e+003,8.796692e-001
1.438544e+003,8.890686e-001
1.439508e+003,1.156403e+000
1.440472e+003,3.921600e+000
1.441436e+003,7.665161e+000
1.442401e+003,8.883148e+000
1.443365e+003,6.926239e+000
1.444329e+003,5.021881e+000
1.445293e+003,5.749023e+000
1.446257e+003,7.533051e+000
1.447222e+003,6.996033e+000
1.448186e+003,4.647400e+000
1.449150e+003,3.424377e+000
1.450114e+003,3.632721e+000
1.451079e+003,4.462921e+000
1.452043e+003,6.369232e+000
1.453007e+003,8.300049e+000
1.453971e+003,8.549591e+000
1.454936e+003,7.199280e+000
1.455900e+003,5.338898e+000
1.456864e+003,2.860962e+000
1.457828e+003,1.406891e+000
1.458792e+003,3.166199e+000
1.459757e+003,4.998779e+000
1.460721e+003,3.801208e+000
1.461685e+003,8.529968e-001
1.462649e+003,-1.273163e+000
1.463614e+003,-1.739288e+000
1.464578e+003,-6.329651e-001
1.465542e+003,2.290222e+000
1.466506e+003,5.870087e+000
1.467471e+003,6.584198e+000
1.468435e+003,3.875793e+000
1.469399e+003,2.127258e+000
1.470363e+003,1.568329e+000
1.471328e+003,1.618103e+000
1.472292e+003,2.559448e+000
1.473256e+003,3.323486e+000
1.474220e+003,3.207794e+000
1.475184e+003,2.688019e+000
1.476149e+003,2.683167e+000
1.477113e+003,3.291901e+000
1.478077e+003,3.420898e+000
1.479041e+003,2.061859e+000
1.480006e+003,4.224854e-001
1.480970e+003,2.459442e+000
1.481934e+003,9.894043e+000
1.482898e+003,1.266870e+001
1.483863e+003,6.160370e+000
1.484827e+003,1.940643e+000
1.485791e+003,5.215271e+000
1.486755e+003,1.043335e+001
1.487719e+003,1.261929e+001
1.488684e+003,1.210672e+001
1.489648e+003,1.110193e+001
1.490612e+003,1.046429e+001
1.491576e+003,1.075540e+001
1.492541e+003,1.256436e+001
1.493505e+003,1.513449e+001
1.494469e+003,1.694101e+001
1.495433e+003,1.790039e+001
1.496398e+003,1.848373e+001
1.497362e+003,1.895224e+001
1.498326e+003,1.932248e+001
1.499290e+003,1.851062e+001
1.500255e+003,1.831558e+001
1.501219e+003,2.197919e+001
1.502183e+003,2.868878e+001
1.503147e+003,3.359222e+001
1.504111e+003,3.529068e+001
1.505076e+003,3.686917e+001
1.506040e+003,3.970764e+001
1.507004e+003,4.378323e+001
1.507968e+003,4.908572e+001
1.508933e+003,5.542041e+001
1.509897e+003,6.259674e+001
1.510861e+003,7.076312e+001
1.511825e+003,7.945959e+001
1.512790e+003,8.809018e+001
1.513754e+003,9.696619e+001
1.514718e+003,1.071160e+002
1.515682e+003,1.183748e+002
1.516646e+003,1.291773e+002
1.517611e+003,1.389844e+002
1.518575e+003,1.498553e+002
1.519539e+003,1.646885e+002
1.520503e+003,1.787334e+002
1.521468e+003,1.903751e+002
1.522432e+003,1.990797e+002
1.523396e+003,2.039308e+002
1.524360e+003,2.052547e+002
1.525325e+003,2.051046e+002
1.526289e+003,2.048803e+002
1.527253e+003,2.031732e+002
1.528217e+003,1.969673e+002
1.529182e+003,1.863242e+002
1.530146e+003,1.782241e+002
1.531110e+003,1.762156e+002
1.532074e+003,1.696818e+002
1.533039e+003,1.553834e+002
1.534003e+003,1.390204e+002
1.534967e+003,1.224549e+002
1.535931e+003,1.063588e+002
1.536896e+003,9.065204e+001
1.537860e+003,7.582370e+001
1.538824e+003,6.290445e+001
1.539788e+003,5.229691e+001
1.540752e+003,4.318353e+001
1.541717e+003,3.445929e+001
1.542681e+003,2.663776e+001
1.543645e+003,2.223309e+001
1.544609e+003,2.334409e+001
1.545573e+003,2.311292e+001
1.546538e+003,1.974908e+001
1.547502e+003,1.692850e+001
1.548466e+003,1.648965e+001
1.549430e+003,1.725259e+001
1.550395e+003,1.837769e+001
1.551359e+003,1.928268e+001
1.552323e+003,1.887781e+001
1.553287e+003,1.691763e+001
1.554252e+003,1.507562e+001
1.555216e+003,1.491101e+001
1.556180e+003,1.549918e+001
1.557144e+003,1.446567e+001
1.558109e+003,1.181995e+001
1.559073e+003,1.079044e+001
1.560037e+003,1.220697e+001
1.561001e+003,1.303571e+001
1.561966e+003,1.234726e+001
1.562930e+003,1.108716e+001
1.563894e+003,9.542236e+000
1.564858e+003,8.036194e+000
1.565823e+003,7.368042e+000
1.566787e+003,7.653900e+000
1.567751e+003,8.513000e+000
1.568715e+003,1.002612e+001
1.569679e+003,1.135541e+001
1.570644e+003,1.083408e+001
1.571608e+003,9.277191e+000
1.572572e+003,9.640961e+000
1.573536e+003,1.216840e+001
1.574500e+003,1.425555e+001
1.575465e+003,1.506818e+001
1.576429e+003,1.503265e+001
1.577393e+003,1.393979e+001
1.578357e+003,1.234360e+001
1.579322e+003,1.141101e+001
1.580286e+003,1.127057e+001
1.581250e+003,1.170889e+001
1.582214e+003,1.287448e+001
1.583179e+003,1.372934e+001
1.584143e+003,1.277652e+001
1.585107e+003,1.159564e+001
1.586071e+003,1.321826e+001
1.587036e+003,1.668454e+001
1.588000e+003,1.820486e+001
1.588964e+003,1.676050e+001
1.589928e+003,1.470551e+001
1.590893e+003,1.306216e+001
1.591857e+003,1.225571e+001
1.592821e+003,1.350305e+001
1.593785e+003,1.636823e+001
1.594750e+003,1.794675e+001
1.595714e+003,1.757608e+001
1.596678e+003,1.747766e+001
1.597642e+003,1.905771e+001
1.598606e+003,2.043918e+001
1.599571e+003,1.988016e+001
1.600535e+003,1.851224e+001
1.601499e+003,1.757990e+001
1.602463e+003,1.715369e+001
1.603427e+003,1.701794e+001
1.604392e+003,1.708871e+001
1.605356e+003,1.748859e+001
1.606320e+003,1.878397e+001
1.607284e+003,2.038098e+001
1.608249e+003,1.999579e+001
1.609213e+003,1.750488e+001
1.610177e+003,1.746005e+001
1.611141e+003,2.212906e+001
1.612106e+003,2.549451e+001
1.613070e+003,2.337329e+001
1.614034e+003,1.996515e+001
1.614998e+003,1.776462e+001
1.615963e+003,1.660150e+001
1.616927e+003,1.587045e+001
1.617891e+003,1.547754e+001
1.618855e+003,1.600159e+001
1.619820e+003,1.789453e+001
1.620784e+003,1.976215e+001
1.621748e+003,1.979724e+001
1.622712e+003,1.849161e+001
1.623677e+003,1.731320e+001
1.624641e+003,1.625034e+001
1.625605e+003,1.554770e+001
1.626569e+003,1.465894e+001
1.627533e+003,1.430026e+001
1.628498e+003,1.544406e+001
1.629462e+003,1.706409e+001
1.630426e+003,1.841949e+001
1.631390e+003,1.943396e+001
1.632354e+003,2.033527e+001
1.633319e+003,2.107809e+001
1.634283e+003,2.078787e+001
1.635247e+003,1.852054e+001
1.636211e+003,1.566873e+001
1.637176e+003,1.512537e+001
1.638140e+003,1.676416e+001
1.639104e+003,1.721143e+001
1.640068e+003,1.574213e+001
1.641033e+003,1.525729e+001
1.641997e+003,1.749899e+001
1.642961e+003,1.957092e+001
1.643925e+003,1.972049e+001
1.644890e+003,1.925626e+001
1.645854e+003,1.964664e+001
1.646818e+003,2.047165e+001
1.647782e+003,2.016205e+001
1.648747e+003,1.832593e+001
1.649711e+003,1.670874e+001
1.650675e+003,1.689005e+001
1.651639e+003,1.822592e+001
1.652604e+003,1.936884e+001
1.653568e+003,2.021680e+001
1.654532e+003,2.032050e+001
1.655496e+003,1.945459e+001
1.656460e+003,1.858243e+001
1.657425e+003,1.816510e+001
1.658389e+003,1.767905e+001
1.659353e+003,1.623080e+001
1.660317e+003,1.498825e+001
1.661281e+003,1.566614e+001
1.662246e+003,1.758057e+001
1.663210e+003,1.872351e+001
1.664174e+003,1.847226e+001
1.665138e+003,1.715485e+001
1.666103e+003,1.452390e+001
1.667067e+003,1.163190e+001
1.668031e+003,1.102054e+001
1.668995e+003,1.254294e+001
1.669960e+003,1.333136e+001
1.670924e+003,1.302725e+001
1.671888e+003,1.287253e+001
1.672852e+003,1.324222e+001
1.673817e+003,1.367346e+001
1.674781e+003,1.424884e+001
1.675745e+003,1.443661e+001
1.676709e+003,1.310791e+001
1.677674e+003,1.087195e+001
1.678638e+003,9.791626e+000
1.679602e+003,1.050632e+001
1.680566e+003,1.143460e+001
1.681531e+003,1.135587e+001
1.682495e+003,1.099121e+001
1.683459e+003,1.155298e+001
1.684423e+003,1.275403e+001
1.685387e+003,1.341287e+001
1.686352e+003,1.348874e+001
1.687316e+003,1.290588e+001
1.688280e+003,1.123987e+001
1.689244e+003,9.647125e+000
1.690208e+003,9.478424e+000
1.691173e+003,9.403961e+000
1.692137e+003,7.503418e+000
1.693101e+003,4.607147e+000
1.694065e+003,3.234650e+000
1.695030e+003,3.894104e+000
1.695994e+003,4.955292e+000
1.696958e+003,5.943542e+000
1.697922e+003,6.351105e+000
1.698887e+003,5.028229e+000
1.699851e+003,2.729156e+000
1.700815e+003,1.647827e+000
1.701779e+003,1.889587e+000
1.702744e+003,2.455109e+000
1.703708e+003,3.213287e+000
1.704672e+003,4.269714e+000
1.705636e+003,5.633972e+000
1.706601e+003,6.934784e+000
1.707565e+003,8.547485e+000
1.708529e+003,9.987915e+000
1.709493e+003,8.543274e+000
1.710458e+003,3.399933e+000
1.711422e+003,-4.421997e-002
1.712386e+003,2.417145e+000
1.713350e+003,5.201996e+000
1.714314e+003,2.443542e+000
1.715279e+003,-2.408081e+000
1.716243e+003,-2.982086e+000
1.717207e+003,2.847290e-001
1.718171e+003,2.841248e+000
1.719135e+003,3.460907e+000
1.720100e+003,3.022400e+000
1.721064e+003,1.772888e+000
1.722028e+003,4.200134e-001
1.722992e+003,2.038574e-001
1.723957e+003,1.067902e+000
1.724921e+003,1.750244e+000
1.725885e+003,2.020416e+000
1.726849e+003,1.875793e+000
1.727814e+003,1.517212e+000
1.728778e+003,1.067688e+000
1.729742e+003,3.171997e-001
1.730706e+003,-3.831482e-001
1.731671e+003,-1.041504e+000
1.732635e+003,-1.554565e+000
1.733599e+003,-1.093842e+000
1.734563e+003,3.361816e-001
1.735528e+003,1.204773e+000
1.736492e+003,6.366577e-001
1.737456e+003,-5.295715e-001
1.738420e+003,-1.319611e+000
1.739385e+003,-1.995667e+000
1.740349e+003,-3.150146e+000
1.741313e+003,-5.075195e+000
1.742277e+003,-5.354065e+000
1.743241e+003,-2.136719e+000
1.744206e+003,-2.066040e-002
1.745170e+003,-7.359314e-001
1.746134e+003,-1.514801e+000
1.747098e+003,-2.887573e-001
1.748063e+003,1.273010e+000
1.749027e+003,1.014801e+000
1.749991e+003,-7.026978e-001
1.750955e+003,-2.518707e+000
1.751919e+003,-3.797150e+000
1.752884e+003,-4.109253e+000
1.753848e+003,-3.075562e+000
1.754812e+003,-1.459045e+000
1.755776e+003,-6.301270e-001
1.756741e+003,-4.473267e-001
1.757705e+003,-1.050598e+000
1.758669e+003,-3.275208e+000
1.759633e+003,-4.209259e+000
1.760598e+003,-3.233459e+000
1.761562e+003,-1.605591e+000
1.762526e+003,1.956665e+000
1.763490e+003,4.637970e+000
1.764455e+003,3.573517e+000
1.765419e+003,8.143921e-001
1.766383e+003,-3.616943e-001
1.767347e+003,1.932983e-001
1.768312e+003,3.941650e-001
1.769276e+003,-8.016968e-001
1.770240e+003,-1.937592e+000
1.771204e+003,-1.133362e+000
1.772168e+003,9.129028e-001
1.773133e+003,2.788025e+000
1.774097e+003,4.304840e+000
1.775061e+003,2.893005e+000
1.776025e+003,-2.524536e+000
1.776990e+003,-5.797089e+000
1.777954e+003,-4.097473e+000
1.778918e+003,-1.015106e+000
1.779882e+003,1.506226e+000
1.780846e+003,3.159760e+000
1.781811e+003,3.558594e+000
1.782775e+003,3.006958e+000
1.783739e+003,2.260193e+000
1.784703e+003,1.434143e+000
1.785668e+003,9.244080e-001
1.786632e+003,1.066071e+000
1.787596e+003,9.503479e-001
1.788560e+003,-3.745117e-001
1.789525e+003,-1.735321e+000
1.790489e+003,-1.323395e+000
1.791453e+003,2.039490e-001
1.792417e+003,6.610413e-001
1.793382e+003,-3.067017e-001
1.794346e+003,-1.214783e+000
1.795310e+003,-1.304108e+000
1.796274e+003,-9.665527e-001
1.797239e+003,-3.908081e-001
1.798203e+003,2.176819e-001
1.799167e+003,-5.421753e-001
1.800131e+003,-3.348297e+000
1.801095e+003,-5.231659e+000
1.802060e+003,-5.649078e+000
1.803024e+003,-5.491333e+000
1.803988e+003,-4.490845e+000
1.804952e+003,-3.587982e+000
1.805917e+003,-3.118195e+000
1.806881e+003,-3.060120e+000
1.807845e+003,-3.874207e+000
1.808809e+003,-4.757629e+000
1.809773e+003,-3.689819e+000
1.810738e+003,-8.280029e-001
1.811702e+003,5.552673e-001
1.812666e+003,-1.533997e+000
1.813630e+003,-4.186096e+000
1.814595e+003,-3.268646e+000
1.815559e+003,3.445435e-002
1.816523e+003,7.647705e-001
1.817487e+003,-1.383484e+000
1.818452e+003,-2.089050e+000
1.819416e+003,-2.695313e-001
1.820380e+003,8.381042e-001
1.821344e+003,-4.736633e-001
1.822309e+003,-1.829834e+000
1.823273e+003,-1.454987e+000
1.824237e+003,-5.181274e-001
1.825201e+003,-8.358765e-002
1.826166e+003,-2.530212e-001
1.827130e+003,-1.349060e+000
1.828094e+003,-3.410034e+000
1.829058e+003,-4.491791e+000
1.830022e+003,-3.271942e+000
1.830987e+003,-1.401825e+000
1.831951e+003,3.800964e-001
1.832915e+003,1.534180e+000
1.833879e+003,6.350403e-001
1.834844e+003,-1.501526e+000
1.835808e+003,-2.196533e+000
1.836772e+003,-1.151703e+000
1.837736e+003,-3.522949e-001
1.838700e+003,-7.563477e-001
1.839665e+003,-9.752502e-001
1.840629e+003,5.266418e-001
1.841593e+003,2.568695e+000
1.842557e+003,2.423615e+000
1.843522e+003,1.195679e-001
1.844486e+003,-1.636078e+000
1.845450e+003,-2.752533e+000
1.846414e+003,-3.043823e+000
1.847379e+003,-2.476501e+000
1.848343e+003,-1.650177e+000
1.849307e+003,-3.054810e-002
1.850271e+003,1.233521e+000
1.851236e+003,1.008636e+000
1.852200e+003,2.798157e-001
1.853164e+003,5.581055e-001
1.854128e+003,1.429962e+000
1.855093e+003,1.005829e+000
1.856057e+003,-1.076141e+000
1.857021e+003,-2.416687e+000
1.857985e+003,-9.415588e-001
1.858949e+003,1.512512e+000
1.859914e+003,1.516846e+000
1.860878e+003,-2.954102e-001
1.861842e+003,-3.087769e-001
1.862806e+003,1.498169e+000
1.863771e+003,2.300415e+000
1.864735e+003,1.268158e+000
1.865699e+003,6.724548e-001
1.866663e+003,2.005707e+000
1.867627e+003,3.351746e+000
1.868592e+003,2.192596e+000
1.869556e+003,1.663818e-001
1.870520e+003,1.438385e+000
1.871484e+003,5.221497e+000
1.872449e+003,5.977081e+000
1.873413e+003,2.563751e+000
1.874377e+003,3.114929e-001
1.875341e+003,1.129028e+000
1.876306e+003,2.161072e+000
1.877270e+003,2.126312e+000
1.878234e+003,1.275024e+000
1.879198e+003,-1.076233e+000
1.880163e+003,-3.437408e+000
1.881127e+003,-2.711487e+000
1.882091e+003,7.390137e-001
1.883055e+003,3.821472e+000
1.884020e+003,5.116791e+000
1.884984e+003,4.988251e+000
1.885948e+003,3.741272e+000
1.886912e+003,1.830353e+000
1.887876e+003,-2.493286e-002
1.888841e+003,-1.682007e+000
1.889805e+003,-1.219513e+000
1.890769e+003,1.919525e+000
1.891733e+003,4.290863e+000
1.892698e+003,5.867065e+000
1.893662e+003,5.537109e+000
1.894626e+003,1.115875e+000
1.895590e+003,-2.837097e+000
1.896554e+003,-2.796722e+000
1.897519e+003,-7.106323e-001
1.898483e+003,1.789764e+000
1.899447e+003,4.054718e+000
1.900411e+003,4.647278e+000
1.901376e+003,3.310364e+000
1.902340e+003,1.707184e+000
1.903304e+003,1.501770e-001
1.904268e+003,-1.100861e+000
1.905233e+003,-1.914917e+000
1.906197e+003,-2.208405e+000
1.907161e+003,-1.876526e+000
1.908125e+003,-9.083252e-001
1.909090e+003,1.205139e+000
1.910054e+003,3.759003e+000
1.911018e+003,4.369934e+000
1.911982e+003,2.569397e+000
1.912947e+003,7.861023e-001
1.913911e+003,7.543030e-001
1.914875e+003,1.812592e+000
1.915839e+003,2.976440e+000
1.916803e+003,4.022003e+000
1.917768e+003,4.348511e+000
1.918732e+003,3.930328e+000
1.919696e+003,3.723022e+000
1.920660e+003,4.018158e+000
1.921625e+003,3.958710e+000
1.922589e+003,2.754761e+000
1.923553e+003,1.929596e+000
1.924517e+003,2.674072e+000
1.925481e+003,3.848846e+000
1.926446e+003,4.612152e+000
1.927410e+003,5.037415e+000
1.928374e+003,5.333832e+000
1.929338e+003,5.394409e+000
1.930303e+003,4.739563e+000
1.931267e+003,3.045288e+000
1.932231e+003,2.060699e+000
1.933195e+003,2.657104e+000
1.934160e+003,3.780029e+000
1.935124e+003,5.226410e+000
1.936088e+003,6.223450e+000
1.937052e+003,5.485626e+000
1.938017e+003,3.961304e+000
1.938981e+003,3.756287e+000
1.939945e+003,4.956512e+000
1.940909e+003,6.109222e+000
1.941874e+003,6.457764e+000
1.942838e+003,5.958099e+000
1.943802e+003,4.605103e+000
1.944766e+003,3.514832e+000
1.945730e+003,5.046387e+000
1.946695e+003,8.541840e+000
1.947659e+003,9.082642e+000
1.948623e+003,6.291290e+000
1.949587e+003,4.443970e+000
1.950552e+003,4.247101e+000
1.951516e+003,4.242462e+000
1.952480e+003,3.809326e+000
1.953444e+003,3.781525e+000
1.954408e+003,5.230560e+000
1.955373e+003,6.725861e+000
1.956337e+003,5.942261e+000
1.957301e+003,3.842865e+000
1.958265e+003,3.373566e+000
1.959230e+003,4.812103e+000
1.960194e+003,6.240753e+000
1.961158e+003,7.312195e+000
1.962122e+003,7.962311e+000
1.963087e+003,8.084045e+000
1.964051e+003,7.965759e+000
1.965015e+003,7.720459e+000
1.965979e+003,7.651825e+000
1.966944e+003,8.184662e+000
1.967908e+003,8.753143e+000
1.968872e+003,8.253998e+000
1.969836e+003,6.866669e+000
1.970801e+003,5.942902e+000
1.971765e+003,6.051392e+000
1.972729e+003,6.454651e+000
1.973693e+003,6.558472e+000
1.974657e+003,6.471283e+000
1.975622e+003,6.100800e+000
1.976586e+003,5.650452e+000
1.977550e+003,5.867889e+000
1.978514e+003,6.754181e+000
1.979479e+003,8.230255e+000
1.980443e+003,1.013681e+001
1.981407e+003,1.070313e+001
1.982371e+003,9.265869e+000
1.983335e+003,7.684174e+000
1.984300e+003,7.247314e+000
1.985264e+003,7.375061e+000
1.986228e+003,7.294678e+000
1.987192e+003,7.100647e+000
1.988157e+003,7.375092e+000
1.989121e+003,8.468323e+000
1.990085e+003,8.459595e+000
1.991049e+003,6.352722e+000
1.992014e+003,5.347961e+000
1.992978e+003,6.606964e+000
1.993942e+003,7.775330e+000
1.994906e+003,8.031738e+000
1.995871e+003,7.951935e+000
1.996835e+003,7.833008e+000
1.997799e+003,7.819519e+000
1.998763e+003,8.012268e+000
1.999728e+003,8.323639e+000
