5.003444e+002,3.957980e+001
5.013087e+002,4.037999e+001
5.022729e+002,4.017657e+001
5.032371e+002,3.915788e+001
5.042014e+002,3.756393e+001
5.051656e+002,3.554950e+001
5.061298e+002,3.380457e+001
5.070941e+002,3.294870e+001
5.080583e+002,3.309869e+001
5.090225e+002,3.314671e+001
5.099868e+002,3.320131e+001
5.109510e+002,3.308224e+001
5.119152e+002,3.248564e+001
5.128795e+002,3.135484e+001
5.138437e+002,3.084686e+001
5.148079e+002,3.256981e+001
5.157722e+002,3.395917e+001
5.167364e+002,3.344838e+001
5.177006e+002,3.112500e+001
5.186649e+002,2.870518e+001
5.196291e+002,2.878757e+001
5.205933e+002,2.988152e+001
5.215576e+002,3.008977e+001
5.225218e+002,2.914084e+001
5.234860e+002,2.756999e+001
5.244503e+002,2.645502e+001
5.254145e+002,2.612199e+001
5.263787e+002,2.595154e+001
5.273430e+002,2.593062e+001
5.283072e+002,2.607768e+001
5.292714e+002,2.650316e+001
5.302357e+002,2.755887e+001
5.311999e+002,2.757439e+001
5.321641e+002,2.591505e+001
5.331284e+002,2.398273e+001
5.340926e+002,2.290755e+001
5.350568e+002,2.309422e+001
5.360211e+002,2.319659e+001
5.369853e+002,2.178709e+001
5.379495e+002,2.007059e+001
5.389138e+002,1.888083e+001
5.398780e+002,1.856827e+001
5.408422e+002,1.899658e+001
5.418065e+002,2.029182e+001
5.427707e+002,2.224092e+001
5.437349e+002,2.305418e+001
5.446992e+002,2.198695e+001
5.456634e+002,1.958803e+001
5.466276e+002,1.783424e+001
5.475919e+002,1.740466e+001
5.485561e+002,1.698569e+001
5.495203e+002,1.615544e+001
5.504846e+002,1.532591e+001
5.514488e+002,1.526230e+001
5.524130e+002,1.672275e+001
5.533773e+002,1.806450e+001
5.543415e+002,1.863315e+001
5.553057e+002,1.860252e+001
5.562700e+002,1.787520e+001
5.572342e+002,1.639246e+001
5.581984e+002,1.478075e+001
5.591627e+002,1.512677e+001
5.601269e+002,1.665807e+001
5.610911e+002,1.747011e+001
5.620554e+002,1.647774e+001
5.630196e+002,1.393964e+001
5.639838e+002,1.264934e+001
5.649481e+002,1.403880e+001
5.659123e+002,1.460844e+001
5.668765e+002,1.337109e+001
5.678408e+002,1.104498e+001
5.688050e+002,9.525925e+000
5.697692e+002,9.823349e+000
5.707335e+002,9.836990e+000
5.716977e+002,8.373627e+000
5.726619e+002,6.527649e+000
5.736262e+002,5.959473e+000
5.745904e+002,8.015823e+000
5.755546e+002,1.093694e+001
5.765189e+002,1.176089e+001
5.774831e+002,1.117545e+001
5.784473e+002,1.053839e+001
5.794116e+002,1.081660e+001
5.803758e+002,1.191737e+001
5.813400e+002,1.144708e+001
5.823043e+002,8.395432e+000
5.832685e+002,6.340729e+000
5.842327e+002,7.248688e+000
5.851970e+002,1.066704e+001
5.861612e+002,1.313342e+001
5.871254e+002,1.358769e+001
5.880897e+002,1.342752e+001
5.890539e+002,1.261780e+001
5.900181e+002,1.135294e+001
5.909824e+002,9.871414e+000
5.919466e+002,8.294144e+000
5.929108e+002,6.717377e+000
5.938751e+002,4.721619e+000
5.948393e+002,2.854584e+000
5.958035e+002,2.128510e+000
5.967678e+002,3.274734e+000
5.977320e+002,6.013031e+000
5.986962e+002,8.087387e+000
5.996605e+002,9.554321e+000
6.006247e+002,1.009233e+001
6.015889e+002,9.097687e+000
6.025532e+002,6.732437e+000
6.035174e+002,5.190735e+000
6.044816e+002,5.137589e+000
6.054459e+002,5.349945e+000
6.064101e+002,6.249069e+000
6.073743e+002,7.197037e+000
6.083386e+002,6.924728e+000
6.093028e+002,4.014282e+000
6.102670e+002,1.415466e+000
6.112313e+002,1.676193e+000
6.121955e+002,3.423752e+000
6.131597e+002,4.756058e+000
6.141240e+002,4.389908e+000
6.150882e+002,2.980225e+000
6.160524e+002,3.855499e+000
6.170167e+002,6.644989e+000
6.179809e+002,8.926331e+000
6.189451e+002,9.369522e+000
6.199094e+002,8.207077e+000
6.208736e+002,7.675659e+000
6.218378e+002,9.524017e+000
6.228021e+002,1.017172e+001
6.237663e+002,8.288544e+000
6.247305e+002,5.310181e+000
6.256948e+002,3.563675e+000
6.266590e+002,4.194809e+000
6.276232e+002,5.361206e+000
6.285875e+002,6.599167e+000
6.295517e+002,7.442749e+000
6.305159e+002,7.071945e+000
6.314802e+002,5.096146e+000
6.324444e+002,2.334946e+000
6.334086e+002,1.383072e+000
6.343729e+002,1.753799e+000
6.353371e+002,2.000595e+000
6.363013e+002,1.496124e+000
6.372656e+002,5.890350e-001
6.382298e+002,6.555939e-001
6.391940e+002,3.160416e+000
6.401583e+002,4.633942e+000
6.411225e+002,4.852982e+000
6.420867e+002,4.374054e+000
6.430510e+002,3.733170e+000
6.440152e+002,2.963287e+000
6.449794e+002,1.894379e+000
6.459437e+002,-1.984863e-001
6.469079e+002,-2.135513e+000
6.478721e+002,-2.776367e+000
6.488364e+002,-1.805710e+000
6.498006e+002,-1.126862e-001
6.507648e+002,5.161743e-001
6.517291e+002,6.247711e-001
6.526933e+002,2.136215e+000
6.536575e+002,5.546249e+000
6.546218e+002,9.038864e+000
6.555860e+002,8.967987e+000
6.565502e+002,2.452911e+000
6.575145e+002,-1.581116e+000
6.584787e+002,-2.107376e+000
6.594429e+002,-1.340515e+000
6.604072e+002,-8.583374e-001
6.613714e+002,-8.872833e-001
6.623356e+002,-8.951721e-001
6.632999e+002,-8.902588e-001
6.642641e+002,-7.251892e-001
6.652283e+002,9.350586e-002
6.661926e+002,1.388245e+000
6.671568e+002,2.336227e+000
6.681210e+002,1.605896e+000
6.690853e+002,-2.400208e-002
6.700495e+002,-2.782440e-001
6.710137e+002,8.324890e-001
6.719780e+002,2.409683e+000
6.729422e+002,3.570358e+000
6.739064e+002,4.342163e+000
6.748707e+002,4.046509e+000
6.758349e+002,2.082703e+000
6.767991e+002,4.818726e-002
6.777634e+002,-1.316360e+000
6.787276e+002,-1.996399e+000
6.796918e+002,-2.612076e+000
6.806561e+002,-4.258926e+000
6.816203e+002,-4.989914e+000
6.825845e+002,-3.218597e+000
6.835488e+002,-1.851959e-001
6.845130e+002,2.135498e+000
6.854772e+002,2.282776e+000
6.864415e+002,1.077927e+000
6.874057e+002,-1.185913e-001
6.883699e+002,-1.263367e+000
6.893342e+002,-1.748856e+000
6.902984e+002,-1.144135e+000
6.912626e+002,3.818817e-001
6.922269e+002,1.428360e+000
6.931911e+002,2.137619e+000
6.941553e+002,2.449615e+000
6.951196e+002,1.855728e+000
6.960838e+002,8.276062e-001
6.970480e+002,1.565704e-001
6.980123e+002,3.266907e-002
6.989765e+002,4.245605e-001
6.999407e+002,1.757477e+000
7.009050e+002,3.113586e+000
7.018692e+002,3.504196e+000
7.028334e+002,2.722519e+000
7.037977e+002,1.791382e+000
7.047619e+002,2.865646e+000
7.057261e+002,4.933777e+000
7.066904e+002,5.589966e+000
7.076546e+002,4.441422e+000
7.086188e+002,2.481277e+000
7.095831e+002,1.254135e+000
7.105473e+002,9.215851e-001
7.115115e+002,7.543335e-001
7.124758e+002,7.801514e-001
7.134400e+002,8.336487e-001
7.144042e+002,9.364166e-001
7.153685e+002,1.113281e+000
7.163327e+002,1.125137e+000
7.172969e+002,5.450897e-001
7.182612e+002,9.567261e-002
7.192254e+002,-4.379272e-002
7.201896e+002,1.413116e-001
7.211539e+002,8.169098e-001
7.221181e+002,2.281525e+000
7.230823e+002,3.761047e+000
7.240466e+002,2.861298e+000
7.250108e+002,2.555389e-001
7.259750e+002,-1.786331e+000
7.269393e+002,-1.996002e+000
7.279035e+002,-7.044067e-001
7.288677e+002,2.220612e-001
7.298320e+002,8.498535e-001
7.307962e+002,1.448975e+000
7.317604e+002,2.133041e+000
7.327247e+002,2.788071e+000
7.336889e+002,3.190613e+000
7.346531e+002,3.141556e+000
7.356174e+002,2.574326e+000
7.365816e+002,8.910370e-001
7.375458e+002,-4.653168e-001
7.385101e+002,1.283264e-002
7.394743e+002,2.426071e+000
7.404385e+002,5.293762e+000
7.414028e+002,6.347244e+000
7.423670e+002,5.585297e+000
7.433312e+002,4.579987e+000
7.442955e+002,3.576050e+000
7.452597e+002,2.577454e+000
7.462239e+002,1.362808e+000
7.471882e+002,-3.713074e-001
7.481524e+002,-1.117188e+000
7.491166e+002,-3.371582e-001
7.500809e+002,3.162689e-001
7.510451e+002,4.864502e-002
7.520093e+002,-8.877869e-001
7.529736e+002,-1.496124e+000
7.539378e+002,-1.235596e+000
7.549020e+002,-2.846832e-001
7.558663e+002,2.092224e+000
7.568306e+002,4.653915e+000
7.577948e+002,5.339828e+000
7.587590e+002,3.010025e+000
7.597233e+002,-9.718475e-001
7.606875e+002,-1.980301e+000
7.616517e+002,-3.372803e-001
7.626160e+002,6.922455e-001
7.635802e+002,-7.620239e-002
7.645444e+002,-1.451141e+000
7.655087e+002,-7.571411e-001
7.664729e+002,3.587250e+000
7.674371e+002,6.448410e+000
7.684014e+002,7.194992e+000
7.693656e+002,6.963257e+000
7.703298e+002,6.323868e+000
7.712941e+002,5.435059e+000
7.722583e+002,4.274460e+000
7.732225e+002,2.014023e+000
7.741868e+002,3.145447e-001
7.751510e+002,1.035660e+000
7.761152e+002,3.462082e+000
7.770795e+002,5.779678e+000
7.780437e+002,6.372070e+000
7.790079e+002,5.411423e+000
7.799722e+002,4.466263e+000
7.809364e+002,3.483292e+000
7.819006e+002,2.722488e+000
7.828649e+002,2.634628e+000
7.838291e+002,2.974945e+000
7.847933e+002,2.631577e+000
7.857576e+002,5.658417e-001
7.867218e+002,-7.498474e-001
7.876860e+002,-1.425323e-001
7.886503e+002,9.456635e-001
7.896145e+002,1.057999e+000
7.905787e+002,-9.492493e-002
7.915430e+002,-9.748840e-001
7.925072e+002,6.686554e-001
7.934714e+002,2.946381e+000
7.944357e+002,3.707184e+000
7.953999e+002,3.056351e+000
7.963641e+002,2.378616e+000
7.973284e+002,3.216141e+000
7.982926e+002,5.693405e+000
7.992568e+002,7.391098e+000
8.002211e+002,8.624207e+000
8.011853e+002,8.472900e+000
8.021495e+002,5.633362e+000
8.031138e+002,1.295029e+000
8.040780e+002,-6.226196e-001
8.050422e+002,2.011307e+000
8.060065e+002,4.550095e+000
8.069707e+002,4.962570e+000
8.079349e+002,4.723267e+000
8.088992e+002,5.805618e+000
8.098634e+002,8.740753e+000
8.108276e+002,1.142679e+001
8.117919e+002,9.870850e+000
8.127561e+002,5.915253e+000
8.137203e+002,3.723511e+000
8.146846e+002,3.884628e+000
8.156488e+002,5.195251e+000
8.166130e+002,6.210678e+000
8.175773e+002,6.958344e+000
8.185415e+002,7.004196e+000
8.195057e+002,6.320663e+000
8.204700e+002,4.952362e+000
8.214342e+002,1.846878e+000
8.223984e+002,-1.916672e+000
8.233627e+002,-3.415176e+000
8.243269e+002,-7.363586e-001
8.252911e+002,2.721878e+000
8.262554e+002,5.594955e+000
8.272196e+002,7.647446e+000
8.281838e+002,8.335098e+000
8.291481e+002,7.633636e+000
8.301123e+002,6.314713e+000
8.310765e+002,5.660675e+000
8.320408e+002,5.670883e+000
8.330050e+002,6.072693e+000
8.339692e+002,7.041748e+000
8.349335e+002,7.919495e+000
8.358977e+002,8.079437e+000
8.368619e+002,7.533813e+000
8.378262e+002,6.639481e+000
8.387904e+002,3.965683e+000
8.397546e+002,2.448639e+000
8.407189e+002,3.668121e+000
8.416831e+002,6.363312e+000
8.426473e+002,8.321045e+000
8.436116e+002,8.506653e+000
8.445758e+002,8.070282e+000
8.455400e+002,8.200287e+000
8.465043e+002,8.272263e+000
8.474685e+002,7.411987e+000
8.484327e+002,5.628113e+000
8.493970e+002,3.957520e+000
8.503612e+002,4.043900e+000
8.513254e+002,6.219360e+000
8.522897e+002,7.646393e+000
8.532539e+002,8.324432e+000
8.542181e+002,8.260696e+000
8.551824e+002,6.827271e+000
8.561466e+002,4.465439e+000
8.571108e+002,4.150787e+000
8.580751e+002,8.698715e+000
8.590393e+002,1.186671e+001
8.600035e+002,1.071643e+001
8.609678e+002,7.890564e+000
8.619320e+002,6.213425e+000
8.628962e+002,6.860580e+000
8.638605e+002,8.953064e+000
8.648247e+002,1.199913e+001
8.657889e+002,1.523163e+001
8.667532e+002,1.694768e+001
8.677174e+002,1.691660e+001
8.686816e+002,1.590787e+001
8.696459e+002,1.467726e+001
8.706101e+002,1.317033e+001
8.715743e+002,1.240553e+001
8.725386e+002,1.247554e+001
8.735028e+002,1.308620e+001
8.744670e+002,1.454475e+001
8.754313e+002,1.626129e+001
8.763955e+002,1.719974e+001
8.773597e+002,1.688635e+001
8.783240e+002,1.647032e+001
8.792882e+002,1.646677e+001
8.802524e+002,1.684996e+001
8.812167e+002,1.774913e+001
8.821809e+002,1.911954e+001
8.831451e+002,2.086366e+001
8.841094e+002,2.296919e+001
8.850736e+002,2.536673e+001
8.860378e+002,2.577527e+001
8.870021e+002,2.356906e+001
8.879663e+002,2.161539e+001
8.889305e+002,2.177174e+001
8.898948e+002,2.352971e+001
8.908590e+002,2.441299e+001
8.918232e+002,2.371808e+001
8.927875e+002,2.321072e+001
8.937517e+002,2.308211e+001
8.947159e+002,2.339761e+001
8.956802e+002,2.439386e+001
8.966444e+002,2.590639e+001
8.976086e+002,2.716293e+001
8.985729e+002,2.750107e+001
8.995371e+002,2.716179e+001
9.005013e+002,2.612596e+001
9.014656e+002,2.470949e+001
9.024298e+002,2.413199e+001
9.033940e+002,2.536722e+001
9.043583e+002,2.799989e+001
9.053225e+002,2.939642e+001
9.062867e+002,2.834590e+001
9.072510e+002,2.734236e+001
9.082152e+002,2.665430e+001
9.091794e+002,2.614398e+001
9.101437e+002,2.568410e+001
9.111079e+002,2.524615e+001
9.120721e+002,2.466542e+001
9.130364e+002,2.296432e+001
9.140006e+002,2.170815e+001
9.149648e+002,2.221860e+001
9.159291e+002,2.405125e+001
9.168933e+002,2.625226e+001
9.178575e+002,2.807285e+001
9.188218e+002,2.927061e+001
9.197860e+002,2.892804e+001
9.207502e+002,2.698454e+001
9.217145e+002,2.489700e+001
9.226787e+002,2.264757e+001
9.236429e+002,2.088252e+001
9.246072e+002,2.062227e+001
9.255714e+002,2.213666e+001
9.265356e+002,2.328471e+001
9.274999e+002,2.312828e+001
9.284641e+002,2.309401e+001
9.294283e+002,2.439098e+001
9.303926e+002,2.608492e+001
9.313568e+002,2.615779e+001
9.323210e+002,2.344354e+001
9.332853e+002,2.010085e+001
9.342495e+002,2.011960e+001
9.352137e+002,2.175169e+001
9.361780e+002,2.251552e+001
9.371422e+002,2.195117e+001
9.381064e+002,2.105609e+001
9.390707e+002,2.112505e+001
9.400349e+002,2.230463e+001
9.409991e+002,2.262589e+001
9.419634e+002,2.183026e+001
9.429276e+002,2.059747e+001
9.438918e+002,1.848624e+001
9.448561e+002,1.628391e+001
9.458203e+002,1.553369e+001
9.467845e+002,1.701039e+001
9.477488e+002,1.833524e+001
9.487130e+002,1.681210e+001
9.496772e+002,1.498140e+001
9.506415e+002,1.515646e+001
9.516057e+002,1.719557e+001
9.525699e+002,1.927431e+001
9.535342e+002,1.958279e+001
9.544984e+002,1.836295e+001
9.554626e+002,1.813937e+001
9.564269e+002,1.921294e+001
9.573911e+002,2.028923e+001
9.583553e+002,2.121945e+001
9.593196e+002,2.180681e+001
9.602838e+002,2.161345e+001
9.612480e+002,2.038187e+001
9.622123e+002,1.922105e+001
9.631765e+002,1.854440e+001
9.641407e+002,1.798404e+001
9.651050e+002,1.720470e+001
9.660692e+002,1.635316e+001
9.670334e+002,1.591264e+001
9.679977e+002,1.625597e+001
9.689619e+002,1.700310e+001
9.699261e+002,1.697891e+001
9.708904e+002,1.641309e+001
9.718546e+002,1.613861e+001
9.728188e+002,1.622874e+001
9.737831e+002,1.691634e+001
9.747473e+002,1.888557e+001
9.757115e+002,2.264917e+001
9.766758e+002,2.507043e+001
9.776400e+002,2.478264e+001
9.786042e+002,2.499756e+001
9.795685e+002,2.787930e+001
9.805327e+002,3.091620e+001
9.814969e+002,3.016377e+001
9.824612e+002,2.435275e+001
9.834254e+002,1.809749e+001
9.843896e+002,1.579401e+001
9.853539e+002,1.543761e+001
9.863181e+002,1.551001e+001
9.872823e+002,1.556207e+001
9.882466e+002,1.488681e+001
9.892108e+002,1.291714e+001
9.901750e+002,1.020357e+001
9.911393e+002,9.840622e+000
9.921035e+002,1.407591e+001
9.930677e+002,1.644908e+001
9.940320e+002,1.553362e+001
9.949962e+002,1.379468e+001
9.959604e+002,1.329852e+001
9.969247e+002,1.423521e+001
9.978889e+002,1.593642e+001
9.988531e+002,1.893610e+001
9.998174e+002,2.124040e+001
1.000782e+003,2.152339e+001
1.001746e+003,2.061784e+001
1.002710e+003,1.951303e+001
1.003674e+003,1.873532e+001
1.004639e+003,1.842198e+001
1.005603e+003,1.890347e+001
1.006567e+003,2.023633e+001
1.007531e+003,2.093494e+001
1.008495e+003,2.088116e+001
1.009460e+003,2.053084e+001
1.010424e+003,2.004137e+001
1.011388e+003,1.949901e+001
1.012352e+003,1.929086e+001
1.013317e+003,2.004015e+001
1.014281e+003,1.971370e+001
1.015245e+003,1.676448e+001
1.016209e+003,1.347063e+001
1.017174e+003,1.151814e+001
1.018138e+003,1.098431e+001
1.019102e+003,1.089363e+001
1.020066e+003,1.052570e+001
1.021031e+003,9.959595e+000
1.021995e+003,9.189346e+000
1.022959e+003,8.154343e+000
1.023923e+003,6.981476e+000
1.024887e+003,5.683990e+000
1.025852e+003,4.270309e+000
1.026816e+003,2.655594e+000
1.027780e+003,7.181854e-001
1.028744e+003,-4.422913e-001
1.029709e+003,-6.677551e-001
1.030673e+003,-2.531433e-001
1.031637e+003,1.340515e+000
1.032601e+003,3.218399e+000
1.033566e+003,4.141891e+000
1.034530e+003,3.729858e+000
1.035494e+003,2.949722e+000
1.036458e+003,2.700134e+000
1.037422e+003,2.798218e+000
1.038387e+003,2.974869e+000
1.039351e+003,3.191711e+000
1.040315e+003,3.538712e+000
1.041279e+003,4.186417e+000
1.042244e+003,5.007263e+000
1.043208e+003,5.107849e+000
1.044172e+003,3.610977e+000
1.045136e+003,2.694916e+000
1.046101e+003,2.481339e+000
1.047065e+003,2.821976e+000
1.048029e+003,4.081680e+000
1.048993e+003,5.826782e+000
1.049958e+003,6.733597e+000
1.050922e+003,6.104416e+000
1.051886e+003,4.829254e+000
1.052850e+003,3.507202e+000
1.053814e+003,2.270447e+000
1.054779e+003,1.143967e+000
1.055743e+003,2.035065e-001
1.056707e+003,-8.807373e-002
1.057671e+003,9.061127e-001
1.058636e+003,3.177811e+000
1.059600e+003,4.408264e+000
1.060564e+003,3.814850e+000
1.061528e+003,3.635574e+000
1.062493e+003,4.674164e+000
1.063457e+003,5.729645e+000
1.064421e+003,5.371826e+000
1.065385e+003,3.509811e+000
1.066349e+003,1.655334e+000
1.067314e+003,2.518768e-001
1.068278e+003,-4.714203e-001
1.069242e+003,-4.621887e-002
1.070206e+003,1.030472e+000
1.071171e+003,2.023834e+000
1.072135e+003,2.549744e+000
1.073099e+003,2.691345e+000
1.074063e+003,2.678009e+000
1.075028e+003,2.564514e+000
1.075992e+003,1.773361e+000
1.076956e+003,-9.082031e-001
1.077920e+003,-2.371918e+000
1.078885e+003,-4.485626e-001
1.079849e+003,3.194122e+000
1.080813e+003,5.437576e+000
1.081777e+003,5.723145e+000
1.082741e+003,5.523102e+000
1.083706e+003,5.361603e+000
1.084670e+003,4.845947e+000
1.085634e+003,3.132675e+000
1.086598e+003,1.000351e+000
1.087563e+003,1.382446e-001
1.088527e+003,1.428299e+000
1.089491e+003,3.707962e+000
1.090455e+003,4.570724e+000
1.091420e+003,3.745300e+000
1.092384e+003,2.646790e+000
1.093348e+003,8.276520e-001
1.094312e+003,-6.171875e-001
1.095276e+003,-1.010056e+000
1.096241e+003,-4.297028e-001
1.097205e+003,9.612579e-001
1.098169e+003,3.665482e+000
1.099133e+003,5.432724e+000
1.100098e+003,5.170105e+000
1.101062e+003,4.138077e+000
1.102026e+003,2.702560e+000
1.102990e+003,1.203400e+000
1.103955e+003,-2.801514e-002
1.104919e+003,-8.119202e-001
1.105883e+003,-1.121124e+000
1.106847e+003,-6.552887e-001
1.107812e+003,5.570679e-001
1.108776e+003,7.475281e-001
1.109740e+003,-6.495514e-001
1.110704e+003,-2.046494e+000
1.111668e+003,-2.342789e+000
1.112633e+003,-1.596924e+000
1.113597e+003,-1.300354e-001
1.114561e+003,2.583923e+000
1.115525e+003,4.493347e+000
1.116490e+003,4.455933e+000
1.117454e+003,3.991226e+000
1.118418e+003,4.121429e+000
1.119382e+003,4.797119e+000
1.120347e+003,5.377640e+000
1.121311e+003,5.393967e+000
1.122275e+003,5.024628e+000
1.123239e+003,4.833633e+000
1.124203e+003,4.957108e+000
1.125168e+003,5.415298e+000
1.126132e+003,6.398727e+000
1.127096e+003,7.312500e+000
1.128060e+003,7.371445e+000
1.129025e+003,6.840958e+000
1.129989e+003,7.310516e+000
1.130953e+003,9.584091e+000
1.131917e+003,1.112927e+001
1.132882e+003,1.084108e+001
1.133846e+003,1.024138e+001
1.134810e+003,1.010693e+001
1.135774e+003,1.048232e+001
1.136739e+003,1.127444e+001
1.137703e+003,1.239922e+001
1.138667e+003,1.335504e+001
1.139631e+003,1.309756e+001
1.140595e+003,1.178383e+001
1.141560e+003,1.088191e+001
1.142524e+003,1.022392e+001
1.143488e+003,1.109647e+001
1.144452e+003,1.500320e+001
1.145417e+003,2.113036e+001
1.146381e+003,2.659779e+001
1.147345e+003,3.139778e+001
1.148309e+003,3.517523e+001
1.149274e+003,3.697148e+001
1.150238e+003,3.882207e+001
1.151202e+003,4.152318e+001
1.152166e+003,4.522751e+001
1.153130e+003,5.035884e+001
1.154095e+003,5.684325e+001
1.155059e+003,6.290138e+001
1.156023e+003,6.616592e+001
1.156987e+003,6.668170e+001
1.157952e+003,6.603148e+001
1.158916e+003,6.433127e+001
1.159880e+003,6.197955e+001
1.160844e+003,5.881142e+001
1.161809e+003,5.490326e+001
1.162773e+003,5.087842e+001
1.163737e+003,4.697369e+001
1.164701e+003,4.191493e+001
1.165666e+003,3.303932e+001
1.166630e+003,2.556870e+001
1.167594e+003,2.182260e+001
1.168558e+003,2.048569e+001
1.169522e+003,2.002435e+001
1.170487e+003,1.971140e+001
1.171451e+003,1.929515e+001
1.172415e+003,1.844521e+001
1.173379e+003,1.724147e+001
1.174344e+003,1.620274e+001
1.175308e+003,1.532187e+001
1.176272e+003,1.481046e+001
1.177236e+003,1.510078e+001
1.178201e+003,1.557753e+001
1.179165e+003,1.544359e+001
1.180129e+003,1.462917e+001
1.181093e+003,1.327071e+001
1.182057e+003,1.065715e+001
1.183022e+003,8.732285e+000
1.183986e+003,8.708023e+000
1.184950e+003,9.280670e+000
1.185914e+003,8.985474e+000
1.186879e+003,7.922577e+000
1.187843e+003,7.521332e+000
1.188807e+003,8.942383e+000
1.189771e+003,1.143967e+001
1.190736e+003,1.289110e+001
1.191700e+003,1.317886e+001
1.192664e+003,1.340564e+001
1.193628e+003,1.399773e+001
1.194593e+003,1.422786e+001
1.195557e+003,1.326863e+001
1.196521e+003,1.147797e+001
1.197485e+003,1.014259e+001
1.198449e+003,9.471527e+000
1.199414e+003,9.266693e+000
1.200378e+003,1.048351e+001
1.201342e+003,1.120686e+001
1.202306e+003,9.650848e+000
1.203271e+003,6.637039e+000
1.204235e+003,3.900787e+000
1.205199e+003,2.390625e+000
1.206163e+003,1.977310e+000
1.207128e+003,2.552490e+000
1.208092e+003,4.211472e+000
1.209056e+003,4.622971e+000
1.210020e+003,3.295090e+000
1.210984e+003,1.975433e+000
1.211949e+003,1.244461e+000
1.212913e+003,6.916351e-001
1.213877e+003,-1.735840e-001
1.214841e+003,-1.358551e+000
1.215806e+003,-2.607910e+000
1.216770e+003,-3.994431e+000
1.217734e+003,-5.187759e+000
1.218698e+003,-6.230682e+000
1.219663e+003,-6.932037e+000
1.220627e+003,-6.568329e+000
1.221591e+003,-5.387009e+000
1.222555e+003,-5.045776e+000
1.223520e+003,-7.136795e+000
1.224484e+003,-1.082622e+001
1.225448e+003,-1.227357e+001
1.226412e+003,-1.011372e+001
1.227376e+003,-8.658508e+000
1.228341e+003,-8.448380e+000
1.229305e+003,-8.368362e+000
1.230269e+003,-7.506516e+000
1.231233e+003,-6.442902e+000
1.232198e+003,-6.567703e+000
1.233162e+003,-8.266220e+000
1.234126e+003,-9.824265e+000
1.235090e+003,-9.725037e+000
1.236055e+003,-9.285431e+000
1.237019e+003,-1.037614e+001
1.237983e+003,-1.230214e+001
1.238947e+003,-1.281139e+001
1.239911e+003,-1.095158e+001
1.240876e+003,-8.572937e+000
1.241840e+003,-8.649628e+000
1.242804e+003,-1.139124e+001
1.243768e+003,-1.262408e+001
1.244733e+003,-1.146028e+001
1.245697e+003,-9.780319e+000
1.246661e+003,-6.683151e+000
1.247625e+003,-4.189804e+000
1.248590e+003,-4.316177e+000
1.249554e+003,-6.267334e+000
1.250518e+003,-7.388153e+000
1.251482e+003,-6.464462e+000
1.252447e+003,-5.210556e+000
1.253411e+003,-5.682541e+000
1.254375e+003,-7.171143e+000
1.255339e+003,-8.370560e+000
1.256303e+003,-9.160675e+000
1.257268e+003,-9.482422e+000
1.258232e+003,-9.451416e+000
1.259196e+003,-8.928360e+000
1.260160e+003,-7.070221e+000
1.261125e+003,-3.327835e+000
1.262089e+003,-1.287567e+000
1.263053e+003,-3.111633e+000
1.264017e+003,-4.659210e+000
1.264982e+003,-4.716614e+000
1.265946e+003,-4.188187e+000
1.266910e+003,-3.896790e+000
1.267874e+003,-3.941895e+000
1.268839e+003,-4.001312e+000
1.269803e+003,-3.859467e+000
1.270767e+003,-3.578918e+000
1.271731e+003,-3.230331e+000
1.272695e+003,-2.788712e+000
1.273660e+003,-2.470123e+000
1.274624e+003,-2.335342e+000
1.275588e+003,-2.539398e+000
1.276552e+003,-3.107635e+000
1.277517e+003,-3.948257e+000
1.278481e+003,-5.218018e+000
1.279445e+003,-7.035431e+000
1.280409e+003,-8.057068e+000
1.281374e+003,-7.080261e+000
1.282338e+003,-6.209854e+000
1.283302e+003,-6.863144e+000
1.284266e+003,-8.028549e+000
1.285230e+003,-8.539612e+000
1.286195e+003,-8.258041e+000
1.287159e+003,-7.751190e+000
1.288123e+003,-7.449234e+000
1.289087e+003,-7.289886e+000
1.290052e+003,-7.265152e+000
1.291016e+003,-7.615952e+000
1.291980e+003,-7.388260e+000
1.292944e+003,-5.617508e+000
1.293909e+003,-4.695251e+000
1.294873e+003,-6.238678e+000
1.295837e+003,-8.637451e+000
1.296801e+003,-9.563370e+000
1.297766e+003,-8.787277e+000
1.298730e+003,-8.054230e+000
1.299694e+003,-8.400513e+000
1.300658e+003,-9.011414e+000
1.301622e+003,-8.987152e+000
1.302587e+003,-8.535461e+000
1.303551e+003,-7.787582e+000
1.304515e+003,-6.828308e+000
1.305479e+003,-6.346680e+000
1.306444e+003,-7.090332e+000
1.307408e+003,-8.571594e+000
1.308372e+003,-8.892670e+000
1.309336e+003,-7.472672e+000
1.310301e+003,-6.708923e+000
1.311265e+003,-7.209030e+000
1.312229e+003,-7.665482e+000
1.313193e+003,-7.481018e+000
1.314157e+003,-7.252747e+000
1.315122e+003,-7.854218e+000
1.316086e+003,-9.186127e+000
1.317050e+003,-1.022289e+001
1.318014e+003,-1.023967e+001
1.318979e+003,-9.729874e+000
1.319943e+003,-9.682068e+000
1.320907e+003,-9.957336e+000
1.321871e+003,-9.579086e+000
1.322836e+003,-8.355789e+000
1.323800e+003,-7.406937e+000
1.324764e+003,-7.787308e+000
1.325728e+003,-8.543396e+000
1.326693e+003,-7.700943e+000
1.327657e+003,-5.212189e+000
1.328621e+003,-3.990051e+000
1.329585e+003,-5.387253e+000
1.330549e+003,-6.722748e+000
1.331514e+003,-6.454193e+000
1.332478e+003,-5.926590e+000
1.333442e+003,-6.564270e+000
1.334406e+003,-8.115479e+000
1.335371e+003,-9.275787e+000
1.336335e+003,-9.263977e+000
1.337299e+003,-8.604675e+000
1.338263e+003,-8.338669e+000
1.339228e+003,-8.560165e+000
1.340192e+003,-8.234268e+000
1.341156e+003,-6.474442e+000
1.342120e+003,-5.506729e+000
1.343084e+003,-6.417694e+000
1.344049e+003,-7.685349e+000
1.345013e+003,-7.834641e+000
1.345977e+003,-7.139969e+000
1.346941e+003,-6.905777e+000
1.347906e+003,-7.627380e+000
1.348870e+003,-8.598953e+000
1.349834e+003,-9.465744e+000
1.350798e+003,-9.964096e+000
1.351763e+003,-9.403122e+000
1.352727e+003,-7.962479e+000
1.353691e+003,-6.876022e+000
1.354655e+003,-6.679138e+000
1.355620e+003,-6.612686e+000
1.356584e+003,-5.382370e+000
1.357548e+003,-3.231110e+000
1.358512e+003,-2.790573e+000
1.359476e+003,-4.986938e+000
1.360441e+003,-6.983673e+000
1.361405e+003,-8.248077e+000
1.362369e+003,-8.873337e+000
1.363333e+003,-8.365601e+000
1.364298e+003,-7.490524e+000
1.365262e+003,-7.513840e+000
1.366226e+003,-8.514648e+000
1.367190e+003,-9.066086e+000
1.368155e+003,-7.862274e+000
1.369119e+003,-5.736130e+000
1.370083e+003,-5.387054e+000
1.371047e+003,-7.467316e+000
1.372011e+003,-8.374588e+000
1.372976e+003,-7.485626e+000
1.373940e+003,-6.486328e+000
1.374904e+003,-5.788986e+000
1.375868e+003,-5.378220e+000
1.376833e+003,-5.349777e+000
1.377797e+003,-5.669144e+000
1.378761e+003,-6.057983e+000
1.379725e+003,-6.458344e+000
1.380690e+003,-6.629593e+000
1.381654e+003,-6.115540e+000
1.382618e+003,-5.277771e+000
1.383582e+003,-4.331284e+000
1.384547e+003,-3.450455e+000
1.385511e+003,-3.671280e+000
1.386475e+003,-5.843216e+000
1.387439e+003,-8.356659e+000
1.388403e+003,-8.412445e+000
1.389368e+003,-6.028717e+000
1.390332e+003,-4.659973e+000
1.391296e+003,-4.811584e+000
1.392260e+003,-5.053253e+000
1.393225e+003,-4.959610e+000
1.394189e+003,-4.993225e+000
1.395153e+003,-5.620636e+000
1.396117e+003,-6.455780e+000
1.397082e+003,-7.031754e+000
1.398046e+003,-7.103119e+000
1.399010e+003,-6.255005e+000
1.399974e+003,-4.071930e+000
1.400938e+003,-1.683182e+000
1.401903e+003,-2.690506e+000
1.402867e+003,-8.432785e+000
1.403831e+003,-1.042073e+001
1.404795e+003,-5.435486e+000
1.405760e+003,-1.417435e+000
1.406724e+003,-2.031158e+000
1.407688e+003,-4.633743e+000
1.408652e+003,-6.425476e+000
1.409617e+003,-6.952637e+000
1.410581e+003,-6.134888e+000
1.411545e+003,-3.694794e+000
1.412509e+003,-1.221832e+000
1.413474e+003,-2.472839e-001
1.414438e+003,-4.245758e-001
1.415402e+003,-1.445175e+000
1.416366e+003,-2.951752e+000
1.417330e+003,-3.255264e+000
1.418295e+003,-1.383270e+000
1.419259e+003,7.173615e-001
1.420223e+003,4.680328e-001
1.421187e+003,-1.743103e+000
1.422152e+003,-3.184372e+000
1.423116e+003,-3.674240e+000
1.424080e+003,-3.481354e+000
1.425044e+003,-1.377365e+000
1.426009e+003,-1.932983e-001
1.426973e+003,-2.203888e+000
1.427937e+003,-5.145432e+000
1.428901e+003,-6.198761e+000
1.429865e+003,-5.183426e+000
1.430830e+003,-3.792236e+000
1.431794e+003,-3.192490e+000
1.432758e+003,-2.942062e+000
1.433722e+003,-2.007904e+000
1.434687e+003,-1.359100e-001
1.435651e+003,7.152100e-001
1.436615e+003,-6.695709e-001
1.437579e+003,-1.809158e+000
1.438544e+003,-2.481476e+000
1.439508e+003,-2.783264e+000
1.440472e+003,-2.868164e+000
1.441436e+003,-2.504807e+000
1.442401e+003,-7.761536e-001
1.443365e+003,2.229599e+000
1.444329e+003,3.985245e+000
1.445293e+003,2.407364e+000
1.446257e+003,-7.751923e-001
1.447222e+003,-2.639633e+000
1.448186e+003,-3.298004e+000
1.449150e+003,-2.893341e+000
1.450114e+003,-1.109604e+000
1.451079e+003,3.014526e-001
1.452043e+003,2.447357e-001
1.453007e+003,-4.295197e-001
1.453971e+003,-6.382904e-001
1.454936e+003,-4.600067e-001
1.455900e+003,-3.892975e-001
1.456864e+003,-5.075989e-001
1.457828e+003,-6.637726e-001
1.458792e+003,-1.112747e+000
1.459757e+003,-1.345490e+000
1.460721e+003,-5.282288e-001
1.461685e+003,7.179718e-001
1.462649e+003,9.606628e-001
1.463614e+003,-3.834534e-002
1.464578e+003,-8.623810e-001
1.465542e+003,-1.696320e-001
1.466506e+003,1.318024e+000
1.467471e+003,1.351517e+000
1.468435e+003,-4.978943e-001
1.469399e+003,-1.136871e+000
1.470363e+003,6.703644e-001
1.471328e+003,1.975830e+000
1.472292e+003,1.270828e+000
1.473256e+003,5.122681e-001
1.474220e+003,1.997681e+000
1.475184e+003,4.450195e+000
1.476149e+003,4.645126e+000
1.477113e+003,1.885574e+000
1.478077e+003,-7.213440e-001
1.479041e+003,-4.672241e-002
1.480006e+003,2.776794e+000
1.480970e+003,3.807663e+000
1.481934e+003,2.465607e+000
1.482898e+003,1.314987e+000
1.483863e+003,-1.385498e-001
1.484827e+003,-7.687073e-001
1.485791e+003,7.189178e-001
1.486755e+003,2.430893e+000
1.487719e+003,1.985229e+000
1.488684e+003,2.677155e-001
1.489648e+003,5.128326e-001
1.490612e+003,3.697403e+000
1.491576e+003,6.378738e+000
1.492541e+003,5.293182e+000
1.493505e+003,2.581619e+000
1.494469e+003,3.425415e+000
1.495433e+003,7.046158e+000
1.496398e+003,9.112625e+000
1.497362e+003,8.756165e+000
1.498326e+003,8.468430e+000
1.499290e+003,9.702682e+000
1.500255e+003,1.157977e+001
1.501219e+003,1.289616e+001
1.502183e+003,1.370410e+001
1.503147e+003,1.458939e+001
1.504111e+003,1.562190e+001
1.505076e+003,1.701178e+001
1.506040e+003,1.870016e+001
1.507004e+003,2.108205e+001
1.507968e+003,2.479089e+001
1.508933e+003,2.931694e+001
1.509897e+003,3.363940e+001
1.510861e+003,3.768782e+001
1.511825e+003,4.192584e+001
1.512790e+003,4.658839e+001
1.513754e+003,5.151741e+001
1.514718e+003,5.663873e+001
1.515682e+003,6.187387e+001
1.516646e+003,6.666338e+001
1.517611e+003,7.072287e+001
1.518575e+003,7.516745e+001
1.519539e+003,8.132510e+001
1.520503e+003,8.709641e+001
1.521468e+003,9.207741e+001
1.522432e+003,9.554022e+001
1.523396e+003,9.607933e+001
1.524360e+003,9.404189e+001
1.525325e+003,9.177635e+001
1.526289e+003,9.086603e+001
1.527253e+003,9.004025e+001
1.528217e+003,8.687463e+001
1.529182e+003,8.140549e+001
1.530146e+003,7.615958e+001
1.531110e+003,7.119400e+001
1.532074e+003,6.619273e+001
1.533039e+003,6.098560e+001
1.534003e+003,5.553343e+001
1.534967e+003,5.007634e+001
1.535931e+003,4.452985e+001
1.536896e+003,3.843224e+001
1.537860e+003,3.210944e+001
1.538824e+003,2.647095e+001
1.539788e+003,2.194447e+001
1.540752e+003,1.817581e+001
1.541717e+003,1.470703e+001
1.542681e+003,1.172707e+001
1.543645e+003,1.010434e+001
1.544609e+003,1.068652e+001
1.545573e+003,1.073341e+001
1.546538e+003,9.142319e+000
1.547502e+003,8.236374e+000
1.548466e+003,1.000307e+001
1.549430e+003,1.214008e+001
1.550395e+003,1.188084e+001
1.551359e+003,9.783264e+000
1.552323e+003,8.284744e+000
1.553287e+003,8.233932e+000
1.554252e+003,8.467987e+000
1.555216e+003,7.987152e+000
1.556180e+003,7.032669e+000
1.557144e+003,6.159256e+000
1.558109e+003,5.404175e+000
1.559073e+003,4.457275e+000
1.560037e+003,2.692596e+000
1.561001e+003,1.795258e+000
1.561966e+003,3.308334e+000
1.562930e+003,5.213165e+000
1.563894e+003,5.621307e+000
1.564858e+003,4.835190e+000
1.565823e+003,3.612671e+000
1.566787e+003,2.173782e+000
1.567751e+003,1.261429e+000
1.568715e+003,1.377228e+000
1.569679e+003,2.048782e+000
1.570644e+003,2.656326e+000
1.571608e+003,3.285995e+000
1.572572e+003,4.522659e+000
1.573536e+003,6.456314e+000
1.574500e+003,7.853745e+000
1.575465e+003,8.393570e+000
1.576429e+003,8.083572e+000
1.577393e+003,6.282104e+000
1.578357e+003,3.849716e+000
1.579322e+003,2.487534e+000
1.580286e+003,2.318939e+000
1.581250e+003,2.723587e+000
1.582214e+003,3.507538e+000
1.583179e+003,4.907532e+000
1.584143e+003,7.831299e+000
1.585107e+003,1.070573e+001
1.586071e+003,1.150302e+001
1.587036e+003,1.074367e+001
1.588000e+003,9.568634e+000
1.588964e+003,8.105423e+000
1.589928e+003,6.991531e+000
1.590893e+003,6.701523e+000
1.591857e+003,6.982574e+000
1.592821e+003,7.697205e+000
1.593785e+003,8.721161e+000
1.594750e+003,9.121796e+000
1.595714e+003,8.608612e+000
1.596678e+003,8.424316e+000
1.597642e+003,9.474838e+000
1.598606e+003,1.041121e+001
1.599571e+003,9.707718e+000
1.600535e+003,8.575409e+000
1.601499e+003,8.699677e+000
1.602463e+003,9.957443e+000
1.603427e+003,1.122986e+001
1.604392e+003,1.216777e+001
1.605356e+003,1.224313e+001
1.606320e+003,1.012625e+001
1.607284e+003,6.999878e+000
1.608249e+003,6.508041e+000
1.609213e+003,8.750580e+000
1.610177e+003,1.076138e+001
1.611141e+003,1.230139e+001
1.612106e+003,1.297346e+001
1.613070e+003,1.173894e+001
1.614034e+003,1.030144e+001
1.614998e+003,9.733032e+000
1.615963e+003,9.888992e+000
1.616927e+003,1.065555e+001
1.617891e+003,1.183905e+001
1.618855e+003,1.265915e+001
1.619820e+003,1.257713e+001
1.620784e+003,1.205153e+001
1.621748e+003,1.192554e+001
1.622712e+003,1.219353e+001
1.623677e+003,1.198175e+001
1.624641e+003,1.112547e+001
1.625605e+003,1.083899e+001
1.626569e+003,1.169417e+001
1.627533e+003,1.220793e+001
1.628498e+003,1.153830e+001
1.629462e+003,1.054379e+001
1.630426e+003,9.650513e+000
1.631390e+003,9.050522e+000
1.632354e+003,9.050217e+000
1.633319e+003,9.690292e+000
1.634283e+003,1.076956e+001
1.635247e+003,1.226720e+001
1.636211e+003,1.367163e+001
1.637176e+003,1.407332e+001
1.638140e+003,1.355495e+001
1.639104e+003,1.271773e+001
1.640068e+003,1.131815e+001
1.641033e+003,1.046359e+001
1.641997e+003,1.092079e+001
1.642961e+003,1.136018e+001
1.643925e+003,1.080124e+001
1.644890e+003,1.014375e+001
1.645854e+003,1.022409e+001
1.646818e+003,1.096269e+001
1.647782e+003,1.225974e+001
1.648747e+003,1.395265e+001
1.649711e+003,1.473587e+001
1.650675e+003,1.330939e+001
1.651639e+003,1.096292e+001
1.652604e+003,1.034241e+001
1.653568e+003,1.133740e+001
1.654532e+003,1.227409e+001
1.655496e+003,1.329376e+001
1.656460e+003,1.342641e+001
1.657425e+003,1.173090e+001
1.658389e+003,1.003670e+001
1.659353e+003,9.175079e+000
1.660317e+003,8.908371e+000
1.661281e+003,9.071365e+000
1.662246e+003,9.552719e+000
1.663210e+003,1.040387e+001
1.664174e+003,1.162265e+001
1.665138e+003,1.229782e+001
1.666103e+003,1.144429e+001
1.667067e+003,9.807312e+000
1.668031e+003,8.966522e+000
1.668995e+003,8.884308e+000
1.669960e+003,8.609451e+000
1.670924e+003,7.986420e+000
1.671888e+003,7.677719e+000
1.672852e+003,8.078934e+000
1.673817e+003,8.478058e+000
1.674781e+003,8.305878e+000
1.675745e+003,7.969910e+000
1.676709e+003,7.900101e+000
1.677674e+003,8.065063e+000
1.678638e+003,8.255600e+000
1.679602e+003,8.407761e+000
1.680566e+003,8.595718e+000
1.681531e+003,9.066116e+000
1.682495e+003,9.455002e+000
1.683459e+003,8.948135e+000
1.684423e+003,7.639511e+000
1.685387e+003,6.247421e+000
1.686352e+003,4.741196e+000
1.687316e+003,4.207031e+000
1.688280e+003,5.402313e+000
1.689244e+003,6.865601e+000
1.690208e+003,8.039825e+000
1.691173e+003,8.492233e+000
1.692137e+003,7.000961e+000
1.693101e+003,4.435974e+000
1.694065e+003,3.736084e+000
1.695030e+003,5.635666e+000
1.695994e+003,6.926392e+000
1.696958e+003,4.994110e+000
1.697922e+003,2.314682e+000
1.698887e+003,2.280640e+000
1.699851e+003,3.998535e+000
1.700815e+003,4.612137e+000
1.701779e+003,3.858246e+000
1.702744e+003,3.135849e+000
1.703708e+003,2.930328e+000
1.704672e+003,2.987885e+000
1.705636e+003,3.043259e+000
1.706601e+003,3.143188e+000
1.707565e+003,3.722702e+000
1.708529e+003,4.554291e+000
1.709493e+003,4.591248e+000
1.710458e+003,3.599670e+000
1.711422e+003,2.801544e+000
1.712386e+003,3.226669e+000
1.713350e+003,3.502487e+000
1.714314e+003,1.902573e+000
1.715279e+003,-3.486176e-001
1.716243e+003,-9.468231e-001
1.717207e+003,-7.225037e-002
1.718171e+003,3.749237e-001
1.719135e+003,-1.160126e-001
1.720100e+003,-2.801514e-001
1.721064e+003,7.954407e-001
1.722028e+003,2.279541e+000
1.722992e+003,3.096130e+000
1.723957e+003,3.395691e+000
1.724921e+003,3.657135e+000
1.725885e+003,3.830032e+000
1.726849e+003,3.525833e+000
1.727814e+003,2.287308e+000
1.728778e+003,1.373230e+000
1.729742e+003,1.498611e+000
1.730706e+003,1.975082e+000
1.731671e+003,2.340988e+000
1.732635e+003,2.308273e+000
1.733599e+003,1.158752e+000
1.734563e+003,-7.847290e-001
1.735528e+003,-1.514130e+000
1.736492e+003,-1.319885e-002
1.737456e+003,2.082932e+000
1.738420e+003,2.848129e+000
1.739385e+003,2.605972e+000
1.740349e+003,2.790756e+000
1.741313e+003,3.662903e+000
1.742277e+003,3.908295e+000
1.743241e+003,3.256119e+000
1.744206e+003,2.576294e+000
1.745170e+003,1.573288e+000
1.746134e+003,9.525299e-001
1.747098e+003,1.828888e+000
1.748063e+003,2.745026e+000
1.749027e+003,1.204376e+000
1.749991e+003,-1.665924e+000
1.750955e+003,-1.937790e+000
1.751919e+003,1.203171e+000
1.752884e+003,3.685638e+000
1.753848e+003,2.107635e+000
1.754812e+003,-1.504150e+000
1.755776e+003,-3.045685e+000
1.756741e+003,-2.516479e+000
1.757705e+003,-1.840363e+000
1.758669e+003,-8.563232e-001
1.759633e+003,-3.902130e-001
1.760598e+003,-1.192474e+000
1.761562e+003,-1.667435e+000
1.762526e+003,-2.037506e-001
1.763490e+003,7.328949e-001
1.764455e+003,-1.810913e+000
1.765419e+003,-5.414398e+000
1.766383e+003,-5.903122e+000
1.767347e+003,-3.318604e+000
1.768312e+003,-9.953156e-001
1.769276e+003,-5.158234e-001
1.770240e+003,-8.480835e-001
1.771204e+003,-9.752045e-001
1.772168e+003,-8.865204e-001
1.773133e+003,-5.681000e-001
1.774097e+003,-9.136963e-002
1.775061e+003,-3.553925e-001
1.776025e+003,-1.710419e+000
1.776990e+003,-2.294037e+000
1.777954e+003,-1.032532e+000
1.778918e+003,3.617859e-001
1.779882e+003,6.272125e-001
1.780846e+003,2.161713e-001
1.781811e+003,-4.735413e-001
1.782775e+003,-1.196060e+000
1.783739e+003,-1.009216e+000
1.784703e+003,3.596954e-001
1.785668e+003,1.245529e+000
1.786632e+003,4.645996e-001
1.787596e+003,-5.112915e-001
1.788560e+003,-3.612213e-001
1.789525e+003,2.556915e-001
1.790489e+003,3.205719e-001
1.791453e+003,-1.029053e-001
1.792417e+003,-6.236420e-001
1.793382e+003,-1.078491e+000
1.794346e+003,-8.726501e-001
1.795310e+003,3.787231e-001
1.796274e+003,1.326202e+000
1.797239e+003,2.758484e-001
1.798203e+003,-1.816498e+000
1.799167e+003,-2.085007e+000
1.800131e+003,-3.178406e-001
1.801095e+003,8.493652e-001
1.802060e+003,1.464874e+000
1.803024e+003,1.739304e+000
1.803988e+003,1.171280e+000
1.804952e+003,8.059082e-001
1.805917e+003,1.652542e+000
1.806881e+003,2.497879e+000
1.807845e+003,1.869431e+000
1.808809e+003,3.815002e-001
1.809773e+003,-4.041748e-001
1.810738e+003,-2.741852e-001
1.811702e+003,-5.476685e-001
1.812666e+003,-2.025894e+000
1.813630e+003,-3.435303e+000
1.814595e+003,-2.987381e+000
1.815559e+003,-1.154800e+000
1.816523e+003,3.397217e-001
1.817487e+003,1.538727e+000
1.818452e+003,1.968765e+000
1.819416e+003,1.365402e+000
1.820380e+003,9.226379e-001
1.821344e+003,1.131409e+000
1.822309e+003,1.186172e+000
1.823273e+003,3.552704e-001
1.824237e+003,-5.507965e-001
1.825201e+003,-6.741028e-001
1.826166e+003,-2.532349e-001
1.827130e+003,2.103271e-001
1.828094e+003,5.710144e-001
1.829058e+003,4.400635e-002
1.830022e+003,-2.546570e+000
1.830987e+003,-4.294540e+000
1.831951e+003,-1.568253e+000
1.832915e+003,2.572174e+000
1.833879e+003,3.255508e+000
1.834844e+003,1.508606e+000
1.835808e+003,1.274933e+000
1.836772e+003,3.002823e+000
1.837736e+003,4.148346e+000
1.838700e+003,3.572159e+000
1.839665e+003,2.108292e+000
1.840629e+003,3.325195e-001
1.841593e+003,-1.183487e+000
1.842557e+003,-1.184921e+000
1.843522e+003,3.008118e-001
1.844486e+003,1.470001e+000
1.845450e+003,2.502502e+000
1.846414e+003,3.009399e+000
1.847379e+003,2.568054e+000
1.848343e+003,1.949493e+000
1.849307e+003,1.234665e+000
1.850271e+003,6.473083e-001
1.851236e+003,4.262848e-001
1.852200e+003,4.321136e-001
1.853164e+003,2.813568e-001
1.854128e+003,2.790833e-002
1.855093e+003,3.477936e-001
1.856057e+003,1.427032e+000
1.857021e+003,2.059189e+000
1.857985e+003,1.083069e+000
1.858949e+003,-3.871918e-001
1.859914e+003,-1.702118e-001
1.860878e+003,1.355942e+000
1.861842e+003,1.795670e+000
1.862806e+003,1.079453e+000
1.863771e+003,7.949066e-001
1.864735e+003,1.248566e+000
1.865699e+003,1.815872e+000
1.866663e+003,2.446350e+000
1.867627e+003,2.802261e+000
1.868592e+003,2.234497e+000
1.869556e+003,1.285843e+000
1.870520e+003,1.241745e+000
1.871484e+003,1.922165e+000
1.872449e+003,2.104813e+000
1.873413e+003,1.654449e+000
1.874377e+003,1.571060e+000
1.875341e+003,2.221283e+000
1.876306e+003,2.854233e+000
1.877270e+003,2.983902e+000
1.878234e+003,2.941711e+000
1.879198e+003,3.406006e+000
1.880163e+003,3.845108e+000
1.881127e+003,2.786179e+000
1.882091e+003,6.299744e-001
1.883055e+003,-3.100739e-001
1.884020e+003,8.241882e-001
1.884984e+003,2.447495e+000
1.885948e+003,3.139664e+000
1.886912e+003,3.152756e+000
1.887876e+003,2.923721e+000
1.888841e+003,2.498886e+000
1.889805e+003,2.401276e+000
1.890769e+003,2.707855e+000
1.891733e+003,2.886047e+000
1.892698e+003,2.621109e+000
1.893662e+003,2.772552e+000
1.894626e+003,4.219635e+000
1.895590e+003,5.439346e+000
1.896554e+003,5.138138e+000
1.897519e+003,4.288010e+000
1.898483e+003,4.008072e+000
1.899447e+003,4.084167e+000
1.900411e+003,3.736252e+000
1.901376e+003,2.827301e+000
1.902340e+003,2.203156e+000
1.903304e+003,2.351593e+000
1.904268e+003,2.560532e+000
1.905233e+003,2.086243e+000
1.906197e+003,1.805603e+000
1.907161e+003,3.042862e+000
1.908125e+003,4.956238e+000
1.909090e+003,5.846329e+000
1.910054e+003,5.707764e+000
1.911018e+003,5.738068e+000
1.911982e+003,6.308945e+000
1.912947e+003,6.536972e+000
1.913911e+003,5.752975e+000
1.914875e+003,4.380112e+000
1.915839e+003,2.955246e+000
1.916803e+003,1.615982e+000
1.917768e+003,1.478683e+000
1.918732e+003,2.843735e+000
1.919696e+003,3.792709e+000
1.920660e+003,4.404510e+000
1.921625e+003,4.340393e+000
1.922589e+003,2.751358e+000
1.923553e+003,1.634430e+000
1.924517e+003,2.452927e+000
1.925481e+003,3.859894e+000
1.926446e+003,4.984970e+000
1.927410e+003,5.731979e+000
1.928374e+003,5.774918e+000
1.929338e+003,5.138397e+000
1.930303e+003,4.838852e+000
1.931267e+003,5.483383e+000
1.932231e+003,5.684540e+000
1.933195e+003,4.071915e+000
1.934160e+003,2.527435e+000
1.935124e+003,2.598846e+000
1.936088e+003,3.329315e+000
1.937052e+003,3.524048e+000
1.938017e+003,3.487503e+000
1.938981e+003,4.395996e+000
1.939945e+003,6.049469e+000
1.940909e+003,6.721863e+000
1.941874e+003,5.655838e+000
1.942838e+003,3.738968e+000
1.943802e+003,1.762909e+000
1.944766e+003,3.159180e-001
1.945730e+003,6.133728e-001
1.946695e+003,2.361023e+000
1.947659e+003,3.483047e+000
1.948623e+003,3.905319e+000
1.949587e+003,4.398117e+000
1.950552e+003,5.123230e+000
1.951516e+003,5.761597e+000
1.952480e+003,6.321884e+000
1.953444e+003,6.523529e+000
1.954408e+003,6.127655e+000
1.955373e+003,5.217880e+000
1.956337e+003,3.425491e+000
1.957301e+003,1.371918e+000
1.958265e+003,1.265076e+000
1.959230e+003,3.453735e+000
1.960194e+003,5.081848e+000
1.961158e+003,5.302704e+000
1.962122e+003,5.406326e+000
1.963087e+003,5.983307e+000
1.964051e+003,6.237823e+000
1.965015e+003,5.118225e+000
1.965979e+003,4.106873e+000
1.966944e+003,4.883606e+000
1.967908e+003,6.714859e+000
1.968872e+003,8.454544e+000
1.969836e+003,9.621750e+000
1.970801e+003,9.581665e+000
1.971765e+003,8.169815e+000
1.972729e+003,6.683792e+000
1.973693e+003,6.163055e+000
1.974657e+003,6.297440e+000
1.975622e+003,6.892288e+000
1.976586e+003,7.634018e+000
1.977550e+003,7.628799e+000
1.978514e+003,7.035889e+000
1.979479e+003,6.722458e+000
1.980443e+003,6.793213e+000
1.981407e+003,6.848587e+000
1.982371e+003,6.752960e+000
1.983335e+003,7.014145e+000
1.984300e+003,8.090195e+000
1.985264e+003,9.094940e+000
1.986228e+003,8.637039e+000
1.987192e+003,7.023758e+000
1.988157e+003,5.837418e+000
1.989121e+003,5.095749e+000
1.990085e+003,4.864670e+000
1.991049e+003,5.360428e+000
1.992014e+003,6.009689e+000
1.992978e+003,6.916611e+000
1.993942e+003,7.657135e+000
1.994906e+003,7.876846e+000
1.995871e+003,8.100708e+000
1.996835e+003,9.242996e+000
1.997799e+003,1.036090e+001
1.998763e+003,9.357162e+000
1.999728e+003,6.888779e+000
