5.003444e+002,1.678502e+002
5.013087e+002,1.671898e+002
5.022729e+002,1.627828e+002
5.032371e+002,1.567540e+002
5.042014e+002,1.534299e+002
5.051656e+002,1.526196e+002
5.061298e+002,1.528456e+002
5.070941e+002,1.526304e+002
5.080583e+002,1.514006e+002
5.090225e+002,1.505662e+002
5.099868e+002,1.519740e+002
5.109510e+002,1.518083e+002
5.119152e+002,1.467317e+002
5.128795e+002,1.362336e+002
5.138437e+002,1.290345e+002
5.148079e+002,1.308510e+002
5.157722e+002,1.343530e+002
5.167364e+002,1.374167e+002
5.177006e+002,1.389003e+002
5.186649e+002,1.382145e+002
5.196291e+002,1.338784e+002
5.205933e+002,1.288984e+002
5.215576e+002,1.255078e+002
5.225218e+002,1.233890e+002
5.234860e+002,1.216074e+002
5.244503e+002,1.193082e+002
5.254145e+002,1.174266e+002
5.263787e+002,1.144497e+002
5.273430e+002,1.092341e+002
5.283072e+002,1.036831e+002
5.292714e+002,1.001106e+002
5.302357e+002,9.796423e+001
5.311999e+002,9.708801e+001
5.321641e+002,9.939282e+001
5.331284e+002,1.028746e+002
5.340926e+002,1.062162e+002
5.350568e+002,1.086849e+002
5.360211e+002,1.084285e+002
5.369853e+002,1.028710e+002
5.379495e+002,9.616565e+001
5.389138e+002,9.144531e+001
5.398780e+002,8.974390e+001
5.408422e+002,8.969556e+001
5.418065e+002,8.781079e+001
5.427707e+002,8.437866e+001
5.437349e+002,8.139453e+001
5.446992e+002,7.928748e+001
5.456634e+002,7.780481e+001
5.466276e+002,7.633447e+001
5.475919e+002,7.593835e+001
5.485561e+002,7.467017e+001
5.495203e+002,7.067493e+001
5.504846e+002,6.576782e+001
5.514488e+002,6.309033e+001
5.524130e+002,6.521509e+001
5.533773e+002,6.754065e+001
5.543415e+002,6.858850e+001
5.553057e+002,6.816663e+001
5.562700e+002,6.495679e+001
5.572342e+002,5.812415e+001
5.581984e+002,5.053186e+001
5.591627e+002,5.080676e+001
5.601269e+002,5.641797e+001
5.610911e+002,6.191980e+001
5.620554e+002,6.438831e+001
5.630196e+002,6.371338e+001
5.639838e+002,6.125488e+001
5.649481e+002,5.562012e+001
5.659123e+002,5.034131e+001
5.668765e+002,4.644775e+001
5.678408e+002,4.428442e+001
5.688050e+002,4.388074e+001
5.697692e+002,4.618384e+001
5.707335e+002,4.666333e+001
5.716977e+002,4.253357e+001
5.726619e+002,3.690759e+001
5.736262e+002,3.423584e+001
5.745904e+002,3.804028e+001
5.755546e+002,4.444177e+001
5.765189e+002,4.733313e+001
5.774831e+002,4.695386e+001
5.784473e+002,4.372864e+001
5.794116e+002,3.828235e+001
5.803758e+002,3.153711e+001
5.813400e+002,2.986865e+001
5.823043e+002,3.391675e+001
5.832685e+002,3.675879e+001
5.842327e+002,3.643298e+001
5.851970e+002,3.380981e+001
5.861612e+002,3.151831e+001
5.871254e+002,2.762097e+001
5.880897e+002,2.572473e+001
5.890539e+002,2.771912e+001
5.900181e+002,3.155273e+001
5.909824e+002,3.422632e+001
5.919466e+002,3.421948e+001
5.929108e+002,3.220483e+001
5.938751e+002,2.816675e+001
5.948393e+002,2.339624e+001
5.958035e+002,2.022937e+001
5.967678e+002,2.042175e+001
5.977320e+002,2.359229e+001
5.986962e+002,2.443237e+001
5.996605e+002,2.225110e+001
6.006247e+002,1.958911e+001
6.015889e+002,1.708813e+001
6.025532e+002,1.493738e+001
6.035174e+002,1.451990e+001
6.044816e+002,1.919592e+001
6.054459e+002,2.224878e+001
6.064101e+002,2.213916e+001
6.073743e+002,1.975867e+001
6.083386e+002,1.669104e+001
6.093028e+002,1.317529e+001
6.102670e+002,1.085083e+001
6.112313e+002,1.123218e+001
6.121955e+002,1.290552e+001
6.131597e+002,1.365674e+001
6.141240e+002,1.201575e+001
6.150882e+002,9.129517e+000
6.160524e+002,1.160376e+001
6.170167e+002,1.877087e+001
6.179809e+002,2.487195e+001
6.189451e+002,2.685059e+001
6.199094e+002,2.482495e+001
6.208736e+002,2.232483e+001
6.218378e+002,1.944910e+001
6.228021e+002,1.746716e+001
6.237663e+002,1.679419e+001
6.247305e+002,1.723767e+001
6.256948e+002,1.836768e+001
6.266590e+002,1.991724e+001
6.276232e+002,2.060938e+001
6.285875e+002,2.022302e+001
6.295517e+002,1.955566e+001
6.305159e+002,1.939636e+001
6.314802e+002,1.991357e+001
6.324444e+002,2.008020e+001
6.334086e+002,1.716174e+001
6.343729e+002,1.270886e+001
6.353371e+002,9.286987e+000
6.363013e+002,7.661743e+000
6.372656e+002,7.287598e+000
6.382298e+002,6.825806e+000
6.391940e+002,6.378418e+000
6.401583e+002,5.093994e+000
6.411225e+002,3.291382e+000
6.420867e+002,1.917847e+000
6.430510e+002,1.933716e+000
6.440152e+002,3.716919e+000
6.449794e+002,3.817505e+000
6.459437e+002,-4.771729e-001
6.469079e+002,-6.048462e+000
6.478721e+002,-1.067505e+001
6.488364e+002,-1.326904e+001
6.498006e+002,-1.403381e+001
6.507648e+002,-1.311218e+001
6.517291e+002,-1.117346e+001
6.526933e+002,-9.158081e+000
6.536575e+002,-7.255493e+000
6.546218e+002,-5.583618e+000
6.555860e+002,-4.279053e+000
6.565502e+002,-3.260254e+000
6.575145e+002,-3.255615e+000
6.584787e+002,-5.079468e+000
6.594429e+002,-7.024048e+000
6.604072e+002,-7.571289e+000
6.613714e+002,-6.348389e+000
6.623356e+002,-5.212280e+000
6.632999e+002,-6.233887e+000
6.642641e+002,-7.447754e+000
6.652283e+002,-6.585693e+000
6.661926e+002,-3.833618e+000
6.671568e+002,-1.518555e+000
6.681210e+002,-3.119263e+000
6.690853e+002,-7.601563e+000
6.700495e+002,-1.175757e+001
6.710137e+002,-1.529004e+001
6.719780e+002,-1.631677e+001
6.729422e+002,-1.249634e+001
6.739064e+002,-2.574097e+000
6.748707e+002,2.871704e+000
6.758349e+002,2.644531e+000
6.767991e+002,5.590820e-001
6.777634e+002,-2.411987e+000
6.787276e+002,-5.422852e+000
6.796918e+002,-6.088989e+000
6.806561e+002,-1.607178e+000
6.816203e+002,1.999634e+000
6.825845e+002,2.193604e+000
6.835488e+002,1.110840e-002
6.845130e+002,-2.886108e+000
6.854772e+002,-5.337891e+000
6.864415e+002,-6.289917e+000
6.874057e+002,-4.161987e+000
6.883699e+002,-5.357666e-001
6.893342e+002,2.638916e+000
6.902984e+002,4.545044e+000
6.912626e+002,5.335571e+000
6.922269e+002,4.645142e+000
6.931911e+002,1.893555e+000
6.941553e+002,3.897705e-001
6.951196e+002,-8.752441e-002
6.960838e+002,-2.210693e-001
6.970480e+002,-5.075684e-001
6.980123e+002,-7.032471e-001
6.989765e+002,-9.814453e-001
6.999407e+002,-1.897949e+000
7.009050e+002,-2.816528e+000
7.018692e+002,-3.229614e+000
7.028334e+002,-3.064453e+000
7.037977e+002,-2.743286e+000
7.047619e+002,-2.276001e+000
7.057261e+002,-1.508911e+000
7.066904e+002,-1.316162e+000
7.076546e+002,-1.885620e+000
7.086188e+002,-2.750732e+000
7.095831e+002,-3.213867e+000
7.105473e+002,-3.569580e+000
7.115115e+002,-3.648438e+000
7.124758e+002,-3.858276e+000
7.134400e+002,-3.906494e+000
7.144042e+002,-2.864014e+000
7.153685e+002,-5.511475e-001
7.163327e+002,8.992920e-001
7.172969e+002,-6.940918e-001
7.182612e+002,-2.126587e+000
7.192254e+002,-1.727417e+000
7.201896e+002,-4.985352e-001
7.211539e+002,-5.693359e-001
7.221181e+002,-3.774902e+000
7.230823e+002,-8.791260e+000
7.240466e+002,-1.261389e+001
7.250108e+002,-1.471716e+001
7.259750e+002,-1.415039e+001
7.269393e+002,-1.055933e+001
7.279035e+002,-5.165161e+000
7.288677e+002,-2.412354e+000
7.298320e+002,-1.730957e+000
7.307962e+002,-1.929688e+000
7.317604e+002,-4.661987e+000
7.327247e+002,-7.400269e+000
7.336889e+002,-6.718018e+000
7.346531e+002,-1.710571e+000
7.356174e+002,2.303467e+000
7.365816e+002,4.295166e+000
7.375458e+002,5.308228e+000
7.385101e+002,5.864990e+000
7.394743e+002,6.131104e+000
7.404385e+002,5.821411e+000
7.414028e+002,3.822998e+000
7.423670e+002,-5.786133e-001
7.433312e+002,-4.083374e+000
7.442955e+002,-5.457031e+000
7.452597e+002,-5.007324e+000
7.462239e+002,-3.342163e+000
7.471882e+002,-2.709961e-001
7.481524e+002,1.697876e+000
7.491166e+002,6.561279e-001
7.500809e+002,-1.025024e+000
7.510451e+002,-2.639648e+000
7.520093e+002,-4.099365e+000
7.529736e+002,-5.468384e+000
7.539378e+002,-6.394775e+000
7.549020e+002,-5.888062e+000
7.558663e+002,-3.175537e+000
7.568306e+002,8.125000e-001
7.577948e+002,5.090454e+000
7.587590e+002,8.707520e+000
7.597233e+002,1.070020e+001
7.606875e+002,8.370361e+000
7.616517e+002,2.849365e+000
7.626160e+002,-2.851563e-001
7.635802e+002,1.327759e+000
7.645444e+002,5.417847e+000
7.655087e+002,6.933716e+000
7.664729e+002,3.970215e+000
7.674371e+002,2.014160e+000
7.684014e+002,3.337402e-001
7.693656e+002,3.004150e-001
7.703298e+002,4.253662e+000
7.712941e+002,1.187598e+001
7.722583e+002,1.816321e+001
7.732225e+002,1.837158e+001
7.741868e+002,1.652808e+001
7.751510e+002,1.517749e+001
7.761152e+002,1.463086e+001
7.770795e+002,1.474988e+001
7.780437e+002,1.533289e+001
7.790079e+002,1.610339e+001
7.799722e+002,1.633008e+001
7.809364e+002,1.609827e+001
7.819006e+002,1.526538e+001
7.828649e+002,1.418445e+001
7.838291e+002,1.316772e+001
7.847933e+002,1.194604e+001
7.857576e+002,8.512695e+000
7.867218e+002,6.424805e+000
7.876860e+002,8.512817e+000
7.886503e+002,1.168884e+001
7.896145e+002,1.317444e+001
7.905787e+002,1.229285e+001
7.915430e+002,1.106836e+001
7.925072e+002,1.092175e+001
7.934714e+002,1.092676e+001
7.944357e+002,1.107922e+001
7.953999e+002,1.171167e+001
7.963641e+002,1.283752e+001
7.973284e+002,1.423914e+001
7.982926e+002,1.596936e+001
7.992568e+002,1.695459e+001
8.002211e+002,1.563684e+001
8.011853e+002,1.341333e+001
8.021495e+002,1.209399e+001
8.031138e+002,1.220471e+001
8.040780e+002,1.236084e+001
8.050422e+002,1.048804e+001
8.060065e+002,9.739014e+000
8.069707e+002,1.143213e+001
8.079349e+002,1.355847e+001
8.088992e+002,1.412732e+001
8.098634e+002,1.287061e+001
8.108276e+002,1.210242e+001
8.117919e+002,1.617859e+001
8.127561e+002,2.089795e+001
8.137203e+002,1.882666e+001
8.146846e+002,1.000464e+001
8.156488e+002,7.014160e-001
8.166130e+002,-1.687500e+000
8.175773e+002,4.067749e+000
8.185415e+002,8.227905e+000
8.195057e+002,7.918335e+000
8.204700e+002,8.541138e+000
8.214342e+002,1.287231e+001
8.223984e+002,1.953735e+001
8.233627e+002,2.509790e+001
8.243269e+002,2.946985e+001
8.252911e+002,3.060596e+001
8.262554e+002,2.486633e+001
8.272196e+002,1.750562e+001
8.281838e+002,1.447729e+001
8.291481e+002,1.750220e+001
8.301123e+002,2.272754e+001
8.310765e+002,2.325647e+001
8.320408e+002,1.929272e+001
8.330050e+002,1.734509e+001
8.339692e+002,1.834192e+001
8.349335e+002,2.007349e+001
8.358977e+002,2.046204e+001
8.368619e+002,1.965039e+001
8.378262e+002,1.940173e+001
8.387904e+002,1.908118e+001
8.397546e+002,1.900989e+001
8.407189e+002,1.911279e+001
8.416831e+002,1.969971e+001
8.426473e+002,2.170544e+001
8.436116e+002,2.610632e+001
8.445758e+002,3.006189e+001
8.455400e+002,2.806567e+001
8.465043e+002,2.372705e+001
8.474685e+002,2.261292e+001
8.484327e+002,2.642322e+001
8.493970e+002,3.228381e+001
8.503612e+002,3.449426e+001
8.513254e+002,3.199194e+001
8.522897e+002,3.025403e+001
8.532539e+002,2.878345e+001
8.542181e+002,2.768188e+001
8.551824e+002,2.727258e+001
8.561466e+002,2.836536e+001
8.571108e+002,3.236035e+001
8.580751e+002,4.074670e+001
8.590393e+002,4.706348e+001
8.600035e+002,4.980957e+001
8.609678e+002,5.045557e+001
8.619320e+002,4.969092e+001
8.628962e+002,4.800769e+001
8.638605e+002,4.726526e+001
8.648247e+002,5.165161e+001
8.657889e+002,5.870044e+001
8.667532e+002,6.368176e+001
8.677174e+002,6.595532e+001
8.686816e+002,6.611609e+001
8.696459e+002,6.451770e+001
8.706101e+002,6.090820e+001
8.715743e+002,6.045972e+001
8.725386e+002,6.563074e+001
8.735028e+002,7.063647e+001
8.744670e+002,7.242896e+001
8.754313e+002,7.249390e+001
8.763955e+002,7.479724e+001
8.773597e+002,8.175244e+001
8.783240e+002,8.848193e+001
8.792882e+002,9.108557e+001
8.802524e+002,9.157690e+001
8.812167e+002,9.148694e+001
8.821809e+002,9.129590e+001
8.831451e+002,9.063074e+001
8.841094e+002,8.898584e+001
8.850736e+002,8.707019e+001
8.860378e+002,8.833313e+001
8.870021e+002,9.293115e+001
8.879663e+002,9.798926e+001
8.889305e+002,1.017240e+002
8.898948e+002,1.041833e+002
8.908590e+002,1.068472e+002
8.918232e+002,1.119025e+002
8.927875e+002,1.145844e+002
8.937517e+002,1.110450e+002
8.947159e+002,1.071301e+002
8.956802e+002,1.077954e+002
8.966444e+002,1.133984e+002
8.976086e+002,1.197230e+002
8.985729e+002,1.235950e+002
8.995371e+002,1.259928e+002
9.005013e+002,1.281537e+002
9.014656e+002,1.302789e+002
9.024298e+002,1.314978e+002
9.033940e+002,1.305020e+002
9.043583e+002,1.273187e+002
9.053225e+002,1.265405e+002
9.062867e+002,1.312354e+002
9.072510e+002,1.333683e+002
9.082152e+002,1.325726e+002
9.091794e+002,1.308047e+002
9.101437e+002,1.294105e+002
9.111079e+002,1.285172e+002
9.120721e+002,1.284362e+002
9.130364e+002,1.290271e+002
9.140006e+002,1.296364e+002
9.149648e+002,1.313491e+002
9.159291e+002,1.336167e+002
9.168933e+002,1.344541e+002
9.178575e+002,1.322068e+002
9.188218e+002,1.277754e+002
9.197860e+002,1.255715e+002
9.207502e+002,1.253248e+002
9.217145e+002,1.244866e+002
9.226787e+002,1.232513e+002
9.236429e+002,1.222391e+002
9.246072e+002,1.217408e+002
9.255714e+002,1.214135e+002
9.265356e+002,1.206307e+002
9.274999e+002,1.185699e+002
9.284641e+002,1.162262e+002
9.294283e+002,1.138539e+002
9.303926e+002,1.119913e+002
9.313568e+002,1.116895e+002
9.323210e+002,1.135907e+002
9.332853e+002,1.153208e+002
9.342495e+002,1.123169e+002
9.352137e+002,1.065294e+002
9.361780e+002,1.010234e+002
9.371422e+002,9.699023e+001
9.381064e+002,9.410059e+001
9.390707e+002,9.103040e+001
9.400349e+002,8.648303e+001
9.409991e+002,8.583411e+001
9.419634e+002,9.351941e+001
9.429276e+002,9.855652e+001
9.438918e+002,9.635754e+001
9.448561e+002,9.054370e+001
9.458203e+002,8.757275e+001
9.467845e+002,8.988098e+001
9.477488e+002,9.278296e+001
9.487130e+002,9.140845e+001
9.496772e+002,8.977454e+001
9.506415e+002,9.197034e+001
9.516057e+002,9.745605e+001
9.525699e+002,1.024120e+002
9.535342e+002,1.030316e+002
9.544984e+002,9.948071e+001
9.554626e+002,9.479932e+001
9.564269e+002,8.893823e+001
9.573911e+002,8.636682e+001
9.583553e+002,9.065112e+001
9.593196e+002,9.748181e+001
9.602838e+002,9.958203e+001
9.612480e+002,9.536426e+001
9.622123e+002,9.088269e+001
9.631765e+002,8.678284e+001
9.641407e+002,8.434338e+001
9.651050e+002,8.587061e+001
9.660692e+002,8.890076e+001
9.670334e+002,8.828857e+001
9.679977e+002,8.106726e+001
9.689619e+002,7.243164e+001
9.699261e+002,7.314429e+001
9.708904e+002,8.010986e+001
9.718546e+002,8.738501e+001
9.728188e+002,9.360779e+001
9.737831e+002,9.894421e+001
9.747473e+002,1.036036e+002
9.757115e+002,1.074280e+002
9.766758e+002,1.127745e+002
9.776400e+002,1.252467e+002
9.786042e+002,1.335240e+002
9.795685e+002,1.332317e+002
9.805327e+002,1.269120e+002
9.814969e+002,1.178966e+002
9.824612e+002,1.077020e+002
9.834254e+002,9.798547e+001
9.843896e+002,8.803833e+001
9.853539e+002,7.979944e+001
9.863181e+002,7.678687e+001
9.872823e+002,7.795776e+001
9.882466e+002,7.961987e+001
9.892108e+002,7.934753e+001
9.901750e+002,7.822009e+001
9.911393e+002,7.735876e+001
9.921035e+002,7.363770e+001
9.930677e+002,7.169910e+001
9.940320e+002,7.292102e+001
9.949962e+002,7.639502e+001
9.959604e+002,8.154822e+001
9.969247e+002,8.837927e+001
9.978889e+002,9.642969e+001
9.988531e+002,1.062329e+002
9.998174e+002,1.141100e+002
1.000782e+003,1.183920e+002
1.001746e+003,1.204315e+002
1.002710e+003,1.219901e+002
1.003674e+003,1.237048e+002
1.004639e+003,1.245123e+002
1.005603e+003,1.222513e+002
1.006567e+003,1.163181e+002
1.007531e+003,1.143845e+002
1.008495e+003,1.181497e+002
1.009460e+003,1.224849e+002
1.010424e+003,1.250315e+002
1.011388e+003,1.260360e+002
1.012352e+003,1.257996e+002
1.013317e+003,1.240065e+002
1.014281e+003,1.205859e+002
1.015245e+003,1.150022e+002
1.016209e+003,1.080905e+002
1.017174e+003,1.000250e+002
1.018138e+003,9.145251e+001
1.019102e+003,8.369202e+001
1.020066e+003,7.813928e+001
1.021031e+003,7.404492e+001
1.021995e+003,6.754810e+001
1.022959e+003,5.858801e+001
1.023923e+003,5.016040e+001
1.024887e+003,4.301013e+001
1.025852e+003,3.692383e+001
1.026816e+003,3.162573e+001
1.027780e+003,2.731970e+001
1.028744e+003,2.540027e+001
1.029709e+003,2.919446e+001
1.030673e+003,3.130151e+001
1.031637e+003,2.761121e+001
1.032601e+003,2.128772e+001
1.033566e+003,1.753210e+001
1.034530e+003,1.826868e+001
1.035494e+003,1.971350e+001
1.036458e+003,1.684485e+001
1.037422e+003,1.195325e+001
1.038387e+003,8.597412e+000
1.039351e+003,6.932617e+000
1.040315e+003,7.555908e+000
1.041279e+003,1.155762e+001
1.042244e+003,1.814685e+001
1.043208e+003,2.198267e+001
1.044172e+003,2.024402e+001
1.045136e+003,1.905139e+001
1.046101e+003,1.914172e+001
1.047065e+003,1.980627e+001
1.048029e+003,2.085217e+001
1.048993e+003,2.181580e+001
1.049958e+003,2.169250e+001
1.050922e+003,1.985767e+001
1.051886e+003,1.836255e+001
1.052850e+003,1.901868e+001
1.053814e+003,2.106665e+001
1.054779e+003,2.417859e+001
1.055743e+003,2.788013e+001
1.056707e+003,3.074854e+001
1.057671e+003,3.101196e+001
1.058636e+003,2.851538e+001
1.059600e+003,2.734119e+001
1.060564e+003,3.029163e+001
1.061528e+003,3.209021e+001
1.062493e+003,3.006799e+001
1.063457e+003,2.660950e+001
1.064421e+003,2.512024e+001
1.065385e+003,2.618555e+001
1.066349e+003,2.662549e+001
1.067314e+003,2.460278e+001
1.068278e+003,2.172217e+001
1.069242e+003,1.844153e+001
1.070206e+003,1.570740e+001
1.071171e+003,1.484436e+001
1.072135e+003,1.600183e+001
1.073099e+003,1.772900e+001
1.074063e+003,1.808521e+001
1.075028e+003,1.716565e+001
1.075992e+003,1.674988e+001
1.076956e+003,1.723865e+001
1.077920e+003,1.647900e+001
1.078885e+003,1.290247e+001
1.079849e+003,8.710327e+000
1.080813e+003,7.965820e+000
1.081777e+003,1.193982e+001
1.082741e+003,1.585474e+001
1.083706e+003,1.514063e+001
1.084670e+003,1.429480e+001
1.085634e+003,1.714294e+001
1.086598e+003,2.159802e+001
1.087563e+003,2.310376e+001
1.088527e+003,1.961682e+001
1.089491e+003,1.435571e+001
1.090455e+003,1.262720e+001
1.091420e+003,1.439124e+001
1.092384e+003,1.726721e+001
1.093348e+003,2.244336e+001
1.094312e+003,2.567737e+001
1.095276e+003,2.404309e+001
1.096241e+003,1.936829e+001
1.097205e+003,1.611438e+001
1.098169e+003,1.473010e+001
1.099133e+003,1.341528e+001
1.100098e+003,1.158887e+001
1.101062e+003,1.009192e+001
1.102026e+003,9.058228e+000
1.102990e+003,8.924194e+000
1.103955e+003,1.060217e+001
1.104919e+003,1.447510e+001
1.105883e+003,1.898560e+001
1.106847e+003,2.116431e+001
1.107812e+003,2.079211e+001
1.108776e+003,1.987891e+001
1.109740e+003,1.810425e+001
1.110704e+003,1.664465e+001
1.111668e+003,1.696118e+001
1.112633e+003,1.909302e+001
1.113597e+003,2.148608e+001
1.114561e+003,2.357263e+001
1.115525e+003,2.564563e+001
1.116490e+003,2.770349e+001
1.117454e+003,2.967981e+001
1.118418e+003,3.230029e+001
1.119382e+003,3.547693e+001
1.120347e+003,3.808008e+001
1.121311e+003,3.892322e+001
1.122275e+003,3.827917e+001
1.123239e+003,3.833020e+001
1.124203e+003,3.985205e+001
1.125168e+003,4.191614e+001
1.126132e+003,4.490881e+001
1.127096e+003,4.781543e+001
1.128060e+003,4.882813e+001
1.129025e+003,4.844092e+001
1.129989e+003,5.037488e+001
1.130953e+003,5.601172e+001
1.131917e+003,6.070667e+001
1.132882e+003,6.241089e+001
1.133846e+003,6.424463e+001
1.134810e+003,6.799609e+001
1.135774e+003,7.361804e+001
1.136739e+003,8.038708e+001
1.137703e+003,8.781702e+001
1.138667e+003,9.553113e+001
1.139631e+003,1.027574e+002
1.140595e+003,1.096859e+002
1.141560e+003,1.187478e+002
1.142524e+003,1.305515e+002
1.143488e+003,1.446064e+002
1.144452e+003,1.599821e+002
1.145417e+003,1.770814e+002
1.146381e+003,1.977438e+002
1.147345e+003,2.228911e+002
1.148309e+003,2.486805e+002
1.149274e+003,2.748397e+002
1.150238e+003,3.013124e+002
1.151202e+003,3.285414e+002
1.152166e+003,3.566118e+002
1.153130e+003,3.865677e+002
1.154095e+003,4.178196e+002
1.155059e+003,4.447997e+002
1.156023e+003,4.605697e+002
1.156987e+003,4.654111e+002
1.157952e+003,4.656840e+002
1.158916e+003,4.631407e+002
1.159880e+003,4.541444e+002
1.160844e+003,4.331654e+002
1.161809e+003,4.031935e+002
1.162773e+003,3.725255e+002
1.163737e+003,3.410979e+002
1.164701e+003,3.098284e+002
1.165666e+003,2.772860e+002
1.166630e+003,2.477125e+002
1.167594e+003,2.217183e+002
1.168558e+003,1.999357e+002
1.169522e+003,1.828268e+002
1.170487e+003,1.706847e+002
1.171451e+003,1.647629e+002
1.172415e+003,1.672235e+002
1.173379e+003,1.757871e+002
1.174344e+003,1.792932e+002
1.175308e+003,1.780431e+002
1.176272e+003,1.753956e+002
1.177236e+003,1.728953e+002
1.178201e+003,1.696033e+002
1.179165e+003,1.635137e+002
1.180129e+003,1.541045e+002
1.181093e+003,1.441288e+002
1.182057e+003,1.329565e+002
1.183022e+003,1.238693e+002
1.183986e+003,1.187759e+002
1.184950e+003,1.156074e+002
1.185914e+003,1.119216e+002
1.186879e+003,1.081401e+002
1.187843e+003,1.074503e+002
1.188807e+003,1.123618e+002
1.189771e+003,1.202849e+002
1.190736e+003,1.241418e+002
1.191700e+003,1.234456e+002
1.192664e+003,1.225468e+002
1.193628e+003,1.229614e+002
1.194593e+003,1.225374e+002
1.195557e+003,1.194030e+002
1.196521e+003,1.139534e+002
1.197485e+003,1.078479e+002
1.198449e+003,1.013945e+002
1.199414e+003,9.448340e+001
1.200378e+003,8.569397e+001
1.201342e+003,7.777295e+001
1.202306e+003,7.295618e+001
1.203271e+003,6.998816e+001
1.204235e+003,6.622913e+001
1.205199e+003,6.054980e+001
1.206163e+003,5.431348e+001
1.207128e+003,4.969995e+001
1.208092e+003,4.690161e+001
1.209056e+003,4.285583e+001
1.210020e+003,3.676709e+001
1.210984e+003,3.132568e+001
1.211949e+003,2.908704e+001
1.212913e+003,2.651587e+001
1.213877e+003,1.801709e+001
1.214841e+003,3.676636e+000
1.215806e+003,-8.115356e+000
1.216770e+003,-1.345862e+001
1.217734e+003,-1.670996e+001
1.218698e+003,-2.142554e+001
1.219663e+003,-2.646313e+001
1.220627e+003,-3.012085e+001
1.221591e+003,-3.222925e+001
1.222555e+003,-3.400378e+001
1.223520e+003,-3.647693e+001
1.224484e+003,-3.915857e+001
1.225448e+003,-4.085693e+001
1.226412e+003,-4.148730e+001
1.227376e+003,-4.142969e+001
1.228341e+003,-4.048962e+001
1.229305e+003,-3.951770e+001
1.230269e+003,-3.876611e+001
1.231233e+003,-3.843750e+001
1.232198e+003,-3.915417e+001
1.233162e+003,-4.094629e+001
1.234126e+003,-4.100220e+001
1.235090e+003,-3.541638e+001
1.236055e+003,-2.977600e+001
1.237019e+003,-3.055908e+001
1.237983e+003,-3.622217e+001
1.238947e+003,-4.227332e+001
1.239911e+003,-4.651587e+001
1.240876e+003,-4.880322e+001
1.241840e+003,-4.909424e+001
1.242804e+003,-4.728137e+001
1.243768e+003,-4.496033e+001
1.244733e+003,-4.206274e+001
1.245697e+003,-3.860693e+001
1.246661e+003,-3.387231e+001
1.247625e+003,-3.028052e+001
1.248590e+003,-2.948047e+001
1.249554e+003,-3.071545e+001
1.250518e+003,-3.270276e+001
1.251482e+003,-3.536597e+001
1.252447e+003,-3.718787e+001
1.253411e+003,-3.532910e+001
1.254375e+003,-3.084058e+001
1.255339e+003,-2.627905e+001
1.256303e+003,-2.156409e+001
1.257268e+003,-1.700708e+001
1.258232e+003,-1.332642e+001
1.259196e+003,-1.054529e+001
1.260160e+003,-7.720337e+000
1.261125e+003,-4.259155e+000
1.262089e+003,-1.295898e+000
1.263053e+003,-1.303833e+000
1.264017e+003,6.933594e-002
1.264982e+003,5.717407e+000
1.265946e+003,1.224475e+001
1.266910e+003,1.685913e+001
1.267874e+003,1.908704e+001
1.268839e+003,2.008069e+001
1.269803e+003,2.066284e+001
1.270767e+003,1.930066e+001
1.271731e+003,1.196265e+001
1.272695e+003,-7.625732e-001
1.273660e+003,-8.957397e+000
1.274624e+003,-1.193884e+001
1.275588e+003,-1.401172e+001
1.276552e+003,-1.668970e+001
1.277517e+003,-1.929028e+001
1.278481e+003,-2.119470e+001
1.279445e+003,-2.252356e+001
1.280409e+003,-2.366626e+001
1.281374e+003,-2.490015e+001
1.282338e+003,-2.551697e+001
1.283302e+003,-2.407361e+001
1.284266e+003,-2.266748e+001
1.285230e+003,-2.425647e+001
1.286195e+003,-2.875476e+001
1.287159e+003,-3.320593e+001
1.288123e+003,-3.493713e+001
1.289087e+003,-3.462537e+001
1.290052e+003,-3.547217e+001
1.291016e+003,-3.872400e+001
1.291980e+003,-4.007434e+001
1.292944e+003,-3.902429e+001
1.293909e+003,-3.790747e+001
1.294873e+003,-3.676013e+001
1.295837e+003,-3.566846e+001
1.296801e+003,-3.516418e+001
1.297766e+003,-3.522729e+001
1.298730e+003,-3.487488e+001
1.299694e+003,-3.354138e+001
1.300658e+003,-3.258020e+001
1.301622e+003,-3.285559e+001
1.302587e+003,-3.417444e+001
1.303551e+003,-3.729065e+001
1.304515e+003,-4.184277e+001
1.305479e+003,-4.515308e+001
1.306444e+003,-4.534961e+001
1.307408e+003,-4.314941e+001
1.308372e+003,-3.956934e+001
1.309336e+003,-3.292188e+001
1.310301e+003,-3.038989e+001
1.311265e+003,-3.576611e+001
1.312229e+003,-4.029480e+001
1.313193e+003,-4.169397e+001
1.314157e+003,-4.107104e+001
1.315122e+003,-3.909058e+001
1.316086e+003,-3.658691e+001
1.317050e+003,-3.490210e+001
1.318014e+003,-3.468494e+001
1.318979e+003,-3.541577e+001
1.319943e+003,-3.719580e+001
1.320907e+003,-3.936353e+001
1.321871e+003,-3.829919e+001
1.322836e+003,-3.347156e+001
1.323800e+003,-2.942944e+001
1.324764e+003,-2.906750e+001
1.325728e+003,-3.051758e+001
1.326693e+003,-3.053357e+001
1.327657e+003,-2.928052e+001
1.328621e+003,-2.998547e+001
1.329585e+003,-3.400171e+001
1.330549e+003,-3.609277e+001
1.331514e+003,-3.362915e+001
1.332478e+003,-3.054211e+001
1.333442e+003,-3.048254e+001
1.334406e+003,-3.279443e+001
1.335371e+003,-3.433118e+001
1.336335e+003,-3.322327e+001
1.337299e+003,-3.079065e+001
1.338263e+003,-2.975671e+001
1.339228e+003,-3.033594e+001
1.340192e+003,-3.004773e+001
1.341156e+003,-2.711230e+001
1.342120e+003,-2.601477e+001
1.343084e+003,-2.997766e+001
1.344049e+003,-3.466541e+001
1.345013e+003,-3.610706e+001
1.345977e+003,-3.439209e+001
1.346941e+003,-3.121985e+001
1.347906e+003,-2.710571e+001
1.348870e+003,-2.385657e+001
1.349834e+003,-2.404431e+001
1.350798e+003,-2.594727e+001
1.351763e+003,-2.508875e+001
1.352727e+003,-2.194446e+001
1.353691e+003,-2.044104e+001
1.354655e+003,-2.224756e+001
1.355620e+003,-2.498560e+001
1.356584e+003,-2.582837e+001
1.357548e+003,-2.479309e+001
1.358512e+003,-2.354602e+001
1.359476e+003,-2.248108e+001
1.360441e+003,-2.223767e+001
1.361405e+003,-2.278809e+001
1.362369e+003,-2.377161e+001
1.363333e+003,-2.548169e+001
1.364298e+003,-2.724829e+001
1.365262e+003,-2.825134e+001
1.366226e+003,-2.826111e+001
1.367190e+003,-2.736267e+001
1.368155e+003,-2.559192e+001
1.369119e+003,-2.356531e+001
1.370083e+003,-2.325732e+001
1.371047e+003,-2.518225e+001
1.372011e+003,-2.525757e+001
1.372976e+003,-2.298779e+001
1.373940e+003,-2.082727e+001
1.374904e+003,-1.896875e+001
1.375868e+003,-1.767566e+001
1.376833e+003,-1.784192e+001
1.377797e+003,-1.941394e+001
1.378761e+003,-2.098047e+001
1.379725e+003,-2.200073e+001
1.380690e+003,-2.214746e+001
1.381654e+003,-1.989038e+001
1.382618e+003,-1.690015e+001
1.383582e+003,-1.601440e+001
1.384547e+003,-1.706580e+001
1.385511e+003,-1.774182e+001
1.386475e+003,-1.723962e+001
1.387439e+003,-1.553674e+001
1.388403e+003,-1.120264e+001
1.389368e+003,-4.320557e+000
1.390332e+003,-2.752930e+000
1.391296e+003,-9.773804e+000
1.392260e+003,-1.518896e+001
1.393225e+003,-1.645117e+001
1.394189e+003,-1.626025e+001
1.395153e+003,-1.511499e+001
1.396117e+003,-1.392236e+001
1.397082e+003,-1.370984e+001
1.398046e+003,-1.457349e+001
1.399010e+003,-1.588879e+001
1.399974e+003,-1.743567e+001
1.400938e+003,-1.959082e+001
1.401903e+003,-2.185645e+001
1.402867e+003,-2.321497e+001
1.403831e+003,-2.189319e+001
1.404795e+003,-1.744739e+001
1.405760e+003,-1.246460e+001
1.406724e+003,-6.667358e+000
1.407688e+003,-3.448853e+000
1.408652e+003,-7.685303e+000
1.409617e+003,-1.727954e+001
1.410581e+003,-2.304224e+001
1.411545e+003,-2.097900e+001
1.412509e+003,-1.647351e+001
1.413474e+003,-1.436829e+001
1.414438e+003,-1.425696e+001
1.415402e+003,-1.466479e+001
1.416366e+003,-1.494678e+001
1.417330e+003,-1.432056e+001
1.418295e+003,-1.229199e+001
1.419259e+003,-9.923218e+000
1.420223e+003,-8.938965e+000
1.421187e+003,-9.369141e+000
1.422152e+003,-9.208618e+000
1.423116e+003,-7.731445e+000
1.424080e+003,-5.796753e+000
1.425044e+003,-3.768677e+000
1.426009e+003,-2.322632e+000
1.426973e+003,-2.535400e+000
1.427937e+003,-3.071899e+000
1.428901e+003,-1.370972e+000
1.429865e+003,2.238647e+000
1.430830e+003,4.232178e+000
1.431794e+003,2.088501e+000
1.432758e+003,-2.045410e+000
1.433722e+003,-3.250977e+000
1.434687e+003,-6.033936e-001
1.435651e+003,3.680786e+000
1.436615e+003,1.030298e+001
1.437579e+003,1.368481e+001
1.438544e+003,1.123291e+001
1.439508e+003,8.043579e+000
1.440472e+003,7.977173e+000
1.441436e+003,1.022461e+001
1.442401e+003,1.241370e+001
1.443365e+003,1.371069e+001
1.444329e+003,1.455713e+001
1.445293e+003,1.553894e+001
1.446257e+003,1.623071e+001
1.447222e+003,1.485596e+001
1.448186e+003,1.191260e+001
1.449150e+003,1.095081e+001
1.450114e+003,1.269141e+001
1.451079e+003,1.388782e+001
1.452043e+003,1.261902e+001
1.453007e+003,1.083765e+001
1.453971e+003,1.105164e+001
1.454936e+003,1.276624e+001
1.455900e+003,1.363574e+001
1.456864e+003,1.315710e+001
1.457828e+003,1.299365e+001
1.458792e+003,1.499756e+001
1.459757e+003,1.610168e+001
1.460721e+003,1.221936e+001
1.461685e+003,5.958984e+000
1.462649e+003,2.933350e+000
1.463614e+003,4.733398e+000
1.464578e+003,8.753174e+000
1.465542e+003,1.293250e+001
1.466506e+003,1.639844e+001
1.467471e+003,1.681384e+001
1.468435e+003,1.394788e+001
1.469399e+003,1.258606e+001
1.470363e+003,1.387195e+001
1.471328e+003,1.395642e+001
1.472292e+003,9.290283e+000
1.473256e+003,4.641235e+000
1.474220e+003,4.687622e+000
1.475184e+003,8.302368e+000
1.476149e+003,1.240613e+001
1.477113e+003,1.526587e+001
1.478077e+003,1.630176e+001
1.479041e+003,1.529431e+001
1.480006e+003,1.354956e+001
1.480970e+003,1.430066e+001
1.481934e+003,1.769507e+001
1.482898e+003,2.048511e+001
1.483863e+003,2.245422e+001
1.484827e+003,2.392114e+001
1.485791e+003,2.434033e+001
1.486755e+003,2.577185e+001
1.487719e+003,3.095410e+001
1.488684e+003,3.800134e+001
1.489648e+003,4.179382e+001
1.490612e+003,4.110864e+001
1.491576e+003,4.114417e+001
1.492541e+003,4.622461e+001
1.493505e+003,5.385913e+001
1.494469e+003,5.843115e+001
1.495433e+003,6.001074e+001
1.496398e+003,6.292822e+001
1.497362e+003,6.873560e+001
1.498326e+003,7.561218e+001
1.499290e+003,8.233923e+001
1.500255e+003,8.959058e+001
1.501219e+003,9.791309e+001
1.502183e+003,1.072256e+002
1.503147e+003,1.172926e+002
1.504111e+003,1.274484e+002
1.505076e+003,1.417538e+002
1.506040e+003,1.661068e+002
1.507004e+003,1.922203e+002
1.507968e+003,2.089602e+002
1.508933e+003,2.220094e+002
1.509897e+003,2.436785e+002
1.510861e+003,2.769244e+002
1.511825e+003,3.150653e+002
1.512790e+003,3.533569e+002
1.513754e+003,3.919583e+002
1.514718e+003,4.319672e+002
1.515682e+003,4.728120e+002
1.516646e+003,5.152274e+002
1.517611e+003,5.621328e+002
1.518575e+003,6.053595e+002
1.519539e+003,6.465206e+002
1.520503e+003,6.801891e+002
1.521468e+003,7.015850e+002
1.522432e+003,7.139999e+002
1.523396e+003,7.232561e+002
1.524360e+003,7.290587e+002
1.525325e+003,7.253168e+002
1.526289e+003,7.081631e+002
1.527253e+003,6.826305e+002
1.528217e+003,6.578101e+002
1.529182e+003,6.343236e+002
1.530146e+003,6.007908e+002
1.531110e+003,5.511285e+002
1.532074e+003,5.012789e+002
1.533039e+003,4.524286e+002
1.534003e+003,4.011476e+002
1.534967e+003,3.428312e+002
1.535931e+003,2.858208e+002
1.536896e+003,2.387754e+002
1.537860e+003,2.023057e+002
1.538824e+003,1.723842e+002
1.539788e+003,1.464701e+002
1.540752e+003,1.242030e+002
1.541717e+003,1.053295e+002
1.542681e+003,9.050220e+001
1.543645e+003,8.169043e+001
1.544609e+003,8.322961e+001
1.545573e+003,8.140698e+001
1.546538e+003,7.143909e+001
1.547502e+003,6.280933e+001
1.548466e+003,5.947144e+001
1.549430e+003,6.012732e+001
1.550395e+003,6.499585e+001
1.551359e+003,7.153748e+001
1.552323e+003,7.483032e+001
1.553287e+003,7.317102e+001
1.554252e+003,6.709192e+001
1.555216e+003,5.601282e+001
1.556180e+003,4.337439e+001
1.557144e+003,3.786328e+001
1.558109e+003,4.003308e+001
1.559073e+003,4.075952e+001
1.560037e+003,3.874609e+001
1.561001e+003,3.573645e+001
1.561966e+003,3.236682e+001
1.562930e+003,2.976160e+001
1.563894e+003,2.789380e+001
1.564858e+003,2.711462e+001
1.565823e+003,2.958606e+001
1.566787e+003,3.529895e+001
1.567751e+003,3.872266e+001
1.568715e+003,3.632739e+001
1.569679e+003,3.244299e+001
1.570644e+003,3.239673e+001
1.571608e+003,3.450671e+001
1.572572e+003,3.477869e+001
1.573536e+003,3.343811e+001
1.574500e+003,3.270410e+001
1.575465e+003,3.299316e+001
1.576429e+003,3.410522e+001
1.577393e+003,3.600464e+001
1.578357e+003,3.818713e+001
1.579322e+003,3.987927e+001
1.580286e+003,4.130652e+001
1.581250e+003,4.412817e+001
1.582214e+003,4.948730e+001
1.583179e+003,5.383118e+001
1.584143e+003,5.354102e+001
1.585107e+003,5.106348e+001
1.586071e+003,5.071741e+001
1.587036e+003,5.225586e+001
1.588000e+003,5.257825e+001
1.588964e+003,5.047095e+001
1.589928e+003,4.898206e+001
1.590893e+003,5.081616e+001
1.591857e+003,5.394495e+001
1.592821e+003,5.543359e+001
1.593785e+003,5.558191e+001
1.594750e+003,5.496216e+001
1.595714e+003,5.284351e+001
1.596678e+003,5.360181e+001
1.597642e+003,6.112439e+001
1.598606e+003,6.906079e+001
1.599571e+003,7.267542e+001
1.600535e+003,7.387231e+001
1.601499e+003,7.398975e+001
1.602463e+003,7.355811e+001
1.603427e+003,7.493774e+001
1.604392e+003,7.950220e+001
1.605356e+003,8.315430e+001
1.606320e+003,8.091296e+001
1.607284e+003,7.489270e+001
1.608249e+003,7.068469e+001
1.609213e+003,6.831982e+001
1.610177e+003,6.799683e+001
1.611141e+003,7.115662e+001
1.612106e+003,7.289050e+001
1.613070e+003,6.909900e+001
1.614034e+003,6.443799e+001
1.614998e+003,6.179883e+001
1.615963e+003,6.086780e+001
1.616927e+003,6.088086e+001
1.617891e+003,6.150940e+001
1.618855e+003,6.272986e+001
1.619820e+003,6.452661e+001
1.620784e+003,6.516028e+001
1.621748e+003,6.235876e+001
1.622712e+003,5.761511e+001
1.623677e+003,5.541113e+001
1.624641e+003,5.605603e+001
1.625605e+003,5.799304e+001
1.626569e+003,5.947925e+001
1.627533e+003,6.177454e+001
1.628498e+003,6.985803e+001
1.629462e+003,7.651709e+001
1.630426e+003,7.249438e+001
1.631390e+003,6.261865e+001
1.632354e+003,5.856055e+001
1.633319e+003,6.274255e+001
1.634283e+003,6.798291e+001
1.635247e+003,6.903870e+001
1.636211e+003,6.755298e+001
1.637176e+003,6.672485e+001
1.638140e+003,6.671643e+001
1.639104e+003,6.603638e+001
1.640068e+003,6.425134e+001
1.641033e+003,6.209851e+001
1.641997e+003,5.804248e+001
1.642961e+003,5.676196e+001
1.643925e+003,6.340857e+001
1.644890e+003,7.126831e+001
1.645854e+003,7.239563e+001
1.646818e+003,6.900928e+001
1.647782e+003,6.917053e+001
1.648747e+003,7.499463e+001
1.649711e+003,7.972021e+001
1.650675e+003,7.769653e+001
1.651639e+003,7.234436e+001
1.652604e+003,6.947095e+001
1.653568e+003,6.875208e+001
1.654532e+003,7.101001e+001
1.655496e+003,7.842505e+001
1.656460e+003,8.108215e+001
1.657425e+003,7.318848e+001
1.658389e+003,6.431750e+001
1.659353e+003,5.874561e+001
1.660317e+003,5.545691e+001
1.661281e+003,5.422156e+001
1.662246e+003,5.396167e+001
1.663210e+003,5.214160e+001
1.664174e+003,4.822900e+001
1.665138e+003,4.542200e+001
1.666103e+003,4.667065e+001
1.667067e+003,4.958899e+001
1.668031e+003,4.950952e+001
1.668995e+003,4.679846e+001
1.669960e+003,4.489758e+001
1.670924e+003,4.427759e+001
1.671888e+003,4.420496e+001
1.672852e+003,4.464136e+001
1.673817e+003,4.468640e+001
1.674781e+003,4.286462e+001
1.675745e+003,4.094641e+001
1.676709e+003,4.161877e+001
1.677674e+003,4.387817e+001
1.678638e+003,4.408923e+001
1.679602e+003,4.115637e+001
1.680566e+003,3.763367e+001
1.681531e+003,3.544250e+001
1.682495e+003,3.461340e+001
1.683459e+003,3.547705e+001
1.684423e+003,3.716699e+001
1.685387e+003,3.544434e+001
1.686352e+003,2.949109e+001
1.687316e+003,2.544849e+001
1.688280e+003,2.599451e+001
1.689244e+003,2.745813e+001
1.690208e+003,2.746509e+001
1.691173e+003,2.643945e+001
1.692137e+003,2.452368e+001
1.693101e+003,2.254285e+001
1.694065e+003,2.177112e+001
1.695030e+003,2.206860e+001
1.695994e+003,2.276038e+001
1.696958e+003,2.436072e+001
1.697922e+003,2.558716e+001
1.698887e+003,2.429492e+001
1.699851e+003,2.153845e+001
1.700815e+003,2.001306e+001
1.701779e+003,1.970740e+001
1.702744e+003,2.014673e+001
1.703708e+003,2.222681e+001
1.704672e+003,2.317078e+001
1.705636e+003,1.870227e+001
1.706601e+003,1.279651e+001
1.707565e+003,1.350549e+001
1.708529e+003,1.878699e+001
1.709493e+003,2.074634e+001
1.710458e+003,1.808276e+001
1.711422e+003,1.512170e+001
1.712386e+003,1.349084e+001
1.713350e+003,1.318115e+001
1.714314e+003,1.434167e+001
1.715279e+003,1.575610e+001
1.716243e+003,1.531470e+001
1.717207e+003,1.359192e+001
1.718171e+003,1.422839e+001
1.719135e+003,1.833533e+001
1.720100e+003,2.131299e+001
1.721064e+003,1.956653e+001
1.722028e+003,1.595190e+001
1.722992e+003,1.545581e+001
1.723957e+003,1.761365e+001
1.724921e+003,1.631213e+001
1.725885e+003,9.992065e+000
1.726849e+003,4.629272e+000
1.727814e+003,2.971924e+000
1.728778e+003,1.892090e+000
1.729742e+003,-1.904297e+000
1.730706e+003,-4.354858e+000
1.731671e+003,-3.203125e-001
1.732635e+003,6.784424e+000
1.733599e+003,1.103174e+001
1.734563e+003,1.173547e+001
1.735528e+003,1.007568e+001
1.736492e+003,6.480713e+000
1.737456e+003,4.360474e+000
1.738420e+003,8.429077e+000
1.739385e+003,1.526257e+001
1.740349e+003,1.312646e+001
1.741313e+003,-9.332275e-001
1.742277e+003,-6.848633e+000
1.743241e+003,3.787354e+000
1.744206e+003,9.713379e+000
1.745170e+003,3.446655e+000
1.746134e+003,-3.095215e+000
1.747098e+003,-2.958618e+000
1.748063e+003,8.581543e-002
1.749027e+003,1.702026e+000
1.749991e+003,1.799194e+000
1.750955e+003,2.266602e+000
1.751919e+003,3.516479e+000
1.752884e+003,4.011719e+000
1.753848e+003,2.467773e+000
1.754812e+003,-4.222412e-001
1.755776e+003,-3.058838e+000
1.756741e+003,-4.964966e+000
1.757705e+003,-5.110229e+000
1.758669e+003,-3.049561e+000
1.759633e+003,-1.796509e+000
1.760598e+003,-2.890503e+000
1.761562e+003,-3.823364e+000
1.762526e+003,-3.454102e+000
1.763490e+003,-2.139404e+000
1.764455e+003,8.647461e-001
1.765419e+003,4.272461e+000
1.766383e+003,5.748535e+000
1.767347e+003,5.028442e+000
1.768312e+003,3.607910e+000
1.769276e+003,2.022583e+000
1.770240e+003,7.100830e-001
1.771204e+003,1.225830e+000
1.772168e+003,2.809082e+000
1.773133e+003,2.197754e+000
1.774097e+003,-3.234863e-001
1.775061e+003,-1.477905e+000
1.776025e+003,-1.263306e+000
1.776990e+003,-1.464355e+000
1.777954e+003,-2.495239e+000
1.778918e+003,-2.674072e+000
1.779882e+003,-2.208252e-001
1.780846e+003,2.330200e+000
1.781811e+003,1.723511e+000
1.782775e+003,-1.011353e+000
1.783739e+003,-3.022705e+000
1.784703e+003,-3.771973e+000
1.785668e+003,-3.403564e+000
1.786632e+003,-1.606689e+000
1.787596e+003,-4.697266e-001
1.788560e+003,-1.683716e+000
1.789525e+003,-3.005859e+000
1.790489e+003,-1.586670e+000
1.791453e+003,1.588501e+000
1.792417e+003,4.101685e+000
1.793382e+003,5.315186e+000
1.794346e+003,4.557007e+000
1.795310e+003,1.240356e+000
1.796274e+003,-2.384033e+000
1.797239e+003,-3.377686e+000
1.798203e+003,-1.957275e+000
1.799167e+003,-6.430664e-001
1.800131e+003,-3.508301e-001
1.801095e+003,-1.369751e+000
1.802060e+003,-5.420532e+000
1.803024e+003,-5.910278e+000
1.803988e+003,8.458252e-001
1.804952e+003,6.784180e+000
1.805917e+003,7.499878e+000
1.806881e+003,6.039063e+000
1.807845e+003,5.946289e+000
1.808809e+003,6.608276e+000
1.809773e+003,4.727173e+000
1.810738e+003,4.897461e-001
1.811702e+003,-9.849854e-001
1.812666e+003,3.356689e+000
1.813630e+003,9.324951e+000
1.814595e+003,1.144641e+001
1.815559e+003,1.014612e+001
1.816523e+003,7.268188e+000
1.817487e+003,2.697998e+000
1.818452e+003,-6.087646e-001
1.819416e+003,-2.102539e+000
1.820380e+003,-2.030762e+000
1.821344e+003,3.007813e-001
1.822309e+003,2.052246e+000
1.823273e+003,1.024414e+000
1.824237e+003,-2.056885e-001
1.825201e+003,9.417725e-001
1.826166e+003,3.600098e+000
1.827130e+003,5.843994e+000
1.828094e+003,7.103271e+000
1.829058e+003,6.477417e+000
1.830022e+003,2.433472e+000
1.830987e+003,-3.902588e-001
1.831951e+003,4.177246e+000
1.832915e+003,1.062073e+001
1.833879e+003,9.271118e+000
1.834844e+003,2.951416e+000
1.835808e+003,1.744873e+000
1.836772e+003,6.836548e+000
1.837736e+003,1.208374e+001
1.838700e+003,1.465308e+001
1.839665e+003,1.449695e+001
1.840629e+003,1.128931e+001
1.841593e+003,7.037231e+000
1.842557e+003,5.807129e+000
1.843522e+003,7.516846e+000
1.844486e+003,7.549316e+000
1.845450e+003,5.375854e+000
1.846414e+003,3.789673e+000
1.847379e+003,1.595459e+000
1.848343e+003,-4.846191e-002
1.849307e+003,-6.789551e-001
1.850271e+003,-1.976318e-001
1.851236e+003,3.014771e+000
1.852200e+003,6.867432e+000
1.853164e+003,7.737549e+000
1.854128e+003,5.561646e+000
1.855093e+003,2.905396e+000
1.856057e+003,1.331909e+000
1.857021e+003,1.073364e+000
1.857985e+003,2.218384e+000
1.858949e+003,3.559814e+000
1.859914e+003,2.562988e+000
1.860878e+003,1.096191e-001
1.861842e+003,8.443604e-001
1.862806e+003,4.702881e+000
1.863771e+003,7.571655e+000
1.864735e+003,8.454956e+000
1.865699e+003,8.799316e+000
1.866663e+003,9.498657e+000
1.867627e+003,1.027002e+001
1.868592e+003,1.040735e+001
1.869556e+003,9.770264e+000
1.870520e+003,9.342773e+000
1.871484e+003,8.838745e+000
1.872449e+003,6.073364e+000
1.873413e+003,7.154541e-001
1.874377e+003,-7.174072e-001
1.875341e+003,4.871704e+000
1.876306e+003,1.070801e+001
1.877270e+003,1.337585e+001
1.878234e+003,1.409338e+001
1.879198e+003,1.401257e+001
1.880163e+003,1.340125e+001
1.881127e+003,1.204041e+001
1.882091e+003,1.038818e+001
1.883055e+003,9.849365e+000
1.884020e+003,1.085547e+001
1.884984e+003,1.218945e+001
1.885948e+003,1.280945e+001
1.886912e+003,1.258740e+001
1.887876e+003,1.102539e+001
1.888841e+003,8.429077e+000
1.889805e+003,8.165161e+000
1.890769e+003,1.073193e+001
1.891733e+003,1.296875e+001
1.892698e+003,1.415564e+001
1.893662e+003,1.510852e+001
1.894626e+003,1.707800e+001
1.895590e+003,1.796082e+001
1.896554e+003,1.463525e+001
1.897519e+003,1.114380e+001
1.898483e+003,1.343408e+001
1.899447e+003,1.899243e+001
1.900411e+003,1.947937e+001
1.901376e+003,1.336523e+001
1.902340e+003,9.035522e+000
1.903304e+003,1.058240e+001
1.904268e+003,1.295459e+001
1.905233e+003,1.348206e+001
1.906197e+003,1.335876e+001
1.907161e+003,1.332751e+001
1.908125e+003,1.401318e+001
1.909090e+003,1.598779e+001
1.910054e+003,1.894116e+001
1.911018e+003,2.337781e+001
1.911982e+003,2.905737e+001
1.912947e+003,3.143140e+001
1.913911e+003,2.701355e+001
1.914875e+003,2.076111e+001
1.915839e+003,2.044507e+001
1.916803e+003,2.423950e+001
1.917768e+003,2.449792e+001
1.918732e+003,2.070581e+001
1.919696e+003,1.914502e+001
1.920660e+003,2.069885e+001
1.921625e+003,2.323132e+001
1.922589e+003,2.712134e+001
1.923553e+003,2.983911e+001
1.924517e+003,2.882629e+001
1.925481e+003,2.727209e+001
1.926446e+003,2.862354e+001
1.927410e+003,3.127051e+001
1.928374e+003,3.166052e+001
1.929338e+003,2.940198e+001
1.930303e+003,2.690247e+001
1.931267e+003,2.515833e+001
1.932231e+003,2.444360e+001
1.933195e+003,2.447192e+001
1.934160e+003,2.492627e+001
1.935124e+003,2.648840e+001
1.936088e+003,2.732751e+001
1.937052e+003,2.437085e+001
1.938017e+003,2.005261e+001
1.938981e+003,1.972742e+001
1.939945e+003,2.350122e+001
1.940909e+003,2.759644e+001
1.941874e+003,2.991895e+001
1.942838e+003,2.961804e+001
1.943802e+003,2.612085e+001
1.944766e+003,2.214673e+001
1.945730e+003,2.232568e+001
1.946695e+003,2.581873e+001
1.947659e+003,2.873889e+001
1.948623e+003,3.098376e+001
1.949587e+003,3.236963e+001
1.950552e+003,3.301550e+001
1.951516e+003,3.342480e+001
1.952480e+003,3.397900e+001
1.953444e+003,3.376904e+001
1.954408e+003,3.150769e+001
1.955373e+003,2.814893e+001
1.956337e+003,2.511694e+001
1.957301e+003,2.313379e+001
1.958265e+003,2.295251e+001
1.959230e+003,2.476843e+001
1.960194e+003,2.752295e+001
1.961158e+003,3.158862e+001
1.962122e+003,3.409485e+001
1.963087e+003,3.370679e+001
1.964051e+003,3.255762e+001
1.965015e+003,3.160718e+001
1.965979e+003,3.165662e+001
1.966944e+003,3.355884e+001
1.967908e+003,3.597461e+001
1.968872e+003,3.677039e+001
1.969836e+003,3.609875e+001
1.970801e+003,3.583765e+001
1.971765e+003,3.684851e+001
1.972729e+003,3.862073e+001
1.973693e+003,4.105249e+001
1.974657e+003,4.285828e+001
1.975622e+003,4.111548e+001
1.976586e+003,3.723486e+001
1.977550e+003,3.570435e+001
1.978514e+003,3.641919e+001
1.979479e+003,3.716663e+001
1.980443e+003,3.750122e+001
1.981407e+003,3.793542e+001
1.982371e+003,3.887170e+001
1.983335e+003,3.978577e+001
1.984300e+003,3.996057e+001
1.985264e+003,3.967944e+001
1.986228e+003,3.976355e+001
1.987192e+003,4.003430e+001
1.988157e+003,3.957813e+001
1.989121e+003,3.832019e+001
1.990085e+003,3.777600e+001
1.991049e+003,3.840271e+001
1.992014e+003,3.942444e+001
1.992978e+003,4.146301e+001
1.993942e+003,4.232361e+001
1.994906e+003,3.986816e+001
1.995871e+003,3.745374e+001
1.996835e+003,3.789160e+001
1.997799e+003,4.005115e+001
1.998763e+003,4.204919e+001
1.999728e+003,4.355530e+001
