5.003444e+002,3.689944e+001
5.013087e+002,3.664307e+001
5.022729e+002,3.633398e+001
5.032371e+002,3.606070e+001
5.042014e+002,3.523221e+001
5.051656e+002,3.400525e+001
5.061298e+002,3.296936e+001
5.070941e+002,3.264398e+001
5.080583e+002,3.311285e+001
5.090225e+002,3.312622e+001
5.099868e+002,3.276144e+001
5.109510e+002,3.203491e+001
5.119152e+002,3.052054e+001
5.128795e+002,2.811609e+001
5.138437e+002,2.700320e+001
5.148079e+002,2.944162e+001
5.157722e+002,3.202713e+001
5.167364e+002,3.340448e+001
5.177006e+002,3.328766e+001
5.186649e+002,3.229611e+001
5.196291e+002,3.099298e+001
5.205933e+002,2.974841e+001
5.215576e+002,2.854822e+001
5.225218e+002,2.728894e+001
5.234860e+002,2.607742e+001
5.244503e+002,2.534238e+001
5.254145e+002,2.557684e+001
5.263787e+002,2.549265e+001
5.273430e+002,2.477731e+001
5.283072e+002,2.395459e+001
5.292714e+002,2.367090e+001
5.302357e+002,2.384186e+001
5.311999e+002,2.414667e+001
5.321641e+002,2.559451e+001
5.331284e+002,2.688937e+001
5.340926e+002,2.662115e+001
5.350568e+002,2.405301e+001
5.360211e+002,2.119638e+001
5.369853e+002,1.962811e+001
5.379495e+002,1.923053e+001
5.389138e+002,2.045929e+001
5.398780e+002,2.319431e+001
5.408422e+002,2.645621e+001
5.418065e+002,2.753564e+001
5.427707e+002,2.670343e+001
5.437349e+002,2.542719e+001
5.446992e+002,2.382065e+001
5.456634e+002,2.209863e+001
5.466276e+002,2.110501e+001
5.475919e+002,2.200040e+001
5.485561e+002,2.239850e+001
5.495203e+002,2.189127e+001
5.504846e+002,2.077383e+001
5.514488e+002,1.950314e+001
5.524130e+002,1.820856e+001
5.533773e+002,1.718317e+001
5.543415e+002,1.605612e+001
5.553057e+002,1.540607e+001
5.562700e+002,1.637863e+001
5.572342e+002,1.960284e+001
5.581984e+002,2.309158e+001
5.591627e+002,2.093616e+001
5.601269e+002,1.560529e+001
5.610911e+002,1.233429e+001
5.620554e+002,1.396780e+001
5.630196e+002,1.953857e+001
5.639838e+002,2.089563e+001
5.649481e+002,1.444107e+001
5.659123e+002,9.084045e+000
5.668765e+002,6.814972e+000
5.678408e+002,6.958557e+000
5.688050e+002,7.287811e+000
5.697692e+002,6.945190e+000
5.707335e+002,6.640198e+000
5.716977e+002,7.061951e+000
5.726619e+002,7.660492e+000
5.736262e+002,7.517395e+000
5.745904e+002,5.856354e+000
5.755546e+002,4.096832e+000
5.765189e+002,4.516846e+000
5.774831e+002,6.079620e+000
5.784473e+002,7.291260e+000
5.794116e+002,7.222137e+000
5.803758e+002,6.123596e+000
5.813400e+002,5.365173e+000
5.823043e+002,4.680969e+000
5.832685e+002,4.049622e+000
5.842327e+002,3.723633e+000
5.851970e+002,3.779388e+000
5.861612e+002,3.833160e+000
5.871254e+002,2.944458e+000
5.880897e+002,2.828217e+000
5.890539e+002,4.405609e+000
5.900181e+002,6.746704e+000
5.909824e+002,8.309509e+000
5.919466e+002,7.948395e+000
5.929108e+002,7.125366e+000
5.938751e+002,7.632294e+000
5.948393e+002,8.793182e+000
5.958035e+002,9.653931e+000
5.967678e+002,9.543488e+000
5.977320e+002,8.630981e+000
5.986962e+002,7.293579e+000
5.996605e+002,5.257294e+000
6.006247e+002,3.434479e+000
6.015889e+002,2.070526e+000
6.025532e+002,1.224213e+000
6.035174e+002,1.294098e+000
6.044816e+002,3.862793e+000
6.054459e+002,5.743774e+000
6.064101e+002,6.111908e+000
6.073743e+002,5.517578e+000
6.083386e+002,4.936676e+000
6.093028e+002,4.656860e+000
6.102670e+002,5.148376e+000
6.112313e+002,7.317902e+000
6.121955e+002,1.000510e+001
6.131597e+002,1.169846e+001
6.141240e+002,1.136047e+001
6.150882e+002,9.415070e+000
6.160524e+002,7.398407e+000
6.170167e+002,5.435150e+000
6.179809e+002,4.143921e+000
6.189451e+002,3.883057e+000
6.199094e+002,4.390717e+000
6.208736e+002,4.395264e+000
6.218378e+002,3.265350e+000
6.228021e+002,2.795654e+000
6.237663e+002,3.754700e+000
6.247305e+002,5.381531e+000
6.256948e+002,6.298096e+000
6.266590e+002,5.524475e+000
6.276232e+002,4.492188e+000
6.285875e+002,4.363770e+000
6.295517e+002,4.675903e+000
6.305159e+002,5.006226e+000
6.314802e+002,5.028961e+000
6.324444e+002,4.566925e+000
6.334086e+002,3.014465e+000
6.343729e+002,8.831482e-001
6.353371e+002,-1.061951e+000
6.363013e+002,-2.712341e+000
6.372656e+002,-3.938507e+000
6.382298e+002,-4.065033e+000
6.391940e+002,-1.426575e+000
6.401583e+002,-2.767944e-002
6.411225e+002,-2.362061e-001
6.420867e+002,-1.108337e+000
6.430510e+002,-1.717468e+000
6.440152e+002,-1.964935e+000
6.449794e+002,-2.243591e+000
6.459437e+002,-3.110657e+000
6.469079e+002,-3.850891e+000
6.478721e+002,-3.691925e+000
6.488364e+002,-2.409058e+000
6.498006e+002,-5.870972e-001
6.507648e+002,9.472351e-001
6.517291e+002,1.992310e+000
6.526933e+002,1.863464e+000
6.536575e+002,3.365479e-001
6.546218e+002,-1.641541e+000
6.555860e+002,-2.197357e+000
6.565502e+002,-3.262634e-001
6.575145e+002,8.508606e-001
6.584787e+002,1.245148e+000
6.594429e+002,1.163239e+000
6.604072e+002,7.475891e-001
6.613714e+002,-1.171875e-002
6.623356e+002,-7.743225e-001
6.632999e+002,-1.915649e+000
6.642641e+002,-2.827057e+000
6.652283e+002,-2.750336e+000
6.661926e+002,-1.777679e+000
6.671568e+002,-7.117615e-001
6.681210e+002,-6.591492e-001
6.690853e+002,-1.365601e+000
6.700495e+002,-2.046692e+000
6.710137e+002,-2.612732e+000
6.719780e+002,-2.445313e+000
6.729422e+002,-7.561035e-001
6.739064e+002,2.897003e+000
6.748707e+002,4.824249e+000
6.758349e+002,4.659363e+000
6.767991e+002,3.704132e+000
6.777634e+002,2.166840e+000
6.787276e+002,3.671265e-001
6.796918e+002,-5.818481e-001
6.806561e+002,-1.298523e-001
6.816203e+002,8.429871e-001
6.825845e+002,2.599365e+000
6.835488e+002,4.524200e+000
6.845130e+002,5.799835e+000
6.854772e+002,5.860718e+000
6.864415e+002,5.032410e+000
6.874057e+002,3.470337e+000
6.883699e+002,1.294586e+000
6.893342e+002,-7.831421e-001
6.902984e+002,-2.363586e+000
6.912626e+002,-3.281372e+000
6.922269e+002,-2.820190e+000
6.931911e+002,1.339508e+000
6.941553e+002,4.269714e+000
6.951196e+002,4.522614e+000
6.960838e+002,3.357544e+000
6.970480e+002,3.112671e+000
6.980123e+002,5.069916e+000
6.989765e+002,6.078796e+000
6.999407e+002,4.258881e+000
7.009050e+002,1.565948e+000
7.018692e+002,-7.583618e-001
7.028334e+002,-2.170959e+000
7.037977e+002,-2.735535e+000
7.047619e+002,-2.132355e+000
7.057261e+002,-5.629883e-001
7.066904e+002,1.721527e+000
7.076546e+002,4.652679e+000
7.086188e+002,7.011658e+000
7.095831e+002,6.686554e+000
7.105473e+002,2.209869e+000
7.115115e+002,-7.246094e-001
7.124758e+002,-1.698273e+000
7.134400e+002,-2.049072e+000
7.144042e+002,-2.698761e+000
7.153685e+002,-3.572540e+000
7.163327e+002,-3.268158e+000
7.172969e+002,1.453644e+000
7.182612e+002,5.087738e+000
7.192254e+002,4.064362e+000
7.201896e+002,6.289673e-002
7.211539e+002,-3.053955e+000
7.221181e+002,-1.910461e+000
7.230823e+002,1.677887e+000
7.240466e+002,2.574066e+000
7.250108e+002,1.508575e+000
7.259750e+002,5.066528e-001
7.269393e+002,6.333313e-001
7.279035e+002,1.472595e+000
7.288677e+002,1.235565e+000
7.298320e+002,-1.753357e+000
7.307962e+002,-2.855225e+000
7.317604e+002,-1.721191e-002
7.327247e+002,4.238068e+000
7.336889e+002,6.065491e+000
7.346531e+002,3.606567e+000
7.356174e+002,4.317017e-001
7.365816e+002,-1.556305e+000
7.375458e+002,-2.586731e+000
7.385101e+002,-2.798676e+000
7.394743e+002,-2.260345e+000
7.404385e+002,-8.687134e-001
7.414028e+002,1.963684e+000
7.423670e+002,5.176208e+000
7.433312e+002,5.723602e+000
7.442955e+002,3.470520e+000
7.452597e+002,8.905945e-001
7.462239e+002,8.741760e-001
7.471882e+002,4.325531e+000
7.481524e+002,5.972778e+000
7.491166e+002,3.955444e+000
7.500809e+002,2.028809e+000
7.510451e+002,1.820068e+000
7.520093e+002,2.954468e+000
7.529736e+002,3.819000e+000
7.539378e+002,4.047638e+000
7.549020e+002,3.671997e+000
7.558663e+002,2.196777e+000
7.568306e+002,3.655090e-001
7.577948e+002,-9.500427e-001
7.587590e+002,-1.274780e+000
7.597233e+002,-8.847961e-001
7.606875e+002,1.416016e-001
7.616517e+002,1.831665e+000
7.626160e+002,2.999084e+000
7.635802e+002,3.059875e+000
7.645444e+002,2.806335e+000
7.655087e+002,4.011780e+000
7.664729e+002,7.850037e+000
7.674371e+002,1.039072e+001
7.684014e+002,1.137558e+001
7.693656e+002,1.128391e+001
7.703298e+002,9.842804e+000
7.712941e+002,7.338501e+000
7.722583e+002,5.541901e+000
7.732225e+002,6.458710e+000
7.741868e+002,7.947540e+000
7.751510e+002,8.421021e+000
7.761152e+002,8.005585e+000
7.770795e+002,7.221375e+000
7.780437e+002,6.489075e+000
7.790079e+002,5.828766e+000
7.799722e+002,6.242462e+000
7.809364e+002,7.936829e+000
7.819006e+002,8.855865e+000
7.828649e+002,7.582825e+000
7.838291e+002,5.110992e+000
7.847933e+002,4.623840e+000
7.857576e+002,7.716095e+000
7.867218e+002,9.661072e+000
7.876860e+002,9.160828e+000
7.886503e+002,8.073608e+000
7.896145e+002,8.180603e+000
7.905787e+002,9.848816e+000
7.915430e+002,1.132086e+001
7.925072e+002,9.727539e+000
7.934714e+002,7.150665e+000
7.944357e+002,6.296814e+000
7.953999e+002,7.304382e+000
7.963641e+002,8.832947e+000
7.973284e+002,9.316589e+000
7.982926e+002,8.703033e+000
7.992568e+002,7.844604e+000
8.002211e+002,5.915070e+000
8.011853e+002,4.264130e+000
8.021495e+002,3.545807e+000
8.031138e+002,4.024658e+000
8.040780e+002,5.922394e+000
8.050422e+002,1.035474e+001
8.060065e+002,1.380344e+001
8.069707e+002,1.470248e+001
8.079349e+002,1.426382e+001
8.088992e+002,1.368564e+001
8.098634e+002,1.351181e+001
8.108276e+002,1.341080e+001
8.117919e+002,1.245999e+001
8.127561e+002,1.090387e+001
8.137203e+002,9.968658e+000
8.146846e+002,1.000211e+001
8.156488e+002,1.068039e+001
8.166130e+002,1.162833e+001
8.175773e+002,1.312445e+001
8.185415e+002,1.272781e+001
8.195057e+002,7.867340e+000
8.204700e+002,4.225250e+000
8.214342e+002,4.383392e+000
8.223984e+002,7.228638e+000
8.233627e+002,9.746429e+000
8.243269e+002,1.115945e+001
8.252911e+002,1.174185e+001
8.262554e+002,1.106223e+001
8.272196e+002,1.017899e+001
8.281838e+002,1.041022e+001
8.291481e+002,1.206601e+001
8.301123e+002,1.406424e+001
8.310765e+002,1.442383e+001
8.320408e+002,1.319302e+001
8.330050e+002,1.255331e+001
8.339692e+002,1.295944e+001
8.349335e+002,1.306573e+001
8.358977e+002,1.089120e+001
8.368619e+002,5.841278e+000
8.378262e+002,3.810974e+000
8.387904e+002,8.357147e+000
8.397546e+002,1.168155e+001
8.407189e+002,1.059152e+001
8.416831e+002,7.328857e+000
8.426473e+002,6.414001e+000
8.436116e+002,1.044980e+001
8.445758e+002,1.475519e+001
8.455400e+002,1.326447e+001
8.465043e+002,9.328766e+000
8.474685e+002,6.659210e+000
8.484327e+002,6.551819e+000
8.493970e+002,8.306732e+000
8.503612e+002,1.058676e+001
8.513254e+002,1.349304e+001
8.522897e+002,1.523288e+001
8.532539e+002,1.544763e+001
8.542181e+002,1.490100e+001
8.551824e+002,1.396091e+001
8.561466e+002,1.290195e+001
8.571108e+002,1.237878e+001
8.580751e+002,1.211282e+001
8.590393e+002,1.200293e+001
8.600035e+002,1.203983e+001
8.609678e+002,1.252695e+001
8.619320e+002,1.395917e+001
8.628962e+002,1.642712e+001
8.638605e+002,1.912405e+001
8.648247e+002,2.092560e+001
8.657889e+002,2.194940e+001
8.667532e+002,2.216293e+001
8.677174e+002,2.156696e+001
8.686816e+002,2.145288e+001
8.696459e+002,2.376675e+001
8.706101e+002,2.936343e+001
8.715743e+002,3.151407e+001
8.725386e+002,2.740762e+001
8.735028e+002,2.384793e+001
8.744670e+002,2.239453e+001
8.754313e+002,2.235623e+001
8.763955e+002,2.229279e+001
8.773597e+002,2.158868e+001
8.783240e+002,2.186572e+001
8.792882e+002,2.525192e+001
8.802524e+002,2.922766e+001
8.812167e+002,3.193265e+001
8.821809e+002,3.279794e+001
8.831451e+002,3.192395e+001
8.841094e+002,2.929239e+001
8.850736e+002,2.523389e+001
8.860378e+002,2.337079e+001
8.870021e+002,2.354675e+001
8.879663e+002,2.532278e+001
8.889305e+002,2.986240e+001
8.898948e+002,3.611157e+001
8.908590e+002,3.860495e+001
8.918232e+002,3.411978e+001
8.927875e+002,3.083868e+001
8.937517e+002,3.126370e+001
8.947159e+002,3.289151e+001
8.956802e+002,3.345227e+001
8.966444e+002,3.240189e+001
8.976086e+002,3.102579e+001
8.985729e+002,3.079401e+001
8.995371e+002,3.134448e+001
9.005013e+002,3.158286e+001
9.014656e+002,3.171133e+001
9.024298e+002,3.246976e+001
9.033940e+002,3.435107e+001
9.043583e+002,3.704279e+001
9.053225e+002,3.931055e+001
9.062867e+002,4.200299e+001
9.072510e+002,4.259641e+001
9.082152e+002,3.915067e+001
9.091794e+002,3.526926e+001
9.101437e+002,3.487869e+001
9.111079e+002,3.861264e+001
9.120721e+002,4.225421e+001
9.130364e+002,4.365002e+001
9.140006e+002,4.347632e+001
9.149648e+002,4.117581e+001
9.159291e+002,3.795297e+001
9.168933e+002,3.579572e+001
9.178575e+002,3.599222e+001
9.188218e+002,3.776349e+001
9.197860e+002,3.886298e+001
9.207502e+002,3.919510e+001
9.217145e+002,3.952271e+001
9.226787e+002,4.046912e+001
9.236429e+002,4.148611e+001
9.246072e+002,4.168335e+001
9.255714e+002,4.088019e+001
9.265356e+002,3.936786e+001
9.274999e+002,3.585620e+001
9.284641e+002,3.293457e+001
9.294283e+002,3.183984e+001
9.303926e+002,3.205826e+001
9.313568e+002,3.264020e+001
9.323210e+002,3.313101e+001
9.332853e+002,3.324921e+001
9.342495e+002,3.228094e+001
9.352137e+002,3.063580e+001
9.361780e+002,2.876801e+001
9.371422e+002,2.695380e+001
9.381064e+002,2.592883e+001
9.390707e+002,2.665906e+001
9.400349e+002,2.936490e+001
9.409991e+002,3.089700e+001
9.419634e+002,3.068430e+001
9.429276e+002,3.011853e+001
9.438918e+002,2.891681e+001
9.448561e+002,2.787015e+001
9.458203e+002,2.856134e+001
9.467845e+002,3.185602e+001
9.477488e+002,3.506366e+001
9.487130e+002,3.581784e+001
9.496772e+002,3.579764e+001
9.506415e+002,3.611801e+001
9.516057e+002,3.695300e+001
9.525699e+002,3.804968e+001
9.535342e+002,3.915863e+001
9.544984e+002,4.012054e+001
9.554626e+002,4.018521e+001
9.564269e+002,3.973145e+001
9.573911e+002,3.862814e+001
9.583553e+002,3.568420e+001
9.593196e+002,3.243533e+001
9.602838e+002,3.171686e+001
9.612480e+002,3.421561e+001
9.622123e+002,3.650827e+001
9.631765e+002,3.823248e+001
9.641407e+002,3.908459e+001
9.651050e+002,3.827527e+001
9.660692e+002,3.638904e+001
9.670334e+002,3.464789e+001
9.679977e+002,3.391638e+001
9.689619e+002,3.400696e+001
9.699261e+002,3.449936e+001
9.708904e+002,3.504208e+001
9.718546e+002,3.479919e+001
9.728188e+002,3.330008e+001
9.737831e+002,3.177859e+001
9.747473e+002,3.198923e+001
9.757115e+002,3.427194e+001
9.766758e+002,3.687869e+001
9.776400e+002,4.091623e+001
9.786042e+002,4.425058e+001
9.795685e+002,4.594464e+001
9.805327e+002,4.652820e+001
9.814969e+002,4.733878e+001
9.824612e+002,4.896106e+001
9.834254e+002,4.923322e+001
9.843896e+002,4.339639e+001
9.853539e+002,3.626529e+001
9.863181e+002,3.367654e+001
9.872823e+002,3.523236e+001
9.882466e+002,3.720071e+001
9.892108e+002,3.662115e+001
9.901750e+002,3.418015e+001
9.911393e+002,3.290790e+001
9.921035e+002,3.276123e+001
9.930677e+002,3.286304e+001
9.940320e+002,3.339108e+001
9.949962e+002,3.439761e+001
9.959604e+002,3.603046e+001
9.969247e+002,3.830267e+001
9.978889e+002,4.075040e+001
9.988531e+002,4.308841e+001
9.998174e+002,4.499731e+001
1.000782e+003,4.649402e+001
1.001746e+003,4.774329e+001
1.002710e+003,4.884335e+001
1.003674e+003,4.982791e+001
1.004639e+003,5.068231e+001
1.005603e+003,5.132819e+001
1.006567e+003,5.167850e+001
1.007531e+003,5.308133e+001
1.008495e+003,5.636160e+001
1.009460e+003,5.911166e+001
1.010424e+003,5.956506e+001
1.011388e+003,5.834521e+001
1.012352e+003,5.793524e+001
1.013317e+003,5.945331e+001
1.014281e+003,5.973209e+001
1.015245e+003,5.717493e+001
1.016209e+003,5.369308e+001
1.017174e+003,5.058994e+001
1.018138e+003,4.807190e+001
1.019102e+003,4.563269e+001
1.020066e+003,4.291138e+001
1.021031e+003,4.011029e+001
1.021995e+003,3.712802e+001
1.022959e+003,3.388861e+001
1.023923e+003,3.163669e+001
1.024887e+003,3.107547e+001
1.025852e+003,3.107584e+001
1.026816e+003,2.988654e+001
1.027780e+003,2.740482e+001
1.028744e+003,2.496393e+001
1.029709e+003,2.185294e+001
1.030673e+003,1.963873e+001
1.031637e+003,1.908841e+001
1.032601e+003,1.948434e+001
1.033566e+003,2.006680e+001
1.034530e+003,2.059525e+001
1.035494e+003,2.093539e+001
1.036458e+003,2.092807e+001
1.037422e+003,2.042395e+001
1.038387e+003,1.918915e+001
1.039351e+003,1.722641e+001
1.040315e+003,1.479208e+001
1.041279e+003,1.190512e+001
1.042244e+003,9.132782e+000
1.043208e+003,9.096710e+000
1.044172e+003,1.411282e+001
1.045136e+003,1.759329e+001
1.046101e+003,1.924527e+001
1.047065e+003,1.979938e+001
1.048029e+003,1.905246e+001
1.048993e+003,1.745651e+001
1.049958e+003,1.651401e+001
1.050922e+003,1.724356e+001
1.051886e+003,1.833087e+001
1.052850e+003,1.811279e+001
1.053814e+003,1.746640e+001
1.054779e+003,1.778342e+001
1.055743e+003,1.918582e+001
1.056707e+003,2.031522e+001
1.057671e+003,1.944839e+001
1.058636e+003,1.652777e+001
1.059600e+003,1.543921e+001
1.060564e+003,1.831628e+001
1.061528e+003,2.031583e+001
1.062493e+003,1.998514e+001
1.063457e+003,1.865085e+001
1.064421e+003,1.784253e+001
1.065385e+003,1.781677e+001
1.066349e+003,1.793854e+001
1.067314e+003,1.834848e+001
1.068278e+003,1.822424e+001
1.069242e+003,1.643118e+001
1.070206e+003,1.404956e+001
1.071171e+003,1.258487e+001
1.072135e+003,1.263245e+001
1.073099e+003,1.385220e+001
1.074063e+003,1.594983e+001
1.075028e+003,1.919803e+001
1.075992e+003,2.028110e+001
1.076956e+003,1.768018e+001
1.077920e+003,1.554480e+001
1.078885e+003,1.644641e+001
1.079849e+003,1.869324e+001
1.080813e+003,1.875787e+001
1.081777e+003,1.576822e+001
1.082741e+003,1.307114e+001
1.083706e+003,1.167645e+001
1.084670e+003,1.129016e+001
1.085634e+003,1.244171e+001
1.086598e+003,1.442596e+001
1.087563e+003,1.606870e+001
1.088527e+003,1.681284e+001
1.089491e+003,1.728442e+001
1.090455e+003,1.849155e+001
1.091420e+003,2.038193e+001
1.092384e+003,2.165115e+001
1.093348e+003,2.236710e+001
1.094312e+003,2.211642e+001
1.095276e+003,2.008112e+001
1.096241e+003,1.714139e+001
1.097205e+003,1.573483e+001
1.098169e+003,1.634357e+001
1.099133e+003,1.747144e+001
1.100098e+003,1.956055e+001
1.101062e+003,2.120627e+001
1.102026e+003,2.115118e+001
1.102990e+003,1.994302e+001
1.103955e+003,1.896747e+001
1.104919e+003,1.902243e+001
1.105883e+003,1.949957e+001
1.106847e+003,1.910681e+001
1.107812e+003,1.781644e+001
1.108776e+003,1.732999e+001
1.109740e+003,1.815048e+001
1.110704e+003,1.888519e+001
1.111668e+003,1.817157e+001
1.112633e+003,1.667932e+001
1.113597e+003,1.714783e+001
1.114561e+003,2.102527e+001
1.115525e+003,2.363232e+001
1.116490e+003,2.198404e+001
1.117454e+003,2.016449e+001
1.118418e+003,2.134872e+001
1.119382e+003,2.487390e+001
1.120347e+003,2.807236e+001
1.121311e+003,2.916046e+001
1.122275e+003,2.879227e+001
1.123239e+003,2.873923e+001
1.124203e+003,2.918460e+001
1.125168e+003,2.926428e+001
1.126132e+003,2.882358e+001
1.127096e+003,2.841809e+001
1.128060e+003,2.801364e+001
1.129025e+003,2.777029e+001
1.129989e+003,2.908829e+001
1.130953e+003,3.327628e+001
1.131917e+003,3.598840e+001
1.132882e+003,3.472260e+001
1.133846e+003,3.331982e+001
1.134810e+003,3.429004e+001
1.135774e+003,3.712979e+001
1.136739e+003,4.004214e+001
1.137703e+003,4.198727e+001
1.138667e+003,4.337201e+001
1.139631e+003,4.474365e+001
1.140595e+003,4.620404e+001
1.141560e+003,4.858350e+001
1.142524e+003,5.201437e+001
1.143488e+003,5.660242e+001
1.144452e+003,6.231607e+001
1.145417e+003,6.917374e+001
1.146381e+003,7.741440e+001
1.147345e+003,8.755533e+001
1.148309e+003,9.754672e+001
1.149274e+003,1.066819e+002
1.150238e+003,1.159652e+002
1.151202e+003,1.256107e+002
1.152166e+003,1.360979e+002
1.153130e+003,1.485207e+002
1.154095e+003,1.629926e+002
1.155059e+003,1.770448e+002
1.156023e+003,1.876447e+002
1.156987e+003,1.947125e+002
1.157952e+003,1.994575e+002
1.158916e+003,2.022727e+002
1.159880e+003,2.031422e+002
1.160844e+003,2.025222e+002
1.161809e+003,1.990607e+002
1.162773e+003,1.892889e+002
1.163737e+003,1.714577e+002
1.164701e+003,1.553807e+002
1.165666e+003,1.454439e+002
1.166630e+003,1.360502e+002
1.167594e+003,1.249304e+002
1.168558e+003,1.131104e+002
1.169522e+003,1.014797e+002
1.170487e+003,9.079959e+001
1.171451e+003,8.297253e+001
1.172415e+003,8.048700e+001
1.173379e+003,8.211600e+001
1.174344e+003,8.120282e+001
1.175308e+003,7.763913e+001
1.176272e+003,7.514276e+001
1.177236e+003,7.548236e+001
1.178201e+003,7.715793e+001
1.179165e+003,7.890167e+001
1.180129e+003,8.060867e+001
1.181093e+003,7.897937e+001
1.182057e+003,6.990079e+001
1.183022e+003,6.277246e+001
1.183986e+003,6.243863e+001
1.184950e+003,6.449844e+001
1.185914e+003,6.497400e+001
1.186879e+003,6.336551e+001
1.187843e+003,6.137646e+001
1.188807e+003,6.031454e+001
1.189771e+003,5.998602e+001
1.190736e+003,6.013965e+001
1.191700e+003,6.080170e+001
1.192664e+003,6.155060e+001
1.193628e+003,6.297540e+001
1.194593e+003,6.391791e+001
1.195557e+003,6.321698e+001
1.196521e+003,6.128030e+001
1.197485e+003,5.969363e+001
1.198449e+003,5.888901e+001
1.199414e+003,5.792331e+001
1.200378e+003,5.559586e+001
1.201342e+003,5.369324e+001
1.202306e+003,5.430246e+001
1.203271e+003,5.597397e+001
1.204235e+003,5.535007e+001
1.205199e+003,5.103796e+001
1.206163e+003,4.556143e+001
1.207128e+003,4.316391e+001
1.208092e+003,4.407739e+001
1.209056e+003,4.389420e+001
1.210020e+003,4.259283e+001
1.210984e+003,4.056061e+001
1.211949e+003,3.736938e+001
1.212913e+003,3.374564e+001
1.213877e+003,3.081442e+001
1.214841e+003,2.866769e+001
1.215806e+003,2.621432e+001
1.216770e+003,2.269235e+001
1.217734e+003,1.919846e+001
1.218698e+003,1.604080e+001
1.219663e+003,1.341754e+001
1.220627e+003,1.208420e+001
1.221591e+003,1.179996e+001
1.222555e+003,1.088010e+001
1.223520e+003,7.724854e+000
1.224484e+003,3.202179e+000
1.225448e+003,1.130188e+000
1.226412e+003,2.929382e+000
1.227376e+003,4.097473e+000
1.228341e+003,4.169495e+000
1.229305e+003,4.036774e+000
1.230269e+003,4.243256e+000
1.231233e+003,4.548340e+000
1.232198e+003,4.487213e+000
1.233162e+003,4.014404e+000
1.234126e+003,3.355835e+000
1.235090e+003,2.240845e+000
1.236055e+003,1.200714e+000
1.237019e+003,8.724365e-001
1.237983e+003,1.053253e+000
1.238947e+003,1.303864e+000
1.239911e+003,1.523407e+000
1.240876e+003,1.984192e+000
1.241840e+003,3.155304e+000
1.242804e+003,5.156921e+000
1.243768e+003,5.872437e+000
1.244733e+003,4.090973e+000
1.245697e+003,2.555603e+000
1.246661e+003,6.171875e-001
1.247625e+003,-5.791626e-001
1.248590e+003,4.367065e-001
1.249554e+003,3.147827e+000
1.250518e+003,5.832855e+000
1.251482e+003,7.709961e+000
1.252447e+003,8.422852e+000
1.253411e+003,6.994812e+000
1.254375e+003,4.589325e+000
1.255339e+003,3.352112e+000
1.256303e+003,3.472687e+000
1.257268e+003,4.793304e+000
1.258232e+003,7.366669e+000
1.259196e+003,1.048227e+001
1.260160e+003,1.320529e+001
1.261125e+003,1.581598e+001
1.262089e+003,1.713632e+001
1.263053e+003,1.540170e+001
1.264017e+003,1.402689e+001
1.264982e+003,1.358148e+001
1.265946e+003,1.413562e+001
1.266910e+003,1.610855e+001
1.267874e+003,1.911456e+001
1.268839e+003,2.235782e+001
1.269803e+003,2.534323e+001
1.270767e+003,2.732117e+001
1.271731e+003,2.647150e+001
1.272695e+003,2.293161e+001
1.273660e+003,2.025189e+001
1.274624e+003,1.845679e+001
1.275588e+003,1.694519e+001
1.276552e+003,1.590317e+001
1.277517e+003,1.503345e+001
1.278481e+003,1.320380e+001
1.279445e+003,1.014410e+001
1.280409e+003,8.417206e+000
1.281374e+003,1.027402e+001
1.282338e+003,1.177808e+001
1.283302e+003,1.033978e+001
1.284266e+003,7.771790e+000
1.285230e+003,5.972443e+000
1.286195e+003,5.333038e+000
1.287159e+003,5.468018e+000
1.288123e+003,6.142822e+000
1.289087e+003,7.010254e+000
1.290052e+003,6.604889e+000
1.291016e+003,4.021576e+000
1.291980e+003,3.055298e+000
1.292944e+003,5.203461e+000
1.293909e+003,6.593903e+000
1.294873e+003,5.305450e+000
1.295837e+003,2.916016e+000
1.296801e+003,1.351685e+000
1.297766e+003,9.330750e-001
1.298730e+003,1.410339e+000
1.299694e+003,2.892395e+000
1.300658e+003,4.551605e+000
1.301622e+003,5.977875e+000
1.302587e+003,6.935913e+000
1.303551e+003,6.663879e+000
1.304515e+003,5.196625e+000
1.305479e+003,3.634644e+000
1.306444e+003,2.713806e+000
1.307408e+003,2.315704e+000
1.308372e+003,2.415009e+000
1.309336e+003,3.362518e+000
1.310301e+003,3.667633e+000
1.311265e+003,2.842468e+000
1.312229e+003,2.083832e+000
1.313193e+003,1.089050e+000
1.314157e+003,6.923218e-001
1.315122e+003,2.599243e+000
1.316086e+003,6.137482e+000
1.317050e+003,8.093842e+000
1.318014e+003,6.335724e+000
1.318979e+003,2.832001e+000
1.319943e+003,7.751770e-001
1.320907e+003,1.631165e-001
1.321871e+003,-1.289978e-001
1.322836e+003,-4.159241e-001
1.323800e+003,-1.822815e-001
1.324764e+003,1.596375e+000
1.325728e+003,3.748230e+000
1.326693e+003,3.840118e+000
1.327657e+003,1.677734e+000
1.328621e+003,2.528381e-001
1.329585e+003,1.097137e+000
1.330549e+003,2.458527e+000
1.331514e+003,3.413696e+000
1.332478e+003,3.723328e+000
1.333442e+003,2.912201e+000
1.334406e+003,1.426819e+000
1.335371e+003,2.046814e-001
1.336335e+003,-1.487122e-001
1.337299e+003,7.511597e-001
1.338263e+003,3.855743e+000
1.339228e+003,9.783386e+000
1.340192e+003,1.209140e+001
1.341156e+003,7.374481e+000
1.342120e+003,4.299744e+000
1.343084e+003,5.590576e+000
1.344049e+003,7.314545e+000
1.345013e+003,5.654877e+000
1.345977e+003,1.841522e+000
1.346941e+003,2.677002e-001
1.347906e+003,2.592377e+000
1.348870e+003,5.710754e+000
1.349834e+003,6.989380e+000
1.350798e+003,6.842834e+000
1.351763e+003,6.353149e+000
1.352727e+003,5.585358e+000
1.353691e+003,4.434418e+000
1.354655e+003,2.611298e+000
1.355620e+003,1.335602e+000
1.356584e+003,2.976288e+000
1.357548e+003,6.998840e+000
1.358512e+003,7.585388e+000
1.359476e+003,2.392639e+000
1.360441e+003,-1.152191e+000
1.361405e+003,1.271667e-001
1.362369e+003,2.199615e+000
1.363333e+003,3.749451e+000
1.364298e+003,4.565674e+000
1.365262e+003,4.383881e+000
1.366226e+003,3.370789e+000
1.367190e+003,2.372070e+000
1.368155e+003,2.146240e+000
1.369119e+003,2.409851e+000
1.370083e+003,2.256439e+000
1.371047e+003,1.453369e+000
1.372011e+003,1.752136e+000
1.372976e+003,3.977325e+000
1.373940e+003,5.808990e+000
1.374904e+003,6.223328e+000
1.375868e+003,6.037476e+000
1.376833e+003,6.209076e+000
1.377797e+003,6.749237e+000
1.378761e+003,7.164093e+000
1.379725e+003,7.304443e+000
1.380690e+003,7.220703e+000
1.381654e+003,6.449921e+000
1.382618e+003,5.827240e+000
1.383582e+003,6.904694e+000
1.384547e+003,9.476471e+000
1.385511e+003,1.162433e+001
1.386475e+003,1.235532e+001
1.387439e+003,1.203854e+001
1.388403e+003,1.108661e+001
1.389368e+003,9.485260e+000
1.390332e+003,7.919556e+000
1.391296e+003,6.001678e+000
1.392260e+003,5.217957e+000
1.393225e+003,6.482758e+000
1.394189e+003,8.109436e+000
1.395153e+003,9.798370e+000
1.396117e+003,1.094135e+001
1.397082e+003,1.029187e+001
1.398046e+003,8.012299e+000
1.399010e+003,6.347076e+000
1.399974e+003,7.310242e+000
1.400938e+003,9.658417e+000
1.401903e+003,9.893982e+000
1.402867e+003,7.617126e+000
1.403831e+003,7.016846e+000
1.404795e+003,9.421082e+000
1.405760e+003,1.121896e+001
1.406724e+003,9.674164e+000
1.407688e+003,7.376251e+000
1.408652e+003,8.495178e+000
1.409617e+003,1.259985e+001
1.410581e+003,1.473407e+001
1.411545e+003,1.264362e+001
1.412509e+003,9.752533e+000
1.413474e+003,9.157593e+000
1.414438e+003,9.726624e+000
1.415402e+003,1.001141e+001
1.416366e+003,1.012350e+001
1.417330e+003,1.020847e+001
1.418295e+003,1.028873e+001
1.419259e+003,1.050259e+001
1.420223e+003,1.124335e+001
1.421187e+003,1.218146e+001
1.422152e+003,1.160501e+001
1.423116e+003,8.890778e+000
1.424080e+003,7.235077e+000
1.425044e+003,7.804871e+000
1.426009e+003,9.013336e+000
1.426973e+003,1.102997e+001
1.427937e+003,1.283221e+001
1.428901e+003,1.282852e+001
1.429865e+003,1.143402e+001
1.430830e+003,1.101517e+001
1.431794e+003,1.301465e+001
1.432758e+003,1.556470e+001
1.433722e+003,1.499329e+001
1.434687e+003,1.110562e+001
1.435651e+003,9.888855e+000
1.436615e+003,1.334540e+001
1.437579e+003,1.534171e+001
1.438544e+003,1.435077e+001
1.439508e+003,1.292365e+001
1.440472e+003,1.276907e+001
1.441436e+003,1.364340e+001
1.442401e+003,1.506818e+001
1.443365e+003,1.667154e+001
1.444329e+003,1.692194e+001
1.445293e+003,1.425351e+001
1.446257e+003,1.102939e+001
1.447222e+003,1.247479e+001
1.448186e+003,1.749417e+001
1.449150e+003,1.999142e+001
1.450114e+003,1.886606e+001
1.451079e+003,1.740131e+001
1.452043e+003,1.760333e+001
1.453007e+003,1.837741e+001
1.453971e+003,1.822794e+001
1.454936e+003,1.709366e+001
1.455900e+003,1.489816e+001
1.456864e+003,1.100833e+001
1.457828e+003,8.548859e+000
1.458792e+003,1.020087e+001
1.459757e+003,1.309399e+001
1.460721e+003,1.548267e+001
1.461685e+003,1.714722e+001
1.462649e+003,1.799182e+001
1.463614e+003,1.805768e+001
1.464578e+003,1.731458e+001
1.465542e+003,1.548148e+001
1.466506e+003,1.308087e+001
1.467471e+003,1.200302e+001
1.468435e+003,1.281006e+001
1.469399e+003,1.302188e+001
1.470363e+003,1.092807e+001
1.471328e+003,1.015057e+001
1.472292e+003,1.278622e+001
1.473256e+003,1.540311e+001
1.474220e+003,1.522046e+001
1.475184e+003,1.355099e+001
1.476149e+003,1.333420e+001
1.477113e+003,1.523926e+001
1.478077e+003,1.711969e+001
1.479041e+003,1.700891e+001
1.480006e+003,1.564560e+001
1.480970e+003,1.508972e+001
1.481934e+003,1.521143e+001
1.482898e+003,1.607239e+001
1.483863e+003,1.849652e+001
1.484827e+003,2.033252e+001
1.485791e+003,2.089069e+001
1.486755e+003,2.101306e+001
1.487719e+003,2.117657e+001
1.488684e+003,2.142886e+001
1.489648e+003,2.163483e+001
1.490612e+003,2.187738e+001
1.491576e+003,2.333447e+001
1.492541e+003,2.742325e+001
1.493505e+003,3.235443e+001
1.494469e+003,3.355698e+001
1.495433e+003,3.162650e+001
1.496398e+003,3.153006e+001
1.497362e+003,3.462042e+001
1.498326e+003,3.796695e+001
1.499290e+003,3.998541e+001
1.500255e+003,4.139493e+001
1.501219e+003,4.248694e+001
1.502183e+003,4.359641e+001
1.503147e+003,4.692807e+001
1.504111e+003,5.332852e+001
1.505076e+003,6.007062e+001
1.506040e+003,6.567899e+001
1.507004e+003,7.090366e+001
1.507968e+003,7.554459e+001
1.508933e+003,8.066898e+001
1.509897e+003,8.902649e+001
1.510861e+003,1.011880e+002
1.511825e+003,1.137883e+002
1.512790e+003,1.240053e+002
1.513754e+003,1.335444e+002
1.514718e+003,1.461326e+002
1.515682e+003,1.615753e+002
1.516646e+003,1.769868e+002
1.517611e+003,1.926007e+002
1.518575e+003,2.075779e+002
1.519539e+003,2.215214e+002
1.520503e+003,2.352791e+002
1.521468e+003,2.504366e+002
1.522432e+003,2.649818e+002
1.523396e+003,2.770562e+002
1.524360e+003,2.856392e+002
1.525325e+003,2.896563e+002
1.526289e+003,2.884126e+002
1.527253e+003,2.829946e+002
1.528217e+003,2.749953e+002
1.529182e+003,2.645483e+002
1.530146e+003,2.540941e+002
1.531110e+003,2.450645e+002
1.532074e+003,2.328285e+002
1.533039e+003,2.153055e+002
1.534003e+003,1.960906e+002
1.534967e+003,1.763029e+002
1.535931e+003,1.568059e+002
1.536896e+003,1.381880e+002
1.537860e+003,1.205886e+002
1.538824e+003,1.032525e+002
1.539788e+003,8.587366e+001
1.540752e+003,7.053680e+001
1.541717e+003,6.009897e+001
1.542681e+003,5.411188e+001
1.543645e+003,4.869974e+001
1.544609e+003,4.414401e+001
1.545573e+003,4.004706e+001
1.546538e+003,3.598361e+001
1.547502e+003,3.240921e+001
1.548466e+003,2.931866e+001
1.549430e+003,2.735956e+001
1.550395e+003,2.798981e+001
1.551359e+003,3.000806e+001
1.552323e+003,3.007022e+001
1.553287e+003,2.713858e+001
1.554252e+003,2.360837e+001
1.555216e+003,2.142041e+001
1.556180e+003,2.040305e+001
1.557144e+003,2.051993e+001
1.558109e+003,2.187619e+001
1.559073e+003,2.211966e+001
1.560037e+003,2.035089e+001
1.561001e+003,1.872189e+001
1.561966e+003,1.815402e+001
1.562930e+003,1.827359e+001
1.563894e+003,1.885962e+001
1.564858e+003,1.960825e+001
1.565823e+003,2.008600e+001
1.566787e+003,2.016144e+001
1.567751e+003,1.948862e+001
1.568715e+003,1.763223e+001
1.569679e+003,1.590158e+001
1.570644e+003,1.609961e+001
1.571608e+003,1.750314e+001
1.572572e+003,1.831711e+001
1.573536e+003,1.859323e+001
1.574500e+003,1.874011e+001
1.575465e+003,1.844363e+001
1.576429e+003,1.861948e+001
1.577393e+003,2.083023e+001
1.578357e+003,2.356479e+001
1.579322e+003,2.339346e+001
1.580286e+003,2.044382e+001
1.581250e+003,1.896829e+001
1.582214e+003,2.071216e+001
1.583179e+003,2.235825e+001
1.584143e+003,2.073303e+001
1.585107e+003,1.819138e+001
1.586071e+003,1.830527e+001
1.587036e+003,2.048315e+001
1.588000e+003,2.235571e+001
1.588964e+003,2.330475e+001
1.589928e+003,2.385779e+001
1.590893e+003,2.432846e+001
1.591857e+003,2.468683e+001
1.592821e+003,2.495621e+001
1.593785e+003,2.512155e+001
1.594750e+003,2.475497e+001
1.595714e+003,2.356244e+001
1.596678e+003,2.288290e+001
1.597642e+003,2.326480e+001
1.598606e+003,2.436987e+001
1.599571e+003,2.692355e+001
1.600535e+003,2.950906e+001
1.601499e+003,2.978976e+001
1.602463e+003,2.804123e+001
1.603427e+003,2.664706e+001
1.604392e+003,2.658002e+001
1.605356e+003,2.712637e+001
1.606320e+003,2.788724e+001
1.607284e+003,2.861200e+001
1.608249e+003,2.823761e+001
1.609213e+003,2.669699e+001
1.610177e+003,2.656415e+001
1.611141e+003,2.933386e+001
1.612106e+003,3.086273e+001
1.613070e+003,2.742682e+001
1.614034e+003,2.354617e+001
1.614998e+003,2.270825e+001
1.615963e+003,2.362134e+001
1.616927e+003,2.390262e+001
1.617891e+003,2.315729e+001
1.618855e+003,2.232776e+001
1.619820e+003,2.187619e+001
1.620784e+003,2.157837e+001
1.621748e+003,2.118259e+001
1.622712e+003,2.106552e+001
1.623677e+003,2.279263e+001
1.624641e+003,2.713110e+001
1.625605e+003,2.878671e+001
1.626569e+003,2.448801e+001
1.627533e+003,2.009195e+001
1.628498e+003,1.789938e+001
1.629462e+003,1.761859e+001
1.630426e+003,2.020654e+001
1.631390e+003,2.412750e+001
1.632354e+003,2.640170e+001
1.633319e+003,2.629816e+001
1.634283e+003,2.487958e+001
1.635247e+003,2.263196e+001
1.636211e+003,2.035059e+001
1.637176e+003,1.970383e+001
1.638140e+003,2.064935e+001
1.639104e+003,2.150867e+001
1.640068e+003,2.232956e+001
1.641033e+003,2.237122e+001
1.641997e+003,2.084589e+001
1.642961e+003,1.952664e+001
1.643925e+003,1.909985e+001
1.644890e+003,1.938281e+001
1.645854e+003,2.039276e+001
1.646818e+003,2.186456e+001
1.647782e+003,2.346155e+001
1.648747e+003,2.500079e+001
1.649711e+003,2.589490e+001
1.650675e+003,2.564200e+001
1.651639e+003,2.482498e+001
1.652604e+003,2.445309e+001
1.653568e+003,2.441748e+001
1.654532e+003,2.408688e+001
1.655496e+003,2.326590e+001
1.656460e+003,2.280521e+001
1.657425e+003,2.390280e+001
1.658389e+003,2.422543e+001
1.659353e+003,2.127127e+001
1.660317e+003,1.786572e+001
1.661281e+003,1.749191e+001
1.662246e+003,1.931393e+001
1.663210e+003,2.013657e+001
1.664174e+003,1.898505e+001
1.665138e+003,1.755203e+001
1.666103e+003,1.717975e+001
1.667067e+003,1.737646e+001
1.668031e+003,1.714426e+001
1.668995e+003,1.658936e+001
1.669960e+003,1.691208e+001
1.670924e+003,1.858389e+001
1.671888e+003,1.969238e+001
1.672852e+003,1.967120e+001
1.673817e+003,1.871045e+001
1.674781e+003,1.566943e+001
1.675745e+003,1.271494e+001
1.676709e+003,1.283005e+001
1.677674e+003,1.514886e+001
1.678638e+003,1.649841e+001
1.679602e+003,1.589581e+001
1.680566e+003,1.469412e+001
1.681531e+003,1.392001e+001
1.682495e+003,1.338919e+001
1.683459e+003,1.255136e+001
1.684423e+003,1.140784e+001
1.685387e+003,1.060959e+001
1.686352e+003,1.033252e+001
1.687316e+003,9.808197e+000
1.688280e+003,8.467804e+000
1.689244e+003,7.417633e+000
1.690208e+003,7.682770e+000
1.691173e+003,8.463348e+000
1.692137e+003,9.044922e+000
1.693101e+003,9.553925e+000
1.694065e+003,1.028345e+001
1.695030e+003,1.118997e+001
1.695994e+003,1.157855e+001
1.696958e+003,1.094540e+001
1.697922e+003,9.834106e+000
1.698887e+003,8.575806e+000
1.699851e+003,7.480896e+000
1.700815e+003,7.674805e+000
1.701779e+003,9.133087e+000
1.702744e+003,9.841919e+000
1.703708e+003,9.181641e+000
1.704672e+003,8.308716e+000
1.705636e+003,7.706787e+000
1.706601e+003,7.286591e+000
1.707565e+003,7.356964e+000
1.708529e+003,7.798187e+000
1.709493e+003,7.883026e+000
1.710458e+003,7.493195e+000
1.711422e+003,6.860626e+000
1.712386e+003,6.299103e+000
1.713350e+003,5.504547e+000
1.714314e+003,3.285126e+000
1.715279e+003,9.246216e-001
1.716243e+003,1.518066e+000
1.717207e+003,4.370880e+000
1.718171e+003,4.653412e+000
1.719135e+003,1.068298e+000
1.720100e+003,-1.195953e+000
1.721064e+003,1.791138e+000
1.722028e+003,6.134796e+000
1.722992e+003,6.144379e+000
1.723957e+003,2.834808e+000
1.724921e+003,1.274902e+000
1.725885e+003,1.459991e+000
1.726849e+003,1.537659e+000
1.727814e+003,1.395172e+000
1.728778e+003,1.408508e+000
1.729742e+003,2.007477e+000
1.730706e+003,2.486206e+000
1.731671e+003,1.836670e+000
1.732635e+003,3.637390e-001
1.733599e+003,-1.100861e+000
1.734563e+003,-2.119232e+000
1.735528e+003,-2.250427e+000
1.736492e+003,-1.335693e+000
1.737456e+003,2.136230e-002
1.738420e+003,1.238342e+000
1.739385e+003,1.917480e+000
1.740349e+003,8.572998e-001
1.741313e+003,-2.532043e+000
1.742277e+003,-4.075989e+000
1.743241e+003,-2.334076e+000
1.744206e+003,-9.058228e-001
1.745170e+003,-5.082703e-001
1.746134e+003,-3.642883e-001
1.747098e+003,-1.401978e-001
1.748063e+003,1.146545e-001
1.749027e+003,4.223938e-001
1.749991e+003,6.907959e-001
1.750955e+003,5.469666e-001
1.751919e+003,-4.919434e-002
1.752884e+003,-3.423157e-001
1.753848e+003,3.142090e-001
1.754812e+003,1.129517e+000
1.755776e+003,5.630188e-001
1.756741e+003,-1.215363e+000
1.757705e+003,-3.010712e+000
1.758669e+003,-5.601105e+000
1.759633e+003,-6.214813e+000
1.760598e+003,-2.933624e+000
1.761562e+003,-2.106018e-001
1.762526e+003,8.704224e-001
1.763490e+003,9.955139e-001
1.764455e+003,8.792114e-002
1.765419e+003,-1.101318e+000
1.766383e+003,-1.686371e+000
1.767347e+003,-1.594269e+000
1.768312e+003,-8.911133e-001
1.769276e+003,3.804321e-001
1.770240e+003,1.015839e+000
1.771204e+003,-4.469299e-001
1.772168e+003,-2.790039e+000
1.773133e+003,-3.239105e+000
1.774097e+003,-2.063904e+000
1.775061e+003,-2.128387e+000
1.776025e+003,-4.080292e+000
1.776990e+003,-5.591797e+000
1.777954e+003,-5.745087e+000
1.778918e+003,-5.130188e+000
1.779882e+003,-3.918091e+000
1.780846e+003,-2.633118e+000
1.781811e+003,-1.705078e+000
1.782775e+003,-1.130280e+000
1.783739e+003,-1.207001e+000
1.784703e+003,-2.032654e+000
1.785668e+003,-2.266571e+000
1.786632e+003,-1.237335e+000
1.787596e+003,3.298950e-002
1.788560e+003,1.402496e+000
1.789525e+003,2.515747e+000
1.790489e+003,2.245941e+000
1.791453e+003,1.067871e+000
1.792417e+003,9.695129e-001
1.793382e+003,2.227844e+000
1.794346e+003,2.893311e+000
1.795310e+003,1.870575e+000
1.796274e+003,3.835144e-001
1.797239e+003,-3.848267e-002
1.798203e+003,2.954712e-001
1.799167e+003,-3.099365e-001
1.800131e+003,-2.566467e+000
1.801095e+003,-2.982971e+000
1.802060e+003,1.302551e+000
1.803024e+003,3.239899e+000
1.803988e+003,8.908081e-002
1.804952e+003,-3.195282e+000
1.805917e+003,-4.786102e+000
1.806881e+003,-4.960968e+000
1.807845e+003,-3.091980e+000
1.808809e+003,-4.789734e-001
1.809773e+003,2.053223e-001
1.810738e+003,-1.268402e+000
1.811702e+003,-2.383453e+000
1.812666e+003,-1.593445e+000
1.813630e+003,-2.071228e-001
1.814595e+003,1.440430e-002
1.815559e+003,-6.737061e-001
1.816523e+003,-1.095825e+000
1.817487e+003,-1.203278e+000
1.818452e+003,-1.142944e+000
1.819416e+003,-6.708984e-001
1.820380e+003,-4.052429e-001
1.821344e+003,-1.201294e+000
1.822309e+003,-1.544037e+000
1.823273e+003,5.505371e-001
1.824237e+003,2.862549e+000
1.825201e+003,2.652008e+000
1.826166e+003,7.054749e-001
1.827130e+003,-4.494019e-001
1.828094e+003,-4.481506e-001
1.829058e+003,-9.916992e-001
1.830022e+003,-3.319855e+000
1.830987e+003,-5.229462e+000
1.831951e+003,-4.305542e+000
1.832915e+003,-2.281616e+000
1.833879e+003,-1.680969e+000
1.834844e+003,-2.207825e+000
1.835808e+003,-2.533478e+000
1.836772e+003,-2.471619e+000
1.837736e+003,-2.891418e+000
1.838700e+003,-4.263824e+000
1.839665e+003,-5.539795e+000
1.840629e+003,-5.691711e+000
1.841593e+003,-5.063202e+000
1.842557e+003,-4.536987e+000
1.843522e+003,-4.107391e+000
1.844486e+003,-2.687225e+000
1.845450e+003,1.836487e+000
1.846414e+003,3.528046e+000
1.847379e+003,-6.220703e-001
1.848343e+003,-3.913757e+000
1.849307e+003,-3.957886e+000
1.850271e+003,-2.790710e+000
1.851236e+003,-9.955750e-001
1.852200e+003,5.798340e-001
1.853164e+003,4.783936e-001
1.854128e+003,-9.680481e-001
1.855093e+003,-1.832245e+000
1.856057e+003,-1.332062e+000
1.857021e+003,-7.430725e-001
1.857985e+003,-1.281921e+000
1.858949e+003,-2.075562e+000
1.859914e+003,-1.261505e+000
1.860878e+003,7.838135e-001
1.861842e+003,1.559662e+000
1.862806e+003,9.685974e-001
1.863771e+003,5.901794e-001
1.864735e+003,5.488892e-001
1.865699e+003,1.181488e+000
1.866663e+003,3.398804e+000
1.867627e+003,5.110077e+000
1.868592e+003,3.773010e+000
1.869556e+003,8.746338e-001
1.870520e+003,-2.319946e-001
1.871484e+003,5.587769e-002
1.872449e+003,-1.212128e+000
1.873413e+003,-4.913696e+000
1.874377e+003,-6.318817e+000
1.875341e+003,-2.519165e+000
1.876306e+003,1.186493e+000
1.877270e+003,1.831116e+000
1.878234e+003,1.090027e+000
1.879198e+003,4.047241e-001
1.880163e+003,-1.086121e-001
1.881127e+003,-9.984131e-001
1.882091e+003,-1.865143e+000
1.883055e+003,-6.527710e-001
1.884020e+003,3.132660e+000
1.884984e+003,6.065643e+000
1.885948e+003,4.985107e+000
1.886912e+003,1.863647e+000
1.887876e+003,5.797729e-001
1.888841e+003,1.044922e+000
1.889805e+003,2.227966e+000
1.890769e+003,4.414459e+000
1.891733e+003,5.784271e+000
1.892698e+003,6.007263e+000
1.893662e+003,5.474243e+000
1.894626e+003,3.592987e+000
1.895590e+003,2.044861e+000
1.896554e+003,3.003265e+000
1.897519e+003,4.355713e+000
1.898483e+003,2.748016e+000
1.899447e+003,-8.992615e-001
1.900411e+003,-2.623169e+000
1.901376e+003,-1.637939e+000
1.902340e+003,-4.472656e-001
1.903304e+003,2.991028e-001
1.904268e+003,5.146179e-001
1.905233e+003,-4.270325e-001
1.906197e+003,-1.277161e+000
1.907161e+003,-2.020569e-001
1.908125e+003,1.693817e+000
1.909090e+003,2.123810e+000
1.910054e+003,1.056488e+000
1.911018e+003,-2.035828e-001
1.911982e+003,-1.037628e+000
1.912947e+003,-1.260956e+000
1.913911e+003,-7.815552e-001
1.914875e+003,2.544250e-001
1.915839e+003,1.677948e+000
1.916803e+003,3.148895e+000
1.917768e+003,3.274200e+000
1.918732e+003,1.792114e+000
1.919696e+003,1.425201e+000
1.920660e+003,2.830750e+000
1.921625e+003,3.785217e+000
1.922589e+003,3.173706e+000
1.923553e+003,2.874390e+000
1.924517e+003,4.998840e+000
1.925481e+003,6.887115e+000
1.926446e+003,5.626770e+000
1.927410e+003,2.669830e+000
1.928374e+003,6.151733e-001
1.929338e+003,-3.617554e-001
1.930303e+003,-3.210449e-001
1.931267e+003,1.400116e+000
1.932231e+003,2.653168e+000
1.933195e+003,1.453583e+000
1.934160e+003,3.558655e-001
1.935124e+003,2.175659e+000
1.936088e+003,4.301300e+000
1.937052e+003,3.045288e+000
1.938017e+003,-1.602478e-001
1.938981e+003,-1.931213e+000
1.939945e+003,-1.736267e+000
1.940909e+003,-7.089539e-001
1.941874e+003,4.821777e-001
1.942838e+003,1.399109e+000
1.943802e+003,1.755005e+000
1.944766e+003,1.776031e+000
1.945730e+003,1.503448e+000
1.946695e+003,9.664307e-001
1.947659e+003,1.436340e+000
1.948623e+003,3.060028e+000
1.949587e+003,3.443909e+000
1.950552e+003,1.994049e+000
1.951516e+003,1.064819e+000
1.952480e+003,1.660431e+000
1.953444e+003,2.442474e+000
1.954408e+003,2.406433e+000
1.955373e+003,1.950073e+000
1.956337e+003,1.711182e+000
1.957301e+003,1.798431e+000
1.958265e+003,2.110168e+000
1.959230e+003,2.678833e+000
1.960194e+003,3.346222e+000
1.961158e+003,4.180084e+000
1.962122e+003,4.509552e+000
1.963087e+003,3.174225e+000
1.964051e+003,2.562836e+000
1.965015e+003,5.880219e+000
1.965979e+003,9.224304e+000
1.966944e+003,7.251740e+000
1.967908e+003,2.627655e+000
1.968872e+003,1.309143e+000
1.969836e+003,3.509186e+000
1.970801e+003,4.664764e+000
1.971765e+003,2.935028e+000
1.972729e+003,1.377838e+000
1.973693e+003,2.714691e+000
1.974657e+003,5.164154e+000
1.975622e+003,5.996521e+000
1.976586e+003,5.769440e+000
1.977550e+003,6.186188e+000
1.978514e+003,7.200531e+000
1.979479e+003,8.330383e+000
1.980443e+003,9.373444e+000
1.981407e+003,8.669678e+000
1.982371e+003,5.542786e+000
1.983335e+003,2.626709e+000
1.984300e+003,1.763000e+000
1.985264e+003,2.470459e+000
1.986228e+003,4.450226e+000
1.987192e+003,7.059021e+000
1.988157e+003,6.688477e+000
1.989121e+003,2.160828e+000
1.990085e+003,1.225708e+000
1.991049e+003,7.027161e+000
1.992014e+003,1.021255e+001
1.992978e+003,7.684814e+000
1.993942e+003,4.951965e+000
1.994906e+003,3.279877e+000
1.995871e+003,2.693390e+000
1.996835e+003,4.312134e+000
1.997799e+003,6.467133e+000
1.998763e+003,6.192627e+000
1.999728e+003,3.985748e+000
