5.003444e+002,1.661622e+002
5.013087e+002,1.648058e+002
5.022729e+002,1.646213e+002
5.032371e+002,1.653735e+002
5.042014e+002,1.638047e+002
5.051656e+002,1.603875e+002
5.061298e+002,1.563248e+002
5.070941e+002,1.524132e+002
5.080583e+002,1.481290e+002
5.090225e+002,1.451033e+002
5.099868e+002,1.445000e+002
5.109510e+002,1.434967e+002
5.119152e+002,1.400344e+002
5.128795e+002,1.338490e+002
5.138437e+002,1.294889e+002
5.148079e+002,1.302710e+002
5.157722e+002,1.318645e+002
5.167364e+002,1.326259e+002
5.177006e+002,1.319835e+002
5.186649e+002,1.302915e+002
5.196291e+002,1.282642e+002
5.205933e+002,1.265211e+002
5.215576e+002,1.248655e+002
5.225218e+002,1.227465e+002
5.234860e+002,1.196172e+002
5.244503e+002,1.150422e+002
5.254145e+002,1.091031e+002
5.263787e+002,1.062386e+002
5.273430e+002,1.080822e+002
5.283072e+002,1.118721e+002
5.292714e+002,1.134907e+002
5.302357e+002,1.106466e+002
5.311999e+002,1.083826e+002
5.321641e+002,1.094736e+002
5.331284e+002,1.112078e+002
5.340926e+002,1.111523e+002
5.350568e+002,1.080319e+002
5.360211e+002,1.031515e+002
5.369853e+002,9.700476e+001
5.379495e+002,9.157153e+001
5.389138e+002,8.888049e+001
5.398780e+002,8.931482e+001
5.408422e+002,9.115491e+001
5.418065e+002,8.920422e+001
5.427707e+002,8.421326e+001
5.437349e+002,8.247363e+001
5.446992e+002,8.680518e+001
5.456634e+002,9.456580e+001
5.466276e+002,9.657617e+001
5.475919e+002,8.493567e+001
5.485561e+002,7.751318e+001
5.495203e+002,7.743030e+001
5.504846e+002,8.058521e+001
5.514488e+002,8.116309e+001
5.524130e+002,7.653247e+001
5.533773e+002,7.162085e+001
5.543415e+002,6.838220e+001
5.553057e+002,6.654382e+001
5.562700e+002,6.610229e+001
5.572342e+002,6.694092e+001
5.581984e+002,6.798975e+001
5.591627e+002,6.722546e+001
5.601269e+002,6.547974e+001
5.610911e+002,6.327905e+001
5.620554e+002,6.066174e+001
5.630196e+002,5.746106e+001
5.639838e+002,5.436401e+001
5.649481e+002,5.055347e+001
5.659123e+002,4.806836e+001
5.668765e+002,4.896143e+001
5.678408e+002,5.235309e+001
5.688050e+002,5.463910e+001
5.697692e+002,5.268488e+001
5.707335e+002,5.071954e+001
5.716977e+002,5.132538e+001
5.726619e+002,5.278168e+001
5.736262e+002,5.265796e+001
5.745904e+002,4.926660e+001
5.755546e+002,4.439099e+001
5.765189e+002,3.911121e+001
5.774831e+002,3.392358e+001
5.784473e+002,3.094055e+001
5.794116e+002,3.185547e+001
5.803758e+002,3.662732e+001
5.813400e+002,3.949261e+001
5.823043e+002,3.937030e+001
5.832685e+002,3.851715e+001
5.842327e+002,3.879523e+001
5.851970e+002,4.013885e+001
5.861612e+002,3.940265e+001
5.871254e+002,3.016962e+001
5.880897e+002,2.474072e+001
5.890539e+002,2.893286e+001
5.900181e+002,3.749902e+001
5.909824e+002,4.130664e+001
5.919466e+002,3.315649e+001
5.929108e+002,2.246399e+001
5.938751e+002,1.929395e+001
5.948393e+002,2.088147e+001
5.958035e+002,2.347723e+001
5.967678e+002,2.438129e+001
5.977320e+002,2.401776e+001
5.986962e+002,2.356525e+001
5.996605e+002,2.231232e+001
6.006247e+002,2.103583e+001
6.015889e+002,2.006067e+001
6.025532e+002,1.946777e+001
6.035174e+002,1.931140e+001
6.044816e+002,2.067712e+001
6.054459e+002,2.151331e+001
6.064101e+002,2.110730e+001
6.073743e+002,1.997046e+001
6.083386e+002,1.916064e+001
6.093028e+002,1.950922e+001
6.102670e+002,2.010089e+001
6.112313e+002,1.987396e+001
6.121955e+002,1.930109e+001
6.131597e+002,1.903778e+001
6.141240e+002,1.950604e+001
6.150882e+002,2.040778e+001
6.160524e+002,2.109058e+001
6.170167e+002,2.187695e+001
6.179809e+002,2.205701e+001
6.189451e+002,2.058203e+001
6.199094e+002,1.755737e+001
6.208736e+002,1.603247e+001
6.218378e+002,1.862903e+001
6.228021e+002,2.111829e+001
6.237663e+002,2.437555e+001
6.247305e+002,2.720319e+001
6.256948e+002,2.693402e+001
6.266590e+002,2.022076e+001
6.276232e+002,1.415118e+001
6.285875e+002,1.412848e+001
6.295517e+002,1.711035e+001
6.305159e+002,2.023291e+001
6.314802e+002,2.162756e+001
6.324444e+002,2.116675e+001
6.334086e+002,1.768738e+001
6.343729e+002,1.286401e+001
6.353371e+002,1.062219e+001
6.363013e+002,1.251892e+001
6.372656e+002,1.720844e+001
6.382298e+002,2.044843e+001
6.391940e+002,2.252655e+001
6.401583e+002,2.169562e+001
6.411225e+002,1.728888e+001
6.420867e+002,1.160712e+001
6.430510e+002,6.455627e+000
6.440152e+002,1.333191e+000
6.449794e+002,-2.026855e+000
6.459437e+002,-1.475281e+000
6.469079e+002,-4.718018e-002
6.478721e+002,-2.276001e-001
6.488364e+002,-2.575012e+000
6.498006e+002,-5.046387e+000
6.507648e+002,-3.713013e+000
6.517291e+002,-1.716919e-001
6.526933e+002,2.136780e+000
6.536575e+002,2.500793e+000
6.546218e+002,1.754517e+000
6.555860e+002,1.646790e+000
6.565502e+002,3.425354e+000
6.575145e+002,2.549866e+000
6.584787e+002,-3.350525e+000
6.594429e+002,-9.565735e+000
6.604072e+002,-1.209631e+001
6.613714e+002,-1.006549e+001
6.623356e+002,-7.735962e+000
6.632999e+002,-7.104309e+000
6.642641e+002,-7.469971e+000
6.652283e+002,-8.689026e+000
6.661926e+002,-1.008942e+001
6.671568e+002,-1.055707e+001
6.681210e+002,-8.689514e+000
6.690853e+002,-5.711975e+000
6.700495e+002,-4.451965e+000
6.710137e+002,-4.823364e+000
6.719780e+002,-5.221191e+000
6.729422e+002,-3.933594e+000
6.739064e+002,-7.172852e-001
6.748707e+002,1.400330e+000
6.758349e+002,2.827576e+000
6.767991e+002,2.873962e+000
6.777634e+002,8.508911e-001
6.787276e+002,-2.450745e+000
6.796918e+002,-4.141724e+000
6.806561e+002,-3.302490e+000
6.816203e+002,-1.368591e+000
6.825845e+002,2.964783e+000
6.835488e+002,7.665527e+000
6.845130e+002,9.097778e+000
6.854772e+002,4.208496e+000
6.864415e+002,-2.525452e+000
6.874057e+002,-1.288940e+000
6.883699e+002,4.920227e+000
6.893342e+002,1.056616e+001
6.902984e+002,1.283057e+001
6.912626e+002,1.212164e+001
6.922269e+002,1.007013e+001
6.931911e+002,4.856689e+000
6.941553e+002,2.533691e+000
6.951196e+002,4.797729e+000
6.960838e+002,8.789856e+000
6.970480e+002,1.010803e+001
6.980123e+002,6.736572e+000
6.989765e+002,4.395020e+000
6.999407e+002,6.263245e+000
7.009050e+002,9.112671e+000
7.018692e+002,1.032635e+001
7.028334e+002,8.993042e+000
7.037977e+002,6.463257e+000
7.047619e+002,5.717041e+000
7.057261e+002,5.717407e+000
7.066904e+002,2.190857e+000
7.076546e+002,-5.545776e+000
7.086188e+002,-1.313330e+001
7.095831e+002,-1.325623e+001
7.105473e+002,-2.360962e+000
7.115115e+002,3.913635e+000
7.124758e+002,3.785645e+000
7.134400e+002,1.562439e+000
7.144042e+002,-2.906494e-001
7.153685e+002,-1.402893e+000
7.163327e+002,-2.594849e+000
7.172969e+002,-4.962158e+000
7.182612e+002,-6.628357e+000
7.192254e+002,-6.896484e+000
7.201896e+002,-6.112244e+000
7.211539e+002,-4.883301e+000
7.221181e+002,-3.589600e+000
7.230823e+002,-2.243591e+000
7.240466e+002,-6.314087e-001
7.250108e+002,1.571045e+000
7.259750e+002,3.708862e+000
7.269393e+002,4.890015e+000
7.279035e+002,4.631470e+000
7.288677e+002,3.883484e+000
7.298320e+002,3.655823e+000
7.307962e+002,4.040588e+000
7.317604e+002,5.533508e+000
7.327247e+002,7.599609e+000
7.336889e+002,9.113281e+000
7.346531e+002,8.970032e+000
7.356174e+002,7.284729e+000
7.365816e+002,5.024719e+000
7.375458e+002,2.952515e+000
7.385101e+002,1.270813e+000
7.394743e+002,1.784668e-001
7.404385e+002,7.104492e-002
7.414028e+002,1.793152e+000
7.423670e+002,3.619629e+000
7.433312e+002,3.143311e+000
7.442955e+002,9.405518e-001
7.452597e+002,-1.513794e+000
7.462239e+002,-3.238647e+000
7.471882e+002,-4.673767e+000
7.481524e+002,-4.402039e+000
7.491166e+002,-2.168884e+000
7.500809e+002,-4.921875e-001
7.510451e+002,-2.875366e-001
7.520093e+002,-1.378113e+000
7.529736e+002,-2.989441e+000
7.539378e+002,-4.923706e+000
7.549020e+002,-5.415649e+000
7.558663e+002,-2.722534e+000
7.568306e+002,1.445679e+000
7.577948e+002,4.573608e+000
7.587590e+002,4.992737e+000
7.597233e+002,3.287415e+000
7.606875e+002,2.059937e+000
7.616517e+002,1.694336e+000
7.626160e+002,2.417725e+000
7.635802e+002,4.820190e+000
7.645444e+002,8.084106e+000
7.655087e+002,1.039178e+001
7.664729e+002,1.147028e+001
7.674371e+002,1.154956e+001
7.684014e+002,9.752625e+000
7.693656e+002,7.876526e+000
7.703298e+002,7.056091e+000
7.712941e+002,7.524902e+000
7.722583e+002,8.851379e+000
7.732225e+002,1.171106e+001
7.741868e+002,1.427380e+001
7.751510e+002,1.481958e+001
7.761152e+002,1.386377e+001
7.770795e+002,1.258069e+001
7.780437e+002,1.191467e+001
7.790079e+002,1.175415e+001
7.799722e+002,1.313458e+001
7.809364e+002,1.639612e+001
7.819006e+002,1.826453e+001
7.828649e+002,1.753107e+001
7.838291e+002,1.505676e+001
7.847933e+002,1.266742e+001
7.857576e+002,9.419373e+000
7.867218e+002,6.233215e+000
7.876860e+002,2.726257e+000
7.886503e+002,7.415771e-001
7.896145e+002,2.893494e+000
7.905787e+002,9.408630e+000
7.915430e+002,1.560956e+001
7.925072e+002,1.436938e+001
7.934714e+002,1.026068e+001
7.944357e+002,9.228638e+000
7.953999e+002,1.174823e+001
7.963641e+002,1.505548e+001
7.973284e+002,1.577405e+001
7.982926e+002,1.365759e+001
7.992568e+002,1.388574e+001
8.002211e+002,1.640741e+001
8.011853e+002,1.803479e+001
8.021495e+002,1.857593e+001
8.031138e+002,1.893213e+001
8.040780e+002,1.965985e+001
8.050422e+002,1.984015e+001
8.060065e+002,2.036469e+001
8.069707e+002,2.162262e+001
8.079349e+002,2.256110e+001
8.088992e+002,2.227356e+001
8.098634e+002,2.074841e+001
8.108276e+002,1.913458e+001
8.117919e+002,1.877411e+001
8.127561e+002,1.812811e+001
8.137203e+002,1.580719e+001
8.146846e+002,1.229626e+001
8.156488e+002,9.005005e+000
8.166130e+002,7.245056e+000
8.175773e+002,7.031006e+000
8.185415e+002,7.296204e+000
8.195057e+002,7.614380e+000
8.204700e+002,7.752502e+000
8.214342e+002,7.004761e+000
8.223984e+002,6.060608e+000
8.233627e+002,7.025879e+000
8.243269e+002,1.212225e+001
8.252911e+002,1.665356e+001
8.262554e+002,1.714539e+001
8.272196e+002,1.614185e+001
8.281838e+002,1.635803e+001
8.291481e+002,1.864117e+001
8.301123e+002,2.147845e+001
8.310765e+002,2.216193e+001
8.320408e+002,2.063727e+001
8.330050e+002,1.946112e+001
8.339692e+002,1.903467e+001
8.349335e+002,1.860144e+001
8.358977e+002,1.688885e+001
8.368619e+002,1.357568e+001
8.378262e+002,1.393585e+001
8.387904e+002,2.283569e+001
8.397546e+002,2.898657e+001
8.407189e+002,2.784479e+001
8.416831e+002,2.259375e+001
8.426473e+002,1.887543e+001
8.436116e+002,1.926776e+001
8.445758e+002,2.179828e+001
8.455400e+002,2.481403e+001
8.465043e+002,2.713287e+001
8.474685e+002,2.779376e+001
8.484327e+002,2.715082e+001
8.493970e+002,2.663824e+001
8.503612e+002,2.796753e+001
8.513254e+002,3.127441e+001
8.522897e+002,3.366669e+001
8.532539e+002,3.496198e+001
8.542181e+002,3.501068e+001
8.551824e+002,3.355347e+001
8.561466e+002,3.147943e+001
8.571108e+002,3.143604e+001
8.580751e+002,3.230377e+001
8.590393e+002,3.496991e+001
8.600035e+002,4.292480e+001
8.609678e+002,5.207312e+001
8.619320e+002,5.717804e+001
8.628962e+002,5.628351e+001
8.638605e+002,5.340045e+001
8.648247e+002,5.461139e+001
8.657889e+002,5.835187e+001
8.667532e+002,6.196075e+001
8.677174e+002,6.507434e+001
8.686816e+002,6.728223e+001
8.696459e+002,6.821667e+001
8.706101e+002,6.809827e+001
8.715743e+002,6.729565e+001
8.725386e+002,6.363074e+001
8.735028e+002,6.216711e+001
8.744670e+002,6.476172e+001
8.754313e+002,6.945856e+001
8.763955e+002,7.306000e+001
8.773597e+002,7.459406e+001
8.783240e+002,7.597235e+001
8.792882e+002,7.859515e+001
8.802524e+002,8.121613e+001
8.812167e+002,8.281342e+001
8.821809e+002,8.323938e+001
8.831451e+002,8.290308e+001
8.841094e+002,8.226135e+001
8.850736e+002,8.197510e+001
8.860378e+002,8.563269e+001
8.870021e+002,9.436780e+001
8.879663e+002,1.014197e+002
8.889305e+002,1.013032e+002
8.898948e+002,9.556049e+001
8.908590e+002,9.322089e+001
8.918232e+002,9.746149e+001
8.927875e+002,1.020859e+002
8.937517e+002,1.066132e+002
8.947159e+002,1.103845e+002
8.956802e+002,1.119075e+002
8.966444e+002,1.109717e+002
8.976086e+002,1.098237e+002
8.985729e+002,1.119716e+002
8.995371e+002,1.153945e+002
9.005013e+002,1.151401e+002
9.014656e+002,1.122128e+002
9.024298e+002,1.107870e+002
9.033940e+002,1.138159e+002
9.043583e+002,1.202055e+002
9.053225e+002,1.248672e+002
9.062867e+002,1.266339e+002
9.072510e+002,1.269987e+002
9.082152e+002,1.260300e+002
9.091794e+002,1.249427e+002
9.101437e+002,1.245430e+002
9.111079e+002,1.248900e+002
9.120721e+002,1.261062e+002
9.130364e+002,1.299950e+002
9.140006e+002,1.321174e+002
9.149648e+002,1.288070e+002
9.159291e+002,1.225164e+002
9.168933e+002,1.177773e+002
9.178575e+002,1.174922e+002
9.188218e+002,1.202026e+002
9.197860e+002,1.223465e+002
9.207502e+002,1.237320e+002
9.217145e+002,1.236630e+002
9.226787e+002,1.228542e+002
9.236429e+002,1.211216e+002
9.246072e+002,1.166895e+002
9.255714e+002,1.078973e+002
9.265356e+002,1.028523e+002
9.274999e+002,1.073740e+002
9.284641e+002,1.104240e+002
9.294283e+002,1.071427e+002
9.303926e+002,1.003313e+002
9.313568e+002,9.533813e+001
9.323210e+002,9.491315e+001
9.332853e+002,9.642133e+001
9.342495e+002,9.634601e+001
9.352137e+002,9.505133e+001
9.361780e+002,9.319049e+001
9.371422e+002,9.135486e+001
9.381064e+002,8.999133e+001
9.390707e+002,8.908228e+001
9.400349e+002,8.792163e+001
9.409991e+002,8.790210e+001
9.419634e+002,9.059485e+001
9.429276e+002,9.198376e+001
9.438918e+002,8.995410e+001
9.448561e+002,8.653528e+001
9.458203e+002,8.568109e+001
9.467845e+002,8.928619e+001
9.477488e+002,9.231891e+001
9.487130e+002,8.926984e+001
9.496772e+002,8.504108e+001
9.506415e+002,8.350934e+001
9.516057e+002,8.478613e+001
9.525699e+002,8.680420e+001
9.535342e+002,8.748877e+001
9.544984e+002,8.669739e+001
9.554626e+002,8.491028e+001
9.564269e+002,8.273621e+001
9.573911e+002,8.105762e+001
9.583553e+002,7.974426e+001
9.593196e+002,7.886292e+001
9.602838e+002,7.883417e+001
9.612480e+002,7.983466e+001
9.622123e+002,8.012067e+001
9.631765e+002,7.945416e+001
9.641407e+002,7.813995e+001
9.651050e+002,7.549109e+001
9.660692e+002,7.199255e+001
9.670334e+002,6.878931e+001
9.679977e+002,6.689136e+001
9.689619e+002,6.653076e+001
9.699261e+002,6.701611e+001
9.708904e+002,6.809058e+001
9.718546e+002,7.070288e+001
9.728188e+002,7.471155e+001
9.737831e+002,8.081354e+001
9.747473e+002,9.169843e+001
9.757115e+002,1.096546e+002
9.766758e+002,1.207833e+002
9.776400e+002,1.221137e+002
9.786042e+002,1.211694e+002
9.795685e+002,1.193210e+002
9.805327e+002,1.154420e+002
9.814969e+002,1.074331e+002
9.824612e+002,9.494958e+001
9.834254e+002,8.232690e+001
9.843896e+002,7.200574e+001
9.853539e+002,6.402405e+001
9.863181e+002,5.940088e+001
9.872823e+002,5.741327e+001
9.882466e+002,5.631580e+001
9.892108e+002,5.520441e+001
9.901750e+002,5.488171e+001
9.911393e+002,5.567242e+001
9.921035e+002,5.629089e+001
9.930677e+002,5.709662e+001
9.940320e+002,5.891937e+001
9.949962e+002,6.142114e+001
9.959604e+002,6.424902e+001
9.969247e+002,6.747693e+001
9.978889e+002,7.131641e+001
9.988531e+002,7.522107e+001
9.998174e+002,7.891162e+001
1.000782e+003,8.306433e+001
1.001746e+003,8.753485e+001
1.002710e+003,9.219830e+001
1.003674e+003,9.672711e+001
1.004639e+003,1.001795e+002
1.005603e+003,1.007586e+002
1.006567e+003,9.791583e+001
1.007531e+003,9.622900e+001
1.008495e+003,9.626831e+001
1.009460e+003,9.644409e+001
1.010424e+003,9.625391e+001
1.011388e+003,9.572144e+001
1.012352e+003,9.414697e+001
1.013317e+003,8.992590e+001
1.014281e+003,8.714941e+001
1.015245e+003,8.966064e+001
1.016209e+003,9.109662e+001
1.017174e+003,8.584894e+001
1.018138e+003,7.478192e+001
1.019102e+003,6.356433e+001
1.020066e+003,5.697705e+001
1.021031e+003,5.367822e+001
1.021995e+003,4.883148e+001
1.022959e+003,4.226288e+001
1.023923e+003,3.564105e+001
1.024887e+003,2.912903e+001
1.025852e+003,2.321606e+001
1.026816e+003,1.914130e+001
1.027780e+003,1.780847e+001
1.028744e+003,1.610657e+001
1.029709e+003,1.228125e+001
1.030673e+003,9.599854e+000
1.031637e+003,9.787354e+000
1.032601e+003,1.106812e+001
1.033566e+003,1.083051e+001
1.034530e+003,8.376099e+000
1.035494e+003,6.253662e+000
1.036458e+003,7.430542e+000
1.037422e+003,1.027203e+001
1.038387e+003,1.270917e+001
1.039351e+003,1.433051e+001
1.040315e+003,1.414496e+001
1.041279e+003,1.125989e+001
1.042244e+003,6.791443e+000
1.043208e+003,5.202637e+000
1.044172e+003,7.023804e+000
1.045136e+003,1.019464e+001
1.046101e+003,1.755005e+001
1.047065e+003,2.383582e+001
1.048029e+003,2.510504e+001
1.048993e+003,2.194873e+001
1.049958e+003,1.756598e+001
1.050922e+003,1.282111e+001
1.051886e+003,9.825806e+000
1.052850e+003,1.173175e+001
1.053814e+003,1.574017e+001
1.054779e+003,1.848041e+001
1.055743e+003,1.905371e+001
1.056707e+003,1.827252e+001
1.057671e+003,1.707336e+001
1.058636e+003,1.534100e+001
1.059600e+003,1.423450e+001
1.060564e+003,1.421027e+001
1.061528e+003,1.545782e+001
1.062493e+003,1.916895e+001
1.063457e+003,2.238904e+001
1.064421e+003,2.178955e+001
1.065385e+003,1.728937e+001
1.066349e+003,1.252795e+001
1.067314e+003,8.262146e+000
1.068278e+003,5.757935e+000
1.069242e+003,7.154480e+000
1.070206e+003,1.056335e+001
1.071171e+003,1.273340e+001
1.072135e+003,1.213452e+001
1.073099e+003,9.906982e+000
1.074063e+003,8.337769e+000
1.075028e+003,7.665405e+000
1.075992e+003,7.712524e+000
1.076956e+003,8.004272e+000
1.077920e+003,8.723877e+000
1.078885e+003,1.158099e+001
1.079849e+003,1.508069e+001
1.080813e+003,1.558734e+001
1.081777e+003,1.202087e+001
1.082741e+003,9.312012e+000
1.083706e+003,1.034302e+001
1.084670e+003,1.149579e+001
1.085634e+003,1.105048e+001
1.086598e+003,9.147644e+000
1.087563e+003,6.324219e+000
1.088527e+003,3.245911e+000
1.089491e+003,9.158936e-001
1.090455e+003,6.535645e-001
1.091420e+003,2.318298e+000
1.092384e+003,3.418396e+000
1.093348e+003,3.555542e+000
1.094312e+003,3.102234e+000
1.095276e+003,2.071594e+000
1.096241e+003,1.251892e+000
1.097205e+003,2.388306e+000
1.098169e+003,6.121826e+000
1.099133e+003,9.314758e+000
1.100098e+003,1.194940e+001
1.101062e+003,1.319537e+001
1.102026e+003,1.147662e+001
1.102990e+003,8.041748e+000
1.103955e+003,5.350403e+000
1.104919e+003,4.795166e+000
1.105883e+003,5.714661e+000
1.106847e+003,7.315735e+000
1.107812e+003,9.476501e+000
1.108776e+003,1.007971e+001
1.109740e+003,8.194153e+000
1.110704e+003,6.519409e+000
1.111668e+003,7.780945e+000
1.112633e+003,1.157617e+001
1.113597e+003,1.469287e+001
1.114561e+003,1.631689e+001
1.115525e+003,1.737103e+001
1.116490e+003,1.763501e+001
1.117454e+003,1.785120e+001
1.118418e+003,1.967407e+001
1.119382e+003,2.238483e+001
1.120347e+003,2.285400e+001
1.121311e+003,1.877527e+001
1.122275e+003,1.312048e+001
1.123239e+003,1.395734e+001
1.124203e+003,2.138263e+001
1.125168e+003,2.685297e+001
1.126132e+003,2.950287e+001
1.127096e+003,3.131366e+001
1.128060e+003,3.344891e+001
1.129025e+003,3.557092e+001
1.129989e+003,3.683228e+001
1.130953e+003,3.645068e+001
1.131917e+003,3.631946e+001
1.132882e+003,3.607129e+001
1.133846e+003,3.741766e+001
1.134810e+003,4.298425e+001
1.135774e+003,5.093506e+001
1.136739e+003,5.647095e+001
1.137703e+003,5.693713e+001
1.138667e+003,5.620374e+001
1.139631e+003,6.128717e+001
1.140595e+003,7.178729e+001
1.141560e+003,8.323413e+001
1.142524e+003,9.613660e+001
1.143488e+003,1.090721e+002
1.144452e+003,1.198568e+002
1.145417e+003,1.296537e+002
1.146381e+003,1.428061e+002
1.147345e+003,1.596308e+002
1.148309e+003,1.789233e+002
1.149274e+003,2.013167e+002
1.150238e+003,2.253954e+002
1.151202e+003,2.527609e+002
1.152166e+003,2.812573e+002
1.153130e+003,3.076509e+002
1.154095e+003,3.297805e+002
1.155059e+003,3.463738e+002
1.156023e+003,3.563645e+002
1.156987e+003,3.597983e+002
1.157952e+003,3.590443e+002
1.158916e+003,3.552496e+002
1.159880e+003,3.472065e+002
1.160844e+003,3.319837e+002
1.161809e+003,3.108898e+002
1.162773e+003,2.882438e+002
1.163737e+003,2.639689e+002
1.164701e+003,2.388989e+002
1.165666e+003,2.100651e+002
1.166630e+003,1.846523e+002
1.167594e+003,1.654326e+002
1.168558e+003,1.511166e+002
1.169522e+003,1.400599e+002
1.170487e+003,1.315822e+002
1.171451e+003,1.261821e+002
1.172415e+003,1.246176e+002
1.173379e+003,1.260234e+002
1.174344e+003,1.269747e+002
1.175308e+003,1.278664e+002
1.176272e+003,1.269968e+002
1.177236e+003,1.228925e+002
1.178201e+003,1.178232e+002
1.179165e+003,1.152643e+002
1.180129e+003,1.148916e+002
1.181093e+003,1.099733e+002
1.182057e+003,9.436450e+001
1.183022e+003,8.181372e+001
1.183986e+003,7.880090e+001
1.184950e+003,7.989911e+001
1.185914e+003,8.090491e+001
1.186879e+003,8.071735e+001
1.187843e+003,7.959442e+001
1.188807e+003,7.753998e+001
1.189771e+003,7.506659e+001
1.190736e+003,7.447449e+001
1.191700e+003,7.591010e+001
1.192664e+003,7.739154e+001
1.193628e+003,7.963879e+001
1.194593e+003,8.140369e+001
1.195557e+003,8.234363e+001
1.196521e+003,8.194269e+001
1.197485e+003,7.800592e+001
1.198449e+003,6.889075e+001
1.199414e+003,6.074298e+001
1.200378e+003,5.817700e+001
1.201342e+003,5.591180e+001
1.202306e+003,4.891351e+001
1.203271e+003,3.953369e+001
1.204235e+003,3.418195e+001
1.205199e+003,3.566003e+001
1.206163e+003,3.906763e+001
1.207128e+003,3.589160e+001
1.208092e+003,2.574554e+001
1.209056e+003,1.779254e+001
1.210020e+003,1.297919e+001
1.210984e+003,8.125854e+000
1.211949e+003,1.777344e+000
1.212913e+003,-4.990295e+000
1.213877e+003,-1.037250e+001
1.214841e+003,-1.417694e+001
1.215806e+003,-1.838287e+001
1.216770e+003,-2.473322e+001
1.217734e+003,-3.029541e+001
1.218698e+003,-3.286084e+001
1.219663e+003,-3.417865e+001
1.220627e+003,-3.613733e+001
1.221591e+003,-3.913898e+001
1.222555e+003,-4.278986e+001
1.223520e+003,-4.669995e+001
1.224484e+003,-5.033105e+001
1.225448e+003,-5.203845e+001
1.226412e+003,-5.077490e+001
1.227376e+003,-5.004498e+001
1.228341e+003,-5.074878e+001
1.229305e+003,-5.129156e+001
1.230269e+003,-5.007367e+001
1.231233e+003,-4.833893e+001
1.232198e+003,-4.881738e+001
1.233162e+003,-5.211816e+001
1.234126e+003,-5.509546e+001
1.235090e+003,-5.543494e+001
1.236055e+003,-5.504395e+001
1.237019e+003,-5.622253e+001
1.237983e+003,-5.845544e+001
1.238947e+003,-5.995667e+001
1.239911e+003,-5.975146e+001
1.240876e+003,-5.799261e+001
1.241840e+003,-5.486993e+001
1.242804e+003,-5.019922e+001
1.243768e+003,-4.709070e+001
1.244733e+003,-4.690588e+001
1.245697e+003,-4.655841e+001
1.246661e+003,-4.672131e+001
1.247625e+003,-4.671771e+001
1.248590e+003,-4.547467e+001
1.249554e+003,-4.305072e+001
1.250518e+003,-4.027167e+001
1.251482e+003,-3.765662e+001
1.252447e+003,-3.618903e+001
1.253411e+003,-3.772345e+001
1.254375e+003,-4.020490e+001
1.255339e+003,-3.902209e+001
1.256303e+003,-3.399432e+001
1.257268e+003,-2.996442e+001
1.258232e+003,-3.076538e+001
1.259196e+003,-3.379614e+001
1.260160e+003,-3.254187e+001
1.261125e+003,-2.563483e+001
1.262089e+003,-2.035950e+001
1.263053e+003,-1.950745e+001
1.264017e+003,-1.877582e+001
1.264982e+003,-1.678284e+001
1.265946e+003,-1.437372e+001
1.266910e+003,-1.221240e+001
1.267874e+003,-1.050885e+001
1.268839e+003,-8.903992e+000
1.269803e+003,-7.098938e+000
1.270767e+003,-6.453979e+000
1.271731e+003,-1.022681e+001
1.272695e+003,-1.804315e+001
1.273660e+003,-2.358856e+001
1.274624e+003,-2.693628e+001
1.275588e+003,-2.938007e+001
1.276552e+003,-3.085986e+001
1.277517e+003,-3.139252e+001
1.278481e+003,-3.105145e+001
1.279445e+003,-2.980145e+001
1.280409e+003,-3.046851e+001
1.281374e+003,-3.564624e+001
1.282338e+003,-4.053796e+001
1.283302e+003,-4.340900e+001
1.284266e+003,-4.435394e+001
1.285230e+003,-4.213440e+001
1.286195e+003,-3.788251e+001
1.287159e+003,-3.563788e+001
1.288123e+003,-3.855713e+001
1.289087e+003,-4.462573e+001
1.290052e+003,-4.858270e+001
1.291016e+003,-5.036652e+001
1.291980e+003,-5.123785e+001
1.292944e+003,-5.093500e+001
1.293909e+003,-5.094257e+001
1.294873e+003,-5.200714e+001
1.295837e+003,-5.291467e+001
1.296801e+003,-5.151984e+001
1.297766e+003,-4.782935e+001
1.298730e+003,-4.565381e+001
1.299694e+003,-4.831317e+001
1.300658e+003,-5.142938e+001
1.301622e+003,-4.868237e+001
1.302587e+003,-4.329388e+001
1.303551e+003,-4.080054e+001
1.304515e+003,-4.185980e+001
1.305479e+003,-4.326910e+001
1.306444e+003,-4.276318e+001
1.307408e+003,-4.094080e+001
1.308372e+003,-3.890009e+001
1.309336e+003,-3.596295e+001
1.310301e+003,-3.509790e+001
1.311265e+003,-3.692334e+001
1.312229e+003,-3.968018e+001
1.313193e+003,-4.489276e+001
1.314157e+003,-4.964636e+001
1.315122e+003,-5.012476e+001
1.316086e+003,-4.688403e+001
1.317050e+003,-4.438672e+001
1.318014e+003,-4.546033e+001
1.318979e+003,-4.757977e+001
1.319943e+003,-4.603705e+001
1.320907e+003,-4.125287e+001
1.321871e+003,-3.918005e+001
1.322836e+003,-4.145074e+001
1.323800e+003,-4.351807e+001
1.324764e+003,-4.266150e+001
1.325728e+003,-4.009369e+001
1.326693e+003,-3.782770e+001
1.327657e+003,-3.616064e+001
1.328621e+003,-3.535553e+001
1.329585e+003,-3.457190e+001
1.330549e+003,-3.371838e+001
1.331514e+003,-3.403613e+001
1.332478e+003,-3.513354e+001
1.333442e+003,-3.670337e+001
1.334406e+003,-3.809027e+001
1.335371e+003,-3.788507e+001
1.336335e+003,-3.536670e+001
1.337299e+003,-3.256738e+001
1.338263e+003,-3.380377e+001
1.339228e+003,-3.995093e+001
1.340192e+003,-4.161743e+001
1.341156e+003,-3.468585e+001
1.342120e+003,-2.970111e+001
1.343084e+003,-2.996869e+001
1.344049e+003,-3.186810e+001
1.345013e+003,-3.184198e+001
1.345977e+003,-3.023016e+001
1.346941e+003,-2.983234e+001
1.347906e+003,-3.177692e+001
1.348870e+003,-3.374487e+001
1.349834e+003,-3.334631e+001
1.350798e+003,-3.216174e+001
1.351763e+003,-3.285620e+001
1.352727e+003,-3.505688e+001
1.353691e+003,-3.736670e+001
1.354655e+003,-3.947626e+001
1.355620e+003,-4.066675e+001
1.356584e+003,-3.958344e+001
1.357548e+003,-3.639276e+001
1.358512e+003,-3.384210e+001
1.359476e+003,-3.239185e+001
1.360441e+003,-3.218250e+001
1.361405e+003,-3.333075e+001
1.362369e+003,-3.510663e+001
1.363333e+003,-3.891376e+001
1.364298e+003,-4.225732e+001
1.365262e+003,-4.083173e+001
1.366226e+003,-3.449463e+001
1.367190e+003,-2.788861e+001
1.368155e+003,-2.513434e+001
1.369119e+003,-2.545178e+001
1.370083e+003,-2.650775e+001
1.371047e+003,-2.861346e+001
1.372011e+003,-2.887469e+001
1.372976e+003,-2.507520e+001
1.373940e+003,-2.339801e+001
1.374904e+003,-2.854645e+001
1.375868e+003,-3.509082e+001
1.376833e+003,-3.543103e+001
1.377797e+003,-2.991205e+001
1.378761e+003,-2.585248e+001
1.379725e+003,-2.663574e+001
1.380690e+003,-2.830768e+001
1.381654e+003,-2.596942e+001
1.382618e+003,-2.221997e+001
1.383582e+003,-2.129529e+001
1.384547e+003,-2.295850e+001
1.385511e+003,-2.344012e+001
1.386475e+003,-2.074280e+001
1.387439e+003,-1.713715e+001
1.388403e+003,-1.619305e+001
1.389368e+003,-1.794775e+001
1.390332e+003,-1.884760e+001
1.391296e+003,-1.817847e+001
1.392260e+003,-1.725739e+001
1.393225e+003,-1.566547e+001
1.394189e+003,-1.489044e+001
1.395153e+003,-1.628052e+001
1.396117e+003,-1.880695e+001
1.397082e+003,-2.109698e+001
1.398046e+003,-2.247113e+001
1.399010e+003,-2.259668e+001
1.399974e+003,-2.135974e+001
1.400938e+003,-1.999750e+001
1.401903e+003,-2.114001e+001
1.402867e+003,-2.466840e+001
1.403831e+003,-2.556042e+001
1.404795e+003,-2.366357e+001
1.405760e+003,-2.064624e+001
1.406724e+003,-1.654089e+001
1.407688e+003,-1.347888e+001
1.408652e+003,-1.352808e+001
1.409617e+003,-1.586218e+001
1.410581e+003,-1.793817e+001
1.411545e+003,-1.892474e+001
1.412509e+003,-1.856897e+001
1.413474e+003,-1.510999e+001
1.414438e+003,-1.194843e+001
1.415402e+003,-1.544196e+001
1.416366e+003,-2.384637e+001
1.417330e+003,-2.807129e+001
1.418295e+003,-2.382385e+001
1.419259e+003,-1.710596e+001
1.420223e+003,-1.529126e+001
1.421187e+003,-1.775671e+001
1.422152e+003,-1.879889e+001
1.423116e+003,-1.755566e+001
1.424080e+003,-1.560358e+001
1.425044e+003,-1.378571e+001
1.426009e+003,-1.174860e+001
1.426973e+003,-7.784790e+000
1.427937e+003,-4.508972e+000
1.428901e+003,-6.058228e+000
1.429865e+003,-1.142285e+001
1.430830e+003,-1.520685e+001
1.431794e+003,-1.407721e+001
1.432758e+003,-1.043707e+001
1.433722e+003,-8.411987e+000
1.434687e+003,-7.438477e+000
1.435651e+003,-6.471069e+000
1.436615e+003,-9.051331e+000
1.437579e+003,-9.417542e+000
1.438544e+003,-5.202393e+000
1.439508e+003,-1.279907e-001
1.440472e+003,5.043640e+000
1.441436e+003,9.223450e+000
1.442401e+003,9.752258e+000
1.443365e+003,6.259216e+000
1.444329e+003,2.548645e+000
1.445293e+003,1.609070e+000
1.446257e+003,2.120361e+000
1.447222e+003,1.075134e+000
1.448186e+003,-1.122375e+000
1.449150e+003,-1.707336e+000
1.450114e+003,-3.185425e-001
1.451079e+003,1.494629e+000
1.452043e+003,4.419373e+000
1.453007e+003,6.923279e+000
1.453971e+003,5.751709e+000
1.454936e+003,1.298889e+000
1.455900e+003,-1.833008e+000
1.456864e+003,-2.294189e+000
1.457828e+003,-1.906311e+000
1.458792e+003,-1.838196e+000
1.459757e+003,-1.792053e+000
1.460721e+003,-1.261658e+000
1.461685e+003,-6.151123e-001
1.462649e+003,-6.796875e-001
1.463614e+003,-1.390015e+000
1.464578e+003,-1.365356e+000
1.465542e+003,8.132324e-001
1.466506e+003,3.586914e+000
1.467471e+003,2.125916e+000
1.468435e+003,-4.667297e+000
1.469399e+003,-7.455444e+000
1.470363e+003,-3.363953e+000
1.471328e+003,3.612671e-001
1.472292e+003,1.562500e+000
1.473256e+003,1.518188e+000
1.474220e+003,1.835938e+000
1.475184e+003,2.514648e+000
1.476149e+003,2.415039e+000
1.477113e+003,1.077637e+000
1.478077e+003,-5.686646e-001
1.479041e+003,-1.299744e+000
1.480006e+003,-6.412964e-001
1.480970e+003,2.187744e+000
1.481934e+003,7.551758e+000
1.482898e+003,1.144580e+001
1.483863e+003,1.384882e+001
1.484827e+003,1.477252e+001
1.485791e+003,1.301691e+001
1.486755e+003,1.157465e+001
1.487719e+003,1.309894e+001
1.488684e+003,1.677325e+001
1.489648e+003,2.044037e+001
1.490612e+003,2.361713e+001
1.491576e+003,2.704065e+001
1.492541e+003,3.115710e+001
1.493505e+003,3.559778e+001
1.494469e+003,3.944019e+001
1.495433e+003,4.242120e+001
1.496398e+003,4.630402e+001
1.497362e+003,5.231250e+001
1.498326e+003,5.846869e+001
1.499290e+003,6.260364e+001
1.500255e+003,6.694470e+001
1.501219e+003,7.495508e+001
1.502183e+003,8.588538e+001
1.503147e+003,9.544568e+001
1.504111e+003,1.021993e+002
1.505076e+003,1.100743e+002
1.506040e+003,1.209434e+002
1.507004e+003,1.347646e+002
1.507968e+003,1.518840e+002
1.508933e+003,1.714039e+002
1.509897e+003,1.909109e+002
1.510861e+003,2.108576e+002
1.511825e+003,2.354377e+002
1.512790e+003,2.677671e+002
1.513754e+003,3.045857e+002
1.514718e+003,3.406725e+002
1.515682e+003,3.755580e+002
1.516646e+003,4.110818e+002
1.517611e+003,4.502043e+002
1.518575e+003,4.844408e+002
1.519539e+003,5.121749e+002
1.520503e+003,5.342314e+002
1.521468e+003,5.500532e+002
1.522432e+003,5.603776e+002
1.523396e+003,5.665408e+002
1.524360e+003,5.683699e+002
1.525325e+003,5.643946e+002
1.526289e+003,5.537788e+002
1.527253e+003,5.378787e+002
1.528217e+003,5.189520e+002
1.529182e+003,4.974249e+002
1.530146e+003,4.702506e+002
1.531110e+003,4.355608e+002
1.532074e+003,3.974210e+002
1.533039e+003,3.518390e+002
1.534003e+003,3.063529e+002
1.534967e+003,2.648257e+002
1.535931e+003,2.266913e+002
1.536896e+003,1.896832e+002
1.537860e+003,1.548951e+002
1.538824e+003,1.258923e+002
1.539788e+003,1.042073e+002
1.540752e+003,8.787262e+001
1.541717e+003,7.472449e+001
1.542681e+003,6.492383e+001
1.543645e+003,5.770905e+001
1.544609e+003,5.468555e+001
1.545573e+003,5.162659e+001
1.546538e+003,4.568280e+001
1.547502e+003,4.206329e+001
1.548466e+003,4.511743e+001
1.549430e+003,5.058563e+001
1.550395e+003,5.496277e+001
1.551359e+003,5.704950e+001
1.552323e+003,5.516333e+001
1.553287e+003,4.909192e+001
1.554252e+003,4.286249e+001
1.555216e+003,4.018494e+001
1.556180e+003,3.900012e+001
1.557144e+003,3.395587e+001
1.558109e+003,2.510425e+001
1.559073e+003,1.994696e+001
1.560037e+003,1.952289e+001
1.561001e+003,1.941211e+001
1.561966e+003,1.885370e+001
1.562930e+003,1.863275e+001
1.563894e+003,1.904718e+001
1.564858e+003,1.988385e+001
1.565823e+003,2.096814e+001
1.566787e+003,2.218506e+001
1.567751e+003,2.341760e+001
1.568715e+003,2.488904e+001
1.569679e+003,2.607190e+001
1.570644e+003,2.569019e+001
1.571608e+003,2.411865e+001
1.572572e+003,2.323798e+001
1.573536e+003,2.339777e+001
1.574500e+003,2.463513e+001
1.575465e+003,2.724280e+001
1.576429e+003,3.011017e+001
1.577393e+003,3.263605e+001
1.578357e+003,3.434351e+001
1.579322e+003,3.417059e+001
1.580286e+003,3.240076e+001
1.581250e+003,3.155829e+001
1.582214e+003,3.253497e+001
1.583179e+003,3.401514e+001
1.584143e+003,3.489716e+001
1.585107e+003,3.540887e+001
1.586071e+003,3.706830e+001
1.587036e+003,3.957587e+001
1.588000e+003,3.979480e+001
1.588964e+003,3.649780e+001
1.589928e+003,3.422101e+001
1.590893e+003,3.703503e+001
1.591857e+003,4.168414e+001
1.592821e+003,4.299658e+001
1.593785e+003,4.169971e+001
1.594750e+003,4.149536e+001
1.595714e+003,4.264563e+001
1.596678e+003,4.471149e+001
1.597642e+003,4.828680e+001
1.598606e+003,5.172174e+001
1.599571e+003,5.394336e+001
1.600535e+003,5.542377e+001
1.601499e+003,5.620911e+001
1.602463e+003,5.648010e+001
1.603427e+003,5.753180e+001
1.604392e+003,6.008740e+001
1.605356e+003,6.227814e+001
1.606320e+003,6.162671e+001
1.607284e+003,5.938666e+001
1.608249e+003,5.959387e+001
1.609213e+003,6.238867e+001
1.610177e+003,6.300598e+001
1.611141e+003,5.971338e+001
1.612106e+003,5.662549e+001
1.613070e+003,5.611688e+001
1.614034e+003,5.608392e+001
1.614998e+003,5.455554e+001
1.615963e+003,5.268951e+001
1.616927e+003,5.269794e+001
1.617891e+003,5.459839e+001
1.618855e+003,5.631653e+001
1.619820e+003,5.646338e+001
1.620784e+003,5.526385e+001
1.621748e+003,5.356677e+001
1.622712e+003,5.208063e+001
1.623677e+003,5.104297e+001
1.624641e+003,5.028949e+001
1.625605e+003,5.156018e+001
1.626569e+003,5.645996e+001
1.627533e+003,5.898260e+001
1.628498e+003,5.369354e+001
1.629462e+003,4.818597e+001
1.630426e+003,5.020508e+001
1.631390e+003,5.661395e+001
1.632354e+003,5.975476e+001
1.633319e+003,5.785406e+001
1.634283e+003,5.488971e+001
1.635247e+003,5.363776e+001
1.636211e+003,5.322247e+001
1.637176e+003,5.194940e+001
1.638140e+003,5.019171e+001
1.639104e+003,5.118115e+001
1.640068e+003,5.623962e+001
1.641033e+003,5.827899e+001
1.641997e+003,5.274683e+001
1.642961e+003,4.834558e+001
1.643925e+003,5.018848e+001
1.644890e+003,5.435303e+001
1.645854e+003,5.751056e+001
1.646818e+003,5.936438e+001
1.647782e+003,6.038177e+001
1.648747e+003,6.071808e+001
1.649711e+003,6.053809e+001
1.650675e+003,6.006165e+001
1.651639e+003,5.989771e+001
1.652604e+003,6.154333e+001
1.653568e+003,6.457556e+001
1.654532e+003,6.296399e+001
1.655496e+003,5.416315e+001
1.656460e+003,4.896747e+001
1.657425e+003,5.432922e+001
1.658389e+003,5.908539e+001
1.659353e+003,5.601819e+001
1.660317e+003,5.016296e+001
1.661281e+003,4.624628e+001
1.662246e+003,4.437256e+001
1.663210e+003,4.361823e+001
1.664174e+003,4.374750e+001
1.665138e+003,4.378040e+001
1.666103e+003,4.258472e+001
1.667067e+003,4.065027e+001
1.668031e+003,3.904944e+001
1.668995e+003,3.793024e+001
1.669960e+003,3.800909e+001
1.670924e+003,3.981049e+001
1.671888e+003,4.137152e+001
1.672852e+003,4.202472e+001
1.673817e+003,4.187585e+001
1.674781e+003,4.006421e+001
1.675745e+003,3.814850e+001
1.676709e+003,3.851831e+001
1.677674e+003,4.026770e+001
1.678638e+003,4.012689e+001
1.679602e+003,3.711176e+001
1.680566e+003,3.351587e+001
1.681531e+003,3.118347e+001
1.682495e+003,2.979816e+001
1.683459e+003,2.813629e+001
1.684423e+003,2.618262e+001
1.685387e+003,2.593671e+001
1.686352e+003,2.812085e+001
1.687316e+003,2.859784e+001
1.688280e+003,2.503564e+001
1.689244e+003,2.134229e+001
1.690208e+003,2.072809e+001
1.691173e+003,2.106879e+001
1.692137e+003,2.034052e+001
1.693101e+003,1.902917e+001
1.694065e+003,1.791479e+001
1.695030e+003,1.679852e+001
1.695994e+003,1.580096e+001
1.696958e+003,1.482324e+001
1.697922e+003,1.469489e+001
1.698887e+003,1.781171e+001
1.699851e+003,2.252313e+001
1.700815e+003,2.231793e+001
1.701779e+003,1.662463e+001
1.702744e+003,1.375067e+001
1.703708e+003,1.757867e+001
1.704672e+003,2.150513e+001
1.705636e+003,1.969202e+001
1.706601e+003,1.520129e+001
1.707565e+003,1.325439e+001
1.708529e+003,1.339832e+001
1.709493e+003,1.317657e+001
1.710458e+003,1.212128e+001
1.711422e+003,1.183807e+001
1.712386e+003,1.431378e+001
1.713350e+003,1.687177e+001
1.714314e+003,1.700787e+001
1.715279e+003,1.527026e+001
1.716243e+003,1.245581e+001
1.717207e+003,9.051453e+000
1.718171e+003,6.308411e+000
1.719135e+003,4.664551e+000
1.720100e+003,4.272278e+000
1.721064e+003,5.395325e+000
1.722028e+003,6.759521e+000
1.722992e+003,6.909546e+000
1.723957e+003,6.427795e+000
1.724921e+003,6.142212e+000
1.725885e+003,5.364319e+000
1.726849e+003,4.462280e+000
1.727814e+003,3.772949e+000
1.728778e+003,4.142334e+000
1.729742e+003,6.947693e+000
1.730706e+003,9.758362e+000
1.731671e+003,9.379089e+000
1.732635e+003,6.647095e+000
1.733599e+003,4.673035e+000
1.734563e+003,4.264282e+000
1.735528e+003,3.454895e+000
1.736492e+003,1.019226e+000
1.737456e+003,-8.341064e-001
1.738420e+003,7.437744e-001
1.739385e+003,4.210815e+000
1.740349e+003,5.052551e+000
1.741313e+003,2.968933e+000
1.742277e+003,1.360901e+000
1.743241e+003,9.763184e-001
1.744206e+003,5.554199e-001
1.745170e+003,-9.762573e-001
1.746134e+003,-1.963684e+000
1.747098e+003,-1.105713e+000
1.748063e+003,4.267578e-001
1.749027e+003,1.983032e+000
1.749991e+003,2.903198e+000
1.750955e+003,1.149963e+000
1.751919e+003,-3.303772e+000
1.752884e+003,-5.964050e+000
1.753848e+003,-3.032654e+000
1.754812e+003,2.031433e+000
1.755776e+003,2.285400e+000
1.756741e+003,-1.700928e+000
1.757705e+003,-2.985168e+000
1.758669e+003,-8.676147e-001
1.759633e+003,9.228516e-001
1.760598e+003,2.035645e+000
1.761562e+003,2.090149e+000
1.762526e+003,6.479492e-001
1.763490e+003,-7.410278e-001
1.764455e+003,-9.171143e-001
1.765419e+003,-2.409058e-001
1.766383e+003,5.413818e-002
1.767347e+003,-4.638672e-002
1.768312e+003,1.517944e+000
1.769276e+003,5.678101e+000
1.770240e+003,8.497437e+000
1.771204e+003,5.697144e+000
1.772168e+003,1.098633e-001
1.773133e+003,-2.675476e+000
1.774097e+003,-2.939697e+000
1.775061e+003,-3.297913e+000
1.776025e+003,-4.458313e+000
1.776990e+003,-5.498535e+000
1.777954e+003,-5.835571e+000
1.778918e+003,-5.169617e+000
1.779882e+003,-2.614197e+000
1.780846e+003,-2.540894e-001
1.781811e+003,-1.009216e+000
1.782775e+003,-3.778870e+000
1.783739e+003,-5.238220e+000
1.784703e+003,-4.729614e+000
1.785668e+003,-3.562073e+000
1.786632e+003,-1.812256e+000
1.787596e+003,-1.195679e+000
1.788560e+003,-3.915100e+000
1.789525e+003,-6.767578e+000
1.790489e+003,-4.994385e+000
1.791453e+003,-1.483765e-001
1.792417e+003,2.972778e+000
1.793382e+003,3.366699e+000
1.794346e+003,2.539978e+000
1.795310e+003,1.176025e+000
1.796274e+003,-6.298218e-001
1.797239e+003,-2.690125e+000
1.798203e+003,-4.166626e+000
1.799167e+003,-3.849304e+000
1.800131e+003,-2.272949e+000
1.801095e+003,-1.148254e+000
1.802060e+003,6.694336e-001
1.803024e+003,1.858521e+000
1.803988e+003,1.462708e+000
1.804952e+003,8.467407e-001
1.805917e+003,7.553101e-001
1.806881e+003,6.426392e-001
1.807845e+003,-2.902222e-001
1.808809e+003,-1.361755e+000
1.809773e+003,-1.394958e+000
1.810738e+003,-1.146240e-001
1.811702e+003,2.496155e+000
1.812666e+003,6.323547e+000
1.813630e+003,9.139282e+000
1.814595e+003,7.474915e+000
1.815559e+003,2.803528e+000
1.816523e+003,1.976746e+000
1.817487e+003,5.501038e+000
1.818452e+003,8.385437e+000
1.819416e+003,1.087024e+001
1.820380e+003,1.252222e+001
1.821344e+003,1.323755e+001
1.822309e+003,1.221045e+001
1.823273e+003,7.695435e+000
1.824237e+003,2.882263e+000
1.825201e+003,6.160278e-001
1.826166e+003,4.543457e-001
1.827130e+003,1.280334e+000
1.828094e+003,2.708801e+000
1.829058e+003,4.211548e+000
1.830022e+003,6.056824e+000
1.830987e+003,7.483765e+000
1.831951e+003,8.002930e+000
1.832915e+003,7.635498e+000
1.833879e+003,5.548706e+000
1.834844e+003,2.679443e+000
1.835808e+003,1.870483e+000
1.836772e+003,3.502686e+000
1.837736e+003,6.349670e+000
1.838700e+003,9.798157e+000
1.839665e+003,1.118835e+001
1.840629e+003,7.777039e+000
1.841593e+003,2.314087e+000
1.842557e+003,3.942261e-001
1.843522e+003,1.943604e+000
1.844486e+003,2.803040e+000
1.845450e+003,2.776245e+000
1.846414e+003,3.467651e+000
1.847379e+003,4.925598e+000
1.848343e+003,5.668579e+000
1.849307e+003,4.791138e+000
1.850271e+003,4.017151e+000
1.851236e+003,5.801514e+000
1.852200e+003,8.100952e+000
1.853164e+003,6.798035e+000
1.854128e+003,2.434204e+000
1.855093e+003,-6.305542e-001
1.856057e+003,-4.558105e-001
1.857021e+003,9.492188e-001
1.857985e+003,1.727844e+000
1.858949e+003,2.277039e+000
1.859914e+003,3.700073e+000
1.860878e+003,5.801208e+000
1.861842e+003,6.497192e+000
1.862806e+003,5.581543e+000
1.863771e+003,6.113647e+000
1.864735e+003,8.953064e+000
1.865699e+003,1.064185e+001
1.866663e+003,9.242004e+000
1.867627e+003,7.841248e+000
1.868592e+003,9.243591e+000
1.869556e+003,1.162714e+001
1.870520e+003,1.249176e+001
1.871484e+003,1.185883e+001
1.872449e+003,9.688416e+000
1.873413e+003,6.027832e+000
1.874377e+003,5.223999e+000
1.875341e+003,9.101868e+000
1.876306e+003,1.335626e+001
1.877270e+003,1.659662e+001
1.878234e+003,1.805621e+001
1.879198e+003,1.551080e+001
1.880163e+003,1.166431e+001
1.881127e+003,1.189667e+001
1.882091e+003,1.601086e+001
1.883055e+003,1.958240e+001
1.884020e+003,2.061163e+001
1.884984e+003,1.998370e+001
1.885948e+003,1.847937e+001
1.886912e+003,1.667841e+001
1.887876e+003,1.598004e+001
1.888841e+003,1.622009e+001
1.889805e+003,1.423230e+001
1.890769e+003,8.888428e+000
1.891733e+003,7.933228e+000
1.892698e+003,1.455713e+001
1.893662e+003,1.868573e+001
1.894626e+003,1.511499e+001
1.895590e+003,1.073907e+001
1.896554e+003,9.858154e+000
1.897519e+003,1.149072e+001
1.898483e+003,1.565765e+001
1.899447e+003,2.067731e+001
1.900411e+003,2.177344e+001
1.901376e+003,1.802905e+001
1.902340e+003,1.566705e+001
1.903304e+003,1.791583e+001
1.904268e+003,2.052563e+001
1.905233e+003,2.117920e+001
1.906197e+003,2.100659e+001
1.907161e+003,2.126709e+001
1.908125e+003,2.168250e+001
1.909090e+003,2.075513e+001
1.910054e+003,1.877515e+001
1.911018e+003,1.819843e+001
1.911982e+003,1.989594e+001
1.912947e+003,2.215063e+001
1.913911e+003,2.358868e+001
1.914875e+003,2.481213e+001
1.915839e+003,2.669678e+001
1.916803e+003,2.864581e+001
1.917768e+003,2.919257e+001
1.918732e+003,2.848901e+001
1.919696e+003,2.721991e+001
1.920660e+003,2.538586e+001
1.921625e+003,2.366675e+001
1.922589e+003,2.132678e+001
1.923553e+003,1.997919e+001
1.924517e+003,2.072064e+001
1.925481e+003,2.275293e+001
1.926446e+003,2.670715e+001
1.927410e+003,3.098651e+001
1.928374e+003,3.170819e+001
1.929338e+003,2.877209e+001
1.930303e+003,2.753406e+001
1.931267e+003,3.085907e+001
1.932231e+003,3.304645e+001
1.933195e+003,2.982111e+001
1.934160e+003,2.571222e+001
1.935124e+003,2.356750e+001
1.936088e+003,2.253235e+001
1.937052e+003,2.171021e+001
1.938017e+003,2.160944e+001
1.938981e+003,2.408026e+001
1.939945e+003,2.830957e+001
1.940909e+003,2.986023e+001
1.941874e+003,2.686646e+001
1.942838e+003,2.286420e+001
1.943802e+003,2.141345e+001
1.944766e+003,2.215063e+001
1.945730e+003,2.395404e+001
1.946695e+003,2.623383e+001
1.947659e+003,2.601251e+001
1.948623e+003,2.287280e+001
1.949587e+003,2.062067e+001
1.950552e+003,1.958167e+001
1.951516e+003,2.092499e+001
1.952480e+003,2.659021e+001
1.953444e+003,3.132556e+001
1.954408e+003,3.058008e+001
1.955373e+003,2.728381e+001
1.956337e+003,2.589819e+001
1.957301e+003,2.622955e+001
1.958265e+003,2.581024e+001
1.959230e+003,2.436285e+001
1.960194e+003,2.466357e+001
1.961158e+003,2.801031e+001
1.962122e+003,3.037689e+001
1.963087e+003,3.050049e+001
1.964051e+003,2.987848e+001
1.965015e+003,2.899292e+001
1.965979e+003,2.885547e+001
1.966944e+003,3.079193e+001
1.967908e+003,3.325476e+001
1.968872e+003,3.323004e+001
1.969836e+003,3.113855e+001
1.970801e+003,3.073480e+001
1.971765e+003,3.351050e+001
1.972729e+003,3.625623e+001
1.973693e+003,3.618524e+001
1.974657e+003,3.470697e+001
1.975622e+003,3.268927e+001
1.976586e+003,3.108661e+001
1.977550e+003,3.430273e+001
1.978514e+003,4.121936e+001
1.979479e+003,4.364301e+001
1.980443e+003,4.063605e+001
1.981407e+003,4.039807e+001
1.982371e+003,4.638879e+001
1.983335e+003,5.043591e+001
1.984300e+003,4.570197e+001
1.985264e+003,3.763690e+001
1.986228e+003,3.482953e+001
1.987192e+003,3.639984e+001
1.988157e+003,3.797827e+001
1.989121e+003,3.991913e+001
1.990085e+003,4.078656e+001
1.991049e+003,3.997650e+001
1.992014e+003,3.979102e+001
1.992978e+003,4.046552e+001
1.993942e+003,4.139594e+001
1.994906e+003,4.262390e+001
1.995871e+003,4.381232e+001
1.996835e+003,4.520441e+001
1.997799e+003,4.637103e+001
1.998763e+003,4.625092e+001
1.999728e+003,4.490741e+001
