5.003444e+002,1.986844e+002
5.013087e+002,1.955472e+002
5.022729e+002,1.900579e+002
5.032371e+002,1.844321e+002
5.042014e+002,1.831339e+002
5.051656e+002,1.855403e+002
5.061298e+002,1.868688e+002
5.070941e+002,1.820944e+002
5.080583e+002,1.685763e+002
5.090225e+002,1.614485e+002
5.099868e+002,1.643448e+002
5.109510e+002,1.675454e+002
5.119152e+002,1.659469e+002
5.128795e+002,1.591013e+002
5.138437e+002,1.524689e+002
5.148079e+002,1.463232e+002
5.157722e+002,1.426089e+002
5.167364e+002,1.438346e+002
5.177006e+002,1.487820e+002
5.186649e+002,1.524298e+002
5.196291e+002,1.477534e+002
5.205933e+002,1.407461e+002
5.215576e+002,1.363695e+002
5.225218e+002,1.346758e+002
5.234860e+002,1.345581e+002
5.244503e+002,1.351169e+002
5.254145e+002,1.379999e+002
5.263787e+002,1.388912e+002
5.273430e+002,1.365153e+002
5.283072e+002,1.330344e+002
5.292714e+002,1.313066e+002
5.302357e+002,1.316964e+002
5.311999e+002,1.299751e+002
5.321641e+002,1.260851e+002
5.331284e+002,1.220946e+002
5.340926e+002,1.190801e+002
5.350568e+002,1.169854e+002
5.360211e+002,1.146644e+002
5.369853e+002,1.125355e+002
5.379495e+002,1.107048e+002
5.389138e+002,1.086610e+002
5.398780e+002,1.061625e+002
5.408422e+002,1.035227e+002
5.418065e+002,1.021019e+002
5.427707e+002,1.017419e+002
5.437349e+002,1.018175e+002
5.446992e+002,1.023508e+002
5.456634e+002,1.028267e+002
5.466276e+002,1.017679e+002
5.475919e+002,9.893237e+001
5.485561e+002,9.514453e+001
5.495203e+002,8.838586e+001
5.504846e+002,8.065662e+001
5.514488e+002,7.521167e+001
5.524130e+002,7.425537e+001
5.533773e+002,7.496692e+001
5.543415e+002,7.669336e+001
5.553057e+002,7.842041e+001
5.562700e+002,7.870911e+001
5.572342e+002,7.657898e+001
5.581984e+002,7.312073e+001
5.591627e+002,7.182739e+001
5.601269e+002,7.237805e+001
5.610911e+002,7.335486e+001
5.620554e+002,7.386487e+001
5.630196e+002,7.343005e+001
5.639838e+002,7.068848e+001
5.649481e+002,6.300269e+001
5.659123e+002,5.694958e+001
5.668765e+002,5.547791e+001
5.678408e+002,5.767444e+001
5.688050e+002,5.952148e+001
5.697692e+002,5.829382e+001
5.707335e+002,5.628284e+001
5.716977e+002,5.506909e+001
5.726619e+002,5.398291e+001
5.736262e+002,5.178687e+001
5.745904e+002,4.750330e+001
5.755546e+002,4.325598e+001
5.765189e+002,4.121130e+001
5.774831e+002,4.028638e+001
5.784473e+002,3.984387e+001
5.794116e+002,3.982227e+001
5.803758e+002,4.084338e+001
5.813400e+002,4.366394e+001
5.823043e+002,4.868835e+001
5.832685e+002,5.073376e+001
5.842327e+002,4.763086e+001
5.851970e+002,4.075806e+001
5.861612e+002,3.536206e+001
5.871254e+002,2.948779e+001
5.880897e+002,2.722156e+001
5.890539e+002,3.209827e+001
5.900181e+002,4.010962e+001
5.909824e+002,4.511633e+001
5.919466e+002,4.324707e+001
5.929108e+002,3.782764e+001
5.938751e+002,3.102039e+001
5.948393e+002,2.441699e+001
5.958035e+002,2.112402e+001
5.967678e+002,2.344409e+001
5.977320e+002,3.063477e+001
5.986962e+002,3.423169e+001
5.996605e+002,3.346887e+001
6.006247e+002,3.173523e+001
6.015889e+002,3.012622e+001
6.025532e+002,2.880603e+001
6.035174e+002,2.856689e+001
6.044816e+002,3.198901e+001
6.054459e+002,3.398047e+001
6.064101e+002,3.248669e+001
6.073743e+002,2.917554e+001
6.083386e+002,2.734851e+001
6.093028e+002,2.954810e+001
6.102670e+002,3.247217e+001
6.112313e+002,3.408545e+001
6.121955e+002,3.423621e+001
6.131597e+002,3.206104e+001
6.141240e+002,2.705225e+001
6.150882e+002,2.056738e+001
6.160524e+002,1.998071e+001
6.170167e+002,2.462244e+001
6.179809e+002,2.896741e+001
6.189451e+002,2.968115e+001
6.199094e+002,2.703931e+001
6.208736e+002,2.638000e+001
6.218378e+002,3.334143e+001
6.228021e+002,3.752673e+001
6.237663e+002,3.617407e+001
6.247305e+002,3.226184e+001
6.256948e+002,3.050146e+001
6.266590e+002,3.294824e+001
6.276232e+002,3.495349e+001
6.285875e+002,3.467847e+001
6.295517e+002,3.332837e+001
6.305159e+002,3.171155e+001
6.314802e+002,3.006213e+001
6.324444e+002,2.791895e+001
6.334086e+002,2.467969e+001
6.343729e+002,2.140894e+001
6.353371e+002,1.947217e+001
6.363013e+002,1.937488e+001
6.372656e+002,2.018567e+001
6.382298e+002,1.924829e+001
6.391940e+002,1.336768e+001
6.401583e+002,9.357422e+000
6.411225e+002,9.963989e+000
6.420867e+002,1.287415e+001
6.430510e+002,1.501831e+001
6.440152e+002,1.516602e+001
6.449794e+002,1.278101e+001
6.459437e+002,5.663574e+000
6.469079e+002,-2.085938e+000
6.478721e+002,-6.766235e+000
6.488364e+002,-7.095337e+000
6.498006e+002,-5.202026e+000
6.507648e+002,-5.456909e+000
6.517291e+002,-6.988281e+000
6.526933e+002,-6.745972e+000
6.536575e+002,-4.129883e+000
6.546218e+002,-3.692627e-001
6.555860e+002,2.239502e+000
6.565502e+002,2.904785e+000
6.575145e+002,3.706055e+000
6.584787e+002,4.960205e+000
6.594429e+002,6.213501e+000
6.604072e+002,7.527344e+000
6.613714e+002,9.108032e+000
6.623356e+002,9.075317e+000
6.632999e+002,3.090088e+000
6.642641e+002,-2.871216e+000
6.652283e+002,-4.647461e+000
6.661926e+002,-1.993408e+000
6.671568e+002,2.461548e+000
6.681210e+002,5.689209e+000
6.690853e+002,7.125366e+000
6.700495e+002,6.109497e+000
6.710137e+002,2.953857e+000
6.719780e+002,9.075928e-001
6.729422e+002,3.739136e+000
6.739064e+002,1.283618e+001
6.748707e+002,1.617810e+001
6.758349e+002,1.055566e+001
6.767991e+002,4.373901e+000
6.777634e+002,1.814941e+000
6.787276e+002,3.069214e+000
6.796918e+002,4.827515e+000
6.806561e+002,4.897095e+000
6.816203e+002,4.782104e+000
6.825845e+002,5.090576e+000
6.835488e+002,5.687256e+000
6.845130e+002,6.532593e+000
6.854772e+002,7.856934e+000
6.864415e+002,9.462402e+000
6.874057e+002,8.965576e+000
6.883699e+002,6.421265e+000
6.893342e+002,4.387451e+000
6.902984e+002,4.656372e+000
6.912626e+002,6.899048e+000
6.922269e+002,7.035156e+000
6.931911e+002,2.775757e+000
6.941553e+002,2.044067e+000
6.951196e+002,7.153687e+000
6.960838e+002,1.410950e+001
6.970480e+002,1.699585e+001
6.980123e+002,1.359705e+001
6.989765e+002,9.664429e+000
6.999407e+002,5.901489e+000
7.009050e+002,3.564941e+000
7.018692e+002,4.959351e+000
7.028334e+002,1.005493e+001
7.037977e+002,1.483398e+001
7.047619e+002,1.234692e+001
7.057261e+002,6.001953e+000
7.066904e+002,1.035522e+000
7.076546e+002,-1.760986e+000
7.086188e+002,-2.717163e+000
7.095831e+002,-2.239624e+000
7.105473e+002,-2.186279e-001
7.115115e+002,1.601318e+000
7.124758e+002,2.882080e+000
7.134400e+002,3.808716e+000
7.144042e+002,5.343750e+000
7.153685e+002,7.721924e+000
7.163327e+002,8.714722e+000
7.172969e+002,5.672852e+000
7.182612e+002,2.616821e+000
7.192254e+002,-3.522949e-001
7.201896e+002,-2.358154e+000
7.211539e+002,-1.087036e+000
7.221181e+002,6.254883e+000
7.230823e+002,1.529651e+001
7.240466e+002,1.240259e+001
7.250108e+002,1.276367e+000
7.259750e+002,-5.648438e+000
7.269393e+002,-1.019287e+000
7.279035e+002,1.231360e+001
7.288677e+002,1.764026e+001
7.298320e+002,7.388794e+000
7.307962e+002,1.771484e+000
7.317604e+002,5.078491e+000
7.327247e+002,1.275208e+001
7.336889e+002,1.804736e+001
7.346531e+002,1.795825e+001
7.356174e+002,1.439099e+001
7.365816e+002,7.862915e+000
7.375458e+002,2.281860e+000
7.385101e+002,1.355957e+000
7.394743e+002,5.407471e+000
7.404385e+002,1.087146e+001
7.414028e+002,1.165906e+001
7.423670e+002,7.415894e+000
7.433312e+002,5.784546e+000
7.442955e+002,8.883911e+000
7.452597e+002,1.270410e+001
7.462239e+002,1.126929e+001
7.471882e+002,1.793213e+000
7.481524e+002,-2.356079e+000
7.491166e+002,-1.037842e+000
7.500809e+002,1.882446e+000
7.510451e+002,6.529053e+000
7.520093e+002,1.191370e+001
7.529736e+002,1.553076e+001
7.539378e+002,1.718579e+001
7.549020e+002,1.712317e+001
7.558663e+002,1.303125e+001
7.568306e+002,8.213379e+000
7.577948e+002,7.745483e+000
7.587590e+002,1.408191e+001
7.597233e+002,2.327185e+001
7.606875e+002,2.451782e+001
7.616517e+002,1.943616e+001
7.626160e+002,1.484521e+001
7.635802e+002,1.253601e+001
7.645444e+002,1.186279e+001
7.655087e+002,1.103760e+001
7.664729e+002,8.363159e+000
7.674371e+002,9.106934e+000
7.684014e+002,1.723364e+001
7.693656e+002,2.475720e+001
7.703298e+002,2.509570e+001
7.712941e+002,1.843311e+001
7.722583e+002,1.369763e+001
7.732225e+002,2.008057e+001
7.741868e+002,2.841345e+001
7.751510e+002,3.109143e+001
7.761152e+002,2.943652e+001
7.770795e+002,2.798425e+001
7.780437e+002,3.063977e+001
7.790079e+002,3.640149e+001
7.799722e+002,3.840601e+001
7.809364e+002,3.667529e+001
7.819006e+002,3.410132e+001
7.828649e+002,3.238574e+001
7.838291e+002,3.153650e+001
7.847933e+002,3.005005e+001
7.857576e+002,2.603650e+001
7.867218e+002,2.190869e+001
7.876860e+002,1.889478e+001
7.886503e+002,1.697485e+001
7.896145e+002,1.571753e+001
7.905787e+002,1.509827e+001
7.915430e+002,1.614966e+001
7.925072e+002,2.049744e+001
7.934714e+002,2.545667e+001
7.944357e+002,2.984814e+001
7.953999e+002,3.368127e+001
7.963641e+002,3.625146e+001
7.973284e+002,3.635974e+001
7.982926e+002,3.385022e+001
7.992568e+002,3.184680e+001
8.002211e+002,2.865686e+001
8.011853e+002,2.484229e+001
8.021495e+002,2.138416e+001
8.031138e+002,1.974561e+001
8.040780e+002,2.148560e+001
8.050422e+002,2.761316e+001
8.060065e+002,3.356946e+001
8.069707e+002,3.819507e+001
8.079349e+002,4.079077e+001
8.088992e+002,4.022583e+001
8.098634e+002,3.686121e+001
8.108276e+002,3.388000e+001
8.117919e+002,3.628979e+001
8.127561e+002,4.003882e+001
8.137203e+002,3.898645e+001
8.146846e+002,3.344702e+001
8.156488e+002,2.815796e+001
8.166130e+002,2.860779e+001
8.175773e+002,3.598706e+001
8.185415e+002,4.044067e+001
8.195057e+002,3.972961e+001
8.204700e+002,3.791125e+001
8.214342e+002,3.548303e+001
8.223984e+002,3.302185e+001
8.233627e+002,3.174866e+001
8.243269e+002,3.226489e+001
8.252911e+002,3.462854e+001
8.262554e+002,4.053772e+001
8.272196e+002,4.665466e+001
8.281838e+002,4.914087e+001
8.291481e+002,4.678894e+001
8.301123e+002,4.163062e+001
8.310765e+002,3.659143e+001
8.320408e+002,3.190906e+001
8.330050e+002,3.088245e+001
8.339692e+002,3.485254e+001
8.349335e+002,3.964490e+001
8.358977e+002,4.091992e+001
8.368619e+002,3.848206e+001
8.378262e+002,3.774451e+001
8.387904e+002,4.001648e+001
8.397546e+002,4.126794e+001
8.407189e+002,3.945728e+001
8.416831e+002,3.636890e+001
8.426473e+002,3.524719e+001
8.436116e+002,3.786719e+001
8.445758e+002,4.194812e+001
8.455400e+002,4.427185e+001
8.465043e+002,4.512439e+001
8.474685e+002,4.644666e+001
8.484327e+002,4.911047e+001
8.493970e+002,5.158960e+001
8.503612e+002,5.002161e+001
8.513254e+002,4.283533e+001
8.522897e+002,4.079077e+001
8.532539e+002,4.571667e+001
8.542181e+002,5.151428e+001
8.551824e+002,5.600793e+001
8.561466e+002,6.005652e+001
8.571108e+002,6.380688e+001
8.580751e+002,6.405164e+001
8.590393e+002,6.393286e+001
8.600035e+002,6.528772e+001
8.609678e+002,6.790430e+001
8.619320e+002,7.118933e+001
8.628962e+002,7.478979e+001
8.638605e+002,7.901636e+001
8.648247e+002,8.547363e+001
8.657889e+002,9.243481e+001
8.667532e+002,9.624182e+001
8.677174e+002,9.640369e+001
8.686816e+002,9.514478e+001
8.696459e+002,9.525024e+001
8.706101e+002,9.751208e+001
8.715743e+002,9.864807e+001
8.725386e+002,9.660791e+001
8.735028e+002,9.629944e+001
8.744670e+002,9.919324e+001
8.754313e+002,1.033684e+002
8.763955e+002,1.057719e+002
8.773597e+002,1.053231e+002
8.783240e+002,1.051653e+002
8.792882e+002,1.075815e+002
8.802524e+002,1.105323e+002
8.812167e+002,1.122762e+002
8.821809e+002,1.126304e+002
8.831451e+002,1.128809e+002
8.841094e+002,1.149021e+002
8.850736e+002,1.191923e+002
8.860378e+002,1.223547e+002
8.870021e+002,1.231738e+002
8.879663e+002,1.251680e+002
8.889305e+002,1.310668e+002
8.898948e+002,1.395601e+002
8.908590e+002,1.451136e+002
8.918232e+002,1.466345e+002
8.927875e+002,1.476414e+002
8.937517e+002,1.498237e+002
8.947159e+002,1.513173e+002
8.956802e+002,1.483137e+002
8.966444e+002,1.406421e+002
8.976086e+002,1.343223e+002
8.985729e+002,1.375466e+002
8.995371e+002,1.461227e+002
9.005013e+002,1.520790e+002
9.014656e+002,1.556736e+002
9.024298e+002,1.577559e+002
9.033940e+002,1.581976e+002
9.043583e+002,1.567391e+002
9.053225e+002,1.567271e+002
9.062867e+002,1.580891e+002
9.072510e+002,1.600132e+002
9.082152e+002,1.652977e+002
9.091794e+002,1.711713e+002
9.101437e+002,1.746199e+002
9.111079e+002,1.750648e+002
9.120721e+002,1.742316e+002
9.130364e+002,1.709237e+002
9.140006e+002,1.668904e+002
9.149648e+002,1.630278e+002
9.159291e+002,1.605009e+002
9.168933e+002,1.609629e+002
9.178575e+002,1.650793e+002
9.188218e+002,1.705527e+002
9.197860e+002,1.703536e+002
9.207502e+002,1.640320e+002
9.217145e+002,1.576436e+002
9.226787e+002,1.528431e+002
9.236429e+002,1.499222e+002
9.246072e+002,1.489700e+002
9.255714e+002,1.498658e+002
9.265356e+002,1.499010e+002
9.274999e+002,1.481986e+002
9.284641e+002,1.453068e+002
9.294283e+002,1.412216e+002
9.303926e+002,1.367561e+002
9.313568e+002,1.325208e+002
9.323210e+002,1.286550e+002
9.332853e+002,1.260214e+002
9.342495e+002,1.287411e+002
9.352137e+002,1.329003e+002
9.361780e+002,1.320178e+002
9.371422e+002,1.254259e+002
9.381064e+002,1.181453e+002
9.390707e+002,1.162129e+002
9.400349e+002,1.196139e+002
9.409991e+002,1.223845e+002
9.419634e+002,1.247324e+002
9.429276e+002,1.258776e+002
9.438918e+002,1.247593e+002
9.448561e+002,1.229218e+002
9.458203e+002,1.232441e+002
9.467845e+002,1.271866e+002
9.477488e+002,1.313541e+002
9.487130e+002,1.325779e+002
9.496772e+002,1.330039e+002
9.506415e+002,1.345587e+002
9.516057e+002,1.370863e+002
9.525699e+002,1.388730e+002
9.535342e+002,1.381188e+002
9.544984e+002,1.348259e+002
9.554626e+002,1.316722e+002
9.564269e+002,1.294037e+002
9.573911e+002,1.291816e+002
9.583553e+002,1.325488e+002
9.593196e+002,1.370889e+002
9.602838e+002,1.387233e+002
9.612480e+002,1.363522e+002
9.622123e+002,1.337631e+002
9.631765e+002,1.327728e+002
9.641407e+002,1.317020e+002
9.651050e+002,1.284808e+002
9.660692e+002,1.241155e+002
9.670334e+002,1.217922e+002
9.679977e+002,1.240388e+002
9.689619e+002,1.287003e+002
9.699261e+002,1.281030e+002
9.708904e+002,1.239081e+002
9.718546e+002,1.230558e+002
9.728188e+002,1.267236e+002
9.737831e+002,1.339722e+002
9.747473e+002,1.452241e+002
9.757115e+002,1.623671e+002
9.766758e+002,1.747102e+002
9.776400e+002,1.832402e+002
9.786042e+002,1.871639e+002
9.795685e+002,1.842030e+002
9.805327e+002,1.760579e+002
9.814969e+002,1.645258e+002
9.824612e+002,1.507299e+002
9.834254e+002,1.380532e+002
9.843896e+002,1.285413e+002
9.853539e+002,1.213058e+002
9.863181e+002,1.160695e+002
9.872823e+002,1.121833e+002
9.882466e+002,1.093303e+002
9.892108e+002,1.081102e+002
9.901750e+002,1.094467e+002
9.911393e+002,1.116729e+002
9.921035e+002,1.109039e+002
9.930677e+002,1.129424e+002
9.940320e+002,1.212220e+002
9.949962e+002,1.316013e+002
9.959604e+002,1.404591e+002
9.969247e+002,1.476541e+002
9.978889e+002,1.545604e+002
9.988531e+002,1.600031e+002
9.998174e+002,1.648788e+002
1.000782e+003,1.709460e+002
1.001746e+003,1.778510e+002
1.002710e+003,1.849890e+002
1.003674e+003,1.917610e+002
1.004639e+003,1.972833e+002
1.005603e+003,1.998810e+002
1.006567e+003,1.989006e+002
1.007531e+003,1.991317e+002
1.008495e+003,2.019379e+002
1.009460e+003,2.035762e+002
1.010424e+003,2.011665e+002
1.011388e+003,1.960056e+002
1.012352e+003,1.927528e+002
1.013317e+003,1.928212e+002
1.014281e+003,1.918983e+002
1.015245e+003,1.896356e+002
1.016209e+003,1.846084e+002
1.017174e+003,1.746859e+002
1.018138e+003,1.610867e+002
1.019102e+003,1.479249e+002
1.020066e+003,1.389277e+002
1.021031e+003,1.326653e+002
1.021995e+003,1.229752e+002
1.022959e+003,1.098190e+002
1.023923e+003,9.696167e+001
1.024887e+003,8.502209e+001
1.025852e+003,7.459351e+001
1.026816e+003,6.725623e+001
1.027780e+003,6.428662e+001
1.028744e+003,6.157520e+001
1.029709e+003,5.773340e+001
1.030673e+003,5.500354e+001
1.031637e+003,5.500293e+001
1.032601e+003,5.562158e+001
1.033566e+003,5.404968e+001
1.034530e+003,4.958557e+001
1.035494e+003,4.456787e+001
1.036458e+003,4.003491e+001
1.037422e+003,3.704028e+001
1.038387e+003,3.856592e+001
1.039351e+003,4.390381e+001
1.040315e+003,4.878223e+001
1.041279e+003,5.047485e+001
1.042244e+003,4.956091e+001
1.043208e+003,4.681079e+001
1.044172e+003,3.712427e+001
1.045136e+003,3.324109e+001
1.046101e+003,4.098401e+001
1.047065e+003,4.946704e+001
1.048029e+003,5.056836e+001
1.048993e+003,4.561035e+001
1.049958e+003,4.235767e+001
1.050922e+003,4.515588e+001
1.051886e+003,5.025012e+001
1.052850e+003,5.483594e+001
1.053814e+003,5.836438e+001
1.054779e+003,5.950500e+001
1.055743e+003,5.811182e+001
1.056707e+003,5.592468e+001
1.057671e+003,5.521741e+001
1.058636e+003,5.583533e+001
1.059600e+003,5.299500e+001
1.060564e+003,4.222815e+001
1.061528e+003,3.668701e+001
1.062493e+003,4.125012e+001
1.063457e+003,4.826245e+001
1.064421e+003,4.951685e+001
1.065385e+003,4.449158e+001
1.066349e+003,3.961719e+001
1.067314e+003,3.790137e+001
1.068278e+003,3.776807e+001
1.069242e+003,3.823804e+001
1.070206e+003,3.969849e+001
1.071171e+003,4.321960e+001
1.072135e+003,4.849963e+001
1.073099e+003,5.267993e+001
1.074063e+003,5.131067e+001
1.075028e+003,4.392078e+001
1.075992e+003,4.137476e+001
1.076956e+003,4.594189e+001
1.077920e+003,4.926501e+001
1.078885e+003,4.837720e+001
1.079849e+003,4.537207e+001
1.080813e+003,4.318347e+001
1.081777e+003,4.214124e+001
1.082741e+003,4.296509e+001
1.083706e+003,4.781677e+001
1.084670e+003,5.141663e+001
1.085634e+003,5.023645e+001
1.086598e+003,4.559167e+001
1.087563e+003,4.038403e+001
1.088527e+003,3.671326e+001
1.089491e+003,3.485364e+001
1.090455e+003,3.418604e+001
1.091420e+003,3.421252e+001
1.092384e+003,3.514917e+001
1.093348e+003,3.723596e+001
1.094312e+003,3.857751e+001
1.095276e+003,3.872852e+001
1.096241e+003,3.825195e+001
1.097205e+003,3.693811e+001
1.098169e+003,3.310742e+001
1.099133e+003,3.141064e+001
1.100098e+003,3.798303e+001
1.101062e+003,4.380286e+001
1.102026e+003,4.101440e+001
1.102990e+003,3.290552e+001
1.103955e+003,2.793030e+001
1.104919e+003,3.105798e+001
1.105883e+003,3.905701e+001
1.106847e+003,4.627820e+001
1.107812e+003,5.237341e+001
1.108776e+003,5.467505e+001
1.109740e+003,5.163196e+001
1.110704e+003,4.782190e+001
1.111668e+003,4.650281e+001
1.112633e+003,4.802673e+001
1.113597e+003,5.225745e+001
1.114561e+003,6.050317e+001
1.115525e+003,6.665649e+001
1.116490e+003,6.723218e+001
1.117454e+003,6.671118e+001
1.118418e+003,6.900122e+001
1.119382e+003,7.360535e+001
1.120347e+003,7.686353e+001
1.121311e+003,7.590393e+001
1.122275e+003,7.250732e+001
1.123239e+003,7.259485e+001
1.124203e+003,7.694861e+001
1.125168e+003,8.118298e+001
1.126132e+003,8.525781e+001
1.127096e+003,8.921521e+001
1.128060e+003,9.164685e+001
1.129025e+003,9.311133e+001
1.129989e+003,9.825037e+001
1.130953e+003,1.097688e+002
1.131917e+003,1.185302e+002
1.132882e+003,1.207935e+002
1.133846e+003,1.219860e+002
1.134810e+003,1.248448e+002
1.135774e+003,1.296439e+002
1.136739e+003,1.353854e+002
1.137703e+003,1.414602e+002
1.138667e+003,1.487317e+002
1.139631e+003,1.588136e+002
1.140595e+003,1.717865e+002
1.141560e+003,1.881821e+002
1.142524e+003,2.090028e+002
1.143488e+003,2.322268e+002
1.144452e+003,2.554702e+002
1.145417e+003,2.796869e+002
1.146381e+003,3.087368e+002
1.147345e+003,3.438418e+002
1.148309e+003,3.801263e+002
1.149274e+003,4.159353e+002
1.150238e+003,4.537904e+002
1.151202e+003,4.986167e+002
1.152166e+003,5.464941e+002
1.153130e+003,5.903629e+002
1.154095e+003,6.260603e+002
1.155059e+003,6.539276e+002
1.156023e+003,6.766672e+002
1.156987e+003,6.929615e+002
1.157952e+003,6.961946e+002
1.158916e+003,6.873568e+002
1.159880e+003,6.705225e+002
1.160844e+003,6.446578e+002
1.161809e+003,6.101302e+002
1.162773e+003,5.693558e+002
1.163737e+003,5.209095e+002
1.164701e+003,4.732152e+002
1.165666e+003,4.272845e+002
1.166630e+003,3.849949e+002
1.167594e+003,3.439659e+002
1.168558e+003,3.081759e+002
1.169522e+003,2.834410e+002
1.170487e+003,2.710587e+002
1.171451e+003,2.676447e+002
1.172415e+003,2.702845e+002
1.173379e+003,2.770773e+002
1.174344e+003,2.792224e+002
1.175308e+003,2.770819e+002
1.176272e+003,2.737031e+002
1.177236e+003,2.709279e+002
1.178201e+003,2.673014e+002
1.179165e+003,2.601913e+002
1.180129e+003,2.489338e+002
1.181093e+003,2.357434e+002
1.182057e+003,2.184584e+002
1.183022e+003,2.042173e+002
1.183986e+003,1.963575e+002
1.184950e+003,1.919221e+002
1.185914e+003,1.880911e+002
1.186879e+003,1.848789e+002
1.187843e+003,1.844695e+002
1.188807e+003,1.884346e+002
1.189771e+003,1.953463e+002
1.190736e+003,2.026017e+002
1.191700e+003,2.104232e+002
1.192664e+003,2.144988e+002
1.193628e+003,2.145232e+002
1.194593e+003,2.117091e+002
1.195557e+003,2.062266e+002
1.196521e+003,1.982775e+002
1.197485e+003,1.887572e+002
1.198449e+003,1.774926e+002
1.199414e+003,1.661780e+002
1.200378e+003,1.536078e+002
1.201342e+003,1.431418e+002
1.202306e+003,1.383204e+002
1.203271e+003,1.366902e+002
1.204235e+003,1.335938e+002
1.205199e+003,1.268385e+002
1.206163e+003,1.178280e+002
1.207128e+003,1.085510e+002
1.208092e+003,9.907507e+001
1.209056e+003,9.016907e+001
1.210020e+003,8.242859e+001
1.210984e+003,7.415906e+001
1.211949e+003,6.420447e+001
1.212913e+003,5.350220e+001
1.213877e+003,4.319775e+001
1.214841e+003,3.364307e+001
1.215806e+003,2.573914e+001
1.216770e+003,1.972363e+001
1.217734e+003,1.539270e+001
1.218698e+003,1.273486e+001
1.219663e+003,1.057666e+001
1.220627e+003,8.054932e+000
1.221591e+003,4.752686e+000
1.222555e+003,-1.414795e-001
1.223520e+003,-7.356689e+000
1.224484e+003,-1.570715e+001
1.225448e+003,-2.104944e+001
1.226412e+003,-2.272766e+001
1.227376e+003,-2.267615e+001
1.228341e+003,-1.883264e+001
1.229305e+003,-1.615039e+001
1.230269e+003,-1.805469e+001
1.231233e+003,-2.291089e+001
1.232198e+003,-2.755139e+001
1.233162e+003,-3.095361e+001
1.234126e+003,-3.167517e+001
1.235090e+003,-2.691504e+001
1.236055e+003,-2.163452e+001
1.237019e+003,-2.138794e+001
1.237983e+003,-2.508594e+001
1.238947e+003,-2.921545e+001
1.239911e+003,-3.191821e+001
1.240876e+003,-3.300806e+001
1.241840e+003,-3.249048e+001
1.242804e+003,-3.025867e+001
1.243768e+003,-2.768677e+001
1.244733e+003,-2.408875e+001
1.245697e+003,-2.102124e+001
1.246661e+003,-1.992847e+001
1.247625e+003,-1.958191e+001
1.248590e+003,-1.844116e+001
1.249554e+003,-1.629907e+001
1.250518e+003,-1.433594e+001
1.251482e+003,-1.355151e+001
1.252447e+003,-1.278650e+001
1.253411e+003,-9.328369e+000
1.254375e+003,-4.399170e+000
1.255339e+003,-1.795532e+000
1.256303e+003,-1.203003e+000
1.257268e+003,8.535156e-001
1.258232e+003,6.020142e+000
1.259196e+003,1.246460e+001
1.260160e+003,1.761548e+001
1.261125e+003,2.180444e+001
1.262089e+003,2.665356e+001
1.263053e+003,3.181323e+001
1.264017e+003,3.683643e+001
1.264982e+003,4.264807e+001
1.265946e+003,4.811108e+001
1.266910e+003,5.266663e+001
1.267874e+003,5.583008e+001
1.268839e+003,5.684241e+001
1.269803e+003,5.522156e+001
1.270767e+003,5.167212e+001
1.271731e+003,4.770544e+001
1.272695e+003,4.346777e+001
1.273660e+003,3.665271e+001
1.274624e+003,2.476697e+001
1.275588e+003,1.367517e+001
1.276552e+003,7.091187e+000
1.277517e+003,4.413330e+000
1.278481e+003,4.327881e+000
1.279445e+003,6.764404e+000
1.280409e+003,8.416382e+000
1.281374e+003,8.667358e+000
1.282338e+003,7.396729e+000
1.283302e+003,3.542725e+000
1.284266e+003,-1.261353e+000
1.285230e+003,-5.384033e+000
1.286195e+003,-8.531250e+000
1.287159e+003,-1.109949e+001
1.288123e+003,-1.310205e+001
1.289087e+003,-1.410376e+001
1.290052e+003,-1.406677e+001
1.291016e+003,-1.285962e+001
1.291980e+003,-1.327209e+001
1.292944e+003,-1.762170e+001
1.293909e+003,-2.172205e+001
1.294873e+003,-2.288611e+001
1.295837e+003,-2.236206e+001
1.296801e+003,-2.193677e+001
1.297766e+003,-2.193335e+001
1.298730e+003,-2.264490e+001
1.299694e+003,-2.516687e+001
1.300658e+003,-2.781030e+001
1.301622e+003,-2.893933e+001
1.302587e+003,-2.827136e+001
1.303551e+003,-2.472363e+001
1.304515e+003,-1.821594e+001
1.305479e+003,-1.142456e+001
1.306444e+003,-6.494385e+000
1.307408e+003,-4.011353e+000
1.308372e+003,-5.408325e+000
1.309336e+003,-1.225684e+001
1.310301e+003,-1.834790e+001
1.311265e+003,-2.408459e+001
1.312229e+003,-2.735242e+001
1.313193e+003,-2.585364e+001
1.314157e+003,-2.293579e+001
1.315122e+003,-2.270398e+001
1.316086e+003,-2.518030e+001
1.317050e+003,-2.633582e+001
1.318014e+003,-2.303308e+001
1.318979e+003,-1.838623e+001
1.319943e+003,-1.936328e+001
1.320907e+003,-2.465771e+001
1.321871e+003,-2.493164e+001
1.322836e+003,-1.932751e+001
1.323800e+003,-1.387341e+001
1.324764e+003,-1.213000e+001
1.325728e+003,-1.204285e+001
1.326693e+003,-1.011841e+001
1.327657e+003,-6.604370e+000
1.328621e+003,-4.563721e+000
1.329585e+003,-2.993896e+000
1.330549e+003,-2.127075e+000
1.331514e+003,-5.391724e+000
1.332478e+003,-9.741089e+000
1.333442e+003,-1.182690e+001
1.334406e+003,-1.113025e+001
1.335371e+003,-8.108765e+000
1.336335e+003,-3.257446e+000
1.337299e+003,1.130737e+000
1.338263e+003,1.148682e-001
1.339228e+003,-7.302124e+000
1.340192e+003,-1.039282e+001
1.341156e+003,-5.681519e+000
1.342120e+003,-2.160645e+000
1.343084e+003,-2.542236e+000
1.344049e+003,-4.520020e+000
1.345013e+003,-5.374023e+000
1.345977e+003,-5.188110e+000
1.346941e+003,-6.331665e+000
1.347906e+003,-9.865601e+000
1.348870e+003,-1.258167e+001
1.349834e+003,-1.052795e+001
1.350798e+003,-7.132813e+000
1.351763e+003,-9.239624e+000
1.352727e+003,-1.550586e+001
1.353691e+003,-1.874268e+001
1.354655e+003,-1.572107e+001
1.355620e+003,-1.077136e+001
1.356584e+003,-8.762207e+000
1.357548e+003,-9.164185e+000
1.358512e+003,-9.365479e+000
1.359476e+003,-1.005896e+001
1.360441e+003,-1.102917e+001
1.361405e+003,-1.281519e+001
1.362369e+003,-1.347058e+001
1.363333e+003,-1.105457e+001
1.364298e+003,-7.292114e+000
1.365262e+003,-4.003906e+000
1.366226e+003,-2.075806e+000
1.367190e+003,-2.453735e+000
1.368155e+003,-6.062256e+000
1.369119e+003,-1.150647e+001
1.370083e+003,-1.422791e+001
1.371047e+003,-1.334802e+001
1.372011e+003,-1.131726e+001
1.372976e+003,-8.815796e+000
1.373940e+003,-5.893677e+000
1.374904e+003,-3.679199e-001
1.375868e+003,4.783813e+000
1.376833e+003,4.418945e+000
1.377797e+003,-1.160767e+000
1.378761e+003,-5.660767e+000
1.379725e+003,-6.061646e+000
1.380690e+003,-5.174561e+000
1.381654e+003,-5.919556e+000
1.382618e+003,-6.824341e+000
1.383582e+003,-5.898315e+000
1.384547e+003,-3.173218e+000
1.385511e+003,3.057861e-001
1.386475e+003,4.048828e+000
1.387439e+003,6.973022e+000
1.388403e+003,6.914551e+000
1.389368e+003,3.814331e+000
1.390332e+003,3.118530e+000
1.391296e+003,7.600342e+000
1.392260e+003,1.010388e+001
1.393225e+003,6.682861e+000
1.394189e+003,3.227783e+000
1.395153e+003,4.281128e+000
1.396117e+003,7.053345e+000
1.397082e+003,5.725586e+000
1.398046e+003,-1.342773e-002
1.399010e+003,-3.190430e+000
1.399974e+003,2.374512e+000
1.400938e+003,1.205090e+001
1.401903e+003,1.319336e+001
1.402867e+003,4.735962e+000
1.403831e+003,8.964844e-001
1.404795e+003,2.047729e+000
1.405760e+003,5.175903e+000
1.406724e+003,1.033374e+001
1.407688e+003,1.379443e+001
1.408652e+003,1.142896e+001
1.409617e+003,4.890015e+000
1.410581e+003,3.392334e-001
1.411545e+003,2.698975e-001
1.412509e+003,2.197754e+000
1.413474e+003,4.478027e+000
1.414438e+003,5.534790e+000
1.415402e+003,3.271484e+000
1.416366e+003,-9.831543e-001
1.417330e+003,-2.498047e+000
1.418295e+003,1.191284e+000
1.419259e+003,5.918579e+000
1.420223e+003,5.536621e+000
1.421187e+003,8.315430e-001
1.422152e+003,-1.196289e-001
1.423116e+003,4.682251e+000
1.424080e+003,9.937622e+000
1.425044e+003,1.444470e+001
1.426009e+003,1.738037e+001
1.426973e+003,1.765308e+001
1.427937e+003,1.649243e+001
1.428901e+003,1.493787e+001
1.429865e+003,1.395471e+001
1.430830e+003,1.484937e+001
1.431794e+003,1.810693e+001
1.432758e+003,2.214209e+001
1.433722e+003,2.460767e+001
1.434687e+003,2.627966e+001
1.435651e+003,3.059546e+001
1.436615e+003,3.786548e+001
1.437579e+003,4.234460e+001
1.438544e+003,4.357166e+001
1.439508e+003,4.247717e+001
1.440472e+003,3.855151e+001
1.441436e+003,3.409802e+001
1.442401e+003,3.235132e+001
1.443365e+003,3.384839e+001
1.444329e+003,3.760266e+001
1.445293e+003,4.387476e+001
1.446257e+003,5.013586e+001
1.447222e+003,4.945264e+001
1.448186e+003,4.350854e+001
1.449150e+003,4.319495e+001
1.450114e+003,5.134741e+001
1.451079e+003,5.626501e+001
1.452043e+003,5.005347e+001
1.453007e+003,3.965332e+001
1.453971e+003,3.393103e+001
1.454936e+003,3.219128e+001
1.455900e+003,3.004114e+001
1.456864e+003,2.641516e+001
1.457828e+003,2.429919e+001
1.458792e+003,2.578540e+001
1.459757e+003,2.828564e+001
1.460721e+003,3.094165e+001
1.461685e+003,3.268103e+001
1.462649e+003,3.120740e+001
1.463614e+003,2.653552e+001
1.464578e+003,2.208167e+001
1.465542e+003,2.056860e+001
1.466506e+003,2.103320e+001
1.467471e+003,2.161121e+001
1.468435e+003,2.311731e+001
1.469399e+003,2.486755e+001
1.470363e+003,2.442932e+001
1.471328e+003,2.600366e+001
1.472292e+003,3.227686e+001
1.473256e+003,3.769263e+001
1.474220e+003,3.895215e+001
1.475184e+003,3.767798e+001
1.476149e+003,3.623755e+001
1.477113e+003,3.530908e+001
1.478077e+003,3.495337e+001
1.479041e+003,3.583044e+001
1.480006e+003,3.821960e+001
1.480970e+003,4.154260e+001
1.481934e+003,4.525342e+001
1.482898e+003,4.892847e+001
1.483863e+003,5.374854e+001
1.484827e+003,5.653516e+001
1.485791e+003,5.488037e+001
1.486755e+003,5.342676e+001
1.487719e+003,5.667822e+001
1.488684e+003,6.291943e+001
1.489648e+003,6.694495e+001
1.490612e+003,6.758313e+001
1.491576e+003,7.011914e+001
1.492541e+003,7.901453e+001
1.493505e+003,9.139551e+001
1.494469e+003,1.016599e+002
1.495433e+003,1.092958e+002
1.496398e+003,1.154796e+002
1.497362e+003,1.208855e+002
1.498326e+003,1.271180e+002
1.499290e+003,1.336716e+002
1.500255e+003,1.421783e+002
1.501219e+003,1.552062e+002
1.502183e+003,1.719960e+002
1.503147e+003,1.887618e+002
1.504111e+003,2.041260e+002
1.505076e+003,2.223796e+002
1.506040e+003,2.480327e+002
1.507004e+003,2.759908e+002
1.507968e+003,2.979561e+002
1.508933e+003,3.190961e+002
1.509897e+003,3.504724e+002
1.510861e+003,3.951320e+002
1.511825e+003,4.478735e+002
1.512790e+003,5.054607e+002
1.513754e+003,5.657959e+002
1.514718e+003,6.265499e+002
1.515682e+003,6.869269e+002
1.516646e+003,7.460540e+002
1.517611e+003,8.058246e+002
1.518575e+003,8.617100e+002
1.519539e+003,9.175507e+002
1.520503e+003,9.652537e+002
1.521468e+003,1.000721e+003
1.522432e+003,1.024433e+003
1.523396e+003,1.037672e+003
1.524360e+003,1.040482e+003
1.525325e+003,1.032134e+003
1.526289e+003,1.012361e+003
1.527253e+003,9.829919e+002
1.528217e+003,9.464901e+002
1.529182e+003,9.034915e+002
1.530146e+003,8.562135e+002
1.531110e+003,8.076384e+002
1.532074e+003,7.469078e+002
1.533039e+003,6.633108e+002
1.534003e+003,5.772908e+002
1.534967e+003,4.952827e+002
1.535931e+003,4.205646e+002
1.536896e+003,3.554098e+002
1.537860e+003,3.000092e+002
1.538824e+003,2.529105e+002
1.539788e+003,2.129147e+002
1.540752e+003,1.798950e+002
1.541717e+003,1.541932e+002
1.542681e+003,1.359131e+002
1.543645e+003,1.226008e+002
1.544609e+003,1.170397e+002
1.545573e+003,1.118297e+002
1.546538e+003,1.043033e+002
1.547502e+003,9.840747e+001
1.548466e+003,9.808228e+001
1.549430e+003,9.996362e+001
1.550395e+003,1.004429e+002
1.551359e+003,9.896082e+001
1.552323e+003,9.634753e+001
1.553287e+003,9.301294e+001
1.554252e+003,8.851294e+001
1.555216e+003,8.217993e+001
1.556180e+003,7.483362e+001
1.557144e+003,6.832996e+001
1.558109e+003,6.302478e+001
1.559073e+003,5.886511e+001
1.560037e+003,5.501978e+001
1.561001e+003,5.165283e+001
1.561966e+003,4.989978e+001
1.562930e+003,4.966980e+001
1.563894e+003,5.048755e+001
1.564858e+003,5.188831e+001
1.565823e+003,5.380615e+001
1.566787e+003,5.599597e+001
1.567751e+003,5.632068e+001
1.568715e+003,5.304578e+001
1.569679e+003,5.006323e+001
1.570644e+003,5.304688e+001
1.571608e+003,5.910120e+001
1.572572e+003,6.092993e+001
1.573536e+003,5.872095e+001
1.574500e+003,5.719031e+001
1.575465e+003,5.760193e+001
1.576429e+003,5.893677e+001
1.577393e+003,5.962219e+001
1.578357e+003,6.049878e+001
1.579322e+003,6.522290e+001
1.580286e+003,7.361401e+001
1.581250e+003,7.742285e+001
1.582214e+003,7.284668e+001
1.583179e+003,6.801880e+001
1.584143e+003,6.860034e+001
1.585107e+003,7.172229e+001
1.586071e+003,7.534509e+001
1.587036e+003,7.954810e+001
1.588000e+003,8.182153e+001
1.588964e+003,8.100842e+001
1.589928e+003,7.930725e+001
1.590893e+003,7.787805e+001
1.591857e+003,7.693567e+001
1.592821e+003,7.656433e+001
1.593785e+003,7.706299e+001
1.594750e+003,7.960095e+001
1.595714e+003,8.426294e+001
1.596678e+003,8.912402e+001
1.597642e+003,9.413477e+001
1.598606e+003,9.823560e+001
1.599571e+003,1.013584e+002
1.600535e+003,1.032029e+002
1.601499e+003,1.016439e+002
1.602463e+003,9.757532e+001
1.603427e+003,9.666223e+001
1.604392e+003,1.015880e+002
1.605356e+003,1.075488e+002
1.606320e+003,1.105481e+002
1.607284e+003,1.106355e+002
1.608249e+003,1.069285e+002
1.609213e+003,9.926782e+001
1.610177e+003,9.332202e+001
1.611141e+003,9.024731e+001
1.612106e+003,8.843079e+001
1.613070e+003,8.788623e+001
1.614034e+003,8.746826e+001
1.614998e+003,8.567151e+001
1.615963e+003,8.377832e+001
1.616927e+003,8.460474e+001
1.617891e+003,8.784766e+001
1.618855e+003,8.896521e+001
1.619820e+003,8.456323e+001
1.620784e+003,7.815076e+001
1.621748e+003,7.639917e+001
1.622712e+003,7.935547e+001
1.623677e+003,8.060413e+001
1.624641e+003,7.953113e+001
1.625605e+003,8.092126e+001
1.626569e+003,8.670142e+001
1.627533e+003,8.976196e+001
1.628498e+003,8.557776e+001
1.629462e+003,8.003223e+001
1.630426e+003,7.711719e+001
1.631390e+003,7.672180e+001
1.632354e+003,7.820874e+001
1.633319e+003,8.114539e+001
1.634283e+003,8.475745e+001
1.635247e+003,8.887598e+001
1.636211e+003,9.163550e+001
1.637176e+003,8.842627e+001
1.638140e+003,8.027490e+001
1.639104e+003,7.904871e+001
1.640068e+003,8.746033e+001
1.641033e+003,9.207361e+001
1.641997e+003,8.666345e+001
1.642961e+003,8.174438e+001
1.643925e+003,8.315454e+001
1.644890e+003,8.684863e+001
1.645854e+003,8.898877e+001
1.646818e+003,8.964844e+001
1.647782e+003,9.054858e+001
1.648747e+003,9.209863e+001
1.649711e+003,9.281604e+001
1.650675e+003,9.154773e+001
1.651639e+003,8.998596e+001
1.652604e+003,9.132971e+001
1.653568e+003,9.501050e+001
1.654532e+003,9.582642e+001
1.655496e+003,9.285205e+001
1.656460e+003,8.944031e+001
1.657425e+003,8.672595e+001
1.658389e+003,8.410364e+001
1.659353e+003,8.160437e+001
1.660317e+003,7.863831e+001
1.661281e+003,7.332043e+001
1.662246e+003,6.682983e+001
1.663210e+003,6.352722e+001
1.664174e+003,6.494568e+001
1.665138e+003,6.692932e+001
1.666103e+003,6.545215e+001
1.667067e+003,6.214673e+001
1.668031e+003,6.125940e+001
1.668995e+003,6.267578e+001
1.669960e+003,6.159277e+001
1.670924e+003,5.687451e+001
1.671888e+003,5.405762e+001
1.672852e+003,5.594971e+001
1.673817e+003,5.773914e+001
1.674781e+003,5.491968e+001
1.675745e+003,5.134900e+001
1.676709e+003,5.230005e+001
1.677674e+003,5.622827e+001
1.678638e+003,5.723157e+001
1.679602e+003,5.351697e+001
1.680566e+003,4.880908e+001
1.681531e+003,4.578430e+001
1.682495e+003,4.465796e+001
1.683459e+003,4.605432e+001
1.684423e+003,4.890173e+001
1.685387e+003,4.844678e+001
1.686352e+003,4.402930e+001
1.687316e+003,4.035474e+001
1.688280e+003,3.925671e+001
1.689244e+003,3.851538e+001
1.690208e+003,3.545056e+001
1.691173e+003,3.224976e+001
1.692137e+003,3.219141e+001
1.693101e+003,3.486536e+001
1.694065e+003,3.724133e+001
1.695030e+003,3.800684e+001
1.695994e+003,3.722314e+001
1.696958e+003,3.398584e+001
1.697922e+003,3.113818e+001
1.698887e+003,3.397314e+001
1.699851e+003,3.999988e+001
1.700815e+003,4.009192e+001
1.701779e+003,3.330981e+001
1.702744e+003,2.784949e+001
1.703708e+003,2.743103e+001
1.704672e+003,2.721216e+001
1.705636e+003,2.121301e+001
1.706601e+003,1.414734e+001
1.707565e+003,1.563306e+001
1.708529e+003,2.325342e+001
1.709493e+003,2.804602e+001
1.710458e+003,2.879175e+001
1.711422e+003,2.756458e+001
1.712386e+003,2.431714e+001
1.713350e+003,2.155835e+001
1.714314e+003,2.097937e+001
1.715279e+003,2.110229e+001
1.716243e+003,1.997559e+001
1.717207e+003,1.781604e+001
1.718171e+003,1.605334e+001
1.719135e+003,1.523071e+001
1.720100e+003,1.501001e+001
1.721064e+003,1.500330e+001
1.722028e+003,1.495618e+001
1.722992e+003,1.530798e+001
1.723957e+003,1.649414e+001
1.724921e+003,1.696899e+001
1.725885e+003,1.560876e+001
1.726849e+003,1.332959e+001
1.727814e+003,1.081934e+001
1.728778e+003,9.193848e+000
1.729742e+003,8.396484e+000
1.730706e+003,8.677979e+000
1.731671e+003,1.024475e+001
1.732635e+003,1.181482e+001
1.733599e+003,1.262952e+001
1.734563e+003,1.298718e+001
1.735528e+003,1.236255e+001
1.736492e+003,1.017798e+001
1.737456e+003,7.328247e+000
1.738420e+003,4.738159e+000
1.739385e+003,2.244385e+000
1.740349e+003,1.450684e+000
1.741313e+003,3.690063e+000
1.742277e+003,3.389526e+000
1.743241e+003,-1.640381e+000
1.744206e+003,-4.506836e+000
1.745170e+003,-4.464722e+000
1.746134e+003,-2.649170e+000
1.747098e+003,2.463379e+000
1.748063e+003,7.298462e+000
1.749027e+003,7.035645e+000
1.749991e+003,3.199707e+000
1.750955e+003,9.916992e-001
1.751919e+003,1.847412e+000
1.752884e+003,2.329590e+000
1.753848e+003,-4.447021e-001
1.754812e+003,-4.486084e+000
1.755776e+003,-5.061890e+000
1.756741e+003,-1.756348e+000
1.757705e+003,-5.738525e-001
1.758669e+003,-3.446655e+000
1.759633e+003,-4.365356e+000
1.760598e+003,-1.802368e+000
1.761562e+003,4.124756e-001
1.762526e+003,2.621704e+000
1.763490e+003,3.862671e+000
1.764455e+003,2.672485e+000
1.765419e+003,6.630859e-001
1.766383e+003,-6.262207e-002
1.767347e+003,3.564453e-001
1.768312e+003,7.772217e-001
1.769276e+003,4.899902e-001
1.770240e+003,-8.105469e-001
1.771204e+003,-3.068481e+000
1.772168e+003,-4.929688e+000
1.773133e+003,-4.326294e+000
1.774097e+003,-1.589111e+000
1.775061e+003,1.137695e-001
1.776025e+003,-3.250732e-001
1.776990e+003,-9.150391e-001
1.777954e+003,-1.306152e-001
1.778918e+003,9.787598e-001
1.779882e+003,7.048340e-001
1.780846e+003,-1.600342e-001
1.781811e+003,5.260010e-001
1.782775e+003,2.314209e+000
1.783739e+003,3.265381e+000
1.784703e+003,3.356445e+000
1.785668e+003,2.420532e+000
1.786632e+003,-1.367065e+000
1.787596e+003,-5.500244e+000
1.788560e+003,-7.597412e+000
1.789525e+003,-7.569214e+000
1.790489e+003,-5.718140e+000
1.791453e+003,-2.863892e+000
1.792417e+003,5.987549e-001
1.793382e+003,4.178955e+000
1.794346e+003,3.888916e+000
1.795310e+003,-2.826538e+000
1.796274e+003,-1.004346e+001
1.797239e+003,-1.043042e+001
1.798203e+003,-5.274902e+000
1.799167e+003,-1.047974e+000
1.800131e+003,8.817139e-001
1.801095e+003,1.605957e+000
1.802060e+003,6.483154e-001
1.803024e+003,1.965698e+000
1.803988e+003,8.967529e+000
1.804952e+003,1.362659e+001
1.805917e+003,9.665649e+000
1.806881e+003,3.599731e+000
1.807845e+003,2.667969e+000
1.808809e+003,5.315552e+000
1.809773e+003,6.220215e+000
1.810738e+003,4.468506e+000
1.811702e+003,3.755249e+000
1.812666e+003,6.274292e+000
1.813630e+003,9.290527e+000
1.814595e+003,9.041382e+000
1.815559e+003,6.157959e+000
1.816523e+003,3.712280e+000
1.817487e+003,1.767212e+000
1.818452e+003,2.006958e+000
1.819416e+003,6.939453e+000
1.820380e+003,8.580444e+000
1.821344e+003,5.441895e-001
1.822309e+003,-6.606079e+000
1.823273e+003,-3.808350e+000
1.824237e+003,1.547119e+000
1.825201e+003,3.237305e-001
1.826166e+003,-4.979736e+000
1.827130e+003,-5.789429e+000
1.828094e+003,-9.976807e-001
1.829058e+003,2.317871e+000
1.830022e+003,6.590576e-001
1.830987e+003,-1.965332e+000
1.831951e+003,-2.805786e+000
1.832915e+003,-2.170166e+000
1.833879e+003,8.837891e-002
1.834844e+003,3.259277e+000
1.835808e+003,5.436279e+000
1.836772e+003,6.426270e+000
1.837736e+003,6.907837e+000
1.838700e+003,6.834106e+000
1.839665e+003,6.547485e+000
1.840629e+003,6.684204e+000
1.841593e+003,7.144165e+000
1.842557e+003,7.241089e+000
1.843522e+003,6.944946e+000
1.844486e+003,6.356812e+000
1.845450e+003,6.650146e+000
1.846414e+003,5.997559e+000
1.847379e+003,1.557373e+000
1.848343e+003,-2.101563e+000
1.849307e+003,-2.494873e+000
1.850271e+003,-2.106567e+000
1.851236e+003,-3.044800e+000
1.852200e+003,-3.558716e+000
1.853164e+003,-6.156006e-001
1.854128e+003,3.987671e+000
1.855093e+003,5.016602e+000
1.856057e+003,1.445801e+000
1.857021e+003,-1.902954e+000
1.857985e+003,-1.388062e+000
1.858949e+003,1.212891e+000
1.859914e+003,3.746582e+000
1.860878e+003,6.121582e+000
1.861842e+003,6.383057e+000
1.862806e+003,4.229736e+000
1.863771e+003,2.672241e+000
1.864735e+003,1.671509e+000
1.865699e+003,2.601685e+000
1.866663e+003,7.809814e+000
1.867627e+003,1.297400e+001
1.868592e+003,1.323804e+001
1.869556e+003,1.034192e+001
1.870520e+003,9.145386e+000
1.871484e+003,9.081055e+000
1.872449e+003,5.958008e+000
1.873413e+003,-9.437256e-001
1.874377e+003,-2.217285e+000
1.875341e+003,8.013916e+000
1.876306e+003,1.710706e+001
1.877270e+003,1.703625e+001
1.878234e+003,1.339099e+001
1.879198e+003,1.194543e+001
1.880163e+003,1.174878e+001
1.881127e+003,9.456177e+000
1.882091e+003,5.526367e+000
1.883055e+003,3.598267e+000
1.884020e+003,5.046143e+000
1.884984e+003,7.854858e+000
1.885948e+003,1.026196e+001
1.886912e+003,1.250867e+001
1.887876e+003,1.526318e+001
1.888841e+003,1.849219e+001
1.889805e+003,2.081287e+001
1.890769e+003,2.228442e+001
1.891733e+003,2.241821e+001
1.892698e+003,2.010205e+001
1.893662e+003,1.774133e+001
1.894626e+003,1.637122e+001
1.895590e+003,1.540833e+001
1.896554e+003,1.509619e+001
1.897519e+003,1.518604e+001
1.898483e+003,1.409924e+001
1.899447e+003,1.213074e+001
1.900411e+003,1.242017e+001
1.901376e+003,1.582178e+001
1.902340e+003,1.956616e+001
1.903304e+003,2.311804e+001
1.904268e+003,2.572119e+001
1.905233e+003,2.816602e+001
1.906197e+003,2.878870e+001
1.907161e+003,2.380042e+001
1.908125e+003,1.705286e+001
1.909090e+003,1.549329e+001
1.910054e+003,1.832788e+001
1.911018e+003,2.036023e+001
1.911982e+003,2.002405e+001
1.912947e+003,1.839087e+001
1.913911e+003,1.604651e+001
1.914875e+003,1.502893e+001
1.915839e+003,1.865906e+001
1.916803e+003,2.517517e+001
1.917768e+003,2.805530e+001
1.918732e+003,2.722485e+001
1.919696e+003,2.629224e+001
1.920660e+003,2.561292e+001
1.921625e+003,2.503467e+001
1.922589e+003,2.299463e+001
1.923553e+003,2.259351e+001
1.924517e+003,2.810522e+001
1.925481e+003,3.379626e+001
1.926446e+003,3.398035e+001
1.927410e+003,3.101538e+001
1.928374e+003,2.918481e+001
1.929338e+003,2.847412e+001
1.930303e+003,2.822473e+001
1.931267e+003,2.962683e+001
1.932231e+003,3.044763e+001
1.933195e+003,2.805286e+001
1.934160e+003,2.519360e+001
1.935124e+003,2.394739e+001
1.936088e+003,2.293616e+001
1.937052e+003,2.071863e+001
1.938017e+003,1.828650e+001
1.938981e+003,1.689990e+001
1.939945e+003,1.699231e+001
1.940909e+003,1.978992e+001
1.941874e+003,2.529517e+001
1.942838e+003,2.975928e+001
1.943802e+003,3.023535e+001
1.944766e+003,2.869543e+001
1.945730e+003,2.766760e+001
1.946695e+003,2.664526e+001
1.947659e+003,2.480603e+001
1.948623e+003,2.169922e+001
1.949587e+003,2.137292e+001
1.950552e+003,2.557141e+001
1.951516e+003,2.848621e+001
1.952480e+003,2.741443e+001
1.953444e+003,2.623657e+001
1.954408e+003,2.766125e+001
1.955373e+003,2.964160e+001
1.956337e+003,3.026196e+001
1.957301e+003,3.032385e+001
1.958265e+003,3.000977e+001
1.959230e+003,2.924475e+001
1.960194e+003,2.960730e+001
1.961158e+003,3.137207e+001
1.962122e+003,3.197510e+001
1.963087e+003,3.099939e+001
1.964051e+003,2.876489e+001
1.965015e+003,2.379077e+001
1.965979e+003,2.032764e+001
1.966944e+003,2.340552e+001
1.967908e+003,2.959460e+001
1.968872e+003,3.256763e+001
1.969836e+003,3.209460e+001
1.970801e+003,3.298901e+001
1.971765e+003,3.713330e+001
1.972729e+003,3.941711e+001
1.973693e+003,3.458813e+001
1.974657e+003,2.812769e+001
1.975622e+003,2.877466e+001
1.976586e+003,3.361267e+001
1.977550e+003,3.534778e+001
1.978514e+003,3.461804e+001
1.979479e+003,3.468616e+001
1.980443e+003,3.591272e+001
1.981407e+003,3.822961e+001
1.982371e+003,4.198828e+001
1.983335e+003,4.486548e+001
1.984300e+003,4.466101e+001
1.985264e+003,4.237390e+001
1.986228e+003,3.969177e+001
1.987192e+003,3.702332e+001
1.988157e+003,3.686865e+001
1.989121e+003,4.063000e+001
1.990085e+003,4.077368e+001
1.991049e+003,3.401624e+001
1.992014e+003,3.108057e+001
1.992978e+003,3.614075e+001
1.993942e+003,4.047791e+001
1.994906e+003,4.009814e+001
1.995871e+003,3.906506e+001
1.996835e+003,4.144885e+001
1.997799e+003,4.484375e+001
1.998763e+003,4.396265e+001
1.999728e+003,3.983240e+001
