5.003444e+002,3.950839e+001
5.013087e+002,3.823010e+001
5.022729e+002,3.828677e+001
5.032371e+002,3.919647e+001
5.042014e+002,3.825076e+001
5.051656e+002,3.583133e+001
5.061298e+002,3.374707e+001
5.070941e+002,3.369867e+001
5.080583e+002,3.618973e+001
5.090225e+002,3.722067e+001
5.099868e+002,3.646927e+001
5.109510e+002,3.513657e+001
5.119152e+002,3.352701e+001
5.128795e+002,3.162564e+001
5.138437e+002,3.044193e+001
5.148079e+002,3.118488e+001
5.157722e+002,3.200681e+001
5.167364e+002,3.196072e+001
5.177006e+002,3.097430e+001
5.186649e+002,2.981293e+001
5.196291e+002,2.966571e+001
5.205933e+002,3.009473e+001
5.215576e+002,3.011740e+001
5.225218e+002,2.960938e+001
5.234860e+002,2.923718e+001
5.244503e+002,3.051505e+001
5.254145e+002,3.454886e+001
5.263787e+002,3.583499e+001
5.273430e+002,3.286826e+001
5.283072e+002,2.819699e+001
5.292714e+002,2.517801e+001
5.302357e+002,2.415186e+001
5.311999e+002,2.373624e+001
5.321641e+002,2.450888e+001
5.331284e+002,2.554041e+001
5.340926e+002,2.598254e+001
5.350568e+002,2.539948e+001
5.360211e+002,2.444638e+001
5.369853e+002,2.420706e+001
5.379495e+002,2.405573e+001
5.389138e+002,2.326514e+001
5.398780e+002,2.157996e+001
5.408422e+002,1.937698e+001
5.418065e+002,1.753839e+001
5.427707e+002,1.609647e+001
5.437349e+002,1.576801e+001
5.446992e+002,1.703699e+001
5.456634e+002,1.932843e+001
5.466276e+002,2.069894e+001
5.475919e+002,2.084546e+001
5.485561e+002,2.032739e+001
5.495203e+002,1.825058e+001
5.504846e+002,1.568311e+001
5.514488e+002,1.435275e+001
5.524130e+002,1.557123e+001
5.533773e+002,1.678094e+001
5.543415e+002,1.656638e+001
5.553057e+002,1.570349e+001
5.562700e+002,1.481979e+001
5.572342e+002,1.428369e+001
5.581984e+002,1.410541e+001
5.591627e+002,1.482343e+001
5.601269e+002,1.610703e+001
5.610911e+002,1.696136e+001
5.620554e+002,1.679718e+001
5.630196e+002,1.566318e+001
5.639838e+002,1.462610e+001
5.649481e+002,1.343454e+001
5.659123e+002,1.271127e+001
5.668765e+002,1.332333e+001
5.678408e+002,1.476956e+001
5.688050e+002,1.523453e+001
5.697692e+002,1.290363e+001
5.707335e+002,1.086230e+001
5.716977e+002,1.064008e+001
5.726619e+002,1.120990e+001
5.736262e+002,1.092810e+001
5.745904e+002,8.482910e+000
5.755546e+002,5.857117e+000
5.765189e+002,6.326569e+000
5.774831e+002,8.504639e+000
5.784473e+002,1.028378e+001
5.794116e+002,1.030600e+001
5.803758e+002,8.854919e+000
5.813400e+002,7.927704e+000
5.823043e+002,7.534515e+000
5.832685e+002,6.761719e+000
5.842327e+002,5.100067e+000
5.851970e+002,2.889557e+000
5.861612e+002,1.607666e+000
5.871254e+002,1.958557e+000
5.880897e+002,2.541534e+000
5.890539e+002,3.160217e+000
5.900181e+002,3.723297e+000
5.909824e+002,4.289673e+000
5.919466e+002,5.112305e+000
5.929108e+002,5.578308e+000
5.938751e+002,4.997009e+000
5.948393e+002,3.770355e+000
5.958035e+002,2.437286e+000
5.967678e+002,1.423431e+000
5.977320e+002,8.188171e-001
5.986962e+002,8.984375e-001
5.996605e+002,1.419128e+000
6.006247e+002,2.026794e+000
6.015889e+002,2.515808e+000
6.025532e+002,2.937531e+000
6.035174e+002,3.749207e+000
6.044816e+002,5.945496e+000
6.054459e+002,7.500946e+000
6.064101e+002,7.931458e+000
6.073743e+002,7.528625e+000
6.083386e+002,6.894592e+000
6.093028e+002,6.408569e+000
6.102670e+002,5.639771e+000
6.112313e+002,3.628754e+000
6.121955e+002,1.353760e+000
6.131597e+002,2.484741e-001
6.141240e+002,1.259216e+000
6.150882e+002,3.684296e+000
6.160524e+002,4.580414e+000
6.170167e+002,4.307587e+000
6.179809e+002,4.037567e+000
6.189451e+002,4.213379e+000
6.199094e+002,4.679504e+000
6.208736e+002,4.887451e+000
6.218378e+002,4.962402e+000
6.228021e+002,4.967072e+000
6.237663e+002,4.887512e+000
6.247305e+002,4.802887e+000
6.256948e+002,4.706390e+000
6.266590e+002,4.308624e+000
6.276232e+002,4.161987e+000
6.285875e+002,5.049072e+000
6.295517e+002,6.304047e+000
6.305159e+002,7.423462e+000
6.314802e+002,8.009064e+000
6.324444e+002,7.703766e+000
6.334086e+002,4.808899e+000
6.343729e+002,3.594055e-001
6.353371e+002,-3.427063e+000
6.363013e+002,-5.910248e+000
6.372656e+002,-7.139191e+000
6.382298e+002,-7.111755e+000
6.391940e+002,-4.685486e+000
6.401583e+002,-2.454102e+000
6.411225e+002,5.464478e-001
6.420867e+002,3.218201e+000
6.430510e+002,3.776794e+000
6.440152e+002,8.772888e-001
6.449794e+002,-1.838440e+000
6.459437e+002,-2.483612e+000
6.469079e+002,-2.219482e+000
6.478721e+002,-1.307007e+000
6.488364e+002,-1.009216e-001
6.498006e+002,4.453125e-001
6.507648e+002,-2.836487e+000
6.517291e+002,-7.990570e+000
6.526933e+002,-9.702515e+000
6.536575e+002,-6.861359e+000
6.546218e+002,-1.363464e+000
6.555860e+002,3.323212e+000
6.565502e+002,7.607391e+000
6.575145e+002,9.545441e+000
6.584787e+002,8.509094e+000
6.594429e+002,6.037354e+000
6.604072e+002,2.680939e+000
6.613714e+002,-1.730804e+000
6.623356e+002,-4.628204e+000
6.632999e+002,-3.627289e+000
6.642641e+002,-2.066010e+000
6.652283e+002,-1.400604e+000
6.661926e+002,-1.739197e+000
6.671568e+002,-2.299194e+000
6.681210e+002,-2.267517e+000
6.690853e+002,-1.919434e+000
6.700495e+002,-2.011230e+000
6.710137e+002,-2.485138e+000
6.719780e+002,-2.492859e+000
6.729422e+002,-9.815063e-001
6.739064e+002,2.580933e+000
6.748707e+002,3.863373e+000
6.758349e+002,1.185059e+000
6.767991e+002,-1.211639e+000
6.777634e+002,-1.074860e+000
6.787276e+002,1.374664e+000
6.796918e+002,3.452271e+000
6.806561e+002,4.061371e+000
6.816203e+002,3.797394e+000
6.825845e+002,2.042786e+000
6.835488e+002,-2.229614e-001
6.845130e+002,-1.235443e+000
6.854772e+002,5.458069e-001
6.864415e+002,3.334900e+000
6.874057e+002,2.156189e+000
6.883699e+002,-1.751343e+000
6.893342e+002,-4.787170e+000
6.902984e+002,-4.851624e+000
6.912626e+002,-2.333069e+000
6.922269e+002,-3.017883e-001
6.931911e+002,2.088226e+000
6.941553e+002,3.246033e+000
6.951196e+002,1.691681e+000
6.960838e+002,-1.028870e+000
6.970480e+002,-2.044525e+000
6.980123e+002,3.564758e-001
6.989765e+002,1.774353e+000
6.999407e+002,-6.914673e-001
7.009050e+002,-3.952423e+000
7.018692e+002,-5.452057e+000
7.028334e+002,-4.428009e+000
7.037977e+002,-2.452942e+000
7.047619e+002,-1.944275e+000
7.057261e+002,-2.104370e+000
7.066904e+002,-1.359406e+000
7.076546e+002,5.185852e-001
7.086188e+002,2.585266e+000
7.095831e+002,3.326141e+000
7.105473e+002,2.255280e+000
7.115115e+002,8.580017e-001
7.124758e+002,-1.824951e+000
7.134400e+002,-3.965179e+000
7.144042e+002,-4.058014e+000
7.153685e+002,-2.058502e+000
7.163327e+002,-1.956177e-001
7.172969e+002,1.003876e+000
7.182612e+002,1.369141e+000
7.192254e+002,-1.333618e-002
7.201896e+002,-2.367706e+000
7.211539e+002,-4.211731e+000
7.221181e+002,-4.257294e+000
7.230823e+002,-3.067871e+000
7.240466e+002,-2.110962e+000
7.250108e+002,-1.249298e+000
7.259750e+002,-5.624084e-001
7.269393e+002,-1.981812e-001
7.279035e+002,-3.751526e-001
7.288677e+002,-1.433289e+000
7.298320e+002,-5.295044e+000
7.307962e+002,-6.828491e+000
7.317604e+002,-4.074615e+000
7.327247e+002,6.035767e-001
7.336889e+002,3.942596e+000
7.346531e+002,4.839691e+000
7.356174e+002,4.139404e+000
7.365816e+002,1.961456e+000
7.375458e+002,-4.224854e-001
7.385101e+002,-2.406464e+000
7.394743e+002,-3.636444e+000
7.404385e+002,-3.766083e+000
7.414028e+002,-1.858002e+000
7.423670e+002,1.163513e+000
7.433312e+002,2.466858e+000
7.442955e+002,2.018036e+000
7.452597e+002,1.133789e+000
7.462239e+002,1.179779e+000
7.471882e+002,2.335114e+000
7.481524e+002,3.326080e+000
7.491166e+002,4.540741e+000
7.500809e+002,4.730896e+000
7.510451e+002,2.745789e+000
7.520093e+002,-7.625427e-001
7.529736e+002,-3.569153e+000
7.539378e+002,-4.365906e+000
7.549020e+002,-4.051575e+000
7.558663e+002,-2.928223e+000
7.568306e+002,-1.435547e+000
7.577948e+002,-1.579285e-001
7.587590e+002,4.968872e-001
7.597233e+002,6.065979e-001
7.606875e+002,6.448669e-001
7.616517e+002,7.483521e-001
7.626160e+002,1.134430e+000
7.635802e+002,2.057251e+000
7.645444e+002,3.167542e+000
7.655087e+002,3.687378e+000
7.664729e+002,3.412811e+000
7.674371e+002,2.764435e+000
7.684014e+002,1.236511e+000
7.693656e+002,-1.363220e-001
7.703298e+002,-6.937866e-001
7.712941e+002,-3.363647e-001
7.722583e+002,6.162415e-001
7.732225e+002,2.880493e+000
7.741868e+002,4.671967e+000
7.751510e+002,4.050354e+000
7.761152e+002,1.749420e+000
7.770795e+002,-4.207458e-001
7.780437e+002,-8.862000e-001
7.790079e+002,1.229553e-001
7.799722e+002,1.375366e+000
7.809364e+002,3.072418e+000
7.819006e+002,3.894379e+000
7.828649e+002,3.087982e+000
7.838291e+002,1.189514e+000
7.847933e+002,-3.742371e-001
7.857576e+002,-2.096527e+000
7.867218e+002,-2.925415e+000
7.876860e+002,-1.698761e+000
7.886503e+002,-3.244019e-002
7.896145e+002,4.373779e-001
7.905787e+002,-6.105957e-001
7.915430e+002,-1.427460e+000
7.925072e+002,3.381042e-001
7.934714e+002,2.795776e+000
7.944357e+002,4.288300e+000
7.953999e+002,4.716797e+000
7.963641e+002,4.296722e+000
7.973284e+002,3.120880e+000
7.982926e+002,1.082428e+000
7.992568e+002,7.128601e-001
8.002211e+002,2.455627e+000
8.011853e+002,3.830750e+000
8.021495e+002,3.965698e+000
8.031138e+002,3.466248e+000
8.040780e+002,3.821381e+000
8.050422e+002,5.778625e+000
8.060065e+002,7.268250e+000
8.069707e+002,7.247406e+000
8.079349e+002,6.529663e+000
8.088992e+002,5.866699e+000
8.098634e+002,5.648865e+000
8.108276e+002,5.921997e+000
8.117919e+002,7.058380e+000
8.127561e+002,8.148346e+000
8.137203e+002,7.573792e+000
8.146846e+002,5.384949e+000
8.156488e+002,3.323730e+000
8.166130e+002,3.624756e+000
8.175773e+002,7.039215e+000
8.185415e+002,7.873199e+000
8.195057e+002,3.588776e+000
8.204700e+002,2.468872e-002
8.214342e+002,-6.099243e-001
8.223984e+002,9.785156e-001
8.233627e+002,2.827179e+000
8.243269e+002,4.687469e+000
8.252911e+002,6.026276e+000
8.262554e+002,6.150909e+000
8.272196e+002,5.937317e+000
8.281838e+002,6.572693e+000
8.291481e+002,8.290344e+000
8.301123e+002,9.960815e+000
8.310765e+002,9.510925e+000
8.320408e+002,6.940704e+000
8.330050e+002,4.106049e+000
8.339692e+002,8.008118e-001
8.349335e+002,-1.682465e+000
8.358977e+002,-1.613708e+000
8.368619e+002,1.516235e+000
8.378262e+002,4.168030e+000
8.387904e+002,6.648254e+000
8.397546e+002,7.861572e+000
8.407189e+002,6.816895e+000
8.416831e+002,4.508270e+000
8.426473e+002,2.432434e+000
8.436116e+002,1.141785e+000
8.445758e+002,8.435059e-001
8.455400e+002,2.392548e+000
8.465043e+002,4.285919e+000
8.474685e+002,4.670349e+000
8.484327e+002,3.376129e+000
8.493970e+002,2.073914e+000
8.503612e+002,3.441681e+000
8.513254e+002,8.072479e+000
8.522897e+002,1.041904e+001
8.532539e+002,9.419647e+000
8.542181e+002,7.640350e+000
8.551824e+002,6.333374e+000
8.561466e+002,5.719971e+000
8.571108e+002,6.300873e+000
8.580751e+002,8.849518e+000
8.590393e+002,1.089572e+001
8.600035e+002,1.140063e+001
8.609678e+002,1.143582e+001
8.619320e+002,1.244620e+001
8.628962e+002,1.489355e+001
8.638605e+002,1.740018e+001
8.648247e+002,1.788736e+001
8.657889e+002,1.677615e+001
8.667532e+002,1.452164e+001
8.677174e+002,1.119846e+001
8.686816e+002,8.333496e+000
8.696459e+002,7.823608e+000
8.706101e+002,1.010123e+001
8.715743e+002,1.227164e+001
8.725386e+002,1.438358e+001
8.735028e+002,1.638312e+001
8.744670e+002,1.836438e+001
8.754313e+002,1.995648e+001
8.763955e+002,2.041507e+001
8.773597e+002,1.915903e+001
8.783240e+002,1.829767e+001
8.792882e+002,2.025046e+001
8.802524e+002,2.252704e+001
8.812167e+002,2.251343e+001
8.821809e+002,2.006979e+001
8.831451e+002,1.733746e+001
8.841094e+002,1.718674e+001
8.850736e+002,1.962646e+001
8.860378e+002,2.085049e+001
8.870021e+002,2.050916e+001
8.879663e+002,2.003238e+001
8.889305e+002,1.987064e+001
8.898948e+002,2.004865e+001
8.908590e+002,2.111551e+001
8.918232e+002,2.446451e+001
8.927875e+002,2.668567e+001
8.937517e+002,2.670682e+001
8.947159e+002,2.575275e+001
8.956802e+002,2.419476e+001
8.966444e+002,2.235580e+001
8.976086e+002,2.131271e+001
8.985729e+002,2.280676e+001
8.995371e+002,2.563998e+001
9.005013e+002,2.766745e+001
9.014656e+002,2.892307e+001
9.024298e+002,2.967130e+001
9.033940e+002,2.998849e+001
9.043583e+002,2.973691e+001
9.053225e+002,2.890277e+001
9.062867e+002,2.608997e+001
9.072510e+002,2.433530e+001
9.082152e+002,2.403488e+001
9.091794e+002,2.499524e+001
9.101437e+002,2.776205e+001
9.111079e+002,3.244528e+001
9.120721e+002,3.562521e+001
9.130364e+002,3.368469e+001
9.140006e+002,3.057047e+001
9.149648e+002,2.795117e+001
9.159291e+002,2.630252e+001
9.168933e+002,2.600589e+001
9.178575e+002,2.721091e+001
9.188218e+002,2.918073e+001
9.197860e+002,2.941919e+001
9.207502e+002,2.778159e+001
9.217145e+002,2.710022e+001
9.226787e+002,2.894571e+001
9.236429e+002,3.139444e+001
9.246072e+002,3.119168e+001
9.255714e+002,2.735077e+001
9.265356e+002,2.543451e+001
9.274999e+002,2.909064e+001
9.284641e+002,3.166687e+001
9.294283e+002,2.989249e+001
9.303926e+002,2.573593e+001
9.313568e+002,2.301559e+001
9.323210e+002,2.373730e+001
9.332853e+002,2.578473e+001
9.342495e+002,2.602295e+001
9.352137e+002,2.517737e+001
9.361780e+002,2.422153e+001
9.371422e+002,2.351392e+001
9.381064e+002,2.316330e+001
9.390707e+002,2.322174e+001
9.400349e+002,2.365604e+001
9.409991e+002,2.344971e+001
9.419634e+002,2.157193e+001
9.429276e+002,2.036124e+001
9.438918e+002,2.065530e+001
9.448561e+002,2.199411e+001
9.458203e+002,2.398303e+001
9.467845e+002,2.694318e+001
9.477488e+002,2.869577e+001
9.487130e+002,2.575916e+001
9.496772e+002,2.217810e+001
9.506415e+002,2.152408e+001
9.516057e+002,2.363971e+001
9.525699e+002,2.587656e+001
9.535342e+002,2.560220e+001
9.544984e+002,2.314658e+001
9.554626e+002,2.202893e+001
9.564269e+002,2.270078e+001
9.573911e+002,2.336642e+001
9.583553e+002,2.336731e+001
9.593196e+002,2.306830e+001
9.602838e+002,2.300162e+001
9.612480e+002,2.307315e+001
9.622123e+002,2.364233e+001
9.631765e+002,2.605023e+001
9.641407e+002,2.787326e+001
9.651050e+002,2.730316e+001
9.660692e+002,2.517981e+001
9.670334e+002,2.368246e+001
9.679977e+002,2.428571e+001
9.689619e+002,2.583105e+001
9.699261e+002,2.500058e+001
9.708904e+002,2.259961e+001
9.718546e+002,2.137918e+001
9.728188e+002,2.191870e+001
9.737831e+002,2.354898e+001
9.747473e+002,2.578085e+001
9.757115e+002,2.900421e+001
9.766758e+002,3.097955e+001
9.776400e+002,3.009262e+001
9.786042e+002,3.021454e+001
9.795685e+002,3.327243e+001
9.805327e+002,3.717874e+001
9.814969e+002,3.947839e+001
9.824612e+002,3.946973e+001
9.834254e+002,3.767850e+001
9.843896e+002,3.237628e+001
9.853539e+002,2.657697e+001
9.863181e+002,2.406442e+001
9.872823e+002,2.450360e+001
9.882466e+002,2.533685e+001
9.892108e+002,2.458615e+001
9.901750e+002,2.270831e+001
9.911393e+002,2.132840e+001
9.921035e+002,1.997720e+001
9.930677e+002,1.900839e+001
9.940320e+002,1.862646e+001
9.949962e+002,1.883057e+001
9.959604e+002,1.977344e+001
9.969247e+002,2.145190e+001
9.978889e+002,2.320160e+001
9.988531e+002,2.413730e+001
9.998174e+002,2.531656e+001
1.000782e+003,2.814987e+001
1.001746e+003,3.163159e+001
1.002710e+003,3.435150e+001
1.003674e+003,3.560690e+001
1.004639e+003,3.549695e+001
1.005603e+003,3.398734e+001
1.006567e+003,3.085269e+001
1.007531e+003,2.998767e+001
1.008495e+003,3.267996e+001
1.009460e+003,3.502753e+001
1.010424e+003,3.418927e+001
1.011388e+003,3.109558e+001
1.012352e+003,2.947607e+001
1.013317e+003,3.048935e+001
1.014281e+003,3.132495e+001
1.015245e+003,3.119153e+001
1.016209e+003,3.038046e+001
1.017174e+003,2.897946e+001
1.018138e+003,2.717102e+001
1.019102e+003,2.524585e+001
1.020066e+003,2.346805e+001
1.021031e+003,2.189847e+001
1.021995e+003,2.050357e+001
1.022959e+003,1.906451e+001
1.023923e+003,1.717581e+001
1.024887e+003,1.447427e+001
1.025852e+003,1.158807e+001
1.026816e+003,9.550842e+000
1.027780e+003,8.568848e+000
1.028744e+003,8.119965e+000
1.029709e+003,8.313904e+000
1.030673e+003,8.783539e+000
1.031637e+003,1.013718e+001
1.032601e+003,1.130640e+001
1.033566e+003,1.060034e+001
1.034530e+003,7.539886e+000
1.035494e+003,4.153290e+000
1.036458e+003,2.298401e+000
1.037422e+003,1.733887e+000
1.038387e+003,2.584930e+000
1.039351e+003,4.535736e+000
1.040315e+003,5.780945e+000
1.041279e+003,4.904266e+000
1.042244e+003,2.524292e+000
1.043208e+003,1.409271e+000
1.044172e+003,2.456299e+000
1.045136e+003,2.970551e+000
1.046101e+003,2.540558e+000
1.047065e+003,2.104919e+000
1.048029e+003,2.043152e+000
1.048993e+003,2.420807e+000
1.049958e+003,3.520386e+000
1.050922e+003,5.950867e+000
1.051886e+003,8.201691e+000
1.052850e+003,8.410461e+000
1.053814e+003,7.642212e+000
1.054779e+003,7.281525e+000
1.055743e+003,7.564850e+000
1.056707e+003,7.707947e+000
1.057671e+003,6.739746e+000
1.058636e+003,4.616486e+000
1.059600e+003,3.074463e+000
1.060564e+003,2.391663e+000
1.061528e+003,2.248169e+000
1.062493e+003,2.501953e+000
1.063457e+003,3.045197e+000
1.064421e+003,4.232574e+000
1.065385e+003,6.114258e+000
1.066349e+003,7.110016e+000
1.067314e+003,5.753052e+000
1.068278e+003,4.035583e+000
1.069242e+003,3.314789e+000
1.070206e+003,3.323090e+000
1.071171e+003,3.446381e+000
1.072135e+003,3.379547e+000
1.073099e+003,3.424713e+000
1.074063e+003,4.292267e+000
1.075028e+003,6.205231e+000
1.075992e+003,6.617798e+000
1.076956e+003,4.654053e+000
1.077920e+003,2.691711e+000
1.078885e+003,1.114471e+000
1.079849e+003,4.764709e-001
1.080813e+003,2.353485e+000
1.081777e+003,7.670197e+000
1.082741e+003,1.165262e+001
1.083706e+003,1.039236e+001
1.084670e+003,8.003693e+000
1.085634e+003,6.310974e+000
1.086598e+003,5.308044e+000
1.087563e+003,4.482086e+000
1.088527e+003,3.626740e+000
1.089491e+003,3.041992e+000
1.090455e+003,3.104065e+000
1.091420e+003,3.768890e+000
1.092384e+003,4.558533e+000
1.093348e+003,5.944763e+000
1.094312e+003,6.395905e+000
1.095276e+003,4.266846e+000
1.096241e+003,7.366333e-001
1.097205e+003,-6.465454e-001
1.098169e+003,1.176147e+000
1.099133e+003,2.875244e+000
1.100098e+003,3.346039e+000
1.101062e+003,3.331848e+000
1.102026e+003,3.003998e+000
1.102990e+003,2.623962e+000
1.103955e+003,2.602203e+000
1.104919e+003,3.141937e+000
1.105883e+003,3.793182e+000
1.106847e+003,3.611969e+000
1.107812e+003,2.556488e+000
1.108776e+003,1.768372e+000
1.109740e+003,1.114655e+000
1.110704e+003,1.105255e+000
1.111668e+003,2.459290e+000
1.112633e+003,4.994415e+000
1.113597e+003,7.674255e+000
1.114561e+003,1.099249e+001
1.115525e+003,1.263943e+001
1.116490e+003,1.103082e+001
1.117454e+003,8.604004e+000
1.118418e+003,6.171967e+000
1.119382e+003,4.541718e+000
1.120347e+003,5.010834e+000
1.121311e+003,8.228638e+000
1.122275e+003,1.222882e+001
1.123239e+003,1.340817e+001
1.124203e+003,1.209103e+001
1.125168e+003,1.049380e+001
1.126132e+003,8.531830e+000
1.127096e+003,7.036896e+000
1.128060e+003,6.126617e+000
1.129025e+003,5.996826e+000
1.129989e+003,8.401123e+000
1.130953e+003,1.561591e+001
1.131917e+003,2.014462e+001
1.132882e+003,1.829984e+001
1.133846e+003,1.539612e+001
1.134810e+003,1.423953e+001
1.135774e+003,1.485480e+001
1.136739e+003,1.628528e+001
1.137703e+003,1.795074e+001
1.138667e+003,1.963928e+001
1.139631e+003,2.091797e+001
1.140595e+003,2.186404e+001
1.141560e+003,2.338672e+001
1.142524e+003,2.565286e+001
1.143488e+003,2.852136e+001
1.144452e+003,3.169485e+001
1.145417e+003,3.532556e+001
1.146381e+003,4.001971e+001
1.147345e+003,4.588354e+001
1.148309e+003,5.246957e+001
1.149274e+003,6.071399e+001
1.150238e+003,6.868906e+001
1.151202e+003,7.465604e+001
1.152166e+003,7.995978e+001
1.153130e+003,8.754514e+001
1.154095e+003,9.841757e+001
1.155059e+003,1.093907e+002
1.156023e+003,1.161850e+002
1.156987e+003,1.190020e+002
1.157952e+003,1.209977e+002
1.158916e+003,1.226165e+002
1.159880e+003,1.229070e+002
1.160844e+003,1.210049e+002
1.161809e+003,1.169558e+002
1.162773e+003,1.112352e+002
1.163737e+003,1.036962e+002
1.164701e+003,9.528851e+001
1.165666e+003,8.495276e+001
1.166630e+003,7.538184e+001
1.167594e+003,6.785544e+001
1.168558e+003,6.152026e+001
1.169522e+003,5.460208e+001
1.170487e+003,4.693964e+001
1.171451e+003,4.121625e+001
1.172415e+003,4.081985e+001
1.173379e+003,4.436011e+001
1.174344e+003,4.392596e+001
1.175308e+003,3.922150e+001
1.176272e+003,3.677219e+001
1.177236e+003,4.109714e+001
1.178201e+003,4.695483e+001
1.179165e+003,4.673996e+001
1.180129e+003,4.024866e+001
1.181093e+003,3.559033e+001
1.182057e+003,3.573505e+001
1.183022e+003,3.616245e+001
1.183986e+003,3.524692e+001
1.184950e+003,3.375067e+001
1.185914e+003,3.240701e+001
1.186879e+003,3.136752e+001
1.187843e+003,3.025040e+001
1.188807e+003,2.866751e+001
1.189771e+003,2.706815e+001
1.190736e+003,2.736090e+001
1.191700e+003,2.987714e+001
1.192664e+003,3.039288e+001
1.193628e+003,2.708411e+001
1.194593e+003,2.382449e+001
1.195557e+003,2.380414e+001
1.196521e+003,2.603113e+001
1.197485e+003,2.696594e+001
1.198449e+003,2.568832e+001
1.199414e+003,2.447388e+001
1.200378e+003,2.452325e+001
1.201342e+003,2.483936e+001
1.202306e+003,2.475632e+001
1.203271e+003,2.435129e+001
1.204235e+003,2.417712e+001
1.205199e+003,2.445786e+001
1.206163e+003,2.449985e+001
1.207128e+003,2.297531e+001
1.208092e+003,1.977350e+001
1.209056e+003,1.815381e+001
1.210020e+003,1.926093e+001
1.210984e+003,1.943811e+001
1.211949e+003,1.702328e+001
1.212913e+003,1.343552e+001
1.213877e+003,1.043082e+001
1.214841e+003,8.186707e+000
1.215806e+003,6.266296e+000
1.216770e+003,4.485657e+000
1.217734e+003,2.959473e+000
1.218698e+003,1.739380e+000
1.219663e+003,6.455078e-001
1.220627e+003,-5.465698e-001
1.221591e+003,-1.836212e+000
1.222555e+003,-3.014893e+000
1.223520e+003,-3.859985e+000
1.224484e+003,-4.369232e+000
1.225448e+003,-4.839233e+000
1.226412e+003,-5.387604e+000
1.227376e+003,-5.672516e+000
1.228341e+003,-5.138550e+000
1.229305e+003,-5.071289e+000
1.230269e+003,-6.767853e+000
1.231233e+003,-9.277100e+000
1.232198e+003,-1.034976e+001
1.233162e+003,-9.256256e+000
1.234126e+003,-8.332794e+000
1.235090e+003,-1.007687e+001
1.236055e+003,-1.219638e+001
1.237019e+003,-1.174948e+001
1.237983e+003,-9.673004e+000
1.238947e+003,-8.560822e+000
1.239911e+003,-9.414368e+000
1.240876e+003,-1.089178e+001
1.241840e+003,-1.105530e+001
1.242804e+003,-9.812439e+000
1.243768e+003,-8.835419e+000
1.244733e+003,-7.948364e+000
1.245697e+003,-7.624786e+000
1.246661e+003,-8.946838e+000
1.247625e+003,-1.018286e+001
1.248590e+003,-9.476410e+000
1.249554e+003,-7.353455e+000
1.250518e+003,-5.973785e+000
1.251482e+003,-6.418182e+000
1.252447e+003,-7.628845e+000
1.253411e+003,-8.542999e+000
1.254375e+003,-8.986847e+000
1.255339e+003,-8.687897e+000
1.256303e+003,-7.593903e+000
1.257268e+003,-6.112396e+000
1.258232e+003,-4.400665e+000
1.259196e+003,-2.887817e+000
1.260160e+003,-2.317505e+000
1.261125e+003,-2.737549e+000
1.262089e+003,-2.990204e+000
1.263053e+003,-2.964569e+000
1.264017e+003,-3.048157e+000
1.264982e+003,-3.449432e+000
1.265946e+003,-3.808380e+000
1.266910e+003,-3.994843e+000
1.267874e+003,-3.821503e+000
1.268839e+003,-2.563110e+000
1.269803e+003,3.108215e-001
1.270767e+003,3.186279e+000
1.271731e+003,2.571869e+000
1.272695e+003,-1.366821e+000
1.273660e+003,-3.959320e+000
1.274624e+003,-5.176453e+000
1.275588e+003,-5.437866e+000
1.276552e+003,-4.097351e+000
1.277517e+003,-2.053619e+000
1.278481e+003,-1.190918e+000
1.279445e+003,-1.712524e+000
1.280409e+003,-2.611053e+000
1.281374e+003,-4.032898e+000
1.282338e+003,-5.083099e+000
1.283302e+003,-5.050140e+000
1.284266e+003,-4.623260e+000
1.285230e+003,-4.699707e+000
1.286195e+003,-5.311646e+000
1.287159e+003,-5.667511e+000
1.288123e+003,-5.054260e+000
1.289087e+003,-3.782196e+000
1.290052e+003,-3.080811e+000
1.291016e+003,-3.232941e+000
1.291980e+003,-3.401062e+000
1.292944e+003,-3.003113e+000
1.293909e+003,-3.598785e+000
1.294873e+003,-6.638428e+000
1.295837e+003,-1.031287e+001
1.296801e+003,-1.223135e+001
1.297766e+003,-1.208438e+001
1.298730e+003,-1.082828e+001
1.299694e+003,-8.374725e+000
1.300658e+003,-6.301910e+000
1.301622e+003,-7.204041e+000
1.302587e+003,-9.160034e+000
1.303551e+003,-8.619568e+000
1.304515e+003,-5.183258e+000
1.305479e+003,-2.180786e+000
1.306444e+003,-2.478882e+000
1.307408e+003,-5.154999e+000
1.308372e+003,-6.967499e+000
1.309336e+003,-7.837555e+000
1.310301e+003,-8.076294e+000
1.311265e+003,-6.937683e+000
1.312229e+003,-5.972321e+000
1.313193e+003,-5.824066e+000
1.314157e+003,-6.006653e+000
1.315122e+003,-5.835968e+000
1.316086e+003,-5.420593e+000
1.317050e+003,-5.584839e+000
1.318014e+003,-6.842773e+000
1.318979e+003,-8.581451e+000
1.319943e+003,-9.927704e+000
1.320907e+003,-1.080054e+001
1.321871e+003,-1.123703e+001
1.322836e+003,-1.138867e+001
1.323800e+003,-1.123575e+001
1.324764e+003,-1.061255e+001
1.325728e+003,-9.702209e+000
1.326693e+003,-8.841156e+000
1.327657e+003,-8.115417e+000
1.328621e+003,-7.568695e+000
1.329585e+003,-7.087952e+000
1.330549e+003,-6.192200e+000
1.331514e+003,-4.401123e+000
1.332478e+003,-2.893219e+000
1.333442e+003,-2.943573e+000
1.334406e+003,-4.220032e+000
1.335371e+003,-5.492157e+000
1.336335e+003,-5.994568e+000
1.337299e+003,-5.821167e+000
1.338263e+003,-5.150604e+000
1.339228e+003,-3.891449e+000
1.340192e+003,-2.927704e+000
1.341156e+003,-1.661407e+000
1.342120e+003,-1.535309e+000
1.343084e+003,-4.076050e+000
1.344049e+003,-6.904694e+000
1.345013e+003,-8.048492e+000
1.345977e+003,-7.564484e+000
1.346941e+003,-6.055023e+000
1.347906e+003,-3.639435e+000
1.348870e+003,-2.014984e+000
1.349834e+003,-3.739990e+000
1.350798e+003,-6.597473e+000
1.351763e+003,-5.416260e+000
1.352727e+003,-1.036774e+000
1.353691e+003,1.090454e+000
1.354655e+003,-1.366638e+000
1.355620e+003,-5.332886e+000
1.356584e+003,-7.239655e+000
1.357548e+003,-7.278534e+000
1.358512e+003,-7.663757e+000
1.359476e+003,-9.056274e+000
1.360441e+003,-9.712616e+000
1.361405e+003,-8.853729e+000
1.362369e+003,-7.408295e+000
1.363333e+003,-4.323669e+000
1.364298e+003,-1.631897e+000
1.365262e+003,-3.143616e+000
1.366226e+003,-8.769531e+000
1.367190e+003,-1.357678e+001
1.368155e+003,-1.315152e+001
1.369119e+003,-8.893585e+000
1.370083e+003,-5.007751e+000
1.371047e+003,-1.121674e+000
1.372011e+003,7.174683e-001
1.372976e+003,-1.415680e+000
1.373940e+003,-3.260590e+000
1.374904e+003,-2.613220e+000
1.375868e+003,-1.119019e+000
1.376833e+003,-1.138947e+000
1.377797e+003,-2.674133e+000
1.378761e+003,-3.649109e+000
1.379725e+003,-2.959595e+000
1.380690e+003,-2.078156e+000
1.381654e+003,-2.675995e+000
1.382618e+003,-3.896118e+000
1.383582e+003,-4.711365e+000
1.384547e+003,-5.046448e+000
1.385511e+003,-5.125031e+000
1.386475e+003,-5.176544e+000
1.387439e+003,-4.842224e+000
1.388403e+003,-3.117981e+000
1.389368e+003,-2.844238e-002
1.390332e+003,1.460052e+000
1.391296e+003,3.186951e-001
1.392260e+003,-3.077393e-001
1.393225e+003,1.296173e+000
1.394189e+003,2.427002e+000
1.395153e+003,6.212158e-001
1.396117e+003,-2.268005e+000
1.397082e+003,-2.937042e+000
1.398046e+003,-7.986755e-001
1.399010e+003,1.597656e+000
1.399974e+003,1.829132e+000
1.400938e+003,3.801575e-001
1.401903e+003,-7.934265e-001
1.402867e+003,-1.248566e+000
1.403831e+003,-1.540894e+000
1.404795e+003,-1.759644e+000
1.405760e+003,-2.067780e+000
1.406724e+003,-3.154297e+000
1.407688e+003,-4.393585e+000
1.408652e+003,-4.710419e+000
1.409617e+003,-4.013184e+000
1.410581e+003,-2.895935e+000
1.411545e+003,-1.425873e+000
1.412509e+003,-5.203247e-001
1.413474e+003,-1.633667e+000
1.414438e+003,-3.799622e+000
1.415402e+003,-5.349640e+000
1.416366e+003,-6.085480e+000
1.417330e+003,-5.747681e+000
1.418295e+003,-3.987091e+000
1.419259e+003,-2.036530e+000
1.420223e+003,-1.657959e+000
1.421187e+003,-2.598907e+000
1.422152e+003,-2.583405e+000
1.423116e+003,-1.013947e+000
1.424080e+003,2.382507e-001
1.425044e+003,1.354065e-001
1.426009e+003,-1.099854e-001
1.426973e+003,-2.908020e-001
1.427937e+003,-1.798706e-001
1.428901e+003,1.000214e+000
1.429865e+003,2.897186e+000
1.430830e+003,3.832733e+000
1.431794e+003,2.654694e+000
1.432758e+003,1.904297e-001
1.433722e+003,-1.879242e+000
1.434687e+003,-3.504639e+000
1.435651e+003,-2.723419e+000
1.436615e+003,3.233795e+000
1.437579e+003,6.472412e+000
1.438544e+003,4.177734e+000
1.439508e+003,1.266449e+000
1.440472e+003,1.144318e+000
1.441436e+003,2.961792e+000
1.442401e+003,4.871063e+000
1.443365e+003,6.198730e+000
1.444329e+003,6.311157e+000
1.445293e+003,4.512817e+000
1.446257e+003,2.045258e+000
1.447222e+003,1.149109e+000
1.448186e+003,1.599640e+000
1.449150e+003,2.553802e+000
1.450114e+003,4.117249e+000
1.451079e+003,5.272980e+000
1.452043e+003,5.453308e+000
1.453007e+003,5.166077e+000
1.453971e+003,5.165619e+000
1.454936e+003,5.263519e+000
1.455900e+003,4.069580e+000
1.456864e+003,6.432800e-001
1.457828e+003,-1.495361e+000
1.458792e+003,1.072144e+000
1.459757e+003,4.353027e+000
1.460721e+003,5.258148e+000
1.461685e+003,4.321869e+000
1.462649e+003,2.580658e+000
1.463614e+003,5.543823e-001
1.464578e+003,-6.907654e-001
1.465542e+003,-1.053772e-001
1.466506e+003,1.543915e+000
1.467471e+003,2.174103e+000
1.468435e+003,1.789429e+000
1.469399e+003,1.191315e+000
1.470363e+003,-7.726440e-001
1.471328e+003,-1.539795e+000
1.472292e+003,6.671448e-001
1.473256e+003,2.789337e+000
1.474220e+003,2.405273e+000
1.475184e+003,6.050415e-001
1.476149e+003,-5.981750e-001
1.477113e+003,-4.591980e-001
1.478077e+003,9.874268e-001
1.479041e+003,3.898621e+000
1.480006e+003,7.627167e+000
1.480970e+003,9.635376e+000
1.481934e+003,9.383026e+000
1.482898e+003,8.887207e+000
1.483863e+003,7.192230e+000
1.484827e+003,6.549133e+000
1.485791e+003,8.788239e+000
1.486755e+003,1.150049e+001
1.487719e+003,1.220184e+001
1.488684e+003,1.134302e+001
1.489648e+003,1.067657e+001
1.490612e+003,1.086978e+001
1.491576e+003,1.205200e+001
1.492541e+003,1.461780e+001
1.493505e+003,1.755252e+001
1.494469e+003,1.840881e+001
1.495433e+003,1.739569e+001
1.496398e+003,1.657901e+001
1.497362e+003,1.632648e+001
1.498326e+003,1.665726e+001
1.499290e+003,1.752484e+001
1.500255e+003,1.897180e+001
1.501219e+003,2.104614e+001
1.502183e+003,2.368546e+001
1.503147e+003,2.681274e+001
1.504111e+003,3.045578e+001
1.505076e+003,3.435440e+001
1.506040e+003,3.847379e+001
1.507004e+003,4.273734e+001
1.507968e+003,4.706439e+001
1.508933e+003,5.147073e+001
1.509897e+003,5.575217e+001
1.510861e+003,6.015952e+001
1.511825e+003,6.598737e+001
1.512790e+003,7.414587e+001
1.513754e+003,8.373938e+001
1.514718e+003,9.318796e+001
1.515682e+003,1.023590e+002
1.516646e+003,1.127642e+002
1.517611e+003,1.254741e+002
1.518575e+003,1.375159e+002
1.519539e+003,1.491801e+002
1.520503e+003,1.589576e+002
1.521468e+003,1.654904e+002
1.522432e+003,1.697791e+002
1.523396e+003,1.731426e+002
1.524360e+003,1.758232e+002
1.525325e+003,1.776456e+002
1.526289e+003,1.785272e+002
1.527253e+003,1.780096e+002
1.528217e+003,1.751596e+002
1.529182e+003,1.700824e+002
1.530146e+003,1.640376e+002
1.531110e+003,1.576971e+002
1.532074e+003,1.487065e+002
1.533039e+003,1.350145e+002
1.534003e+003,1.204999e+002
1.534967e+003,1.067449e+002
1.535931e+003,9.380096e+001
1.536896e+003,8.135754e+001
1.537860e+003,6.953958e+001
1.538824e+003,5.837402e+001
1.539788e+003,4.790671e+001
1.540752e+003,3.927127e+001
1.541717e+003,3.416110e+001
1.542681e+003,3.212112e+001
1.543645e+003,2.956592e+001
1.544609e+003,2.651559e+001
1.545573e+003,2.327307e+001
1.546538e+003,1.869821e+001
1.547502e+003,1.498898e+001
1.548466e+003,1.394559e+001
1.549430e+003,1.370685e+001
1.550395e+003,1.171243e+001
1.551359e+003,8.648163e+000
1.552323e+003,7.486359e+000
1.553287e+003,9.172974e+000
1.554252e+003,1.133975e+001
1.555216e+003,1.197589e+001
1.556180e+003,1.144913e+001
1.557144e+003,1.043536e+001
1.558109e+003,8.976501e+000
1.559073e+003,8.020325e+000
1.560037e+003,7.331146e+000
1.561001e+003,7.209076e+000
1.561966e+003,8.322449e+000
1.562930e+003,9.917694e+000
1.563894e+003,1.160825e+001
1.564858e+003,1.296719e+001
1.565823e+003,1.292188e+001
1.566787e+003,1.134799e+001
1.567751e+003,9.884705e+000
1.568715e+003,9.482422e+000
1.569679e+003,9.681641e+000
1.570644e+003,1.018747e+001
1.571608e+003,1.058163e+001
1.572572e+003,9.481720e+000
1.573536e+003,6.876831e+000
1.574500e+003,6.217041e+000
1.575465e+003,9.872406e+000
1.576429e+003,1.370981e+001
1.577393e+003,1.413754e+001
1.578357e+003,1.242450e+001
1.579322e+003,1.061176e+001
1.580286e+003,9.062805e+000
1.581250e+003,9.449280e+000
1.582214e+003,1.283524e+001
1.583179e+003,1.615585e+001
1.584143e+003,1.717422e+001
1.585107e+003,1.669357e+001
1.586071e+003,1.604437e+001
1.587036e+003,1.526431e+001
1.588000e+003,1.370969e+001
1.588964e+003,1.104590e+001
1.589928e+003,8.843353e+000
1.590893e+003,8.117828e+000
1.591857e+003,8.519135e+000
1.592821e+003,9.991852e+000
1.593785e+003,1.227417e+001
1.594750e+003,1.361362e+001
1.595714e+003,1.361642e+001
1.596678e+003,1.333298e+001
1.597642e+003,1.264661e+001
1.598606e+003,1.265332e+001
1.599571e+003,1.535831e+001
1.600535e+003,1.864905e+001
1.601499e+003,1.943460e+001
1.602463e+003,1.789355e+001
1.603427e+003,1.632477e+001
1.604392e+003,1.561090e+001
1.605356e+003,1.556631e+001
1.606320e+003,1.641754e+001
1.607284e+003,1.766891e+001
1.608249e+003,1.750665e+001
1.609213e+003,1.584479e+001
1.610177e+003,1.582883e+001
1.611141e+003,1.899850e+001
1.612106e+003,2.128400e+001
1.613070e+003,1.910690e+001
1.614034e+003,1.678580e+001
1.614998e+003,1.849652e+001
1.615963e+003,2.181696e+001
1.616927e+003,2.188757e+001
1.617891e+003,1.839319e+001
1.618855e+003,1.552380e+001
1.619820e+003,1.572491e+001
1.620784e+003,1.739117e+001
1.621748e+003,1.907458e+001
1.622712e+003,2.074396e+001
1.623677e+003,2.058783e+001
1.624641e+003,1.822015e+001
1.625605e+003,1.632428e+001
1.626569e+003,1.501831e+001
1.627533e+003,1.429492e+001
1.628498e+003,1.444797e+001
1.629462e+003,1.519370e+001
1.630426e+003,1.675900e+001
1.631390e+003,1.853253e+001
1.632354e+003,1.935672e+001
1.633319e+003,1.895227e+001
1.634283e+003,1.771347e+001
1.635247e+003,1.567310e+001
1.636211e+003,1.367526e+001
1.637176e+003,1.356165e+001
1.638140e+003,1.524548e+001
1.639104e+003,1.642612e+001
1.640068e+003,1.696085e+001
1.641033e+003,1.699893e+001
1.641997e+003,1.604065e+001
1.642961e+003,1.550671e+001
1.643925e+003,1.700571e+001
1.644890e+003,1.848413e+001
1.645854e+003,1.706717e+001
1.646818e+003,1.395807e+001
1.647782e+003,1.272720e+001
1.648747e+003,1.440451e+001
1.649711e+003,1.699850e+001
1.650675e+003,1.916321e+001
1.651639e+003,2.083185e+001
1.652604e+003,2.181647e+001
1.653568e+003,2.201965e+001
1.654532e+003,2.028317e+001
1.655496e+003,1.539032e+001
1.656460e+003,1.279544e+001
1.657425e+003,1.583859e+001
1.658389e+003,1.925552e+001
1.659353e+003,2.027563e+001
1.660317e+003,2.012064e+001
1.661281e+003,1.993530e+001
1.662246e+003,1.975052e+001
1.663210e+003,1.933990e+001
1.664174e+003,1.866589e+001
1.665138e+003,1.760626e+001
1.666103e+003,1.580365e+001
1.667067e+003,1.375812e+001
1.668031e+003,1.251523e+001
1.668995e+003,1.209451e+001
1.669960e+003,1.235004e+001
1.670924e+003,1.354138e+001
1.671888e+003,1.444202e+001
1.672852e+003,1.451096e+001
1.673817e+003,1.427441e+001
1.674781e+003,1.395953e+001
1.675745e+003,1.359436e+001
1.676709e+003,1.332849e+001
1.677674e+003,1.302368e+001
1.678638e+003,1.227866e+001
1.679602e+003,1.097775e+001
1.680566e+003,9.244629e+000
1.681531e+003,6.932678e+000
1.682495e+003,4.752319e+000
1.683459e+003,3.764679e+000
1.684423e+003,3.800964e+000
1.685387e+003,4.446594e+000
1.686352e+003,5.823059e+000
1.687316e+003,6.924011e+000
1.688280e+003,7.395569e+000
1.689244e+003,7.578400e+000
1.690208e+003,7.365692e+000
1.691173e+003,7.163818e+000
1.692137e+003,7.846069e+000
1.693101e+003,9.078461e+000
1.694065e+003,9.124512e+000
1.695030e+003,7.369385e+000
1.695994e+003,6.317322e+000
1.696958e+003,8.338135e+000
1.697922e+003,1.098331e+001
1.698887e+003,1.121088e+001
1.699851e+003,9.598450e+000
1.700815e+003,7.410187e+000
1.701779e+003,4.750000e+000
1.702744e+003,2.960754e+000
1.703708e+003,2.656311e+000
1.704672e+003,3.167358e+000
1.705636e+003,4.065338e+000
1.706601e+003,5.090698e+000
1.707565e+003,6.652100e+000
1.708529e+003,8.299011e+000
1.709493e+003,7.894745e+000
1.710458e+003,4.940948e+000
1.711422e+003,2.169098e+000
1.712386e+003,7.840271e-001
1.713350e+003,7.546997e-002
1.714314e+003,-8.878174e-001
1.715279e+003,-1.601868e+000
1.716243e+003,-5.574036e-001
1.717207e+003,1.794800e+000
1.718171e+003,2.635406e+000
1.719135e+003,1.216400e+000
1.720100e+003,2.168884e-001
1.721064e+003,1.492615e+000
1.722028e+003,3.668823e+000
1.722992e+003,5.378387e+000
1.723957e+003,6.455322e+000
1.724921e+003,4.656006e+000
1.725885e+003,-1.120697e+000
1.726849e+003,-4.209198e+000
1.727814e+003,-1.503754e+000
1.728778e+003,1.729523e+000
1.729742e+003,3.504944e+000
1.730706e+003,4.470062e+000
1.731671e+003,5.462097e+000
1.732635e+003,5.845581e+000
1.733599e+003,3.966888e+000
1.734563e+003,1.788330e-001
1.735528e+003,-2.835693e+000
1.736492e+003,-3.730865e+000
1.737456e+003,-3.173462e+000
1.738420e+003,-1.792969e+000
1.739385e+003,-2.105713e-002
1.740349e+003,9.232483e-001
1.741313e+003,9.795837e-001
1.742277e+003,1.009644e+000
1.743241e+003,1.226593e+000
1.744206e+003,1.310516e+000
1.745170e+003,9.616089e-001
1.746134e+003,6.261292e-001
1.747098e+003,7.330017e-001
1.748063e+003,8.289490e-001
1.749027e+003,1.327209e-001
1.749991e+003,-9.801636e-001
1.750955e+003,-1.444733e+000
1.751919e+003,-9.508667e-001
1.752884e+003,3.176880e-002
1.753848e+003,1.133453e+000
1.754812e+003,1.960449e+000
1.755776e+003,1.760010e+000
1.756741e+003,6.777649e-001
1.757705e+003,-5.381165e-001
1.758669e+003,-2.630463e+000
1.759633e+003,-2.922821e+000
1.760598e+003,1.060394e+000
1.761562e+003,3.459900e+000
1.762526e+003,1.454163e+000
1.763490e+003,-1.311218e+000
1.764455e+003,-2.476318e+000
1.765419e+003,-2.524719e+000
1.766383e+003,-2.654388e+000
1.767347e+003,-2.988312e+000
1.768312e+003,-2.621002e+000
1.769276e+003,-1.140869e+000
1.770240e+003,2.511597e-001
1.771204e+003,4.586487e-001
1.772168e+003,-4.953003e-002
1.773133e+003,-6.080322e-001
1.774097e+003,-1.197418e+000
1.775061e+003,-1.581787e+000
1.776025e+003,-1.888428e+000
1.776990e+003,-1.807465e+000
1.777954e+003,-7.807922e-001
1.778918e+003,8.029175e-002
1.779882e+003,-5.198364e-001
1.780846e+003,-1.586121e+000
1.781811e+003,-1.300690e+000
1.782775e+003,-1.890869e-001
1.783739e+003,-3.999939e-001
1.784703e+003,-2.372559e+000
1.785668e+003,-3.463623e+000
1.786632e+003,-2.245148e+000
1.787596e+003,-6.009216e-001
1.788560e+003,7.229614e-001
1.789525e+003,1.545074e+000
1.790489e+003,1.161163e+000
1.791453e+003,-1.551514e-001
1.792417e+003,-1.514740e+000
1.793382e+003,-2.631348e+000
1.794346e+003,-3.266235e+000
1.795310e+003,-3.336548e+000
1.796274e+003,-2.391327e+000
1.797239e+003,6.275940e-001
1.798203e+003,4.446655e+000
1.799167e+003,4.150696e+000
1.800131e+003,-1.506805e+000
1.801095e+003,-4.790527e+000
1.802060e+003,-4.863342e+000
1.803024e+003,-3.631897e+000
1.803988e+003,1.028870e+000
1.804952e+003,3.935455e+000
1.805917e+003,1.103912e+000
1.806881e+003,-3.363373e+000
1.807845e+003,-5.788879e+000
1.808809e+003,-6.141571e+000
1.809773e+003,-5.042572e+000
1.810738e+003,-3.171661e+000
1.811702e+003,-2.256714e+000
1.812666e+003,-3.344666e+000
1.813630e+003,-4.646729e+000
1.814595e+003,-3.578949e+000
1.815559e+003,-9.783630e-001
1.816523e+003,-2.962646e-001
1.817487e+003,-1.718597e+000
1.818452e+003,-2.690308e+000
1.819416e+003,-3.117889e+000
1.820380e+003,-2.545288e+000
1.821344e+003,3.350830e-001
1.822309e+003,2.282990e+000
1.823273e+003,4.790955e-001
1.824237e+003,-2.219482e+000
1.825201e+003,-2.709534e+000
1.826166e+003,-1.826508e+000
1.827130e+003,-2.506561e+000
1.828094e+003,-5.209717e+000
1.829058e+003,-6.274139e+000
1.830022e+003,-3.227692e+000
1.830987e+003,5.795288e-001
1.831951e+003,2.984344e+000
1.832915e+003,4.031769e+000
1.833879e+003,3.118805e+000
1.834844e+003,9.927063e-001
1.835808e+003,-3.128662e-001
1.836772e+003,-4.219055e-001
1.837736e+003,7.032776e-001
1.838700e+003,3.112854e+000
1.839665e+003,4.303162e+000
1.840629e+003,1.764954e+000
1.841593e+003,-2.683014e+000
1.842557e+003,-5.408539e+000
1.843522e+003,-6.428070e+000
1.844486e+003,-6.613098e+000
1.845450e+003,-5.220398e+000
1.846414e+003,-4.087616e+000
1.847379e+003,-4.136200e+000
1.848343e+003,-3.603058e+000
1.849307e+003,-8.935547e-001
1.850271e+003,1.594055e+000
1.851236e+003,2.413879e+000
1.852200e+003,1.887848e+000
1.853164e+003,-5.042114e-001
1.854128e+003,-3.735046e+000
1.855093e+003,-4.576080e+000
1.856057e+003,-1.969147e+000
1.857021e+003,1.055298e+000
1.857985e+003,1.924316e+000
1.858949e+003,1.576904e+000
1.859914e+003,1.739746e+000
1.860878e+003,2.230896e+000
1.861842e+003,1.370300e+000
1.862806e+003,-9.588013e-001
1.863771e+003,-1.120056e+000
1.864735e+003,2.162598e+000
1.865699e+003,4.163666e+000
1.866663e+003,2.427155e+000
1.867627e+003,-2.406311e-001
1.868592e+003,-2.367065e+000
1.869556e+003,-3.386353e+000
1.870520e+003,-8.803406e-001
1.871484e+003,4.252777e+000
1.872449e+003,5.551086e+000
1.873413e+003,1.323181e+000
1.874377e+003,-1.062897e+000
1.875341e+003,1.362457e+000
1.876306e+003,4.333832e+000
1.877270e+003,6.622803e+000
1.878234e+003,7.358032e+000
1.879198e+003,4.377777e+000
1.880163e+003,-3.811646e-002
1.881127e+003,-1.465424e+000
1.882091e+003,6.314087e-002
1.883055e+003,1.141113e+000
1.884020e+003,3.428040e-001
1.884984e+003,-8.542175e-001
1.885948e+003,-1.120270e+000
1.886912e+003,-5.863342e-001
1.887876e+003,6.344299e-001
1.888841e+003,2.460571e+000
1.889805e+003,3.604584e+000
1.890769e+003,3.939667e+000
1.891733e+003,4.346588e+000
1.892698e+003,5.155396e+000
1.893662e+003,5.114410e+000
1.894626e+003,2.804443e+000
1.895590e+003,9.328308e-001
1.896554e+003,1.834991e+000
1.897519e+003,3.975800e+000
1.898483e+003,5.937103e+000
1.899447e+003,7.317688e+000
1.900411e+003,7.266235e+000
1.901376e+003,5.595795e+000
1.902340e+003,4.191864e+000
1.903304e+003,3.668243e+000
1.904268e+003,3.668640e+000
1.905233e+003,4.744324e+000
1.906197e+003,5.616028e+000
1.907161e+003,4.402863e+000
1.908125e+003,2.350830e+000
1.909090e+003,1.810242e+000
1.910054e+003,2.634399e+000
1.911018e+003,3.101440e+000
1.911982e+003,2.755188e+000
1.912947e+003,2.772217e+000
1.913911e+003,3.982483e+000
1.914875e+003,5.599457e+000
1.915839e+003,6.397461e+000
1.916803e+003,6.322083e+000
1.917768e+003,5.490387e+000
1.918732e+003,3.825043e+000
1.919696e+003,2.393585e+000
1.920660e+003,9.114685e-001
1.921625e+003,8.643494e-001
1.922589e+003,3.755829e+000
1.923553e+003,6.027832e+000
1.924517e+003,4.747559e+000
1.925481e+003,3.014465e+000
1.926446e+003,4.151703e+000
1.927410e+003,6.594727e+000
1.928374e+003,6.738251e+000
1.929338e+003,4.517914e+000
1.930303e+003,3.727142e+000
1.931267e+003,6.169861e+000
1.932231e+003,7.962585e+000
1.933195e+003,6.294556e+000
1.934160e+003,4.357697e+000
1.935124e+003,4.697052e+000
1.936088e+003,5.827576e+000
1.937052e+003,6.156860e+000
1.938017e+003,5.830841e+000
1.938981e+003,5.147369e+000
1.939945e+003,4.413574e+000
1.940909e+003,4.605438e+000
1.941874e+003,5.997559e+000
1.942838e+003,7.041626e+000
1.943802e+003,6.368073e+000
1.944766e+003,4.965088e+000
1.945730e+003,4.539032e+000
1.946695e+003,4.902252e+000
1.947659e+003,5.307831e+000
1.948623e+003,5.745850e+000
1.949587e+003,5.967712e+000
1.950552e+003,6.001556e+000
1.951516e+003,5.900360e+000
1.952480e+003,5.718842e+000
1.953444e+003,5.308228e+000
1.954408e+003,4.498718e+000
1.955373e+003,3.301147e+000
1.956337e+003,1.024384e+000
1.957301e+003,-1.344940e+000
1.958265e+003,6.408691e-003
1.959230e+003,5.923859e+000
1.960194e+003,9.062286e+000
1.961158e+003,6.384094e+000
1.962122e+003,3.531891e+000
1.963087e+003,1.192657e+000
1.964051e+003,2.331543e-002
1.965015e+003,1.071533e+000
1.965979e+003,3.109650e+000
1.966944e+003,5.323700e+000
1.967908e+003,7.124390e+000
1.968872e+003,7.752777e+000
1.969836e+003,7.383698e+000
1.970801e+003,6.943420e+000
1.971765e+003,6.879852e+000
1.972729e+003,7.312958e+000
1.973693e+003,8.513611e+000
1.974657e+003,9.712280e+000
1.975622e+003,9.558990e+000
1.976586e+003,8.477539e+000
1.977550e+003,7.458832e+000
1.978514e+003,6.737823e+000
1.979479e+003,7.557281e+000
1.980443e+003,9.909973e+000
1.981407e+003,1.101669e+001
1.982371e+003,9.846313e+000
1.983335e+003,8.248993e+000
1.984300e+003,7.488678e+000
1.985264e+003,7.164673e+000
1.986228e+003,6.711365e+000
1.987192e+003,6.298737e+000
1.988157e+003,6.918213e+000
1.989121e+003,8.991180e+000
1.990085e+003,1.018475e+001
1.991049e+003,1.046707e+001
1.992014e+003,1.007770e+001
1.992978e+003,7.855804e+000
1.993942e+003,6.446411e+000
1.994906e+003,7.269501e+000
1.995871e+003,8.684265e+000
1.996835e+003,9.667053e+000
1.997799e+003,1.045877e+001
1.998763e+003,1.159799e+001
1.999728e+003,1.284082e+001
