9.922330e+001,0.000000e+000
1.001875e+002,0.000000e+000
1.011518e+002,0.000000e+000
1.021160e+002,0.000000e+000
1.030802e+002,0.000000e+000
1.040445e+002,0.000000e+000
1.050087e+002,0.000000e+000
1.059729e+002,0.000000e+000
1.069372e+002,0.000000e+000
1.079014e+002,0.000000e+000
1.088656e+002,0.000000e+000
1.098299e+002,0.000000e+000
1.107941e+002,0.000000e+000
1.117583e+002,0.000000e+000
1.127226e+002,0.000000e+000
1.136868e+002,0.000000e+000
1.146510e+002,0.000000e+000
1.156153e+002,0.000000e+000
1.165795e+002,0.000000e+000
1.175437e+002,0.000000e+000
1.185080e+002,0.000000e+000
1.194722e+002,0.000000e+000
1.204364e+002,0.000000e+000
1.214007e+002,0.000000e+000
1.223649e+002,0.000000e+000
1.233291e+002,0.000000e+000
1.242934e+002,0.000000e+000
1.252576e+002,0.000000e+000
1.262218e+002,0.000000e+000
1.271861e+002,0.000000e+000
1.281503e+002,0.000000e+000
1.291145e+002,0.000000e+000
1.300788e+002,0.000000e+000
1.310430e+002,0.000000e+000
1.320072e+002,0.000000e+000
1.329715e+002,0.000000e+000
1.339357e+002,0.000000e+000
1.348999e+002,0.000000e+000
1.358642e+002,0.000000e+000
1.368284e+002,0.000000e+000
1.377926e+002,0.000000e+000
1.387569e+002,0.000000e+000
1.397211e+002,0.000000e+000
1.406853e+002,0.000000e+000
1.416496e+002,0.000000e+000
1.426138e+002,0.000000e+000
1.435780e+002,0.000000e+000
1.445423e+002,0.000000e+000
1.455065e+002,0.000000e+000
1.464707e+002,0.000000e+000
1.474350e+002,0.000000e+000
1.483992e+002,0.000000e+000
1.493634e+002,0.000000e+000
1.503277e+002,0.000000e+000
1.512919e+002,0.000000e+000
1.522561e+002,0.000000e+000
1.532204e+002,0.000000e+000
1.541846e+002,0.000000e+000
1.551488e+002,0.000000e+000
1.561131e+002,0.000000e+000
1.570773e+002,0.000000e+000
1.580415e+002,0.000000e+000
1.590058e+002,0.000000e+000
1.599700e+002,0.000000e+000
1.609342e+002,0.000000e+000
1.618985e+002,0.000000e+000
1.628627e+002,0.000000e+000
1.638269e+002,0.000000e+000
1.647912e+002,0.000000e+000
1.657554e+002,0.000000e+000
1.667196e+002,0.000000e+000
1.676839e+002,0.000000e+000
1.686481e+002,0.000000e+000
1.696123e+002,0.000000e+000
1.705766e+002,0.000000e+000
1.715408e+002,0.000000e+000
1.725050e+002,0.000000e+000
1.734693e+002,0.000000e+000
1.744335e+002,0.000000e+000
1.753977e+002,0.000000e+000
1.763620e+002,0.000000e+000
1.773262e+002,0.000000e+000
1.782904e+002,0.000000e+000
1.792547e+002,0.000000e+000
1.802189e+002,0.000000e+000
1.811831e+002,0.000000e+000
1.821474e+002,0.000000e+000
1.831116e+002,0.000000e+000
1.840758e+002,0.000000e+000
1.850401e+002,0.000000e+000
1.860043e+002,0.000000e+000
1.869685e+002,0.000000e+000
1.879328e+002,0.000000e+000
1.888970e+002,0.000000e+000
1.898612e+002,0.000000e+000
1.908255e+002,0.000000e+000
1.917897e+002,0.000000e+000
1.927540e+002,0.000000e+000
1.937182e+002,0.000000e+000
1.946824e+002,0.000000e+000
1.956467e+002,0.000000e+000
1.966109e+002,0.000000e+000
1.975751e+002,0.000000e+000
1.985394e+002,0.000000e+000
1.995036e+002,0.000000e+000
2.004678e+002,0.000000e+000
2.014321e+002,0.000000e+000
2.023963e+002,0.000000e+000
2.033605e+002,0.000000e+000
2.043248e+002,0.000000e+000
2.052890e+002,0.000000e+000
2.062532e+002,0.000000e+000
2.072175e+002,0.000000e+000
2.081817e+002,0.000000e+000
2.091459e+002,0.000000e+000
2.101102e+002,0.000000e+000
2.110744e+002,0.000000e+000
2.120386e+002,0.000000e+000
2.130029e+002,0.000000e+000
2.139671e+002,0.000000e+000
2.149313e+002,0.000000e+000
2.158956e+002,0.000000e+000
2.168598e+002,0.000000e+000
2.178240e+002,0.000000e+000
2.187883e+002,0.000000e+000
2.197525e+002,0.000000e+000
2.207167e+002,0.000000e+000
2.216810e+002,0.000000e+000
2.226452e+002,0.000000e+000
2.236094e+002,0.000000e+000
2.245737e+002,0.000000e+000
2.255379e+002,0.000000e+000
2.265021e+002,0.000000e+000
2.274664e+002,0.000000e+000
2.284306e+002,0.000000e+000
2.293948e+002,0.000000e+000
2.303591e+002,0.000000e+000
2.313233e+002,0.000000e+000
2.322875e+002,0.000000e+000
2.332518e+002,0.000000e+000
2.342160e+002,0.000000e+000
2.351802e+002,0.000000e+000
2.361445e+002,0.000000e+000
2.371087e+002,0.000000e+000
2.380729e+002,0.000000e+000
2.390372e+002,0.000000e+000
2.400014e+002,0.000000e+000
2.409656e+002,0.000000e+000
2.419299e+002,0.000000e+000
2.428941e+002,0.000000e+000
2.438583e+002,0.000000e+000
2.448226e+002,0.000000e+000
2.457868e+002,0.000000e+000
2.467510e+002,0.000000e+000
2.477153e+002,0.000000e+000
2.486795e+002,0.000000e+000
2.496437e+002,0.000000e+000
2.506080e+002,0.000000e+000
2.515722e+002,0.000000e+000
2.525364e+002,0.000000e+000
2.535007e+002,0.000000e+000
2.544649e+002,0.000000e+000
2.554291e+002,0.000000e+000
2.563934e+002,0.000000e+000
2.573576e+002,0.000000e+000
2.583218e+002,0.000000e+000
2.592861e+002,0.000000e+000
2.602503e+002,0.000000e+000
2.612145e+002,0.000000e+000
2.621788e+002,0.000000e+000
2.631430e+002,0.000000e+000
2.641072e+002,0.000000e+000
2.650715e+002,0.000000e+000
2.660357e+002,0.000000e+000
2.669999e+002,0.000000e+000
2.679642e+002,0.000000e+000
2.689284e+002,0.000000e+000
2.698926e+002,0.000000e+000
2.708569e+002,0.000000e+000
2.718211e+002,0.000000e+000
2.727853e+002,0.000000e+000
2.737496e+002,0.000000e+000
2.747138e+002,0.000000e+000
2.756780e+002,0.000000e+000
2.766423e+002,0.000000e+000
2.776065e+002,0.000000e+000
2.785707e+002,0.000000e+000
2.795350e+002,0.000000e+000
2.804992e+002,0.000000e+000
2.814634e+002,0.000000e+000
2.824277e+002,0.000000e+000
2.833919e+002,0.000000e+000
2.843561e+002,0.000000e+000
2.853204e+002,0.000000e+000
2.862846e+002,0.000000e+000
2.872488e+002,0.000000e+000
2.882131e+002,0.000000e+000
2.891773e+002,0.000000e+000
2.901415e+002,0.000000e+000
2.911058e+002,0.000000e+000
2.920700e+002,0.000000e+000
2.930342e+002,0.000000e+000
2.939985e+002,0.000000e+000
2.949627e+002,0.000000e+000
2.959269e+002,0.000000e+000
2.968912e+002,0.000000e+000
2.978554e+002,0.000000e+000
2.988196e+002,0.000000e+000
2.997839e+002,0.000000e+000
3.007481e+002,0.000000e+000
3.017123e+002,0.000000e+000
3.026766e+002,0.000000e+000
3.036408e+002,0.000000e+000
3.046050e+002,0.000000e+000
3.055693e+002,0.000000e+000
3.065335e+002,0.000000e+000
3.074977e+002,0.000000e+000
3.084620e+002,0.000000e+000
3.094262e+002,0.000000e+000
3.103904e+002,0.000000e+000
3.113547e+002,0.000000e+000
3.123189e+002,0.000000e+000
3.132831e+002,0.000000e+000
3.142474e+002,0.000000e+000
3.152116e+002,0.000000e+000
3.161758e+002,0.000000e+000
3.171401e+002,0.000000e+000
3.181043e+002,0.000000e+000
3.190685e+002,0.000000e+000
3.200328e+002,0.000000e+000
3.209970e+002,0.000000e+000
3.219612e+002,0.000000e+000
3.229255e+002,0.000000e+000
3.238897e+002,0.000000e+000
3.248539e+002,0.000000e+000
3.258182e+002,0.000000e+000
3.267824e+002,0.000000e+000
3.277466e+002,0.000000e+000
3.287109e+002,0.000000e+000
3.296751e+002,0.000000e+000
3.306393e+002,0.000000e+000
3.316036e+002,0.000000e+000
3.325678e+002,0.000000e+000
3.335320e+002,0.000000e+000
3.344963e+002,0.000000e+000
3.354605e+002,0.000000e+000
3.364247e+002,0.000000e+000
3.373890e+002,0.000000e+000
3.383532e+002,0.000000e+000
3.393174e+002,0.000000e+000
3.402817e+002,0.000000e+000
3.412459e+002,0.000000e+000
3.422101e+002,0.000000e+000
3.431744e+002,0.000000e+000
3.441386e+002,0.000000e+000
3.451028e+002,0.000000e+000
3.460671e+002,0.000000e+000
3.470313e+002,0.000000e+000
3.479955e+002,0.000000e+000
3.489598e+002,0.000000e+000
3.499240e+002,0.000000e+000
3.508882e+002,0.000000e+000
3.518525e+002,0.000000e+000
3.528167e+002,0.000000e+000
3.537809e+002,0.000000e+000
3.547452e+002,0.000000e+000
3.557094e+002,0.000000e+000
3.566736e+002,0.000000e+000
3.576379e+002,0.000000e+000
3.586021e+002,0.000000e+000
3.595663e+002,0.000000e+000
3.605306e+002,0.000000e+000
3.614948e+002,0.000000e+000
3.624590e+002,0.000000e+000
3.634233e+002,0.000000e+000
3.643875e+002,0.000000e+000
3.653517e+002,0.000000e+000
3.663160e+002,0.000000e+000
3.672802e+002,0.000000e+000
3.682444e+002,0.000000e+000
3.692087e+002,0.000000e+000
3.701729e+002,0.000000e+000
3.711371e+002,0.000000e+000
3.721014e+002,0.000000e+000
3.730656e+002,0.000000e+000
3.740298e+002,0.000000e+000
3.749941e+002,0.000000e+000
3.759583e+002,0.000000e+000
3.769225e+002,0.000000e+000
3.778868e+002,0.000000e+000
3.788510e+002,0.000000e+000
3.798152e+002,0.000000e+000
3.807795e+002,0.000000e+000
3.817437e+002,0.000000e+000
3.827079e+002,0.000000e+000
3.836722e+002,0.000000e+000
3.846364e+002,0.000000e+000
3.856006e+002,0.000000e+000
3.865649e+002,0.000000e+000
3.875291e+002,0.000000e+000
3.884933e+002,0.000000e+000
3.894576e+002,0.000000e+000
3.904218e+002,0.000000e+000
3.913860e+002,0.000000e+000
3.923503e+002,0.000000e+000
3.933145e+002,0.000000e+000
3.942787e+002,0.000000e+000
3.952430e+002,0.000000e+000
3.962072e+002,0.000000e+000
3.971714e+002,0.000000e+000
3.981357e+002,0.000000e+000
3.990999e+002,0.000000e+000
4.000641e+002,0.000000e+000
4.010284e+002,0.000000e+000
4.019926e+002,0.000000e+000
4.029568e+002,0.000000e+000
4.039211e+002,0.000000e+000
4.048853e+002,0.000000e+000
4.058495e+002,0.000000e+000
4.068138e+002,0.000000e+000
4.077780e+002,0.000000e+000
4.087422e+002,0.000000e+000
4.097065e+002,0.000000e+000
4.106707e+002,0.000000e+000
4.116349e+002,0.000000e+000
4.125992e+002,0.000000e+000
4.135634e+002,0.000000e+000
4.145276e+002,0.000000e+000
4.154919e+002,0.000000e+000
4.164561e+002,0.000000e+000
4.174203e+002,0.000000e+000
4.183846e+002,0.000000e+000
4.193488e+002,0.000000e+000
4.203130e+002,0.000000e+000
4.212773e+002,0.000000e+000
4.222415e+002,0.000000e+000
4.232057e+002,0.000000e+000
4.241700e+002,0.000000e+000
4.251342e+002,0.000000e+000
4.260984e+002,0.000000e+000
4.270627e+002,0.000000e+000
4.280269e+002,0.000000e+000
4.289911e+002,0.000000e+000
4.299554e+002,0.000000e+000
4.309196e+002,0.000000e+000
4.318839e+002,0.000000e+000
4.328481e+002,0.000000e+000
4.338123e+002,0.000000e+000
4.347766e+002,0.000000e+000
4.357408e+002,0.000000e+000
4.367050e+002,0.000000e+000
4.376693e+002,0.000000e+000
4.386335e+002,0.000000e+000
4.395977e+002,0.000000e+000
4.405620e+002,0.000000e+000
4.415262e+002,0.000000e+000
4.424904e+002,0.000000e+000
4.434547e+002,0.000000e+000
4.444189e+002,0.000000e+000
4.453831e+002,0.000000e+000
4.463474e+002,0.000000e+000
4.473116e+002,0.000000e+000
4.482758e+002,0.000000e+000
4.492401e+002,0.000000e+000
4.502043e+002,0.000000e+000
4.511685e+002,0.000000e+000
4.521328e+002,0.000000e+000
4.530970e+002,0.000000e+000
4.540612e+002,0.000000e+000
4.550255e+002,0.000000e+000
4.559897e+002,0.000000e+000
4.569539e+002,0.000000e+000
4.579182e+002,0.000000e+000
4.588824e+002,0.000000e+000
4.598466e+002,0.000000e+000
4.608109e+002,0.000000e+000
4.617751e+002,0.000000e+000
4.627393e+002,0.000000e+000
4.637036e+002,0.000000e+000
4.646678e+002,0.000000e+000
4.656320e+002,0.000000e+000
4.665963e+002,0.000000e+000
4.675605e+002,0.000000e+000
4.685247e+002,0.000000e+000
4.694890e+002,0.000000e+000
4.704532e+002,0.000000e+000
4.714174e+002,0.000000e+000
4.723817e+002,0.000000e+000
4.733459e+002,0.000000e+000
4.743102e+002,0.000000e+000
4.752744e+002,0.000000e+000
4.762386e+002,0.000000e+000
4.772029e+002,0.000000e+000
4.781671e+002,0.000000e+000
4.791313e+002,0.000000e+000
4.800956e+002,0.000000e+000
4.810598e+002,0.000000e+000
4.820240e+002,0.000000e+000
4.829883e+002,0.000000e+000
4.839525e+002,0.000000e+000
4.849167e+002,0.000000e+000
4.858810e+002,0.000000e+000
4.868452e+002,0.000000e+000
4.878094e+002,0.000000e+000
4.887737e+002,0.000000e+000
4.897379e+002,0.000000e+000
4.907021e+002,0.000000e+000
4.916664e+002,0.000000e+000
4.926306e+002,0.000000e+000
4.935948e+002,0.000000e+000
4.945591e+002,0.000000e+000
4.955233e+002,0.000000e+000
4.964875e+002,0.000000e+000
4.974518e+002,0.000000e+000
4.984160e+002,0.000000e+000
4.993802e+002,0.000000e+000
5.003445e+002,3.932449e+001
5.013087e+002,4.021005e+001
5.022729e+002,3.937613e+001
5.032372e+002,3.767146e+001
5.042014e+002,3.776762e+001
5.051656e+002,3.936238e+001
5.061299e+002,4.062392e+001
5.070941e+002,3.978029e+001
5.080583e+002,3.622522e+001
5.090226e+002,3.339349e+001
5.099868e+002,3.043536e+001
5.109510e+002,2.870599e+001
5.119153e+002,2.967648e+001
5.128795e+002,3.362758e+001
5.138438e+002,3.629842e+001
5.148080e+002,3.521867e+001
5.157722e+002,3.360237e+001
5.167365e+002,3.245390e+001
5.177007e+002,3.199374e+001
5.186649e+002,3.188013e+001
5.196292e+002,3.218848e+001
5.205934e+002,3.262155e+001
5.215576e+002,3.251208e+001
5.225219e+002,3.172560e+001
5.234861e+002,3.054274e+001
5.244503e+002,2.962688e+001
5.254146e+002,2.929713e+001
5.263788e+002,2.887737e+001
5.273430e+002,2.798404e+001
5.283073e+002,2.725012e+001
5.292715e+002,2.783545e+001
5.302357e+002,3.113419e+001
5.312000e+002,3.195245e+001
5.321642e+002,2.813829e+001
5.331284e+002,2.361494e+001
5.340927e+002,2.150832e+001
5.350569e+002,2.300139e+001
5.360211e+002,2.505479e+001
5.369854e+002,2.510352e+001
5.379496e+002,2.448956e+001
5.389138e+002,2.403894e+001
5.398781e+002,2.413098e+001
5.408423e+002,2.471353e+001
5.418065e+002,2.616893e+001
5.427708e+002,2.825981e+001
5.437350e+002,2.884779e+001
5.446992e+002,2.687108e+001
5.456635e+002,2.326215e+001
5.466277e+002,2.140073e+001
5.475919e+002,2.424677e+001
5.485562e+002,2.530896e+001
5.495204e+002,2.276431e+001
5.504846e+002,1.871072e+001
5.514489e+002,1.641942e+001
5.524131e+002,1.798943e+001
5.533773e+002,1.944746e+001
5.543416e+002,1.856410e+001
5.553058e+002,1.662469e+001
5.562700e+002,1.471014e+001
5.572343e+002,1.347464e+001
5.581985e+002,1.291956e+001
5.591627e+002,1.352075e+001
5.601270e+002,1.489307e+001
5.610912e+002,1.620018e+001
5.620554e+002,1.701503e+001
5.630197e+002,1.721831e+001
5.639839e+002,1.615517e+001
5.649481e+002,1.237833e+001
5.659124e+002,9.459351e+000
5.668766e+002,8.490509e+000
5.678408e+002,9.013809e+000
5.688051e+002,9.531067e+000
5.697693e+002,9.636154e+000
5.707335e+002,9.280563e+000
5.716978e+002,7.965866e+000
5.726620e+002,6.487885e+000
5.736262e+002,5.940887e+000
5.745905e+002,7.189056e+000
5.755547e+002,9.287766e+000
5.765189e+002,1.072198e+001
5.774832e+002,1.154840e+001
5.784474e+002,1.194939e+001
5.794116e+002,1.210863e+001
5.803759e+002,1.217418e+001
5.813401e+002,1.285460e+001
5.823043e+002,1.468144e+001
5.832686e+002,1.513048e+001
5.842328e+002,1.258388e+001
5.851970e+002,7.726929e+000
5.861613e+002,4.420044e+000
5.871255e+002,3.824844e+000
5.880897e+002,4.089554e+000
5.890540e+002,5.522934e+000
5.900182e+002,7.384277e+000
5.909824e+002,8.654877e+000
5.919467e+002,8.680328e+000
5.929109e+002,8.034897e+000
5.938751e+002,7.398819e+000
5.948394e+002,6.716980e+000
5.958036e+002,5.764114e+000
5.967678e+002,4.411911e+000
5.977321e+002,2.929993e+000
5.986963e+002,3.468613e+000
5.996605e+002,5.943024e+000
6.006248e+002,7.745407e+000
6.015890e+002,7.253967e+000
6.025532e+002,4.697678e+000
6.035175e+002,3.259659e+000
6.044817e+002,4.389999e+000
6.054459e+002,5.213593e+000
6.064102e+002,5.348221e+000
6.073744e+002,4.881851e+000
6.083386e+002,3.918503e+000
6.093029e+002,2.041809e+000
6.102671e+002,8.023529e-001
6.112313e+002,1.700226e+000
6.121956e+002,3.623077e+000
6.131598e+002,5.187927e+000
6.141240e+002,5.435974e+000
6.150883e+002,4.614258e+000
6.160525e+002,3.559738e+000
6.170167e+002,2.390533e+000
6.179810e+002,1.738266e+000
6.189452e+002,1.961517e+000
6.199094e+002,2.850616e+000
6.208737e+002,3.305695e+000
6.218379e+002,2.760452e+000
6.228021e+002,2.739029e+000
6.237664e+002,4.012756e+000
6.247306e+002,5.776871e+000
6.256948e+002,6.600922e+000
6.266591e+002,5.490936e+000
6.276233e+002,3.991150e+000
6.285875e+002,3.020142e+000
6.295518e+002,2.503357e+000
6.305160e+002,2.381195e+000
6.314802e+002,2.561737e+000
6.324445e+002,2.873108e+000
6.334087e+002,3.051300e+000
6.343729e+002,3.240631e+000
6.353372e+002,3.555328e+000
6.363014e+002,4.023209e+000
6.372656e+002,4.536804e+000
6.382299e+002,4.850723e+000
6.391941e+002,5.419998e+000
6.401583e+002,4.897888e+000
6.411226e+002,2.506531e+000
6.420868e+002,-2.922821e-001
6.430510e+002,-1.827454e+000
6.440153e+002,-1.527466e+000
6.449795e+002,-9.078674e-001
6.459437e+002,-3.014984e-001
6.469080e+002,-5.703735e-002
6.478722e+002,-6.087341e-001
6.488364e+002,-1.977356e+000
6.498007e+002,-3.579361e+000
6.507649e+002,-4.714417e+000
6.517291e+002,-5.302094e+000
6.526934e+002,-4.650528e+000
6.536576e+002,-2.547195e+000
6.546218e+002,-2.798462e-002
6.555861e+002,8.612976e-001
6.565503e+002,-1.224075e+000
6.575145e+002,-2.128326e+000
6.584788e+002,-7.937317e-001
6.594430e+002,7.405090e-001
6.604072e+002,4.259949e-001
6.613715e+002,-2.297607e+000
6.623357e+002,-3.822327e+000
6.632999e+002,-7.119598e-001
6.642642e+002,2.366898e+000
6.652284e+002,2.582611e+000
6.661926e+002,2.052765e-001
6.671569e+002,-2.159805e+000
6.681211e+002,-1.214371e+000
6.690853e+002,1.650955e+000
6.700496e+002,2.708542e+000
6.710138e+002,1.957932e+000
6.719780e+002,5.873718e-001
6.729423e+002,-2.206879e-001
6.739065e+002,-4.848938e-001
6.748707e+002,-2.207489e-001
6.758350e+002,1.762589e+000
6.767992e+002,2.747620e+000
6.777634e+002,6.897736e-001
6.787277e+002,-3.722458e+000
6.796919e+002,-6.133865e+000
6.806561e+002,-3.356628e+000
6.816204e+002,-1.205139e-001
6.825846e+002,2.794159e+000
6.835488e+002,4.690781e+000
6.845131e+002,4.466034e+000
6.854773e+002,1.083282e+000
6.864415e+002,-3.533707e+000
6.874058e+002,-5.406250e+000
6.883700e+002,-5.319214e+000
6.893342e+002,-4.496506e+000
6.902985e+002,-3.491653e+000
6.912627e+002,-2.361511e+000
6.922269e+002,-1.771179e+000
6.931912e+002,-2.404739e+000
6.941554e+002,-2.227646e+000
6.951196e+002,-6.224976e-001
6.960839e+002,1.493515e+000
6.970481e+002,2.789764e+000
6.980123e+002,2.923523e+000
6.989766e+002,2.512451e+000
6.999408e+002,1.345795e+000
7.009050e+002,1.793365e-001
7.018693e+002,-3.391418e-001
7.028335e+002,-3.808594e-002
7.037977e+002,6.562500e-001
7.047620e+002,1.433167e+000
7.057262e+002,2.140839e+000
7.066904e+002,2.062469e+000
7.076547e+002,1.073029e+000
7.086189e+002,-1.733246e-001
7.095831e+002,-6.361542e-001
7.105474e+002,-1.101685e-001
7.115116e+002,4.222565e-001
7.124758e+002,1.335739e+000
7.134401e+002,1.823441e+000
7.144043e+002,1.283905e+000
7.153685e+002,-2.191315e-001
7.163328e+002,-1.649323e+000
7.172970e+002,-2.737259e+000
7.182612e+002,-3.405502e+000
7.192255e+002,-3.432770e+000
7.201897e+002,-3.076584e+000
7.211539e+002,-2.703842e+000
7.221182e+002,-2.560455e+000
7.230824e+002,-2.752838e+000
7.240466e+002,-3.874390e+000
7.250109e+002,-5.515350e+000
7.259751e+002,-6.258957e+000
7.269393e+002,-5.282425e+000
7.279036e+002,-2.970200e+000
7.288678e+002,-1.404373e+000
7.298320e+002,-3.402252e-001
7.307963e+002,1.209106e-001
7.317605e+002,-7.144165e-001
7.327247e+002,-1.858459e+000
7.336890e+002,-1.927765e+000
7.346532e+002,-4.592590e-001
7.356174e+002,8.344421e-001
7.365817e+002,1.197311e+000
7.375459e+002,1.362747e+000
7.385101e+002,2.116730e+000
7.394744e+002,3.478256e+000
7.404386e+002,4.529114e+000
7.414028e+002,3.600677e+000
7.423671e+002,8.232117e-001
7.433313e+002,-1.712341e+000
7.442955e+002,-3.755966e+000
7.452598e+002,-4.737885e+000
7.462240e+002,-3.814255e+000
7.471882e+002,-2.808685e-001
7.481525e+002,1.767807e+000
7.491167e+002,9.156189e-001
7.500809e+002,8.650208e-002
7.510452e+002,9.809265e-001
7.520094e+002,2.938873e+000
7.529736e+002,3.305908e+000
7.539379e+002,-2.231750e-001
7.549021e+002,-3.628128e+000
7.558663e+002,-4.472626e+000
7.568306e+002,-3.629791e+000
7.577948e+002,-2.208862e+000
7.587590e+002,-9.734039e-001
7.597233e+002,8.834839e-003
7.606875e+002,8.669739e-001
7.616517e+002,1.681992e+000
7.626160e+002,1.872238e+000
7.635802e+002,9.736481e-001
7.645444e+002,-2.595520e-001
7.655087e+002,-1.965485e-001
7.664729e+002,1.911362e+000
7.674371e+002,3.648941e+000
7.684014e+002,5.355255e+000
7.693656e+002,6.287018e+000
7.703298e+002,5.665024e+000
7.712941e+002,3.582840e+000
7.722583e+002,1.384598e+000
7.732225e+002,-3.693695e-001
7.741868e+002,-1.398026e+000
7.751510e+002,-1.201691e+000
7.761152e+002,-8.825684e-002
7.770795e+002,1.285767e+000
7.780437e+002,2.330307e+000
7.790079e+002,2.998962e+000
7.799722e+002,3.112656e+000
7.809364e+002,2.670502e+000
7.819006e+002,2.125885e+000
7.828649e+002,1.572723e+000
7.838291e+002,1.176483e+000
7.847933e+002,1.315964e+000
7.857576e+002,2.254593e+000
7.867218e+002,2.905273e+000
7.876860e+002,3.361664e+000
7.886503e+002,3.566284e+000
7.896145e+002,3.252625e+000
7.905787e+002,2.427719e+000
7.915430e+002,1.808838e+000
7.925072e+002,2.495331e+000
7.934714e+002,3.368988e+000
7.944357e+002,2.938568e+000
7.953999e+002,1.499466e+000
7.963641e+002,6.495514e-001
7.973284e+002,2.191254e+000
7.982926e+002,6.305908e+000
7.992568e+002,9.503891e+000
8.002211e+002,1.232101e+001
8.011853e+002,1.321596e+001
8.021495e+002,1.053862e+001
8.031138e+002,5.708405e+000
8.040780e+002,3.361511e+000
8.050422e+002,5.865204e+000
8.060065e+002,8.031845e+000
8.069707e+002,8.180573e+000
8.079349e+002,7.074265e+000
8.088992e+002,5.181763e+000
8.098634e+002,2.897614e+000
8.108276e+002,9.621124e-001
8.117919e+002,4.044342e-001
8.127561e+002,7.130585e-001
8.137203e+002,1.649948e+000
8.146846e+002,3.281158e+000
8.156488e+002,4.609467e+000
8.166130e+002,4.102509e+000
8.175773e+002,1.059860e+000
8.185415e+002,2.551117e-001
8.195057e+002,3.599686e+000
8.204700e+002,6.142212e+000
8.214342e+002,5.435959e+000
8.223984e+002,2.678116e+000
8.233627e+002,1.327377e+000
8.243269e+002,3.383194e+000
8.252911e+002,5.437119e+000
8.262554e+002,5.081833e+000
8.272196e+002,3.905975e+000
8.281838e+002,3.878662e+000
8.291481e+002,5.487839e+000
8.301123e+002,7.088120e+000
8.310765e+002,5.391846e+000
8.320408e+002,7.694702e-001
8.330050e+002,-1.360855e+000
8.339692e+002,-1.869049e-001
8.349335e+002,1.958725e+000
8.358977e+002,2.707413e+000
8.368619e+002,1.871155e+000
8.378262e+002,1.646942e+000
8.387904e+002,1.955734e+000
8.397546e+002,2.837906e+000
8.407189e+002,5.143753e+000
8.416831e+002,7.867767e+000
8.426473e+002,9.184631e+000
8.436116e+002,8.045944e+000
8.445758e+002,6.456650e+000
8.455400e+002,6.531158e+000
8.465043e+002,7.131119e+000
8.474685e+002,7.182953e+000
8.484327e+002,6.494324e+000
8.493970e+002,5.518356e+000
8.503612e+002,4.815811e+000
8.513254e+002,4.317871e+000
8.522897e+002,4.475723e+000
8.532539e+002,5.685699e+000
8.542181e+002,6.775803e+000
8.551824e+002,6.887039e+000
8.561466e+002,6.347427e+000
8.571108e+002,6.887939e+000
8.580751e+002,9.778992e+000
8.590393e+002,1.187390e+001
8.600035e+002,1.210114e+001
8.609678e+002,1.133278e+001
8.619320e+002,1.010982e+001
8.628962e+002,8.786896e+000
8.638605e+002,8.270081e+000
8.648247e+002,1.084763e+001
8.657889e+002,1.500027e+001
8.667532e+002,1.768552e+001
8.677174e+002,1.849268e+001
8.686816e+002,1.773160e+001
8.696459e+002,1.533208e+001
8.706101e+002,1.076178e+001
8.715743e+002,9.398895e+000
8.725386e+002,1.426707e+001
8.735028e+002,1.820107e+001
8.744670e+002,1.866747e+001
8.754313e+002,1.697763e+001
8.763955e+002,1.584145e+001
8.773597e+002,1.624663e+001
8.783240e+002,1.714857e+001
8.792882e+002,1.812061e+001
8.802524e+002,1.884682e+001
8.812167e+002,1.882959e+001
8.821809e+002,1.814748e+001
8.831451e+002,1.748848e+001
8.841094e+002,1.779437e+001
8.850736e+002,1.912404e+001
8.860378e+002,2.013818e+001
8.870021e+002,2.076845e+001
8.879663e+002,2.112773e+001
8.889305e+002,2.079524e+001
8.898948e+002,2.003375e+001
8.908590e+002,2.056953e+001
8.918232e+002,2.403644e+001
8.927875e+002,2.649103e+001
8.937517e+002,2.639679e+001
8.947159e+002,2.561261e+001
8.956802e+002,2.580135e+001
8.966444e+002,2.712303e+001
8.976086e+002,2.804576e+001
8.985729e+002,2.663541e+001
8.995371e+002,2.456876e+001
9.005013e+002,2.456319e+001
9.014656e+002,2.647923e+001
9.024298e+002,2.913544e+001
9.033940e+002,3.169116e+001
9.043583e+002,3.389017e+001
9.053225e+002,3.458803e+001
9.062867e+002,3.115987e+001
9.072510e+002,2.947816e+001
9.082152e+002,3.130168e+001
9.091794e+002,3.415948e+001
9.101437e+002,3.550369e+001
9.111079e+002,3.490704e+001
9.120721e+002,3.421707e+001
9.130364e+002,3.504901e+001
9.140006e+002,3.531235e+001
9.149648e+002,3.280949e+001
9.159291e+002,2.902635e+001
9.168933e+002,2.716281e+001
9.178575e+002,2.934816e+001
9.188218e+002,3.402597e+001
9.197860e+002,3.613843e+001
9.207502e+002,3.565704e+001
9.217145e+002,3.409305e+001
9.226787e+002,3.115765e+001
9.236429e+002,2.808493e+001
9.246072e+002,2.667838e+001
9.255714e+002,2.728052e+001
9.265356e+002,2.712646e+001
9.274999e+002,2.376709e+001
9.284641e+002,2.163788e+001
9.294283e+002,2.337527e+001
9.303926e+002,2.731747e+001
9.313568e+002,3.053149e+001
9.323210e+002,3.153580e+001
9.332853e+002,3.096329e+001
9.342495e+002,2.839561e+001
9.352137e+002,2.520784e+001
9.361780e+002,2.417844e+001
9.371422e+002,2.595563e+001
9.381064e+002,2.851892e+001
9.390707e+002,2.898093e+001
9.400349e+002,2.682565e+001
9.409991e+002,2.505656e+001
9.419634e+002,2.350856e+001
9.429276e+002,2.241426e+001
9.438918e+002,2.226054e+001
9.448561e+002,2.251700e+001
9.458203e+002,2.214253e+001
9.467845e+002,2.069205e+001
9.477488e+002,1.963895e+001
9.487130e+002,2.076352e+001
9.496772e+002,2.220503e+001
9.506415e+002,2.222392e+001
9.516057e+002,2.096257e+001
9.525699e+002,1.982661e+001
9.535342e+002,2.017558e+001
9.544984e+002,2.178964e+001
9.554626e+002,2.338278e+001
9.564269e+002,2.531354e+001
9.573911e+002,2.669455e+001
9.583553e+002,2.703511e+001
9.593196e+002,2.670367e+001
9.602838e+002,2.630345e+001
9.612480e+002,2.585461e+001
9.622123e+002,2.512422e+001
9.631765e+002,2.371111e+001
9.641407e+002,2.243129e+001
9.651050e+002,2.155435e+001
9.660692e+002,2.104288e+001
9.670334e+002,2.083446e+001
9.679977e+002,2.096991e+001
9.689619e+002,2.144791e+001
9.699261e+002,2.234138e+001
9.708904e+002,2.328094e+001
9.718546e+002,2.303673e+001
9.728188e+002,2.096091e+001
9.737831e+002,1.895349e+001
9.747473e+002,2.003932e+001
9.757115e+002,2.517767e+001
9.766758e+002,2.842851e+001
9.776400e+002,2.804427e+001
9.786042e+002,2.811902e+001
9.795685e+002,3.040637e+001
9.805327e+002,3.314886e+001
9.814969e+002,3.390848e+001
9.824612e+002,3.195345e+001
9.834254e+002,2.914966e+001
9.843896e+002,2.651033e+001
9.853539e+002,2.425148e+001
9.863181e+002,2.289185e+001
9.872823e+002,2.222195e+001
9.882466e+002,2.154837e+001
9.892108e+002,2.041608e+001
9.901750e+002,1.909052e+001
9.911393e+002,1.822345e+001
9.921035e+002,1.685915e+001
9.930677e+002,1.694392e+001
9.940320e+002,2.017879e+001
9.949962e+002,2.391408e+001
9.959604e+002,2.545398e+001
9.969247e+002,2.472067e+001
9.978889e+002,2.430827e+001
9.988531e+002,2.540041e+001
9.998174e+002,2.675386e+001
1.000782e+003,2.792371e+001
1.001746e+003,2.893974e+001
1.002710e+003,2.990350e+001
1.003674e+003,3.080420e+001
1.004639e+003,3.140666e+001
1.005603e+003,3.125475e+001
1.006567e+003,3.020775e+001
1.007531e+003,2.961974e+001
1.008495e+003,3.007053e+001
1.009460e+003,2.989249e+001
1.010424e+003,2.738127e+001
1.011388e+003,2.336894e+001
1.012352e+003,2.131557e+001
1.013317e+003,2.265736e+001
1.014281e+003,2.374548e+001
1.015245e+003,2.311345e+001
1.016209e+003,2.201646e+001
1.017174e+003,2.153447e+001
1.018138e+003,2.161922e+001
1.019102e+003,2.136459e+001
1.020066e+003,2.001964e+001
1.021031e+003,1.806815e+001
1.021995e+003,1.669063e+001
1.022959e+003,1.563295e+001
1.023923e+003,1.432175e+001
1.024887e+003,1.246211e+001
1.025852e+003,1.039420e+001
1.026816e+003,8.714676e+000
1.027780e+003,7.599762e+000
1.028744e+003,6.536377e+000
1.029709e+003,5.666595e+000
1.030673e+003,4.569031e+000
1.031637e+003,2.597214e+000
1.032601e+003,4.551086e-001
1.033566e+003,-8.830719e-001
1.034530e+003,-1.039703e+000
1.035494e+003,-2.994385e-001
1.036458e+003,1.600067e+000
1.037422e+003,3.736664e+000
1.038387e+003,4.426697e+000
1.039351e+003,3.724930e+000
1.040315e+003,2.890549e+000
1.041279e+003,2.885895e+000
1.042244e+003,3.613068e+000
1.043208e+003,4.364487e+000
1.044172e+003,5.192902e+000
1.045136e+003,5.652008e+000
1.046101e+003,5.333359e+000
1.047065e+003,5.179688e+000
1.048029e+003,6.003067e+000
1.048993e+003,7.508347e+000
1.049958e+003,8.664230e+000
1.050922e+003,9.155334e+000
1.051886e+003,8.939484e+000
1.052850e+003,7.310928e+000
1.053814e+003,5.295166e+000
1.054779e+003,4.407944e+000
1.055743e+003,4.848846e+000
1.056707e+003,5.515900e+000
1.057671e+003,5.071075e+000
1.058636e+003,3.479095e+000
1.059600e+003,2.326691e+000
1.060564e+003,1.549179e+000
1.061528e+003,1.574783e+000
1.062493e+003,3.188660e+000
1.063457e+003,4.934845e+000
1.064421e+003,5.052811e+000
1.065385e+003,3.436966e+000
1.066349e+003,2.052551e+000
1.067314e+003,1.790939e+000
1.068278e+003,2.256805e+000
1.069242e+003,3.468399e+000
1.070206e+003,5.095245e+000
1.071171e+003,6.802338e+000
1.072135e+003,8.289642e+000
1.073099e+003,9.106018e+000
1.074063e+003,8.537567e+000
1.075028e+003,6.472519e+000
1.075992e+003,4.804428e+000
1.076956e+003,2.754623e+000
1.077920e+003,1.991302e+000
1.078885e+003,4.471863e+000
1.079849e+003,8.333679e+000
1.080813e+003,9.874802e+000
1.081777e+003,8.247009e+000
1.082741e+003,6.432693e+000
1.083706e+003,5.050674e+000
1.084670e+003,4.416031e+000
1.085634e+003,5.489075e+000
1.086598e+003,7.358978e+000
1.087563e+003,8.470993e+000
1.088527e+003,8.004959e+000
1.089491e+003,6.414352e+000
1.090455e+003,4.213974e+000
1.091420e+003,1.214844e+000
1.092384e+003,-3.655243e-001
1.093348e+003,-1.052704e-001
1.094312e+003,5.520935e-001
1.095276e+003,9.412994e-001
1.096241e+003,1.227661e+000
1.097205e+003,1.586868e+000
1.098169e+003,1.722824e+000
1.099133e+003,2.598801e+000
1.100098e+003,6.392303e+000
1.101062e+003,9.450409e+000
1.102026e+003,8.572830e+000
1.102990e+003,5.078217e+000
1.103955e+003,2.475937e+000
1.104919e+003,2.855164e+000
1.105883e+003,4.706497e+000
1.106847e+003,4.788940e+000
1.107812e+003,3.054718e+000
1.108776e+003,2.294373e+000
1.109740e+003,3.035660e+000
1.110704e+003,3.901245e+000
1.111668e+003,3.563766e+000
1.112633e+003,2.596985e+000
1.113597e+003,3.559982e+000
1.114561e+003,8.119980e+000
1.115525e+003,1.092673e+001
1.116490e+003,9.165436e+000
1.117454e+003,6.475449e+000
1.118418e+003,4.788025e+000
1.119382e+003,4.409592e+000
1.120347e+003,5.055054e+000
1.121311e+003,6.444809e+000
1.122275e+003,7.998779e+000
1.123239e+003,8.771011e+000
1.124203e+003,9.006531e+000
1.125168e+003,9.860336e+000
1.126132e+003,1.160898e+001
1.127096e+003,1.358121e+001
1.128060e+003,1.566348e+001
1.129025e+003,1.753767e+001
1.129989e+003,1.753085e+001
1.130953e+003,1.400204e+001
1.131917e+003,1.201534e+001
1.132882e+003,1.400778e+001
1.133846e+003,1.674657e+001
1.134810e+003,1.860640e+001
1.135774e+003,1.951387e+001
1.136739e+003,1.976845e+001
1.137703e+003,1.956174e+001
1.138667e+003,1.952126e+001
1.139631e+003,2.103667e+001
1.140595e+003,2.384232e+001
1.141560e+003,2.549599e+001
1.142524e+003,2.548149e+001
1.143488e+003,2.615010e+001
1.144452e+003,2.921432e+001
1.145417e+003,3.418935e+001
1.146381e+003,3.936024e+001
1.147345e+003,4.466934e+001
1.148309e+003,5.008990e+001
1.149274e+003,5.532043e+001
1.150238e+003,6.107089e+001
1.151202e+003,6.848715e+001
1.152166e+003,7.664865e+001
1.153130e+003,8.360881e+001
1.154095e+003,8.844093e+001
1.155059e+003,9.253349e+001
1.156023e+003,9.869899e+001
1.156987e+003,1.060372e+002
1.157952e+003,1.083064e+002
1.158916e+003,1.052934e+002
1.159880e+003,1.001826e+002
1.160844e+003,9.356674e+001
1.161809e+003,8.583243e+001
1.162773e+003,7.822948e+001
1.163737e+003,7.076216e+001
1.164701e+003,6.346996e+001
1.165666e+003,5.556483e+001
1.166630e+003,4.891925e+001
1.167594e+003,4.450552e+001
1.168558e+003,4.164114e+001
1.169522e+003,3.976321e+001
1.170487e+003,3.845264e+001
1.171451e+003,3.698233e+001
1.172415e+003,3.437411e+001
1.173379e+003,3.101891e+001
1.174344e+003,2.916461e+001
1.175308e+003,2.879724e+001
1.176272e+003,2.916064e+001
1.177236e+003,3.092230e+001
1.178201e+003,3.268861e+001
1.179165e+003,3.237956e+001
1.180129e+003,2.988113e+001
1.181093e+003,2.739926e+001
1.182057e+003,2.539197e+001
1.183022e+003,2.356642e+001
1.183986e+003,2.122078e+001
1.184950e+003,1.938564e+001
1.185914e+003,1.972185e+001
1.186879e+003,2.180502e+001
1.187843e+003,2.311418e+001
1.188807e+003,2.150600e+001
1.189771e+003,1.837708e+001
1.190736e+003,1.831081e+001
1.191700e+003,2.168608e+001
1.192664e+003,2.420177e+001
1.193628e+003,2.548456e+001
1.194593e+003,2.601865e+001
1.195557e+003,2.630759e+001
1.196521e+003,2.609647e+001
1.197485e+003,2.412535e+001
1.198449e+003,1.930884e+001
1.199414e+003,1.568279e+001
1.200378e+003,1.651956e+001
1.201342e+003,1.784206e+001
1.202306e+003,1.701517e+001
1.203271e+003,1.461467e+001
1.204235e+003,1.223824e+001
1.205199e+003,1.079106e+001
1.206163e+003,1.034615e+001
1.207128e+003,1.117935e+001
1.208092e+003,1.343037e+001
1.209056e+003,1.337566e+001
1.210020e+003,1.003362e+001
1.210984e+003,6.842346e+000
1.211949e+003,4.634262e+000
1.212913e+003,3.125351e+000
1.213877e+003,2.369720e+000
1.214841e+003,2.320007e+000
1.215806e+003,1.373276e+000
1.216770e+003,-1.928253e+000
1.217734e+003,-4.994888e+000
1.218698e+003,-6.356186e+000
1.219663e+003,-6.464554e+000
1.220627e+003,-5.214600e+000
1.221591e+003,-3.088516e+000
1.222555e+003,-1.747375e+000
1.223520e+003,-2.752136e+000
1.224484e+003,-5.498550e+000
1.225448e+003,-7.308121e+000
1.226412e+003,-7.687073e+000
1.227376e+003,-8.196167e+000
1.228341e+003,-9.742523e+000
1.229305e+003,-1.048842e+001
1.230269e+003,-8.153656e+000
1.231233e+003,-4.673584e+000
1.232198e+003,-4.434708e+000
1.233162e+003,-8.688751e+000
1.234126e+003,-1.278720e+001
1.235090e+003,-1.329939e+001
1.236055e+003,-1.221602e+001
1.237019e+003,-1.159460e+001
1.237983e+003,-1.129881e+001
1.238947e+003,-1.050621e+001
1.239911e+003,-8.835831e+000
1.240876e+003,-7.138184e+000
1.241840e+003,-6.777267e+000
1.242804e+003,-7.818924e+000
1.243768e+003,-8.815262e+000
1.244733e+003,-1.041701e+001
1.245697e+003,-1.100253e+001
1.246661e+003,-1.015869e+001
1.247625e+003,-8.728119e+000
1.248590e+003,-6.664093e+000
1.249554e+003,-4.459900e+000
1.250518e+003,-3.440613e+000
1.251482e+003,-4.313065e+000
1.252447e+003,-6.056595e+000
1.253411e+003,-7.872055e+000
1.254375e+003,-9.297394e+000
1.255339e+003,-9.204056e+000
1.256303e+003,-7.582123e+000
1.257268e+003,-6.164795e+000
1.258232e+003,-6.275436e+000
1.259196e+003,-6.957169e+000
1.260160e+003,-5.738556e+000
1.261125e+003,-1.994141e+000
1.262089e+003,3.151245e-001
1.263053e+003,-5.185547e-001
1.264017e+003,-1.486908e+000
1.264982e+003,-1.964264e+000
1.265946e+003,-2.121506e+000
1.266910e+003,-2.224197e+000
1.267874e+003,-2.231659e+000
1.268839e+003,-1.739029e+000
1.269803e+003,-4.588776e-001
1.270767e+003,1.043884e+000
1.271731e+003,1.772812e+000
1.272695e+003,1.709274e+000
1.273660e+003,6.834259e-001
1.274624e+003,-2.099869e+000
1.275588e+003,-4.184433e+000
1.276552e+003,-3.020996e+000
1.277517e+003,-6.177979e-001
1.278481e+003,-1.406540e+000
1.279445e+003,-5.953003e+000
1.280409e+003,-9.367706e+000
1.281374e+003,-9.584259e+000
1.282338e+003,-8.886063e+000
1.283302e+003,-7.951019e+000
1.284266e+003,-7.183868e+000
1.285230e+003,-7.310135e+000
1.286195e+003,-8.160431e+000
1.287159e+003,-8.403168e+000
1.288123e+003,-6.888107e+000
1.289087e+003,-4.647491e+000
1.290052e+003,-5.184464e+000
1.291016e+003,-1.005272e+001
1.291980e+003,-1.231676e+001
1.292944e+003,-1.063881e+001
1.293909e+003,-8.551254e+000
1.294873e+003,-6.516907e+000
1.295837e+003,-5.172180e+000
1.296801e+003,-5.969360e+000
1.297766e+003,-8.844376e+000
1.298730e+003,-1.094640e+001
1.299694e+003,-1.051262e+001
1.300658e+003,-9.410248e+000
1.301622e+003,-1.029985e+001
1.302587e+003,-1.166502e+001
1.303551e+003,-1.040073e+001
1.304515e+003,-6.257858e+000
1.305479e+003,-2.910446e+000
1.306444e+003,-3.580978e+000
1.307408e+003,-7.023972e+000
1.308372e+003,-8.889160e+000
1.309336e+003,-8.755234e+000
1.310301e+003,-8.323059e+000
1.311265e+003,-7.378799e+000
1.312229e+003,-6.410294e+000
1.313193e+003,-5.009445e+000
1.314157e+003,-4.071747e+000
1.315122e+003,-5.124207e+000
1.316086e+003,-7.786957e+000
1.317050e+003,-9.606339e+000
1.318014e+003,-8.839432e+000
1.318979e+003,-7.164368e+000
1.319943e+003,-8.050919e+000
1.320907e+003,-1.098215e+001
1.321871e+003,-1.147174e+001
1.322836e+003,-8.676422e+000
1.323800e+003,-6.337173e+000
1.324764e+003,-7.278900e+000
1.325728e+003,-9.434723e+000
1.326693e+003,-8.804001e+000
1.327657e+003,-5.272385e+000
1.328621e+003,-3.437485e+000
1.329585e+003,-5.428146e+000
1.330549e+003,-7.141815e+000
1.331514e+003,-5.985321e+000
1.332478e+003,-4.376526e+000
1.333442e+003,-5.001907e+000
1.334406e+003,-7.346710e+000
1.335371e+003,-8.648193e+000
1.336335e+003,-7.292038e+000
1.337299e+003,-4.973465e+000
1.338263e+003,-5.055527e+000
1.339228e+003,-7.956573e+000
1.340192e+003,-9.263855e+000
1.341156e+003,-7.764664e+000
1.342120e+003,-6.592545e+000
1.343084e+003,-6.356567e+000
1.344049e+003,-6.627563e+000
1.345013e+003,-7.159012e+000
1.345977e+003,-7.735916e+000
1.346941e+003,-8.094635e+000
1.347906e+003,-8.162018e+000
1.348870e+003,-7.834930e+000
1.349834e+003,-6.840576e+000
1.350798e+003,-5.595718e+000
1.351763e+003,-4.437332e+000
1.352727e+003,-3.512268e+000
1.353691e+003,-4.088959e+000
1.354655e+003,-7.096695e+000
1.355620e+003,-1.004964e+001
1.356584e+003,-9.327057e+000
1.357548e+003,-5.474533e+000
1.358512e+003,-3.843231e+000
1.359476e+003,-5.376862e+000
1.360441e+003,-7.483719e+000
1.361405e+003,-1.144556e+001
1.362369e+003,-1.363788e+001
1.363333e+003,-1.039403e+001
1.364298e+003,-5.132156e+000
1.365262e+003,-2.819794e+000
1.366226e+003,-4.444031e+000
1.367190e+003,-7.242142e+000
1.368155e+003,-8.780426e+000
1.369119e+003,-9.239395e+000
1.370083e+003,-9.075119e+000
1.371047e+003,-7.957672e+000
1.372011e+003,-7.426010e+000
1.372976e+003,-8.341660e+000
1.373940e+003,-8.902634e+000
1.374904e+003,-8.011597e+000
1.375868e+003,-6.600128e+000
1.376833e+003,-5.868561e+000
1.377797e+003,-5.906616e+000
1.378761e+003,-6.169601e+000
1.379725e+003,-6.487579e+000
1.380690e+003,-6.681763e+000
1.381654e+003,-6.422287e+000
1.382618e+003,-5.947983e+000
1.383582e+003,-5.623016e+000
1.384547e+003,-5.445587e+000
1.385511e+003,-5.202408e+000
1.386475e+003,-4.815445e+000
1.387439e+003,-4.390045e+000
1.388403e+003,-4.052109e+000
1.389368e+003,-3.812439e+000
1.390332e+003,-3.581757e+000
1.391296e+003,-3.075912e+000
1.392260e+003,-3.032715e+000
1.393225e+003,-4.126938e+000
1.394189e+003,-5.177979e+000
1.395153e+003,-5.614258e+000
1.396117e+003,-5.510101e+000
1.397082e+003,-4.988998e+000
1.398046e+003,-4.135452e+000
1.399010e+003,-2.946045e+000
1.399974e+003,-1.434830e+000
1.400938e+003,-2.564087e-001
1.401903e+003,-1.321060e+000
1.402867e+003,-5.278900e+000
1.403831e+003,-7.263306e+000
1.404795e+003,-6.553055e+000
1.405760e+003,-5.230789e+000
1.406724e+003,-3.796921e+000
1.407688e+003,-2.605026e+000
1.408652e+003,-1.763138e+000
1.409617e+003,-1.229324e+000
1.410581e+003,-1.270233e+000
1.411545e+003,-2.105652e+000
1.412509e+003,-2.948669e+000
1.413474e+003,-2.982208e+000
1.414438e+003,-2.745178e+000
1.415402e+003,-3.079788e+000
1.416366e+003,-3.769867e+000
1.417330e+003,-3.855225e+000
1.418295e+003,-2.829147e+000
1.419259e+003,-1.574905e+000
1.420223e+003,-1.386856e+000
1.421187e+003,-2.061859e+000
1.422152e+003,-1.719803e+000
1.423116e+003,3.277740e-001
1.424080e+003,1.638077e+000
1.425044e+003,9.716187e-001
1.426009e+003,-1.973877e-001
1.426973e+003,-1.921860e+000
1.427937e+003,-3.437531e+000
1.428901e+003,-3.434067e+000
1.429865e+003,-2.172012e+000
1.430830e+003,-1.483765e+000
1.431794e+003,-2.604935e+000
1.432758e+003,-4.471634e+000
1.433722e+003,-4.815704e+000
1.434687e+003,-3.353287e+000
1.435651e+003,-2.127289e+000
1.436615e+003,-1.852554e+000
1.437579e+003,-1.439606e+000
1.438544e+003,-7.000122e-001
1.439508e+003,1.932220e-001
1.440472e+003,1.340485e+000
1.441436e+003,2.611938e+000
1.442401e+003,3.736588e+000
1.443365e+003,4.606125e+000
1.444329e+003,5.248474e+000
1.445293e+003,5.776749e+000
1.446257e+003,5.958160e+000
1.447222e+003,4.955093e+000
1.448186e+003,3.045151e+000
1.449150e+003,1.939362e+000
1.450114e+003,1.899857e+000
1.451079e+003,2.029633e+000
1.452043e+003,1.859756e+000
1.453007e+003,1.758286e+000
1.453971e+003,2.475021e+000
1.454936e+003,3.757782e+000
1.455900e+003,3.867645e+000
1.456864e+003,2.138733e+000
1.457828e+003,4.935913e-001
1.458792e+003,3.485107e-002
1.459757e+003,-7.537842e-003
1.460721e+003,-1.359558e-001
1.461685e+003,-3.592682e-001
1.462649e+003,-5.430145e-001
1.463614e+003,-6.384430e-001
1.464578e+003,-9.320374e-001
1.465542e+003,-1.817047e+000
1.466506e+003,-2.954163e+000
1.467471e+003,-3.206161e+000
1.468435e+003,-2.351852e+000
1.469399e+003,-1.124680e+000
1.470363e+003,6.591797e-001
1.471328e+003,2.258423e+000
1.472292e+003,3.378311e+000
1.473256e+003,4.179352e+000
1.474220e+003,5.316528e+000
1.475184e+003,6.309311e+000
1.476149e+003,5.633392e+000
1.477113e+003,3.113678e+000
1.478077e+003,1.021484e+000
1.479041e+003,1.699066e+000
1.480006e+003,4.185501e+000
1.480970e+003,5.009048e+000
1.481934e+003,3.372681e+000
1.482898e+003,2.998749e+000
1.483863e+003,5.168365e+000
1.484827e+003,6.606308e+000
1.485791e+003,5.835007e+000
1.486755e+003,4.689407e+000
1.487719e+003,5.100739e+000
1.488684e+003,6.445099e+000
1.489648e+003,6.554718e+000
1.490612e+003,4.839813e+000
1.491576e+003,3.351852e+000
1.492541e+003,3.665741e+000
1.493505e+003,5.302017e+000
1.494469e+003,7.640121e+000
1.495433e+003,1.041464e+001
1.496398e+003,1.265196e+001
1.497362e+003,1.435112e+001
1.498326e+003,1.571359e+001
1.499290e+003,1.607649e+001
1.500255e+003,1.666032e+001
1.501219e+003,1.952600e+001
1.502183e+003,2.422014e+001
1.503147e+003,2.804398e+001
1.504111e+003,3.026991e+001
1.505076e+003,3.230969e+001
1.506040e+003,3.489548e+001
1.507004e+003,3.780371e+001
1.507968e+003,4.034770e+001
1.508933e+003,4.312837e+001
1.509897e+003,4.745236e+001
1.510861e+003,5.369580e+001
1.511825e+003,6.127106e+001
1.512790e+003,7.005588e+001
1.513754e+003,7.905807e+001
1.514718e+003,8.603900e+001
1.515682e+003,9.091461e+001
1.516646e+003,9.795145e+001
1.517611e+003,1.088682e+002
1.518575e+003,1.188884e+002
1.519539e+003,1.269728e+002
1.520503e+003,1.335285e+002
1.521468e+003,1.389509e+002
1.522432e+003,1.427497e+002
1.523396e+003,1.438584e+002
1.524360e+003,1.425144e+002
1.525325e+003,1.404438e+002
1.526289e+003,1.388254e+002
1.527253e+003,1.368295e+002
1.528217e+003,1.328902e+002
1.529182e+003,1.270869e+002
1.530146e+003,1.203650e+002
1.531110e+003,1.121439e+002
1.532074e+003,1.038344e+002
1.533038e+003,9.501254e+001
1.534003e+003,8.625922e+001
1.534967e+003,7.872693e+001
1.535931e+003,7.124649e+001
1.536895e+003,6.168852e+001
1.537860e+003,5.078847e+001
1.538824e+003,4.149065e+001
1.539788e+003,3.519661e+001
1.540752e+003,3.018996e+001
1.541717e+003,2.416928e+001
1.542681e+003,1.771648e+001
1.543645e+003,1.407278e+001
1.544609e+003,1.486838e+001
1.545573e+003,1.472038e+001
1.546538e+003,1.224867e+001
1.547502e+003,1.036584e+001
1.548466e+003,1.074519e+001
1.549430e+003,1.197794e+001
1.550395e+003,1.277661e+001
1.551359e+003,1.293143e+001
1.552323e+003,1.235385e+001
1.553287e+003,1.111330e+001
1.554252e+003,1.026585e+001
1.555216e+003,1.091537e+001
1.556180e+003,1.204646e+001
1.557144e+003,1.109966e+001
1.558109e+003,8.030396e+000
1.559073e+003,5.680054e+000
1.560037e+003,3.830536e+000
1.561001e+003,2.961243e+000
1.561965e+003,3.989014e+000
1.562930e+003,5.630310e+000
1.563894e+003,7.020477e+000
1.564858e+003,7.869156e+000
1.565822e+003,7.508591e+000
1.566787e+003,5.880219e+000
1.567751e+003,4.124115e+000
1.568715e+003,2.709869e+000
1.569679e+003,2.103470e+000
1.570644e+003,3.425079e+000
1.571608e+003,5.756882e+000
1.572572e+003,6.378265e+000
1.573536e+003,5.229050e+000
1.574500e+003,4.909576e+000
1.575465e+003,6.736954e+000
1.576429e+003,8.802368e+000
1.577393e+003,9.628006e+000
1.578357e+003,9.516022e+000
1.579322e+003,9.028107e+000
1.580286e+003,8.267120e+000
1.581250e+003,7.291855e+000
1.582214e+003,5.882217e+000
1.583179e+003,5.144394e+000
1.584143e+003,6.214752e+000
1.585107e+003,8.030441e+000
1.586071e+003,9.497681e+000
1.587036e+003,1.067743e+001
1.588000e+003,1.127567e+001
1.588964e+003,1.111449e+001
1.589928e+003,1.097488e+001
1.590893e+003,1.133632e+001
1.591857e+003,1.207941e+001
1.592821e+003,1.340210e+001
1.593785e+003,1.506641e+001
1.594750e+003,1.535301e+001
1.595714e+003,1.374425e+001
1.596678e+003,1.244653e+001
1.597642e+003,1.246315e+001
1.598606e+003,1.290938e+001
1.599571e+003,1.296431e+001
1.600535e+003,1.311800e+001
1.601499e+003,1.419862e+001
1.602463e+003,1.601863e+001
1.603428e+003,1.758380e+001
1.604392e+003,1.854982e+001
1.605356e+003,1.880978e+001
1.606320e+003,1.775031e+001
1.607285e+003,1.607834e+001
1.608249e+003,1.597891e+001
1.609213e+003,1.751343e+001
1.610177e+003,1.894466e+001
1.611141e+003,2.051553e+001
1.612106e+003,2.065598e+001
1.613070e+003,1.674538e+001
1.614034e+003,1.279533e+001
1.614998e+003,1.111029e+001
1.615963e+003,1.166383e+001
1.616927e+003,1.541267e+001
1.617891e+003,2.163405e+001
1.618855e+003,2.560042e+001
1.619820e+003,2.423315e+001
1.620784e+003,2.041414e+001
1.621748e+003,1.825029e+001
1.622712e+003,1.759251e+001
1.623677e+003,1.647890e+001
1.624641e+003,1.470903e+001
1.625605e+003,1.365707e+001
1.626569e+003,1.349319e+001
1.627533e+003,1.378683e+001
1.628498e+003,1.490755e+001
1.629462e+003,1.609796e+001
1.630426e+003,1.674887e+001
1.631390e+003,1.688969e+001
1.632355e+003,1.656114e+001
1.633319e+003,1.585954e+001
1.634283e+003,1.538823e+001
1.635247e+003,1.560970e+001
1.636212e+003,1.619441e+001
1.637176e+003,1.679123e+001
1.638140e+003,1.739873e+001
1.639104e+003,1.713757e+001
1.640068e+003,1.560185e+001
1.641033e+003,1.446506e+001
1.641997e+003,1.428867e+001
1.642961e+003,1.449631e+001
1.643925e+003,1.509749e+001
1.644890e+003,1.564592e+001
1.645854e+003,1.549672e+001
1.646818e+003,1.491454e+001
1.647782e+003,1.488486e+001
1.648747e+003,1.561676e+001
1.649711e+003,1.579346e+001
1.650675e+003,1.419261e+001
1.651639e+003,1.184917e+001
1.652604e+003,1.061945e+001
1.653568e+003,1.043797e+001
1.654532e+003,1.144263e+001
1.655496e+003,1.422874e+001
1.656460e+003,1.610428e+001
1.657425e+003,1.610565e+001
1.658389e+003,1.534082e+001
1.659353e+003,1.393982e+001
1.660317e+003,1.248952e+001
1.661282e+003,1.161539e+001
1.662246e+003,1.121800e+001
1.663210e+003,1.085988e+001
1.664174e+003,1.043945e+001
1.665139e+003,1.033914e+001
1.666103e+003,1.097469e+001
1.667067e+003,1.184915e+001
1.668031e+003,1.208586e+001
1.668995e+003,1.172142e+001
1.669960e+003,1.070837e+001
1.670924e+003,8.680511e+000
1.671888e+003,7.762222e+000
1.672852e+003,9.593201e+000
1.673817e+003,1.114061e+001
1.674781e+003,9.579575e+000
1.675745e+003,7.395706e+000
1.676709e+003,7.643784e+000
1.677674e+003,9.712219e+000
1.678638e+003,1.099159e+001
1.679602e+003,1.067569e+001
1.680566e+003,1.016792e+001
1.681531e+003,1.067328e+001
1.682495e+003,1.159441e+001
1.683459e+003,1.199803e+001
1.684423e+003,1.178697e+001
1.685387e+003,1.037334e+001
1.686352e+003,7.468018e+000
1.687316e+003,5.657394e+000
1.688280e+003,6.200516e+000
1.689244e+003,7.181534e+000
1.690209e+003,7.219360e+000
1.691173e+003,6.877350e+000
1.692137e+003,6.969757e+000
1.693101e+003,7.315903e+000
1.694066e+003,6.749893e+000
1.695030e+003,4.843567e+000
1.695994e+003,3.662735e+000
1.696958e+003,5.214111e+000
1.697922e+003,7.346207e+000
1.698887e+003,6.939453e+000
1.699851e+003,5.005356e+000
1.700815e+003,4.800995e+000
1.701779e+003,6.512741e+000
1.702744e+003,7.677582e+000
1.703708e+003,7.667236e+000
1.704672e+003,6.816360e+000
1.705636e+003,4.714264e+000
1.706601e+003,2.288803e+000
1.707565e+003,9.125366e-001
1.708529e+003,5.557251e-001
1.709493e+003,1.278442e+000
1.710458e+003,3.253082e+000
1.711422e+003,4.578430e+000
1.712386e+003,4.257080e+000
1.713350e+003,3.434296e+000
1.714314e+003,2.765747e+000
1.715279e+003,2.164276e+000
1.716243e+003,1.573410e+000
1.717207e+003,1.002869e+000
1.718171e+003,3.839722e-001
1.719136e+003,-2.815399e-001
1.720100e+003,-4.746857e-001
1.721064e+003,2.576294e-001
1.722028e+003,1.176331e+000
1.722993e+003,1.210526e+000
1.723957e+003,6.635895e-001
1.724921e+003,6.980591e-001
1.725885e+003,1.189499e+000
1.726849e+003,1.905472e+000
1.727814e+003,3.683990e+000
1.728778e+003,4.851410e+000
1.729742e+003,3.915237e+000
1.730706e+003,2.677795e+000
1.731671e+003,3.205444e+000
1.732635e+003,4.533463e+000
1.733599e+003,4.514572e+000
1.734563e+003,3.016327e+000
1.735528e+003,1.463608e+000
1.736492e+003,5.649414e-001
1.737456e+003,1.358948e-001
1.738420e+003,-3.160095e-002
1.739385e+003,3.952026e-002
1.740349e+003,6.490021e-001
1.741313e+003,2.281128e+000
1.742277e+003,2.313171e+000
1.743241e+003,-8.035278e-001
1.744206e+003,-2.832092e+000
1.745170e+003,-2.443939e+000
1.746134e+003,-1.872894e+000
1.747098e+003,-2.589767e+000
1.748063e+003,-3.630219e+000
1.749027e+003,-4.136200e+000
1.749991e+003,-3.764069e+000
1.750955e+003,-1.606323e+000
1.751920e+003,2.117065e+000
1.752884e+003,4.586151e+000
1.753848e+003,3.432190e+000
1.754812e+003,3.344727e-001
1.755776e+003,-1.324234e+000
1.756741e+003,-1.500214e+000
1.757705e+003,-1.365738e+000
1.758669e+003,-9.396057e-001
1.759633e+003,-3.569946e-001
1.760598e+003,7.160492e-001
1.761562e+003,1.283737e+000
1.762526e+003,1.212616e+000
1.763490e+003,5.780487e-001
1.764455e+003,-1.157211e+000
1.765419e+003,-3.097031e+000
1.766383e+003,-3.833206e+000
1.767347e+003,-3.423889e+000
1.768312e+003,-3.143524e+000
1.769276e+003,-3.627533e+000
1.770240e+003,-3.934937e+000
1.771204e+003,-2.644669e+000
1.772168e+003,-6.463318e-001
1.773133e+003,-4.331207e-001
1.774097e+003,-1.782074e+000
1.775061e+003,-2.354919e+000
1.776025e+003,-1.934341e+000
1.776990e+003,-1.370773e+000
1.777954e+003,-7.209320e-001
1.778918e+003,-1.703339e-001
1.779882e+003,1.019287e-001
1.780847e+003,5.665588e-002
1.781811e+003,-4.915314e-001
1.782775e+003,-1.266220e+000
1.783739e+003,-1.222794e+000
1.784703e+003,-6.150818e-002
1.785668e+003,4.376984e-001
1.786632e+003,-1.527237e+000
1.787596e+003,-3.163773e+000
1.788560e+003,-1.650269e+000
1.789525e+003,1.108047e+000
1.790489e+003,2.538956e+000
1.791453e+003,2.626999e+000
1.792417e+003,1.869553e+000
1.793382e+003,5.381012e-001
1.794346e+003,-2.494202e-001
1.795310e+003,1.350250e-001
1.796274e+003,5.836487e-001
1.797239e+003,-1.641541e-001
1.798203e+003,-1.617584e+000
1.799167e+003,-2.628006e+000
1.800131e+003,-3.443253e+000
1.801095e+003,-3.423157e+000
1.802060e+003,-1.425034e+000
1.803024e+003,-1.501160e-001
1.803988e+003,-2.413788e-001
1.804952e+003,-7.579651e-001
1.805917e+003,-2.000732e+000
1.806881e+003,-2.831268e+000
1.807845e+003,-1.560547e+000
1.808809e+003,8.399658e-001
1.809774e+003,2.224152e+000
1.810738e+003,2.164490e+000
1.811702e+003,1.786469e+000
1.812666e+003,1.791840e+000
1.813630e+003,1.901337e+000
1.814595e+003,1.811386e+000
1.815559e+003,1.396484e+000
1.816523e+003,-5.677795e-002
1.817487e+003,-2.742554e+000
1.818452e+003,-3.846634e+000
1.819416e+003,-2.648987e+000
1.820380e+003,-1.273041e+000
1.821344e+003,4.248352e-001
1.822309e+003,9.537354e-001
1.823273e+003,-1.866409e+000
1.824237e+003,-5.070938e+000
1.825201e+003,-5.342056e+000
1.826166e+003,-3.603287e+000
1.827130e+003,-2.542404e+000
1.828094e+003,-2.661636e+000
1.829058e+003,-2.979477e+000
1.830022e+003,-3.020828e+000
1.830987e+003,-3.006668e+000
1.831951e+003,-3.512589e+000
1.832915e+003,-3.788635e+000
1.833879e+003,-2.031174e+000
1.834844e+003,7.955780e-001
1.835808e+003,1.270325e+000
1.836772e+003,-8.152161e-001
1.837736e+003,-1.981125e+000
1.838701e+003,-7.254181e-001
1.839665e+003,8.084717e-001
1.840629e+003,6.014404e-001
1.841593e+003,-2.033691e-001
1.842557e+003,1.036652e+000
1.843522e+003,4.257614e+000
1.844486e+003,4.856400e+000
1.845450e+003,4.114227e-001
1.846414e+003,-1.744553e+000
1.847379e+003,1.674500e-001
1.848343e+003,1.613083e+000
1.849307e+003,6.306763e-001
1.850271e+003,-4.879608e-001
1.851236e+003,3.541870e-001
1.852200e+003,1.945801e+000
1.853164e+003,2.312973e+000
1.854128e+003,1.427536e+000
1.855093e+003,3.253784e-001
1.856057e+003,-4.048157e-001
1.857021e+003,-2.836914e-001
1.857985e+003,1.168091e+000
1.858949e+003,2.999527e+000
1.859914e+003,3.533249e+000
1.860878e+003,3.020126e+000
1.861842e+003,2.801315e+000
1.862806e+003,2.868347e+000
1.863771e+003,2.452026e+000
1.864735e+003,1.263702e+000
1.865699e+003,9.773254e-002
1.866663e+003,-7.924042e-001
1.867628e+003,-1.235718e+000
1.868592e+003,-1.215836e+000
1.869556e+003,-7.209625e-001
1.870520e+003,9.058533e-001
1.871484e+003,3.309158e+000
1.872449e+003,3.985275e+000
1.873413e+003,2.444183e+000
1.874377e+003,1.196228e+000
1.875341e+003,3.492737e-001
1.876306e+003,2.894135e-001
1.877270e+003,1.846771e+000
1.878234e+003,3.672821e+000
1.879198e+003,4.717499e+000
1.880163e+003,4.922089e+000
1.881127e+003,3.871506e+000
1.882091e+003,2.111572e+000
1.883055e+003,1.802917e+000
1.884020e+003,3.593063e+000
1.884984e+003,4.780624e+000
1.885948e+003,2.856979e+000
1.886912e+003,-4.713593e-001
1.887876e+003,-1.816650e+000
1.888841e+003,-1.288864e+000
1.889805e+003,-1.301727e-001
1.890769e+003,1.900299e+000
1.891733e+003,3.246140e+000
1.892698e+003,3.548035e+000
1.893662e+003,3.498062e+000
1.894626e+003,3.187042e+000
1.895590e+003,2.833527e+000
1.896555e+003,2.704544e+000
1.897519e+003,2.626968e+000
1.898483e+003,2.052048e+000
1.899447e+003,1.212906e+000
1.900411e+003,1.344391e+000
1.901376e+003,2.754913e+000
1.902340e+003,3.737244e+000
1.903304e+003,3.364456e+000
1.904268e+003,2.830627e+000
1.905233e+003,2.915161e+000
1.906197e+003,3.207153e+000
1.907161e+003,3.268677e+000
1.908125e+003,3.267822e+000
1.909090e+003,3.634689e+000
1.910054e+003,4.171432e+000
1.911018e+003,3.972153e+000
1.911982e+003,2.929916e+000
1.912947e+003,2.457169e+000
1.913911e+003,3.566803e+000
1.914875e+003,5.070328e+000
1.915839e+003,4.968552e+000
1.916803e+003,3.729568e+000
1.917768e+003,4.355103e+000
1.918732e+003,7.420929e+000
1.919696e+003,8.944748e+000
1.920660e+003,8.500748e+000
1.921625e+003,7.704163e+000
1.922589e+003,6.719727e+000
1.923553e+003,5.604904e+000
1.924517e+003,3.961288e+000
1.925482e+003,2.621490e+000
1.926446e+003,2.368439e+000
1.927410e+003,2.934998e+000
1.928374e+003,4.026642e+000
1.929339e+003,5.450302e+000
1.930303e+003,6.106354e+000
1.931267e+003,5.626984e+000
1.932231e+003,5.120056e+000
1.933195e+003,4.720062e+000
1.934160e+003,4.687347e+000
1.935124e+003,5.650772e+000
1.936088e+003,6.684280e+000
1.937052e+003,6.586517e+000
1.938017e+003,5.809326e+000
1.938981e+003,5.420547e+000
1.939945e+003,5.550491e+000
1.940909e+003,5.695190e+000
1.941874e+003,5.591476e+000
1.942838e+003,5.342819e+000
1.943802e+003,5.114426e+000
1.944766e+003,4.944977e+000
1.945730e+003,4.673920e+000
1.946695e+003,4.304520e+000
1.947659e+003,4.479507e+000
1.948623e+003,5.261826e+000
1.949587e+003,5.502808e+000
1.950552e+003,4.870148e+000
1.951516e+003,4.858871e+000
1.952480e+003,6.444473e+000
1.953444e+003,7.678452e+000
1.954409e+003,6.575928e+000
1.955373e+003,4.891342e+000
1.956337e+003,5.610764e+000
1.957301e+003,7.981216e+000
1.958266e+003,8.937164e+000
1.959230e+003,8.255371e+000
1.960194e+003,7.601166e+000
1.961158e+003,6.969559e+000
1.962122e+003,6.438400e+000
1.963087e+003,5.739883e+000
1.964051e+003,5.549118e+000
1.965015e+003,6.751083e+000
1.965979e+003,8.370544e+000
1.966944e+003,9.524506e+000
1.967908e+003,1.010901e+001
1.968872e+003,1.021710e+001
1.969836e+003,9.951691e+000
1.970801e+003,9.339584e+000
1.971765e+003,8.451889e+000
1.972729e+003,7.901413e+000
1.973693e+003,8.258331e+000
1.974657e+003,9.034103e+000
1.975622e+003,9.684875e+000
1.976586e+003,1.005197e+001
1.977550e+003,9.623825e+000
1.978514e+003,8.597992e+000
1.979479e+003,7.984863e+000
1.980443e+003,7.887756e+000
1.981407e+003,7.484146e+000
1.982371e+003,6.456100e+000
1.983336e+003,6.093491e+000
1.984300e+003,7.461456e+000
1.985264e+003,9.260132e+000
1.986228e+003,9.579178e+000
1.987193e+003,8.578094e+000
1.988157e+003,6.964279e+000
1.989121e+003,4.322784e+000
1.990085e+003,3.465149e+000
1.991049e+003,5.211075e+000
1.992014e+003,7.191666e+000
1.992978e+003,9.798401e+000
1.993942e+003,1.158217e+001
1.994906e+003,1.182690e+001
1.995871e+003,1.133098e+001
1.996835e+003,1.032002e+001
1.997799e+003,9.204483e+000
1.998763e+003,8.199432e+000
1.999728e+003,7.498306e+000
2.000692e+003,0.000000e+000
2.001656e+003,0.000000e+000
2.002620e+003,0.000000e+000
2.003584e+003,0.000000e+000
2.004549e+003,0.000000e+000
2.005513e+003,0.000000e+000
2.006477e+003,0.000000e+000
2.007441e+003,0.000000e+000
2.008406e+003,0.000000e+000
2.009370e+003,0.000000e+000
2.010334e+003,0.000000e+000
2.011298e+003,0.000000e+000
2.012263e+003,0.000000e+000
2.013227e+003,0.000000e+000
2.014191e+003,0.000000e+000
2.015155e+003,0.000000e+000
2.016120e+003,0.000000e+000
2.017084e+003,0.000000e+000
2.018048e+003,0.000000e+000
2.019012e+003,0.000000e+000
2.019976e+003,0.000000e+000
2.020941e+003,0.000000e+000
2.021905e+003,0.000000e+000
2.022869e+003,0.000000e+000
2.023833e+003,0.000000e+000
2.024798e+003,0.000000e+000
2.025762e+003,0.000000e+000
2.026726e+003,0.000000e+000
2.027690e+003,0.000000e+000
2.028655e+003,0.000000e+000
2.029619e+003,0.000000e+000
2.030583e+003,0.000000e+000
2.031547e+003,0.000000e+000
2.032511e+003,0.000000e+000
2.033476e+003,0.000000e+000
2.034440e+003,0.000000e+000
2.035404e+003,0.000000e+000
2.036368e+003,0.000000e+000
2.037333e+003,0.000000e+000
2.038297e+003,0.000000e+000
2.039261e+003,0.000000e+000
2.040225e+003,0.000000e+000
2.041190e+003,0.000000e+000
2.042154e+003,0.000000e+000
2.043118e+003,0.000000e+000
2.044082e+003,0.000000e+000
2.045047e+003,0.000000e+000
2.046011e+003,0.000000e+000
2.046975e+003,0.000000e+000
2.047939e+003,0.000000e+000
2.048904e+003,0.000000e+000
2.049868e+003,0.000000e+000
2.050832e+003,0.000000e+000
2.051796e+003,0.000000e+000
2.052760e+003,0.000000e+000
2.053725e+003,0.000000e+000
2.054689e+003,0.000000e+000
2.055653e+003,0.000000e+000
2.056617e+003,0.000000e+000
2.057582e+003,0.000000e+000
2.058546e+003,0.000000e+000
2.059510e+003,0.000000e+000
2.060474e+003,0.000000e+000
2.061438e+003,0.000000e+000
2.062403e+003,0.000000e+000
2.063367e+003,0.000000e+000
2.064331e+003,0.000000e+000
2.065295e+003,0.000000e+000
2.066260e+003,0.000000e+000
2.067224e+003,0.000000e+000
2.068188e+003,0.000000e+000
2.069152e+003,0.000000e+000
2.070117e+003,0.000000e+000
2.071081e+003,0.000000e+000
2.072045e+003,0.000000e+000
2.073009e+003,0.000000e+000
2.073974e+003,0.000000e+000
2.074938e+003,0.000000e+000
2.075902e+003,0.000000e+000
2.076866e+003,0.000000e+000
2.077831e+003,0.000000e+000
2.078795e+003,0.000000e+000
2.079759e+003,0.000000e+000
2.080723e+003,0.000000e+000
2.081688e+003,0.000000e+000
2.082652e+003,0.000000e+000
2.083616e+003,0.000000e+000
2.084580e+003,0.000000e+000
2.085544e+003,0.000000e+000
2.086509e+003,0.000000e+000
2.087473e+003,0.000000e+000
2.088437e+003,0.000000e+000
2.089401e+003,0.000000e+000
2.090365e+003,0.000000e+000
2.091330e+003,0.000000e+000
2.092294e+003,0.000000e+000
2.093258e+003,0.000000e+000
2.094222e+003,0.000000e+000
2.095187e+003,0.000000e+000
2.096151e+003,0.000000e+000
2.097115e+003,0.000000e+000
2.098079e+003,0.000000e+000
2.099044e+003,0.000000e+000
2.100008e+003,0.000000e+000
2.100972e+003,0.000000e+000
2.101936e+003,0.000000e+000
2.102901e+003,0.000000e+000
2.103865e+003,0.000000e+000
2.104829e+003,0.000000e+000
2.105793e+003,0.000000e+000
2.106758e+003,0.000000e+000
2.107722e+003,0.000000e+000
2.108686e+003,0.000000e+000
2.109650e+003,0.000000e+000
2.110615e+003,0.000000e+000
2.111579e+003,0.000000e+000
2.112543e+003,0.000000e+000
2.113507e+003,0.000000e+000
2.114471e+003,0.000000e+000
2.115436e+003,0.000000e+000
2.116400e+003,0.000000e+000
2.117364e+003,0.000000e+000
2.118328e+003,0.000000e+000
2.119292e+003,0.000000e+000
2.120257e+003,0.000000e+000
2.121221e+003,0.000000e+000
2.122185e+003,0.000000e+000
2.123149e+003,0.000000e+000
2.124114e+003,0.000000e+000
2.125078e+003,0.000000e+000
2.126042e+003,0.000000e+000
2.127006e+003,0.000000e+000
2.127971e+003,0.000000e+000
2.128935e+003,0.000000e+000
2.129899e+003,0.000000e+000
2.130863e+003,0.000000e+000
2.131828e+003,0.000000e+000
2.132792e+003,0.000000e+000
2.133756e+003,0.000000e+000
2.134720e+003,0.000000e+000
2.135685e+003,0.000000e+000
2.136649e+003,0.000000e+000
2.137613e+003,0.000000e+000
2.138577e+003,0.000000e+000
2.139542e+003,0.000000e+000
2.140506e+003,0.000000e+000
2.141470e+003,0.000000e+000
2.142434e+003,0.000000e+000
2.143398e+003,0.000000e+000
2.144363e+003,0.000000e+000
2.145327e+003,0.000000e+000
2.146291e+003,0.000000e+000
2.147255e+003,0.000000e+000
2.148220e+003,0.000000e+000
2.149184e+003,0.000000e+000
2.150148e+003,0.000000e+000
2.151112e+003,0.000000e+000
2.152077e+003,0.000000e+000
2.153041e+003,0.000000e+000
2.154005e+003,0.000000e+000
2.154969e+003,0.000000e+000
2.155934e+003,0.000000e+000
2.156898e+003,0.000000e+000
2.157862e+003,0.000000e+000
2.158826e+003,0.000000e+000
2.159791e+003,0.000000e+000
2.160755e+003,0.000000e+000
2.161719e+003,0.000000e+000
2.162683e+003,0.000000e+000
2.163647e+003,0.000000e+000
2.164612e+003,0.000000e+000
2.165576e+003,0.000000e+000
2.166540e+003,0.000000e+000
2.167504e+003,0.000000e+000
2.168469e+003,0.000000e+000
2.169433e+003,0.000000e+000
2.170397e+003,0.000000e+000
2.171361e+003,0.000000e+000
2.172325e+003,0.000000e+000
2.173290e+003,0.000000e+000
2.174254e+003,0.000000e+000
2.175218e+003,0.000000e+000
2.176182e+003,0.000000e+000
2.177147e+003,0.000000e+000
2.178111e+003,0.000000e+000
2.179075e+003,0.000000e+000
2.180039e+003,0.000000e+000
2.181004e+003,0.000000e+000
2.181968e+003,0.000000e+000
2.182932e+003,0.000000e+000
2.183896e+003,0.000000e+000
2.184861e+003,0.000000e+000
2.185825e+003,0.000000e+000
2.186789e+003,0.000000e+000
2.187753e+003,0.000000e+000
2.188718e+003,0.000000e+000
2.189682e+003,0.000000e+000
2.190646e+003,0.000000e+000
2.191610e+003,0.000000e+000
2.192574e+003,0.000000e+000
2.193539e+003,0.000000e+000
2.194503e+003,0.000000e+000
2.195467e+003,0.000000e+000
2.196431e+003,0.000000e+000
2.197396e+003,0.000000e+000
2.198360e+003,0.000000e+000
2.199324e+003,0.000000e+000
2.200288e+003,0.000000e+000
2.201252e+003,0.000000e+000
2.202217e+003,0.000000e+000
2.203181e+003,0.000000e+000
2.204145e+003,0.000000e+000
2.205109e+003,0.000000e+000
2.206074e+003,0.000000e+000
2.207038e+003,0.000000e+000
2.208002e+003,0.000000e+000
2.208966e+003,0.000000e+000
2.209931e+003,0.000000e+000
2.210895e+003,0.000000e+000
2.211859e+003,0.000000e+000
2.212823e+003,0.000000e+000
2.213788e+003,0.000000e+000
2.214752e+003,0.000000e+000
2.215716e+003,0.000000e+000
2.216680e+003,0.000000e+000
2.217645e+003,0.000000e+000
2.218609e+003,0.000000e+000
2.219573e+003,0.000000e+000
2.220537e+003,0.000000e+000
2.221501e+003,0.000000e+000
2.222466e+003,0.000000e+000
2.223430e+003,0.000000e+000
2.224394e+003,0.000000e+000
2.225358e+003,0.000000e+000
2.226323e+003,0.000000e+000
2.227287e+003,0.000000e+000
2.228251e+003,0.000000e+000
2.229215e+003,0.000000e+000
2.230179e+003,0.000000e+000
2.231144e+003,0.000000e+000
2.232108e+003,0.000000e+000
2.233072e+003,0.000000e+000
2.234036e+003,0.000000e+000
2.235001e+003,0.000000e+000
2.235965e+003,0.000000e+000
2.236929e+003,0.000000e+000
2.237893e+003,0.000000e+000
2.238858e+003,0.000000e+000
2.239822e+003,0.000000e+000
2.240786e+003,0.000000e+000
2.241750e+003,0.000000e+000
2.242715e+003,0.000000e+000
2.243679e+003,0.000000e+000
2.244643e+003,0.000000e+000
2.245607e+003,0.000000e+000
2.246572e+003,0.000000e+000
2.247536e+003,0.000000e+000
2.248500e+003,0.000000e+000
2.249464e+003,0.000000e+000
2.250428e+003,0.000000e+000
2.251393e+003,0.000000e+000
2.252357e+003,0.000000e+000
2.253321e+003,0.000000e+000
2.254285e+003,0.000000e+000
2.255250e+003,0.000000e+000
2.256214e+003,0.000000e+000
2.257178e+003,0.000000e+000
2.258142e+003,0.000000e+000
2.259106e+003,0.000000e+000
2.260071e+003,0.000000e+000
2.261035e+003,0.000000e+000
2.261999e+003,0.000000e+000
2.262963e+003,0.000000e+000
2.263928e+003,0.000000e+000
2.264892e+003,0.000000e+000
2.265856e+003,0.000000e+000
2.266820e+003,0.000000e+000
2.267785e+003,0.000000e+000
2.268749e+003,0.000000e+000
2.269713e+003,0.000000e+000
2.270677e+003,0.000000e+000
2.271642e+003,0.000000e+000
2.272606e+003,0.000000e+000
2.273570e+003,0.000000e+000
2.274534e+003,0.000000e+000
2.275499e+003,0.000000e+000
2.276463e+003,0.000000e+000
2.277427e+003,0.000000e+000
2.278391e+003,0.000000e+000
2.279355e+003,0.000000e+000
2.280320e+003,0.000000e+000
2.281284e+003,0.000000e+000
2.282248e+003,0.000000e+000
2.283212e+003,0.000000e+000
2.284177e+003,0.000000e+000
2.285141e+003,0.000000e+000
2.286105e+003,0.000000e+000
2.287069e+003,0.000000e+000
2.288033e+003,0.000000e+000
2.288998e+003,0.000000e+000
2.289962e+003,0.000000e+000
2.290926e+003,0.000000e+000
2.291890e+003,0.000000e+000
2.292855e+003,0.000000e+000
2.293819e+003,0.000000e+000
2.294783e+003,0.000000e+000
2.295747e+003,0.000000e+000
2.296712e+003,0.000000e+000
2.297676e+003,0.000000e+000
2.298640e+003,0.000000e+000
2.299604e+003,0.000000e+000
2.300569e+003,0.000000e+000
2.301533e+003,0.000000e+000
2.302497e+003,0.000000e+000
2.303461e+003,0.000000e+000
2.304426e+003,0.000000e+000
2.305390e+003,0.000000e+000
2.306354e+003,0.000000e+000
2.307318e+003,0.000000e+000
2.308282e+003,0.000000e+000
2.309247e+003,0.000000e+000
2.310211e+003,0.000000e+000
2.311175e+003,0.000000e+000
2.312139e+003,0.000000e+000
2.313104e+003,0.000000e+000
2.314068e+003,0.000000e+000
2.315032e+003,0.000000e+000
2.315996e+003,0.000000e+000
2.316960e+003,0.000000e+000
2.317925e+003,0.000000e+000
2.318889e+003,0.000000e+000
2.319853e+003,0.000000e+000
2.320817e+003,0.000000e+000
2.321782e+003,0.000000e+000
2.322746e+003,0.000000e+000
2.323710e+003,0.000000e+000
2.324674e+003,0.000000e+000
2.325639e+003,0.000000e+000
2.326603e+003,0.000000e+000
2.327567e+003,0.000000e+000
2.328531e+003,0.000000e+000
2.329496e+003,0.000000e+000
2.330460e+003,0.000000e+000
2.331424e+003,0.000000e+000
2.332388e+003,0.000000e+000
2.333353e+003,0.000000e+000
2.334317e+003,0.000000e+000
2.335281e+003,0.000000e+000
2.336245e+003,0.000000e+000
2.337209e+003,0.000000e+000
2.338174e+003,0.000000e+000
2.339138e+003,0.000000e+000
2.340102e+003,0.000000e+000
2.341066e+003,0.000000e+000
2.342031e+003,0.000000e+000
2.342995e+003,0.000000e+000
2.343959e+003,0.000000e+000
2.344923e+003,0.000000e+000
2.345887e+003,0.000000e+000
2.346852e+003,0.000000e+000
2.347816e+003,0.000000e+000
2.348780e+003,0.000000e+000
2.349744e+003,0.000000e+000
2.350709e+003,0.000000e+000
2.351673e+003,0.000000e+000
2.352637e+003,0.000000e+000
2.353601e+003,0.000000e+000
2.354566e+003,0.000000e+000
2.355530e+003,0.000000e+000
2.356494e+003,0.000000e+000
2.357458e+003,0.000000e+000
2.358423e+003,0.000000e+000
2.359387e+003,0.000000e+000
2.360351e+003,0.000000e+000
2.361315e+003,0.000000e+000
2.362280e+003,0.000000e+000
2.363244e+003,0.000000e+000
2.364208e+003,0.000000e+000
2.365172e+003,0.000000e+000
2.366136e+003,0.000000e+000
2.367101e+003,0.000000e+000
2.368065e+003,0.000000e+000
2.369029e+003,0.000000e+000
2.369993e+003,0.000000e+000
2.370958e+003,0.000000e+000
2.371922e+003,0.000000e+000
2.372886e+003,0.000000e+000
2.373850e+003,0.000000e+000
2.374814e+003,0.000000e+000
2.375779e+003,0.000000e+000
2.376743e+003,0.000000e+000
2.377707e+003,0.000000e+000
2.378671e+003,0.000000e+000
2.379636e+003,0.000000e+000
2.380600e+003,0.000000e+000
2.381564e+003,0.000000e+000
2.382528e+003,0.000000e+000
2.383493e+003,0.000000e+000
2.384457e+003,0.000000e+000
2.385421e+003,0.000000e+000
2.386385e+003,0.000000e+000
2.387350e+003,0.000000e+000
2.388314e+003,0.000000e+000
2.389278e+003,0.000000e+000
2.390242e+003,0.000000e+000
2.391207e+003,0.000000e+000
2.392171e+003,0.000000e+000
2.393135e+003,0.000000e+000
2.394099e+003,0.000000e+000
2.395063e+003,0.000000e+000
2.396028e+003,0.000000e+000
2.396992e+003,0.000000e+000
2.397956e+003,0.000000e+000
2.398920e+003,0.000000e+000
2.399885e+003,0.000000e+000
2.400849e+003,0.000000e+000
2.401813e+003,0.000000e+000
2.402777e+003,0.000000e+000
2.403741e+003,0.000000e+000
2.404706e+003,0.000000e+000
2.405670e+003,0.000000e+000
2.406634e+003,0.000000e+000
2.407598e+003,0.000000e+000
2.408563e+003,0.000000e+000
2.409527e+003,0.000000e+000
2.410491e+003,0.000000e+000
2.411455e+003,0.000000e+000
2.412420e+003,0.000000e+000
2.413384e+003,0.000000e+000
2.414348e+003,0.000000e+000
2.415312e+003,0.000000e+000
2.416277e+003,0.000000e+000
2.417241e+003,0.000000e+000
2.418205e+003,0.000000e+000
2.419169e+003,0.000000e+000
2.420134e+003,0.000000e+000
2.421098e+003,0.000000e+000
2.422062e+003,0.000000e+000
2.423026e+003,0.000000e+000
2.423990e+003,0.000000e+000
2.424955e+003,0.000000e+000
2.425919e+003,0.000000e+000
2.426883e+003,0.000000e+000
2.427847e+003,0.000000e+000
2.428812e+003,0.000000e+000
2.429776e+003,0.000000e+000
2.430740e+003,0.000000e+000
2.431704e+003,0.000000e+000
2.432668e+003,0.000000e+000
2.433633e+003,0.000000e+000
2.434597e+003,0.000000e+000
2.435561e+003,0.000000e+000
2.436525e+003,0.000000e+000
2.437490e+003,0.000000e+000
2.438454e+003,0.000000e+000
2.439418e+003,0.000000e+000
2.440382e+003,0.000000e+000
2.441347e+003,0.000000e+000
2.442311e+003,0.000000e+000
2.443275e+003,0.000000e+000
2.444239e+003,0.000000e+000
2.445204e+003,0.000000e+000
2.446168e+003,0.000000e+000
2.447132e+003,0.000000e+000
2.448096e+003,0.000000e+000
2.449061e+003,0.000000e+000
2.450025e+003,0.000000e+000
2.450989e+003,0.000000e+000
2.451953e+003,0.000000e+000
2.452917e+003,0.000000e+000
2.453882e+003,0.000000e+000
2.454846e+003,0.000000e+000
2.455810e+003,0.000000e+000
2.456774e+003,0.000000e+000
2.457739e+003,0.000000e+000
2.458703e+003,0.000000e+000
2.459667e+003,0.000000e+000
2.460631e+003,0.000000e+000
2.461595e+003,0.000000e+000
2.462560e+003,0.000000e+000
2.463524e+003,0.000000e+000
2.464488e+003,0.000000e+000
2.465452e+003,0.000000e+000
2.466417e+003,0.000000e+000
2.467381e+003,0.000000e+000
2.468345e+003,0.000000e+000
2.469309e+003,0.000000e+000
2.470274e+003,0.000000e+000
2.471238e+003,0.000000e+000
2.472202e+003,0.000000e+000
2.473166e+003,0.000000e+000
2.474131e+003,0.000000e+000
2.475095e+003,0.000000e+000
2.476059e+003,0.000000e+000
2.477023e+003,0.000000e+000
2.477988e+003,0.000000e+000
2.478952e+003,0.000000e+000
2.479916e+003,0.000000e+000
2.480880e+003,0.000000e+000
2.481844e+003,0.000000e+000
2.482809e+003,0.000000e+000
2.483773e+003,0.000000e+000
2.484737e+003,0.000000e+000
2.485701e+003,0.000000e+000
2.486666e+003,0.000000e+000
2.487630e+003,0.000000e+000
2.488594e+003,0.000000e+000
2.489558e+003,0.000000e+000
2.490522e+003,0.000000e+000
2.491487e+003,0.000000e+000
2.492451e+003,0.000000e+000
2.493415e+003,0.000000e+000
2.494379e+003,0.000000e+000
2.495344e+003,0.000000e+000
2.496308e+003,0.000000e+000
2.497272e+003,0.000000e+000
2.498236e+003,0.000000e+000
2.499201e+003,0.000000e+000
2.500165e+003,0.000000e+000
2.501129e+003,0.000000e+000
2.502093e+003,0.000000e+000
2.503058e+003,0.000000e+000
2.504022e+003,0.000000e+000
2.504986e+003,0.000000e+000
2.505950e+003,0.000000e+000
2.506915e+003,0.000000e+000
2.507879e+003,0.000000e+000
2.508843e+003,0.000000e+000
2.509807e+003,0.000000e+000
2.510771e+003,0.000000e+000
2.511736e+003,0.000000e+000
2.512700e+003,0.000000e+000
2.513664e+003,0.000000e+000
2.514628e+003,0.000000e+000
2.515593e+003,0.000000e+000
2.516557e+003,0.000000e+000
2.517521e+003,0.000000e+000
2.518485e+003,0.000000e+000
2.519449e+003,0.000000e+000
2.520414e+003,0.000000e+000
2.521378e+003,0.000000e+000
2.522342e+003,0.000000e+000
2.523306e+003,0.000000e+000
2.524271e+003,0.000000e+000
2.525235e+003,0.000000e+000
2.526199e+003,0.000000e+000
2.527163e+003,0.000000e+000
2.528128e+003,0.000000e+000
2.529092e+003,0.000000e+000
2.530056e+003,0.000000e+000
2.531020e+003,0.000000e+000
2.531985e+003,0.000000e+000
2.532949e+003,0.000000e+000
2.533913e+003,0.000000e+000
2.534877e+003,0.000000e+000
2.535842e+003,0.000000e+000
2.536806e+003,0.000000e+000
2.537770e+003,0.000000e+000
2.538734e+003,0.000000e+000
2.539698e+003,0.000000e+000
2.540663e+003,0.000000e+000
2.541627e+003,0.000000e+000
2.542591e+003,0.000000e+000
2.543555e+003,0.000000e+000
2.544520e+003,0.000000e+000
2.545484e+003,0.000000e+000
2.546448e+003,0.000000e+000
2.547412e+003,0.000000e+000
2.548376e+003,0.000000e+000
2.549341e+003,0.000000e+000
2.550305e+003,0.000000e+000
2.551269e+003,0.000000e+000
2.552233e+003,0.000000e+000
2.553198e+003,0.000000e+000
2.554162e+003,0.000000e+000
2.555126e+003,0.000000e+000
2.556090e+003,0.000000e+000
2.557055e+003,0.000000e+000
2.558019e+003,0.000000e+000
2.558983e+003,0.000000e+000
2.559947e+003,0.000000e+000
2.560912e+003,0.000000e+000
2.561876e+003,0.000000e+000
2.562840e+003,0.000000e+000
2.563804e+003,0.000000e+000
2.564769e+003,0.000000e+000
2.565733e+003,0.000000e+000
2.566697e+003,0.000000e+000
2.567661e+003,0.000000e+000
2.568625e+003,0.000000e+000
2.569590e+003,0.000000e+000
2.570554e+003,0.000000e+000
2.571518e+003,0.000000e+000
2.572482e+003,0.000000e+000
2.573447e+003,0.000000e+000
2.574411e+003,0.000000e+000
2.575375e+003,0.000000e+000
2.576339e+003,0.000000e+000
2.577303e+003,0.000000e+000
2.578268e+003,0.000000e+000
2.579232e+003,0.000000e+000
2.580196e+003,0.000000e+000
2.581160e+003,0.000000e+000
2.582125e+003,0.000000e+000
2.583089e+003,0.000000e+000
2.584053e+003,0.000000e+000
2.585017e+003,0.000000e+000
2.585982e+003,0.000000e+000
2.586946e+003,0.000000e+000
2.587910e+003,0.000000e+000
2.588874e+003,0.000000e+000
2.589839e+003,0.000000e+000
2.590803e+003,0.000000e+000
2.591767e+003,0.000000e+000
2.592731e+003,0.000000e+000
2.593696e+003,0.000000e+000
2.594660e+003,0.000000e+000
2.595624e+003,0.000000e+000
2.596588e+003,0.000000e+000
2.597552e+003,0.000000e+000
2.598517e+003,0.000000e+000
2.599481e+003,0.000000e+000
2.600445e+003,0.000000e+000
2.601409e+003,0.000000e+000
2.602374e+003,0.000000e+000
2.603338e+003,0.000000e+000
2.604302e+003,0.000000e+000
2.605266e+003,0.000000e+000
2.606230e+003,0.000000e+000
2.607195e+003,0.000000e+000
2.608159e+003,0.000000e+000
2.609123e+003,0.000000e+000
2.610087e+003,0.000000e+000
2.611052e+003,0.000000e+000
2.612016e+003,0.000000e+000
2.612980e+003,0.000000e+000
2.613944e+003,0.000000e+000
2.614909e+003,0.000000e+000
2.615873e+003,0.000000e+000
2.616837e+003,0.000000e+000
2.617801e+003,0.000000e+000
2.618766e+003,0.000000e+000
2.619730e+003,0.000000e+000
2.620694e+003,0.000000e+000
2.621658e+003,0.000000e+000
2.622623e+003,0.000000e+000
2.623587e+003,0.000000e+000
2.624551e+003,0.000000e+000
2.625515e+003,0.000000e+000
2.626479e+003,0.000000e+000
2.627444e+003,0.000000e+000
2.628408e+003,0.000000e+000
2.629372e+003,0.000000e+000
2.630336e+003,0.000000e+000
2.631301e+003,0.000000e+000
2.632265e+003,0.000000e+000
2.633229e+003,0.000000e+000
2.634193e+003,0.000000e+000
2.635157e+003,0.000000e+000
2.636122e+003,0.000000e+000
2.637086e+003,0.000000e+000
2.638050e+003,0.000000e+000
2.639014e+003,0.000000e+000
2.639979e+003,0.000000e+000
2.640943e+003,0.000000e+000
2.641907e+003,0.000000e+000
2.642871e+003,0.000000e+000
2.643836e+003,0.000000e+000
2.644800e+003,0.000000e+000
2.645764e+003,0.000000e+000
2.646728e+003,0.000000e+000
2.647693e+003,0.000000e+000
2.648657e+003,0.000000e+000
2.649621e+003,0.000000e+000
2.650585e+003,0.000000e+000
2.651550e+003,0.000000e+000
2.652514e+003,0.000000e+000
2.653478e+003,0.000000e+000
2.654442e+003,0.000000e+000
2.655406e+003,0.000000e+000
2.656371e+003,0.000000e+000
2.657335e+003,0.000000e+000
2.658299e+003,0.000000e+000
2.659263e+003,0.000000e+000
2.660228e+003,0.000000e+000
2.661192e+003,0.000000e+000
2.662156e+003,0.000000e+000
2.663120e+003,0.000000e+000
2.664084e+003,0.000000e+000
2.665049e+003,0.000000e+000
2.666013e+003,0.000000e+000
2.666977e+003,0.000000e+000
2.667941e+003,0.000000e+000
2.668906e+003,0.000000e+000
2.669870e+003,0.000000e+000
2.670834e+003,0.000000e+000
2.671798e+003,0.000000e+000
2.672763e+003,0.000000e+000
2.673727e+003,0.000000e+000
2.674691e+003,0.000000e+000
2.675655e+003,0.000000e+000
2.676620e+003,0.000000e+000
2.677584e+003,0.000000e+000
2.678548e+003,0.000000e+000
2.679512e+003,0.000000e+000
2.680477e+003,0.000000e+000
2.681441e+003,0.000000e+000
2.682405e+003,0.000000e+000
2.683369e+003,0.000000e+000
2.684333e+003,0.000000e+000
2.685298e+003,0.000000e+000
2.686262e+003,0.000000e+000
2.687226e+003,0.000000e+000
2.688190e+003,0.000000e+000
2.689155e+003,0.000000e+000
2.690119e+003,0.000000e+000
2.691083e+003,0.000000e+000
2.692047e+003,0.000000e+000
2.693011e+003,0.000000e+000
2.693976e+003,0.000000e+000
2.694940e+003,0.000000e+000
2.695904e+003,0.000000e+000
2.696868e+003,0.000000e+000
2.697833e+003,0.000000e+000
2.698797e+003,0.000000e+000
2.699761e+003,0.000000e+000
2.700725e+003,0.000000e+000
2.701690e+003,0.000000e+000
2.702654e+003,0.000000e+000
2.703618e+003,0.000000e+000
2.704582e+003,0.000000e+000
2.705547e+003,0.000000e+000
2.706511e+003,0.000000e+000
2.707475e+003,0.000000e+000
2.708439e+003,0.000000e+000
2.709404e+003,0.000000e+000
2.710368e+003,0.000000e+000
2.711332e+003,0.000000e+000
2.712296e+003,0.000000e+000
2.713260e+003,0.000000e+000
2.714225e+003,0.000000e+000
2.715189e+003,0.000000e+000
2.716153e+003,0.000000e+000
2.717117e+003,0.000000e+000
2.718082e+003,0.000000e+000
2.719046e+003,0.000000e+000
2.720010e+003,0.000000e+000
2.720974e+003,0.000000e+000
2.721938e+003,0.000000e+000
2.722903e+003,0.000000e+000
2.723867e+003,0.000000e+000
2.724831e+003,0.000000e+000
2.725795e+003,0.000000e+000
2.726760e+003,0.000000e+000
2.727724e+003,0.000000e+000
2.728688e+003,0.000000e+000
2.729652e+003,0.000000e+000
2.730617e+003,0.000000e+000
2.731581e+003,0.000000e+000
2.732545e+003,0.000000e+000
2.733509e+003,0.000000e+000
2.734474e+003,0.000000e+000
2.735438e+003,0.000000e+000
2.736402e+003,0.000000e+000
2.737366e+003,0.000000e+000
2.738331e+003,0.000000e+000
2.739295e+003,0.000000e+000
2.740259e+003,0.000000e+000
2.741223e+003,0.000000e+000
2.742188e+003,0.000000e+000
2.743152e+003,0.000000e+000
2.744116e+003,0.000000e+000
2.745080e+003,0.000000e+000
2.746044e+003,0.000000e+000
2.747009e+003,0.000000e+000
2.747973e+003,0.000000e+000
2.748937e+003,0.000000e+000
2.749901e+003,0.000000e+000
2.750865e+003,0.000000e+000
2.751830e+003,0.000000e+000
2.752794e+003,0.000000e+000
2.753758e+003,0.000000e+000
2.754722e+003,0.000000e+000
2.755687e+003,0.000000e+000
2.756651e+003,0.000000e+000
2.757615e+003,0.000000e+000
2.758579e+003,0.000000e+000
2.759544e+003,0.000000e+000
2.760508e+003,0.000000e+000
2.761472e+003,0.000000e+000
2.762436e+003,0.000000e+000
2.763401e+003,0.000000e+000
2.764365e+003,0.000000e+000
2.765329e+003,0.000000e+000
2.766293e+003,0.000000e+000
2.767258e+003,0.000000e+000
2.768222e+003,0.000000e+000
2.769186e+003,0.000000e+000
2.770150e+003,0.000000e+000
2.771115e+003,0.000000e+000
2.772079e+003,0.000000e+000
2.773043e+003,0.000000e+000
2.774007e+003,0.000000e+000
2.774971e+003,0.000000e+000
2.775936e+003,0.000000e+000
2.776900e+003,0.000000e+000
2.777864e+003,0.000000e+000
2.778828e+003,0.000000e+000
2.779792e+003,0.000000e+000
2.780757e+003,0.000000e+000
2.781721e+003,0.000000e+000
2.782685e+003,0.000000e+000
2.783649e+003,0.000000e+000
2.784614e+003,0.000000e+000
2.785578e+003,0.000000e+000
2.786542e+003,0.000000e+000
2.787506e+003,0.000000e+000
2.788471e+003,0.000000e+000
2.789435e+003,0.000000e+000
2.790399e+003,0.000000e+000
2.791363e+003,0.000000e+000
2.792328e+003,0.000000e+000
2.793292e+003,0.000000e+000
2.794256e+003,0.000000e+000
2.795220e+003,0.000000e+000
2.796185e+003,0.000000e+000
2.797149e+003,0.000000e+000
2.798113e+003,0.000000e+000
2.799077e+003,0.000000e+000
2.800042e+003,0.000000e+000
2.801006e+003,0.000000e+000
2.801970e+003,0.000000e+000
2.802934e+003,0.000000e+000
2.803898e+003,0.000000e+000
2.804863e+003,0.000000e+000
2.805827e+003,0.000000e+000
2.806791e+003,0.000000e+000
2.807755e+003,0.000000e+000
2.808719e+003,0.000000e+000
2.809684e+003,0.000000e+000
2.810648e+003,0.000000e+000
2.811612e+003,0.000000e+000
2.812576e+003,0.000000e+000
2.813541e+003,0.000000e+000
2.814505e+003,0.000000e+000
2.815469e+003,0.000000e+000
2.816433e+003,0.000000e+000
2.817398e+003,0.000000e+000
2.818362e+003,0.000000e+000
2.819326e+003,0.000000e+000
2.820290e+003,0.000000e+000
2.821255e+003,0.000000e+000
2.822219e+003,0.000000e+000
2.823183e+003,0.000000e+000
2.824147e+003,0.000000e+000
2.825112e+003,0.000000e+000
2.826076e+003,0.000000e+000
2.827040e+003,0.000000e+000
2.828004e+003,0.000000e+000
2.828969e+003,0.000000e+000
2.829933e+003,0.000000e+000
2.830897e+003,0.000000e+000
2.831861e+003,0.000000e+000
2.832825e+003,0.000000e+000
2.833790e+003,0.000000e+000
2.834754e+003,0.000000e+000
2.835718e+003,0.000000e+000
2.836682e+003,0.000000e+000
2.837646e+003,0.000000e+000
2.838611e+003,0.000000e+000
2.839575e+003,0.000000e+000
2.840539e+003,0.000000e+000
2.841503e+003,0.000000e+000
2.842468e+003,0.000000e+000
2.843432e+003,0.000000e+000
2.844396e+003,0.000000e+000
2.845360e+003,0.000000e+000
2.846325e+003,0.000000e+000
2.847289e+003,0.000000e+000
2.848253e+003,0.000000e+000
2.849217e+003,0.000000e+000
2.850182e+003,0.000000e+000
2.851146e+003,0.000000e+000
2.852110e+003,0.000000e+000
2.853074e+003,0.000000e+000
2.854039e+003,0.000000e+000
2.855003e+003,0.000000e+000
2.855967e+003,0.000000e+000
2.856931e+003,0.000000e+000
2.857896e+003,0.000000e+000
2.858860e+003,0.000000e+000
2.859824e+003,0.000000e+000
2.860788e+003,0.000000e+000
2.861752e+003,0.000000e+000
2.862717e+003,0.000000e+000
2.863681e+003,0.000000e+000
2.864645e+003,0.000000e+000
2.865609e+003,0.000000e+000
2.866573e+003,0.000000e+000
2.867538e+003,0.000000e+000
2.868502e+003,0.000000e+000
2.869466e+003,0.000000e+000
2.870430e+003,0.000000e+000
2.871395e+003,0.000000e+000
2.872359e+003,0.000000e+000
2.873323e+003,0.000000e+000
2.874287e+003,0.000000e+000
2.875252e+003,0.000000e+000
2.876216e+003,0.000000e+000
2.877180e+003,0.000000e+000
2.878144e+003,0.000000e+000
2.879109e+003,0.000000e+000
2.880073e+003,0.000000e+000
2.881037e+003,0.000000e+000
2.882001e+003,0.000000e+000
2.882966e+003,0.000000e+000
2.883930e+003,0.000000e+000
2.884894e+003,0.000000e+000
2.885858e+003,0.000000e+000
2.886823e+003,0.000000e+000
2.887787e+003,0.000000e+000
2.888751e+003,0.000000e+000
2.889715e+003,0.000000e+000
2.890679e+003,0.000000e+000
2.891644e+003,0.000000e+000
2.892608e+003,0.000000e+000
2.893572e+003,0.000000e+000
2.894536e+003,0.000000e+000
2.895500e+003,0.000000e+000
2.896465e+003,0.000000e+000
2.897429e+003,0.000000e+000
2.898393e+003,0.000000e+000
2.899357e+003,0.000000e+000
2.900322e+003,0.000000e+000
2.901286e+003,0.000000e+000
2.902250e+003,0.000000e+000
2.903214e+003,0.000000e+000
2.904179e+003,0.000000e+000
2.905143e+003,0.000000e+000
2.906107e+003,0.000000e+000
2.907071e+003,0.000000e+000
2.908036e+003,0.000000e+000
2.909000e+003,0.000000e+000
2.909964e+003,0.000000e+000
2.910928e+003,0.000000e+000
2.911893e+003,0.000000e+000
2.912857e+003,0.000000e+000
2.913821e+003,0.000000e+000
2.914785e+003,0.000000e+000
2.915750e+003,0.000000e+000
2.916714e+003,0.000000e+000
2.917678e+003,0.000000e+000
2.918642e+003,0.000000e+000
2.919606e+003,0.000000e+000
2.920571e+003,0.000000e+000
2.921535e+003,0.000000e+000
2.922499e+003,0.000000e+000
2.923463e+003,0.000000e+000
2.924427e+003,0.000000e+000
2.925392e+003,0.000000e+000
2.926356e+003,0.000000e+000
2.927320e+003,0.000000e+000
2.928284e+003,0.000000e+000
2.929249e+003,0.000000e+000
2.930213e+003,0.000000e+000
2.931177e+003,0.000000e+000
2.932141e+003,0.000000e+000
2.933106e+003,0.000000e+000
2.934070e+003,0.000000e+000
2.935034e+003,0.000000e+000
2.935998e+003,0.000000e+000
2.936963e+003,0.000000e+000
2.937927e+003,0.000000e+000
2.938891e+003,0.000000e+000
2.939855e+003,0.000000e+000
2.940820e+003,0.000000e+000
2.941784e+003,0.000000e+000
2.942748e+003,0.000000e+000
2.943712e+003,0.000000e+000
2.944677e+003,0.000000e+000
2.945641e+003,0.000000e+000
2.946605e+003,0.000000e+000
2.947569e+003,0.000000e+000
2.948533e+003,0.000000e+000
2.949498e+003,0.000000e+000
2.950462e+003,0.000000e+000
2.951426e+003,0.000000e+000
2.952390e+003,0.000000e+000
2.953354e+003,0.000000e+000
2.954319e+003,0.000000e+000
2.955283e+003,0.000000e+000
2.956247e+003,0.000000e+000
2.957211e+003,0.000000e+000
2.958176e+003,0.000000e+000
2.959140e+003,0.000000e+000
2.960104e+003,0.000000e+000
2.961068e+003,0.000000e+000
2.962033e+003,0.000000e+000
2.962997e+003,0.000000e+000
2.963961e+003,0.000000e+000
2.964925e+003,0.000000e+000
2.965890e+003,0.000000e+000
2.966854e+003,0.000000e+000
2.967818e+003,0.000000e+000
2.968782e+003,0.000000e+000
2.969747e+003,0.000000e+000
2.970711e+003,0.000000e+000
2.971675e+003,0.000000e+000
2.972639e+003,0.000000e+000
2.973604e+003,0.000000e+000
2.974568e+003,0.000000e+000
2.975532e+003,0.000000e+000
2.976496e+003,0.000000e+000
2.977460e+003,0.000000e+000
2.978425e+003,0.000000e+000
2.979389e+003,0.000000e+000
2.980353e+003,0.000000e+000
2.981317e+003,0.000000e+000
2.982281e+003,0.000000e+000
2.983246e+003,0.000000e+000
2.984210e+003,0.000000e+000
2.985174e+003,0.000000e+000
2.986138e+003,0.000000e+000
2.987103e+003,0.000000e+000
2.988067e+003,0.000000e+000
2.989031e+003,0.000000e+000
2.989995e+003,0.000000e+000
2.990960e+003,0.000000e+000
2.991924e+003,0.000000e+000
2.992888e+003,0.000000e+000
2.993852e+003,0.000000e+000
2.994817e+003,0.000000e+000
2.995781e+003,0.000000e+000
2.996745e+003,0.000000e+000
2.997709e+003,0.000000e+000
2.998674e+003,0.000000e+000
2.999638e+003,0.000000e+000
3.000602e+003,0.000000e+000
3.001566e+003,0.000000e+000
3.002531e+003,0.000000e+000
3.003495e+003,0.000000e+000
3.004459e+003,0.000000e+000
3.005423e+003,0.000000e+000
3.006387e+003,0.000000e+000
3.007352e+003,0.000000e+000
3.008316e+003,0.000000e+000
3.009280e+003,0.000000e+000
3.010244e+003,0.000000e+000
3.011208e+003,0.000000e+000
3.012173e+003,0.000000e+000
3.013137e+003,0.000000e+000
3.014101e+003,0.000000e+000
3.015065e+003,0.000000e+000
3.016030e+003,0.000000e+000
3.016994e+003,0.000000e+000
3.017958e+003,0.000000e+000
3.018922e+003,0.000000e+000
3.019887e+003,0.000000e+000
3.020851e+003,0.000000e+000
3.021815e+003,0.000000e+000
3.022779e+003,0.000000e+000
3.023744e+003,0.000000e+000
3.024708e+003,0.000000e+000
3.025672e+003,0.000000e+000
3.026636e+003,0.000000e+000
3.027601e+003,0.000000e+000
3.028565e+003,0.000000e+000
3.029529e+003,0.000000e+000
3.030493e+003,0.000000e+000
3.031458e+003,0.000000e+000
3.032422e+003,0.000000e+000
3.033386e+003,0.000000e+000
3.034350e+003,0.000000e+000
3.035314e+003,0.000000e+000
3.036279e+003,0.000000e+000
3.037243e+003,0.000000e+000
3.038207e+003,0.000000e+000
3.039171e+003,0.000000e+000
3.040135e+003,0.000000e+000
3.041100e+003,0.000000e+000
3.042064e+003,0.000000e+000
3.043028e+003,0.000000e+000
3.043992e+003,0.000000e+000
3.044957e+003,0.000000e+000
3.045921e+003,0.000000e+000
3.046885e+003,0.000000e+000
3.047849e+003,0.000000e+000
3.048814e+003,0.000000e+000
3.049778e+003,0.000000e+000
3.050742e+003,0.000000e+000
3.051706e+003,0.000000e+000
3.052671e+003,0.000000e+000
3.053635e+003,0.000000e+000
3.054599e+003,0.000000e+000
3.055563e+003,0.000000e+000
3.056528e+003,0.000000e+000
3.057492e+003,0.000000e+000
3.058456e+003,0.000000e+000
3.059420e+003,0.000000e+000
3.060385e+003,0.000000e+000
3.061349e+003,0.000000e+000
3.062313e+003,0.000000e+000
3.063277e+003,0.000000e+000
3.064241e+003,0.000000e+000
3.065206e+003,0.000000e+000
3.066170e+003,0.000000e+000
3.067134e+003,0.000000e+000
3.068098e+003,0.000000e+000
3.069063e+003,0.000000e+000
3.070027e+003,0.000000e+000
3.070991e+003,0.000000e+000
3.071955e+003,0.000000e+000
3.072920e+003,0.000000e+000
3.073884e+003,0.000000e+000
3.074848e+003,0.000000e+000
3.075812e+003,0.000000e+000
3.076777e+003,0.000000e+000
3.077741e+003,0.000000e+000
3.078705e+003,0.000000e+000
3.079669e+003,0.000000e+000
3.080634e+003,0.000000e+000
3.081598e+003,0.000000e+000
3.082562e+003,0.000000e+000
3.083526e+003,0.000000e+000
3.084490e+003,0.000000e+000
3.085455e+003,0.000000e+000
3.086419e+003,0.000000e+000
3.087383e+003,0.000000e+000
3.088347e+003,0.000000e+000
3.089312e+003,0.000000e+000
3.090276e+003,0.000000e+000
3.091240e+003,0.000000e+000
3.092204e+003,0.000000e+000
3.093168e+003,0.000000e+000
3.094133e+003,0.000000e+000
3.095097e+003,0.000000e+000
3.096061e+003,0.000000e+000
3.097025e+003,0.000000e+000
3.097990e+003,0.000000e+000
3.098954e+003,0.000000e+000
3.099918e+003,0.000000e+000
3.100882e+003,0.000000e+000
3.101847e+003,0.000000e+000
3.102811e+003,0.000000e+000
3.103775e+003,0.000000e+000
3.104739e+003,0.000000e+000
3.105704e+003,0.000000e+000
3.106668e+003,0.000000e+000
3.107632e+003,0.000000e+000
3.108596e+003,0.000000e+000
3.109561e+003,0.000000e+000
3.110525e+003,0.000000e+000
3.111489e+003,0.000000e+000
3.112453e+003,0.000000e+000
3.113417e+003,0.000000e+000
3.114382e+003,0.000000e+000
3.115346e+003,0.000000e+000
3.116310e+003,0.000000e+000
3.117274e+003,0.000000e+000
3.118239e+003,0.000000e+000
3.119203e+003,0.000000e+000
3.120167e+003,0.000000e+000
3.121131e+003,0.000000e+000
3.122095e+003,0.000000e+000
3.123060e+003,0.000000e+000
3.124024e+003,0.000000e+000
3.124988e+003,0.000000e+000
3.125952e+003,0.000000e+000
3.126917e+003,0.000000e+000
3.127881e+003,0.000000e+000
3.128845e+003,0.000000e+000
3.129809e+003,0.000000e+000
3.130774e+003,0.000000e+000
3.131738e+003,0.000000e+000
3.132702e+003,0.000000e+000
3.133666e+003,0.000000e+000
3.134631e+003,0.000000e+000
3.135595e+003,0.000000e+000
3.136559e+003,0.000000e+000
3.137523e+003,0.000000e+000
3.138488e+003,0.000000e+000
3.139452e+003,0.000000e+000
3.140416e+003,0.000000e+000
3.141380e+003,0.000000e+000
3.142344e+003,0.000000e+000
3.143309e+003,0.000000e+000
3.144273e+003,0.000000e+000
3.145237e+003,0.000000e+000
3.146201e+003,0.000000e+000
3.147166e+003,0.000000e+000
3.148130e+003,0.000000e+000
3.149094e+003,0.000000e+000
3.150058e+003,0.000000e+000
3.151022e+003,0.000000e+000
3.151987e+003,0.000000e+000
3.152951e+003,0.000000e+000
3.153915e+003,0.000000e+000
3.154879e+003,0.000000e+000
3.155844e+003,0.000000e+000
3.156808e+003,0.000000e+000
3.157772e+003,0.000000e+000
3.158736e+003,0.000000e+000
3.159701e+003,0.000000e+000
3.160665e+003,0.000000e+000
3.161629e+003,0.000000e+000
3.162593e+003,0.000000e+000
3.163558e+003,0.000000e+000
3.164522e+003,0.000000e+000
3.165486e+003,0.000000e+000
3.166450e+003,0.000000e+000
3.167415e+003,0.000000e+000
3.168379e+003,0.000000e+000
3.169343e+003,0.000000e+000
3.170307e+003,0.000000e+000
3.171271e+003,0.000000e+000
3.172236e+003,0.000000e+000
3.173200e+003,0.000000e+000
3.174164e+003,0.000000e+000
3.175128e+003,0.000000e+000
3.176093e+003,0.000000e+000
3.177057e+003,0.000000e+000
3.178021e+003,0.000000e+000
3.178985e+003,0.000000e+000
3.179949e+003,0.000000e+000
3.180914e+003,0.000000e+000
3.181878e+003,0.000000e+000
3.182842e+003,0.000000e+000
3.183806e+003,0.000000e+000
3.184771e+003,0.000000e+000
3.185735e+003,0.000000e+000
3.186699e+003,0.000000e+000
3.187663e+003,0.000000e+000
3.188628e+003,0.000000e+000
3.189592e+003,0.000000e+000
3.190556e+003,0.000000e+000
3.191520e+003,0.000000e+000
3.192485e+003,0.000000e+000
3.193449e+003,0.000000e+000
3.194413e+003,0.000000e+000
3.195377e+003,0.000000e+000
3.196342e+003,0.000000e+000
3.197306e+003,0.000000e+000
3.198270e+003,0.000000e+000
3.199234e+003,0.000000e+000
3.200198e+003,0.000000e+000
3.201163e+003,0.000000e+000
3.202127e+003,0.000000e+000
3.203091e+003,0.000000e+000
3.204055e+003,0.000000e+000
3.205020e+003,0.000000e+000
3.205984e+003,0.000000e+000
3.206948e+003,0.000000e+000
3.207912e+003,0.000000e+000
3.208876e+003,0.000000e+000
3.209841e+003,0.000000e+000
3.210805e+003,0.000000e+000
3.211769e+003,0.000000e+000
3.212733e+003,0.000000e+000
3.213698e+003,0.000000e+000
3.214662e+003,0.000000e+000
3.215626e+003,0.000000e+000
3.216590e+003,0.000000e+000
3.217555e+003,0.000000e+000
3.218519e+003,0.000000e+000
3.219483e+003,0.000000e+000
3.220447e+003,0.000000e+000
3.221412e+003,0.000000e+000
3.222376e+003,0.000000e+000
3.223340e+003,0.000000e+000
3.224304e+003,0.000000e+000
3.225269e+003,0.000000e+000
3.226233e+003,0.000000e+000
3.227197e+003,0.000000e+000
3.228161e+003,0.000000e+000
3.229125e+003,0.000000e+000
3.230090e+003,0.000000e+000
3.231054e+003,0.000000e+000
3.232018e+003,0.000000e+000
3.232982e+003,0.000000e+000
3.233947e+003,0.000000e+000
3.234911e+003,0.000000e+000
3.235875e+003,0.000000e+000
3.236839e+003,0.000000e+000
3.237803e+003,0.000000e+000
3.238768e+003,0.000000e+000
3.239732e+003,0.000000e+000
3.240696e+003,0.000000e+000
3.241660e+003,0.000000e+000
3.242625e+003,0.000000e+000
3.243589e+003,0.000000e+000
3.244553e+003,0.000000e+000
3.245517e+003,0.000000e+000
3.246482e+003,0.000000e+000
3.247446e+003,0.000000e+000
3.248410e+003,0.000000e+000
3.249374e+003,0.000000e+000
3.250339e+003,0.000000e+000
3.251303e+003,0.000000e+000
3.252267e+003,0.000000e+000
3.253231e+003,0.000000e+000
3.254196e+003,0.000000e+000
3.255160e+003,0.000000e+000
3.256124e+003,0.000000e+000
3.257088e+003,0.000000e+000
3.258052e+003,0.000000e+000
3.259017e+003,0.000000e+000
3.259981e+003,0.000000e+000
3.260945e+003,0.000000e+000
3.261909e+003,0.000000e+000
3.262874e+003,0.000000e+000
3.263838e+003,0.000000e+000
3.264802e+003,0.000000e+000
3.265766e+003,0.000000e+000
3.266730e+003,0.000000e+000
3.267695e+003,0.000000e+000
3.268659e+003,0.000000e+000
3.269623e+003,0.000000e+000
3.270587e+003,0.000000e+000
3.271552e+003,0.000000e+000
3.272516e+003,0.000000e+000
3.273480e+003,0.000000e+000
3.274444e+003,0.000000e+000
3.275409e+003,0.000000e+000
3.276373e+003,0.000000e+000
3.277337e+003,0.000000e+000
3.278301e+003,0.000000e+000
3.279266e+003,0.000000e+000
3.280230e+003,0.000000e+000
3.281194e+003,0.000000e+000
3.282158e+003,0.000000e+000
3.283123e+003,0.000000e+000
3.284087e+003,0.000000e+000
3.285051e+003,0.000000e+000
3.286015e+003,0.000000e+000
3.286979e+003,0.000000e+000
3.287944e+003,0.000000e+000
3.288908e+003,0.000000e+000
3.289872e+003,0.000000e+000
3.290836e+003,0.000000e+000
3.291801e+003,0.000000e+000
3.292765e+003,0.000000e+000
3.293729e+003,0.000000e+000
3.294693e+003,0.000000e+000
3.295657e+003,0.000000e+000
3.296622e+003,0.000000e+000
3.297586e+003,0.000000e+000
3.298550e+003,0.000000e+000
3.299514e+003,0.000000e+000
3.300479e+003,0.000000e+000
3.301443e+003,0.000000e+000
3.302407e+003,0.000000e+000
3.303371e+003,0.000000e+000
3.304336e+003,0.000000e+000
3.305300e+003,0.000000e+000
3.306264e+003,0.000000e+000
3.307228e+003,0.000000e+000
3.308193e+003,0.000000e+000
3.309157e+003,0.000000e+000
3.310121e+003,0.000000e+000
3.311085e+003,0.000000e+000
3.312050e+003,0.000000e+000
3.313014e+003,0.000000e+000
3.313978e+003,0.000000e+000
3.314942e+003,0.000000e+000
3.315906e+003,0.000000e+000
3.316871e+003,0.000000e+000
3.317835e+003,0.000000e+000
3.318799e+003,0.000000e+000
3.319763e+003,0.000000e+000
3.320728e+003,0.000000e+000
3.321692e+003,0.000000e+000
3.322656e+003,0.000000e+000
3.323620e+003,0.000000e+000
3.324584e+003,0.000000e+000
3.325549e+003,0.000000e+000
3.326513e+003,0.000000e+000
3.327477e+003,0.000000e+000
3.328441e+003,0.000000e+000
3.329406e+003,0.000000e+000
3.330370e+003,0.000000e+000
3.331334e+003,0.000000e+000
3.332298e+003,0.000000e+000
3.333263e+003,0.000000e+000
3.334227e+003,0.000000e+000
3.335191e+003,0.000000e+000
3.336155e+003,0.000000e+000
3.337120e+003,0.000000e+000
3.338084e+003,0.000000e+000
3.339048e+003,0.000000e+000
3.340012e+003,0.000000e+000
3.340977e+003,0.000000e+000
3.341941e+003,0.000000e+000
3.342905e+003,0.000000e+000
3.343869e+003,0.000000e+000
3.344833e+003,0.000000e+000
3.345798e+003,0.000000e+000
3.346762e+003,0.000000e+000
3.347726e+003,0.000000e+000
3.348690e+003,0.000000e+000
3.349655e+003,0.000000e+000
3.350619e+003,0.000000e+000
3.351583e+003,0.000000e+000
3.352547e+003,0.000000e+000
3.353511e+003,0.000000e+000
3.354476e+003,0.000000e+000
3.355440e+003,0.000000e+000
3.356404e+003,0.000000e+000
3.357368e+003,0.000000e+000
3.358333e+003,0.000000e+000
3.359297e+003,0.000000e+000
3.360261e+003,0.000000e+000
3.361225e+003,0.000000e+000
3.362190e+003,0.000000e+000
3.363154e+003,0.000000e+000
3.364118e+003,0.000000e+000
3.365082e+003,0.000000e+000
3.366047e+003,0.000000e+000
3.367011e+003,0.000000e+000
3.367975e+003,0.000000e+000
3.368939e+003,0.000000e+000
3.369904e+003,0.000000e+000
3.370868e+003,0.000000e+000
3.371832e+003,0.000000e+000
3.372796e+003,0.000000e+000
3.373760e+003,0.000000e+000
3.374725e+003,0.000000e+000
3.375689e+003,0.000000e+000
3.376653e+003,0.000000e+000
3.377617e+003,0.000000e+000
3.378582e+003,0.000000e+000
3.379546e+003,0.000000e+000
3.380510e+003,0.000000e+000
3.381474e+003,0.000000e+000
3.382438e+003,0.000000e+000
3.383403e+003,0.000000e+000
3.384367e+003,0.000000e+000
3.385331e+003,0.000000e+000
3.386295e+003,0.000000e+000
3.387260e+003,0.000000e+000
3.388224e+003,0.000000e+000
3.389188e+003,0.000000e+000
3.390152e+003,0.000000e+000
3.391117e+003,0.000000e+000
3.392081e+003,0.000000e+000
3.393045e+003,0.000000e+000
3.394009e+003,0.000000e+000
3.394974e+003,0.000000e+000
3.395938e+003,0.000000e+000
3.396902e+003,0.000000e+000
3.397866e+003,0.000000e+000
3.398831e+003,0.000000e+000
3.399795e+003,0.000000e+000
3.400759e+003,0.000000e+000
3.401723e+003,0.000000e+000
3.402688e+003,0.000000e+000
3.403652e+003,0.000000e+000
3.404616e+003,0.000000e+000
3.405580e+003,0.000000e+000
3.406544e+003,0.000000e+000
3.407509e+003,0.000000e+000
3.408473e+003,0.000000e+000
3.409437e+003,0.000000e+000
3.410401e+003,0.000000e+000
3.411365e+003,0.000000e+000
3.412330e+003,0.000000e+000
3.413294e+003,0.000000e+000
3.414258e+003,0.000000e+000
3.415222e+003,0.000000e+000
3.416187e+003,0.000000e+000
3.417151e+003,0.000000e+000
3.418115e+003,0.000000e+000
3.419079e+003,0.000000e+000
3.420044e+003,0.000000e+000
3.421008e+003,0.000000e+000
3.421972e+003,0.000000e+000
3.422936e+003,0.000000e+000
3.423901e+003,0.000000e+000
3.424865e+003,0.000000e+000
3.425829e+003,0.000000e+000
3.426793e+003,0.000000e+000
3.427758e+003,0.000000e+000
3.428722e+003,0.000000e+000
3.429686e+003,0.000000e+000
3.430650e+003,0.000000e+000
3.431615e+003,0.000000e+000
3.432579e+003,0.000000e+000
3.433543e+003,0.000000e+000
3.434507e+003,0.000000e+000
3.435471e+003,0.000000e+000
3.436436e+003,0.000000e+000
3.437400e+003,0.000000e+000
3.438364e+003,0.000000e+000
3.439328e+003,0.000000e+000
3.440292e+003,0.000000e+000
3.441257e+003,0.000000e+000
3.442221e+003,0.000000e+000
3.443185e+003,0.000000e+000
3.444149e+003,0.000000e+000
3.445114e+003,0.000000e+000
3.446078e+003,0.000000e+000
3.447042e+003,0.000000e+000
3.448006e+003,0.000000e+000
3.448971e+003,0.000000e+000
3.449935e+003,0.000000e+000
3.450899e+003,0.000000e+000
3.451863e+003,0.000000e+000
3.452828e+003,0.000000e+000
3.453792e+003,0.000000e+000
3.454756e+003,0.000000e+000
3.455720e+003,0.000000e+000
3.456685e+003,0.000000e+000
3.457649e+003,0.000000e+000
3.458613e+003,0.000000e+000
3.459577e+003,0.000000e+000
3.460542e+003,0.000000e+000
3.461506e+003,0.000000e+000
3.462470e+003,0.000000e+000
3.463434e+003,0.000000e+000
3.464398e+003,0.000000e+000
3.465363e+003,0.000000e+000
3.466327e+003,0.000000e+000
3.467291e+003,0.000000e+000
3.468255e+003,0.000000e+000
3.469219e+003,0.000000e+000
3.470184e+003,0.000000e+000
3.471148e+003,0.000000e+000
3.472112e+003,0.000000e+000
3.473076e+003,0.000000e+000
3.474041e+003,0.000000e+000
3.475005e+003,0.000000e+000
3.475969e+003,0.000000e+000
3.476933e+003,0.000000e+000
3.477898e+003,0.000000e+000
3.478862e+003,0.000000e+000
3.479826e+003,0.000000e+000
3.480790e+003,0.000000e+000
3.481755e+003,0.000000e+000
3.482719e+003,0.000000e+000
3.483683e+003,0.000000e+000
3.484647e+003,0.000000e+000
3.485612e+003,0.000000e+000
3.486576e+003,0.000000e+000
3.487540e+003,0.000000e+000
3.488504e+003,0.000000e+000
3.489469e+003,0.000000e+000
3.490433e+003,0.000000e+000
3.491397e+003,0.000000e+000
3.492361e+003,0.000000e+000
3.493325e+003,0.000000e+000
3.494290e+003,0.000000e+000
3.495254e+003,0.000000e+000
3.496218e+003,0.000000e+000
3.497182e+003,0.000000e+000
3.498146e+003,0.000000e+000
3.499111e+003,0.000000e+000
3.500075e+003,0.000000e+000
