5.003444e+002,1.806840e+002
5.013087e+002,1.805952e+002
5.022729e+002,1.766182e+002
5.032371e+002,1.703318e+002
5.042014e+002,1.643116e+002
5.051656e+002,1.587826e+002
5.061298e+002,1.541365e+002
5.070941e+002,1.504845e+002
5.080583e+002,1.472922e+002
5.090225e+002,1.461239e+002
5.099868e+002,1.477421e+002
5.109510e+002,1.497880e+002
5.119152e+002,1.516333e+002
5.128795e+002,1.533744e+002
5.138437e+002,1.535743e+002
5.148079e+002,1.507617e+002
5.157722e+002,1.476432e+002
5.167364e+002,1.451062e+002
5.177006e+002,1.429919e+002
5.186649e+002,1.402545e+002
5.196291e+002,1.354553e+002
5.205933e+002,1.311182e+002
5.215576e+002,1.295211e+002
5.225218e+002,1.300181e+002
5.234860e+002,1.303875e+002
5.244503e+002,1.273346e+002
5.254145e+002,1.203510e+002
5.263787e+002,1.167380e+002
5.273430e+002,1.183933e+002
5.283072e+002,1.221115e+002
5.292714e+002,1.231176e+002
5.302357e+002,1.187404e+002
5.311999e+002,1.147283e+002
5.321641e+002,1.131205e+002
5.331284e+002,1.128229e+002
5.340926e+002,1.128813e+002
5.350568e+002,1.126132e+002
5.360211e+002,1.111270e+002
5.369853e+002,1.091970e+002
5.379495e+002,1.065354e+002
5.389138e+002,1.015865e+002
5.398780e+002,9.405286e+001
5.408422e+002,8.566614e+001
5.418065e+002,8.199487e+001
5.427707e+002,8.236182e+001
5.437349e+002,8.240564e+001
5.446992e+002,8.057678e+001
5.456634e+002,7.773767e+001
5.466276e+002,7.726184e+001
5.475919e+002,8.289185e+001
5.485561e+002,8.700317e+001
5.495203e+002,8.918848e+001
5.504846e+002,8.914294e+001
5.514488e+002,8.642407e+001
5.524130e+002,8.010754e+001
5.533773e+002,7.384082e+001
5.543415e+002,6.832922e+001
5.553057e+002,6.434875e+001
5.562700e+002,6.330237e+001
5.572342e+002,6.589185e+001
5.581984e+002,6.956580e+001
5.591627e+002,6.806262e+001
5.601269e+002,6.374609e+001
5.610911e+002,6.037341e+001
5.620554e+002,5.967310e+001
5.630196e+002,6.104919e+001
5.639838e+002,6.179553e+001
5.649481e+002,6.233521e+001
5.659123e+002,6.176208e+001
5.668765e+002,6.075232e+001
5.678408e+002,5.955542e+001
5.688050e+002,5.746631e+001
5.697692e+002,5.133240e+001
5.707335e+002,4.617346e+001
5.716977e+002,4.503308e+001
5.726619e+002,4.580103e+001
5.736262e+002,4.505530e+001
5.745904e+002,4.003931e+001
5.755546e+002,3.541113e+001
5.765189e+002,3.915039e+001
5.774831e+002,4.701904e+001
5.784473e+002,5.255347e+001
5.794116e+002,5.166968e+001
5.803758e+002,4.548254e+001
5.813400e+002,4.165601e+001
5.823043e+002,3.954504e+001
5.832685e+002,3.753613e+001
5.842327e+002,3.607422e+001
5.851970e+002,3.547510e+001
5.861612e+002,3.465430e+001
5.871254e+002,3.097229e+001
5.880897e+002,2.887659e+001
5.890539e+002,3.029480e+001
5.900181e+002,3.325171e+001
5.909824e+002,3.447192e+001
5.919466e+002,3.149963e+001
5.929108e+002,2.787720e+001
5.938751e+002,2.757727e+001
5.948393e+002,2.917615e+001
5.958035e+002,3.091541e+001
5.967678e+002,3.157764e+001
5.977320e+002,3.136487e+001
5.986962e+002,2.857874e+001
5.996605e+002,2.223083e+001
6.006247e+002,1.683484e+001
6.015889e+002,1.472253e+001
6.025532e+002,1.579480e+001
6.035174e+002,1.706946e+001
6.044816e+002,1.949805e+001
6.054459e+002,2.132300e+001
6.064101e+002,2.199158e+001
6.073743e+002,2.184705e+001
6.083386e+002,2.172278e+001
6.093028e+002,2.249719e+001
6.102670e+002,2.279785e+001
6.112313e+002,2.043469e+001
6.121955e+002,1.721948e+001
6.131597e+002,1.593970e+001
6.141240e+002,1.840259e+001
6.150882e+002,2.303845e+001
6.160524e+002,2.270215e+001
6.170167e+002,1.865637e+001
6.179809e+002,1.599976e+001
6.189451e+002,1.708313e+001
6.199094e+002,2.095789e+001
6.208736e+002,2.294543e+001
6.218378e+002,2.328333e+001
6.228021e+002,2.264185e+001
6.237663e+002,1.983972e+001
6.247305e+002,1.662646e+001
6.256948e+002,1.580432e+001
6.266590e+002,1.909070e+001
6.276232e+002,2.160059e+001
6.285875e+002,2.138159e+001
6.295517e+002,1.960144e+001
6.305159e+002,1.650269e+001
6.314802e+002,1.222449e+001
6.324444e+002,7.677002e+000
6.334086e+002,7.310425e+000
6.343729e+002,1.026538e+001
6.353371e+002,1.317932e+001
6.363013e+002,1.481750e+001
6.372656e+002,1.506140e+001
6.382298e+002,1.407776e+001
6.391940e+002,1.076941e+001
6.401583e+002,6.909546e+000
6.411225e+002,2.499634e+000
6.420867e+002,-9.803467e-001
6.430510e+002,-1.991821e+000
6.440152e+002,4.516602e-003
6.449794e+002,1.466309e+000
6.459437e+002,1.617920e+000
6.469079e+002,5.920410e-002
6.478721e+002,-4.607422e+000
6.488364e+002,-1.206689e+001
6.498006e+002,-1.910828e+001
6.507648e+002,-1.963879e+001
6.517291e+002,-1.583362e+001
6.526933e+002,-1.213367e+001
6.536575e+002,-9.387451e+000
6.546218e+002,-7.017334e+000
6.555860e+002,-3.583374e+000
6.565502e+002,3.479736e+000
6.575145e+002,4.929932e+000
6.584787e+002,-4.348755e+000
6.594429e+002,-1.430139e+001
6.604072e+002,-1.603418e+001
6.613714e+002,-7.463745e+000
6.623356e+002,3.040771e-001
6.632999e+002,1.194458e+000
6.642641e+002,-2.595215e-001
6.652283e+002,-1.553955e+000
6.661926e+002,-2.114258e+000
6.671568e+002,-3.137573e+000
6.681210e+002,-7.147827e+000
6.690853e+002,-1.245325e+001
6.700495e+002,-1.389380e+001
6.710137e+002,-1.148145e+001
6.719780e+002,-7.307617e+000
6.729422e+002,-3.483887e+000
6.739064e+002,-1.142578e-001
6.748707e+002,1.546631e+000
6.758349e+002,9.649658e-001
6.767991e+002,-4.217529e-001
6.777634e+002,-1.481689e+000
6.787276e+002,-1.852905e+000
6.796918e+002,-2.307983e+000
6.806561e+002,-5.335327e+000
6.816203e+002,-7.272339e+000
6.825845e+002,-5.628296e+000
6.835488e+002,-2.088257e+000
6.845130e+002,2.828369e-001
6.854772e+002,-8.905029e-001
6.864415e+002,-2.638794e+000
6.874057e+002,2.416626e+000
6.883699e+002,1.084729e+001
6.893342e+002,1.483923e+001
6.902984e+002,9.843872e+000
6.912626e+002,-2.198608e+000
6.922269e+002,-9.324097e+000
6.931911e+002,-6.965820e+000
6.941553e+002,-3.719360e+000
6.951196e+002,-1.275635e-001
6.960838e+002,2.801880e+000
6.970480e+002,3.867065e+000
6.980123e+002,2.534302e+000
6.989765e+002,9.317627e-001
6.999407e+002,-7.218018e-001
7.009050e+002,-1.991821e+000
7.018692e+002,-2.158081e+000
7.028334e+002,-1.272217e+000
7.037977e+002,-6.712646e-001
7.047619e+002,-2.688232e+000
7.057261e+002,-5.574097e+000
7.066904e+002,-6.413696e+000
7.076546e+002,-4.793579e+000
7.086188e+002,-2.776123e+000
7.095831e+002,-3.969360e+000
7.105473e+002,-1.126770e+001
7.115115e+002,-1.325879e+001
7.124758e+002,-5.474609e+000
7.134400e+002,1.639648e+000
7.144042e+002,9.743652e-001
7.153685e+002,-7.245850e+000
7.163327e+002,-1.370667e+001
7.172969e+002,-1.248779e+001
7.182612e+002,-9.879028e+000
7.192254e+002,-7.930298e+000
7.201896e+002,-6.997803e+000
7.211539e+002,-6.970703e+000
7.221181e+002,-7.829712e+000
7.230823e+002,-8.832642e+000
7.240466e+002,-7.405151e+000
7.250108e+002,-3.686523e+000
7.259750e+002,-5.736084e-001
7.269393e+002,-4.791260e-001
7.279035e+002,-3.687012e+000
7.288677e+002,-6.546387e+000
7.298320e+002,-6.946411e+000
7.307962e+002,-6.740967e+000
7.317604e+002,-6.472168e+000
7.327247e+002,-5.310791e+000
7.336889e+002,-1.838623e+000
7.346531e+002,4.656494e+000
7.356174e+002,7.577026e+000
7.365816e+002,2.656372e+000
7.375458e+002,-3.698975e+000
7.385101e+002,-7.187012e+000
7.394743e+002,-6.503052e+000
7.404385e+002,-2.990845e+000
7.414028e+002,1.915649e+000
7.423670e+002,6.155762e+000
7.433312e+002,7.363647e+000
7.442955e+002,6.322998e+000
7.452597e+002,4.326050e+000
7.462239e+002,1.576050e+000
7.471882e+002,-3.463379e+000
7.481524e+002,-3.493408e+000
7.491166e+002,4.227539e+000
7.500809e+002,1.086060e+001
7.510451e+002,1.321301e+001
7.520093e+002,1.174878e+001
7.529736e+002,9.047485e+000
7.539378e+002,6.491455e+000
7.549020e+002,4.411011e+000
7.558663e+002,2.652100e+000
7.568306e+002,1.294678e+000
7.577948e+002,1.650391e-001
7.587590e+002,-1.028931e+000
7.597233e+002,-2.441162e+000
7.606875e+002,-2.971680e+000
7.616517e+002,-2.220093e+000
7.626160e+002,-5.233154e-001
7.635802e+002,2.784912e+000
7.645444e+002,6.562134e+000
7.655087e+002,7.907471e+000
7.664729e+002,4.587402e+000
7.674371e+002,3.271240e+000
7.684014e+002,5.249878e+000
7.693656e+002,7.991455e+000
7.703298e+002,1.033777e+001
7.712941e+002,1.208972e+001
7.722583e+002,1.324536e+001
7.732225e+002,1.328430e+001
7.741868e+002,1.306689e+001
7.751510e+002,1.347815e+001
7.761152e+002,1.429688e+001
7.770795e+002,1.451074e+001
7.780437e+002,1.310510e+001
7.790079e+002,1.033936e+001
7.799722e+002,1.098230e+001
7.809364e+002,1.549646e+001
7.819006e+002,1.834021e+001
7.828649e+002,1.664368e+001
7.838291e+002,1.235583e+001
7.847933e+002,1.119507e+001
7.857576e+002,1.576062e+001
7.867218e+002,1.701599e+001
7.876860e+002,1.102820e+001
7.886503e+002,4.586182e+000
7.896145e+002,4.091309e+000
7.905787e+002,1.086328e+001
7.915430e+002,1.880579e+001
7.925072e+002,2.061914e+001
7.934714e+002,1.913440e+001
7.944357e+002,1.785071e+001
7.953999e+002,1.763000e+001
7.963641e+002,1.825354e+001
7.973284e+002,1.925159e+001
7.982926e+002,2.070447e+001
7.992568e+002,2.097607e+001
8.002211e+002,1.836670e+001
8.011853e+002,1.472363e+001
8.021495e+002,1.163367e+001
8.031138e+002,9.973755e+000
8.040780e+002,9.806396e+000
8.050422e+002,1.139636e+001
8.060065e+002,1.183606e+001
8.069707e+002,7.135376e+000
8.079349e+002,1.931885e+000
8.088992e+002,1.869385e+000
8.098634e+002,8.804810e+000
8.108276e+002,1.828149e+001
8.117919e+002,2.373071e+001
8.127561e+002,2.526038e+001
8.137203e+002,2.551270e+001
8.146846e+002,2.552588e+001
8.156488e+002,2.490833e+001
8.166130e+002,2.248071e+001
8.175773e+002,1.748792e+001
8.185415e+002,1.394055e+001
8.195057e+002,1.115723e+001
8.204700e+002,8.974854e+000
8.214342e+002,7.291748e+000
8.223984e+002,6.234497e+000
8.233627e+002,6.307739e+000
8.243269e+002,8.507935e+000
8.252911e+002,1.084778e+001
8.262554e+002,1.089783e+001
8.272196e+002,1.094543e+001
8.281838e+002,1.457898e+001
8.291481e+002,2.226367e+001
8.301123e+002,2.965308e+001
8.310765e+002,2.817261e+001
8.320408e+002,1.848608e+001
8.330050e+002,1.339844e+001
8.339692e+002,1.440784e+001
8.349335e+002,1.800635e+001
8.358977e+002,2.147937e+001
8.368619e+002,2.542041e+001
8.378262e+002,2.793054e+001
8.387904e+002,2.820251e+001
8.397546e+002,2.673889e+001
8.407189e+002,2.175586e+001
8.416831e+002,1.567896e+001
8.426473e+002,1.254822e+001
8.436116e+002,1.452319e+001
8.445758e+002,1.880981e+001
8.455400e+002,2.277820e+001
8.465043e+002,2.551440e+001
8.474685e+002,2.659204e+001
8.484327e+002,2.654541e+001
8.493970e+002,2.639087e+001
8.503612e+002,2.691541e+001
8.513254e+002,2.785962e+001
8.522897e+002,2.936353e+001
8.532539e+002,3.131873e+001
8.542181e+002,3.297192e+001
8.551824e+002,3.467615e+001
8.561466e+002,3.708240e+001
8.571108e+002,3.986462e+001
8.580751e+002,4.104956e+001
8.590393e+002,4.155054e+001
8.600035e+002,4.140051e+001
8.609678e+002,4.210913e+001
8.619320e+002,4.562585e+001
8.628962e+002,5.243457e+001
8.638605e+002,6.021228e+001
8.648247e+002,6.644580e+001
8.657889e+002,7.046021e+001
8.667532e+002,6.976758e+001
8.677174e+002,6.406482e+001
8.686816e+002,5.845068e+001
8.696459e+002,5.942285e+001
8.706101e+002,6.867419e+001
8.715743e+002,7.460059e+001
8.725386e+002,7.497607e+001
8.735028e+002,7.539832e+001
8.744670e+002,7.670032e+001
8.754313e+002,7.808655e+001
8.763955e+002,7.827966e+001
8.773597e+002,7.665918e+001
8.783240e+002,7.606555e+001
8.792882e+002,7.888110e+001
8.802524e+002,8.266724e+001
8.812167e+002,8.593237e+001
8.821809e+002,8.808167e+001
8.831451e+002,8.880505e+001
8.841094e+002,8.759521e+001
8.850736e+002,8.523474e+001
8.860378e+002,8.684265e+001
8.870021e+002,9.282007e+001
8.879663e+002,9.904541e+001
8.889305e+002,1.032849e+002
8.898948e+002,1.055162e+002
8.908590e+002,1.065587e+002
8.918232e+002,1.058661e+002
8.927875e+002,1.062069e+002
8.937517e+002,1.079547e+002
8.947159e+002,1.109977e+002
8.956802e+002,1.154928e+002
8.966444e+002,1.207058e+002
8.976086e+002,1.246779e+002
8.985729e+002,1.259031e+002
8.995371e+002,1.255968e+002
9.005013e+002,1.245854e+002
9.014656e+002,1.235458e+002
9.024298e+002,1.240958e+002
9.033940e+002,1.272823e+002
9.043583e+002,1.319626e+002
9.053225e+002,1.334391e+002
9.062867e+002,1.256792e+002
9.072510e+002,1.216351e+002
9.082152e+002,1.251748e+002
9.091794e+002,1.317620e+002
9.101437e+002,1.372288e+002
9.111079e+002,1.408593e+002
9.120721e+002,1.430553e+002
9.130364e+002,1.416368e+002
9.140006e+002,1.395691e+002
9.149648e+002,1.396699e+002
9.159291e+002,1.414276e+002
9.168933e+002,1.427522e+002
9.178575e+002,1.418508e+002
9.188218e+002,1.388210e+002
9.197860e+002,1.347462e+002
9.207502e+002,1.292173e+002
9.217145e+002,1.248702e+002
9.226787e+002,1.235649e+002
9.236429e+002,1.240454e+002
9.246072e+002,1.242883e+002
9.255714e+002,1.239182e+002
9.265356e+002,1.224171e+002
9.274999e+002,1.178251e+002
9.284641e+002,1.135258e+002
9.294283e+002,1.111376e+002
9.303926e+002,1.103250e+002
9.313568e+002,1.103708e+002
9.323210e+002,1.109554e+002
9.332853e+002,1.109631e+002
9.342495e+002,1.081107e+002
9.352137e+002,1.033953e+002
9.361780e+002,9.811853e+001
9.371422e+002,9.315332e+001
9.381064e+002,9.022473e+001
9.390707e+002,9.149048e+001
9.400349e+002,9.744482e+001
9.409991e+002,9.903076e+001
9.419634e+002,9.015369e+001
9.429276e+002,8.490210e+001
9.438918e+002,9.104102e+001
9.448561e+002,1.020789e+002
9.458203e+002,1.061271e+002
9.467845e+002,9.881592e+001
9.477488e+002,9.132813e+001
9.487130e+002,9.371265e+001
9.496772e+002,9.796423e+001
9.506415e+002,9.704626e+001
9.516057e+002,9.126172e+001
9.525699e+002,8.565930e+001
9.535342e+002,8.507446e+001
9.544984e+002,8.870862e+001
9.554626e+002,9.263684e+001
9.564269e+002,9.851379e+001
9.573911e+002,1.024631e+002
9.583553e+002,1.019115e+002
9.593196e+002,9.903687e+001
9.602838e+002,9.741650e+001
9.612480e+002,9.721497e+001
9.622123e+002,9.712317e+001
9.631765e+002,9.734961e+001
9.641407e+002,9.751367e+001
9.651050e+002,9.818604e+001
9.660692e+002,9.805200e+001
9.670334e+002,9.425439e+001
9.679977e+002,8.525073e+001
9.689619e+002,7.570740e+001
9.699261e+002,7.588428e+001
9.708904e+002,8.228149e+001
9.718546e+002,8.697888e+001
9.728188e+002,8.762012e+001
9.737831e+002,8.751489e+001
9.747473e+002,9.170471e+001
9.757115e+002,1.014474e+002
9.766758e+002,1.100121e+002
9.776400e+002,1.194335e+002
9.786042e+002,1.263296e+002
9.795685e+002,1.293397e+002
9.805327e+002,1.285320e+002
9.814969e+002,1.241752e+002
9.824612e+002,1.167871e+002
9.834254e+002,1.083419e+002
9.843896e+002,9.853662e+001
9.853539e+002,8.875500e+001
9.863181e+002,8.068799e+001
9.872823e+002,7.404895e+001
9.882466e+002,6.816772e+001
9.892108e+002,6.311267e+001
9.901750e+002,6.006909e+001
9.911393e+002,6.110950e+001
9.921035e+002,6.720239e+001
9.930677e+002,7.221167e+001
9.940320e+002,7.656104e+001
9.949962e+002,8.062390e+001
9.959604e+002,8.429724e+001
9.969247e+002,8.778906e+001
9.978889e+002,9.242004e+001
9.988531e+002,9.873621e+001
9.998174e+002,1.043373e+002
1.000782e+003,1.091702e+002
1.001746e+003,1.130684e+002
1.002710e+003,1.149800e+002
1.003674e+003,1.146493e+002
1.004639e+003,1.137354e+002
1.005603e+003,1.153571e+002
1.006567e+003,1.195679e+002
1.007531e+003,1.221410e+002
1.008495e+003,1.228677e+002
1.009460e+003,1.227965e+002
1.010424e+003,1.227043e+002
1.011388e+003,1.226190e+002
1.012352e+003,1.219996e+002
1.013317e+003,1.204464e+002
1.014281e+003,1.180459e+002
1.015245e+003,1.151117e+002
1.016209e+003,1.107432e+002
1.017174e+003,1.039731e+002
1.018138e+003,9.531360e+001
1.019102e+003,8.623303e+001
1.020066e+003,7.794226e+001
1.021031e+003,7.103516e+001
1.021995e+003,6.711914e+001
1.022959e+003,6.475061e+001
1.023923e+003,5.907495e+001
1.024887e+003,4.699060e+001
1.025852e+003,3.321887e+001
1.026816e+003,2.640613e+001
1.027780e+003,2.927844e+001
1.028744e+003,2.874597e+001
1.029709e+003,1.927954e+001
1.030673e+003,1.136035e+001
1.031637e+003,8.428589e+000
1.032601e+003,8.358887e+000
1.033566e+003,8.258911e+000
1.034530e+003,7.282471e+000
1.035494e+003,6.614380e+000
1.036458e+003,6.890503e+000
1.037422e+003,8.307861e+000
1.038387e+003,1.238599e+001
1.039351e+003,1.846631e+001
1.040315e+003,2.265845e+001
1.041279e+003,2.203296e+001
1.042244e+003,1.801062e+001
1.043208e+003,1.628906e+001
1.044172e+003,1.787695e+001
1.045136e+003,1.885498e+001
1.046101e+003,1.981616e+001
1.047065e+003,2.019702e+001
1.048029e+003,1.908215e+001
1.048993e+003,1.670093e+001
1.049958e+003,1.420911e+001
1.050922e+003,1.195166e+001
1.051886e+003,1.145813e+001
1.052850e+003,1.580762e+001
1.053814e+003,2.167285e+001
1.054779e+003,2.431104e+001
1.055743e+003,2.284753e+001
1.056707e+003,2.026013e+001
1.057671e+003,2.023218e+001
1.058636e+003,2.264807e+001
1.059600e+003,2.323291e+001
1.060564e+003,2.096021e+001
1.061528e+003,2.014526e+001
1.062493e+003,2.148828e+001
1.063457e+003,2.317834e+001
1.064421e+003,2.407190e+001
1.065385e+003,2.425281e+001
1.066349e+003,2.290247e+001
1.067314e+003,1.735242e+001
1.068278e+003,1.299548e+001
1.069242e+003,1.544336e+001
1.070206e+003,2.126831e+001
1.071171e+003,2.430115e+001
1.072135e+003,2.190161e+001
1.073099e+003,1.709363e+001
1.074063e+003,1.556116e+001
1.075028e+003,1.799438e+001
1.075992e+003,1.837781e+001
1.076956e+003,1.424817e+001
1.077920e+003,1.138623e+001
1.078885e+003,1.408032e+001
1.079849e+003,1.955859e+001
1.080813e+003,2.215979e+001
1.081777e+003,2.083032e+001
1.082741e+003,1.897729e+001
1.083706e+003,1.582520e+001
1.084670e+003,1.341980e+001
1.085634e+003,1.395410e+001
1.086598e+003,1.603101e+001
1.087563e+003,1.697363e+001
1.088527e+003,1.565222e+001
1.089491e+003,1.384155e+001
1.090455e+003,1.420764e+001
1.091420e+003,1.652332e+001
1.092384e+003,1.706592e+001
1.093348e+003,1.488025e+001
1.094312e+003,1.175208e+001
1.095276e+003,9.192627e+000
1.096241e+003,7.265381e+000
1.097205e+003,4.509155e+000
1.098169e+003,-1.019287e+000
1.099133e+003,-3.672852e+000
1.100098e+003,1.714478e+000
1.101062e+003,8.150757e+000
1.102026e+003,1.155811e+001
1.102990e+003,1.232922e+001
1.103955e+003,1.237610e+001
1.104919e+003,1.278284e+001
1.105883e+003,1.349023e+001
1.106847e+003,1.496008e+001
1.107812e+003,1.706299e+001
1.108776e+003,1.793616e+001
1.109740e+003,1.728503e+001
1.110704e+003,1.588049e+001
1.111668e+003,1.428381e+001
1.112633e+003,1.311230e+001
1.113597e+003,1.326428e+001
1.114561e+003,1.440625e+001
1.115525e+003,1.663428e+001
1.116490e+003,2.099585e+001
1.117454e+003,2.512842e+001
1.118418e+003,2.793323e+001
1.119382e+003,2.988489e+001
1.120347e+003,3.158923e+001
1.121311e+003,3.291064e+001
1.122275e+003,3.359619e+001
1.123239e+003,3.512000e+001
1.124203e+003,3.814124e+001
1.125168e+003,4.027722e+001
1.126132e+003,4.135596e+001
1.127096e+003,4.209607e+001
1.128060e+003,4.187061e+001
1.129025e+003,4.105981e+001
1.129989e+003,4.301440e+001
1.130953e+003,4.952991e+001
1.131917e+003,5.450891e+001
1.132882e+003,5.525024e+001
1.133846e+003,5.579602e+001
1.134810e+003,5.861206e+001
1.135774e+003,6.343176e+001
1.136739e+003,6.840332e+001
1.137703e+003,7.246777e+001
1.138667e+003,7.729675e+001
1.139631e+003,8.650488e+001
1.140595e+003,9.952722e+001
1.141560e+003,1.117007e+002
1.142524e+003,1.228879e+002
1.143488e+003,1.349427e+002
1.144452e+003,1.475277e+002
1.145417e+003,1.616646e+002
1.146381e+003,1.818033e+002
1.147345e+003,2.101044e+002
1.148309e+003,2.383018e+002
1.149274e+003,2.636638e+002
1.150238e+003,2.897748e+002
1.151202e+003,3.201462e+002
1.152166e+003,3.529360e+002
1.153130e+003,3.847657e+002
1.154095e+003,4.132596e+002
1.155059e+003,4.369382e+002
1.156023e+003,4.554172e+002
1.156987e+003,4.678439e+002
1.157952e+003,4.705460e+002
1.158916e+003,4.641559e+002
1.159880e+003,4.526143e+002
1.160844e+003,4.362990e+002
1.161809e+003,4.143795e+002
1.162773e+003,3.862345e+002
1.163737e+003,3.506429e+002
1.164701e+003,3.147649e+002
1.165666e+003,2.768864e+002
1.166630e+003,2.438296e+002
1.167594e+003,2.191296e+002
1.168558e+003,2.002352e+002
1.169522e+003,1.835637e+002
1.170487e+003,1.680972e+002
1.171451e+003,1.562738e+002
1.172415e+003,1.509568e+002
1.173379e+003,1.510264e+002
1.174344e+003,1.521547e+002
1.175308e+003,1.549111e+002
1.176272e+003,1.550968e+002
1.177236e+003,1.499613e+002
1.178201e+003,1.431147e+002
1.179165e+003,1.392972e+002
1.180129e+003,1.380801e+002
1.181093e+003,1.339686e+002
1.182057e+003,1.237573e+002
1.183022e+003,1.143077e+002
1.183986e+003,1.081155e+002
1.184950e+003,1.038939e+002
1.185914e+003,1.005410e+002
1.186879e+003,9.802417e+001
1.187843e+003,9.705774e+001
1.188807e+003,9.804614e+001
1.189771e+003,1.002958e+002
1.190736e+003,1.029066e+002
1.191700e+003,1.060302e+002
1.192664e+003,1.066541e+002
1.193628e+003,1.033701e+002
1.194593e+003,9.985657e+001
1.195557e+003,9.941724e+001
1.196521e+003,1.006826e+002
1.197485e+003,9.881531e+001
1.198449e+003,9.227625e+001
1.199414e+003,8.559900e+001
1.200378e+003,8.107263e+001
1.201342e+003,7.697180e+001
1.202306e+003,7.226147e+001
1.203271e+003,6.670496e+001
1.204235e+003,5.963660e+001
1.205199e+003,5.123596e+001
1.206163e+003,4.430737e+001
1.207128e+003,4.394275e+001
1.208092e+003,5.076514e+001
1.209056e+003,5.018237e+001
1.210020e+003,3.901074e+001
1.210984e+003,2.840283e+001
1.211949e+003,2.157080e+001
1.212913e+003,1.666040e+001
1.213877e+003,1.181775e+001
1.214841e+003,7.033691e+000
1.215806e+003,2.250122e+000
1.216770e+003,-2.946045e+000
1.217734e+003,-7.819336e+000
1.218698e+003,-1.199414e+001
1.219663e+003,-1.606165e+001
1.220627e+003,-2.076587e+001
1.221591e+003,-2.607385e+001
1.222555e+003,-3.137012e+001
1.223520e+003,-3.601624e+001
1.224484e+003,-3.956592e+001
1.225448e+003,-4.105945e+001
1.226412e+003,-3.895178e+001
1.227376e+003,-3.858716e+001
1.228341e+003,-4.101965e+001
1.229305e+003,-4.434851e+001
1.230269e+003,-4.889709e+001
1.231233e+003,-5.330835e+001
1.232198e+003,-5.425903e+001
1.233162e+003,-5.045288e+001
1.234126e+003,-4.605310e+001
1.235090e+003,-4.390369e+001
1.236055e+003,-4.366760e+001
1.237019e+003,-4.547913e+001
1.237983e+003,-4.875696e+001
1.238947e+003,-5.165747e+001
1.239911e+003,-5.312207e+001
1.240876e+003,-5.354138e+001
1.241840e+003,-5.386975e+001
1.242804e+003,-5.414136e+001
1.243768e+003,-5.311304e+001
1.244733e+003,-4.952405e+001
1.245697e+003,-4.616907e+001
1.246661e+003,-4.316992e+001
1.247625e+003,-4.163086e+001
1.248590e+003,-4.335291e+001
1.249554e+003,-4.649060e+001
1.250518e+003,-4.634619e+001
1.251482e+003,-4.089197e+001
1.252447e+003,-3.449048e+001
1.253411e+003,-3.172632e+001
1.254375e+003,-3.119214e+001
1.255339e+003,-3.059912e+001
1.256303e+003,-2.955090e+001
1.257268e+003,-2.794397e+001
1.258232e+003,-2.615723e+001
1.259196e+003,-2.459851e+001
1.260160e+003,-2.342383e+001
1.261125e+003,-2.243591e+001
1.262089e+003,-1.970300e+001
1.263053e+003,-1.352295e+001
1.264017e+003,-8.629395e+000
1.264982e+003,-6.366333e+000
1.265946e+003,-5.227295e+000
1.266910e+003,-4.219727e+000
1.267874e+003,-2.901245e+000
1.268839e+003,-1.207275e-001
1.269803e+003,5.003296e+000
1.270767e+003,9.236206e+000
1.271731e+003,5.312744e+000
1.272695e+003,-6.219360e+000
1.273660e+003,-1.376013e+001
1.274624e+003,-1.672754e+001
1.275588e+003,-1.903186e+001
1.276552e+003,-2.168250e+001
1.277517e+003,-2.445020e+001
1.278481e+003,-2.818909e+001
1.279445e+003,-3.335449e+001
1.280409e+003,-3.634436e+001
1.281374e+003,-3.461328e+001
1.282338e+003,-3.200256e+001
1.283302e+003,-2.975952e+001
1.284266e+003,-2.842102e+001
1.285230e+003,-2.848242e+001
1.286195e+003,-3.010974e+001
1.287159e+003,-3.364343e+001
1.288123e+003,-3.914697e+001
1.289087e+003,-4.470313e+001
1.290052e+003,-4.540222e+001
1.291016e+003,-3.991235e+001
1.291980e+003,-3.564514e+001
1.292944e+003,-3.126978e+001
1.293909e+003,-3.063220e+001
1.294873e+003,-3.806836e+001
1.295837e+003,-4.760242e+001
1.296801e+003,-5.041638e+001
1.297766e+003,-4.578784e+001
1.298730e+003,-4.151978e+001
1.299694e+003,-4.206763e+001
1.300658e+003,-4.468066e+001
1.301622e+003,-4.719482e+001
1.302587e+003,-4.873389e+001
1.303551e+003,-4.728613e+001
1.304515e+003,-4.264722e+001
1.305479e+003,-3.807483e+001
1.306444e+003,-3.667468e+001
1.307408e+003,-3.748071e+001
1.308372e+003,-3.586304e+001
1.309336e+003,-2.965137e+001
1.310301e+003,-2.799915e+001
1.311265e+003,-3.503125e+001
1.312229e+003,-4.134827e+001
1.313193e+003,-4.481104e+001
1.314157e+003,-4.607581e+001
1.315122e+003,-4.518262e+001
1.316086e+003,-4.306873e+001
1.317050e+003,-4.194751e+001
1.318014e+003,-4.307385e+001
1.318979e+003,-4.522949e+001
1.319943e+003,-4.734814e+001
1.320907e+003,-4.874939e+001
1.321871e+003,-4.603894e+001
1.322836e+003,-3.836792e+001
1.323800e+003,-3.183313e+001
1.324764e+003,-3.004822e+001
1.325728e+003,-3.097449e+001
1.326693e+003,-3.131396e+001
1.327657e+003,-3.125586e+001
1.328621e+003,-3.291016e+001
1.329585e+003,-3.715295e+001
1.330549e+003,-3.937268e+001
1.331514e+003,-3.764807e+001
1.332478e+003,-3.518738e+001
1.333442e+003,-3.510559e+001
1.334406e+003,-3.657373e+001
1.335371e+003,-3.583704e+001
1.336335e+003,-3.079333e+001
1.337299e+003,-2.472961e+001
1.338263e+003,-2.431262e+001
1.339228e+003,-3.041016e+001
1.340192e+003,-3.376270e+001
1.341156e+003,-3.312671e+001
1.342120e+003,-3.187634e+001
1.343084e+003,-3.041565e+001
1.344049e+003,-2.956653e+001
1.345013e+003,-2.948071e+001
1.345977e+003,-2.981824e+001
1.346941e+003,-3.071729e+001
1.347906e+003,-3.239319e+001
1.348870e+003,-3.275220e+001
1.349834e+003,-2.849048e+001
1.350798e+003,-2.324084e+001
1.351763e+003,-2.378894e+001
1.352727e+003,-2.907080e+001
1.353691e+003,-3.369189e+001
1.354655e+003,-3.578723e+001
1.355620e+003,-3.608850e+001
1.356584e+003,-3.483350e+001
1.357548e+003,-3.207605e+001
1.358512e+003,-2.988965e+001
1.359476e+003,-2.869299e+001
1.360441e+003,-2.916797e+001
1.361405e+003,-3.237036e+001
1.362369e+003,-3.565613e+001
1.363333e+003,-3.833496e+001
1.364298e+003,-3.995300e+001
1.365262e+003,-3.968579e+001
1.366226e+003,-3.766907e+001
1.367190e+003,-3.539905e+001
1.368155e+003,-3.423511e+001
1.369119e+003,-3.349939e+001
1.370083e+003,-3.079224e+001
1.371047e+003,-2.477808e+001
1.372011e+003,-2.141345e+001
1.372976e+003,-2.299768e+001
1.373940e+003,-2.529248e+001
1.374904e+003,-2.719629e+001
1.375868e+003,-2.817981e+001
1.376833e+003,-2.724353e+001
1.377797e+003,-2.483972e+001
1.378761e+003,-2.346448e+001
1.379725e+003,-2.422046e+001
1.380690e+003,-2.559875e+001
1.381654e+003,-2.679700e+001
1.382618e+003,-2.699951e+001
1.383582e+003,-2.410034e+001
1.384547e+003,-1.866125e+001
1.385511e+003,-1.525134e+001
1.386475e+003,-1.693530e+001
1.387439e+003,-2.002673e+001
1.388403e+003,-1.770581e+001
1.389368e+003,-1.006250e+001
1.390332e+003,-7.233887e+000
1.391296e+003,-1.223010e+001
1.392260e+003,-1.572583e+001
1.393225e+003,-1.425830e+001
1.394189e+003,-1.262476e+001
1.395153e+003,-1.422070e+001
1.396117e+003,-1.712085e+001
1.397082e+003,-1.735291e+001
1.398046e+003,-1.430957e+001
1.399010e+003,-1.195032e+001
1.399974e+003,-1.434766e+001
1.400938e+003,-1.994006e+001
1.401903e+003,-2.173645e+001
1.402867e+003,-1.675647e+001
1.403831e+003,-1.395374e+001
1.404795e+003,-1.740576e+001
1.405760e+003,-1.892468e+001
1.406724e+003,-1.451770e+001
1.407688e+003,-9.466797e+000
1.408652e+003,-9.436401e+000
1.409617e+003,-1.340247e+001
1.410581e+003,-1.640430e+001
1.411545e+003,-1.663916e+001
1.412509e+003,-1.476672e+001
1.413474e+003,-9.561523e+000
1.414438e+003,-4.889038e+000
1.415402e+003,-7.472290e+000
1.416366e+003,-1.551660e+001
1.417330e+003,-2.035791e+001
1.418295e+003,-1.813074e+001
1.419259e+003,-1.346436e+001
1.420223e+003,-1.199890e+001
1.421187e+003,-1.348889e+001
1.422152e+003,-1.416724e+001
1.423116e+003,-1.330762e+001
1.424080e+003,-1.156006e+001
1.425044e+003,-9.774170e+000
1.426009e+003,-7.500366e+000
1.426973e+003,-2.940918e+000
1.427937e+003,1.187622e+000
1.428901e+003,9.129639e-001
1.429865e+003,-2.918213e+000
1.430830e+003,-5.607544e+000
1.431794e+003,-4.327026e+000
1.432758e+003,-1.140991e+000
1.433722e+003,5.302734e-001
1.434687e+003,1.278320e+000
1.435651e+003,4.289917e+000
1.436615e+003,8.909058e+000
1.437579e+003,1.279248e+001
1.438544e+003,1.774377e+001
1.439508e+003,2.037830e+001
1.440472e+003,1.694409e+001
1.441436e+003,1.082410e+001
1.442401e+003,8.212036e+000
1.443365e+003,1.019189e+001
1.444329e+003,1.241357e+001
1.445293e+003,1.165845e+001
1.446257e+003,1.014441e+001
1.447222e+003,1.257520e+001
1.448186e+003,1.782361e+001
1.449150e+003,1.991223e+001
1.450114e+003,1.774951e+001
1.451079e+003,1.403577e+001
1.452043e+003,9.640991e+000
1.453007e+003,5.597168e+000
1.453971e+003,2.530029e+000
1.454936e+003,3.635254e-001
1.455900e+003,6.094971e-001
1.456864e+003,4.726807e+000
1.457828e+003,8.375366e+000
1.458792e+003,8.154053e+000
1.459757e+003,6.440552e+000
1.460721e+003,4.643921e+000
1.461685e+003,3.024292e+000
1.462649e+003,1.717407e+000
1.463614e+003,1.123657e+000
1.464578e+003,2.672485e+000
1.465542e+003,8.082520e+000
1.466506e+003,1.484058e+001
1.467471e+003,1.532751e+001
1.468435e+003,8.182495e+000
1.469399e+003,5.164307e+000
1.470363e+003,9.366821e+000
1.471328e+003,1.282971e+001
1.472292e+003,1.354150e+001
1.473256e+003,1.207629e+001
1.474220e+003,7.667480e+000
1.475184e+003,3.192627e+000
1.476149e+003,3.546753e+000
1.477113e+003,9.303101e+000
1.478077e+003,1.550732e+001
1.479041e+003,1.781555e+001
1.480006e+003,1.764465e+001
1.480970e+003,1.833350e+001
1.481934e+003,1.937573e+001
1.482898e+003,2.083826e+001
1.483863e+003,2.290625e+001
1.484827e+003,2.479822e+001
1.485791e+003,2.673889e+001
1.486755e+003,2.903467e+001
1.487719e+003,3.162329e+001
1.488684e+003,3.418567e+001
1.489648e+003,3.675098e+001
1.490612e+003,3.957324e+001
1.491576e+003,4.176245e+001
1.492541e+003,4.147009e+001
1.493505e+003,4.121375e+001
1.494469e+003,4.815259e+001
1.495433e+003,6.027649e+001
1.496398e+003,6.905554e+001
1.497362e+003,7.351477e+001
1.498326e+003,7.780872e+001
1.499290e+003,8.319043e+001
1.500255e+003,9.001257e+001
1.501219e+003,9.930042e+001
1.502183e+003,1.103494e+002
1.503147e+003,1.194498e+002
1.504111e+003,1.248973e+002
1.505076e+003,1.330355e+002
1.506040e+003,1.484977e+002
1.507004e+003,1.677225e+002
1.507968e+003,1.867435e+002
1.508933e+003,2.065168e+002
1.509897e+003,2.289080e+002
1.510861e+003,2.551940e+002
1.511825e+003,2.861473e+002
1.512790e+003,3.220380e+002
1.513754e+003,3.613818e+002
1.514718e+003,4.027983e+002
1.515682e+003,4.456968e+002
1.516646e+003,4.884415e+002
1.517611e+003,5.333969e+002
1.518575e+003,5.738761e+002
1.519539e+003,6.080594e+002
1.520503e+003,6.381670e+002
1.521468e+003,6.669417e+002
1.522432e+003,6.908979e+002
1.523396e+003,7.051390e+002
1.524360e+003,7.092244e+002
1.525325e+003,7.071516e+002
1.526289e+003,7.017108e+002
1.527253e+003,6.899608e+002
1.528217e+003,6.654451e+002
1.529182e+003,6.284905e+002
1.530146e+003,5.934630e+002
1.531110e+003,5.639484e+002
1.532074e+003,5.282861e+002
1.533039e+003,4.835127e+002
1.534003e+003,4.328973e+002
1.534967e+003,3.750894e+002
1.535931e+003,3.166780e+002
1.536896e+003,2.617211e+002
1.537860e+003,2.131084e+002
1.538824e+003,1.750692e+002
1.539788e+003,1.490906e+002
1.540752e+003,1.298206e+002
1.541717e+003,1.106196e+002
1.542681e+003,9.255762e+001
1.543645e+003,8.011853e+001
1.544609e+003,7.606860e+001
1.545573e+003,7.274243e+001
1.546538e+003,6.849084e+001
1.547502e+003,6.533032e+001
1.548466e+003,6.564050e+001
1.549430e+003,6.760608e+001
1.550395e+003,6.920288e+001
1.551359e+003,6.994019e+001
1.552323e+003,7.051086e+001
1.553287e+003,7.108337e+001
1.554252e+003,6.935999e+001
1.555216e+003,6.292517e+001
1.556180e+003,5.361340e+001
1.557144e+003,4.524060e+001
1.558109e+003,3.813550e+001
1.559073e+003,3.385120e+001
1.560037e+003,3.307336e+001
1.561001e+003,3.177380e+001
1.561966e+003,2.866040e+001
1.562930e+003,2.608716e+001
1.563894e+003,2.553247e+001
1.564858e+003,2.664014e+001
1.565823e+003,2.962976e+001
1.566787e+003,3.417700e+001
1.567751e+003,3.630017e+001
1.568715e+003,3.340015e+001
1.569679e+003,2.902344e+001
1.570644e+003,2.686304e+001
1.571608e+003,2.629346e+001
1.572572e+003,2.686731e+001
1.573536e+003,2.901270e+001
1.574500e+003,3.037329e+001
1.575465e+003,2.839294e+001
1.576429e+003,2.773633e+001
1.577393e+003,3.393372e+001
1.578357e+003,4.292126e+001
1.579322e+003,4.659473e+001
1.580286e+003,4.499182e+001
1.581250e+003,4.443689e+001
1.582214e+003,4.714258e+001
1.583179e+003,5.003638e+001
1.584143e+003,5.045605e+001
1.585107e+003,4.956494e+001
1.586071e+003,4.975732e+001
1.587036e+003,5.126208e+001
1.588000e+003,5.270972e+001
1.588964e+003,5.336731e+001
1.589928e+003,5.383545e+001
1.590893e+003,5.514929e+001
1.591857e+003,5.610449e+001
1.592821e+003,5.371875e+001
1.593785e+003,4.912158e+001
1.594750e+003,4.864441e+001
1.595714e+003,5.333398e+001
1.596678e+003,5.853552e+001
1.597642e+003,6.310400e+001
1.598606e+003,6.672876e+001
1.599571e+003,6.865857e+001
1.600535e+003,7.026013e+001
1.601499e+003,7.400110e+001
1.602463e+003,7.906177e+001
1.603427e+003,8.110449e+001
1.604392e+003,7.813647e+001
1.605356e+003,7.409546e+001
1.606320e+003,7.340906e+001
1.607284e+003,7.465186e+001
1.608249e+003,7.327869e+001
1.609213e+003,6.918445e+001
1.610177e+003,6.569348e+001
1.611141e+003,6.243091e+001
1.612106e+003,6.216260e+001
1.613070e+003,7.093713e+001
1.614034e+003,7.871497e+001
1.614998e+003,7.608765e+001
1.615963e+003,6.831311e+001
1.616927e+003,6.450171e+001
1.617891e+003,6.577991e+001
1.618855e+003,6.766626e+001
1.619820e+003,6.736523e+001
1.620784e+003,6.538831e+001
1.621748e+003,6.333936e+001
1.622712e+003,6.195337e+001
1.623677e+003,6.035474e+001
1.624641e+003,5.821338e+001
1.625605e+003,5.828613e+001
1.626569e+003,6.068494e+001
1.627533e+003,6.321130e+001
1.628498e+003,6.662891e+001
1.629462e+003,6.948853e+001
1.630426e+003,6.966748e+001
1.631390e+003,6.821631e+001
1.632354e+003,6.774548e+001
1.633319e+003,6.877771e+001
1.634283e+003,6.985901e+001
1.635247e+003,6.996765e+001
1.636211e+003,6.896765e+001
1.637176e+003,6.624207e+001
1.638140e+003,6.229834e+001
1.639104e+003,6.132764e+001
1.640068e+003,6.441162e+001
1.641033e+003,6.546997e+001
1.641997e+003,6.042004e+001
1.642961e+003,5.741138e+001
1.643925e+003,6.295972e+001
1.644890e+003,7.017810e+001
1.645854e+003,7.164612e+001
1.646818e+003,6.877332e+001
1.647782e+003,6.696973e+001
1.648747e+003,6.785938e+001
1.649711e+003,6.923792e+001
1.650675e+003,6.965771e+001
1.651639e+003,6.974573e+001
1.652604e+003,7.037500e+001
1.653568e+003,7.115271e+001
1.654532e+003,6.941492e+001
1.655496e+003,6.385535e+001
1.656460e+003,6.014307e+001
1.657425e+003,6.229138e+001
1.658389e+003,6.386365e+001
1.659353e+003,6.020056e+001
1.660317e+003,5.503308e+001
1.661281e+003,5.216541e+001
1.662246e+003,5.124927e+001
1.663210e+003,5.048621e+001
1.664174e+003,4.946240e+001
1.665138e+003,4.863123e+001
1.666103e+003,4.803394e+001
1.667067e+003,4.764795e+001
1.668031e+003,4.793359e+001
1.668995e+003,4.897473e+001
1.669960e+003,5.024158e+001
1.670924e+003,5.219568e+001
1.671888e+003,5.289502e+001
1.672852e+003,5.088757e+001
1.673817e+003,4.803613e+001
1.674781e+003,4.453333e+001
1.675745e+003,4.148950e+001
1.676709e+003,4.058167e+001
1.677674e+003,4.117871e+001
1.678638e+003,4.119299e+001
1.679602e+003,3.999292e+001
1.680566e+003,3.821643e+001
1.681531e+003,3.646387e+001
1.682495e+003,3.503210e+001
1.683459e+003,3.405444e+001
1.684423e+003,3.306006e+001
1.685387e+003,3.048657e+001
1.686352e+003,2.584937e+001
1.687316e+003,2.436023e+001
1.688280e+003,2.921484e+001
1.689244e+003,3.465051e+001
1.690208e+003,3.733179e+001
1.691173e+003,3.734070e+001
1.692137e+003,3.301221e+001
1.693101e+003,2.663232e+001
1.694065e+003,2.475232e+001
1.695030e+003,2.867371e+001
1.695994e+003,3.113269e+001
1.696958e+003,2.626270e+001
1.697922e+003,1.998328e+001
1.698887e+003,2.001135e+001
1.699851e+003,2.475403e+001
1.700815e+003,2.991455e+001
1.701779e+003,3.469983e+001
1.702744e+003,3.511926e+001
1.703708e+003,2.953296e+001
1.704672e+003,2.351038e+001
1.705636e+003,1.997302e+001
1.706601e+003,1.780884e+001
1.707565e+003,1.670093e+001
1.708529e+003,1.666870e+001
1.709493e+003,1.647144e+001
1.710458e+003,1.582031e+001
1.711422e+003,1.555127e+001
1.712386e+003,1.733350e+001
1.713350e+003,1.890625e+001
1.714314e+003,1.658948e+001
1.715279e+003,1.293237e+001
1.716243e+003,1.387976e+001
1.717207e+003,1.847388e+001
1.718171e+003,1.927393e+001
1.719135e+003,1.435217e+001
1.720100e+003,1.024353e+001
1.721064e+003,1.119238e+001
1.722028e+003,1.456311e+001
1.722992e+003,1.777075e+001
1.723957e+003,2.102393e+001
1.724921e+003,2.220813e+001
1.725885e+003,2.026904e+001
1.726849e+003,1.723413e+001
1.727814e+003,1.358826e+001
1.728778e+003,1.071558e+001
1.729742e+003,8.521362e+000
1.730706e+003,7.570313e+000
1.731671e+003,8.617554e+000
1.732635e+003,1.022095e+001
1.733599e+003,1.065515e+001
1.734563e+003,1.018909e+001
1.735528e+003,9.958984e+000
1.736492e+003,1.031543e+001
1.737456e+003,1.037268e+001
1.738420e+003,8.973999e+000
1.739385e+003,6.367798e+000
1.740349e+003,5.221313e+000
1.741313e+003,6.587646e+000
1.742277e+003,6.127075e+000
1.743241e+003,1.177734e+000
1.744206e+003,-4.552002e-001
1.745170e+003,6.064087e+000
1.746134e+003,1.107800e+001
1.747098e+003,7.235474e+000
1.748063e+003,4.468994e-001
1.749027e+003,-2.486328e+000
1.749991e+003,-1.549805e+000
1.750955e+003,3.177490e-001
1.751919e+003,1.760376e+000
1.752884e+003,2.859253e+000
1.753848e+003,3.682495e+000
1.754812e+003,4.034546e+000
1.755776e+003,3.893433e+000
1.756741e+003,3.734009e+000
1.757705e+003,3.337036e+000
1.758669e+003,2.004761e+000
1.759633e+003,1.159546e+000
1.760598e+003,2.773438e-001
1.761562e+003,6.774902e-002
1.762526e+003,3.293701e+000
1.763490e+003,5.682251e+000
1.764455e+003,2.482666e+000
1.765419e+003,-2.536743e+000
1.766383e+003,-3.685669e+000
1.767347e+003,-7.485352e-001
1.768312e+003,3.800659e+000
1.769276e+003,8.738770e+000
1.770240e+003,1.119568e+001
1.771204e+003,7.874512e+000
1.772168e+003,1.918457e+000
1.773133e+003,-8.001709e-001
1.774097e+003,-5.152588e-001
1.775061e+003,1.151611e+000
1.776025e+003,3.891235e+000
1.776990e+003,4.866455e+000
1.777954e+003,3.031982e+000
1.778918e+003,1.309814e+000
1.779882e+003,1.470215e+000
1.780846e+003,2.170532e+000
1.781811e+003,1.722046e+000
1.782775e+003,9.030762e-001
1.783739e+003,2.381226e+000
1.784703e+003,7.020996e+000
1.785668e+003,1.036377e+001
1.786632e+003,1.003943e+001
1.787596e+003,7.245972e+000
1.788560e+003,1.661987e+000
1.789525e+003,-3.584839e+000
1.790489e+003,-4.862915e+000
1.791453e+003,-2.816772e+000
1.792417e+003,1.306152e+000
1.793382e+003,6.847656e+000
1.794346e+003,1.131348e+001
1.795310e+003,1.340808e+001
1.796274e+003,1.241980e+001
1.797239e+003,7.038818e+000
1.798203e+003,3.448486e-001
1.799167e+003,7.745361e-001
1.800131e+003,9.134644e+000
1.801095e+003,1.133582e+001
1.802060e+003,2.303467e+000
1.803024e+003,-2.050903e+000
1.803988e+003,2.778687e+000
1.804952e+003,8.112549e+000
1.805917e+003,1.033948e+001
1.806881e+003,1.065173e+001
1.807845e+003,1.010437e+001
1.808809e+003,9.382324e+000
1.809773e+003,9.360107e+000
1.810738e+003,9.938965e+000
1.811702e+003,9.318970e+000
1.812666e+003,6.411255e+000
1.813630e+003,4.240234e+000
1.814595e+003,7.474609e+000
1.815559e+003,1.392981e+001
1.816523e+003,1.475293e+001
1.817487e+003,9.467529e+000
1.818452e+003,5.286987e+000
1.819416e+003,2.754883e+000
1.820380e+003,2.348633e+000
1.821344e+003,5.087769e+000
1.822309e+003,7.616455e+000
1.823273e+003,7.959351e+000
1.824237e+003,7.933716e+000
1.825201e+003,9.743286e+000
1.826166e+003,1.214050e+001
1.827130e+003,1.111694e+001
1.828094e+003,5.983398e+000
1.829058e+003,3.383423e+000
1.830022e+003,8.382080e+000
1.830987e+003,1.363049e+001
1.831951e+003,1.256799e+001
1.832915e+003,8.436035e+000
1.833879e+003,5.204956e+000
1.834844e+003,3.078857e+000
1.835808e+003,1.754150e+000
1.836772e+003,1.316406e+000
1.837736e+003,2.602539e+000
1.838700e+003,5.791992e+000
1.839665e+003,8.902954e+000
1.840629e+003,1.044971e+001
1.841593e+003,1.077881e+001
1.842557e+003,1.008252e+001
1.843522e+003,8.350708e+000
1.844486e+003,6.904297e+000
1.845450e+003,5.471924e+000
1.846414e+003,6.315308e+000
1.847379e+003,1.134253e+001
1.848343e+003,1.419971e+001
1.849307e+003,1.270203e+001
1.850271e+003,9.393677e+000
1.851236e+003,4.652588e+000
1.852200e+003,7.460938e-001
1.853164e+003,-8.850098e-002
1.854128e+003,1.593506e+000
1.855093e+003,5.009155e+000
1.856057e+003,9.823364e+000
1.857021e+003,1.316235e+001
1.857985e+003,1.218884e+001
1.858949e+003,8.771606e+000
1.859914e+003,5.415283e+000
1.860878e+003,2.698486e+000
1.861842e+003,3.886230e+000
1.862806e+003,8.939941e+000
1.863771e+003,1.128198e+001
1.864735e+003,8.892090e+000
1.865699e+003,7.043823e+000
1.866663e+003,8.593994e+000
1.867627e+003,1.128357e+001
1.868592e+003,1.316455e+001
1.869556e+003,1.382678e+001
1.870520e+003,1.283252e+001
1.871484e+003,1.055249e+001
1.872449e+003,1.031201e+001
1.873413e+003,1.493347e+001
1.874377e+003,1.805115e+001
1.875341e+003,1.374268e+001
1.876306e+003,1.015173e+001
1.877270e+003,1.221631e+001
1.878234e+003,1.617371e+001
1.879198e+003,1.932068e+001
1.880163e+003,2.128528e+001
1.881127e+003,2.173865e+001
1.882091e+003,2.110229e+001
1.883055e+003,2.080994e+001
1.884020e+003,2.125818e+001
1.884984e+003,2.056421e+001
1.885948e+003,1.696582e+001
1.886912e+003,1.222290e+001
1.887876e+003,9.766357e+000
1.888841e+003,9.620361e+000
1.889805e+003,1.166614e+001
1.890769e+003,1.625598e+001
1.891733e+003,2.150403e+001
1.892698e+003,2.840210e+001
1.893662e+003,3.196045e+001
1.894626e+003,2.874841e+001
1.895590e+003,2.434595e+001
1.896554e+003,2.208923e+001
1.897519e+003,2.166650e+001
1.898483e+003,2.320630e+001
1.899447e+003,2.541968e+001
1.900411e+003,2.543323e+001
1.901376e+003,2.284253e+001
1.902340e+003,2.052759e+001
1.903304e+003,1.918726e+001
1.904268e+003,1.875610e+001
1.905233e+003,2.006628e+001
1.906197e+003,2.184668e+001
1.907161e+003,2.314709e+001
1.908125e+003,2.398547e+001
1.909090e+003,2.395203e+001
1.910054e+003,2.291919e+001
1.911018e+003,2.101501e+001
1.911982e+003,1.886487e+001
1.912947e+003,1.876123e+001
1.913911e+003,2.223608e+001
1.914875e+003,2.697498e+001
1.915839e+003,2.913782e+001
1.916803e+003,2.893213e+001
1.917768e+003,2.984595e+001
1.918732e+003,3.284375e+001
1.919696e+003,3.273584e+001
1.920660e+003,2.790491e+001
1.921625e+003,2.543555e+001
1.922589e+003,2.797363e+001
1.923553e+003,3.052881e+001
1.924517e+003,3.023608e+001
1.925481e+003,2.920020e+001
1.926446e+003,2.807251e+001
1.927410e+003,2.804407e+001
1.928374e+003,3.281299e+001
1.929338e+003,4.152319e+001
1.930303e+003,4.502649e+001
1.931267e+003,4.005566e+001
1.932231e+003,3.568835e+001
1.933195e+003,3.537964e+001
1.934160e+003,3.657031e+001
1.935124e+003,3.900110e+001
1.936088e+003,4.028564e+001
1.937052e+003,3.656360e+001
1.938017e+003,3.067786e+001
1.938981e+003,2.873999e+001
1.939945e+003,3.112195e+001
1.940909e+003,3.389490e+001
1.941874e+003,3.504675e+001
1.942838e+003,3.548987e+001
1.943802e+003,3.657874e+001
1.944766e+003,3.780554e+001
1.945730e+003,3.674377e+001
1.946695e+003,3.349548e+001
1.947659e+003,3.184131e+001
1.948623e+003,3.164331e+001
1.949587e+003,3.363831e+001
1.950552e+003,3.948816e+001
1.951516e+003,4.198633e+001
1.952480e+003,3.721021e+001
1.953444e+003,3.168127e+001
1.954408e+003,2.888782e+001
1.955373e+003,2.821326e+001
1.956337e+003,3.077563e+001
1.957301e+003,3.573450e+001
1.958265e+003,3.808154e+001
1.959230e+003,3.751978e+001
1.960194e+003,3.654504e+001
1.961158e+003,3.331750e+001
1.962122e+003,3.124390e+001
1.963087e+003,3.197278e+001
1.964051e+003,3.342749e+001
1.965015e+003,3.612817e+001
1.965979e+003,3.846411e+001
1.966944e+003,3.663379e+001
1.967908e+003,3.331763e+001
1.968872e+003,3.513196e+001
1.969836e+003,4.160889e+001
1.970801e+003,4.548169e+001
1.971765e+003,4.386902e+001
1.972729e+003,4.156335e+001
1.973693e+003,4.263208e+001
1.974657e+003,4.498059e+001
1.975622e+003,4.488574e+001
1.976586e+003,4.344080e+001
1.977550e+003,4.499194e+001
1.978514e+003,4.893506e+001
1.979479e+003,4.984790e+001
1.980443e+003,4.704028e+001
1.981407e+003,4.535535e+001
1.982371e+003,4.685278e+001
1.983335e+003,4.883691e+001
1.984300e+003,4.901086e+001
1.985264e+003,4.800037e+001
1.986228e+003,4.707385e+001
1.987192e+003,4.617664e+001
1.988157e+003,4.500964e+001
1.989121e+003,4.340991e+001
1.990085e+003,4.363232e+001
1.991049e+003,4.770337e+001
1.992014e+003,5.011890e+001
1.992978e+003,4.852087e+001
1.993942e+003,4.690149e+001
1.994906e+003,4.638452e+001
1.995871e+003,4.660815e+001
1.996835e+003,4.721936e+001
1.997799e+003,4.880273e+001
1.998763e+003,5.287402e+001
1.999728e+003,5.826782e+001
