5.003444e+002,3.359875e+001
5.013087e+002,3.430379e+001
5.022729e+002,3.376118e+001
5.032371e+002,3.238545e+001
5.042014e+002,3.139398e+001
5.051656e+002,3.073604e+001
5.061298e+002,2.986681e+001
5.070941e+002,2.815654e+001
5.080583e+002,2.514970e+001
5.090225e+002,2.367162e+001
5.099868e+002,2.384520e+001
5.109510e+002,2.480669e+001
5.119152e+002,2.671945e+001
5.128795e+002,2.971408e+001
5.138437e+002,3.132135e+001
5.148079e+002,2.902510e+001
5.157722e+002,2.678296e+001
5.167364e+002,2.639517e+001
5.177006e+002,2.788544e+001
5.186649e+002,2.971371e+001
5.196291e+002,3.041727e+001
5.205933e+002,3.034558e+001
5.215576e+002,2.937769e+001
5.225218e+002,2.756999e+001
5.234860e+002,2.546736e+001
5.244503e+002,2.418307e+001
5.254145e+002,2.423834e+001
5.263787e+002,2.378087e+001
5.273430e+002,2.236140e+001
5.283072e+002,2.073039e+001
5.292714e+002,1.989125e+001
5.302357e+002,2.000114e+001
5.311999e+002,2.029597e+001
5.321641e+002,2.138214e+001
5.331284e+002,2.236273e+001
5.340926e+002,2.236014e+001
5.350568e+002,2.093668e+001
5.360211e+002,1.910181e+001
5.369853e+002,1.760013e+001
5.379495e+002,1.652199e+001
5.389138e+002,1.590871e+001
5.398780e+002,1.577145e+001
5.408422e+002,1.616447e+001
5.418065e+002,1.782785e+001
5.427707e+002,2.046011e+001
5.437349e+002,2.149704e+001
5.446992e+002,1.978450e+001
5.456634e+002,1.627156e+001
5.466276e+002,1.435796e+001
5.475919e+002,1.580598e+001
5.485561e+002,1.699840e+001
5.495203e+002,1.809203e+001
5.504846e+002,1.865981e+001
5.514488e+002,1.789009e+001
5.524130e+002,1.465607e+001
5.533773e+002,1.220370e+001
5.543415e+002,1.257088e+001
5.553057e+002,1.416713e+001
5.562700e+002,1.547134e+001
5.572342e+002,1.552946e+001
5.581984e+002,1.470934e+001
5.591627e+002,1.365068e+001
5.601269e+002,1.260934e+001
5.610911e+002,1.216447e+001
5.620554e+002,1.263264e+001
5.630196e+002,1.380405e+001
5.639838e+002,1.417563e+001
5.649481e+002,1.358775e+001
5.659123e+002,1.247906e+001
5.668765e+002,1.039565e+001
5.678408e+002,7.956299e+000
5.688050e+002,6.786469e+000
5.697692e+002,7.917175e+000
5.707335e+002,9.254196e+000
5.716977e+002,1.069553e+001
5.726619e+002,1.185715e+001
5.736262e+002,1.223517e+001
5.745904e+002,1.140544e+001
5.755546e+002,1.007848e+001
5.765189e+002,9.112213e+000
5.774831e+002,8.401489e+000
5.784473e+002,8.026489e+000
5.794116e+002,8.090897e+000
5.803758e+002,8.595642e+000
5.813400e+002,8.486160e+000
5.823043e+002,7.375992e+000
5.832685e+002,6.388336e+000
5.842327e+002,6.097015e+000
5.851970e+002,6.466599e+000
5.861612e+002,6.761703e+000
5.871254e+002,6.338135e+000
5.880897e+002,6.321106e+000
5.890539e+002,7.220764e+000
5.900181e+002,8.547989e+000
5.909824e+002,9.562805e+000
5.919466e+002,9.877563e+000
5.929108e+002,9.624695e+000
5.938751e+002,8.875305e+000
5.948393e+002,7.867767e+000
5.958035e+002,7.015182e+000
5.967678e+002,6.626831e+000
5.977320e+002,6.650299e+000
5.986962e+002,6.285141e+000
5.996605e+002,5.451431e+000
6.006247e+002,4.379654e+000
6.015889e+002,2.519516e+000
6.025532e+002,8.088684e-002
6.035174e+002,-1.517029e-001
6.044816e+002,6.255432e+000
6.054459e+002,1.009470e+001
6.064101e+002,8.468613e+000
6.073743e+002,3.601791e+000
6.083386e+002,-4.665985e-001
6.093028e+002,-1.738831e+000
6.102670e+002,-1.387344e+000
6.112313e+002,-2.941437e-001
6.121955e+002,1.277466e+000
6.131597e+002,3.236649e+000
6.141240e+002,5.482758e+000
6.150882e+002,7.652206e+000
6.160524e+002,7.873001e+000
6.170167e+002,6.557831e+000
6.179809e+002,5.511047e+000
6.189451e+002,5.651413e+000
6.199094e+002,6.690567e+000
6.208736e+002,6.824219e+000
6.218378e+002,5.061172e+000
6.228021e+002,3.709198e+000
6.237663e+002,3.340927e+000
6.247305e+002,3.442062e+000
6.256948e+002,3.025238e+000
6.266590e+002,1.302719e+000
6.276232e+002,-2.904663e-001
6.285875e+002,-7.630615e-001
6.295517e+002,-5.917664e-001
6.305159e+002,-3.717041e-001
6.314802e+002,-4.369812e-001
6.324444e+002,-4.961853e-001
6.334086e+002,9.408569e-001
6.343729e+002,3.379135e+000
6.353371e+002,5.189468e+000
6.363013e+002,5.777908e+000
6.372656e+002,5.267593e+000
6.382298e+002,4.158417e+000
6.391940e+002,1.255844e+000
6.401583e+002,-7.045898e-001
6.411225e+002,-1.470276e+000
6.420867e+002,-1.194916e+000
6.430510e+002,2.871246e-001
6.440152e+002,3.630447e+000
6.449794e+002,5.660446e+000
6.459437e+002,4.150711e+000
6.469079e+002,1.421661e+000
6.478721e+002,-1.022675e+000
6.488364e+002,-2.491577e+000
6.498006e+002,-3.165283e+000
6.507648e+002,-3.383911e+000
6.517291e+002,-3.087753e+000
6.526933e+002,-1.604324e+000
6.536575e+002,1.295700e+000
6.546218e+002,4.381165e+000
6.555860e+002,5.217316e+000
6.565502e+002,2.130295e+000
6.575145e+002,2.079163e-001
6.584787e+002,9.164429e-002
6.594429e+002,4.714966e-001
6.604072e+002,1.988220e-001
6.613714e+002,-9.879150e-001
6.623356e+002,-1.632034e+000
6.632999e+002,-7.904053e-003
6.642641e+002,1.308640e+000
6.652283e+002,5.364075e-001
6.661926e+002,-2.003387e+000
6.671568e+002,-4.448517e+000
6.681210e+002,-4.616669e+000
6.690853e+002,-3.055725e+000
6.700495e+002,-1.143265e+000
6.710137e+002,1.001877e+000
6.719780e+002,2.492981e+000
6.729422e+002,2.223587e+000
6.739064e+002,-4.397430e-001
6.748707e+002,-1.213806e+000
6.758349e+002,1.736115e+000
6.767991e+002,3.873932e+000
6.777634e+002,2.756348e+000
6.787276e+002,-1.075195e+000
6.796918e+002,-3.963669e+000
6.806561e+002,-4.582748e+000
6.816203e+002,-4.022842e+000
6.825845e+002,-1.738983e+000
6.835488e+002,1.218842e+000
6.845130e+002,3.338318e+000
6.854772e+002,3.486633e+000
6.864415e+002,2.417923e+000
6.874057e+002,1.449646e+000
6.883699e+002,5.421143e-001
6.893342e+002,2.406311e-002
6.902984e+002,1.552277e-001
6.912626e+002,8.309021e-001
6.922269e+002,1.088364e+000
6.931911e+002,4.636841e-001
6.941553e+002,3.838348e-001
6.951196e+002,1.567352e+000
6.960838e+002,2.966003e+000
6.970480e+002,2.740387e+000
6.980123e+002,-3.345947e-001
6.989765e+002,-2.689041e+000
6.999407e+002,-2.323700e+000
7.009050e+002,-1.227371e+000
7.018692e+002,-1.138077e+000
7.028334e+002,-2.554245e+000
7.037977e+002,-4.270721e+000
7.047619e+002,-4.223068e+000
7.057261e+002,-2.935776e+000
7.066904e+002,-1.433243e+000
7.076546e+002,1.110992e-001
7.086188e+002,1.379837e+000
7.095831e+002,1.794342e+000
7.105473e+002,8.285675e-001
7.115115e+002,4.819794e-001
7.124758e+002,1.341019e+000
7.134400e+002,2.044098e+000
7.144042e+002,1.783066e+000
7.153685e+002,5.767670e-001
7.163327e+002,-8.067169e-001
7.172969e+002,-2.915619e+000
7.182612e+002,-4.218506e+000
7.192254e+002,-3.506805e+000
7.201896e+002,-1.538467e+000
7.211539e+002,1.886902e-001
7.221181e+002,4.365082e-001
7.230823e+002,-3.274994e-001
7.240466e+002,-8.163452e-001
7.250108e+002,-9.852905e-001
7.259750e+002,-8.840027e-001
7.269393e+002,-5.802002e-001
7.279035e+002,-2.496033e-001
7.288677e+002,-4.219971e-001
7.298320e+002,-9.182434e-001
7.307962e+002,-1.775848e+000
7.317604e+002,-3.910492e+000
7.327247e+002,-6.029358e+000
7.336889e+002,-6.073425e+000
7.346531e+002,-2.958206e+000
7.356174e+002,-3.795013e-001
7.365816e+002,-3.686523e-001
7.375458e+002,-1.237015e+000
7.385101e+002,-1.919128e+000
7.394743e+002,-2.042343e+000
7.404385e+002,-1.857727e+000
7.414028e+002,-1.774368e+000
7.423670e+002,-1.929718e+000
7.433312e+002,-1.897446e+000
7.442955e+002,-1.459610e+000
7.452597e+002,-8.967743e-001
7.462239e+002,-6.726532e-001
7.471882e+002,-1.029556e+000
7.481524e+002,-8.701935e-001
7.491166e+002,1.698151e-001
7.500809e+002,9.070740e-001
7.510451e+002,5.606384e-001
7.520093e+002,-5.101624e-001
7.529736e+002,-9.522552e-001
7.539378e+002,3.447723e-001
7.549020e+002,2.005112e+000
7.558663e+002,3.484314e+000
7.568306e+002,4.572891e+000
7.577948e+002,4.688354e+000
7.587590e+002,3.543228e+000
7.597233e+002,1.885117e+000
7.606875e+002,2.811508e+000
7.616517e+002,5.993576e+000
7.626160e+002,7.453171e+000
7.635802e+002,5.623810e+000
7.645444e+002,2.158661e+000
7.655087e+002,5.251617e-001
7.664729e+002,1.659302e+000
7.674371e+002,2.653763e+000
7.684014e+002,3.412369e+000
7.693656e+002,3.890945e+000
7.703298e+002,4.119476e+000
7.712941e+002,4.098511e+000
7.722583e+002,3.662888e+000
7.732225e+002,1.852249e+000
7.741868e+002,4.158020e-001
7.751510e+002,1.399246e+000
7.761152e+002,3.970581e+000
7.770795e+002,5.860382e+000
7.780437e+002,5.029984e+000
7.790079e+002,1.949875e+000
7.799722e+002,1.264145e+000
7.809364e+002,3.118393e+000
7.819006e+002,4.665024e+000
7.828649e+002,4.785934e+000
7.838291e+002,3.899002e+000
7.847933e+002,3.168930e+000
7.857576e+002,2.305420e+000
7.867218e+002,1.900330e+000
7.876860e+002,2.662598e+000
7.886503e+002,3.626450e+000
7.896145e+002,3.921402e+000
7.905787e+002,3.344330e+000
7.915430e+002,2.580215e+000
7.925072e+002,2.265396e+000
7.934714e+002,2.031311e+000
7.944357e+002,1.453873e+000
7.953999e+002,6.870880e-001
7.963641e+002,2.285309e-001
7.973284e+002,5.858917e-001
7.982926e+002,1.770111e+000
7.992568e+002,3.940720e+000
8.002211e+002,8.252747e+000
8.011853e+002,1.096814e+001
8.021495e+002,1.015027e+001
8.031138e+002,6.873016e+000
8.040780e+002,4.462982e+000
8.050422e+002,3.484253e+000
8.060065e+002,3.249954e+000
8.069707e+002,3.704422e+000
8.079349e+002,4.417038e+000
8.088992e+002,5.194305e+000
8.098634e+002,5.943756e+000
8.108276e+002,6.435150e+000
8.117919e+002,5.986221e+000
8.127561e+002,4.866486e+000
8.137203e+002,3.926178e+000
8.146846e+002,3.390594e+000
8.156488e+002,3.330963e+000
8.166130e+002,3.841858e+000
8.175773e+002,5.103271e+000
8.185415e+002,5.631531e+000
8.195057e+002,4.963089e+000
8.204700e+002,4.090942e+000
8.214342e+002,3.011703e+000
8.223984e+002,1.990173e+000
8.233627e+002,1.765579e+000
8.243269e+002,3.097031e+000
8.252911e+002,4.337692e+000
8.262554e+002,4.258011e+000
8.272196e+002,3.747925e+000
8.281838e+002,3.745789e+000
8.291481e+002,4.559814e+000
8.301123e+002,5.747452e+000
8.310765e+002,6.633362e+000
8.320408e+002,7.105865e+000
8.330050e+002,6.941833e+000
8.339692e+002,6.106216e+000
8.349335e+002,4.794983e+000
8.358977e+002,2.685760e+000
8.368619e+002,-6.172028e-001
8.378262e+002,-1.283051e+000
8.387904e+002,3.755524e+000
8.397546e+002,7.826492e+000
8.407189e+002,9.203201e+000
8.416831e+002,8.543915e+000
8.426473e+002,6.967529e+000
8.436116e+002,4.679321e+000
8.445758e+002,2.889343e+000
8.455400e+002,3.229233e+000
8.465043e+002,4.329559e+000
8.474685e+002,4.700592e+000
8.484327e+002,4.088669e+000
8.493970e+002,3.463745e+000
8.503612e+002,4.378265e+000
8.513254e+002,7.194107e+000
8.522897e+002,8.349304e+000
8.532539e+002,6.628433e+000
8.542181e+002,4.897049e+000
8.551824e+002,5.106842e+000
8.561466e+002,7.135010e+000
8.571108e+002,9.067902e+000
8.580751e+002,1.047514e+001
8.590393e+002,1.116972e+001
8.600035e+002,1.070596e+001
8.609678e+002,9.938400e+000
8.619320e+002,9.767914e+000
8.628962e+002,1.053659e+001
8.638605e+002,1.181863e+001
8.648247e+002,1.347528e+001
8.657889e+002,1.496138e+001
8.667532e+002,1.479697e+001
8.677174e+002,1.279555e+001
8.686816e+002,1.051212e+001
8.696459e+002,9.749222e+000
8.706101e+002,1.074956e+001
8.715743e+002,1.199899e+001
8.725386e+002,1.376971e+001
8.735028e+002,1.544472e+001
8.744670e+002,1.732794e+001
8.754313e+002,1.874887e+001
8.763955e+002,1.816078e+001
8.773597e+002,1.432208e+001
8.783240e+002,1.126917e+001
8.792882e+002,1.225153e+001
8.802524e+002,1.489139e+001
8.812167e+002,1.772238e+001
8.821809e+002,2.010440e+001
8.831451e+002,2.182057e+001
8.841094e+002,2.259709e+001
8.850736e+002,2.246783e+001
8.860378e+002,2.164052e+001
8.870021e+002,1.982805e+001
8.879663e+002,1.818100e+001
8.889305e+002,1.733168e+001
8.898948e+002,1.712408e+001
8.908590e+002,1.698978e+001
8.918232e+002,1.719278e+001
8.927875e+002,1.713792e+001
8.937517e+002,1.545432e+001
8.947159e+002,1.436598e+001
8.956802e+002,1.666537e+001
8.966444e+002,2.225768e+001
8.976086e+002,2.704303e+001
8.985729e+002,2.627551e+001
8.995371e+002,2.281662e+001
9.005013e+002,2.159720e+001
9.014656e+002,2.247469e+001
9.024298e+002,2.371506e+001
9.033940e+002,2.395325e+001
9.043583e+002,2.326208e+001
9.053225e+002,2.294444e+001
9.062867e+002,2.305876e+001
9.072510e+002,2.338049e+001
9.082152e+002,2.471338e+001
9.091794e+002,2.596407e+001
9.101437e+002,2.555254e+001
9.111079e+002,2.318945e+001
9.120721e+002,2.164600e+001
9.130364e+002,2.369405e+001
9.140006e+002,2.588869e+001
9.149648e+002,2.600255e+001
9.159291e+002,2.481624e+001
9.168933e+002,2.426132e+001
9.178575e+002,2.562125e+001
9.188218e+002,2.808469e+001
9.197860e+002,2.896620e+001
9.207502e+002,2.820261e+001
9.217145e+002,2.740503e+001
9.226787e+002,2.711763e+001
9.236429e+002,2.694666e+001
9.246072e+002,2.593555e+001
9.255714e+002,2.355170e+001
9.265356e+002,2.272601e+001
9.274999e+002,2.611494e+001
9.284641e+002,2.865500e+001
9.294283e+002,2.816411e+001
9.303926e+002,2.574657e+001
9.313568e+002,2.364639e+001
9.323210e+002,2.303470e+001
9.332853e+002,2.275369e+001
9.342495e+002,2.002663e+001
9.352137e+002,1.653743e+001
9.361780e+002,1.578696e+001
9.371422e+002,1.852666e+001
9.381064e+002,2.164545e+001
9.390707e+002,2.054152e+001
9.400349e+002,1.401045e+001
9.409991e+002,1.072330e+001
9.419634e+002,1.303094e+001
9.429276e+002,1.502809e+001
9.438918e+002,1.461417e+001
9.448561e+002,1.315530e+001
9.458203e+002,1.327916e+001
9.467845e+002,1.605942e+001
9.477488e+002,1.883275e+001
9.487130e+002,1.966251e+001
9.496772e+002,1.956241e+001
9.506415e+002,1.898628e+001
9.516057e+002,1.816458e+001
9.525699e+002,1.729428e+001
9.535342e+002,1.654189e+001
9.544984e+002,1.588724e+001
9.554626e+002,1.557433e+001
9.564269e+002,1.575304e+001
9.573911e+002,1.615016e+001
9.583553e+002,1.716318e+001
9.593196e+002,1.808444e+001
9.602838e+002,1.726280e+001
9.612480e+002,1.376743e+001
9.622123e+002,1.213081e+001
9.631765e+002,1.603763e+001
9.641407e+002,1.975168e+001
9.651050e+002,2.018791e+001
9.660692e+002,1.823817e+001
9.670334e+002,1.648950e+001
9.679977e+002,1.661276e+001
9.689619e+002,1.769977e+001
9.699261e+002,1.783757e+001
9.708904e+002,1.709940e+001
9.718546e+002,1.532347e+001
9.728188e+002,1.209122e+001
9.737831e+002,9.170990e+000
9.747473e+002,9.354111e+000
9.757115e+002,1.352274e+001
9.766758e+002,1.620070e+001
9.776400e+002,1.561046e+001
9.786042e+002,1.586559e+001
9.795685e+002,1.923024e+001
9.805327e+002,2.327087e+001
9.814969e+002,2.475996e+001
9.824612e+002,2.268721e+001
9.834254e+002,1.890283e+001
9.843896e+002,1.298897e+001
9.853539e+002,7.525421e+000
9.863181e+002,6.238419e+000
9.872823e+002,8.561279e+000
9.882466e+002,1.097556e+001
9.892108e+002,1.056859e+001
9.901750e+002,8.040329e+000
9.911393e+002,7.497177e+000
9.921035e+002,1.054897e+001
9.930677e+002,1.244525e+001
9.940320e+002,1.194527e+001
9.949962e+002,1.125319e+001
9.959604e+002,1.264241e+001
9.969247e+002,1.620163e+001
9.978889e+002,1.957697e+001
9.988531e+002,2.178450e+001
9.998174e+002,2.296413e+001
1.000782e+003,2.292749e+001
1.001746e+003,2.231918e+001
1.002710e+003,2.201599e+001
1.003674e+003,2.235539e+001
1.004639e+003,2.287076e+001
1.005603e+003,2.273135e+001
1.006567e+003,2.181715e+001
1.007531e+003,2.112111e+001
1.008495e+003,2.087318e+001
1.009460e+003,2.042348e+001
1.010424e+003,1.899190e+001
1.011388e+003,1.702057e+001
1.012352e+003,1.640656e+001
1.013317e+003,1.830774e+001
1.014281e+003,1.951608e+001
1.015245e+003,1.873119e+001
1.016209e+003,1.723512e+001
1.017174e+003,1.579443e+001
1.018138e+003,1.462599e+001
1.019102e+003,1.361938e+001
1.020066e+003,1.269691e+001
1.021031e+003,1.199478e+001
1.021995e+003,1.200194e+001
1.022959e+003,1.242409e+001
1.023923e+003,1.204951e+001
1.024887e+003,1.027715e+001
1.025852e+003,7.843658e+000
1.026816e+003,5.945511e+000
1.027780e+003,4.777130e+000
1.028744e+003,3.628159e+000
1.029709e+003,1.771149e+000
1.030673e+003,6.640015e-001
1.031637e+003,1.229309e+000
1.032601e+003,2.551727e+000
1.033566e+003,3.509445e+000
1.034530e+003,3.721909e+000
1.035494e+003,3.349838e+000
1.036458e+003,1.937592e+000
1.037422e+003,3.794556e-001
1.038387e+003,4.860382e-001
1.039351e+003,2.101334e+000
1.040315e+003,3.532028e+000
1.041279e+003,3.444382e+000
1.042244e+003,2.364441e+000
1.043208e+003,2.818634e+000
1.044172e+003,6.792343e+000
1.045136e+003,8.568481e+000
1.046101e+003,6.581970e+000
1.047065e+003,4.074341e+000
1.048029e+003,2.865616e+000
1.048993e+003,2.933502e+000
1.049958e+003,3.654724e+000
1.050922e+003,5.177689e+000
1.051886e+003,6.315903e+000
1.052850e+003,5.693314e+000
1.053814e+003,4.072235e+000
1.054779e+003,1.861237e+000
1.055743e+003,-5.882874e-001
1.056707e+003,-2.061768e+000
1.057671e+003,-9.664764e-001
1.058636e+003,2.699997e+000
1.059600e+003,4.570404e+000
1.060564e+003,3.634293e+000
1.061528e+003,2.749619e+000
1.062493e+003,1.976257e+000
1.063457e+003,1.417480e+000
1.064421e+003,1.553268e+000
1.065385e+003,2.430542e+000
1.066349e+003,2.623810e+000
1.067314e+003,4.922638e-001
1.068278e+003,-1.408798e+000
1.069242e+003,-8.637390e-001
1.070206e+003,1.016754e+000
1.071171e+003,2.480896e+000
1.072135e+003,2.701859e+000
1.073099e+003,1.974976e+000
1.074063e+003,7.953186e-001
1.075028e+003,-9.093781e-001
1.075992e+003,-1.300278e+000
1.076956e+003,2.539520e-001
1.077920e+003,1.638306e+000
1.078885e+003,1.900314e+000
1.079849e+003,1.691727e+000
1.080813e+003,2.414841e+000
1.081777e+003,4.582443e+000
1.082741e+003,5.945129e+000
1.083706e+003,3.957718e+000
1.084670e+003,1.842255e+000
1.085634e+003,1.561401e+000
1.086598e+003,2.524277e+000
1.087563e+003,3.344727e+000
1.088527e+003,3.283966e+000
1.089491e+003,2.787552e+000
1.090455e+003,2.587891e+000
1.091420e+003,2.646301e+000
1.092384e+003,2.402512e+000
1.093348e+003,1.679382e+000
1.094312e+003,8.360748e-001
1.095276e+003,-1.721954e-001
1.096241e+003,-1.016968e+000
1.097205e+003,-6.441193e-001
1.098169e+003,1.595856e+000
1.099133e+003,3.284927e+000
1.100098e+003,3.240631e+000
1.101062e+003,2.765564e+000
1.102026e+003,2.377701e+000
1.102990e+003,2.288666e+000
1.103955e+003,2.827103e+000
1.104919e+003,4.142136e+000
1.105883e+003,5.429810e+000
1.106847e+003,4.737030e+000
1.107812e+003,2.045090e+000
1.108776e+003,1.073105e+000
1.109740e+003,2.819550e+000
1.110704e+003,4.539581e+000
1.111668e+003,3.745346e+000
1.112633e+003,1.298965e+000
1.113597e+003,1.005127e+000
1.114561e+003,4.457092e+000
1.115525e+003,6.919434e+000
1.116490e+003,6.381607e+000
1.117454e+003,5.038605e+000
1.118418e+003,4.114304e+000
1.119382e+003,3.756744e+000
1.120347e+003,3.595993e+000
1.121311e+003,3.322739e+000
1.122275e+003,2.891830e+000
1.123239e+003,2.307297e+000
1.124203e+003,1.802734e+000
1.125168e+003,2.503693e+000
1.126132e+003,4.997070e+000
1.127096e+003,7.478592e+000
1.128060e+003,8.338699e+000
1.129025e+003,7.911804e+000
1.129989e+003,7.990845e+000
1.130953e+003,8.946854e+000
1.131917e+003,9.714615e+000
1.132882e+003,9.799637e+000
1.133846e+003,9.920792e+000
1.134810e+003,1.068610e+001
1.135774e+003,1.185619e+001
1.136739e+003,1.262558e+001
1.137703e+003,1.255276e+001
1.138667e+003,1.243626e+001
1.139631e+003,1.391057e+001
1.140595e+003,1.673396e+001
1.141560e+003,1.863388e+001
1.142524e+003,1.922369e+001
1.143488e+003,2.021484e+001
1.144452e+003,2.286896e+001
1.145417e+003,2.681493e+001
1.146381e+003,3.076433e+001
1.147345e+003,3.473608e+001
1.148309e+003,3.843855e+001
1.149274e+003,4.109468e+001
1.150238e+003,4.430058e+001
1.151202e+003,4.905371e+001
1.152166e+003,5.505028e+001
1.153130e+003,6.203047e+001
1.154095e+003,6.959030e+001
1.155059e+003,7.615245e+001
1.156023e+003,7.967165e+001
1.156987e+003,8.009268e+001
1.157952e+003,7.853949e+001
1.158916e+003,7.498721e+001
1.159880e+003,7.085739e+001
1.160844e+003,6.662875e+001
1.161809e+003,6.204350e+001
1.162773e+003,5.677605e+001
1.163737e+003,5.068138e+001
1.164701e+003,4.458768e+001
1.165666e+003,3.817488e+001
1.166630e+003,3.252811e+001
1.167594e+003,2.772337e+001
1.168558e+003,2.406268e+001
1.169522e+003,2.244810e+001
1.170487e+003,2.278789e+001
1.171451e+003,2.323206e+001
1.172415e+003,2.157971e+001
1.173379e+003,1.834868e+001
1.174344e+003,1.636586e+001
1.175308e+003,1.557451e+001
1.176272e+003,1.574292e+001
1.177236e+003,1.773357e+001
1.178201e+003,2.000014e+001
1.179165e+003,2.036153e+001
1.180129e+003,1.872922e+001
1.181093e+003,1.698209e+001
1.182057e+003,1.529396e+001
1.183022e+003,1.395755e+001
1.183986e+003,1.282552e+001
1.184950e+003,1.222142e+001
1.185914e+003,1.283389e+001
1.186879e+003,1.441328e+001
1.187843e+003,1.580742e+001
1.188807e+003,1.604300e+001
1.189771e+003,1.548232e+001
1.190736e+003,1.535835e+001
1.191700e+003,1.574234e+001
1.192664e+003,1.567807e+001
1.193628e+003,1.511176e+001
1.194593e+003,1.417207e+001
1.195557e+003,1.272824e+001
1.196521e+003,1.093776e+001
1.197485e+003,9.323273e+000
1.198449e+003,7.826736e+000
1.199414e+003,7.019058e+000
1.200378e+003,8.019836e+000
1.201342e+003,9.021317e+000
1.202306e+003,9.024872e+000
1.203271e+003,8.013474e+000
1.204235e+003,5.800919e+000
1.205199e+003,2.559998e+000
1.206163e+003,-1.371307e-001
1.207128e+003,5.372620e-001
1.208092e+003,4.848007e+000
1.209056e+003,6.744965e+000
1.210020e+003,5.717163e+000
1.210984e+003,3.881241e+000
1.211949e+003,1.262741e+000
1.212913e+003,-1.536804e+000
1.213877e+003,-3.852448e+000
1.214841e+003,-5.591141e+000
1.215806e+003,-6.474792e+000
1.216770e+003,-6.023819e+000
1.217734e+003,-5.283386e+000
1.218698e+003,-5.099030e+000
1.219663e+003,-5.112778e+000
1.220627e+003,-4.587769e+000
1.221591e+003,-3.616272e+000
1.222555e+003,-3.240295e+000
1.223520e+003,-4.430176e+000
1.224484e+003,-6.860825e+000
1.225448e+003,-9.181351e+000
1.226412e+003,-1.180591e+001
1.227376e+003,-1.324565e+001
1.228341e+003,-1.301056e+001
1.229305e+003,-1.225743e+001
1.230269e+003,-1.135098e+001
1.231233e+003,-1.045279e+001
1.232198e+003,-9.831329e+000
1.233162e+003,-9.534302e+000
1.234126e+003,-9.083527e+000
1.235090e+003,-7.620499e+000
1.236055e+003,-6.506683e+000
1.237019e+003,-7.596893e+000
1.237983e+003,-1.018321e+001
1.238947e+003,-1.239522e+001
1.239911e+003,-1.340019e+001
1.240876e+003,-1.338516e+001
1.241840e+003,-1.252028e+001
1.242804e+003,-1.071773e+001
1.243768e+003,-9.607132e+000
1.244733e+003,-1.054436e+001
1.245697e+003,-1.031857e+001
1.246661e+003,-7.446457e+000
1.247625e+003,-4.612778e+000
1.248590e+003,-4.024796e+000
1.249554e+003,-5.163956e+000
1.250518e+003,-5.980728e+000
1.251482e+003,-5.571777e+000
1.252447e+003,-5.027679e+000
1.253411e+003,-5.834061e+000
1.254375e+003,-7.206711e+000
1.255339e+003,-7.340988e+000
1.256303e+003,-6.192612e+000
1.257268e+003,-5.414932e+000
1.258232e+003,-6.266220e+000
1.259196e+003,-7.805161e+000
1.260160e+003,-7.823380e+000
1.261125e+003,-5.919617e+000
1.262089e+003,-4.498932e+000
1.263053e+003,-4.380829e+000
1.264017e+003,-4.232651e+000
1.264982e+003,-3.708923e+000
1.265946e+003,-2.972992e+000
1.266910e+003,-2.159164e+000
1.267874e+003,-1.312271e+000
1.268839e+003,-2.967682e-001
1.269803e+003,9.929657e-001
1.270767e+003,2.051651e+000
1.271731e+003,1.809006e+000
1.272695e+003,3.006592e-001
1.273660e+003,-1.296768e+000
1.274624e+003,-3.364410e+000
1.275588e+003,-4.794373e+000
1.276552e+003,-4.209259e+000
1.277517e+003,-2.765915e+000
1.278481e+003,-2.948990e+000
1.279445e+003,-5.051712e+000
1.280409e+003,-6.837326e+000
1.281374e+003,-7.595032e+000
1.282338e+003,-7.804337e+000
1.283302e+003,-7.036148e+000
1.284266e+003,-6.341934e+000
1.285230e+003,-7.353882e+000
1.286195e+003,-9.880295e+000
1.287159e+003,-1.202124e+001
1.288123e+003,-1.217462e+001
1.289087e+003,-1.081168e+001
1.290052e+003,-9.507156e+000
1.291016e+003,-8.303680e+000
1.291980e+003,-7.242981e+000
1.292944e+003,-5.786667e+000
1.293909e+003,-5.277740e+000
1.294873e+003,-6.681686e+000
1.295837e+003,-8.941879e+000
1.296801e+003,-1.097603e+001
1.297766e+003,-1.251270e+001
1.298730e+003,-1.285959e+001
1.299694e+003,-1.125368e+001
1.300658e+003,-9.160980e+000
1.301622e+003,-8.304184e+000
1.302587e+003,-7.969803e+000
1.303551e+003,-6.681778e+000
1.304515e+003,-4.335495e+000
1.305479e+003,-2.945206e+000
1.306444e+003,-4.408630e+000
1.307408e+003,-7.766983e+000
1.308372e+003,-9.643112e+000
1.309336e+003,-9.689941e+000
1.310301e+003,-9.296509e+000
1.311265e+003,-7.534958e+000
1.312229e+003,-6.497330e+000
1.313193e+003,-7.679092e+000
1.314157e+003,-9.343475e+000
1.315122e+003,-9.540558e+000
1.316086e+003,-8.224518e+000
1.317050e+003,-6.580673e+000
1.318014e+003,-5.270279e+000
1.318979e+003,-4.711563e+000
1.319943e+003,-6.338379e+000
1.320907e+003,-9.637405e+000
1.321871e+003,-1.020541e+001
1.322836e+003,-7.092529e+000
1.323800e+003,-4.449844e+000
1.324764e+003,-5.172897e+000
1.325728e+003,-7.339920e+000
1.326693e+003,-7.516968e+000
1.327657e+003,-5.618591e+000
1.328621e+003,-4.202316e+000
1.329585e+003,-3.693787e+000
1.330549e+003,-3.723938e+000
1.331514e+003,-4.581192e+000
1.332478e+003,-5.760651e+000
1.333442e+003,-6.816895e+000
1.334406e+003,-7.604034e+000
1.335371e+003,-8.112762e+000
1.336335e+003,-8.341553e+000
1.337299e+003,-8.272125e+000
1.338263e+003,-7.891205e+000
1.339228e+003,-7.183578e+000
1.340192e+003,-6.248520e+000
1.341156e+003,-4.358963e+000
1.342120e+003,-3.317642e+000
1.343084e+003,-4.052902e+000
1.344049e+003,-5.278305e+000
1.345013e+003,-5.872238e+000
1.345977e+003,-5.913269e+000
1.346941e+003,-6.082123e+000
1.347906e+003,-6.637650e+000
1.348870e+003,-7.306488e+000
1.349834e+003,-8.009277e+000
1.350798e+003,-8.584869e+000
1.351763e+003,-8.728745e+000
1.352727e+003,-8.435760e+000
1.353691e+003,-7.756393e+000
1.354655e+003,-6.596069e+000
1.355620e+003,-5.406174e+000
1.356584e+003,-4.440460e+000
1.357548e+003,-3.769302e+000
1.358512e+003,-4.482986e+000
1.359476e+003,-7.400726e+000
1.360441e+003,-9.954788e+000
1.361405e+003,-1.188425e+001
1.362369e+003,-1.281352e+001
1.363333e+003,-1.185846e+001
1.364298e+003,-1.010135e+001
1.365262e+003,-8.974365e+000
1.366226e+003,-8.825027e+000
1.367190e+003,-9.101852e+000
1.368155e+003,-9.333191e+000
1.369119e+003,-9.348572e+000
1.370083e+003,-8.523010e+000
1.371047e+003,-6.419479e+000
1.372011e+003,-5.198547e+000
1.372976e+003,-5.444962e+000
1.373940e+003,-5.931671e+000
1.374904e+003,-6.511108e+000
1.375868e+003,-6.821259e+000
1.376833e+003,-6.025085e+000
1.377797e+003,-4.369263e+000
1.378761e+003,-3.839371e+000
1.379725e+003,-5.615585e+000
1.380690e+003,-7.562866e+000
1.381654e+003,-7.320816e+000
1.382618e+003,-5.901672e+000
1.383582e+003,-4.347473e+000
1.384547e+003,-2.864883e+000
1.385511e+003,-2.040970e+000
1.386475e+003,-2.278595e+000
1.387439e+003,-3.096741e+000
1.388403e+003,-3.895737e+000
1.389368e+003,-4.682190e+000
1.390332e+003,-4.941452e+000
1.391296e+003,-4.290787e+000
1.392260e+003,-3.736191e+000
1.393225e+003,-3.504593e+000
1.394189e+003,-3.454681e+000
1.395153e+003,-3.454285e+000
1.396117e+003,-3.601486e+000
1.397082e+003,-4.222702e+000
1.398046e+003,-5.241226e+000
1.399010e+003,-5.958725e+000
1.399974e+003,-5.759247e+000
1.400938e+003,-5.136917e+000
1.401903e+003,-5.452286e+000
1.402867e+003,-6.929199e+000
1.403831e+003,-7.242523e+000
1.404795e+003,-5.826385e+000
1.405760e+003,-4.284653e+000
1.406724e+003,-3.005554e+000
1.407688e+003,-2.275131e+000
1.408652e+003,-2.638016e+000
1.409617e+003,-3.717651e+000
1.410581e+003,-3.947800e+000
1.411545e+003,-2.602264e+000
1.412509e+003,-8.650055e-001
1.413474e+003,4.962463e-001
1.414438e+003,1.086975e+000
1.415402e+003,8.374023e-002
1.416366e+003,-2.147995e+000
1.417330e+003,-3.957489e+000
1.418295e+003,-4.795837e+000
1.419259e+003,-4.650345e+000
1.420223e+003,-2.938965e+000
1.421187e+003,-1.324768e-001
1.422152e+003,9.701385e-001
1.423116e+003,-1.229706e-001
1.424080e+003,-1.161346e+000
1.425044e+003,-2.004257e+000
1.426009e+003,-2.321259e+000
1.426973e+003,-1.488113e+000
1.427937e+003,-3.369293e-001
1.428901e+003,2.114716e-001
1.429865e+003,9.606934e-002
1.430830e+003,-3.031769e-001
1.431794e+003,-7.555542e-001
1.432758e+003,-1.102478e+000
1.433722e+003,-9.232330e-001
1.434687e+003,-8.110046e-002
1.435651e+003,1.170502e+000
1.436615e+003,3.812592e+000
1.437579e+003,4.804214e+000
1.438544e+003,2.500549e+000
1.439508e+003,-4.756165e-002
1.440472e+003,-7.197113e-001
1.441436e+003,-6.317139e-002
1.442401e+003,4.551544e-001
1.443365e+003,4.847565e-001
1.444329e+003,1.025314e+000
1.445293e+003,3.053589e+000
1.446257e+003,5.451355e+000
1.447222e+003,5.952423e+000
1.448186e+003,4.821777e+000
1.449150e+003,3.287186e+000
1.450114e+003,1.152435e+000
1.451079e+003,-3.054504e-001
1.452043e+003,2.758789e-001
1.453007e+003,1.519302e+000
1.453971e+003,1.283585e+000
1.454936e+003,-2.579803e-001
1.455900e+003,-1.314438e+000
1.456864e+003,-1.443161e+000
1.457828e+003,-1.147934e+000
1.458792e+003,-2.582855e-001
1.459757e+003,4.092407e-001
1.460721e+003,-9.873962e-002
1.461685e+003,-1.262726e+000
1.462649e+003,-2.004639e+000
1.463614e+003,-2.002640e+000
1.464578e+003,-1.607025e+000
1.465542e+003,-1.116302e+000
1.466506e+003,-5.953674e-001
1.467471e+003,-1.131744e-001
1.468435e+003,4.548798e-001
1.469399e+003,8.419037e-001
1.470363e+003,1.661377e-001
1.471328e+003,3.879242e-001
1.472292e+003,2.808258e+000
1.473256e+003,5.237885e+000
1.474220e+003,6.405609e+000
1.475184e+003,6.453049e+000
1.476149e+003,5.563492e+000
1.477113e+003,4.009399e+000
1.478077e+003,2.888031e+000
1.479041e+003,3.406586e+000
1.480006e+003,4.695297e+000
1.480970e+003,3.522842e+000
1.481934e+003,-1.392090e+000
1.482898e+003,-3.598038e+000
1.483863e+003,-1.417496e+000
1.484827e+003,7.532196e-001
1.485791e+003,2.100510e+000
1.486755e+003,2.821564e+000
1.487719e+003,2.557846e+000
1.488684e+003,1.829010e+000
1.489648e+003,2.175293e+000
1.490612e+003,4.080643e+000
1.491576e+003,5.896210e+000
1.492541e+003,6.159561e+000
1.493505e+003,5.561859e+000
1.494469e+003,5.502502e+000
1.495433e+003,5.844421e+000
1.496398e+003,6.459717e+000
1.497362e+003,7.500259e+000
1.498326e+003,8.750793e+000
1.499290e+003,9.891449e+000
1.500255e+003,1.129507e+001
1.501219e+003,1.371834e+001
1.502183e+003,1.690427e+001
1.503147e+003,1.936002e+001
1.504111e+003,2.058228e+001
1.505076e+003,2.197725e+001
1.506040e+003,2.441675e+001
1.507004e+003,2.739294e+001
1.507968e+003,3.016464e+001
1.508933e+003,3.309047e+001
1.509897e+003,3.698047e+001
1.510861e+003,4.209451e+001
1.511825e+003,4.794568e+001
1.512790e+003,5.416922e+001
1.513754e+003,6.068553e+001
1.514718e+003,6.763670e+001
1.515682e+003,7.492780e+001
1.516646e+003,8.172136e+001
1.517611e+003,8.825929e+001
1.518575e+003,9.380986e+001
1.519539e+003,9.799860e+001
1.520503e+003,1.014778e+002
1.521468e+003,1.048540e+002
1.522432e+003,1.074833e+002
1.523396e+003,1.084259e+002
1.524360e+003,1.076216e+002
1.525325e+003,1.057294e+002
1.526289e+003,1.032145e+002
1.527253e+003,1.000297e+002
1.528217e+003,9.599002e+001
1.529182e+003,9.116196e+001
1.530146e+003,8.610284e+001
1.531110e+003,8.088237e+001
1.532074e+003,7.509793e+001
1.533039e+003,6.885236e+001
1.534003e+003,6.155803e+001
1.534967e+003,5.172597e+001
1.535931e+003,4.192076e+001
1.536896e+003,3.535016e+001
1.537860e+003,3.167490e+001
1.538824e+003,2.805618e+001
1.539788e+003,2.300807e+001
1.540752e+003,1.770161e+001
1.541717e+003,1.361078e+001
1.542681e+003,1.086555e+001
1.543645e+003,9.946960e+000
1.544609e+003,1.228926e+001
1.545573e+003,1.299426e+001
1.546538e+003,1.062695e+001
1.547502e+003,8.312317e+000
1.548466e+003,7.215851e+000
1.549430e+003,6.895065e+000
1.550395e+003,6.972900e+000
1.551359e+003,7.236984e+000
1.552323e+003,7.372086e+000
1.553287e+003,7.309357e+000
1.554252e+003,7.667542e+000
1.555216e+003,9.236160e+000
1.556180e+003,1.085374e+001
1.557144e+003,9.299515e+000
1.558109e+003,4.487640e+000
1.559073e+003,1.998337e+000
1.560037e+003,2.874084e+000
1.561001e+003,3.829834e+000
1.561966e+003,4.020584e+000
1.562930e+003,3.863907e+000
1.563894e+003,3.509766e+000
1.564858e+003,3.064224e+000
1.565823e+003,2.751572e+000
1.566787e+003,2.613861e+000
1.567751e+003,2.697845e+000
1.568715e+003,3.096680e+000
1.569679e+003,3.659622e+000
1.570644e+003,4.391525e+000
1.571608e+003,4.966782e+000
1.572572e+003,4.422775e+000
1.573536e+003,2.752075e+000
1.574500e+003,1.721558e+000
1.575465e+003,1.908722e+000
1.576429e+003,2.827957e+000
1.577393e+003,4.440475e+000
1.578357e+003,6.308472e+000
1.579322e+003,7.872879e+000
1.580286e+003,9.040558e+000
1.581250e+003,8.868118e+000
1.582214e+003,6.598053e+000
1.583179e+003,4.709885e+000
1.584143e+003,5.360550e+000
1.585107e+003,7.011780e+000
1.586071e+003,7.917130e+000
1.587036e+003,8.202866e+000
1.588000e+003,7.775909e+000
1.588964e+003,6.484940e+000
1.589928e+003,5.506149e+000
1.590893e+003,5.706314e+000
1.591857e+003,6.601013e+000
1.592821e+003,7.760345e+000
1.593785e+003,9.050217e+000
1.594750e+003,9.510849e+000
1.595714e+003,8.869827e+000
1.596678e+003,8.122955e+000
1.597642e+003,7.532898e+000
1.598606e+003,7.181122e+000
1.599571e+003,7.391403e+000
1.600535e+003,7.758438e+000
1.601499e+003,7.580505e+000
1.602463e+003,6.945038e+000
1.603427e+003,6.649857e+000
1.604392e+003,7.040039e+000
1.605356e+003,7.715744e+000
1.606320e+003,8.265213e+000
1.607284e+003,8.795914e+000
1.608249e+003,9.757523e+000
1.609213e+003,1.117664e+001
1.610177e+003,1.206717e+001
1.611141e+003,1.220470e+001
1.612106e+003,1.196695e+001
1.613070e+003,1.102676e+001
1.614034e+003,1.022609e+001
1.614998e+003,1.037338e+001
1.615963e+003,1.101563e+001
1.616927e+003,1.135577e+001
1.617891e+003,1.125385e+001
1.618855e+003,1.098448e+001
1.619820e+003,1.064435e+001
1.620784e+003,1.027925e+001
1.621748e+003,1.018311e+001
1.622712e+003,1.039104e+001
1.623677e+003,1.024561e+001
1.624641e+003,9.581268e+000
1.625605e+003,9.653778e+000
1.626569e+003,1.124042e+001
1.627533e+003,1.229893e+001
1.628498e+003,1.164537e+001
1.629462e+003,1.045552e+001
1.630426e+003,9.115509e+000
1.631390e+003,8.151917e+000
1.632354e+003,8.908859e+000
1.633319e+003,1.144789e+001
1.634283e+003,1.354181e+001
1.635247e+003,1.352757e+001
1.636211e+003,1.213295e+001
1.637176e+003,1.032939e+001
1.638140e+003,8.247971e+000
1.639104e+003,7.396866e+000
1.640068e+003,8.135193e+000
1.641033e+003,8.734283e+000
1.641997e+003,8.921524e+000
1.642961e+003,8.753250e+000
1.643925e+003,7.822723e+000
1.644890e+003,6.917343e+000
1.645854e+003,6.818726e+000
1.646818e+003,7.390533e+000
1.647782e+003,8.307312e+000
1.648747e+003,9.387527e+000
1.649711e+003,9.955093e+000
1.650675e+003,9.310165e+000
1.651639e+003,8.294083e+000
1.652604e+003,8.995926e+000
1.653568e+003,1.124860e+001
1.654532e+003,1.114459e+001
1.655496e+003,7.458572e+000
1.656460e+003,5.165924e+000
1.657425e+003,6.987396e+000
1.658389e+003,8.814072e+000
1.659353e+003,7.997314e+000
1.660317e+003,6.360718e+000
1.661281e+003,5.880615e+000
1.662246e+003,6.335220e+000
1.663210e+003,6.520081e+000
1.664174e+003,6.070282e+000
1.665138e+003,5.515167e+000
1.666103e+003,5.138824e+000
1.667067e+003,5.097885e+000
1.668031e+003,5.980774e+000
1.668995e+003,7.711685e+000
1.669960e+003,9.081070e+000
1.670924e+003,1.021091e+001
1.671888e+003,1.009752e+001
1.672852e+003,7.430557e+000
1.673817e+003,4.785141e+000
1.674781e+003,3.818024e+000
1.675745e+003,3.682953e+000
1.676709e+003,3.391022e+000
1.677674e+003,3.094894e+000
1.678638e+003,3.690063e+000
1.679602e+003,5.440033e+000
1.680566e+003,7.167313e+000
1.681531e+003,8.120682e+000
1.682495e+003,8.409912e+000
1.683459e+003,7.988571e+000
1.684423e+003,6.911301e+000
1.685387e+003,5.767014e+000
1.686352e+003,4.595078e+000
1.687316e+003,3.692245e+000
1.688280e+003,3.181412e+000
1.689244e+003,2.890686e+000
1.690208e+003,2.513153e+000
1.691173e+003,2.386688e+000
1.692137e+003,3.394424e+000
1.693101e+003,5.070038e+000
1.694065e+003,5.613968e+000
1.695030e+003,4.485352e+000
1.695994e+003,3.069321e+000
1.696958e+003,1.977463e+000
1.697922e+003,1.419952e+000
1.698887e+003,2.003815e+000
1.699851e+003,3.295792e+000
1.700815e+003,3.928818e+000
1.701779e+003,3.746628e+000
1.702744e+003,3.028763e+000
1.703708e+003,1.738251e+000
1.704672e+003,8.166504e-001
1.705636e+003,1.083328e+000
1.706601e+003,1.743896e+000
1.707565e+003,1.676514e+000
1.708529e+003,1.173508e+000
1.709493e+003,9.685669e-001
1.710458e+003,1.144226e+000
1.711422e+003,1.502563e+000
1.712386e+003,2.362640e+000
1.713350e+003,3.023346e+000
1.714314e+003,2.546463e+000
1.715279e+003,1.577713e+000
1.716243e+003,1.407043e+000
1.717207e+003,1.916931e+000
1.718171e+003,1.854828e+000
1.719135e+003,8.923798e-001
1.720100e+003,4.894714e-001
1.721064e+003,1.903183e+000
1.722028e+003,3.351456e+000
1.722992e+003,1.874908e+000
1.723957e+003,-1.677460e+000
1.724921e+003,-2.671112e+000
1.725885e+003,-7.873383e-001
1.726849e+003,4.775543e-001
1.727814e+003,5.202637e-001
1.728778e+003,2.334442e-001
1.729742e+003,-2.812195e-001
1.730706e+003,-7.597504e-001
1.731671e+003,-8.175354e-001
1.732635e+003,-8.335876e-001
1.733599e+003,-1.932617e+000
1.734563e+003,-3.811829e+000
1.735528e+003,-3.902863e+000
1.736492e+003,-9.006653e-001
1.737456e+003,2.448563e+000
1.738420e+003,2.891357e+000
1.739385e+003,1.029648e+000
1.740349e+003,-7.689514e-001
1.741313e+003,-2.552963e+000
1.742277e+003,-3.706879e+000
1.743241e+003,-4.656036e+000
1.744206e+003,-4.266327e+000
1.745170e+003,-8.029327e-001
1.746134e+003,2.119492e+000
1.747098e+003,2.181274e+000
1.748063e+003,8.708954e-001
1.749027e+003,-3.458099e-001
1.749991e+003,-1.125854e+000
1.750955e+003,-1.410782e+000
1.751919e+003,-1.284027e+000
1.752884e+003,-1.171524e+000
1.753848e+003,-1.426239e+000
1.754812e+003,-1.925949e+000
1.755776e+003,-2.429474e+000
1.756741e+003,-2.855286e+000
1.757705e+003,-2.580154e+000
1.758669e+003,-1.207748e+000
1.759633e+003,-4.963074e-001
1.760598e+003,-1.249527e+000
1.761562e+003,-1.898849e+000
1.762526e+003,-1.465424e+000
1.763490e+003,-1.142975e+000
1.764455e+003,-2.535873e+000
1.765419e+003,-4.202042e+000
1.766383e+003,-3.224960e+000
1.767347e+003,-3.665161e-002
1.768312e+003,1.501923e+000
1.769276e+003,-4.816895e-001
1.770240e+003,-3.105515e+000
1.771204e+003,-3.230499e+000
1.772168e+003,-1.797867e+000
1.773133e+003,-1.154205e+000
1.774097e+003,-1.194809e+000
1.775061e+003,-7.536621e-001
1.776025e+003,3.010712e-001
1.776990e+003,1.105438e+000
1.777954e+003,1.482925e+000
1.778918e+003,1.575928e+000
1.779882e+003,1.464127e+000
1.780846e+003,9.804382e-001
1.781811e+003,-2.107239e-001
1.782775e+003,-1.836639e+000
1.783739e+003,-3.192017e+000
1.784703e+003,-4.213196e+000
1.785668e+003,-4.259888e+000
1.786632e+003,-2.349213e+000
1.787596e+003,-5.321655e-001
1.788560e+003,-4.516602e-001
1.789525e+003,-1.066513e+000
1.790489e+003,-1.134872e+000
1.791453e+003,-7.085266e-001
1.792417e+003,4.556274e-002
1.793382e+003,9.767456e-001
1.794346e+003,1.151276e+000
1.795310e+003,1.390076e-002
1.796274e+003,-1.482132e+000
1.797239e+003,-2.212830e+000
1.798203e+003,-2.326187e+000
1.799167e+003,-2.603714e+000
1.800131e+003,-3.292511e+000
1.801095e+003,-3.545822e+000
1.802060e+003,-3.050171e+000
1.803024e+003,-2.375473e+000
1.803988e+003,-1.579681e+000
1.804952e+003,-7.170563e-001
1.805917e+003,6.363373e-001
1.806881e+003,1.659103e+000
1.807845e+003,1.069763e+000
1.808809e+003,-2.710876e-001
1.809773e+003,-2.431335e-001
1.810738e+003,1.278030e+000
1.811702e+003,2.018600e+000
1.812666e+003,5.803070e-001
1.813630e+003,-1.419495e+000
1.814595e+003,-1.759933e+000
1.815559e+003,-9.202881e-001
1.816523e+003,-9.023132e-001
1.817487e+003,-1.838852e+000
1.818452e+003,-1.780670e+000
1.819416e+003,-7.049561e-002
1.820380e+003,1.192154e+000
1.821344e+003,1.154083e+000
1.822309e+003,7.925262e-001
1.823273e+003,9.019928e-001
1.824237e+003,9.250031e-001
1.825201e+003,1.927185e-002
1.826166e+003,-1.476608e+000
1.827130e+003,-2.674454e+000
1.828094e+003,-3.429688e+000
1.829058e+003,-3.598358e+000
1.830022e+003,-2.768814e+000
1.830987e+003,-1.931458e+000
1.831951e+003,-2.160599e+000
1.832915e+003,-2.692902e+000
1.833879e+003,-2.194702e+000
1.834844e+003,-1.068420e+000
1.835808e+003,-8.276978e-001
1.836772e+003,-1.579773e+000
1.837736e+003,-1.991501e+000
1.838700e+003,-1.519897e+000
1.839665e+003,-5.585022e-001
1.840629e+003,7.125854e-001
1.841593e+003,1.861542e+000
1.842557e+003,1.803482e+000
1.843522e+003,5.589447e-001
1.844486e+003,8.468628e-003
1.845450e+003,8.034058e-001
1.846414e+003,1.232574e+000
1.847379e+003,8.886871e-001
1.848343e+003,4.902649e-001
1.849307e+003,1.852417e-001
1.850271e+003,4.516602e-002
1.851236e+003,3.600311e-001
1.852200e+003,7.802277e-001
1.853164e+003,6.366425e-001
1.854128e+003,3.967285e-004
1.855093e+003,-3.999634e-001
1.856057e+003,-2.590027e-001
1.857021e+003,-1.215820e-001
1.857985e+003,-5.306549e-001
1.858949e+003,-1.027679e+000
1.859914e+003,-7.773438e-001
1.860878e+003,1.449890e-001
1.861842e+003,1.290009e+000
1.862806e+003,2.636185e+000
1.863771e+003,3.945129e+000
1.864735e+003,5.485901e+000
1.865699e+003,5.232300e+000
1.866663e+003,1.385422e+000
1.867627e+003,-2.646423e+000
1.868592e+003,-4.090256e+000
1.869556e+003,-3.721817e+000
1.870520e+003,-2.378647e+000
1.871484e+003,-3.495026e-001
1.872449e+003,2.575684e-001
1.873413e+003,-1.146896e+000
1.874377e+003,-1.618561e+000
1.875341e+003,5.969543e-001
1.876306e+003,2.391556e+000
1.877270e+003,1.583496e+000
1.878234e+003,0.000000e+000
1.879198e+003,-5.930939e-001
1.880163e+003,-4.446564e-001
1.881127e+003,-2.559052e-001
1.882091e+003,-1.443481e-001
1.883055e+003,1.821594e-001
1.884020e+003,7.786865e-001
1.884984e+003,1.024094e+000
1.885948e+003,3.318176e-001
1.886912e+003,-7.098083e-001
1.887876e+003,-9.328156e-001
1.888841e+003,-3.658905e-001
1.889805e+003,7.467957e-001
1.890769e+003,2.726425e+000
1.891733e+003,3.399704e+000
1.892698e+003,1.855942e+000
1.893662e+003,5.813751e-001
1.894626e+003,5.428009e-001
1.895590e+003,9.039612e-001
1.896554e+003,1.624222e+000
1.897519e+003,2.123886e+000
1.898483e+003,1.127914e+000
1.899447e+003,-8.129883e-001
1.900411e+003,-1.376328e+000
1.901376e+003,-6.546021e-002
1.902340e+003,8.721008e-001
1.903304e+003,3.102112e-002
1.904268e+003,-5.261841e-001
1.905233e+003,8.156738e-001
1.906197e+003,2.760361e+000
1.907161e+003,4.429962e+000
1.908125e+003,5.513062e+000
1.909090e+003,5.427002e+000
1.910054e+003,4.266953e+000
1.911018e+003,2.302536e+000
1.911982e+003,-5.358887e-002
1.912947e+003,-9.485168e-001
1.913911e+003,9.566193e-001
1.914875e+003,3.588547e+000
1.915839e+003,3.576431e+000
1.916803e+003,1.561646e+000
1.917768e+003,1.248291e+000
1.918732e+003,3.066772e+000
1.919696e+003,4.091232e+000
1.920660e+003,4.143326e+000
1.921625e+003,3.917160e+000
1.922589e+003,3.582291e+000
1.923553e+003,2.852005e+000
1.924517e+003,3.914948e-001
1.925481e+003,-1.438461e+000
1.926446e+003,3.173065e-001
1.927410e+003,3.878860e+000
1.928374e+003,5.708496e+000
1.929338e+003,5.578247e+000
1.930303e+003,5.203201e+000
1.931267e+003,4.997665e+000
1.932231e+003,4.973969e+000
1.933195e+003,5.504395e+000
1.934160e+003,5.624054e+000
1.935124e+003,4.192307e+000
1.936088e+003,2.265335e+000
1.937052e+003,7.835083e-001
1.938017e+003,1.371002e-001
1.938981e+003,1.300110e+000
1.939945e+003,3.819794e+000
1.940909e+003,5.526306e+000
1.941874e+003,5.395859e+000
1.942838e+003,3.882584e+000
1.943802e+003,1.319839e+000
1.944766e+003,-8.628693e-001
1.945730e+003,5.031738e-001
1.946695e+003,4.740280e+000
1.947659e+003,6.494400e+000
1.948623e+003,5.531097e+000
1.949587e+003,4.491257e+000
1.950552e+003,3.548965e+000
1.951516e+003,3.137070e+000
1.952480e+003,3.597610e+000
1.953444e+003,4.187256e+000
1.954408e+003,4.365891e+000
1.955373e+003,4.324722e+000
1.956337e+003,4.544556e+000
1.957301e+003,4.913132e+000
1.958265e+003,4.534058e+000
1.959230e+003,3.197037e+000
1.960194e+003,2.883713e+000
1.961158e+003,4.836334e+000
1.962122e+003,6.098511e+000
1.963087e+003,5.486679e+000
1.964051e+003,4.552063e+000
1.965015e+003,3.993301e+000
1.965979e+003,3.845093e+000
1.966944e+003,4.032028e+000
1.967908e+003,4.494690e+000
1.968872e+003,5.382736e+000
1.969836e+003,6.554306e+000
1.970801e+003,7.558838e+000
1.971765e+003,8.180801e+000
1.972729e+003,8.178909e+000
1.973693e+003,7.261093e+000
1.974657e+003,5.859024e+000
1.975622e+003,4.168945e+000
1.976586e+003,2.608505e+000
1.977550e+003,2.710846e+000
1.978514e+003,4.175293e+000
1.979479e+003,5.017776e+000
1.980443e+003,4.949280e+000
1.981407e+003,4.798279e+000
1.982371e+003,4.904739e+000
1.983335e+003,4.839890e+000
1.984300e+003,4.169571e+000
1.985264e+003,3.444122e+000
1.986228e+003,3.586044e+000
1.987192e+003,4.446198e+000
1.988157e+003,5.324646e+000
1.989121e+003,6.453522e+000
1.990085e+003,6.455231e+000
1.991049e+003,4.258926e+000
1.992014e+003,3.191345e+000
1.992978e+003,4.345154e+000
1.993942e+003,5.648422e+000
1.994906e+003,6.455429e+000
1.995871e+003,7.105194e+000
1.996835e+003,8.154633e+000
1.997799e+003,9.066757e+000
1.998763e+003,8.655945e+000
1.999728e+003,7.254868e+000
