5.003444e+002,2.034930e+002
5.013087e+002,2.049385e+002
5.022729e+002,2.021256e+002
5.032371e+002,1.949055e+002
5.042014e+002,1.900609e+002
5.051656e+002,1.885146e+002
5.061298e+002,1.888724e+002
5.070941e+002,1.897609e+002
5.080583e+002,1.913383e+002
5.090225e+002,1.912023e+002
5.099868e+002,1.882666e+002
5.109510e+002,1.844197e+002
5.119152e+002,1.810012e+002
5.128795e+002,1.786368e+002
5.138437e+002,1.769999e+002
5.148079e+002,1.759641e+002
5.157722e+002,1.750475e+002
5.167364e+002,1.740422e+002
5.177006e+002,1.726024e+002
5.186649e+002,1.701505e+002
5.196291e+002,1.649476e+002
5.205933e+002,1.582070e+002
5.215576e+002,1.543483e+002
5.225218e+002,1.544808e+002
5.234860e+002,1.568629e+002
5.244503e+002,1.567914e+002
5.254145e+002,1.547822e+002
5.263787e+002,1.518477e+002
5.273430e+002,1.464185e+002
5.283072e+002,1.402755e+002
5.292714e+002,1.364086e+002
5.302357e+002,1.367942e+002
5.311999e+002,1.366991e+002
5.321641e+002,1.330674e+002
5.331284e+002,1.287789e+002
5.340926e+002,1.278103e+002
5.350568e+002,1.330009e+002
5.360211e+002,1.402930e+002
5.369853e+002,1.379073e+002
5.379495e+002,1.287037e+002
5.389138e+002,1.200963e+002
5.398780e+002,1.170710e+002
5.408422e+002,1.198364e+002
5.418065e+002,1.191157e+002
5.427707e+002,1.107292e+002
5.437349e+002,1.040104e+002
5.446992e+002,1.024484e+002
5.456634e+002,1.052773e+002
5.466276e+002,1.077321e+002
5.475919e+002,1.093752e+002
5.485561e+002,1.093560e+002
5.495203e+002,1.059042e+002
5.504846e+002,9.996008e+001
5.514488e+002,9.372449e+001
5.524130e+002,8.954102e+001
5.533773e+002,8.731689e+001
5.543415e+002,8.544470e+001
5.553057e+002,8.388965e+001
5.562700e+002,8.271716e+001
5.572342e+002,8.191174e+001
5.581984e+002,8.108887e+001
5.591627e+002,8.060974e+001
5.601269e+002,8.141724e+001
5.610911e+002,8.275964e+001
5.620554e+002,8.467603e+001
5.630196e+002,8.709485e+001
5.639838e+002,8.568713e+001
5.649481e+002,7.629211e+001
5.659123e+002,6.673999e+001
5.668765e+002,6.015186e+001
5.678408e+002,5.725842e+001
5.688050e+002,5.689075e+001
5.697692e+002,5.800073e+001
5.707335e+002,5.858069e+001
5.716977e+002,5.836133e+001
5.726619e+002,5.777625e+001
5.736262e+002,5.700171e+001
5.745904e+002,5.574377e+001
5.755546e+002,5.402075e+001
5.765189e+002,5.445850e+001
5.774831e+002,5.745813e+001
5.784473e+002,5.968616e+001
5.794116e+002,5.740906e+001
5.803758e+002,4.881592e+001
5.813400e+002,4.551892e+001
5.823043e+002,5.120630e+001
5.832685e+002,5.646509e+001
5.842327e+002,5.717310e+001
5.851970e+002,5.346960e+001
5.861612e+002,4.959009e+001
5.871254e+002,4.727307e+001
5.880897e+002,4.559692e+001
5.890539e+002,4.478113e+001
5.900181e+002,4.434180e+001
5.909824e+002,4.319543e+001
5.919466e+002,3.975891e+001
5.929108e+002,3.459839e+001
5.938751e+002,3.217554e+001
5.948393e+002,3.295410e+001
5.958035e+002,3.501746e+001
5.967678e+002,3.633472e+001
5.977320e+002,3.699219e+001
5.986962e+002,3.779858e+001
5.996605e+002,3.775208e+001
6.006247e+002,3.697339e+001
6.015889e+002,3.571924e+001
6.025532e+002,3.411707e+001
6.035174e+002,3.184888e+001
6.044816e+002,2.723010e+001
6.054459e+002,2.318286e+001
6.064101e+002,2.129736e+001
6.073743e+002,2.138623e+001
6.083386e+002,2.221606e+001
6.093028e+002,2.235022e+001
6.102670e+002,2.267102e+001
6.112313e+002,2.525757e+001
6.121955e+002,2.993750e+001
6.131597e+002,3.396118e+001
6.141240e+002,3.399036e+001
6.150882e+002,2.847534e+001
6.160524e+002,2.452490e+001
6.170167e+002,2.285156e+001
6.179809e+002,2.236633e+001
6.189451e+002,2.206897e+001
6.199094e+002,2.151721e+001
6.208736e+002,2.136414e+001
6.218378e+002,2.474451e+001
6.228021e+002,2.794019e+001
6.237663e+002,2.916638e+001
6.247305e+002,2.865344e+001
6.256948e+002,2.757495e+001
6.266590e+002,2.684863e+001
6.276232e+002,2.564111e+001
6.285875e+002,2.351050e+001
6.295517e+002,2.105225e+001
6.305159e+002,1.909509e+001
6.314802e+002,1.811169e+001
6.324444e+002,1.767847e+001
6.334086e+002,1.711353e+001
6.343729e+002,1.840344e+001
6.353371e+002,1.925085e+001
6.363013e+002,1.816870e+001
6.372656e+002,1.507471e+001
6.382298e+002,1.158142e+001
6.391940e+002,7.025757e+000
6.401583e+002,3.174683e+000
6.411225e+002,1.892700e+000
6.420867e+002,2.783569e+000
6.430510e+002,4.436401e+000
6.440152e+002,5.272217e+000
6.449794e+002,4.571777e+000
6.459437e+002,3.016724e+000
6.469079e+002,6.945801e-001
6.478721e+002,-2.654541e+000
6.488364e+002,-7.117432e+000
6.498006e+002,-1.206421e+001
6.507648e+002,-1.338098e+001
6.517291e+002,-9.655884e+000
6.526933e+002,-6.226318e+000
6.536575e+002,-4.392090e+000
6.546218e+002,-3.886108e+000
6.555860e+002,-3.816406e+000
6.565502e+002,-4.658081e+000
6.575145e+002,-5.260498e+000
6.584787e+002,-5.582031e+000
6.594429e+002,-5.176758e+000
6.604072e+002,-3.271362e+000
6.613714e+002,6.201172e-001
6.623356e+002,4.749023e+000
6.632999e+002,6.455200e+000
6.642641e+002,6.117065e+000
6.652283e+002,4.418701e+000
6.661926e+002,2.108887e+000
6.671568e+002,-1.395264e-001
6.681210e+002,-1.682007e+000
6.690853e+002,-3.208496e+000
6.700495e+002,-4.374023e+000
6.710137e+002,-5.387207e+000
6.719780e+002,-5.807129e+000
6.729422e+002,-4.900024e+000
6.739064e+002,-2.126221e+000
6.748707e+002,-4.338379e-001
6.758349e+002,-9.234619e-001
6.767991e+002,-2.257080e+000
6.777634e+002,-3.210571e+000
6.787276e+002,-3.022217e+000
6.796918e+002,-1.666870e+000
6.806561e+002,4.080811e-001
6.816203e+002,2.001465e+000
6.825845e+002,2.545044e+000
6.835488e+002,2.130981e+000
6.845130e+002,1.383179e+000
6.854772e+002,1.297485e+000
6.864415e+002,2.957153e+000
6.874057e+002,3.741699e+000
6.883699e+002,9.404297e-001
6.893342e+002,-2.478760e+000
6.902984e+002,-4.144653e+000
6.912626e+002,-3.590820e+000
6.922269e+002,-2.394531e+000
6.931911e+002,1.809570e+000
6.941553e+002,5.536865e+000
6.951196e+002,5.692017e+000
6.960838e+002,3.049683e+000
6.970480e+002,8.740234e-001
6.980123e+002,2.572144e+000
6.989765e+002,6.244263e+000
6.999407e+002,7.649780e+000
7.009050e+002,7.095459e+000
7.018692e+002,5.715698e+000
7.028334e+002,4.322998e+000
7.037977e+002,2.820557e+000
7.047619e+002,1.539673e+000
7.057261e+002,1.442749e+000
7.066904e+002,1.813232e+000
7.076546e+002,2.714478e+000
7.086188e+002,3.907471e+000
7.095831e+002,4.704102e+000
7.105473e+002,4.214355e+000
7.115115e+002,3.648560e+000
7.124758e+002,3.949219e+000
7.134400e+002,3.831909e+000
7.144042e+002,1.614990e+000
7.153685e+002,-2.982422e+000
7.163327e+002,-6.996826e+000
7.172969e+002,-4.023804e+000
7.182612e+002,2.002563e+000
7.192254e+002,5.186768e+000
7.201896e+002,3.823853e+000
7.211539e+002,-1.518555e-001
7.221181e+002,-2.542358e+000
7.230823e+002,-2.274292e+000
7.240466e+002,-1.859009e+000
7.250108e+002,-2.907715e-001
7.259750e+002,1.784180e+000
7.269393e+002,2.888428e+000
7.279035e+002,2.019043e+000
7.288677e+002,9.985352e-001
7.298320e+002,3.105225e+000
7.307962e+002,5.915161e+000
7.317604e+002,8.981567e+000
7.327247e+002,1.161182e+001
7.336889e+002,1.208521e+001
7.346531e+002,7.702026e+000
7.356174e+002,2.694092e-001
7.365816e+002,-3.065186e-001
7.375458e+002,5.252197e+000
7.385101e+002,9.327637e+000
7.394743e+002,6.494385e+000
7.404385e+002,-2.239746e+000
7.414028e+002,-5.974365e+000
7.423670e+002,-2.994385e+000
7.433312e+002,-1.083252e+000
7.442955e+002,5.626221e-001
7.452597e+002,2.598145e+000
7.462239e+002,5.410522e+000
7.471882e+002,9.301392e+000
7.481524e+002,1.158411e+001
7.491166e+002,8.152954e+000
7.500809e+002,3.347168e+000
7.510451e+002,1.194092e+000
7.520093e+002,2.464722e+000
7.529736e+002,4.317749e+000
7.539378e+002,2.983032e+000
7.549020e+002,4.246826e-001
7.558663e+002,-6.345215e-001
7.568306e+002,-2.611084e-001
7.577948e+002,1.541626e+000
7.587590e+002,4.762085e+000
7.597233e+002,9.046143e+000
7.606875e+002,1.151880e+001
7.616517e+002,1.281958e+001
7.626160e+002,1.343738e+001
7.635802e+002,1.298914e+001
7.645444e+002,1.211743e+001
7.655087e+002,1.247119e+001
7.664729e+002,1.520337e+001
7.674371e+002,1.799805e+001
7.684014e+002,1.976440e+001
7.693656e+002,2.060352e+001
7.703298e+002,2.107971e+001
7.712941e+002,2.149438e+001
7.722583e+002,2.116064e+001
7.732225e+002,1.632520e+001
7.741868e+002,7.759155e+000
7.751510e+002,5.208374e+000
7.761152e+002,1.284680e+001
7.770795e+002,2.425317e+001
7.780437e+002,2.742151e+001
7.790079e+002,1.617419e+001
7.799722e+002,1.116052e+001
7.809364e+002,1.748901e+001
7.819006e+002,2.477429e+001
7.828649e+002,2.801526e+001
7.838291e+002,2.739502e+001
7.847933e+002,2.641235e+001
7.857576e+002,2.669287e+001
7.867218e+002,2.602820e+001
7.876860e+002,2.313745e+001
7.886503e+002,1.961182e+001
7.896145e+002,1.765320e+001
7.905787e+002,1.863245e+001
7.915430e+002,2.193994e+001
7.925072e+002,2.446094e+001
7.934714e+002,2.465344e+001
7.944357e+002,2.403894e+001
7.953999e+002,2.401233e+001
7.963641e+002,2.481262e+001
7.973284e+002,2.593677e+001
7.982926e+002,2.761536e+001
7.992568e+002,2.835620e+001
8.002211e+002,2.545093e+001
8.011853e+002,2.163037e+001
8.021495e+002,1.976721e+001
8.031138e+002,2.125818e+001
8.040780e+002,2.539380e+001
8.050422e+002,3.080518e+001
8.060065e+002,3.556714e+001
8.069707e+002,3.907178e+001
8.079349e+002,4.133044e+001
8.088992e+002,4.240381e+001
8.098634e+002,4.255322e+001
8.108276e+002,4.218188e+001
8.117919e+002,4.052734e+001
8.127561e+002,3.431555e+001
8.137203e+002,2.920190e+001
8.146846e+002,2.828528e+001
8.156488e+002,3.038245e+001
8.166130e+002,3.257312e+001
8.175773e+002,3.449243e+001
8.185415e+002,3.526440e+001
8.195057e+002,3.327942e+001
8.204700e+002,3.019617e+001
8.214342e+002,2.695325e+001
8.223984e+002,2.406311e+001
8.233627e+002,2.168372e+001
8.243269e+002,1.965454e+001
8.252911e+002,1.924158e+001
8.262554e+002,2.304016e+001
8.272196e+002,3.068982e+001
8.281838e+002,3.753833e+001
8.291481e+002,3.973596e+001
8.301123e+002,3.729980e+001
8.310765e+002,3.532568e+001
8.320408e+002,3.399231e+001
8.330050e+002,3.212244e+001
8.339692e+002,2.982410e+001
8.349335e+002,2.720215e+001
8.358977e+002,2.380579e+001
8.368619e+002,1.924023e+001
8.378262e+002,1.776526e+001
8.387904e+002,2.532849e+001
8.397546e+002,3.370068e+001
8.407189e+002,3.683801e+001
8.416831e+002,3.458899e+001
8.426473e+002,3.065356e+001
8.436116e+002,2.901526e+001
8.445758e+002,2.986938e+001
8.455400e+002,3.272302e+001
8.465043e+002,3.670020e+001
8.474685e+002,3.905933e+001
8.484327e+002,3.886450e+001
8.493970e+002,3.757007e+001
8.503612e+002,3.821973e+001
8.513254e+002,4.144263e+001
8.522897e+002,4.426257e+001
8.532539e+002,4.586938e+001
8.542181e+002,4.669153e+001
8.551824e+002,4.729639e+001
8.561466e+002,4.849829e+001
8.571108e+002,5.155261e+001
8.580751e+002,5.760046e+001
8.590393e+002,6.289758e+001
8.600035e+002,6.458167e+001
8.609678e+002,6.358301e+001
8.619320e+002,6.221179e+001
8.628962e+002,6.223022e+001
8.638605e+002,6.346436e+001
8.648247e+002,6.587988e+001
8.657889e+002,7.013818e+001
8.667532e+002,7.402124e+001
8.677174e+002,7.751831e+001
8.686816e+002,8.017749e+001
8.696459e+002,8.084143e+001
8.706101e+002,7.860120e+001
8.715743e+002,7.882874e+001
8.725386e+002,8.617017e+001
8.735028e+002,9.443506e+001
8.744670e+002,9.930908e+001
8.754313e+002,9.991394e+001
8.763955e+002,9.771875e+001
8.773597e+002,9.423804e+001
8.783240e+002,9.101428e+001
8.792882e+002,9.140576e+001
8.802524e+002,9.465784e+001
8.812167e+002,9.886926e+001
8.821809e+002,1.033049e+002
8.831451e+002,1.079725e+002
8.841094e+002,1.128083e+002
8.850736e+002,1.195399e+002
8.860378e+002,1.254181e+002
8.870021e+002,1.298206e+002
8.879663e+002,1.328365e+002
8.889305e+002,1.334503e+002
8.898948e+002,1.317878e+002
8.908590e+002,1.307616e+002
8.918232e+002,1.340398e+002
8.927875e+002,1.389628e+002
8.937517e+002,1.419310e+002
8.947159e+002,1.433184e+002
8.956802e+002,1.445499e+002
8.966444e+002,1.462411e+002
8.976086e+002,1.474197e+002
8.985729e+002,1.468258e+002
8.995371e+002,1.448820e+002
9.005013e+002,1.449159e+002
9.014656e+002,1.498362e+002
9.024298e+002,1.560497e+002
9.033940e+002,1.584100e+002
9.043583e+002,1.553683e+002
9.053225e+002,1.530052e+002
9.062867e+002,1.541199e+002
9.072510e+002,1.553282e+002
9.082152e+002,1.572762e+002
9.091794e+002,1.594674e+002
9.101437e+002,1.598335e+002
9.111079e+002,1.566798e+002
9.120721e+002,1.525819e+002
9.130364e+002,1.557889e+002
9.140006e+002,1.633094e+002
9.149648e+002,1.672642e+002
9.159291e+002,1.664097e+002
9.168933e+002,1.636998e+002
9.178575e+002,1.625698e+002
9.188218e+002,1.629781e+002
9.197860e+002,1.613452e+002
9.207502e+002,1.549301e+002
9.217145e+002,1.492257e+002
9.226787e+002,1.479739e+002
9.236429e+002,1.497051e+002
9.246072e+002,1.499976e+002
9.255714e+002,1.458433e+002
9.265356e+002,1.417628e+002
9.274999e+002,1.447028e+002
9.284641e+002,1.493805e+002
9.294283e+002,1.503398e+002
9.303926e+002,1.470016e+002
9.313568e+002,1.425308e+002
9.323210e+002,1.406724e+002
9.332853e+002,1.414213e+002
9.342495e+002,1.374786e+002
9.352137e+002,1.243927e+002
9.361780e+002,1.143242e+002
9.371422e+002,1.135940e+002
9.381064e+002,1.192867e+002
9.390707e+002,1.239766e+002
9.400349e+002,1.253174e+002
9.409991e+002,1.256674e+002
9.419634e+002,1.273455e+002
9.429276e+002,1.276190e+002
9.438918e+002,1.230460e+002
9.448561e+002,1.150892e+002
9.458203e+002,1.092494e+002
9.467845e+002,1.108557e+002
9.477488e+002,1.178390e+002
9.487130e+002,1.211006e+002
9.496772e+002,1.209705e+002
9.506415e+002,1.193829e+002
9.516057e+002,1.164435e+002
9.525699e+002,1.126368e+002
9.535342e+002,1.090537e+002
9.544984e+002,1.050610e+002
9.554626e+002,1.017972e+002
9.564269e+002,1.009932e+002
9.573911e+002,1.013524e+002
9.583553e+002,1.018727e+002
9.593196e+002,1.024019e+002
9.602838e+002,1.035425e+002
9.612480e+002,1.059265e+002
9.622123e+002,1.082156e+002
9.631765e+002,1.081377e+002
9.641407e+002,1.065551e+002
9.651050e+002,1.050233e+002
9.660692e+002,1.038850e+002
9.670334e+002,1.025278e+002
9.679977e+002,1.002610e+002
9.689619e+002,9.741760e+001
9.699261e+002,9.778870e+001
9.708904e+002,1.008047e+002
9.718546e+002,1.050868e+002
9.728188e+002,1.089885e+002
9.737831e+002,1.135383e+002
9.747473e+002,1.223634e+002
9.757115e+002,1.382915e+002
9.766758e+002,1.525902e+002
9.776400e+002,1.597362e+002
9.786042e+002,1.628348e+002
9.795685e+002,1.632117e+002
9.805327e+002,1.606115e+002
9.814969e+002,1.543083e+002
9.824612e+002,1.443787e+002
9.834254e+002,1.324320e+002
9.843896e+002,1.195386e+002
9.853539e+002,1.026913e+002
9.863181e+002,8.878821e+001
9.872823e+002,7.948291e+001
9.882466e+002,7.324084e+001
9.892108e+002,6.937903e+001
9.901750e+002,6.939111e+001
9.911393e+002,7.030676e+001
9.921035e+002,6.826953e+001
9.930677e+002,6.624500e+001
9.940320e+002,6.704370e+001
9.949962e+002,7.006738e+001
9.959604e+002,7.335217e+001
9.969247e+002,7.566077e+001
9.978889e+002,7.784668e+001
9.988531e+002,8.198901e+001
9.998174e+002,8.621399e+001
1.000782e+003,8.619763e+001
1.001746e+003,8.152087e+001
1.002710e+003,7.696411e+001
1.003674e+003,7.756628e+001
1.004639e+003,8.330322e+001
1.005603e+003,8.632520e+001
1.006567e+003,8.462720e+001
1.007531e+003,8.155530e+001
1.008495e+003,7.595459e+001
1.009460e+003,7.065173e+001
1.010424e+003,6.919897e+001
1.011388e+003,7.172803e+001
1.012352e+003,7.368640e+001
1.013317e+003,7.009521e+001
1.014281e+003,6.433252e+001
1.015245e+003,6.334607e+001
1.016209e+003,6.512402e+001
1.017174e+003,6.419592e+001
1.018138e+003,5.783423e+001
1.019102e+003,4.860547e+001
1.020066e+003,4.279578e+001
1.021031e+003,4.363806e+001
1.021995e+003,4.236475e+001
1.022959e+003,3.539746e+001
1.023923e+003,2.867163e+001
1.024887e+003,2.487036e+001
1.025852e+003,2.345178e+001
1.026816e+003,2.312646e+001
1.027780e+003,2.426196e+001
1.028744e+003,2.554382e+001
1.029709e+003,2.438721e+001
1.030673e+003,2.279297e+001
1.031637e+003,2.374902e+001
1.032601e+003,2.676929e+001
1.033566e+003,2.823743e+001
1.034530e+003,2.473364e+001
1.035494e+003,1.752380e+001
1.036458e+003,1.448657e+001
1.037422e+003,1.680127e+001
1.038387e+003,1.862415e+001
1.039351e+003,1.893652e+001
1.040315e+003,1.853638e+001
1.041279e+003,1.883704e+001
1.042244e+003,2.015918e+001
1.043208e+003,2.020496e+001
1.044172e+003,1.520789e+001
1.045136e+003,1.099536e+001
1.046101e+003,1.220349e+001
1.047065e+003,1.630396e+001
1.048029e+003,1.939868e+001
1.048993e+003,1.989990e+001
1.049958e+003,1.939917e+001
1.050922e+003,2.064722e+001
1.051886e+003,2.403613e+001
1.052850e+003,2.712927e+001
1.053814e+003,3.084351e+001
1.054779e+003,3.279456e+001
1.055743e+003,3.000537e+001
1.056707e+003,2.421826e+001
1.057671e+003,2.034924e+001
1.058636e+003,1.894397e+001
1.059600e+003,1.920483e+001
1.060564e+003,2.399182e+001
1.061528e+003,2.856274e+001
1.062493e+003,2.887622e+001
1.063457e+003,2.573279e+001
1.064421e+003,2.212878e+001
1.065385e+003,2.021716e+001
1.066349e+003,2.007922e+001
1.067314e+003,2.253821e+001
1.068278e+003,2.742883e+001
1.069242e+003,2.870190e+001
1.070206e+003,2.436951e+001
1.071171e+003,1.994531e+001
1.072135e+003,2.020923e+001
1.073099e+003,2.432898e+001
1.074063e+003,2.733398e+001
1.075028e+003,2.854810e+001
1.075992e+003,2.982996e+001
1.076956e+003,3.335571e+001
1.077920e+003,3.490833e+001
1.078885e+003,2.995667e+001
1.079849e+003,2.049719e+001
1.080813e+003,1.342078e+001
1.081777e+003,1.372632e+001
1.082741e+003,1.888086e+001
1.083706e+003,2.344373e+001
1.084670e+003,2.650012e+001
1.085634e+003,2.725720e+001
1.086598e+003,2.526978e+001
1.087563e+003,2.199023e+001
1.088527e+003,1.971802e+001
1.089491e+003,1.945142e+001
1.090455e+003,1.966785e+001
1.091420e+003,1.959058e+001
1.092384e+003,1.894849e+001
1.093348e+003,1.658203e+001
1.094312e+003,1.393201e+001
1.095276e+003,1.262805e+001
1.096241e+003,1.335962e+001
1.097205e+003,1.611743e+001
1.098169e+003,2.113611e+001
1.099133e+003,2.593677e+001
1.100098e+003,2.678857e+001
1.101062e+003,2.499646e+001
1.102026e+003,2.299707e+001
1.102990e+003,2.158423e+001
1.103955e+003,2.066528e+001
1.104919e+003,1.995740e+001
1.105883e+003,1.914661e+001
1.106847e+003,1.822278e+001
1.107812e+003,1.625867e+001
1.108776e+003,1.484863e+001
1.109740e+003,1.467407e+001
1.110704e+003,1.509167e+001
1.111668e+003,1.576782e+001
1.112633e+003,1.704236e+001
1.113597e+003,1.945618e+001
1.114561e+003,2.318896e+001
1.115525e+003,2.634717e+001
1.116490e+003,2.814819e+001
1.117454e+003,2.880542e+001
1.118418e+003,2.650659e+001
1.119382e+003,2.034375e+001
1.120347e+003,1.448987e+001
1.121311e+003,1.583386e+001
1.122275e+003,2.518994e+001
1.123239e+003,3.012549e+001
1.124203e+003,3.001074e+001
1.125168e+003,2.903918e+001
1.126132e+003,2.676538e+001
1.127096e+003,2.505310e+001
1.128060e+003,2.598682e+001
1.129025e+003,2.939502e+001
1.129989e+003,3.239075e+001
1.130953e+003,3.225378e+001
1.131917e+003,3.142126e+001
1.132882e+003,3.489233e+001
1.133846e+003,4.125732e+001
1.134810e+003,4.635815e+001
1.135774e+003,4.872131e+001
1.136739e+003,4.891272e+001
1.137703e+003,4.662622e+001
1.138667e+003,4.030872e+001
1.139631e+003,4.019580e+001
1.140595e+003,5.272937e+001
1.141560e+003,6.318884e+001
1.142524e+003,6.668542e+001
1.143488e+003,6.977795e+001
1.144452e+003,7.911572e+001
1.145417e+003,9.506079e+001
1.146381e+003,1.124952e+002
1.147345e+003,1.283096e+002
1.148309e+003,1.431934e+002
1.149274e+003,1.599926e+002
1.150238e+003,1.778547e+002
1.151202e+003,1.939656e+002
1.152166e+003,2.077460e+002
1.153130e+003,2.202184e+002
1.154095e+003,2.320284e+002
1.155059e+003,2.418776e+002
1.156023e+003,2.475149e+002
1.156987e+003,2.520792e+002
1.157952e+003,2.503978e+002
1.158916e+003,2.408718e+002
1.159880e+003,2.279944e+002
1.160844e+003,2.137003e+002
1.161809e+003,1.974039e+002
1.162773e+003,1.776412e+002
1.163737e+003,1.530997e+002
1.164701e+003,1.282173e+002
1.165666e+003,1.082010e+002
1.166630e+003,9.279932e+001
1.167594e+003,8.304407e+001
1.168558e+003,7.889807e+001
1.169522e+003,7.680200e+001
1.170487e+003,7.397144e+001
1.171451e+003,7.049744e+001
1.172415e+003,6.573901e+001
1.173379e+003,5.694958e+001
1.174344e+003,5.106140e+001
1.175308e+003,5.185474e+001
1.176272e+003,5.275574e+001
1.177236e+003,4.925647e+001
1.178201e+003,4.328101e+001
1.179165e+003,3.915100e+001
1.180129e+003,3.834253e+001
1.181093e+003,3.877820e+001
1.182057e+003,3.927686e+001
1.183022e+003,3.957837e+001
1.183986e+003,3.886584e+001
1.184950e+003,3.716895e+001
1.185914e+003,3.409875e+001
1.186879e+003,2.850000e+001
1.187843e+003,2.287781e+001
1.188807e+003,2.395251e+001
1.189771e+003,3.403613e+001
1.190736e+003,4.006860e+001
1.191700e+003,3.865320e+001
1.192664e+003,3.575647e+001
1.193628e+003,3.205286e+001
1.194593e+003,2.909924e+001
1.195557e+003,2.895605e+001
1.196521e+003,3.144177e+001
1.197485e+003,3.356091e+001
1.198449e+003,3.312097e+001
1.199414e+003,3.050720e+001
1.200378e+003,2.473865e+001
1.201342e+003,1.656384e+001
1.202306e+003,1.145654e+001
1.203271e+003,1.169446e+001
1.204235e+003,1.313843e+001
1.205199e+003,1.096875e+001
1.206163e+003,5.468140e+000
1.207128e+003,1.095581e+000
1.208092e+003,-1.220337e+000
1.209056e+003,-3.012451e+000
1.210020e+003,-3.564941e+000
1.210984e+003,-4.829956e+000
1.211949e+003,-8.732300e+000
1.212913e+003,-1.473401e+001
1.213877e+003,-2.079248e+001
1.214841e+003,-2.559119e+001
1.215806e+003,-2.963660e+001
1.216770e+003,-3.449561e+001
1.217734e+003,-4.008191e+001
1.218698e+003,-4.407874e+001
1.219663e+003,-4.679456e+001
1.220627e+003,-4.874915e+001
1.221591e+003,-4.953979e+001
1.222555e+003,-4.974817e+001
1.223520e+003,-5.049438e+001
1.224484e+003,-5.151135e+001
1.225448e+003,-5.267822e+001
1.226412e+003,-5.508362e+001
1.227376e+003,-5.660535e+001
1.228341e+003,-5.615906e+001
1.229305e+003,-5.476624e+001
1.230269e+003,-5.324170e+001
1.231233e+003,-5.200647e+001
1.232198e+003,-5.137329e+001
1.233162e+003,-5.144543e+001
1.234126e+003,-5.158911e+001
1.235090e+003,-5.167700e+001
1.236055e+003,-5.314795e+001
1.237019e+003,-5.336914e+001
1.237983e+003,-5.031396e+001
1.238947e+003,-4.808508e+001
1.239911e+003,-4.981494e+001
1.240876e+003,-5.402344e+001
1.241840e+003,-5.717383e+001
1.242804e+003,-5.864575e+001
1.243768e+003,-5.830298e+001
1.244733e+003,-5.360059e+001
1.245697e+003,-4.930640e+001
1.246661e+003,-5.030640e+001
1.247625e+003,-5.470874e+001
1.248590e+003,-5.714844e+001
1.249554e+003,-5.485083e+001
1.250518e+003,-5.016199e+001
1.251482e+003,-4.767810e+001
1.252447e+003,-4.847278e+001
1.253411e+003,-4.894250e+001
1.254375e+003,-4.659094e+001
1.255339e+003,-4.535645e+001
1.256303e+003,-4.699072e+001
1.257268e+003,-4.839709e+001
1.258232e+003,-4.716809e+001
1.259196e+003,-4.413489e+001
1.260160e+003,-4.168909e+001
1.261125e+003,-4.044690e+001
1.262089e+003,-3.880444e+001
1.263053e+003,-3.536658e+001
1.264017e+003,-3.191492e+001
1.264982e+003,-2.918140e+001
1.265946e+003,-2.711646e+001
1.266910e+003,-2.736853e+001
1.267874e+003,-3.172583e+001
1.268839e+003,-3.731323e+001
1.269803e+003,-3.644849e+001
1.270767e+003,-2.637256e+001
1.271731e+003,-2.050806e+001
1.272695e+003,-2.182214e+001
1.273660e+003,-2.379895e+001
1.274624e+003,-2.649768e+001
1.275588e+003,-2.979211e+001
1.276552e+003,-3.370776e+001
1.277517e+003,-3.719031e+001
1.278481e+003,-3.826770e+001
1.279445e+003,-3.599878e+001
1.280409e+003,-3.227478e+001
1.281374e+003,-2.873853e+001
1.282338e+003,-2.587231e+001
1.283302e+003,-2.750537e+001
1.284266e+003,-3.495325e+001
1.285230e+003,-4.159644e+001
1.286195e+003,-4.241028e+001
1.287159e+003,-4.039868e+001
1.288123e+003,-4.196887e+001
1.289087e+003,-4.718481e+001
1.290052e+003,-4.939856e+001
1.291016e+003,-4.483386e+001
1.291980e+003,-4.146912e+001
1.292944e+003,-4.360620e+001
1.293909e+003,-4.816394e+001
1.294873e+003,-5.228174e+001
1.295837e+003,-5.455103e+001
1.296801e+003,-5.382446e+001
1.297766e+003,-4.961121e+001
1.298730e+003,-4.408435e+001
1.299694e+003,-4.235767e+001
1.300658e+003,-4.593433e+001
1.301622e+003,-4.814746e+001
1.302587e+003,-4.698315e+001
1.303551e+003,-4.629602e+001
1.304515e+003,-4.814978e+001
1.305479e+003,-5.013977e+001
1.306444e+003,-4.899060e+001
1.307408e+003,-4.512781e+001
1.308372e+003,-4.294104e+001
1.309336e+003,-4.481287e+001
1.310301e+003,-4.742542e+001
1.311265e+003,-4.701648e+001
1.312229e+003,-4.553857e+001
1.313193e+003,-4.646130e+001
1.314157e+003,-4.959814e+001
1.315122e+003,-5.095581e+001
1.316086e+003,-4.783582e+001
1.317050e+003,-4.291479e+001
1.318014e+003,-4.183154e+001
1.318979e+003,-4.469775e+001
1.319943e+003,-4.637854e+001
1.320907e+003,-4.688928e+001
1.321871e+003,-4.621094e+001
1.322836e+003,-4.417554e+001
1.323800e+003,-4.214368e+001
1.324764e+003,-4.170752e+001
1.325728e+003,-4.235730e+001
1.326693e+003,-4.152075e+001
1.327657e+003,-3.779297e+001
1.328621e+003,-3.452002e+001
1.329585e+003,-3.672791e+001
1.330549e+003,-4.159924e+001
1.331514e+003,-4.176685e+001
1.332478e+003,-3.857849e+001
1.333442e+003,-3.464014e+001
1.334406e+003,-2.807629e+001
1.335371e+003,-2.253784e+001
1.336335e+003,-2.459009e+001
1.337299e+003,-3.338818e+001
1.338263e+003,-3.950720e+001
1.339228e+003,-4.090759e+001
1.340192e+003,-4.007483e+001
1.341156e+003,-3.673291e+001
1.342120e+003,-3.329028e+001
1.343084e+003,-3.181616e+001
1.344049e+003,-3.230786e+001
1.345013e+003,-3.331787e+001
1.345977e+003,-3.373340e+001
1.346941e+003,-3.438611e+001
1.347906e+003,-3.753638e+001
1.348870e+003,-4.304797e+001
1.349834e+003,-4.303650e+001
1.350798e+003,-3.175684e+001
1.351763e+003,-2.514819e+001
1.352727e+003,-2.583569e+001
1.353691e+003,-2.846362e+001
1.354655e+003,-3.038281e+001
1.355620e+003,-3.149780e+001
1.356584e+003,-3.214697e+001
1.357548e+003,-3.234705e+001
1.358512e+003,-3.237329e+001
1.359476e+003,-3.313586e+001
1.360441e+003,-3.410596e+001
1.361405e+003,-3.313049e+001
1.362369e+003,-3.074316e+001
1.363333e+003,-2.898535e+001
1.364298e+003,-2.816821e+001
1.365262e+003,-2.754211e+001
1.366226e+003,-2.610986e+001
1.367190e+003,-2.481763e+001
1.368155e+003,-2.723755e+001
1.369119e+003,-3.483154e+001
1.370083e+003,-3.795618e+001
1.371047e+003,-2.967480e+001
1.372011e+003,-2.248718e+001
1.372976e+003,-2.254968e+001
1.373940e+003,-2.550464e+001
1.374904e+003,-2.674146e+001
1.375868e+003,-2.573315e+001
1.376833e+003,-2.427698e+001
1.377797e+003,-2.374536e+001
1.378761e+003,-2.453601e+001
1.379725e+003,-2.726685e+001
1.380690e+003,-3.202661e+001
1.381654e+003,-3.218445e+001
1.382618e+003,-2.331189e+001
1.383582e+003,-1.734680e+001
1.384547e+003,-1.851074e+001
1.385511e+003,-2.102917e+001
1.386475e+003,-2.033374e+001
1.387439e+003,-1.759802e+001
1.388403e+003,-1.660388e+001
1.389368e+003,-1.850500e+001
1.390332e+003,-2.027234e+001
1.391296e+003,-1.867261e+001
1.392260e+003,-1.597131e+001
1.393225e+003,-1.729968e+001
1.394189e+003,-2.153198e+001
1.395153e+003,-2.325623e+001
1.396117e+003,-2.044458e+001
1.397082e+003,-1.711084e+001
1.398046e+003,-1.773755e+001
1.399010e+003,-2.072888e+001
1.399974e+003,-2.030127e+001
1.400938e+003,-1.631360e+001
1.401903e+003,-1.389221e+001
1.402867e+003,-1.215149e+001
1.403831e+003,-1.039368e+001
1.404795e+003,-1.035046e+001
1.405760e+003,-1.083325e+001
1.406724e+003,-1.057141e+001
1.407688e+003,-1.053308e+001
1.408652e+003,-1.233679e+001
1.409617e+003,-1.588342e+001
1.410581e+003,-1.948389e+001
1.411545e+003,-2.223633e+001
1.412509e+003,-2.445398e+001
1.413474e+003,-2.294165e+001
1.414438e+003,-1.551147e+001
1.415402e+003,-1.133655e+001
1.416366e+003,-1.128894e+001
1.417330e+003,-1.233008e+001
1.418295e+003,-1.328369e+001
1.419259e+003,-1.387891e+001
1.420223e+003,-1.440637e+001
1.421187e+003,-1.508289e+001
1.422152e+003,-1.414014e+001
1.423116e+003,-8.826050e+000
1.424080e+003,-2.389771e+000
1.425044e+003,-3.833130e+000
1.426009e+003,-1.087122e+001
1.426973e+003,-1.349109e+001
1.427937e+003,-9.472168e+000
1.428901e+003,-5.297485e+000
1.429865e+003,-5.013916e+000
1.430830e+003,-6.713135e+000
1.431794e+003,-7.643311e+000
1.432758e+003,-7.956543e+000
1.433722e+003,-7.457153e+000
1.434687e+003,-4.673828e+000
1.435651e+003,-1.402222e+000
1.436615e+003,-1.287598e+000
1.437579e+003,-2.314331e+000
1.438544e+003,-1.886230e+000
1.439508e+003,-2.641602e-001
1.440472e+003,1.371094e+000
1.441436e+003,2.784912e+000
1.442401e+003,4.124390e+000
1.443365e+003,5.042969e+000
1.444329e+003,5.216431e+000
1.445293e+003,5.321899e+000
1.446257e+003,5.900391e+000
1.447222e+003,6.522827e+000
1.448186e+003,7.215820e+000
1.449150e+003,7.156738e+000
1.450114e+003,5.837402e+000
1.451079e+003,3.757080e+000
1.452043e+003,1.233765e+000
1.453007e+003,-1.026978e+000
1.453971e+003,-2.079834e+000
1.454936e+003,-1.831299e+000
1.455900e+003,-1.332886e+000
1.456864e+003,-1.415039e+000
1.457828e+003,-1.368896e+000
1.458792e+003,-2.319336e-001
1.459757e+003,1.281494e+000
1.460721e+003,2.449341e+000
1.461685e+003,4.695679e+000
1.462649e+003,4.968872e+000
1.463614e+003,-1.358643e-001
1.464578e+003,-6.666016e+000
1.465542e+003,-8.213501e+000
1.466506e+003,-4.980225e+000
1.467471e+003,-2.824585e+000
1.468435e+003,-3.868652e+000
1.469399e+003,-3.819336e+000
1.470363e+003,1.826538e+000
1.471328e+003,8.061401e+000
1.472292e+003,8.507813e+000
1.473256e+003,3.974365e+000
1.474220e+003,-1.798096e-001
1.475184e+003,-1.305908e+000
1.476149e+003,-2.233887e-001
1.477113e+003,2.066895e+000
1.478077e+003,4.648804e+000
1.479041e+003,5.637085e+000
1.480006e+003,5.243652e+000
1.480970e+003,5.357910e+000
1.481934e+003,5.066040e+000
1.482898e+003,5.409424e+000
1.483863e+003,7.694824e+000
1.484827e+003,1.037146e+001
1.485791e+003,1.224805e+001
1.486755e+003,1.365222e+001
1.487719e+003,1.534900e+001
1.488684e+003,1.723877e+001
1.489648e+003,1.829468e+001
1.490612e+003,1.774426e+001
1.491576e+003,1.683716e+001
1.492541e+003,1.975635e+001
1.493505e+003,2.832520e+001
1.494469e+003,3.467175e+001
1.495433e+003,3.612500e+001
1.496398e+003,3.716919e+001
1.497362e+003,4.066602e+001
1.498326e+003,4.515405e+001
1.499290e+003,4.820264e+001
1.500255e+003,5.040405e+001
1.501219e+003,5.367163e+001
1.502183e+003,5.882288e+001
1.503147e+003,6.656445e+001
1.504111e+003,7.845605e+001
1.505076e+003,9.320105e+001
1.506040e+003,1.042292e+002
1.507004e+003,1.096431e+002
1.507968e+003,1.176014e+002
1.508933e+003,1.288022e+002
1.509897e+003,1.421095e+002
1.510861e+003,1.585269e+002
1.511825e+003,1.775298e+002
1.512790e+003,1.977919e+002
1.513754e+003,2.184352e+002
1.514718e+003,2.396046e+002
1.515682e+003,2.612079e+002
1.516646e+003,2.816625e+002
1.517611e+003,3.006307e+002
1.518575e+003,3.180231e+002
1.519539e+003,3.329279e+002
1.520503e+003,3.457401e+002
1.521468e+003,3.555292e+002
1.522432e+003,3.611378e+002
1.523396e+003,3.635114e+002
1.524360e+003,3.641564e+002
1.525325e+003,3.612090e+002
1.526289e+003,3.509500e+002
1.527253e+003,3.345144e+002
1.528217e+003,3.186681e+002
1.529182e+003,3.060072e+002
1.530146e+003,2.911317e+002
1.531110e+003,2.688477e+002
1.532074e+003,2.439296e+002
1.533039e+003,2.205907e+002
1.534003e+003,1.974655e+002
1.534967e+003,1.738105e+002
1.535931e+003,1.504698e+002
1.536896e+003,1.274865e+002
1.537860e+003,1.037671e+002
1.538824e+003,8.233252e+001
1.539788e+003,6.813379e+001
1.540752e+003,5.999072e+001
1.541717e+003,5.320959e+001
1.542681e+003,4.845740e+001
1.543645e+003,4.493945e+001
1.544609e+003,4.327930e+001
1.545573e+003,4.246704e+001
1.546538e+003,4.114526e+001
1.547502e+003,3.984790e+001
1.548466e+003,4.024475e+001
1.549430e+003,4.257520e+001
1.550395e+003,4.593408e+001
1.551359e+003,4.942761e+001
1.552323e+003,5.112256e+001
1.553287e+003,4.825964e+001
1.554252e+003,4.139429e+001
1.555216e+003,3.569531e+001
1.556180e+003,3.089941e+001
1.557144e+003,2.894067e+001
1.558109e+003,3.305103e+001
1.559073e+003,3.634351e+001
1.560037e+003,3.606470e+001
1.561001e+003,3.371973e+001
1.561966e+003,3.025391e+001
1.562930e+003,2.758997e+001
1.563894e+003,2.827905e+001
1.564858e+003,3.218701e+001
1.565823e+003,3.583337e+001
1.566787e+003,3.632288e+001
1.567751e+003,3.460156e+001
1.568715e+003,3.310498e+001
1.569679e+003,3.211780e+001
1.570644e+003,3.131519e+001
1.571608e+003,2.943396e+001
1.572572e+003,2.844031e+001
1.573536e+003,2.995386e+001
1.574500e+003,3.214355e+001
1.575465e+003,3.336731e+001
1.576429e+003,3.423987e+001
1.577393e+003,3.631665e+001
1.578357e+003,3.915479e+001
1.579322e+003,4.017285e+001
1.580286e+003,3.820386e+001
1.581250e+003,3.608923e+001
1.582214e+003,3.744055e+001
1.583179e+003,4.145703e+001
1.584143e+003,4.403088e+001
1.585107e+003,4.437048e+001
1.586071e+003,4.399194e+001
1.587036e+003,4.312329e+001
1.588000e+003,4.359802e+001
1.588964e+003,4.625977e+001
1.589928e+003,4.926416e+001
1.590893e+003,5.113306e+001
1.591857e+003,5.188318e+001
1.592821e+003,5.157056e+001
1.593785e+003,5.047754e+001
1.594750e+003,5.056982e+001
1.595714e+003,5.352063e+001
1.596678e+003,5.729321e+001
1.597642e+003,5.777368e+001
1.598606e+003,5.491638e+001
1.599571e+003,5.510828e+001
1.600535e+003,6.048560e+001
1.601499e+003,6.520984e+001
1.602463e+003,6.717847e+001
1.603427e+003,6.842969e+001
1.604392e+003,7.139502e+001
1.605356e+003,7.433630e+001
1.606320e+003,7.374597e+001
1.607284e+003,6.971680e+001
1.608249e+003,6.528418e+001
1.609213e+003,6.181958e+001
1.610177e+003,6.009033e+001
1.611141e+003,6.127600e+001
1.612106e+003,6.464294e+001
1.613070e+003,6.787329e+001
1.614034e+003,7.092407e+001
1.614998e+003,7.198254e+001
1.615963e+003,6.880847e+001
1.616927e+003,6.753711e+001
1.617891e+003,7.203699e+001
1.618855e+003,7.784729e+001
1.619820e+003,8.057434e+001
1.620784e+003,8.003149e+001
1.621748e+003,7.753564e+001
1.622712e+003,7.453589e+001
1.623677e+003,7.270544e+001
1.624641e+003,7.232007e+001
1.625605e+003,7.334937e+001
1.626569e+003,7.609497e+001
1.627533e+003,7.904346e+001
1.628498e+003,7.989209e+001
1.629462e+003,7.937476e+001
1.630426e+003,7.893604e+001
1.631390e+003,7.904517e+001
1.632354e+003,7.930664e+001
1.633319e+003,7.912903e+001
1.634283e+003,7.876062e+001
1.635247e+003,7.873682e+001
1.636211e+003,7.885645e+001
1.637176e+003,7.860901e+001
1.638140e+003,7.807458e+001
1.639104e+003,7.728455e+001
1.640068e+003,7.578955e+001
1.641033e+003,7.426746e+001
1.641997e+003,7.413367e+001
1.642961e+003,7.548608e+001
1.643925e+003,7.761450e+001
1.644890e+003,8.091162e+001
1.645854e+003,8.337585e+001
1.646818e+003,8.367700e+001
1.647782e+003,8.298364e+001
1.648747e+003,8.160132e+001
1.649711e+003,8.008423e+001
1.650675e+003,7.998547e+001
1.651639e+003,8.120874e+001
1.652604e+003,8.128601e+001
1.653568e+003,7.905664e+001
1.654532e+003,7.596326e+001
1.655496e+003,7.285815e+001
1.656460e+003,7.063171e+001
1.657425e+003,7.186865e+001
1.658389e+003,7.622803e+001
1.659353e+003,7.755957e+001
1.660317e+003,7.468811e+001
1.661281e+003,7.182556e+001
1.662246e+003,6.972791e+001
1.663210e+003,6.811060e+001
1.664174e+003,6.705017e+001
1.665138e+003,6.676050e+001
1.666103e+003,6.805835e+001
1.667067e+003,6.991321e+001
1.668031e+003,6.864209e+001
1.668995e+003,6.329321e+001
1.669960e+003,5.813989e+001
1.670924e+003,5.653320e+001
1.671888e+003,5.718604e+001
1.672852e+003,5.755469e+001
1.673817e+003,5.720923e+001
1.674781e+003,5.624756e+001
1.675745e+003,5.435571e+001
1.676709e+003,5.338049e+001
1.677674e+003,5.475952e+001
1.678638e+003,5.557690e+001
1.679602e+003,5.400842e+001
1.680566e+003,5.124902e+001
1.681531e+003,4.859119e+001
1.682495e+003,4.666785e+001
1.683459e+003,4.630261e+001
1.684423e+003,4.720398e+001
1.685387e+003,4.669507e+001
1.686352e+003,4.288538e+001
1.687316e+003,3.827539e+001
1.688280e+003,3.675696e+001
1.689244e+003,3.792969e+001
1.690208e+003,3.824597e+001
1.691173e+003,3.744604e+001
1.692137e+003,3.615991e+001
1.693101e+003,3.415735e+001
1.694065e+003,3.351208e+001
1.695030e+003,3.625684e+001
1.695994e+003,3.824194e+001
1.696958e+003,3.443286e+001
1.697922e+003,2.731226e+001
1.698887e+003,2.263245e+001
1.699851e+003,2.189331e+001
1.700815e+003,2.346570e+001
1.701779e+003,2.635596e+001
1.702744e+003,2.881982e+001
1.703708e+003,2.785571e+001
1.704672e+003,2.424915e+001
1.705636e+003,2.246899e+001
1.706601e+003,2.254468e+001
1.707565e+003,2.144983e+001
1.708529e+003,1.849341e+001
1.709493e+003,1.646838e+001
1.710458e+003,1.652051e+001
1.711422e+003,1.736255e+001
1.712386e+003,1.943274e+001
1.713350e+003,2.153442e+001
1.714314e+003,2.060974e+001
1.715279e+003,1.644836e+001
1.716243e+003,1.213379e+001
1.717207e+003,1.000964e+001
1.718171e+003,1.047864e+001
1.719135e+003,1.387158e+001
1.720100e+003,1.872131e+001
1.721064e+003,1.795496e+001
1.722028e+003,8.494507e+000
1.722992e+003,4.353394e+000
1.723957e+003,1.116907e+001
1.724921e+003,1.627637e+001
1.725885e+003,1.551257e+001
1.726849e+003,1.278931e+001
1.727814e+003,1.072168e+001
1.728778e+003,9.750610e+000
1.729742e+003,9.201904e+000
1.730706e+003,8.663696e+000
1.731671e+003,8.092163e+000
1.732635e+003,7.174438e+000
1.733599e+003,6.054810e+000
1.734563e+003,5.946777e+000
1.735528e+003,7.160400e+000
1.736492e+003,8.118530e+000
1.737456e+003,8.464966e+000
1.738420e+003,9.146973e+000
1.739385e+003,9.340942e+000
1.740349e+003,9.978882e+000
1.741313e+003,1.394373e+001
1.742277e+003,1.562463e+001
1.743241e+003,1.049854e+001
1.744206e+003,4.164917e+000
1.745170e+003,9.769287e-001
1.746134e+003,1.770020e-002
1.747098e+003,-1.237915e+000
1.748063e+003,-3.165894e+000
1.749027e+003,-3.676025e+000
1.749991e+003,-1.270142e+000
1.750955e+003,3.016479e+000
1.751919e+003,9.029053e+000
1.752884e+003,1.501599e+001
1.753848e+003,1.660107e+001
1.754812e+003,1.385352e+001
1.755776e+003,9.752686e+000
1.756741e+003,5.052124e+000
1.757705e+003,2.145264e+000
1.758669e+003,1.890259e+000
1.759633e+003,2.870850e+000
1.760598e+003,4.724976e+000
1.761562e+003,6.208862e+000
1.762526e+003,5.369995e+000
1.763490e+003,2.902466e+000
1.764455e+003,8.496094e-001
1.765419e+003,-2.608643e-001
1.766383e+003,-4.598389e-001
1.767347e+003,-6.065674e-001
1.768312e+003,-4.436035e-001
1.769276e+003,6.983643e-001
1.770240e+003,1.844604e+000
1.771204e+003,1.942139e+000
1.772168e+003,1.727783e+000
1.773133e+003,2.763306e+000
1.774097e+003,5.222046e+000
1.775061e+003,6.221924e+000
1.776025e+003,2.889404e+000
1.776990e+003,-2.119751e+000
1.777954e+003,-2.585693e+000
1.778918e+003,2.095215e+000
1.779882e+003,5.035034e+000
1.780846e+003,3.752441e+000
1.781811e+003,2.557129e+000
1.782775e+003,2.438843e+000
1.783739e+003,2.558228e+000
1.784703e+003,3.348999e+000
1.785668e+003,3.536865e+000
1.786632e+003,5.301514e-001
1.787596e+003,-3.691406e+000
1.788560e+003,-5.358643e+000
1.789525e+003,-3.767212e+000
1.790489e+003,-3.955078e-001
1.791453e+003,3.600830e+000
1.792417e+003,7.219360e+000
1.793382e+003,9.302124e+000
1.794346e+003,9.346069e+000
1.795310e+003,6.627441e+000
1.796274e+003,1.246216e+000
1.797239e+003,-2.871338e+000
1.798203e+003,-5.589722e+000
1.799167e+003,-4.908081e+000
1.800131e+003,1.131470e+000
1.801095e+003,5.297852e+000
1.802060e+003,5.224365e+000
1.803024e+003,3.726563e+000
1.803988e+003,1.308716e+000
1.804952e+003,-1.286621e+000
1.805917e+003,-2.127197e+000
1.806881e+003,-1.172729e+000
1.807845e+003,-2.939453e-001
1.808809e+003,-7.031250e-002
1.809773e+003,4.301758e-001
1.810738e+003,2.166992e+000
1.811702e+003,4.256348e+000
1.812666e+003,5.123047e+000
1.813630e+003,4.981079e+000
1.814595e+003,4.620117e+000
1.815559e+003,3.981445e+000
1.816523e+003,4.346558e+000
1.817487e+003,6.784302e+000
1.818452e+003,8.100220e+000
1.819416e+003,4.969238e+000
1.820380e+003,1.063599e+000
1.821344e+003,3.144897e+000
1.822309e+003,9.746216e+000
1.823273e+003,1.131677e+001
1.824237e+003,7.235229e+000
1.825201e+003,3.679321e+000
1.826166e+003,-4.251709e-001
1.827130e+003,-2.102539e+000
1.828094e+003,1.785645e+000
1.829058e+003,5.864014e+000
1.830022e+003,5.984375e+000
1.830987e+003,3.801514e+000
1.831951e+003,1.544312e+000
1.832915e+003,-1.138916e-001
1.833879e+003,-9.011230e-001
1.834844e+003,-5.998535e-001
1.835808e+003,8.145752e-001
1.836772e+003,3.236694e+000
1.837736e+003,5.480103e+000
1.838700e+003,4.580200e+000
1.839665e+003,5.882568e-001
1.840629e+003,1.522217e+000
1.841593e+003,9.919434e+000
1.842557e+003,1.408984e+001
1.843522e+003,1.146143e+001
1.844486e+003,7.336060e+000
1.845450e+003,1.035767e+000
1.846414e+003,-2.541382e+000
1.847379e+003,8.922119e-001
1.848343e+003,6.249023e+000
1.849307e+003,8.252319e+000
1.850271e+003,7.503296e+000
1.851236e+003,5.692993e+000
1.852200e+003,3.109009e+000
1.853164e+003,1.389648e+000
1.854128e+003,1.002197e+000
1.855093e+003,7.558594e-001
1.856057e+003,9.274902e-001
1.857021e+003,1.242065e+000
1.857985e+003,-4.445801e-001
1.858949e+003,-3.325317e+000
1.859914e+003,-3.081665e+000
1.860878e+003,1.048706e+000
1.861842e+003,4.261841e+000
1.862806e+003,3.718872e+000
1.863771e+003,2.965210e+000
1.864735e+003,6.183716e+000
1.865699e+003,1.086023e+001
1.866663e+003,1.060559e+001
1.867627e+003,5.680908e+000
1.868592e+003,5.555908e+000
1.869556e+003,1.407556e+001
1.870520e+003,1.768359e+001
1.871484e+003,1.371875e+001
1.872449e+003,9.134399e+000
1.873413e+003,7.264038e+000
1.874377e+003,7.448975e+000
1.875341e+003,7.392700e+000
1.876306e+003,7.183594e+000
1.877270e+003,8.768799e+000
1.878234e+003,1.126062e+001
1.879198e+003,1.124304e+001
1.880163e+003,7.755615e+000
1.881127e+003,3.518799e+000
1.882091e+003,3.863525e-001
1.883055e+003,-1.234741e+000
1.884020e+003,-6.246338e-001
1.884984e+003,1.675537e+000
1.885948e+003,4.389771e+000
1.886912e+003,7.337891e+000
1.887876e+003,9.299072e+000
1.888841e+003,1.007861e+001
1.889805e+003,1.072632e+001
1.890769e+003,1.169019e+001
1.891733e+003,1.272156e+001
1.892698e+003,1.364355e+001
1.893662e+003,1.344189e+001
1.894626e+003,1.038745e+001
1.895590e+003,5.113892e+000
1.896554e+003,3.455688e+000
1.897519e+003,7.304565e+000
1.898483e+003,1.067188e+001
1.899447e+003,1.207385e+001
1.900411e+003,1.230750e+001
1.901376e+003,1.051819e+001
1.902340e+003,9.461548e+000
1.903304e+003,1.172498e+001
1.904268e+003,1.531653e+001
1.905233e+003,1.885608e+001
1.906197e+003,2.127942e+001
1.907161e+003,1.975818e+001
1.908125e+003,1.417310e+001
1.909090e+003,9.460693e+000
1.910054e+003,8.755493e+000
1.911018e+003,1.026147e+001
1.911982e+003,1.299780e+001
1.912947e+003,1.675549e+001
1.913911e+003,1.959619e+001
1.914875e+003,2.142017e+001
1.915839e+003,2.113062e+001
1.916803e+003,1.792834e+001
1.917768e+003,1.557080e+001
1.918732e+003,1.588831e+001
1.919696e+003,1.698767e+001
1.920660e+003,1.747217e+001
1.921625e+003,1.856201e+001
1.922589e+003,2.228308e+001
1.923553e+003,2.708618e+001
1.924517e+003,2.741553e+001
1.925481e+003,2.288599e+001
1.926446e+003,1.972913e+001
1.927410e+003,1.900781e+001
1.928374e+003,1.817737e+001
1.929338e+003,1.571411e+001
1.930303e+003,1.360205e+001
1.931267e+003,1.395764e+001
1.932231e+003,1.577625e+001
1.933195e+003,1.749280e+001
1.934160e+003,1.872412e+001
1.935124e+003,1.955188e+001
1.936088e+003,1.998450e+001
1.937052e+003,2.103027e+001
1.938017e+003,2.361194e+001
1.938981e+003,2.473022e+001
1.939945e+003,2.005273e+001
1.940909e+003,1.353088e+001
1.941874e+003,1.230859e+001
1.942838e+003,1.470935e+001
1.943802e+003,1.682214e+001
1.944766e+003,1.886023e+001
1.945730e+003,1.888062e+001
1.946695e+003,1.603992e+001
1.947659e+003,1.469775e+001
1.948623e+003,1.688477e+001
1.949587e+003,2.053455e+001
1.950552e+003,2.474866e+001
1.951516e+003,2.837146e+001
1.952480e+003,2.778943e+001
1.953444e+003,2.323181e+001
1.954408e+003,2.176746e+001
1.955373e+003,2.518958e+001
1.956337e+003,2.532361e+001
1.957301e+003,1.912061e+001
1.958265e+003,1.656873e+001
1.959230e+003,2.278589e+001
1.960194e+003,2.896362e+001
1.961158e+003,2.923083e+001
1.962122e+003,2.692688e+001
1.963087e+003,2.598218e+001
1.964051e+003,2.612573e+001
1.965015e+003,2.553613e+001
1.965979e+003,2.433875e+001
1.966944e+003,2.393372e+001
1.967908e+003,2.441833e+001
1.968872e+003,2.524548e+001
1.969836e+003,2.638879e+001
1.970801e+003,2.771484e+001
1.971765e+003,2.968604e+001
1.972729e+003,3.177539e+001
1.973693e+003,3.262158e+001
1.974657e+003,3.249744e+001
1.975622e+003,3.244177e+001
1.976586e+003,3.252563e+001
1.977550e+003,3.275146e+001
1.978514e+003,3.314246e+001
1.979479e+003,3.206433e+001
1.980443e+003,2.787000e+001
1.981407e+003,2.334094e+001
1.982371e+003,2.397290e+001
1.983335e+003,2.924512e+001
1.984300e+003,3.345569e+001
1.985264e+003,3.627124e+001
1.986228e+003,3.659766e+001
1.987192e+003,3.319165e+001
1.988157e+003,3.159729e+001
1.989121e+003,3.492456e+001
1.990085e+003,3.736841e+001
1.991049e+003,3.493335e+001
1.992014e+003,3.138611e+001
1.992978e+003,3.052698e+001
1.993942e+003,3.114124e+001
1.994906e+003,3.088403e+001
1.995871e+003,2.981311e+001
1.996835e+003,2.992236e+001
1.997799e+003,3.263660e+001
1.998763e+003,3.493127e+001
1.999728e+003,3.534351e+001
