5.003444e+002,3.091082e+002
5.013087e+002,3.084911e+002
5.022729e+002,3.055880e+002
5.032371e+002,3.016892e+002
5.042014e+002,2.979849e+002
5.051656e+002,2.935394e+002
5.061298e+002,2.901627e+002
5.070941e+002,2.902067e+002
5.080583e+002,2.953198e+002
5.090225e+002,2.981281e+002
5.099868e+002,2.977529e+002
5.109510e+002,2.949141e+002
5.119152e+002,2.890833e+002
5.128795e+002,2.800956e+002
5.138437e+002,2.721952e+002
5.148079e+002,2.720764e+002
5.157722e+002,2.743126e+002
5.167364e+002,2.738251e+002
5.177006e+002,2.684570e+002
5.186649e+002,2.596614e+002
5.196291e+002,2.533494e+002
5.205933e+002,2.507827e+002
5.215576e+002,2.505807e+002
5.225218e+002,2.522789e+002
5.234860e+002,2.543983e+002
5.244503e+002,2.537612e+002
5.254145e+002,2.493459e+002
5.263787e+002,2.460214e+002
5.273430e+002,2.447894e+002
5.283072e+002,2.445643e+002
5.292714e+002,2.431116e+002
5.302357e+002,2.375505e+002
5.311999e+002,2.320321e+002
5.321641e+002,2.310278e+002
5.331284e+002,2.325284e+002
5.340926e+002,2.334128e+002
5.350568e+002,2.309072e+002
5.360211e+002,2.254651e+002
5.369853e+002,2.214755e+002
5.379495e+002,2.192369e+002
5.389138e+002,2.171549e+002
5.398780e+002,2.137996e+002
5.408422e+002,2.088860e+002
5.418065e+002,2.068708e+002
5.427707e+002,2.100055e+002
5.437349e+002,2.124993e+002
5.446992e+002,2.120668e+002
5.456634e+002,2.090406e+002
5.466276e+002,2.063280e+002
5.475919e+002,2.061061e+002
5.485561e+002,2.059152e+002
5.495203e+002,2.048655e+002
5.504846e+002,2.025645e+002
5.514488e+002,1.988391e+002
5.524130e+002,1.935043e+002
5.533773e+002,1.882821e+002
5.543415e+002,1.849542e+002
5.553057e+002,1.832396e+002
5.562700e+002,1.823896e+002
5.572342e+002,1.815535e+002
5.581984e+002,1.803076e+002
5.591627e+002,1.783979e+002
5.601269e+002,1.765537e+002
5.610911e+002,1.749963e+002
5.620554e+002,1.735737e+002
5.630196e+002,1.718580e+002
5.639838e+002,1.693252e+002
5.649481e+002,1.655931e+002
5.659123e+002,1.616567e+002
5.668765e+002,1.578977e+002
5.678408e+002,1.552369e+002
5.688050e+002,1.552130e+002
5.697692e+002,1.605018e+002
5.707335e+002,1.647618e+002
5.716977e+002,1.631116e+002
5.726619e+002,1.568314e+002
5.736262e+002,1.493602e+002
5.745904e+002,1.446436e+002
5.755546e+002,1.430111e+002
5.765189e+002,1.428712e+002
5.774831e+002,1.440336e+002
5.784473e+002,1.447731e+002
5.794116e+002,1.437056e+002
5.803758e+002,1.408279e+002
5.813400e+002,1.390542e+002
5.823043e+002,1.386561e+002
5.832685e+002,1.371213e+002
5.842327e+002,1.327932e+002
5.851970e+002,1.265132e+002
5.861612e+002,1.227274e+002
5.871254e+002,1.264921e+002
5.880897e+002,1.313983e+002
5.890539e+002,1.344438e+002
5.900181e+002,1.350330e+002
5.909824e+002,1.335425e+002
5.919466e+002,1.302882e+002
5.929108e+002,1.258646e+002
5.938751e+002,1.241958e+002
5.948393e+002,1.258092e+002
5.958035e+002,1.285322e+002
5.967678e+002,1.301272e+002
5.977320e+002,1.308647e+002
5.986962e+002,1.307955e+002
5.996605e+002,1.265284e+002
6.006247e+002,1.228624e+002
6.015889e+002,1.235398e+002
6.025532e+002,1.289375e+002
6.035174e+002,1.332450e+002
6.044816e+002,1.322854e+002
6.054459e+002,1.296169e+002
6.064101e+002,1.251252e+002
6.073743e+002,1.199803e+002
6.083386e+002,1.166801e+002
6.093028e+002,1.192286e+002
6.102670e+002,1.261505e+002
6.112313e+002,1.289373e+002
6.121955e+002,1.271838e+002
6.131597e+002,1.237823e+002
6.141240e+002,1.220751e+002
6.150882e+002,1.225940e+002
6.160524e+002,1.222953e+002
6.170167e+002,1.207279e+002
6.179809e+002,1.199760e+002
6.189451e+002,1.209149e+002
6.199094e+002,1.231104e+002
6.208736e+002,1.248123e+002
6.218378e+002,1.281678e+002
6.228021e+002,1.301548e+002
6.237663e+002,1.283649e+002
6.247305e+002,1.237034e+002
6.256948e+002,1.186453e+002
6.266590e+002,1.152686e+002
6.276232e+002,1.128085e+002
6.285875e+002,1.106049e+002
6.295517e+002,1.091769e+002
6.305159e+002,1.087091e+002
6.314802e+002,1.090365e+002
6.324444e+002,1.096434e+002
6.334086e+002,1.100885e+002
6.343729e+002,1.133124e+002
6.353371e+002,1.152482e+002
6.363013e+002,1.124115e+002
6.372656e+002,1.052653e+002
6.382298e+002,1.004103e+002
6.391940e+002,1.039906e+002
6.401583e+002,1.059585e+002
6.411225e+002,1.024270e+002
6.420867e+002,9.626978e+001
6.430510e+002,9.234851e+001
6.440152e+002,9.419312e+001
6.449794e+002,9.799426e+001
6.459437e+002,9.818433e+001
6.469079e+002,9.569104e+001
6.478721e+002,9.263135e+001
6.488364e+002,9.077173e+001
6.498006e+002,9.044678e+001
6.507648e+002,8.839941e+001
6.517291e+002,8.168616e+001
6.526933e+002,7.714050e+001
6.536575e+002,7.749109e+001
6.546218e+002,8.132849e+001
6.555860e+002,8.399536e+001
6.565502e+002,8.244885e+001
6.575145e+002,8.260620e+001
6.584787e+002,8.933594e+001
6.594429e+002,9.748792e+001
6.604072e+002,1.001147e+002
6.613714e+002,9.301404e+001
6.623356e+002,8.283325e+001
6.632999e+002,8.048425e+001
6.642641e+002,8.227161e+001
6.652283e+002,8.455151e+001
6.661926e+002,8.612170e+001
6.671568e+002,8.720654e+001
6.681210e+002,8.644666e+001
6.690853e+002,8.047034e+001
6.700495e+002,7.819348e+001
6.710137e+002,8.302234e+001
6.719780e+002,9.075806e+001
6.729422e+002,9.500427e+001
6.739064e+002,9.339612e+001
6.748707e+002,9.120386e+001
6.758349e+002,8.967029e+001
6.767991e+002,8.838684e+001
6.777634e+002,8.759314e+001
6.787276e+002,8.773950e+001
6.796918e+002,8.907568e+001
6.806561e+002,9.094446e+001
6.816203e+002,9.261572e+001
6.825845e+002,9.507593e+001
6.835488e+002,9.825183e+001
6.845130e+002,1.005806e+002
6.854772e+002,9.962000e+001
6.864415e+002,9.543347e+001
6.874057e+002,9.097034e+001
6.883699e+002,8.164001e+001
6.893342e+002,7.360864e+001
6.902984e+002,7.301379e+001
6.912626e+002,8.093274e+001
6.922269e+002,8.641895e+001
6.931911e+002,8.525903e+001
6.941553e+002,8.433777e+001
6.951196e+002,8.489099e+001
6.960838e+002,8.642993e+001
6.970480e+002,8.816980e+001
6.980123e+002,9.051904e+001
6.989765e+002,9.247559e+001
6.999407e+002,9.121643e+001
7.009050e+002,8.740894e+001
7.018692e+002,8.317114e+001
7.028334e+002,8.003735e+001
7.037977e+002,7.782764e+001
7.047619e+002,7.595691e+001
7.057261e+002,7.475757e+001
7.066904e+002,7.543286e+001
7.076546e+002,7.978809e+001
7.086188e+002,8.609216e+001
7.095831e+002,8.949622e+001
7.105473e+002,8.609656e+001
7.115115e+002,8.424268e+001
7.124758e+002,8.834265e+001
7.134400e+002,9.352893e+001
7.144042e+002,9.547766e+001
7.153685e+002,9.268262e+001
7.163327e+002,8.773608e+001
7.172969e+002,8.204004e+001
7.182612e+002,7.756091e+001
7.192254e+002,7.801245e+001
7.201896e+002,8.352478e+001
7.211539e+002,9.043347e+001
7.221181e+002,9.263538e+001
7.230823e+002,8.857483e+001
7.240466e+002,8.594141e+001
7.250108e+002,8.622241e+001
7.259750e+002,8.781445e+001
7.269393e+002,8.933191e+001
7.279035e+002,8.980261e+001
7.288677e+002,8.743884e+001
7.298320e+002,7.919263e+001
7.307962e+002,7.361084e+001
7.317604e+002,7.448547e+001
7.327247e+002,8.059985e+001
7.336889e+002,8.863745e+001
7.346531e+002,9.588452e+001
7.356174e+002,9.947339e+001
7.365816e+002,9.788208e+001
7.375458e+002,9.401379e+001
7.385101e+002,9.119788e+001
7.394743e+002,9.122388e+001
7.404385e+002,9.357629e+001
7.414028e+002,9.547046e+001
7.423670e+002,9.444214e+001
7.433312e+002,9.152124e+001
7.442955e+002,8.736755e+001
7.452597e+002,8.372693e+001
7.462239e+002,8.196362e+001
7.471882e+002,8.183618e+001
7.481524e+002,8.382825e+001
7.491166e+002,8.880469e+001
7.500809e+002,9.321973e+001
7.510451e+002,9.493433e+001
7.520093e+002,9.342310e+001
7.529736e+002,8.958997e+001
7.539378e+002,8.442554e+001
7.549020e+002,7.975513e+001
7.558663e+002,7.704565e+001
7.568306e+002,7.613611e+001
7.577948e+002,7.687610e+001
7.587590e+002,7.888989e+001
7.597233e+002,8.137061e+001
7.606875e+002,8.401306e+001
7.616517e+002,8.958569e+001
7.626160e+002,9.374036e+001
7.635802e+002,9.393457e+001
7.645444e+002,9.159900e+001
7.655087e+002,9.117078e+001
7.664729e+002,9.585059e+001
7.674371e+002,9.975586e+001
7.684014e+002,9.805042e+001
7.693656e+002,9.411401e+001
7.703298e+002,9.273193e+001
7.712941e+002,9.630286e+001
7.722583e+002,1.023201e+002
7.732225e+002,1.036725e+002
7.741868e+002,1.007957e+002
7.751510e+002,9.898987e+001
7.761152e+002,9.965796e+001
7.770795e+002,1.017968e+002
7.780437e+002,1.036000e+002
7.790079e+002,1.048127e+002
7.799722e+002,1.040991e+002
7.809364e+002,1.002946e+002
7.819006e+002,9.647705e+001
7.828649e+002,9.492065e+001
7.838291e+002,9.585095e+001
7.847933e+002,9.735278e+001
7.857576e+002,9.692615e+001
7.867218e+002,9.603772e+001
7.876860e+002,9.838953e+001
7.886503e+002,1.028109e+002
7.896145e+002,1.056768e+002
7.905787e+002,1.042222e+002
7.915430e+002,9.968982e+001
7.925072e+002,9.853015e+001
7.934714e+002,9.933582e+001
7.944357e+002,9.972302e+001
7.953999e+002,1.003838e+002
7.963641e+002,1.017754e+002
7.973284e+002,1.037365e+002
7.982926e+002,1.065349e+002
7.992568e+002,1.085238e+002
8.002211e+002,1.089418e+002
8.011853e+002,1.066830e+002
8.021495e+002,1.010876e+002
8.031138e+002,9.399646e+001
8.040780e+002,8.947974e+001
8.050422e+002,8.946741e+001
8.060065e+002,9.208887e+001
8.069707e+002,9.816638e+001
8.079349e+002,1.062921e+002
8.088992e+002,1.116150e+002
8.098634e+002,1.102070e+002
8.108276e+002,1.030708e+002
8.117919e+002,9.846960e+001
8.127561e+002,9.501941e+001
8.137203e+002,9.234631e+001
8.146846e+002,9.272388e+001
8.156488e+002,9.522473e+001
8.166130e+002,9.676306e+001
8.175773e+002,9.565320e+001
8.185415e+002,9.601062e+001
8.195057e+002,1.001064e+002
8.204700e+002,1.041743e+002
8.214342e+002,1.057181e+002
8.223984e+002,1.044482e+002
8.233627e+002,1.017494e+002
8.243269e+002,9.871387e+001
8.252911e+002,9.629736e+001
8.262554e+002,9.569812e+001
8.272196e+002,9.677966e+001
8.281838e+002,9.928357e+001
8.291481e+002,1.036104e+002
8.301123e+002,1.095569e+002
8.310765e+002,1.110786e+002
8.320408e+002,1.013250e+002
8.330050e+002,9.479834e+001
8.339692e+002,9.560413e+001
8.349335e+002,9.982202e+001
8.358977e+002,1.024845e+002
8.368619e+002,1.024768e+002
8.378262e+002,1.022130e+002
8.387904e+002,1.020667e+002
8.397546e+002,1.018287e+002
8.407189e+002,1.018113e+002
8.416831e+002,1.022997e+002
8.426473e+002,1.033234e+002
8.436116e+002,1.046453e+002
8.445758e+002,1.064347e+002
8.455400e+002,1.092772e+002
8.465043e+002,1.122797e+002
8.474685e+002,1.126093e+002
8.484327e+002,1.076650e+002
8.493970e+002,1.000798e+002
8.503612e+002,1.000630e+002
8.513254e+002,1.143331e+002
8.522897e+002,1.248790e+002
8.532539e+002,1.265742e+002
8.542181e+002,1.244429e+002
8.551824e+002,1.232976e+002
8.561466e+002,1.251554e+002
8.571108e+002,1.288688e+002
8.580751e+002,1.315522e+002
8.590393e+002,1.328649e+002
8.600035e+002,1.354054e+002
8.609678e+002,1.396521e+002
8.619320e+002,1.437075e+002
8.628962e+002,1.452933e+002
8.638605e+002,1.442563e+002
8.648247e+002,1.435458e+002
8.657889e+002,1.423201e+002
8.667532e+002,1.421699e+002
8.677174e+002,1.436603e+002
8.686816e+002,1.462400e+002
8.696459e+002,1.494757e+002
8.706101e+002,1.540593e+002
8.715743e+002,1.587703e+002
8.725386e+002,1.616117e+002
8.735028e+002,1.651312e+002
8.744670e+002,1.722839e+002
8.754313e+002,1.815031e+002
8.763955e+002,1.873463e+002
8.773597e+002,1.840769e+002
8.783240e+002,1.753983e+002
8.792882e+002,1.752352e+002
8.802524e+002,1.824668e+002
8.812167e+002,1.872664e+002
8.821809e+002,1.828672e+002
8.831451e+002,1.720706e+002
8.841094e+002,1.678792e+002
8.850736e+002,1.759189e+002
8.860378e+002,1.838945e+002
8.870021e+002,1.902877e+002
8.879663e+002,1.955968e+002
8.889305e+002,2.004845e+002
8.898948e+002,2.046053e+002
8.908590e+002,2.059628e+002
8.918232e+002,2.017916e+002
8.927875e+002,1.971648e+002
8.937517e+002,1.958157e+002
8.947159e+002,1.974199e+002
8.956802e+002,2.011573e+002
8.966444e+002,2.060380e+002
8.976086e+002,2.107650e+002
8.985729e+002,2.128052e+002
8.995371e+002,2.124491e+002
9.005013e+002,2.137950e+002
9.014656e+002,2.190677e+002
9.024298e+002,2.259620e+002
9.033940e+002,2.312944e+002
9.043583e+002,2.339011e+002
9.053225e+002,2.355365e+002
9.062867e+002,2.370038e+002
9.072510e+002,2.366088e+002
9.082152e+002,2.331552e+002
9.091794e+002,2.290221e+002
9.101437e+002,2.276493e+002
9.111079e+002,2.307922e+002
9.120721e+002,2.358341e+002
9.130364e+002,2.372844e+002
9.140006e+002,2.353019e+002
9.149648e+002,2.325573e+002
9.159291e+002,2.306348e+002
9.168933e+002,2.297100e+002
9.178575e+002,2.287295e+002
9.188218e+002,2.263180e+002
9.197860e+002,2.251460e+002
9.207502e+002,2.258560e+002
9.217145e+002,2.263641e+002
9.226787e+002,2.280953e+002
9.236429e+002,2.301517e+002
9.246072e+002,2.294360e+002
9.255714e+002,2.233816e+002
9.265356e+002,2.163204e+002
9.274999e+002,2.132050e+002
9.284641e+002,2.116022e+002
9.294283e+002,2.098942e+002
9.303926e+002,2.080215e+002
9.313568e+002,2.060192e+002
9.323210e+002,2.032039e+002
9.332853e+002,1.988433e+002
9.342495e+002,1.959919e+002
9.352137e+002,1.956711e+002
9.361780e+002,1.946721e+002
9.371422e+002,1.927013e+002
9.381064e+002,1.904703e+002
9.390707e+002,1.877195e+002
9.400349e+002,1.822782e+002
9.409991e+002,1.792454e+002
9.419634e+002,1.828933e+002
9.429276e+002,1.877067e+002
9.438918e+002,1.908479e+002
9.448561e+002,1.917257e+002
9.458203e+002,1.906549e+002
9.467845e+002,1.876504e+002
9.477488e+002,1.836122e+002
9.487130e+002,1.815007e+002
9.496772e+002,1.810338e+002
9.506415e+002,1.822628e+002
9.516057e+002,1.860393e+002
9.525699e+002,1.906637e+002
9.535342e+002,1.920581e+002
9.544984e+002,1.882483e+002
9.554626e+002,1.849241e+002
9.564269e+002,1.840968e+002
9.573911e+002,1.848766e+002
9.583553e+002,1.873035e+002
9.593196e+002,1.902859e+002
9.602838e+002,1.916733e+002
9.612480e+002,1.898270e+002
9.622123e+002,1.875039e+002
9.631765e+002,1.895466e+002
9.641407e+002,1.934657e+002
9.651050e+002,1.954137e+002
9.660692e+002,1.940459e+002
9.670334e+002,1.904528e+002
9.679977e+002,1.867218e+002
9.689619e+002,1.837751e+002
9.699261e+002,1.823313e+002
9.708904e+002,1.788584e+002
9.718546e+002,1.788016e+002
9.728188e+002,1.841930e+002
9.737831e+002,1.934592e+002
9.747473e+002,2.048107e+002
9.757115e+002,2.189165e+002
9.766758e+002,2.320381e+002
9.776400e+002,2.437144e+002
9.786042e+002,2.524663e+002
9.795685e+002,2.564407e+002
9.805327e+002,2.547578e+002
9.814969e+002,2.470247e+002
9.824612e+002,2.336309e+002
9.834254e+002,2.169205e+002
9.843896e+002,2.024103e+002
9.853539e+002,1.872865e+002
9.863181e+002,1.756095e+002
9.872823e+002,1.698573e+002
9.882466e+002,1.664796e+002
9.892108e+002,1.607524e+002
9.901750e+002,1.528584e+002
9.911393e+002,1.498226e+002
9.921035e+002,1.536102e+002
9.930677e+002,1.592152e+002
9.940320e+002,1.676577e+002
9.949962e+002,1.777729e+002
9.959604e+002,1.874365e+002
9.969247e+002,1.952744e+002
9.978889e+002,2.015667e+002
9.988531e+002,2.060275e+002
9.998174e+002,2.079491e+002
1.000782e+003,2.100273e+002
1.001746e+003,2.136759e+002
1.002710e+003,2.174076e+002
1.003674e+003,2.191282e+002
1.004639e+003,2.187936e+002
1.005603e+003,2.198735e+002
1.006567e+003,2.243159e+002
1.007531e+003,2.265840e+002
1.008495e+003,2.242111e+002
1.009460e+003,2.208303e+002
1.010424e+003,2.209565e+002
1.011388e+003,2.248337e+002
1.012352e+003,2.271021e+002
1.013317e+003,2.222864e+002
1.014281e+003,2.132303e+002
1.015245e+003,2.052794e+002
1.016209e+003,1.977908e+002
1.017174e+003,1.899802e+002
1.018138e+003,1.818167e+002
1.019102e+003,1.740551e+002
1.020066e+003,1.682799e+002
1.021031e+003,1.678164e+002
1.021995e+003,1.636343e+002
1.022959e+003,1.508568e+002
1.023923e+003,1.382123e+002
1.024887e+003,1.302852e+002
1.025852e+003,1.256212e+002
1.026816e+003,1.198322e+002
1.027780e+003,1.111626e+002
1.028744e+003,1.041492e+002
1.029709e+003,1.045187e+002
1.030673e+003,1.066245e+002
1.031637e+003,1.039373e+002
1.032601e+003,9.614539e+001
1.033566e+003,8.853601e+001
1.034530e+003,8.698181e+001
1.035494e+003,9.141162e+001
1.036458e+003,9.256580e+001
1.037422e+003,8.593213e+001
1.038387e+003,8.291309e+001
1.039351e+003,8.675635e+001
1.040315e+003,9.333179e+001
1.041279e+003,9.948865e+001
1.042244e+003,1.051680e+002
1.043208e+003,1.081499e+002
1.044172e+003,1.044598e+002
1.045136e+003,1.000183e+002
1.046101e+003,9.809082e+001
1.047065e+003,9.827209e+001
1.048029e+003,1.000374e+002
1.048993e+003,1.028151e+002
1.049958e+003,1.057570e+002
1.050922e+003,1.079379e+002
1.051886e+003,1.096018e+002
1.052850e+003,1.088645e+002
1.053814e+003,1.048230e+002
1.054779e+003,1.014402e+002
1.055743e+003,1.004773e+002
1.056707e+003,1.006964e+002
1.057671e+003,9.948401e+001
1.058636e+003,9.582813e+001
1.059600e+003,9.323083e+001
1.060564e+003,9.484607e+001
1.061528e+003,9.731848e+001
1.062493e+003,9.729919e+001
1.063457e+003,9.553943e+001
1.064421e+003,9.587891e+001
1.065385e+003,1.009095e+002
1.066349e+003,1.070166e+002
1.067314e+003,1.052977e+002
1.068278e+003,9.695544e+001
1.069242e+003,9.232654e+001
1.070206e+003,9.340894e+001
1.071171e+003,9.567236e+001
1.072135e+003,9.443091e+001
1.073099e+003,8.972009e+001
1.074063e+003,8.655286e+001
1.075028e+003,8.618506e+001
1.075992e+003,8.670886e+001
1.076956e+003,8.795544e+001
1.077920e+003,8.860767e+001
1.078885e+003,8.775244e+001
1.079849e+003,8.632141e+001
1.080813e+003,8.671179e+001
1.081777e+003,9.073230e+001
1.082741e+003,9.640039e+001
1.083706e+003,9.763245e+001
1.084670e+003,9.472119e+001
1.085634e+003,9.169202e+001
1.086598e+003,8.946912e+001
1.087563e+003,8.804712e+001
1.088527e+003,8.905054e+001
1.089491e+003,9.400671e+001
1.090455e+003,9.528992e+001
1.091420e+003,8.648145e+001
1.092384e+003,7.948584e+001
1.093348e+003,7.594702e+001
1.094312e+003,7.487610e+001
1.095276e+003,7.678137e+001
1.096241e+003,8.132117e+001
1.097205e+003,8.560889e+001
1.098169e+003,8.657971e+001
1.099133e+003,8.545667e+001
1.100098e+003,8.661487e+001
1.101062e+003,8.978467e+001
1.102026e+003,9.222754e+001
1.102990e+003,9.294153e+001
1.103955e+003,9.262097e+001
1.104919e+003,9.170532e+001
1.105883e+003,8.930774e+001
1.106847e+003,8.887402e+001
1.107812e+003,9.343347e+001
1.108776e+003,9.569324e+001
1.109740e+003,9.224634e+001
1.110704e+003,8.712866e+001
1.111668e+003,8.521716e+001
1.112633e+003,8.780334e+001
1.113597e+003,9.239893e+001
1.114561e+003,9.655469e+001
1.115525e+003,9.985474e+001
1.116490e+003,1.035746e+002
1.117454e+003,1.080240e+002
1.118418e+003,1.129303e+002
1.119382e+003,1.186576e+002
1.120347e+003,1.243202e+002
1.121311e+003,1.269681e+002
1.122275e+003,1.239974e+002
1.123239e+003,1.224227e+002
1.124203e+003,1.264536e+002
1.125168e+003,1.296427e+002
1.126132e+003,1.292035e+002
1.127096e+003,1.284156e+002
1.128060e+003,1.310394e+002
1.129025e+003,1.371761e+002
1.129989e+003,1.432421e+002
1.130953e+003,1.467064e+002
1.131917e+003,1.484006e+002
1.132882e+003,1.492743e+002
1.133846e+003,1.503312e+002
1.134810e+003,1.539534e+002
1.135774e+003,1.612059e+002
1.136739e+003,1.705939e+002
1.137703e+003,1.794576e+002
1.138667e+003,1.870977e+002
1.139631e+003,1.964458e+002
1.140595e+003,2.081379e+002
1.141560e+003,2.205248e+002
1.142524e+003,2.331917e+002
1.143488e+003,2.476639e+002
1.144452e+003,2.641788e+002
1.145417e+003,2.831888e+002
1.146381e+003,3.069235e+002
1.147345e+003,3.378201e+002
1.148309e+003,3.723212e+002
1.149274e+003,4.067207e+002
1.150238e+003,4.416796e+002
1.151202e+003,4.785322e+002
1.152166e+003,5.181119e+002
1.153130e+003,5.579552e+002
1.154095e+003,5.949329e+002
1.155059e+003,6.275013e+002
1.156023e+003,6.488610e+002
1.156987e+003,6.589218e+002
1.157952e+003,6.601071e+002
1.158916e+003,6.532062e+002
1.159880e+003,6.398464e+002
1.160844e+003,6.188737e+002
1.161809e+003,5.897507e+002
1.162773e+003,5.534873e+002
1.163737e+003,5.098812e+002
1.164701e+003,4.639037e+002
1.165666e+003,4.198584e+002
1.166630e+003,3.794314e+002
1.167594e+003,3.458872e+002
1.168558e+003,3.196288e+002
1.169522e+003,2.996442e+002
1.170487e+003,2.851879e+002
1.171451e+003,2.763507e+002
1.172415e+003,2.726931e+002
1.173379e+003,2.769084e+002
1.174344e+003,2.799949e+002
1.175308e+003,2.835424e+002
1.176272e+003,2.845658e+002
1.177236e+003,2.807205e+002
1.178201e+003,2.734086e+002
1.179165e+003,2.650756e+002
1.180129e+003,2.562676e+002
1.181093e+003,2.465096e+002
1.182057e+003,2.352295e+002
1.183022e+003,2.237529e+002
1.183986e+003,2.138508e+002
1.184950e+003,2.057288e+002
1.185914e+003,2.000388e+002
1.186879e+003,1.975789e+002
1.187843e+003,1.977892e+002
1.188807e+003,1.982758e+002
1.189771e+003,1.974324e+002
1.190736e+003,2.000909e+002
1.191700e+003,2.129952e+002
1.192664e+003,2.218137e+002
1.193628e+003,2.209257e+002
1.194593e+003,2.148391e+002
1.195557e+003,2.084993e+002
1.196521e+003,2.031842e+002
1.197485e+003,1.977122e+002
1.198449e+003,1.915277e+002
1.199414e+003,1.845686e+002
1.200378e+003,1.746669e+002
1.201342e+003,1.625525e+002
1.202306e+003,1.539059e+002
1.203271e+003,1.510149e+002
1.204235e+003,1.497529e+002
1.205199e+003,1.453380e+002
1.206163e+003,1.380717e+002
1.207128e+003,1.328370e+002
1.208092e+003,1.336985e+002
1.209056e+003,1.303156e+002
1.210020e+003,1.154181e+002
1.210984e+003,1.002467e+002
1.211949e+003,9.501331e+001
1.212913e+003,9.649683e+001
1.213877e+003,9.349158e+001
1.214841e+003,7.989307e+001
1.215806e+003,6.250513e+001
1.216770e+003,5.189636e+001
1.217734e+003,4.796619e+001
1.218698e+003,4.385571e+001
1.219663e+003,3.868701e+001
1.220627e+003,3.405334e+001
1.221591e+003,3.175488e+001
1.222555e+003,3.049536e+001
1.223520e+003,2.722302e+001
1.224484e+003,2.170667e+001
1.225448e+003,1.794580e+001
1.226412e+003,1.840039e+001
1.227376e+003,1.915198e+001
1.228341e+003,1.799304e+001
1.229305e+003,1.597998e+001
1.230269e+003,1.510205e+001
1.231233e+003,1.549377e+001
1.232198e+003,1.530481e+001
1.233162e+003,1.291943e+001
1.234126e+003,9.386230e+000
1.235090e+003,6.413208e+000
1.236055e+003,2.238037e+000
1.237019e+003,7.481689e-001
1.237983e+003,4.359619e+000
1.238947e+003,8.303467e+000
1.239911e+003,1.009619e+001
1.240876e+003,1.022131e+001
1.241840e+003,8.985840e+000
1.242804e+003,5.987671e+000
1.243768e+003,4.075439e+000
1.244733e+003,5.827148e+000
1.245697e+003,8.372559e+000
1.246661e+003,9.477417e+000
1.247625e+003,9.289551e+000
1.248590e+003,9.037354e+000
1.249554e+003,9.853271e+000
1.250518e+003,1.221875e+001
1.251482e+003,1.591504e+001
1.252447e+003,1.998352e+001
1.253411e+003,2.305884e+001
1.254375e+003,2.690515e+001
1.255339e+003,2.969824e+001
1.256303e+003,3.054578e+001
1.257268e+003,3.126160e+001
1.258232e+003,3.228638e+001
1.259196e+003,3.355725e+001
1.260160e+003,3.591577e+001
1.261125e+003,4.018372e+001
1.262089e+003,4.652979e+001
1.263053e+003,5.680566e+001
1.264017e+003,6.666736e+001
1.264982e+003,7.099255e+001
1.265946e+003,7.053809e+001
1.266910e+003,6.966321e+001
1.267874e+003,7.067444e+001
1.268839e+003,7.240686e+001
1.269803e+003,7.333130e+001
1.270767e+003,7.445532e+001
1.271731e+003,7.213049e+001
1.272695e+003,6.309644e+001
1.273660e+003,5.477124e+001
1.274624e+003,4.686096e+001
1.275588e+003,3.997351e+001
1.276552e+003,3.596362e+001
1.277517e+003,3.473901e+001
1.278481e+003,3.399597e+001
1.279445e+003,3.203296e+001
1.280409e+003,2.946216e+001
1.281374e+003,2.774023e+001
1.282338e+003,2.701941e+001
1.283302e+003,2.687207e+001
1.284266e+003,2.726575e+001
1.285230e+003,2.664026e+001
1.286195e+003,2.367651e+001
1.287159e+003,1.908801e+001
1.288123e+003,1.441528e+001
1.289087e+003,1.010266e+001
1.290052e+003,7.942505e+000
1.291016e+003,9.200684e+000
1.291980e+003,1.010376e+001
1.292944e+003,8.203735e+000
1.293909e+003,5.259521e+000
1.294873e+003,3.666016e+000
1.295837e+003,4.043823e+000
1.296801e+003,5.762939e+000
1.297766e+003,8.044678e+000
1.298730e+003,1.003638e+001
1.299694e+003,9.733521e+000
1.300658e+003,5.909912e+000
1.301622e+003,2.776489e+000
1.302587e+003,8.096924e-001
1.303551e+003,0.000000e+000
1.304515e+003,2.795410e-001
1.305479e+003,2.359863e+000
1.306444e+003,8.099731e+000
1.307408e+003,1.663330e+001
1.308372e+003,2.130396e+001
1.309336e+003,1.781531e+001
1.310301e+003,1.321863e+001
1.311265e+003,1.557080e+001
1.312229e+003,2.016956e+001
1.313193e+003,2.060828e+001
1.314157e+003,1.651111e+001
1.315122e+003,1.140955e+001
1.316086e+003,7.306885e+000
1.317050e+003,3.881470e+000
1.318014e+003,1.578003e+000
1.318979e+003,1.546387e+000
1.319943e+003,3.112549e+000
1.320907e+003,7.796143e+000
1.321871e+003,1.205359e+001
1.322836e+003,1.409546e+001
1.323800e+003,1.514063e+001
1.324764e+003,1.648145e+001
1.325728e+003,1.802441e+001
1.326693e+003,1.902148e+001
1.327657e+003,1.910535e+001
1.328621e+003,1.782544e+001
1.329585e+003,1.412903e+001
1.330549e+003,1.046594e+001
1.331514e+003,1.166711e+001
1.332478e+003,1.651685e+001
1.333442e+003,1.939233e+001
1.334406e+003,1.769360e+001
1.335371e+003,1.435449e+001
1.336335e+003,1.322852e+001
1.337299e+003,1.421606e+001
1.338263e+003,1.402417e+001
1.339228e+003,1.071704e+001
1.340192e+003,9.572876e+000
1.341156e+003,1.404846e+001
1.342120e+003,2.006104e+001
1.343084e+003,2.556409e+001
1.344049e+003,2.924048e+001
1.345013e+003,2.982800e+001
1.345977e+003,2.759900e+001
1.346941e+003,2.463440e+001
1.347906e+003,2.278198e+001
1.348870e+003,2.167603e+001
1.349834e+003,2.119019e+001
1.350798e+003,2.157178e+001
1.351763e+003,2.107385e+001
1.352727e+003,1.927563e+001
1.353691e+003,1.727307e+001
1.354655e+003,1.552734e+001
1.355620e+003,1.441833e+001
1.356584e+003,1.467163e+001
1.357548e+003,1.648242e+001
1.358512e+003,1.850671e+001
1.359476e+003,1.935449e+001
1.360441e+003,1.904065e+001
1.361405e+003,1.891211e+001
1.362369e+003,1.877808e+001
1.363333e+003,1.681238e+001
1.364298e+003,1.253198e+001
1.365262e+003,9.176880e+000
1.366226e+003,1.017322e+001
1.367190e+003,1.362500e+001
1.368155e+003,1.321973e+001
1.369119e+003,7.700562e+000
1.370083e+003,5.508911e+000
1.371047e+003,1.157727e+001
1.372011e+003,1.765283e+001
1.372976e+003,2.024377e+001
1.373940e+003,2.080347e+001
1.374904e+003,2.095691e+001
1.375868e+003,2.131042e+001
1.376833e+003,2.203223e+001
1.377797e+003,2.293445e+001
1.378761e+003,2.283777e+001
1.379725e+003,1.979578e+001
1.380690e+003,1.372876e+001
1.381654e+003,1.129309e+001
1.382618e+003,1.435864e+001
1.383582e+003,1.807483e+001
1.384547e+003,2.198901e+001
1.385511e+003,2.597253e+001
1.386475e+003,2.956616e+001
1.387439e+003,3.267224e+001
1.388403e+003,3.593311e+001
1.389368e+003,3.958643e+001
1.390332e+003,4.141516e+001
1.391296e+003,3.921582e+001
1.392260e+003,3.568274e+001
1.393225e+003,3.398267e+001
1.394189e+003,3.337793e+001
1.395153e+003,3.365588e+001
1.396117e+003,3.532605e+001
1.397082e+003,3.647363e+001
1.398046e+003,3.475500e+001
1.399010e+003,3.111572e+001
1.399974e+003,2.859412e+001
1.400938e+003,2.652209e+001
1.401903e+003,2.400354e+001
1.402867e+003,2.165503e+001
1.403831e+003,2.255920e+001
1.404795e+003,2.886829e+001
1.405760e+003,3.582324e+001
1.406724e+003,3.854004e+001
1.407688e+003,3.637805e+001
1.408652e+003,3.159021e+001
1.409617e+003,2.673828e+001
1.410581e+003,2.394299e+001
1.411545e+003,2.503259e+001
1.412509e+003,2.970276e+001
1.413474e+003,3.280286e+001
1.414438e+003,3.175317e+001
1.415402e+003,2.991235e+001
1.416366e+003,2.809119e+001
1.417330e+003,2.706494e+001
1.418295e+003,2.745142e+001
1.419259e+003,2.870728e+001
1.420223e+003,2.939905e+001
1.421187e+003,2.899451e+001
1.422152e+003,2.898755e+001
1.423116e+003,3.102148e+001
1.424080e+003,3.498096e+001
1.425044e+003,3.983374e+001
1.426009e+003,4.387842e+001
1.426973e+003,4.553442e+001
1.427937e+003,4.500525e+001
1.428901e+003,4.393335e+001
1.429865e+003,4.310876e+001
1.430830e+003,4.259448e+001
1.431794e+003,4.200146e+001
1.432758e+003,4.122229e+001
1.433722e+003,4.209387e+001
1.434687e+003,4.663770e+001
1.435651e+003,5.220422e+001
1.436615e+003,5.619531e+001
1.437579e+003,5.777966e+001
1.438544e+003,5.557129e+001
1.439508e+003,5.233716e+001
1.440472e+003,5.359216e+001
1.441436e+003,6.071436e+001
1.442401e+003,6.831067e+001
1.443365e+003,7.044312e+001
1.444329e+003,6.775037e+001
1.445293e+003,6.515552e+001
1.446257e+003,6.292651e+001
1.447222e+003,6.182214e+001
1.448186e+003,6.230957e+001
1.449150e+003,6.234558e+001
1.450114e+003,6.064648e+001
1.451079e+003,5.872192e+001
1.452043e+003,5.968115e+001
1.453007e+003,6.213171e+001
1.453971e+003,6.045752e+001
1.454936e+003,5.236572e+001
1.455900e+003,4.372046e+001
1.456864e+003,4.161646e+001
1.457828e+003,4.491333e+001
1.458792e+003,4.658191e+001
1.459757e+003,4.548145e+001
1.460721e+003,4.480359e+001
1.461685e+003,4.518445e+001
1.462649e+003,4.598669e+001
1.463614e+003,4.808655e+001
1.464578e+003,5.038220e+001
1.465542e+003,5.009180e+001
1.466506e+003,4.719690e+001
1.467471e+003,4.552222e+001
1.468435e+003,4.721973e+001
1.469399e+003,5.127222e+001
1.470363e+003,5.779651e+001
1.471328e+003,6.268994e+001
1.472292e+003,5.951343e+001
1.473256e+003,5.012549e+001
1.474220e+003,4.482678e+001
1.475184e+003,4.873376e+001
1.476149e+003,5.606738e+001
1.477113e+003,6.035559e+001
1.478077e+003,6.158740e+001
1.479041e+003,6.178772e+001
1.480006e+003,6.132727e+001
1.480970e+003,6.147290e+001
1.481934e+003,6.091394e+001
1.482898e+003,6.127710e+001
1.483863e+003,6.376880e+001
1.484827e+003,6.731494e+001
1.485791e+003,7.209814e+001
1.486755e+003,7.745557e+001
1.487719e+003,8.081860e+001
1.488684e+003,8.086182e+001
1.489648e+003,8.046912e+001
1.490612e+003,8.427600e+001
1.491576e+003,9.239856e+001
1.492541e+003,9.988269e+001
1.493505e+003,1.054919e+002
1.494469e+003,1.109803e+002
1.495433e+003,1.151697e+002
1.496398e+003,1.188738e+002
1.497362e+003,1.231310e+002
1.498326e+003,1.285157e+002
1.499290e+003,1.338195e+002
1.500255e+003,1.403140e+002
1.501219e+003,1.516844e+002
1.502183e+003,1.690325e+002
1.503147e+003,1.884365e+002
1.504111e+003,2.059077e+002
1.505076e+003,2.223088e+002
1.506040e+003,2.399189e+002
1.507004e+003,2.575416e+002
1.507968e+003,2.801873e+002
1.508933e+003,3.088496e+002
1.509897e+003,3.415994e+002
1.510861e+003,3.795210e+002
1.511825e+003,4.221173e+002
1.512790e+003,4.676866e+002
1.513754e+003,5.155450e+002
1.514718e+003,5.675621e+002
1.515682e+003,6.241121e+002
1.516646e+003,6.808694e+002
1.517611e+003,7.360331e+002
1.518575e+003,7.883750e+002
1.519539e+003,8.351658e+002
1.520503e+003,8.767905e+002
1.521468e+003,9.116766e+002
1.522432e+003,9.392042e+002
1.523396e+003,9.555909e+002
1.524360e+003,9.566533e+002
1.525325e+003,9.464368e+002
1.526289e+003,9.315457e+002
1.527253e+003,9.116396e+002
1.528217e+003,8.806066e+002
1.529182e+003,8.364559e+002
1.530146e+003,7.896483e+002
1.531110e+003,7.472458e+002
1.532074e+003,7.000590e+002
1.533039e+003,6.377362e+002
1.534003e+003,5.647717e+002
1.534967e+003,4.895371e+002
1.535931e+003,4.157004e+002
1.536896e+003,3.493616e+002
1.537860e+003,2.935613e+002
1.538824e+003,2.485769e+002
1.539788e+003,2.164368e+002
1.540752e+003,1.955355e+002
1.541717e+003,1.754196e+002
1.542681e+003,1.559360e+002
1.543645e+003,1.395188e+002
1.544609e+003,1.278735e+002
1.545573e+003,1.192646e+002
1.546538e+003,1.121913e+002
1.547502e+003,1.069049e+002
1.548466e+003,1.050455e+002
1.549430e+003,1.066759e+002
1.550395e+003,1.106224e+002
1.551359e+003,1.157738e+002
1.552323e+003,1.194891e+002
1.553287e+003,1.183601e+002
1.554252e+003,1.126412e+002
1.555216e+003,1.046858e+002
1.556180e+003,9.230896e+001
1.557144e+003,8.488953e+001
1.558109e+003,8.818494e+001
1.559073e+003,9.050684e+001
1.560037e+003,8.717566e+001
1.561001e+003,8.156689e+001
1.561966e+003,7.689294e+001
1.562930e+003,7.415308e+001
1.563894e+003,7.267273e+001
1.564858e+003,7.172729e+001
1.565823e+003,7.189917e+001
1.566787e+003,7.430762e+001
1.567751e+003,7.762585e+001
1.568715e+003,7.723499e+001
1.569679e+003,7.211865e+001
1.570644e+003,7.028552e+001
1.571608e+003,7.497522e+001
1.572572e+003,7.699243e+001
1.573536e+003,7.352820e+001
1.574500e+003,7.023120e+001
1.575465e+003,7.018530e+001
1.576429e+003,7.234924e+001
1.577393e+003,7.492310e+001
1.578357e+003,7.725598e+001
1.579322e+003,7.985120e+001
1.580286e+003,8.339917e+001
1.581250e+003,8.750586e+001
1.582214e+003,9.070544e+001
1.583179e+003,9.270422e+001
1.584143e+003,9.531384e+001
1.585107e+003,9.920044e+001
1.586071e+003,1.010221e+002
1.587036e+003,1.013341e+002
1.588000e+003,1.013861e+002
1.588964e+003,1.005647e+002
1.589928e+003,9.918799e+001
1.590893e+003,9.717004e+001
1.591857e+003,9.538733e+001
1.592821e+003,9.607275e+001
1.593785e+003,9.988013e+001
1.594750e+003,1.042708e+002
1.595714e+003,1.067280e+002
1.596678e+003,1.079191e+002
1.597642e+003,1.103495e+002
1.598606e+003,1.143644e+002
1.599571e+003,1.178812e+002
1.600535e+003,1.213065e+002
1.601499e+003,1.244285e+002
1.602463e+003,1.273234e+002
1.603427e+003,1.292120e+002
1.604392e+003,1.289471e+002
1.605356e+003,1.277407e+002
1.606320e+003,1.282598e+002
1.607284e+003,1.303159e+002
1.608249e+003,1.301556e+002
1.609213e+003,1.257930e+002
1.610177e+003,1.207416e+002
1.611141e+003,1.189824e+002
1.612106e+003,1.195233e+002
1.613070e+003,1.184797e+002
1.614034e+003,1.155753e+002
1.614998e+003,1.138907e+002
1.615963e+003,1.143892e+002
1.616927e+003,1.157166e+002
1.617891e+003,1.176405e+002
1.618855e+003,1.191967e+002
1.619820e+003,1.193043e+002
1.620784e+003,1.175619e+002
1.621748e+003,1.143250e+002
1.622712e+003,1.108479e+002
1.623677e+003,1.085111e+002
1.624641e+003,1.072623e+002
1.625605e+003,1.077194e+002
1.626569e+003,1.112633e+002
1.627533e+003,1.159305e+002
1.628498e+003,1.177535e+002
1.629462e+003,1.175128e+002
1.630426e+003,1.169600e+002
1.631390e+003,1.161045e+002
1.632354e+003,1.157292e+002
1.633319e+003,1.164862e+002
1.634283e+003,1.172953e+002
1.635247e+003,1.164321e+002
1.636211e+003,1.143011e+002
1.637176e+003,1.129204e+002
1.638140e+003,1.131057e+002
1.639104e+003,1.151454e+002
1.640068e+003,1.197958e+002
1.641033e+003,1.240592e+002
1.641997e+003,1.229330e+002
1.642961e+003,1.177477e+002
1.643925e+003,1.150890e+002
1.644890e+003,1.155438e+002
1.645854e+003,1.163123e+002
1.646818e+003,1.152238e+002
1.647782e+003,1.148806e+002
1.648747e+003,1.187722e+002
1.649711e+003,1.234703e+002
1.650675e+003,1.233988e+002
1.651639e+003,1.196844e+002
1.652604e+003,1.181111e+002
1.653568e+003,1.201200e+002
1.654532e+003,1.216981e+002
1.655496e+003,1.200228e+002
1.656460e+003,1.165371e+002
1.657425e+003,1.140050e+002
1.658389e+003,1.125598e+002
1.659353e+003,1.096725e+002
1.660317e+003,1.045900e+002
1.661281e+003,9.951733e+001
1.662246e+003,9.331604e+001
1.663210e+003,8.897437e+001
1.664174e+003,8.985193e+001
1.665138e+003,9.356885e+001
1.666103e+003,9.731140e+001
1.667067e+003,9.984216e+001
1.668031e+003,9.880554e+001
1.668995e+003,9.369580e+001
1.669960e+003,8.766406e+001
1.670924e+003,8.271057e+001
1.671888e+003,7.967664e+001
1.672852e+003,8.044971e+001
1.673817e+003,8.418030e+001
1.674781e+003,8.392773e+001
1.675745e+003,7.814465e+001
1.676709e+003,7.406006e+001
1.677674e+003,7.520386e+001
1.678638e+003,7.571460e+001
1.679602e+003,7.040845e+001
1.680566e+003,6.399524e+001
1.681531e+003,6.378430e+001
1.682495e+003,6.868579e+001
1.683459e+003,7.221765e+001
1.684423e+003,7.187549e+001
1.685387e+003,6.922156e+001
1.686352e+003,6.571008e+001
1.687316e+003,6.193640e+001
1.688280e+003,5.772290e+001
1.689244e+003,5.298303e+001
1.690208e+003,5.294788e+001
1.691173e+003,6.064246e+001
1.692137e+003,6.376465e+001
1.693101e+003,5.824402e+001
1.694065e+003,5.311804e+001
1.695030e+003,5.125464e+001
1.695994e+003,5.101611e+001
1.696958e+003,5.234119e+001
1.697922e+003,5.423645e+001
1.698887e+003,5.461768e+001
1.699851e+003,5.281506e+001
1.700815e+003,4.909497e+001
1.701779e+003,4.367468e+001
1.702744e+003,3.795337e+001
1.703708e+003,3.393213e+001
1.704672e+003,3.218750e+001
1.705636e+003,3.493896e+001
1.706601e+003,4.544604e+001
1.707565e+003,4.965979e+001
1.708529e+003,4.393530e+001
1.709493e+003,3.854858e+001
1.710458e+003,3.607642e+001
1.711422e+003,3.522583e+001
1.712386e+003,3.662158e+001
1.713350e+003,3.872791e+001
1.714314e+003,3.812134e+001
1.715279e+003,3.432617e+001
1.716243e+003,3.016064e+001
1.717207e+003,2.783069e+001
1.718171e+003,2.747302e+001
1.719135e+003,2.883289e+001
1.720100e+003,3.118982e+001
1.721064e+003,3.188708e+001
1.722028e+003,3.053735e+001
1.722992e+003,2.835767e+001
1.723957e+003,2.442139e+001
1.724921e+003,2.288940e+001
1.725885e+003,2.460205e+001
1.726849e+003,2.604614e+001
1.727814e+003,2.765063e+001
1.728778e+003,2.864844e+001
1.729742e+003,2.558398e+001
1.730706e+003,1.995203e+001
1.731671e+003,1.797388e+001
1.732635e+003,2.134802e+001
1.733599e+003,2.440442e+001
1.734563e+003,2.288013e+001
1.735528e+003,1.957568e+001
1.736492e+003,1.856982e+001
1.737456e+003,1.951196e+001
1.738420e+003,2.004114e+001
1.739385e+003,1.919922e+001
1.740349e+003,1.809253e+001
1.741313e+003,1.822498e+001
1.742277e+003,1.762903e+001
1.743241e+003,1.478320e+001
1.744206e+003,1.188049e+001
1.745170e+003,1.044739e+001
1.746134e+003,9.918457e+000
1.747098e+003,8.856079e+000
1.748063e+003,7.185303e+000
1.749027e+003,7.567871e+000
1.749991e+003,1.256445e+001
1.750955e+003,1.785217e+001
1.751919e+003,1.679468e+001
1.752884e+003,1.202307e+001
1.753848e+003,1.147937e+001
1.754812e+003,1.481885e+001
1.755776e+003,1.626379e+001
1.756741e+003,1.504114e+001
1.757705e+003,1.419043e+001
1.758669e+003,1.470483e+001
1.759633e+003,1.533667e+001
1.760598e+003,1.491028e+001
1.761562e+003,1.355103e+001
1.762526e+003,1.248376e+001
1.763490e+003,1.227173e+001
1.764455e+003,1.212646e+001
1.765419e+003,1.189233e+001
1.766383e+003,1.247852e+001
1.767347e+003,1.423547e+001
1.768312e+003,1.556372e+001
1.769276e+003,1.509644e+001
1.770240e+003,1.277356e+001
1.771204e+003,8.699951e+000
1.772168e+003,4.316162e+000
1.773133e+003,2.435303e+000
1.774097e+003,3.720337e+000
1.775061e+003,6.842163e+000
1.776025e+003,1.094055e+001
1.776990e+003,1.400977e+001
1.777954e+003,1.301563e+001
1.778918e+003,9.304199e+000
1.779882e+003,9.011230e+000
1.780846e+003,1.322583e+001
1.781811e+003,1.453967e+001
1.782775e+003,1.126733e+001
1.783739e+003,8.817505e+000
1.784703e+003,9.758789e+000
1.785668e+003,1.124585e+001
1.786632e+003,1.026501e+001
1.787596e+003,7.807983e+000
1.788560e+003,6.515869e+000
1.789525e+003,6.998291e+000
1.790489e+003,7.804321e+000
1.791453e+003,8.049805e+000
1.792417e+003,8.645874e+000
1.793382e+003,1.054236e+001
1.794346e+003,1.224988e+001
1.795310e+003,1.028503e+001
1.796274e+003,4.603760e+000
1.797239e+003,2.313232e+000
1.798203e+003,5.132080e+000
1.799167e+003,8.863281e+000
1.800131e+003,1.314819e+001
1.801095e+003,1.449512e+001
1.802060e+003,1.093274e+001
1.803024e+003,6.847168e+000
1.803988e+003,4.776123e+000
1.804952e+003,4.004761e+000
1.805917e+003,3.846802e+000
1.806881e+003,3.979492e+000
1.807845e+003,3.378052e+000
1.808809e+003,1.620361e+000
1.809773e+003,8.581543e-001
1.810738e+003,3.518433e+000
1.811702e+003,7.711182e+000
1.812666e+003,1.069141e+001
1.813630e+003,1.231885e+001
1.814595e+003,1.174707e+001
1.815559e+003,8.797241e+000
1.816523e+003,7.149780e+000
1.817487e+003,8.715332e+000
1.818452e+003,1.022644e+001
1.819416e+003,9.154419e+000
1.820380e+003,6.840454e+000
1.821344e+003,4.380493e+000
1.822309e+003,1.671875e+000
1.823273e+003,2.488525e+000
1.824237e+003,9.184204e+000
1.825201e+003,1.309888e+001
1.826166e+003,1.086560e+001
1.827130e+003,7.879395e+000
1.828094e+003,5.202026e+000
1.829058e+003,2.819336e+000
1.830022e+003,9.323730e-001
1.830987e+003,6.347656e-003
1.831951e+003,9.727783e-001
1.832915e+003,3.257324e+000
1.833879e+003,5.050659e+000
1.834844e+003,5.711670e+000
1.835808e+003,5.935181e+000
1.836772e+003,6.119629e+000
1.837736e+003,6.209595e+000
1.838700e+003,6.159668e+000
1.839665e+003,5.687988e+000
1.840629e+003,4.886597e+000
1.841593e+003,3.583740e+000
1.842557e+003,3.769531e+000
1.843522e+003,7.606812e+000
1.844486e+003,9.477783e+000
1.845450e+003,5.245605e+000
1.846414e+003,1.673218e+000
1.847379e+003,2.891235e+000
1.848343e+003,5.261719e+000
1.849307e+003,5.121826e+000
1.850271e+003,3.329346e+000
1.851236e+003,1.559570e+000
1.852200e+003,1.092529e-001
1.853164e+003,3.342285e-001
1.854128e+003,3.635498e+000
1.855093e+003,6.214844e+000
1.856057e+003,3.740845e+000
1.857021e+003,0.000000e+000
1.857985e+003,2.152344e+000
1.858949e+003,8.459961e+000
1.859914e+003,1.114893e+001
1.860878e+003,8.883057e+000
1.861842e+003,5.513306e+000
1.862806e+003,2.574219e+000
1.863771e+003,1.369263e+000
1.864735e+003,3.590454e+000
1.865699e+003,7.960083e+000
1.866663e+003,1.216748e+001
1.867627e+003,1.721533e+001
1.868592e+003,2.043445e+001
1.869556e+003,1.922925e+001
1.870520e+003,1.682959e+001
1.871484e+003,1.246887e+001
1.872449e+003,8.865356e+000
1.873413e+003,9.101074e+000
1.874377e+003,1.137598e+001
1.875341e+003,1.255798e+001
1.876306e+003,1.290442e+001
1.877270e+003,1.457300e+001
1.878234e+003,1.687720e+001
1.879198e+003,1.634253e+001
1.880163e+003,1.217273e+001
1.881127e+003,9.320679e+000
1.882091e+003,1.242273e+001
1.883055e+003,1.734814e+001
1.884020e+003,1.720715e+001
1.884984e+003,1.342920e+001
1.885948e+003,1.082825e+001
1.886912e+003,9.515137e+000
1.887876e+003,9.354126e+000
1.888841e+003,1.045068e+001
1.889805e+003,1.238538e+001
1.890769e+003,1.542761e+001
1.891733e+003,1.734985e+001
1.892698e+003,1.501172e+001
1.893662e+003,1.045532e+001
1.894626e+003,9.639648e+000
1.895590e+003,1.295813e+001
1.896554e+003,1.417456e+001
1.897519e+003,1.250061e+001
1.898483e+003,1.206250e+001
1.899447e+003,1.216479e+001
1.900411e+003,1.316772e+001
1.901376e+003,1.627686e+001
1.902340e+003,1.985803e+001
1.903304e+003,2.337207e+001
1.904268e+003,2.586731e+001
1.905233e+003,2.662915e+001
1.906197e+003,2.589221e+001
1.907161e+003,2.325354e+001
1.908125e+003,1.923364e+001
1.909090e+003,1.726965e+001
1.910054e+003,1.952612e+001
1.911018e+003,2.337439e+001
1.911982e+003,2.698218e+001
1.912947e+003,3.001648e+001
1.913911e+003,2.878601e+001
1.914875e+003,2.376587e+001
1.915839e+003,2.102856e+001
1.916803e+003,2.074341e+001
1.917768e+003,2.310291e+001
1.918732e+003,2.984155e+001
1.919696e+003,3.453186e+001
1.920660e+003,3.169629e+001
1.921625e+003,2.658984e+001
1.922589e+003,2.617993e+001
1.923553e+003,2.892078e+001
1.924517e+003,3.002612e+001
1.925481e+003,2.966992e+001
1.926446e+003,2.999011e+001
1.927410e+003,3.303760e+001
1.928374e+003,3.342737e+001
1.929338e+003,2.714087e+001
1.930303e+003,2.085571e+001
1.931267e+003,1.845398e+001
1.932231e+003,1.902295e+001
1.933195e+003,2.139136e+001
1.934160e+003,2.441760e+001
1.935124e+003,2.790771e+001
1.936088e+003,3.087830e+001
1.937052e+003,3.101917e+001
1.938017e+003,2.799316e+001
1.938981e+003,2.409021e+001
1.939945e+003,2.012891e+001
1.940909e+003,1.667822e+001
1.941874e+003,1.482849e+001
1.942838e+003,1.443103e+001
1.943802e+003,1.692224e+001
1.944766e+003,2.231665e+001
1.945730e+003,2.517981e+001
1.946695e+003,2.399719e+001
1.947659e+003,2.211011e+001
1.948623e+003,2.077856e+001
1.949587e+003,2.043115e+001
1.950552e+003,2.198865e+001
1.951516e+003,2.502588e+001
1.952480e+003,2.817957e+001
1.953444e+003,3.099731e+001
1.954408e+003,3.070532e+001
1.955373e+003,2.434448e+001
1.956337e+003,2.096301e+001
1.957301e+003,2.484070e+001
1.958265e+003,2.754565e+001
1.959230e+003,2.608765e+001
1.960194e+003,2.529993e+001
1.961158e+003,2.727869e+001
1.962122e+003,2.955969e+001
1.963087e+003,3.075146e+001
1.964051e+003,3.096533e+001
1.965015e+003,2.992883e+001
1.965979e+003,2.830615e+001
1.966944e+003,2.831360e+001
1.967908e+003,3.047864e+001
1.968872e+003,3.290649e+001
1.969836e+003,3.533252e+001
1.970801e+003,3.664502e+001
1.971765e+003,3.453601e+001
1.972729e+003,3.166724e+001
1.973693e+003,3.257141e+001
1.974657e+003,3.625391e+001
1.975622e+003,3.931433e+001
1.976586e+003,4.084753e+001
1.977550e+003,4.160046e+001
1.978514e+003,4.199902e+001
1.979479e+003,4.094031e+001
1.980443e+003,3.727515e+001
1.981407e+003,3.314233e+001
1.982371e+003,3.269702e+001
1.983335e+003,3.575818e+001
1.984300e+003,3.938098e+001
1.985264e+003,4.365820e+001
1.986228e+003,4.350269e+001
1.987192e+003,3.684497e+001
1.988157e+003,3.214319e+001
1.989121e+003,3.253235e+001
1.990085e+003,3.391455e+001
1.991049e+003,3.460168e+001
1.992014e+003,3.491870e+001
1.992978e+003,3.416333e+001
1.993942e+003,3.296924e+001
1.994906e+003,3.385205e+001
1.995871e+003,3.682520e+001
1.996835e+003,3.920508e+001
1.997799e+003,4.153918e+001
1.998763e+003,4.277393e+001
1.999728e+003,3.997632e+001
