5.003444e+002,1.836146e+002
5.013087e+002,1.794279e+002
5.022729e+002,1.770494e+002
5.032371e+002,1.763276e+002
5.042014e+002,1.736111e+002
5.051656e+002,1.693608e+002
5.061298e+002,1.646821e+002
5.070941e+002,1.602687e+002
5.080583e+002,1.555468e+002
5.090225e+002,1.522488e+002
5.099868e+002,1.517091e+002
5.109510e+002,1.506992e+002
5.119152e+002,1.469392e+002
5.128795e+002,1.401466e+002
5.138437e+002,1.351511e+002
5.148079e+002,1.351671e+002
5.157722e+002,1.362019e+002
5.167364e+002,1.370004e+002
5.177006e+002,1.368329e+002
5.186649e+002,1.352766e+002
5.196291e+002,1.313315e+002
5.205933e+002,1.275548e+002
5.215576e+002,1.260378e+002
5.225218e+002,1.262853e+002
5.234860e+002,1.267294e+002
5.244503e+002,1.253212e+002
5.254145e+002,1.223202e+002
5.263787e+002,1.200272e+002
5.273430e+002,1.186235e+002
5.283072e+002,1.177948e+002
5.292714e+002,1.169739e+002
5.302357e+002,1.154761e+002
5.311999e+002,1.129390e+002
5.321641e+002,1.098894e+002
5.331284e+002,1.072574e+002
5.340926e+002,1.055742e+002
5.350568e+002,1.047253e+002
5.360211e+002,1.031355e+002
5.369853e+002,9.977051e+001
5.379495e+002,9.630798e+001
5.389138e+002,9.382629e+001
5.398780e+002,9.261536e+001
5.408422e+002,9.213037e+001
5.418065e+002,9.106946e+001
5.427707e+002,8.958875e+001
5.437349e+002,8.938782e+001
5.446992e+002,9.138660e+001
5.456634e+002,9.444775e+001
5.466276e+002,9.480542e+001
5.475919e+002,8.977124e+001
5.485561e+002,8.559827e+001
5.495203e+002,8.240955e+001
5.504846e+002,7.966492e+001
5.514488e+002,7.669275e+001
5.524130e+002,7.318750e+001
5.533773e+002,7.097327e+001
5.543415e+002,7.179907e+001
5.553057e+002,7.362451e+001
5.562700e+002,7.448291e+001
5.572342e+002,7.305481e+001
5.581984e+002,6.949207e+001
5.591627e+002,6.336194e+001
5.601269e+002,5.636731e+001
5.610911e+002,5.156055e+001
5.620554e+002,5.042542e+001
5.630196e+002,5.222070e+001
5.639838e+002,5.274976e+001
5.649481e+002,5.160901e+001
5.659123e+002,4.991309e+001
5.668765e+002,4.849963e+001
5.678408e+002,4.762085e+001
5.688050e+002,4.677026e+001
5.697692e+002,4.403809e+001
5.707335e+002,4.170386e+001
5.716977e+002,4.095081e+001
5.726619e+002,4.134851e+001
5.736262e+002,4.276990e+001
5.745904e+002,4.563599e+001
5.755546e+002,4.790186e+001
5.765189e+002,4.437549e+001
5.774831e+002,3.742200e+001
5.784473e+002,3.242212e+001
5.794116e+002,3.331763e+001
5.803758e+002,3.978748e+001
5.813400e+002,4.153223e+001
5.823043e+002,3.622192e+001
5.832685e+002,3.115869e+001
5.842327e+002,2.985217e+001
5.851970e+002,3.211865e+001
5.861612e+002,3.376392e+001
5.871254e+002,3.123438e+001
5.880897e+002,3.055566e+001
5.890539e+002,3.451685e+001
5.900181e+002,4.039111e+001
5.909824e+002,4.389844e+001
5.919466e+002,4.240430e+001
5.929108e+002,3.803491e+001
5.938751e+002,3.223584e+001
5.948393e+002,2.617114e+001
5.958035e+002,2.200110e+001
5.967678e+002,2.133997e+001
5.977320e+002,2.382849e+001
5.986962e+002,2.424988e+001
5.996605e+002,2.175305e+001
6.006247e+002,1.965271e+001
6.015889e+002,2.018738e+001
6.025532e+002,2.314587e+001
6.035174e+002,2.415259e+001
6.044816e+002,2.103247e+001
6.054459e+002,1.837671e+001
6.064101e+002,1.659973e+001
6.073743e+002,1.568713e+001
6.083386e+002,1.559204e+001
6.093028e+002,1.667847e+001
6.102670e+002,1.835742e+001
6.112313e+002,2.055200e+001
6.121955e+002,2.255701e+001
6.131597e+002,2.316724e+001
6.141240e+002,2.158569e+001
6.150882e+002,1.859656e+001
6.160524e+002,1.837085e+001
6.170167e+002,2.072876e+001
6.179809e+002,2.324561e+001
6.189451e+002,2.479211e+001
6.199094e+002,2.497839e+001
6.208736e+002,2.333521e+001
6.218378e+002,1.730029e+001
6.228021e+002,1.385815e+001
6.237663e+002,1.511462e+001
6.247305e+002,1.917761e+001
6.256948e+002,2.289380e+001
6.266590e+002,2.484814e+001
6.276232e+002,2.497827e+001
6.285875e+002,2.385986e+001
6.295517e+002,2.220959e+001
6.305159e+002,2.059766e+001
6.314802e+002,1.911670e+001
6.324444e+002,1.709204e+001
6.334086e+002,1.222803e+001
6.343729e+002,6.247070e+000
6.353371e+002,3.264038e+000
6.363013e+002,5.028809e+000
6.372656e+002,9.821533e+000
6.382298e+002,1.206628e+001
6.391940e+002,9.619873e+000
6.401583e+002,6.469360e+000
6.411225e+002,3.295410e+000
6.420867e+002,5.426025e-001
6.430510e+002,-2.175171e+000
6.440152e+002,-6.089233e+000
6.449794e+002,-8.379272e+000
6.459437e+002,-5.062622e+000
6.469079e+002,-1.508423e+000
6.478721e+002,-2.806763e+000
6.488364e+002,-9.974854e+000
6.498006e+002,-1.818994e+001
6.507648e+002,-1.845032e+001
6.517291e+002,-1.362024e+001
6.526933e+002,-9.769531e+000
6.536575e+002,-8.044189e+000
6.546218e+002,-7.896240e+000
6.555860e+002,-8.254150e+000
6.565502e+002,-9.411621e+000
6.575145e+002,-1.077673e+001
6.584787e+002,-1.300330e+001
6.594429e+002,-1.480933e+001
6.604072e+002,-1.514001e+001
6.613714e+002,-1.375928e+001
6.623356e+002,-1.154773e+001
6.632999e+002,-7.837280e+000
6.642641e+002,-5.190552e+000
6.652283e+002,-5.034058e+000
6.661926e+002,-6.816772e+000
6.671568e+002,-8.527954e+000
6.681210e+002,-7.689941e+000
6.690853e+002,-6.142700e+000
6.700495e+002,-8.658569e+000
6.710137e+002,-1.492090e+001
6.719780e+002,-2.006726e+001
6.729422e+002,-1.859851e+001
6.739064e+002,-8.743652e+000
6.748707e+002,-4.532593e+000
6.758349e+002,-9.443726e+000
6.767991e+002,-1.448694e+001
6.777634e+002,-1.552344e+001
6.787276e+002,-1.241968e+001
6.796918e+002,-8.024902e+000
6.806561e+002,-1.989014e+000
6.816203e+002,2.284912e+000
6.825845e+002,2.769043e+000
6.835488e+002,8.128662e-001
6.845130e+002,-1.316895e+000
6.854772e+002,-1.820679e+000
6.864415e+002,-1.142090e+000
6.874057e+002,-1.738281e+000
6.883699e+002,-3.679565e+000
6.893342e+002,-5.332397e+000
6.902984e+002,-5.550293e+000
6.912626e+002,-4.409790e+000
6.922269e+002,-3.851563e+000
6.931911e+002,-3.036743e+000
6.941553e+002,-2.097412e+000
6.951196e+002,-2.141724e+000
6.960838e+002,-2.854004e+000
6.970480e+002,-3.197998e+000
6.980123e+002,-2.538086e+000
6.989765e+002,-1.625854e+000
6.999407e+002,-4.976807e-001
7.009050e+002,2.856445e-001
7.018692e+002,8.984375e-002
7.028334e+002,-1.290527e+000
7.037977e+002,-3.390259e+000
7.047619e+002,-5.346191e+000
7.057261e+002,-6.644897e+000
7.066904e+002,-7.414307e+000
7.076546e+002,-7.700806e+000
7.086188e+002,-7.015747e+000
7.095831e+002,-4.355835e+000
7.105473e+002,1.492432e+000
7.115115e+002,3.983154e+000
7.124758e+002,1.320068e+000
7.134400e+002,-2.545654e+000
7.144042e+002,-5.523926e+000
7.153685e+002,-7.194824e+000
7.163327e+002,-7.461182e+000
7.172969e+002,-4.264771e+000
7.182612e+002,-1.288696e+000
7.192254e+002,-9.912109e-002
7.201896e+002,-7.099609e-001
7.211539e+002,-2.846436e+000
7.221181e+002,-6.460449e+000
7.230823e+002,-1.038806e+001
7.240466e+002,-1.146472e+001
7.250108e+002,-9.759521e+000
7.259750e+002,-7.172119e+000
7.269393e+002,-5.340942e+000
7.279035e+002,-4.784058e+000
7.288677e+002,-4.221680e+000
7.298320e+002,-1.454712e+000
7.307962e+002,1.238647e+000
7.317604e+002,4.012329e+000
7.327247e+002,6.688599e+000
7.336889e+002,8.487793e+000
7.346531e+002,8.160400e+000
7.356174e+002,6.224243e+000
7.365816e+002,3.670044e+000
7.375458e+002,1.725342e+000
7.385101e+002,1.380005e+000
7.394743e+002,2.745117e+000
7.404385e+002,5.118286e+000
7.414028e+002,7.821777e+000
7.423670e+002,8.786865e+000
7.433312e+002,5.192505e+000
7.442955e+002,-2.612061e+000
7.452597e+002,-1.033044e+001
7.462239e+002,-1.352466e+001
7.471882e+002,-1.135339e+001
7.481524e+002,-9.316406e+000
7.491166e+002,-9.284912e+000
7.500809e+002,-9.118286e+000
7.510451e+002,-7.549805e+000
7.520093e+002,-5.018311e+000
7.529736e+002,-3.078491e+000
7.539378e+002,-1.555664e+000
7.549020e+002,-6.262207e-001
7.558663e+002,-1.426636e+000
7.568306e+002,-2.623779e+000
7.577948e+002,-2.336426e+000
7.587590e+002,2.525635e-001
7.597233e+002,3.599854e+000
7.606875e+002,4.242310e+000
7.616517e+002,2.976685e+000
7.626160e+002,1.774902e+000
7.635802e+002,1.120850e+000
7.645444e+002,1.073853e+000
7.655087e+002,1.767944e+000
7.664729e+002,3.897705e+000
7.674371e+002,4.668335e+000
7.684014e+002,2.249634e+000
7.693656e+002,2.819824e-002
7.703298e+002,3.554688e-001
7.712941e+002,3.510254e+000
7.722583e+002,7.829834e+000
7.732225e+002,1.413599e+001
7.741868e+002,1.894617e+001
7.751510e+002,1.804614e+001
7.761152e+002,1.332043e+001
7.770795e+002,9.383789e+000
7.780437e+002,1.023865e+001
7.790079e+002,1.499170e+001
7.799722e+002,1.782996e+001
7.809364e+002,1.909009e+001
7.819006e+002,1.849048e+001
7.828649e+002,1.465161e+001
7.838291e+002,9.451050e+000
7.847933e+002,8.452271e+000
7.857576e+002,1.440344e+001
7.867218e+002,1.830090e+001
7.876860e+002,1.991541e+001
7.886503e+002,1.952551e+001
7.896145e+002,1.574097e+001
7.905787e+002,8.784912e+000
7.915430e+002,3.700684e+000
7.925072e+002,8.361938e+000
7.934714e+002,1.532544e+001
7.944357e+002,1.695825e+001
7.953999e+002,1.351074e+001
7.963641e+002,8.724121e+000
7.973284e+002,6.424927e+000
7.982926e+002,6.685791e+000
7.992568e+002,9.375610e+000
8.002211e+002,1.535974e+001
8.011853e+002,1.881885e+001
8.021495e+002,1.726367e+001
8.031138e+002,1.314783e+001
8.040780e+002,1.267432e+001
8.050422e+002,1.907251e+001
8.060065e+002,2.361743e+001
8.069707e+002,2.093774e+001
8.079349e+002,1.604285e+001
8.088992e+002,1.457300e+001
8.098634e+002,1.855725e+001
8.108276e+002,2.446436e+001
8.117919e+002,2.710938e+001
8.127561e+002,2.623962e+001
8.137203e+002,2.302502e+001
8.146846e+002,1.837280e+001
8.156488e+002,1.409460e+001
8.166130e+002,1.196277e+001
8.175773e+002,1.208521e+001
8.185415e+002,1.260437e+001
8.195057e+002,1.227161e+001
8.204700e+002,1.250623e+001
8.214342e+002,1.452332e+001
8.223984e+002,1.750549e+001
8.233627e+002,1.910754e+001
8.243269e+002,1.780713e+001
8.252911e+002,1.710193e+001
8.262554e+002,1.946887e+001
8.272196e+002,2.289490e+001
8.281838e+002,2.526489e+001
8.291481e+002,2.578442e+001
8.301123e+002,2.532959e+001
8.310765e+002,2.554395e+001
8.320408e+002,2.602222e+001
8.330050e+002,2.466809e+001
8.339692e+002,2.100439e+001
8.349335e+002,1.721582e+001
8.358977e+002,1.587415e+001
8.368619e+002,1.767969e+001
8.378262e+002,1.954089e+001
8.387904e+002,2.086243e+001
8.397546e+002,2.172852e+001
8.407189e+002,2.132166e+001
8.416831e+002,2.080493e+001
8.426473e+002,2.250659e+001
8.436116e+002,2.805432e+001
8.445758e+002,3.394446e+001
8.455400e+002,3.535193e+001
8.465043e+002,3.415259e+001
8.474685e+002,3.315564e+001
8.484327e+002,3.365039e+001
8.493970e+002,3.510193e+001
8.503612e+002,3.579541e+001
8.513254e+002,3.528345e+001
8.522897e+002,3.457996e+001
8.532539e+002,3.282056e+001
8.542181e+002,3.113379e+001
8.551824e+002,3.058154e+001
8.561466e+002,3.182117e+001
8.571108e+002,3.499414e+001
8.580751e+002,3.884570e+001
8.590393e+002,4.334668e+001
8.600035e+002,5.137659e+001
8.609678e+002,5.968591e+001
8.619320e+002,6.350061e+001
8.628962e+002,6.119666e+001
8.638605e+002,5.778174e+001
8.648247e+002,6.222693e+001
8.657889e+002,7.075037e+001
8.667532e+002,7.587744e+001
8.677174e+002,7.660986e+001
8.686816e+002,7.399768e+001
8.696459e+002,6.849011e+001
8.706101e+002,5.930701e+001
8.715743e+002,5.638684e+001
8.725386e+002,6.395068e+001
8.735028e+002,7.182776e+001
8.744670e+002,7.733142e+001
8.754313e+002,8.057568e+001
8.763955e+002,8.242322e+001
8.773597e+002,8.294299e+001
8.783240e+002,8.414380e+001
8.792882e+002,8.757690e+001
8.802524e+002,9.160986e+001
8.812167e+002,9.535620e+001
8.821809e+002,9.838269e+001
8.831451e+002,1.002957e+002
8.841094e+002,1.005341e+002
8.850736e+002,9.975537e+001
8.860378e+002,1.016635e+002
8.870021e+002,1.064067e+002
8.879663e+002,1.113324e+002
8.889305e+002,1.151901e+002
8.898948e+002,1.177234e+002
8.908590e+002,1.184983e+002
8.918232e+002,1.167191e+002
8.927875e+002,1.155076e+002
8.937517e+002,1.146320e+002
8.947159e+002,1.151624e+002
8.956802e+002,1.183929e+002
8.966444e+002,1.237623e+002
8.976086e+002,1.282643e+002
8.985729e+002,1.288689e+002
8.995371e+002,1.281471e+002
9.005013e+002,1.298376e+002
9.014656e+002,1.339608e+002
9.024298e+002,1.388469e+002
9.033940e+002,1.429314e+002
9.043583e+002,1.456794e+002
9.053225e+002,1.470813e+002
9.062867e+002,1.452340e+002
9.072510e+002,1.434418e+002
9.082152e+002,1.423121e+002
9.091794e+002,1.424098e+002
9.101437e+002,1.447819e+002
9.111079e+002,1.495642e+002
9.120721e+002,1.531866e+002
9.130364e+002,1.519120e+002
9.140006e+002,1.489205e+002
9.149648e+002,1.456022e+002
9.159291e+002,1.430273e+002
9.168933e+002,1.423561e+002
9.178575e+002,1.440427e+002
9.188218e+002,1.467067e+002
9.197860e+002,1.465385e+002
9.207502e+002,1.432246e+002
9.217145e+002,1.394777e+002
9.226787e+002,1.364130e+002
9.236429e+002,1.340997e+002
9.246072e+002,1.323643e+002
9.255714e+002,1.310560e+002
9.265356e+002,1.283522e+002
9.274999e+002,1.206271e+002
9.284641e+002,1.145206e+002
9.294283e+002,1.138088e+002
9.303926e+002,1.165547e+002
9.313568e+002,1.190521e+002
9.323210e+002,1.193918e+002
9.332853e+002,1.182521e+002
9.342495e+002,1.166857e+002
9.352137e+002,1.142277e+002
9.361780e+002,1.098781e+002
9.371422e+002,1.039725e+002
9.381064e+002,9.876648e+001
9.390707e+002,9.672327e+001
9.400349e+002,9.753369e+001
9.409991e+002,9.896167e+001
9.419634e+002,1.016465e+002
9.429276e+002,1.037157e+002
9.438918e+002,1.050265e+002
9.448561e+002,1.055695e+002
9.458203e+002,1.050143e+002
9.467845e+002,1.030957e+002
9.477488e+002,1.020566e+002
9.487130e+002,1.046998e+002
9.496772e+002,1.078253e+002
9.506415e+002,1.084164e+002
9.516057e+002,1.067251e+002
9.525699e+002,1.053099e+002
9.535342e+002,1.066301e+002
9.544984e+002,1.099465e+002
9.554626e+002,1.111588e+002
9.564269e+002,1.115208e+002
9.573911e+002,1.100387e+002
9.583553e+002,1.039491e+002
9.593196e+002,9.650464e+001
9.602838e+002,9.360815e+001
9.612480e+002,9.644336e+001
9.622123e+002,9.879346e+001
9.631765e+002,9.942578e+001
9.641407e+002,9.911365e+001
9.651050e+002,9.734619e+001
9.660692e+002,9.454700e+001
9.670334e+002,9.151721e+001
9.679977e+002,8.906116e+001
9.689619e+002,8.829749e+001
9.699261e+002,9.106909e+001
9.708904e+002,9.603357e+001
9.718546e+002,1.016189e+002
9.728188e+002,1.074365e+002
9.737831e+002,1.128329e+002
9.747473e+002,1.167030e+002
9.757115e+002,1.184824e+002
9.766758e+002,1.231572e+002
9.776400e+002,1.373951e+002
9.786042e+002,1.474785e+002
9.795685e+002,1.494255e+002
9.805327e+002,1.446863e+002
9.814969e+002,1.344523e+002
9.824612e+002,1.194806e+002
9.834254e+002,1.054996e+002
9.843896e+002,9.790430e+001
9.853539e+002,9.341809e+001
9.863181e+002,8.909656e+001
9.872823e+002,8.437915e+001
9.882466e+002,8.003564e+001
9.892108e+002,7.735107e+001
9.901750e+002,7.705505e+001
9.911393e+002,7.819788e+001
9.921035e+002,7.953455e+001
9.930677e+002,8.087158e+001
9.940320e+002,8.232397e+001
9.949962e+002,8.494775e+001
9.959604e+002,9.027979e+001
9.969247e+002,9.836487e+001
9.978889e+002,1.060745e+002
9.988531e+002,1.106882e+002
9.998174e+002,1.140707e+002
1.000782e+003,1.185006e+002
1.001746e+003,1.232539e+002
1.002710e+003,1.267627e+002
1.003674e+003,1.283132e+002
1.004639e+003,1.286656e+002
1.005603e+003,1.292114e+002
1.006567e+003,1.297329e+002
1.007531e+003,1.295288e+002
1.008495e+003,1.285920e+002
1.009460e+003,1.272509e+002
1.010424e+003,1.258411e+002
1.011388e+003,1.244607e+002
1.012352e+003,1.229418e+002
1.013317e+003,1.210696e+002
1.014281e+003,1.185630e+002
1.015245e+003,1.153234e+002
1.016209e+003,1.110377e+002
1.017174e+003,1.056021e+002
1.018138e+003,9.916223e+001
1.019102e+003,9.192310e+001
1.020066e+003,8.411780e+001
1.021031e+003,7.634070e+001
1.021995e+003,6.870093e+001
1.022959e+003,6.069275e+001
1.023923e+003,5.390076e+001
1.024887e+003,4.893274e+001
1.025852e+003,4.496326e+001
1.026816e+003,4.120593e+001
1.027780e+003,3.842419e+001
1.028744e+003,3.457642e+001
1.029709e+003,2.646387e+001
1.030673e+003,2.054626e+001
1.031637e+003,2.016370e+001
1.032601e+003,2.218311e+001
1.033566e+003,2.198157e+001
1.034530e+003,1.819653e+001
1.035494e+003,1.481787e+001
1.036458e+003,1.699988e+001
1.037422e+003,2.147314e+001
1.038387e+003,2.256384e+001
1.039351e+003,2.025049e+001
1.040315e+003,1.793335e+001
1.041279e+003,1.841809e+001
1.042244e+003,2.129651e+001
1.043208e+003,2.329846e+001
1.044172e+003,2.296313e+001
1.045136e+003,2.295862e+001
1.046101e+003,2.393652e+001
1.047065e+003,2.524194e+001
1.048029e+003,2.664233e+001
1.048993e+003,2.774939e+001
1.049958e+003,2.783704e+001
1.050922e+003,2.657178e+001
1.051886e+003,2.524963e+001
1.052850e+003,2.467981e+001
1.053814e+003,2.482422e+001
1.054779e+003,2.587415e+001
1.055743e+003,2.767896e+001
1.056707e+003,2.973914e+001
1.057671e+003,3.155884e+001
1.058636e+003,3.301392e+001
1.059600e+003,3.304285e+001
1.060564e+003,3.158716e+001
1.061528e+003,3.044409e+001
1.062493e+003,2.855200e+001
1.063457e+003,2.673865e+001
1.064421e+003,2.722559e+001
1.065385e+003,3.036719e+001
1.066349e+003,3.153162e+001
1.067314e+003,2.641943e+001
1.068278e+003,2.097705e+001
1.069242e+003,1.967712e+001
1.070206e+003,2.113098e+001
1.071171e+003,2.272168e+001
1.072135e+003,2.307471e+001
1.073099e+003,2.278638e+001
1.074063e+003,2.338708e+001
1.075028e+003,2.526477e+001
1.075992e+003,2.608398e+001
1.076956e+003,2.572961e+001
1.077920e+003,2.383716e+001
1.078885e+003,1.915808e+001
1.079849e+003,1.406567e+001
1.080813e+003,1.304211e+001
1.081777e+003,1.751318e+001
1.082741e+003,2.196277e+001
1.083706e+003,2.225745e+001
1.084670e+003,2.168958e+001
1.085634e+003,2.226624e+001
1.086598e+003,2.336353e+001
1.087563e+003,2.358411e+001
1.088527e+003,2.244336e+001
1.089491e+003,2.090564e+001
1.090455e+003,1.995520e+001
1.091420e+003,1.918567e+001
1.092384e+003,1.832373e+001
1.093348e+003,1.692163e+001
1.094312e+003,1.532947e+001
1.095276e+003,1.390430e+001
1.096241e+003,1.316003e+001
1.097205e+003,1.361682e+001
1.098169e+003,1.500085e+001
1.099133e+003,1.720752e+001
1.100098e+003,2.241138e+001
1.101062e+003,2.690137e+001
1.102026e+003,2.781580e+001
1.102990e+003,2.611963e+001
1.103955e+003,2.423132e+001
1.104919e+003,2.352454e+001
1.105883e+003,2.358105e+001
1.106847e+003,2.404688e+001
1.107812e+003,2.480151e+001
1.108776e+003,2.445300e+001
1.109740e+003,2.236401e+001
1.110704e+003,2.039038e+001
1.111668e+003,2.071545e+001
1.112633e+003,2.306934e+001
1.113597e+003,2.427649e+001
1.114561e+003,2.223840e+001
1.115525e+003,2.219604e+001
1.116490e+003,2.754919e+001
1.117454e+003,3.325635e+001
1.118418e+003,3.694543e+001
1.119382e+003,3.874023e+001
1.120347e+003,3.882739e+001
1.121311e+003,3.687427e+001
1.122275e+003,3.423779e+001
1.123239e+003,3.588989e+001
1.124203e+003,4.212842e+001
1.125168e+003,4.623230e+001
1.126132e+003,4.717114e+001
1.127096e+003,4.791296e+001
1.128060e+003,5.060754e+001
1.129025e+003,5.456335e+001
1.129989e+003,5.712329e+001
1.130953e+003,5.622791e+001
1.131917e+003,5.778735e+001
1.132882e+003,6.628516e+001
1.133846e+003,7.502795e+001
1.134810e+003,7.913843e+001
1.135774e+003,8.021057e+001
1.136739e+003,8.261377e+001
1.137703e+003,8.877795e+001
1.138667e+003,9.732361e+001
1.139631e+003,1.058890e+002
1.140595e+003,1.147609e+002
1.141560e+003,1.267881e+002
1.142524e+003,1.428074e+002
1.143488e+003,1.612494e+002
1.144452e+003,1.817061e+002
1.145417e+003,2.035464e+002
1.146381e+003,2.238916e+002
1.147345e+003,2.404961e+002
1.148309e+003,2.610795e+002
1.149274e+003,2.899641e+002
1.150238e+003,3.210576e+002
1.151202e+003,3.535342e+002
1.152166e+003,3.859684e+002
1.153130e+003,4.171355e+002
1.154095e+003,4.456222e+002
1.155059e+003,4.684766e+002
1.156023e+003,4.827045e+002
1.156987e+003,4.880190e+002
1.157952e+003,4.857872e+002
1.158916e+003,4.768367e+002
1.159880e+003,4.632981e+002
1.160844e+003,4.439182e+002
1.161809e+003,4.191927e+002
1.162773e+003,3.919844e+002
1.163737e+003,3.621613e+002
1.164701e+003,3.308379e+002
1.165666e+003,2.947971e+002
1.166630e+003,2.619144e+002
1.167594e+003,2.335339e+002
1.168558e+003,2.106476e+002
1.169522e+003,1.952338e+002
1.170487e+003,1.872195e+002
1.171451e+003,1.833579e+002
1.172415e+003,1.798239e+002
1.173379e+003,1.771885e+002
1.174344e+003,1.812638e+002
1.175308e+003,1.931484e+002
1.176272e+003,1.989135e+002
1.177236e+003,1.912094e+002
1.178201e+003,1.778464e+002
1.179165e+003,1.681624e+002
1.180129e+003,1.617142e+002
1.181093e+003,1.543582e+002
1.182057e+003,1.442800e+002
1.183022e+003,1.353873e+002
1.183986e+003,1.283798e+002
1.184950e+003,1.236281e+002
1.185914e+003,1.224885e+002
1.186879e+003,1.243566e+002
1.187843e+003,1.267456e+002
1.188807e+003,1.274612e+002
1.189771e+003,1.267568e+002
1.190736e+003,1.261780e+002
1.191700e+003,1.257838e+002
1.192664e+003,1.239680e+002
1.193628e+003,1.200665e+002
1.194593e+003,1.161602e+002
1.195557e+003,1.144177e+002
1.196521e+003,1.137040e+002
1.197485e+003,1.099500e+002
1.198449e+003,1.017122e+002
1.199414e+003,9.348364e+001
1.200378e+003,8.698633e+001
1.201342e+003,8.153882e+001
1.202306e+003,7.685168e+001
1.203271e+003,7.254187e+001
1.204235e+003,6.849634e+001
1.205199e+003,6.466345e+001
1.206163e+003,6.047192e+001
1.207128e+003,5.469373e+001
1.208092e+003,4.727441e+001
1.209056e+003,4.115247e+001
1.210020e+003,3.812488e+001
1.210984e+003,3.284485e+001
1.211949e+003,2.075513e+001
1.212913e+003,7.199829e+000
1.213877e+003,1.088867e-001
1.214841e+003,-5.981445e-002
1.215806e+003,-1.031738e+000
1.216770e+003,-6.473633e+000
1.217734e+003,-1.263599e+001
1.218698e+003,-1.753821e+001
1.219663e+003,-2.164014e+001
1.220627e+003,-2.559113e+001
1.221591e+003,-2.931842e+001
1.222555e+003,-3.180005e+001
1.223520e+003,-3.191437e+001
1.224484e+003,-3.018640e+001
1.225448e+003,-3.021002e+001
1.226412e+003,-3.292657e+001
1.227376e+003,-3.579309e+001
1.228341e+003,-4.011359e+001
1.229305e+003,-4.350726e+001
1.230269e+003,-4.412646e+001
1.231233e+003,-4.310980e+001
1.232198e+003,-4.264594e+001
1.233162e+003,-4.308234e+001
1.234126e+003,-4.310852e+001
1.235090e+003,-4.152350e+001
1.236055e+003,-4.010620e+001
1.237019e+003,-4.128058e+001
1.237983e+003,-4.419794e+001
1.238947e+003,-4.576569e+001
1.239911e+003,-4.446686e+001
1.240876e+003,-4.253522e+001
1.241840e+003,-4.385413e+001
1.242804e+003,-4.869513e+001
1.243768e+003,-5.117963e+001
1.244733e+003,-4.938330e+001
1.245697e+003,-4.753168e+001
1.246661e+003,-4.737640e+001
1.247625e+003,-4.695490e+001
1.248590e+003,-4.330737e+001
1.249554e+003,-3.743036e+001
1.250518e+003,-3.364838e+001
1.251482e+003,-3.432611e+001
1.252447e+003,-3.646619e+001
1.253411e+003,-3.632709e+001
1.254375e+003,-3.431964e+001
1.255339e+003,-3.182324e+001
1.256303e+003,-2.867767e+001
1.257268e+003,-2.465472e+001
1.258232e+003,-1.970020e+001
1.259196e+003,-1.496472e+001
1.260160e+003,-1.251880e+001
1.261125e+003,-1.269958e+001
1.262089e+003,-1.010535e+001
1.263053e+003,-2.120972e+000
1.264017e+003,5.140747e+000
1.264982e+003,1.154651e+001
1.265946e+003,1.609021e+001
1.266910e+003,1.746057e+001
1.267874e+003,1.606836e+001
1.268839e+003,1.363220e+001
1.269803e+003,1.132166e+001
1.270767e+003,8.734619e+000
1.271731e+003,5.183228e+000
1.272695e+003,8.316650e-001
1.273660e+003,-4.691895e+000
1.274624e+003,-1.328516e+001
1.275588e+003,-2.023468e+001
1.276552e+003,-2.134155e+001
1.277517e+003,-1.892322e+001
1.278481e+003,-1.770667e+001
1.279445e+003,-1.812787e+001
1.280409e+003,-1.953125e+001
1.281374e+003,-2.269183e+001
1.282338e+003,-2.530682e+001
1.283302e+003,-2.537048e+001
1.284266e+003,-2.491632e+001
1.285230e+003,-2.663104e+001
1.286195e+003,-3.058374e+001
1.287159e+003,-3.461206e+001
1.288123e+003,-3.672144e+001
1.289087e+003,-3.692572e+001
1.290052e+003,-3.616943e+001
1.291016e+003,-3.432031e+001
1.291980e+003,-3.348889e+001
1.292944e+003,-3.489996e+001
1.293909e+003,-3.655475e+001
1.294873e+003,-3.673248e+001
1.295837e+003,-3.644025e+001
1.296801e+003,-3.789624e+001
1.297766e+003,-4.112274e+001
1.298730e+003,-4.287109e+001
1.299694e+003,-4.126660e+001
1.300658e+003,-3.862756e+001
1.301622e+003,-3.638147e+001
1.302587e+003,-3.485510e+001
1.303551e+003,-3.547186e+001
1.304515e+003,-3.805499e+001
1.305479e+003,-4.009375e+001
1.306444e+003,-3.980597e+001
1.307408e+003,-3.792133e+001
1.308372e+003,-3.606531e+001
1.309336e+003,-3.417303e+001
1.310301e+003,-3.265955e+001
1.311265e+003,-2.991571e+001
1.312229e+003,-2.897418e+001
1.313193e+003,-3.282037e+001
1.314157e+003,-3.776636e+001
1.315122e+003,-3.927527e+001
1.316086e+003,-3.768530e+001
1.317050e+003,-3.764069e+001
1.318014e+003,-4.214758e+001
1.318979e+003,-4.781909e+001
1.319943e+003,-4.868542e+001
1.320907e+003,-4.502875e+001
1.321871e+003,-4.233710e+001
1.322836e+003,-4.183783e+001
1.323800e+003,-4.102771e+001
1.324764e+003,-3.758838e+001
1.325728e+003,-3.331982e+001
1.326693e+003,-3.182758e+001
1.327657e+003,-3.353009e+001
1.328621e+003,-3.518152e+001
1.329585e+003,-3.493835e+001
1.330549e+003,-3.332562e+001
1.331514e+003,-3.118567e+001
1.332478e+003,-2.970605e+001
1.333442e+003,-3.011243e+001
1.334406e+003,-3.164569e+001
1.335371e+003,-3.215198e+001
1.336335e+003,-3.038818e+001
1.337299e+003,-2.764996e+001
1.338263e+003,-2.664325e+001
1.339228e+003,-2.767596e+001
1.340192e+003,-2.729938e+001
1.341156e+003,-2.308215e+001
1.342120e+003,-2.115216e+001
1.343084e+003,-2.501459e+001
1.344049e+003,-3.001276e+001
1.345013e+003,-3.126605e+001
1.345977e+003,-2.962555e+001
1.346941e+003,-2.986932e+001
1.347906e+003,-3.392816e+001
1.348870e+003,-3.748901e+001
1.349834e+003,-3.621313e+001
1.350798e+003,-3.246722e+001
1.351763e+003,-3.083289e+001
1.352727e+003,-3.069879e+001
1.353691e+003,-2.856042e+001
1.354655e+003,-2.220929e+001
1.355620e+003,-1.648352e+001
1.356584e+003,-1.823792e+001
1.357548e+003,-2.624243e+001
1.358512e+003,-3.063062e+001
1.359476e+003,-3.024799e+001
1.360441e+003,-3.021912e+001
1.361405e+003,-3.206250e+001
1.362369e+003,-3.376068e+001
1.363333e+003,-3.473291e+001
1.364298e+003,-3.469763e+001
1.365262e+003,-3.281909e+001
1.366226e+003,-2.938611e+001
1.367190e+003,-2.636359e+001
1.368155e+003,-2.551801e+001
1.369119e+003,-2.617786e+001
1.370083e+003,-2.612555e+001
1.371047e+003,-2.480365e+001
1.372011e+003,-2.403021e+001
1.372976e+003,-2.536969e+001
1.373940e+003,-2.627808e+001
1.374904e+003,-2.512231e+001
1.375868e+003,-2.303894e+001
1.376833e+003,-2.162933e+001
1.377797e+003,-2.110754e+001
1.378761e+003,-2.086328e+001
1.379725e+003,-2.070837e+001
1.380690e+003,-2.006201e+001
1.381654e+003,-1.771643e+001
1.382618e+003,-1.457465e+001
1.383582e+003,-1.174854e+001
1.384547e+003,-9.398804e+000
1.385511e+003,-7.744141e+000
1.386475e+003,-7.055237e+000
1.387439e+003,-7.446655e+000
1.388403e+003,-9.402222e+000
1.389368e+003,-1.296509e+001
1.390332e+003,-1.535626e+001
1.391296e+003,-1.606964e+001
1.392260e+003,-1.571198e+001
1.393225e+003,-1.289374e+001
1.394189e+003,-1.102545e+001
1.395153e+003,-1.322327e+001
1.396117e+003,-1.711932e+001
1.397082e+003,-1.887146e+001
1.398046e+003,-1.743689e+001
1.399010e+003,-1.451874e+001
1.399974e+003,-1.189160e+001
1.400938e+003,-1.061127e+001
1.401903e+003,-1.270648e+001
1.402867e+003,-1.844263e+001
1.403831e+003,-1.974170e+001
1.404795e+003,-1.442395e+001
1.405760e+003,-9.135925e+000
1.406724e+003,-7.075684e+000
1.407688e+003,-7.281372e+000
1.408652e+003,-7.615967e+000
1.409617e+003,-7.522949e+000
1.410581e+003,-8.089050e+000
1.411545e+003,-9.866394e+000
1.412509e+003,-1.190045e+001
1.413474e+003,-1.438800e+001
1.414438e+003,-1.660724e+001
1.415402e+003,-1.560126e+001
1.416366e+003,-1.157959e+001
1.417330e+003,-8.475525e+000
1.418295e+003,-7.778809e+000
1.419259e+003,-8.568970e+000
1.420223e+003,-1.085529e+001
1.421187e+003,-1.446063e+001
1.422152e+003,-1.625104e+001
1.423116e+003,-1.546130e+001
1.424080e+003,-1.323657e+001
1.425044e+003,-9.201843e+000
1.426009e+003,-5.504883e+000
1.426973e+003,-3.028442e+000
1.427937e+003,-1.447266e+000
1.428901e+003,-4.099731e-001
1.429865e+003,5.514526e-001
1.430830e+003,1.997864e+000
1.431794e+003,4.054443e+000
1.432758e+003,6.063049e+000
1.433722e+003,7.331238e+000
1.434687e+003,8.515747e+000
1.435651e+003,1.053400e+001
1.436615e+003,1.217511e+001
1.437579e+003,1.293402e+001
1.438544e+003,1.246722e+001
1.439508e+003,1.187878e+001
1.440472e+003,1.243524e+001
1.441436e+003,1.387756e+001
1.442401e+003,1.529602e+001
1.443365e+003,1.623859e+001
1.444329e+003,1.658838e+001
1.445293e+003,1.648999e+001
1.446257e+003,1.575818e+001
1.447222e+003,1.290527e+001
1.448186e+003,8.535339e+000
1.449150e+003,6.736328e+000
1.450114e+003,8.086182e+000
1.451079e+003,1.029724e+001
1.452043e+003,1.388763e+001
1.453007e+003,1.722382e+001
1.453971e+003,1.700592e+001
1.454936e+003,1.353107e+001
1.455900e+003,1.078961e+001
1.456864e+003,9.804077e+000
1.457828e+003,9.915405e+000
1.458792e+003,1.150800e+001
1.459757e+003,1.268835e+001
1.460721e+003,1.133862e+001
1.461685e+003,8.562866e+000
1.462649e+003,6.993958e+000
1.463614e+003,7.422180e+000
1.464578e+003,8.060608e+000
1.465542e+003,6.964600e+000
1.466506e+003,4.924988e+000
1.467471e+003,5.060913e+000
1.468435e+003,8.455994e+000
1.469399e+003,1.161755e+001
1.470363e+003,1.401508e+001
1.471328e+003,1.532184e+001
1.472292e+003,1.429364e+001
1.473256e+003,1.230359e+001
1.474220e+003,1.020020e+001
1.475184e+003,9.122559e+000
1.476149e+003,1.063617e+001
1.477113e+003,1.450641e+001
1.478077e+003,1.805682e+001
1.479041e+003,1.904767e+001
1.480006e+003,1.885040e+001
1.480970e+003,2.106293e+001
1.481934e+003,2.641003e+001
1.482898e+003,2.853583e+001
1.483863e+003,2.313562e+001
1.484827e+003,2.067053e+001
1.485791e+003,2.716595e+001
1.486755e+003,3.576172e+001
1.487719e+003,3.979480e+001
1.488684e+003,3.993622e+001
1.489648e+003,3.973438e+001
1.490612e+003,4.070093e+001
1.491576e+003,4.395020e+001
1.492541e+003,5.053400e+001
1.493505e+003,5.907080e+001
1.494469e+003,6.750757e+001
1.495433e+003,7.507123e+001
1.496398e+003,7.953906e+001
1.497362e+003,8.026318e+001
1.498326e+003,8.197522e+001
1.499290e+003,8.647217e+001
1.500255e+003,9.359412e+001
1.501219e+003,1.035792e+002
1.502183e+003,1.158748e+002
1.503147e+003,1.279203e+002
1.504111e+003,1.386167e+002
1.505076e+003,1.518098e+002
1.506040e+003,1.702574e+002
1.507004e+003,1.921127e+002
1.507968e+003,2.157306e+002
1.508933e+003,2.409144e+002
1.509897e+003,2.667694e+002
1.510861e+003,2.941495e+002
1.511825e+003,3.261622e+002
1.512790e+003,3.646144e+002
1.513754e+003,4.078784e+002
1.514718e+003,4.550793e+002
1.515682e+003,5.055964e+002
1.516646e+003,5.527209e+002
1.517611e+003,5.971548e+002
1.518575e+003,6.367298e+002
1.519539e+003,6.719291e+002
1.520503e+003,7.020503e+002
1.521468e+003,7.275065e+002
1.522432e+003,7.466003e+002
1.523396e+003,7.573892e+002
1.524360e+003,7.594332e+002
1.525325e+003,7.534510e+002
1.526289e+003,7.400730e+002
1.527253e+003,7.201000e+002
1.528217e+003,6.947508e+002
1.529182e+003,6.645330e+002
1.530146e+003,6.263331e+002
1.531110e+003,5.756489e+002
1.532074e+003,5.238889e+002
1.533039e+003,4.706138e+002
1.534003e+003,4.157435e+002
1.534967e+003,3.574615e+002
1.535931e+003,3.010801e+002
1.536896e+003,2.509680e+002
1.537860e+003,2.085035e+002
1.538824e+003,1.739978e+002
1.539788e+003,1.471482e+002
1.540752e+003,1.260757e+002
1.541717e+003,1.087963e+002
1.542681e+003,9.536279e+001
1.543645e+003,8.387183e+001
1.544609e+003,7.490912e+001
1.545573e+003,6.827136e+001
1.546538e+003,6.267200e+001
1.547502e+003,5.943683e+001
1.548466e+003,6.136609e+001
1.549430e+003,6.535901e+001
1.550395e+003,6.833569e+001
1.551359e+003,6.978815e+001
1.552323e+003,7.065027e+001
1.553287e+003,7.119299e+001
1.554252e+003,6.943402e+001
1.555216e+003,6.340479e+001
1.556180e+003,5.421680e+001
1.557144e+003,4.318512e+001
1.558109e+003,3.053088e+001
1.559073e+003,2.498822e+001
1.560037e+003,2.913208e+001
1.561001e+003,3.360968e+001
1.561966e+003,3.744006e+001
1.562930e+003,3.985278e+001
1.563894e+003,3.842303e+001
1.564858e+003,3.476166e+001
1.565823e+003,3.330646e+001
1.566787e+003,3.475690e+001
1.567751e+003,3.629852e+001
1.568715e+003,3.665607e+001
1.569679e+003,3.626672e+001
1.570644e+003,3.503760e+001
1.571608e+003,3.305463e+001
1.572572e+003,3.112726e+001
1.573536e+003,2.957642e+001
1.574500e+003,3.059821e+001
1.575465e+003,3.662213e+001
1.576429e+003,4.229956e+001
1.577393e+003,4.176923e+001
1.578357e+003,3.817120e+001
1.579322e+003,3.849664e+001
1.580286e+003,4.305634e+001
1.581250e+003,4.678882e+001
1.582214e+003,4.795642e+001
1.583179e+003,4.875751e+001
1.584143e+003,5.080884e+001
1.585107e+003,5.278540e+001
1.586071e+003,5.362048e+001
1.587036e+003,5.401288e+001
1.588000e+003,5.410022e+001
1.588964e+003,5.345581e+001
1.589928e+003,5.344818e+001
1.590893e+003,5.584888e+001
1.591857e+003,5.875427e+001
1.592821e+003,5.898059e+001
1.593785e+003,5.711511e+001
1.594750e+003,5.607800e+001
1.595714e+003,5.609827e+001
1.596678e+003,5.590997e+001
1.597642e+003,5.364160e+001
1.598606e+003,5.324805e+001
1.599571e+003,6.010797e+001
1.600535e+003,6.955981e+001
1.601499e+003,7.588110e+001
1.602463e+003,7.857605e+001
1.603427e+003,7.861554e+001
1.604392e+003,7.613416e+001
1.605356e+003,7.361475e+001
1.606320e+003,7.390973e+001
1.607284e+003,7.604480e+001
1.608249e+003,7.735974e+001
1.609213e+003,7.785645e+001
1.610177e+003,7.737158e+001
1.611141e+003,7.614661e+001
1.612106e+003,7.329761e+001
1.613070e+003,6.500519e+001
1.614034e+003,5.798572e+001
1.614998e+003,5.836694e+001
1.615963e+003,6.297906e+001
1.616927e+003,6.612366e+001
1.617891e+003,6.688879e+001
1.618855e+003,6.820789e+001
1.619820e+003,7.200494e+001
1.620784e+003,7.456519e+001
1.621748e+003,6.989526e+001
1.622712e+003,6.032819e+001
1.623677e+003,5.628784e+001
1.624641e+003,5.857349e+001
1.625605e+003,6.269928e+001
1.626569e+003,6.845557e+001
1.627533e+003,7.206812e+001
1.628498e+003,7.107129e+001
1.629462e+003,6.906281e+001
1.630426e+003,6.824329e+001
1.631390e+003,6.881531e+001
1.632354e+003,7.147723e+001
1.633319e+003,7.593518e+001
1.634283e+003,7.901306e+001
1.635247e+003,7.807263e+001
1.636211e+003,7.500012e+001
1.637176e+003,7.310706e+001
1.638140e+003,7.262000e+001
1.639104e+003,7.363983e+001
1.640068e+003,7.640002e+001
1.641033e+003,7.891882e+001
1.641997e+003,8.213702e+001
1.642961e+003,8.345837e+001
1.643925e+003,7.992114e+001
1.644890e+003,7.533264e+001
1.645854e+003,7.306244e+001
1.646818e+003,7.290405e+001
1.647782e+003,7.382031e+001
1.648747e+003,7.529877e+001
1.649711e+003,7.633545e+001
1.650675e+003,7.629468e+001
1.651639e+003,7.590753e+001
1.652604e+003,7.625317e+001
1.653568e+003,7.699231e+001
1.654532e+003,7.612720e+001
1.655496e+003,7.290448e+001
1.656460e+003,7.057275e+001
1.657425e+003,7.220264e+001
1.658389e+003,7.239105e+001
1.659353e+003,6.626917e+001
1.660317e+003,5.872083e+001
1.661281e+003,5.511633e+001
1.662246e+003,5.464685e+001
1.663210e+003,5.378772e+001
1.664174e+003,5.153900e+001
1.665138e+003,4.928412e+001
1.666103e+003,4.785693e+001
1.667067e+003,4.702875e+001
1.668031e+003,4.677972e+001
1.668995e+003,4.719354e+001
1.669960e+003,4.776312e+001
1.670924e+003,4.858636e+001
1.671888e+003,4.967462e+001
1.672852e+003,5.155487e+001
1.673817e+003,5.235895e+001
1.674781e+003,4.947748e+001
1.675745e+003,4.594812e+001
1.676709e+003,4.571936e+001
1.677674e+003,4.779272e+001
1.678638e+003,4.820001e+001
1.679602e+003,4.573737e+001
1.680566e+003,4.278583e+001
1.681531e+003,4.137720e+001
1.682495e+003,4.095557e+001
1.683459e+003,4.032678e+001
1.684423e+003,3.913947e+001
1.685387e+003,3.642273e+001
1.686352e+003,3.181702e+001
1.687316e+003,2.949158e+001
1.688280e+003,3.174670e+001
1.689244e+003,3.469702e+001
1.690208e+003,3.608026e+001
1.691173e+003,3.593732e+001
1.692137e+003,3.365363e+001
1.693101e+003,3.036920e+001
1.694065e+003,2.828308e+001
1.695030e+003,2.748505e+001
1.695994e+003,2.816876e+001
1.696958e+003,3.202960e+001
1.697922e+003,3.603052e+001
1.698887e+003,3.616229e+001
1.699851e+003,3.350037e+001
1.700815e+003,3.094116e+001
1.701779e+003,2.849890e+001
1.702744e+003,2.412872e+001
1.703708e+003,1.656378e+001
1.704672e+003,1.186786e+001
1.705636e+003,1.571130e+001
1.706601e+003,2.225977e+001
1.707565e+003,2.353979e+001
1.708529e+003,2.124078e+001
1.709493e+003,1.963434e+001
1.710458e+003,1.932776e+001
1.711422e+003,1.778070e+001
1.712386e+003,1.213263e+001
1.713350e+003,7.813477e+000
1.714314e+003,9.955139e+000
1.715279e+003,1.492285e+001
1.716243e+003,1.727252e+001
1.717207e+003,1.698529e+001
1.718171e+003,1.608527e+001
1.719135e+003,1.523920e+001
1.720100e+003,1.492828e+001
1.721064e+003,1.551019e+001
1.722028e+003,1.594812e+001
1.722992e+003,1.504163e+001
1.723957e+003,1.351031e+001
1.724921e+003,1.250250e+001
1.725885e+003,1.105969e+001
1.726849e+003,1.077612e+001
1.727814e+003,1.548700e+001
1.728778e+003,1.829645e+001
1.729742e+003,1.369434e+001
1.730706e+003,7.825806e+000
1.731671e+003,6.339355e+000
1.732635e+003,7.577515e+000
1.733599e+003,8.461060e+000
1.734563e+003,8.698547e+000
1.735528e+003,9.046326e+000
1.736492e+003,9.690735e+000
1.737456e+003,9.676514e+000
1.738420e+003,7.705750e+000
1.739385e+003,4.267212e+000
1.740349e+003,2.629700e+000
1.741313e+003,3.675049e+000
1.742277e+003,3.825134e+000
1.743241e+003,3.099976e+000
1.744206e+003,2.294922e+000
1.745170e+003,1.253235e+000
1.746134e+003,-5.529785e-002
1.747098e+003,-2.466125e+000
1.748063e+003,-4.627930e+000
1.749027e+003,-5.101929e+000
1.749991e+003,-3.765625e+000
1.750955e+003,-5.604248e-001
1.751919e+003,3.984863e+000
1.752884e+003,7.767456e+000
1.753848e+003,9.042297e+000
1.754812e+003,8.351013e+000
1.755776e+003,6.917603e+000
1.756741e+003,5.186768e+000
1.757705e+003,4.384888e+000
1.758669e+003,4.284424e+000
1.759633e+003,4.739136e+000
1.760598e+003,7.563538e+000
1.761562e+003,7.508850e+000
1.762526e+003,9.772339e-001
1.763490e+003,-5.888306e+000
1.764455e+003,-9.615479e+000
1.765419e+003,-1.024377e+001
1.766383e+003,-7.586914e+000
1.767347e+003,-2.855408e+000
1.768312e+003,4.887085e-001
1.769276e+003,6.798096e-001
1.770240e+003,-4.273071e-001
1.771204e+003,-2.250977e-001
1.772168e+003,7.627563e-001
1.773133e+003,1.527710e-001
1.774097e+003,-1.901978e+000
1.775061e+003,-4.067932e+000
1.776025e+003,-7.016479e+000
1.776990e+003,-7.317871e+000
1.777954e+003,-1.984436e+000
1.778918e+003,3.713867e+000
1.779882e+003,5.865906e+000
1.780846e+003,5.457458e+000
1.781811e+003,3.002319e+000
1.782775e+003,-1.622925e-001
1.783739e+003,7.606201e-001
1.784703e+003,7.082581e+000
1.785668e+003,1.176288e+001
1.786632e+003,1.097369e+001
1.787596e+003,7.786011e+000
1.788560e+003,3.234924e+000
1.789525e+003,-2.910156e-001
1.790489e+003,6.690674e-001
1.791453e+003,4.761963e+000
1.792417e+003,8.318726e+000
1.793382e+003,1.046887e+001
1.794346e+003,1.173163e+001
1.795310e+003,1.236237e+001
1.796274e+003,1.149280e+001
1.797239e+003,8.127625e+000
1.798203e+003,3.693726e+000
1.799167e+003,8.463135e-001
1.800131e+003,-1.443726e+000
1.801095e+003,-1.735413e+000
1.802060e+003,3.822998e+000
1.803024e+003,6.818970e+000
1.803988e+003,3.278137e+000
1.804952e+003,2.745361e-001
1.805917e+003,2.467468e+000
1.806881e+003,5.658752e+000
1.807845e+003,5.191406e+000
1.808809e+003,2.586853e+000
1.809773e+003,1.681396e+000
1.810738e+003,3.257690e+000
1.811702e+003,5.403198e+000
1.812666e+003,6.869751e+000
1.813630e+003,8.314209e+000
1.814595e+003,1.086865e+001
1.815559e+003,1.370105e+001
1.816523e+003,1.359424e+001
1.817487e+003,1.035052e+001
1.818452e+003,7.607361e+000
1.819416e+003,5.702515e+000
1.820380e+003,5.166748e+000
1.821344e+003,6.820557e+000
1.822309e+003,7.972717e+000
1.823273e+003,6.642822e+000
1.824237e+003,5.037720e+000
1.825201e+003,5.132629e+000
1.826166e+003,6.442261e+000
1.827130e+003,8.088196e+000
1.828094e+003,9.684387e+000
1.829058e+003,9.591187e+000
1.830022e+003,6.185242e+000
1.830987e+003,3.452759e+000
1.831951e+003,6.499451e+000
1.832915e+003,1.092865e+001
1.833879e+003,9.107605e+000
1.834844e+003,3.191284e+000
1.835808e+003,8.224487e-001
1.836772e+003,2.958435e+000
1.837736e+003,4.934753e+000
1.838700e+003,4.511047e+000
1.839665e+003,3.478333e+000
1.840629e+003,3.608154e+000
1.841593e+003,4.637268e+000
1.842557e+003,5.661682e+000
1.843522e+003,6.664795e+000
1.844486e+003,8.241394e+000
1.845450e+003,1.225256e+001
1.846414e+003,1.431226e+001
1.847379e+003,1.183972e+001
1.848343e+003,9.466003e+000
1.849307e+003,8.812439e+000
1.850271e+003,8.943298e+000
1.851236e+003,9.829468e+000
1.852200e+003,1.103326e+001
1.853164e+003,1.207489e+001
1.854128e+003,1.207129e+001
1.855093e+003,9.269775e+000
1.856057e+003,3.906189e+000
1.857021e+003,3.585205e-001
1.857985e+003,2.245422e+000
1.858949e+003,6.595398e+000
1.859914e+003,8.871521e+000
1.860878e+003,9.350464e+000
1.861842e+003,8.336670e+000
1.862806e+003,5.610352e+000
1.863771e+003,5.012085e+000
1.864735e+003,7.547607e+000
1.865699e+003,9.571106e+000
1.866663e+003,9.704590e+000
1.867627e+003,9.234070e+000
1.868592e+003,8.022705e+000
1.869556e+003,6.927185e+000
1.870520e+003,9.480774e+000
1.871484e+003,1.469727e+001
1.872449e+003,1.567834e+001
1.873413e+003,1.133545e+001
1.874377e+003,9.593811e+000
1.875341e+003,1.314227e+001
1.876306e+003,1.701202e+001
1.877270e+003,1.937604e+001
1.878234e+003,1.978534e+001
1.879198e+003,1.694263e+001
1.880163e+003,1.262787e+001
1.881127e+003,9.240784e+000
1.882091e+003,7.724060e+000
1.883055e+003,9.624084e+000
1.884020e+003,1.501624e+001
1.884984e+003,1.952686e+001
1.885948e+003,1.914935e+001
1.886912e+003,1.627368e+001
1.887876e+003,1.575665e+001
1.888841e+003,1.742072e+001
1.889805e+003,1.832642e+001
1.890769e+003,1.811060e+001
1.891733e+003,1.937903e+001
1.892698e+003,2.343903e+001
1.893662e+003,2.543164e+001
1.894626e+003,2.233813e+001
1.895590e+003,1.883923e+001
1.896554e+003,1.804572e+001
1.897519e+003,1.914270e+001
1.898483e+003,2.107727e+001
1.899447e+003,2.336395e+001
1.900411e+003,2.651727e+001
1.901376e+003,3.098645e+001
1.902340e+003,3.250537e+001
1.903304e+003,2.701752e+001
1.904268e+003,2.190015e+001
1.905233e+003,2.335901e+001
1.906197e+003,2.607776e+001
1.907161e+003,2.379797e+001
1.908125e+003,1.930200e+001
1.909090e+003,1.773322e+001
1.910054e+003,1.897925e+001
1.911018e+003,2.045807e+001
1.911982e+003,2.138403e+001
1.912947e+003,2.196600e+001
1.913911e+003,2.222650e+001
1.914875e+003,2.332709e+001
1.915839e+003,2.721313e+001
1.916803e+003,3.261609e+001
1.917768e+003,3.468988e+001
1.918732e+003,3.328540e+001
1.919696e+003,3.148260e+001
1.920660e+003,2.903650e+001
1.921625e+003,2.790607e+001
1.922589e+003,2.914856e+001
1.923553e+003,3.010529e+001
1.924517e+003,2.833923e+001
1.925481e+003,2.675177e+001
1.926446e+003,2.838440e+001
1.927410e+003,3.189978e+001
1.928374e+003,3.494647e+001
1.929338e+003,3.693591e+001
1.930303e+003,3.703790e+001
1.931267e+003,3.535724e+001
1.932231e+003,3.305042e+001
1.933195e+003,2.902026e+001
1.934160e+003,2.542047e+001
1.935124e+003,2.346631e+001
1.936088e+003,2.285297e+001
1.937052e+003,2.434760e+001
1.938017e+003,2.712213e+001
1.938981e+003,2.893225e+001
1.939945e+003,2.956116e+001
1.940909e+003,3.090729e+001
1.941874e+003,3.353070e+001
1.942838e+003,3.470203e+001
1.943802e+003,3.209528e+001
1.944766e+003,2.855859e+001
1.945730e+003,2.925299e+001
1.946695e+003,3.321326e+001
1.947659e+003,3.483942e+001
1.948623e+003,3.378839e+001
1.949587e+003,3.293097e+001
1.950552e+003,3.262653e+001
1.951516e+003,3.351245e+001
1.952480e+003,3.699078e+001
1.953444e+003,3.899762e+001
1.954408e+003,3.501270e+001
1.955373e+003,2.911633e+001
1.956337e+003,2.761652e+001
1.957301e+003,2.990350e+001
1.958265e+003,3.233160e+001
1.959230e+003,3.488940e+001
1.960194e+003,3.754712e+001
1.961158e+003,4.038458e+001
1.962122e+003,4.168915e+001
1.963087e+003,4.008386e+001
1.964051e+003,3.820160e+001
1.965015e+003,3.775549e+001
1.965979e+003,3.841058e+001
1.966944e+003,4.003741e+001
1.967908e+003,4.142737e+001
1.968872e+003,4.036505e+001
1.969836e+003,3.750751e+001
1.970801e+003,3.661102e+001
1.971765e+003,3.915424e+001
1.972729e+003,4.163483e+001
1.973693e+003,4.063080e+001
1.974657e+003,3.917548e+001
1.975622e+003,4.277521e+001
1.976586e+003,4.885907e+001
1.977550e+003,5.070770e+001
1.978514e+003,4.898706e+001
1.979479e+003,4.701483e+001
1.980443e+003,4.533704e+001
1.981407e+003,4.563074e+001
1.982371e+003,4.880408e+001
1.983335e+003,5.223883e+001
1.984300e+003,5.381244e+001
1.985264e+003,5.367767e+001
1.986228e+003,5.213727e+001
1.987192e+003,4.962756e+001
1.988157e+003,4.868121e+001
1.989121e+003,5.035522e+001
1.990085e+003,4.881622e+001
1.991049e+003,4.071332e+001
1.992014e+003,3.672357e+001
1.992978e+003,4.128503e+001
1.993942e+003,4.529889e+001
1.994906e+003,4.455768e+001
1.995871e+003,4.335559e+001
1.996835e+003,4.499072e+001
1.997799e+003,4.835669e+001
1.998763e+003,5.174176e+001
1.999728e+003,5.470935e+001
