5.003444e+002,2.651350e+002
5.013087e+002,2.613187e+002
5.022729e+002,2.599547e+002
5.032371e+002,2.604169e+002
5.042014e+002,2.566510e+002
5.051656e+002,2.496100e+002
5.061298e+002,2.433159e+002
5.070941e+002,2.414806e+002
5.080583e+002,2.450814e+002
5.090225e+002,2.447125e+002
5.099868e+002,2.371200e+002
5.109510e+002,2.301823e+002
5.119152e+002,2.290464e+002
5.128795e+002,2.344354e+002
5.138437e+002,2.377048e+002
5.148079e+002,2.335951e+002
5.157722e+002,2.293154e+002
5.167364e+002,2.285121e+002
5.177006e+002,2.306987e+002
5.186649e+002,2.314410e+002
5.196291e+002,2.239568e+002
5.205933e+002,2.146277e+002
5.215576e+002,2.096340e+002
5.225218e+002,2.088599e+002
5.234860e+002,2.096083e+002
5.244503e+002,2.078826e+002
5.254145e+002,2.037526e+002
5.263787e+002,2.012256e+002
5.273430e+002,2.006482e+002
5.283072e+002,2.014131e+002
5.292714e+002,2.028553e+002
5.302357e+002,2.054429e+002
5.311999e+002,2.045131e+002
5.321641e+002,1.989712e+002
5.331284e+002,1.927916e+002
5.340926e+002,1.882269e+002
5.350568e+002,1.856335e+002
5.360211e+002,1.843567e+002
5.369853e+002,1.873263e+002
5.379495e+002,1.908547e+002
5.389138e+002,1.907942e+002
5.398780e+002,1.857548e+002
5.408422e+002,1.780255e+002
5.418065e+002,1.742075e+002
5.427707e+002,1.737921e+002
5.437349e+002,1.741350e+002
5.446992e+002,1.750179e+002
5.456634e+002,1.756997e+002
5.466276e+002,1.738202e+002
5.475919e+002,1.663541e+002
5.485561e+002,1.605281e+002
5.495203e+002,1.565681e+002
5.504846e+002,1.537399e+002
5.514488e+002,1.513042e+002
5.524130e+002,1.494756e+002
5.533773e+002,1.484633e+002
5.543415e+002,1.483647e+002
5.553057e+002,1.488643e+002
5.562700e+002,1.497424e+002
5.572342e+002,1.507388e+002
5.581984e+002,1.511970e+002
5.591627e+002,1.500281e+002
5.601269e+002,1.481733e+002
5.610911e+002,1.462966e+002
5.620554e+002,1.444607e+002
5.630196e+002,1.424032e+002
5.639838e+002,1.406263e+002
5.649481e+002,1.391870e+002
5.659123e+002,1.380261e+002
5.668765e+002,1.393512e+002
5.678408e+002,1.421609e+002
5.688050e+002,1.419883e+002
5.697692e+002,1.331039e+002
5.707335e+002,1.249382e+002
5.716977e+002,1.207013e+002
5.726619e+002,1.193582e+002
5.736262e+002,1.196158e+002
5.745904e+002,1.210015e+002
5.755546e+002,1.228292e+002
5.765189e+002,1.236637e+002
5.774831e+002,1.230126e+002
5.784473e+002,1.204420e+002
5.794116e+002,1.160210e+002
5.803758e+002,1.106520e+002
5.813400e+002,1.096899e+002
5.823043e+002,1.137827e+002
5.832685e+002,1.160166e+002
5.842327e+002,1.135358e+002
5.851970e+002,1.077778e+002
5.861612e+002,1.048197e+002
5.871254e+002,1.071908e+002
5.880897e+002,1.095513e+002
5.890539e+002,1.108077e+002
5.900181e+002,1.109492e+002
5.909824e+002,1.103981e+002
5.919466e+002,1.095217e+002
5.929108e+002,1.085709e+002
5.938751e+002,1.082208e+002
5.948393e+002,1.078516e+002
5.958035e+002,1.061772e+002
5.967678e+002,1.024200e+002
5.977320e+002,9.755713e+001
5.986962e+002,9.772937e+001
5.996605e+002,1.021460e+002
6.006247e+002,1.052609e+002
6.015889e+002,1.035729e+002
6.025532e+002,9.766113e+001
6.035174e+002,9.475891e+001
6.044816e+002,9.880359e+001
6.054459e+002,1.021483e+002
6.064101e+002,1.036648e+002
6.073743e+002,1.036755e+002
6.083386e+002,1.030052e+002
6.093028e+002,1.019224e+002
6.102670e+002,1.010027e+002
6.112313e+002,1.003840e+002
6.121955e+002,1.000067e+002
6.131597e+002,9.989490e+001
6.141240e+002,1.000216e+002
6.150882e+002,1.001134e+002
6.160524e+002,9.915320e+001
6.170167e+002,9.771375e+001
6.179809e+002,9.720398e+001
6.189451e+002,9.820886e+001
6.199094e+002,1.000355e+002
6.208736e+002,1.002180e+002
6.218378e+002,9.834399e+001
6.228021e+002,9.676208e+001
6.237663e+002,9.629541e+001
6.247305e+002,9.633411e+001
6.256948e+002,9.533167e+001
6.266590e+002,9.136658e+001
6.276232e+002,8.745166e+001
6.285875e+002,8.587354e+001
6.295517e+002,8.611755e+001
6.305159e+002,8.790967e+001
6.314802e+002,9.073035e+001
6.324444e+002,9.332312e+001
6.334086e+002,9.302832e+001
6.343729e+002,9.112109e+001
6.353371e+002,8.824963e+001
6.363013e+002,8.401758e+001
6.372656e+002,7.915247e+001
6.382298e+002,7.700073e+001
6.391940e+002,8.149451e+001
6.401583e+002,8.297925e+001
6.411225e+002,8.017700e+001
6.420867e+002,7.651660e+001
6.430510e+002,7.584180e+001
6.440152e+002,7.946509e+001
6.449794e+002,8.209216e+001
6.459437e+002,8.069165e+001
6.469079e+002,7.771509e+001
6.478721e+002,7.488269e+001
6.488364e+002,7.312573e+001
6.498006e+002,7.255603e+001
6.507648e+002,7.406506e+001
6.517291e+002,7.609985e+001
6.526933e+002,7.438989e+001
6.536575e+002,6.778809e+001
6.546218e+002,6.001758e+001
6.555860e+002,5.852356e+001
6.565502e+002,6.810486e+001
6.575145e+002,7.368848e+001
6.584787e+002,7.296155e+001
6.594429e+002,7.078821e+001
6.604072e+002,7.173633e+001
6.613714e+002,7.698694e+001
6.623356e+002,7.968896e+001
6.632999e+002,7.249646e+001
6.642641e+002,6.447925e+001
6.652283e+002,6.061768e+001
6.661926e+002,6.168872e+001
6.671568e+002,6.564319e+001
6.681210e+002,7.060840e+001
6.690853e+002,7.518311e+001
6.700495e+002,7.679675e+001
6.710137e+002,7.559009e+001
6.719780e+002,7.350488e+001
6.729422e+002,7.242834e+001
6.739064e+002,7.220435e+001
6.748707e+002,7.242773e+001
6.758349e+002,7.323242e+001
6.767991e+002,7.385913e+001
6.777634e+002,7.443433e+001
6.787276e+002,7.549939e+001
6.796918e+002,7.767908e+001
6.806561e+002,8.221301e+001
6.816203e+002,8.518958e+001
6.825845e+002,8.413928e+001
6.835488e+002,8.076721e+001
6.845130e+002,7.800208e+001
6.854772e+002,7.820483e+001
6.864415e+002,8.048254e+001
6.874057e+002,8.207959e+001
6.883699e+002,8.219812e+001
6.893342e+002,8.011536e+001
6.902984e+002,7.545264e+001
6.912626e+002,6.899780e+001
6.922269e+002,6.455371e+001
6.931911e+002,6.370398e+001
6.941553e+002,6.503918e+001
6.951196e+002,6.910339e+001
6.960838e+002,7.380530e+001
6.970480e+002,7.644922e+001
6.980123e+002,7.649939e+001
6.989765e+002,7.527478e+001
6.999407e+002,7.178406e+001
7.009050e+002,6.840869e+001
7.018692e+002,6.772070e+001
7.028334e+002,7.011047e+001
7.037977e+002,7.262268e+001
7.047619e+002,6.985901e+001
7.057261e+002,6.500964e+001
7.066904e+002,6.385254e+001
7.076546e+002,6.725757e+001
7.086188e+002,7.260571e+001
7.095831e+002,7.573572e+001
7.105473e+002,7.537939e+001
7.115115e+002,7.524475e+001
7.124758e+002,7.522839e+001
7.134400e+002,7.500110e+001
7.144042e+002,7.500208e+001
7.153685e+002,7.545410e+001
7.163327e+002,7.510193e+001
7.172969e+002,7.260669e+001
7.182612e+002,6.997424e+001
7.192254e+002,6.690942e+001
7.201896e+002,6.403076e+001
7.211539e+002,6.274377e+001
7.221181e+002,6.457288e+001
7.230823e+002,6.792883e+001
7.240466e+002,6.792358e+001
7.250108e+002,6.602356e+001
7.259750e+002,6.593579e+001
7.269393e+002,6.955579e+001
7.279035e+002,7.537061e+001
7.288677e+002,7.722241e+001
7.298320e+002,7.359619e+001
7.307962e+002,7.072485e+001
7.317604e+002,6.880933e+001
7.327247e+002,6.811414e+001
7.336889e+002,6.879553e+001
7.346531e+002,7.045569e+001
7.356174e+002,7.011597e+001
7.365816e+002,6.529419e+001
7.375458e+002,6.132703e+001
7.385101e+002,6.384827e+001
7.394743e+002,7.313391e+001
7.404385e+002,8.314136e+001
7.414028e+002,8.355627e+001
7.423670e+002,7.511389e+001
7.433312e+002,7.002869e+001
7.442955e+002,7.037048e+001
7.452597e+002,7.360754e+001
7.462239e+002,7.643958e+001
7.471882e+002,7.833777e+001
7.481524e+002,8.048169e+001
7.491166e+002,8.182275e+001
7.500809e+002,8.238013e+001
7.510451e+002,8.213281e+001
7.520093e+002,8.117859e+001
7.529736e+002,7.998486e+001
7.539378e+002,8.009497e+001
7.549020e+002,7.980640e+001
7.558663e+002,7.624329e+001
7.568306e+002,7.200940e+001
7.577948e+002,7.090503e+001
7.587590e+002,7.479199e+001
7.597233e+002,8.107092e+001
7.606875e+002,8.371106e+001
7.616517e+002,8.363379e+001
7.626160e+002,8.213586e+001
7.635802e+002,7.881494e+001
7.645444e+002,7.525842e+001
7.655087e+002,7.496704e+001
7.664729e+002,8.025366e+001
7.674371e+002,8.318665e+001
7.684014e+002,8.124731e+001
7.693656e+002,7.892444e+001
7.703298e+002,7.960510e+001
7.712941e+002,8.354602e+001
7.722583e+002,8.745496e+001
7.732225e+002,8.895581e+001
7.741868e+002,8.925049e+001
7.751510e+002,8.894592e+001
7.761152e+002,8.834766e+001
7.770795e+002,8.761169e+001
7.780437e+002,8.676196e+001
7.790079e+002,8.573096e+001
7.799722e+002,8.645593e+001
7.809364e+002,8.945557e+001
7.819006e+002,9.033972e+001
7.828649e+002,8.632715e+001
7.838291e+002,7.964929e+001
7.847933e+002,7.676282e+001
7.857576e+002,7.968176e+001
7.867218e+002,8.115930e+001
7.876860e+002,7.953406e+001
7.886503e+002,7.785730e+001
7.896145e+002,7.892847e+001
7.905787e+002,8.333032e+001
7.915430e+002,8.854126e+001
7.925072e+002,9.187341e+001
7.934714e+002,9.304211e+001
7.944357e+002,9.166260e+001
7.953999e+002,8.881018e+001
7.963641e+002,8.716699e+001
7.973284e+002,8.962512e+001
7.982926e+002,9.664075e+001
7.992568e+002,9.861108e+001
8.002211e+002,9.110071e+001
8.011853e+002,8.405591e+001
8.021495e+002,8.389514e+001
8.031138e+002,8.942297e+001
8.040780e+002,9.249939e+001
8.050422e+002,8.803223e+001
8.060065e+002,8.472107e+001
8.069707e+002,8.506152e+001
8.079349e+002,8.699084e+001
8.088992e+002,8.905652e+001
8.098634e+002,9.093091e+001
8.108276e+002,9.318213e+001
8.117919e+002,9.670410e+001
8.127561e+002,9.908984e+001
8.137203e+002,9.747705e+001
8.146846e+002,9.242810e+001
8.156488e+002,8.699939e+001
8.166130e+002,8.441357e+001
8.175773e+002,8.495850e+001
8.185415e+002,8.528467e+001
8.195057e+002,8.383337e+001
8.204700e+002,8.265747e+001
8.214342e+002,8.279175e+001
8.223984e+002,8.377148e+001
8.233627e+002,8.408032e+001
8.243269e+002,8.245679e+001
8.252911e+002,8.244739e+001
8.262554e+002,8.771033e+001
8.272196e+002,9.410815e+001
8.281838e+002,9.669629e+001
8.291481e+002,9.404919e+001
8.301123e+002,8.946448e+001
8.310765e+002,8.880847e+001
8.320408e+002,9.165930e+001
8.330050e+002,9.363928e+001
8.339692e+002,9.477161e+001
8.349335e+002,9.493103e+001
8.358977e+002,9.370386e+001
8.368619e+002,9.109998e+001
8.378262e+002,9.036609e+001
8.387904e+002,9.291272e+001
8.397546e+002,9.455176e+001
8.407189e+002,9.381067e+001
8.416831e+002,9.171375e+001
8.426473e+002,8.981824e+001
8.436116e+002,8.862598e+001
8.445758e+002,8.919958e+001
8.455400e+002,9.363916e+001
8.465043e+002,9.824695e+001
8.474685e+002,9.903577e+001
8.484327e+002,9.591687e+001
8.493970e+002,9.257117e+001
8.503612e+002,9.433521e+001
8.513254e+002,1.020332e+002
8.522897e+002,1.065636e+002
8.532539e+002,1.059178e+002
8.542181e+002,1.041790e+002
8.551824e+002,1.040032e+002
8.561466e+002,1.061178e+002
8.571108e+002,1.104873e+002
8.580751e+002,1.174564e+002
8.590393e+002,1.223259e+002
8.600035e+002,1.237892e+002
8.609678e+002,1.237522e+002
8.619320e+002,1.240811e+002
8.628962e+002,1.254558e+002
8.638605e+002,1.270764e+002
8.648247e+002,1.274108e+002
8.657889e+002,1.272260e+002
8.667532e+002,1.289410e+002
8.677174e+002,1.328528e+002
8.686816e+002,1.370089e+002
8.696459e+002,1.392848e+002
8.706101e+002,1.397463e+002
8.715743e+002,1.408268e+002
8.725386e+002,1.424343e+002
8.735028e+002,1.448475e+002
8.744670e+002,1.479819e+002
8.754313e+002,1.509180e+002
8.763955e+002,1.525131e+002
8.773597e+002,1.523733e+002
8.783240e+002,1.525397e+002
8.792882e+002,1.536481e+002
8.802524e+002,1.555295e+002
8.812167e+002,1.590643e+002
8.821809e+002,1.638398e+002
8.831451e+002,1.679191e+002
8.841094e+002,1.687731e+002
8.850736e+002,1.671278e+002
8.860378e+002,1.681274e+002
8.870021e+002,1.720925e+002
8.879663e+002,1.755410e+002
8.889305e+002,1.753738e+002
8.898948e+002,1.723455e+002
8.908590e+002,1.718027e+002
8.918232e+002,1.769489e+002
8.927875e+002,1.812283e+002
8.937517e+002,1.814406e+002
8.947159e+002,1.816597e+002
8.956802e+002,1.858290e+002
8.966444e+002,1.937738e+002
8.976086e+002,2.005348e+002
8.985729e+002,2.010880e+002
8.995371e+002,1.989283e+002
9.005013e+002,1.995094e+002
9.014656e+002,2.028025e+002
9.024298e+002,2.061978e+002
9.033940e+002,2.071934e+002
9.043583e+002,2.056038e+002
9.053225e+002,2.048423e+002
9.062867e+002,2.052738e+002
9.072510e+002,2.050078e+002
9.082152e+002,2.051921e+002
9.091794e+002,2.055962e+002
9.101437e+002,2.054399e+002
9.111079e+002,2.045034e+002
9.120721e+002,2.042167e+002
9.130364e+002,2.053442e+002
9.140006e+002,2.060979e+002
9.149648e+002,2.065735e+002
9.159291e+002,2.068080e+002
9.168933e+002,2.055432e+002
9.178575e+002,2.016556e+002
9.188218e+002,1.967938e+002
9.197860e+002,1.992736e+002
9.207502e+002,2.090482e+002
9.217145e+002,2.144656e+002
9.226787e+002,2.133562e+002
9.236429e+002,2.088416e+002
9.246072e+002,2.036848e+002
9.255714e+002,1.968911e+002
9.265356e+002,1.915284e+002
9.274999e+002,1.882635e+002
9.284641e+002,1.856489e+002
9.294283e+002,1.839474e+002
9.303926e+002,1.829730e+002
9.313568e+002,1.826760e+002
9.323210e+002,1.830836e+002
9.332853e+002,1.827336e+002
9.342495e+002,1.775801e+002
9.352137e+002,1.702542e+002
9.361780e+002,1.658096e+002
9.371422e+002,1.658547e+002
9.381064e+002,1.680785e+002
9.390707e+002,1.685753e+002
9.400349e+002,1.660400e+002
9.409991e+002,1.652351e+002
9.419634e+002,1.673376e+002
9.429276e+002,1.690155e+002
9.438918e+002,1.695131e+002
9.448561e+002,1.693157e+002
9.458203e+002,1.691998e+002
9.467845e+002,1.695226e+002
9.477488e+002,1.704928e+002
9.487130e+002,1.728677e+002
9.496772e+002,1.751761e+002
9.506415e+002,1.757643e+002
9.516057e+002,1.749202e+002
9.525699e+002,1.745433e+002
9.535342e+002,1.764697e+002
9.544984e+002,1.798048e+002
9.554626e+002,1.787690e+002
9.564269e+002,1.734990e+002
9.573911e+002,1.697742e+002
9.583553e+002,1.691274e+002
9.593196e+002,1.704185e+002
9.602838e+002,1.722223e+002
9.612480e+002,1.745558e+002
9.622123e+002,1.759231e+002
9.631765e+002,1.766653e+002
9.641407e+002,1.761890e+002
9.651050e+002,1.732213e+002
9.660692e+002,1.683538e+002
9.670334e+002,1.629968e+002
9.679977e+002,1.584034e+002
9.689619e+002,1.554871e+002
9.699261e+002,1.547438e+002
9.708904e+002,1.554906e+002
9.718546e+002,1.587649e+002
9.728188e+002,1.649230e+002
9.737831e+002,1.717621e+002
9.747473e+002,1.762706e+002
9.757115e+002,1.778192e+002
9.766758e+002,1.819705e+002
9.776400e+002,1.939647e+002
9.786042e+002,2.034338e+002
9.795685e+002,2.077737e+002
9.805327e+002,2.071414e+002
9.814969e+002,2.017329e+002
9.824612e+002,1.920603e+002
9.834254e+002,1.819355e+002
9.843896e+002,1.741396e+002
9.853539e+002,1.670494e+002
9.863181e+002,1.579824e+002
9.872823e+002,1.473407e+002
9.882466e+002,1.392383e+002
9.892108e+002,1.379854e+002
9.901750e+002,1.436710e+002
9.911393e+002,1.495010e+002
9.921035e+002,1.531926e+002
9.930677e+002,1.564701e+002
9.940320e+002,1.609460e+002
9.949962e+002,1.653352e+002
9.959604e+002,1.670520e+002
9.969247e+002,1.664063e+002
9.978889e+002,1.697695e+002
9.988531e+002,1.821167e+002
9.998174e+002,1.946578e+002
1.000782e+003,2.037859e+002
1.001746e+003,2.102296e+002
1.002710e+003,2.149059e+002
1.003674e+003,2.181914e+002
1.004639e+003,2.199458e+002
1.005603e+003,2.198624e+002
1.006567e+003,2.174341e+002
1.007531e+003,2.151549e+002
1.008495e+003,2.126605e+002
1.009460e+003,2.112174e+002
1.010424e+003,2.126597e+002
1.011388e+003,2.162416e+002
1.012352e+003,2.183247e+002
1.013317e+003,2.184088e+002
1.014281e+003,2.158411e+002
1.015245e+003,2.091675e+002
1.016209e+003,2.008875e+002
1.017174e+003,1.929786e+002
1.018138e+003,1.856820e+002
1.019102e+003,1.778020e+002
1.020066e+003,1.683619e+002
1.021031e+003,1.588141e+002
1.021995e+003,1.523787e+002
1.022959e+003,1.476896e+002
1.023923e+003,1.422373e+002
1.024887e+003,1.350323e+002
1.025852e+003,1.266599e+002
1.026816e+003,1.180710e+002
1.027780e+003,1.095460e+002
1.028744e+003,1.023572e+002
1.029709e+003,9.607996e+001
1.030673e+003,9.137561e+001
1.031637e+003,8.882190e+001
1.032601e+003,8.738049e+001
1.033566e+003,8.623120e+001
1.034530e+003,8.524548e+001
1.035494e+003,8.406165e+001
1.036458e+003,8.090955e+001
1.037422e+003,7.762695e+001
1.038387e+003,7.846741e+001
1.039351e+003,8.281677e+001
1.040315e+003,8.597791e+001
1.041279e+003,8.449854e+001
1.042244e+003,7.981946e+001
1.043208e+003,7.767285e+001
1.044172e+003,7.959656e+001
1.045136e+003,8.004126e+001
1.046101e+003,7.760071e+001
1.047065e+003,7.571094e+001
1.048029e+003,7.731067e+001
1.048993e+003,8.123413e+001
1.049958e+003,8.312732e+001
1.050922e+003,8.059924e+001
1.051886e+003,7.771997e+001
1.052850e+003,7.860339e+001
1.053814e+003,8.138940e+001
1.054779e+003,8.375391e+001
1.055743e+003,8.510022e+001
1.056707e+003,8.664722e+001
1.057671e+003,9.016772e+001
1.058636e+003,9.553699e+001
1.059600e+003,9.520691e+001
1.060564e+003,8.322473e+001
1.061528e+003,7.630249e+001
1.062493e+003,7.856421e+001
1.063457e+003,8.427026e+001
1.064421e+003,8.887598e+001
1.065385e+003,9.197644e+001
1.066349e+003,9.147388e+001
1.067314e+003,8.215161e+001
1.068278e+003,7.397766e+001
1.069242e+003,7.567957e+001
1.070206e+003,8.294751e+001
1.071171e+003,8.871130e+001
1.072135e+003,8.956995e+001
1.073099e+003,8.708643e+001
1.074063e+003,8.436121e+001
1.075028e+003,8.163196e+001
1.075992e+003,7.933508e+001
1.076956e+003,7.634314e+001
1.077920e+003,7.427148e+001
1.078885e+003,7.552100e+001
1.079849e+003,7.842859e+001
1.080813e+003,7.912732e+001
1.081777e+003,7.672449e+001
1.082741e+003,7.493494e+001
1.083706e+003,7.548157e+001
1.084670e+003,7.580591e+001
1.085634e+003,7.436597e+001
1.086598e+003,7.165564e+001
1.087563e+003,6.902222e+001
1.088527e+003,6.755273e+001
1.089491e+003,6.727380e+001
1.090455e+003,6.706555e+001
1.091420e+003,6.634607e+001
1.092384e+003,6.796069e+001
1.093348e+003,7.321619e+001
1.094312e+003,7.734326e+001
1.095276e+003,7.751611e+001
1.096241e+003,7.530725e+001
1.097205e+003,7.434448e+001
1.098169e+003,7.515063e+001
1.099133e+003,7.516736e+001
1.100098e+003,7.312842e+001
1.101062e+003,7.101282e+001
1.102026e+003,6.877905e+001
1.102990e+003,6.774036e+001
1.103955e+003,7.107166e+001
1.104919e+003,8.041333e+001
1.105883e+003,9.104785e+001
1.106847e+003,9.247876e+001
1.107812e+003,8.440442e+001
1.108776e+003,8.076331e+001
1.109740e+003,8.462207e+001
1.110704e+003,8.778186e+001
1.111668e+003,8.227087e+001
1.112633e+003,7.156494e+001
1.113597e+003,6.995642e+001
1.114561e+003,8.270837e+001
1.115525e+003,9.394250e+001
1.116490e+003,9.821704e+001
1.117454e+003,9.991211e+001
1.118418e+003,1.017079e+002
1.119382e+003,1.042504e+002
1.120347e+003,1.067820e+002
1.121311e+003,1.082726e+002
1.122275e+003,1.085088e+002
1.123239e+003,1.091160e+002
1.124203e+003,1.108639e+002
1.125168e+003,1.115510e+002
1.126132e+003,1.104557e+002
1.127096e+003,1.103741e+002
1.128060e+003,1.137550e+002
1.129025e+003,1.195127e+002
1.129989e+003,1.233597e+002
1.130953e+003,1.231945e+002
1.131917e+003,1.246239e+002
1.132882e+003,1.304944e+002
1.133846e+003,1.374385e+002
1.134810e+003,1.436414e+002
1.135774e+003,1.492650e+002
1.136739e+003,1.549708e+002
1.137703e+003,1.611062e+002
1.138667e+003,1.681042e+002
1.139631e+003,1.769941e+002
1.140595e+003,1.876537e+002
1.141560e+003,1.994014e+002
1.142524e+003,2.124142e+002
1.143488e+003,2.279457e+002
1.144452e+003,2.451659e+002
1.145417e+003,2.652513e+002
1.146381e+003,2.935985e+002
1.147345e+003,3.338169e+002
1.148309e+003,3.723003e+002
1.149274e+003,4.029415e+002
1.150238e+003,4.347076e+002
1.151202e+003,4.748163e+002
1.152166e+003,5.197128e+002
1.153130e+003,5.625236e+002
1.154095e+003,5.991276e+002
1.155059e+003,6.289677e+002
1.156023e+003,6.533306e+002
1.156987e+003,6.708845e+002
1.157952e+003,6.757290e+002
1.158916e+003,6.687278e+002
1.159880e+003,6.537598e+002
1.160844e+003,6.301390e+002
1.161809e+003,5.980005e+002
1.162773e+003,5.587009e+002
1.163737e+003,5.103710e+002
1.164701e+003,4.638149e+002
1.165666e+003,4.203702e+002
1.166630e+003,3.819612e+002
1.167594e+003,3.488442e+002
1.168558e+003,3.212726e+002
1.169522e+003,2.998503e+002
1.170487e+003,2.845977e+002
1.171451e+003,2.755789e+002
1.172415e+003,2.735654e+002
1.173379e+003,2.765184e+002
1.174344e+003,2.742770e+002
1.175308e+003,2.669500e+002
1.176272e+003,2.601296e+002
1.177236e+003,2.568792e+002
1.178201e+003,2.545269e+002
1.179165e+003,2.488381e+002
1.180129e+003,2.392223e+002
1.181093e+003,2.295020e+002
1.182057e+003,2.202952e+002
1.183022e+003,2.121498e+002
1.183986e+003,2.059312e+002
1.184950e+003,2.003348e+002
1.185914e+003,1.931277e+002
1.186879e+003,1.852531e+002
1.187843e+003,1.806743e+002
1.188807e+003,1.824514e+002
1.189771e+003,1.885128e+002
1.190736e+003,1.939222e+002
1.191700e+003,1.986055e+002
1.192664e+003,2.023207e+002
1.193628e+003,2.071617e+002
1.194593e+003,2.091953e+002
1.195557e+003,2.037491e+002
1.196521e+003,1.928734e+002
1.197485e+003,1.843805e+002
1.198449e+003,1.803208e+002
1.199414e+003,1.762723e+002
1.200378e+003,1.694774e+002
1.201342e+003,1.628335e+002
1.202306e+003,1.578300e+002
1.203271e+003,1.540908e+002
1.204235e+003,1.511978e+002
1.205199e+003,1.488593e+002
1.206163e+003,1.460586e+002
1.207128e+003,1.408267e+002
1.208092e+003,1.331028e+002
1.209056e+003,1.252040e+002
1.210020e+003,1.174425e+002
1.210984e+003,1.091155e+002
1.211949e+003,9.960327e+001
1.212913e+003,8.933752e+001
1.213877e+003,7.917090e+001
1.214841e+003,6.932471e+001
1.215806e+003,5.919055e+001
1.216770e+003,4.733972e+001
1.217734e+003,3.674939e+001
1.218698e+003,2.792920e+001
1.219663e+003,2.146741e+001
1.220627e+003,1.965747e+001
1.221591e+003,2.176709e+001
1.222555e+003,2.319177e+001
1.223520e+003,1.972485e+001
1.224484e+003,1.275562e+001
1.225448e+003,7.619385e+000
1.226412e+003,4.378906e+000
1.227376e+003,2.959595e+000
1.228341e+003,3.639404e+000
1.229305e+003,5.277222e+000
1.230269e+003,8.755005e+000
1.231233e+003,1.226416e+001
1.232198e+003,1.197058e+001
1.233162e+003,6.992554e+000
1.234126e+003,2.155396e+000
1.235090e+003,6.506348e-001
1.236055e+003,3.513184e-001
1.237019e+003,-1.377441e+000
1.237983e+003,-3.944092e+000
1.238947e+003,-4.625244e+000
1.239911e+003,-2.018066e+000
1.240876e+003,1.307251e+000
1.241840e+003,8.415527e-001
1.242804e+003,-3.742920e+000
1.243768e+003,-5.379272e+000
1.244733e+003,-9.432373e-001
1.245697e+003,2.510864e+000
1.246661e+003,2.390625e+000
1.247625e+003,1.789063e+000
1.248590e+003,3.692139e+000
1.249554e+003,8.007690e+000
1.250518e+003,1.299731e+001
1.251482e+003,1.771472e+001
1.252447e+003,2.059131e+001
1.253411e+003,1.854260e+001
1.254375e+003,1.487842e+001
1.255339e+003,1.700183e+001
1.256303e+003,2.518799e+001
1.257268e+003,3.231848e+001
1.258232e+003,3.332263e+001
1.259196e+003,3.077783e+001
1.260160e+003,3.072180e+001
1.261125e+003,3.391406e+001
1.262089e+003,3.861719e+001
1.263053e+003,4.694507e+001
1.264017e+003,5.252344e+001
1.264982e+003,5.212244e+001
1.265946e+003,5.013171e+001
1.266910e+003,5.080798e+001
1.267874e+003,5.414038e+001
1.268839e+003,5.758081e+001
1.269803e+003,5.950061e+001
1.270767e+003,5.999683e+001
1.271731e+003,5.940833e+001
1.272695e+003,5.783777e+001
1.273660e+003,5.370081e+001
1.274624e+003,4.464685e+001
1.275588e+003,3.646375e+001
1.276552e+003,3.362573e+001
1.277517e+003,3.423877e+001
1.278481e+003,3.444849e+001
1.279445e+003,3.393311e+001
1.280409e+003,3.172021e+001
1.281374e+003,2.637952e+001
1.282338e+003,2.091870e+001
1.283302e+003,1.627209e+001
1.284266e+003,1.258667e+001
1.285230e+003,1.030847e+001
1.286195e+003,9.141357e+000
1.287159e+003,7.979492e+000
1.288123e+003,6.170532e+000
1.289087e+003,4.843628e+000
1.290052e+003,6.443481e+000
1.291016e+003,1.222107e+001
1.291980e+003,1.443896e+001
1.292944e+003,1.037024e+001
1.293909e+003,5.530884e+000
1.294873e+003,1.967651e+000
1.295837e+003,-1.447754e-001
1.296801e+003,-4.243164e-001
1.297766e+003,9.832764e-001
1.298730e+003,2.065918e+000
1.299694e+003,1.304810e+000
1.300658e+003,-2.790527e-001
1.301622e+003,-1.361450e+000
1.302587e+003,-1.961670e+000
1.303551e+003,-2.759644e+000
1.304515e+003,-3.489624e+000
1.305479e+003,-2.188354e+000
1.306444e+003,2.924316e+000
1.307408e+003,9.988037e+000
1.308372e+003,1.337988e+001
1.309336e+003,1.188635e+001
1.310301e+003,1.022681e+001
1.311265e+003,9.512085e+000
1.312229e+003,8.301758e+000
1.313193e+003,5.500488e+000
1.314157e+003,2.176514e+000
1.315122e+003,-1.081543e+000
1.316086e+003,-3.916992e+000
1.317050e+003,-5.242920e+000
1.318014e+003,-3.940674e+000
1.318979e+003,-1.580933e+000
1.319943e+003,-1.671021e+000
1.320907e+003,-3.570801e+000
1.321871e+003,-3.832153e+000
1.322836e+003,-2.852661e+000
1.323800e+003,-1.273315e+000
1.324764e+003,1.048706e+000
1.325728e+003,3.760620e+000
1.326693e+003,6.105957e+000
1.327657e+003,7.730103e+000
1.328621e+003,8.424194e+000
1.329585e+003,9.295654e+000
1.330549e+003,1.073035e+001
1.331514e+003,1.144556e+001
1.332478e+003,1.129163e+001
1.333442e+003,1.031812e+001
1.334406e+003,9.162964e+000
1.335371e+003,8.959473e+000
1.336335e+003,1.032117e+001
1.337299e+003,1.225745e+001
1.338263e+003,1.264612e+001
1.339228e+003,1.130933e+001
1.340192e+003,1.033667e+001
1.341156e+003,9.090088e+000
1.342120e+003,9.031616e+000
1.343084e+003,1.103772e+001
1.344049e+003,1.261536e+001
1.345013e+003,1.175256e+001
1.345977e+003,9.527222e+000
1.346941e+003,8.740234e+000
1.347906e+003,1.040247e+001
1.348870e+003,1.248633e+001
1.349834e+003,1.263513e+001
1.350798e+003,1.188940e+001
1.351763e+003,1.408850e+001
1.352727e+003,1.842908e+001
1.353691e+003,1.863269e+001
1.354655e+003,1.151404e+001
1.355620e+003,3.068359e+000
1.356584e+003,7.595215e-001
1.357548e+003,4.071899e+000
1.358512e+003,6.572144e+000
1.359476e+003,7.051758e+000
1.360441e+003,7.217163e+000
1.361405e+003,7.694946e+000
1.362369e+003,8.410400e+000
1.363333e+003,1.039722e+001
1.364298e+003,1.215088e+001
1.365262e+003,1.081519e+001
1.366226e+003,6.449951e+000
1.367190e+003,2.959106e+000
1.368155e+003,3.887451e+000
1.369119e+003,7.348877e+000
1.370083e+003,7.388306e+000
1.371047e+003,2.976685e+000
1.372011e+003,8.868408e-001
1.372976e+003,1.414795e-001
1.373940e+003,1.493774e+000
1.374904e+003,8.085571e+000
1.375868e+003,1.562317e+001
1.376833e+003,1.785205e+001
1.377797e+003,1.473193e+001
1.378761e+003,1.158093e+001
1.379725e+003,1.085095e+001
1.380690e+003,1.057141e+001
1.381654e+003,7.230103e+000
1.382618e+003,4.147705e+000
1.383582e+003,7.505981e+000
1.384547e+003,1.646912e+001
1.385511e+003,2.278088e+001
1.386475e+003,2.150940e+001
1.387439e+003,1.734290e+001
1.388403e+003,1.828308e+001
1.389368e+003,2.423950e+001
1.390332e+003,2.620166e+001
1.391296e+003,2.135217e+001
1.392260e+003,1.860815e+001
1.393225e+003,2.149036e+001
1.394189e+003,2.483655e+001
1.395153e+003,2.617468e+001
1.396117e+003,2.588074e+001
1.397082e+003,2.493701e+001
1.398046e+003,2.384277e+001
1.399010e+003,2.238013e+001
1.399974e+003,1.993982e+001
1.400938e+003,1.650195e+001
1.401903e+003,1.393384e+001
1.402867e+003,1.366162e+001
1.403831e+003,1.628540e+001
1.404795e+003,2.438550e+001
1.405760e+003,3.024243e+001
1.406724e+003,2.875317e+001
1.407688e+003,2.326282e+001
1.408652e+003,1.770923e+001
1.409617e+003,1.366333e+001
1.410581e+003,1.337427e+001
1.411545e+003,1.847168e+001
1.412509e+003,2.335938e+001
1.413474e+003,2.111511e+001
1.414438e+003,1.505457e+001
1.415402e+003,1.164563e+001
1.416366e+003,1.136377e+001
1.417330e+003,1.276733e+001
1.418295e+003,1.547266e+001
1.419259e+003,1.909900e+001
1.420223e+003,2.390039e+001
1.421187e+003,2.886328e+001
1.422152e+003,2.932690e+001
1.423116e+003,2.388245e+001
1.424080e+003,2.068726e+001
1.425044e+003,2.258435e+001
1.426009e+003,2.531616e+001
1.426973e+003,2.754407e+001
1.427937e+003,2.936072e+001
1.428901e+003,3.125745e+001
1.429865e+003,3.348206e+001
1.430830e+003,3.580420e+001
1.431794e+003,3.778723e+001
1.432758e+003,3.923132e+001
1.433722e+003,4.057532e+001
1.434687e+003,4.280225e+001
1.435651e+003,4.447546e+001
1.436615e+003,4.092847e+001
1.437579e+003,3.951208e+001
1.438544e+003,4.300073e+001
1.439508e+003,4.719336e+001
1.440472e+003,5.050073e+001
1.441436e+003,5.282324e+001
1.442401e+003,5.376196e+001
1.443365e+003,5.311353e+001
1.444329e+003,5.113843e+001
1.445293e+003,4.770581e+001
1.446257e+003,4.479150e+001
1.447222e+003,4.686658e+001
1.448186e+003,5.268213e+001
1.449150e+003,5.560034e+001
1.450114e+003,5.426013e+001
1.451079e+003,5.241406e+001
1.452043e+003,5.353870e+001
1.453007e+003,5.497742e+001
1.453971e+003,5.144580e+001
1.454936e+003,4.356152e+001
1.455900e+003,3.848218e+001
1.456864e+003,3.851245e+001
1.457828e+003,3.973730e+001
1.458792e+003,3.964441e+001
1.459757e+003,3.929272e+001
1.460721e+003,3.959229e+001
1.461685e+003,4.031458e+001
1.462649e+003,4.161829e+001
1.463614e+003,4.354541e+001
1.464578e+003,4.419556e+001
1.465542e+003,4.131494e+001
1.466506e+003,3.616394e+001
1.467471e+003,3.288904e+001
1.468435e+003,3.199548e+001
1.469399e+003,3.414600e+001
1.470363e+003,4.173669e+001
1.471328e+003,4.748792e+001
1.472292e+003,4.915259e+001
1.473256e+003,4.790503e+001
1.474220e+003,4.366199e+001
1.475184e+003,3.899329e+001
1.476149e+003,3.763257e+001
1.477113e+003,4.008142e+001
1.478077e+003,4.311353e+001
1.479041e+003,4.409656e+001
1.480006e+003,4.418567e+001
1.480970e+003,4.579822e+001
1.481934e+003,4.830115e+001
1.482898e+003,5.240027e+001
1.483863e+003,6.006055e+001
1.484827e+003,6.604407e+001
1.485791e+003,6.917749e+001
1.486755e+003,7.095264e+001
1.487719e+003,7.181226e+001
1.488684e+003,7.191272e+001
1.489648e+003,7.144836e+001
1.490612e+003,7.089124e+001
1.491576e+003,7.251050e+001
1.492541e+003,7.798022e+001
1.493505e+003,8.626770e+001
1.494469e+003,9.626208e+001
1.495433e+003,1.068989e+002
1.496398e+003,1.156521e+002
1.497362e+003,1.227534e+002
1.498326e+003,1.297499e+002
1.499290e+003,1.361652e+002
1.500255e+003,1.435714e+002
1.501219e+003,1.543563e+002
1.502183e+003,1.678767e+002
1.503147e+003,1.807114e+002
1.504111e+003,1.914286e+002
1.505076e+003,2.049169e+002
1.506040e+003,2.240787e+002
1.507004e+003,2.478059e+002
1.507968e+003,2.757030e+002
1.508933e+003,3.065469e+002
1.509897e+003,3.372885e+002
1.510861e+003,3.685751e+002
1.511825e+003,4.048486e+002
1.512790e+003,4.486538e+002
1.513754e+003,4.981182e+002
1.514718e+003,5.516709e+002
1.515682e+003,6.085918e+002
1.516646e+003,6.651483e+002
1.517611e+003,7.241589e+002
1.518575e+003,7.771091e+002
1.519539e+003,8.224579e+002
1.520503e+003,8.613074e+002
1.521468e+003,8.948911e+002
1.522432e+003,9.212461e+002
1.523396e+003,9.383613e+002
1.524360e+003,9.454264e+002
1.525325e+003,9.422562e+002
1.526289e+003,9.289010e+002
1.527253e+003,9.069779e+002
1.528217e+003,8.790623e+002
1.529182e+003,8.457638e+002
1.530146e+003,8.039792e+002
1.531110e+003,7.493566e+002
1.532074e+003,6.926016e+002
1.533039e+003,6.339498e+002
1.534003e+003,5.712645e+002
1.534967e+003,5.018060e+002
1.535931e+003,4.319459e+002
1.536896e+003,3.660653e+002
1.537860e+003,3.067325e+002
1.538824e+003,2.560310e+002
1.539788e+003,2.147306e+002
1.540752e+003,1.827164e+002
1.541717e+003,1.606760e+002
1.542681e+003,1.475773e+002
1.543645e+003,1.338315e+002
1.544609e+003,1.176752e+002
1.545573e+003,1.078407e+002
1.546538e+003,1.085239e+002
1.547502e+003,1.078799e+002
1.548466e+003,1.003895e+002
1.549430e+003,9.223853e+001
1.550395e+003,8.954810e+001
1.551359e+003,9.113513e+001
1.552323e+003,9.312378e+001
1.553287e+003,9.403137e+001
1.554252e+003,9.310278e+001
1.555216e+003,8.958606e+001
1.556180e+003,8.364941e+001
1.557144e+003,7.465918e+001
1.558109e+003,6.280164e+001
1.559073e+003,5.615540e+001
1.560037e+003,5.582666e+001
1.561001e+003,5.663147e+001
1.561966e+003,5.935828e+001
1.562930e+003,6.196753e+001
1.563894e+003,6.151147e+001
1.564858e+003,5.886938e+001
1.565823e+003,5.669043e+001
1.566787e+003,5.544019e+001
1.567751e+003,5.415454e+001
1.568715e+003,5.199561e+001
1.569679e+003,5.147986e+001
1.570644e+003,5.778784e+001
1.571608e+003,6.687024e+001
1.572572e+003,6.709839e+001
1.573536e+003,5.831738e+001
1.574500e+003,5.289600e+001
1.575465e+003,5.605054e+001
1.576429e+003,6.130566e+001
1.577393e+003,6.345605e+001
1.578357e+003,6.365906e+001
1.579322e+003,6.470508e+001
1.580286e+003,6.690601e+001
1.581250e+003,6.895093e+001
1.582214e+003,7.052966e+001
1.583179e+003,7.139502e+001
1.584143e+003,7.021008e+001
1.585107e+003,6.858459e+001
1.586071e+003,7.055396e+001
1.587036e+003,7.513733e+001
1.588000e+003,7.633032e+001
1.588964e+003,7.209949e+001
1.589928e+003,6.879956e+001
1.590893e+003,7.164246e+001
1.591857e+003,7.702441e+001
1.592821e+003,7.959790e+001
1.593785e+003,7.992004e+001
1.594750e+003,8.036755e+001
1.595714e+003,8.078064e+001
1.596678e+003,8.227856e+001
1.597642e+003,8.606506e+001
1.598606e+003,9.014233e+001
1.599571e+003,9.375220e+001
1.600535e+003,9.662109e+001
1.601499e+003,9.770471e+001
1.602463e+003,9.717505e+001
1.603427e+003,9.666248e+001
1.604392e+003,9.680615e+001
1.605356e+003,9.772229e+001
1.606320e+003,1.007783e+002
1.607284e+003,1.043662e+002
1.608249e+003,1.027098e+002
1.609213e+003,9.555737e+001
1.610177e+003,9.185144e+001
1.611141e+003,9.503687e+001
1.612106e+003,9.685730e+001
1.613070e+003,9.178955e+001
1.614034e+003,8.510876e+001
1.614998e+003,7.925867e+001
1.615963e+003,7.504871e+001
1.616927e+003,7.354053e+001
1.617891e+003,7.462671e+001
1.618855e+003,7.753015e+001
1.619820e+003,8.195972e+001
1.620784e+003,8.516492e+001
1.621748e+003,8.333459e+001
1.622712e+003,7.833435e+001
1.623677e+003,7.645813e+001
1.624641e+003,7.817188e+001
1.625605e+003,8.121082e+001
1.626569e+003,8.548474e+001
1.627533e+003,8.711499e+001
1.628498e+003,8.251770e+001
1.629462e+003,7.758899e+001
1.630426e+003,7.774524e+001
1.631390e+003,8.115552e+001
1.632354e+003,8.333008e+001
1.633319e+003,8.312524e+001
1.634283e+003,8.233765e+001
1.635247e+003,8.204517e+001
1.636211e+003,8.230676e+001
1.637176e+003,8.383301e+001
1.638140e+003,8.678381e+001
1.639104e+003,8.967505e+001
1.640068e+003,9.277295e+001
1.641033e+003,9.336755e+001
1.641997e+003,8.933557e+001
1.642961e+003,8.535742e+001
1.643925e+003,8.303259e+001
1.644890e+003,8.228027e+001
1.645854e+003,8.380762e+001
1.646818e+003,8.648499e+001
1.647782e+003,8.791821e+001
1.648747e+003,8.731604e+001
1.649711e+003,8.555957e+001
1.650675e+003,8.336169e+001
1.651639e+003,8.176453e+001
1.652604e+003,8.277075e+001
1.653568e+003,8.588672e+001
1.654532e+003,8.643616e+001
1.655496e+003,8.348047e+001
1.656460e+003,8.052661e+001
1.657425e+003,7.889539e+001
1.658389e+003,7.754431e+001
1.659353e+003,7.623987e+001
1.660317e+003,7.455383e+001
1.661281e+003,7.169519e+001
1.662246e+003,6.786279e+001
1.663210e+003,6.350146e+001
1.664174e+003,5.912134e+001
1.665138e+003,5.766211e+001
1.666103e+003,6.252100e+001
1.667067e+003,6.954810e+001
1.668031e+003,7.025085e+001
1.668995e+003,6.524536e+001
1.669960e+003,6.139722e+001
1.670924e+003,5.939404e+001
1.671888e+003,5.852258e+001
1.672852e+003,5.945190e+001
1.673817e+003,5.947156e+001
1.674781e+003,5.537598e+001
1.675745e+003,5.053503e+001
1.676709e+003,4.900134e+001
1.677674e+003,5.000708e+001
1.678638e+003,5.017273e+001
1.679602e+003,4.848035e+001
1.680566e+003,4.698206e+001
1.681531e+003,4.811682e+001
1.682495e+003,5.003638e+001
1.683459e+003,4.827148e+001
1.684423e+003,4.328015e+001
1.685387e+003,4.026062e+001
1.686352e+003,3.998218e+001
1.687316e+003,4.094922e+001
1.688280e+003,4.361987e+001
1.689244e+003,4.561963e+001
1.690208e+003,4.432178e+001
1.691173e+003,4.166125e+001
1.692137e+003,4.007324e+001
1.693101e+003,3.959924e+001
1.694065e+003,3.825330e+001
1.695030e+003,3.495471e+001
1.695994e+003,3.271558e+001
1.696958e+003,3.494885e+001
1.697922e+003,3.793604e+001
1.698887e+003,3.645715e+001
1.699851e+003,3.216736e+001
1.700815e+003,2.965393e+001
1.701779e+003,2.901794e+001
1.702744e+003,2.803503e+001
1.703708e+003,2.639441e+001
1.704672e+003,2.547791e+001
1.705636e+003,2.543555e+001
1.706601e+003,2.588623e+001
1.707565e+003,2.835083e+001
1.708529e+003,3.202856e+001
1.709493e+003,3.248682e+001
1.710458e+003,2.876575e+001
1.711422e+003,2.526062e+001
1.712386e+003,2.460608e+001
1.713350e+003,2.472595e+001
1.714314e+003,2.336108e+001
1.715279e+003,2.093433e+001
1.716243e+003,1.803748e+001
1.717207e+003,1.528955e+001
1.718171e+003,1.509399e+001
1.719135e+003,1.822986e+001
1.720100e+003,2.139392e+001
1.721064e+003,2.227905e+001
1.722028e+003,2.148975e+001
1.722992e+003,2.015112e+001
1.723957e+003,1.893762e+001
1.724921e+003,1.842615e+001
1.725885e+003,1.793506e+001
1.726849e+003,1.602710e+001
1.727814e+003,1.243787e+001
1.728778e+003,9.622803e+000
1.729742e+003,7.829224e+000
1.730706e+003,7.567749e+000
1.731671e+003,9.914673e+000
1.732635e+003,1.286426e+001
1.733599e+003,1.401807e+001
1.734563e+003,1.331531e+001
1.735528e+003,1.041199e+001
1.736492e+003,4.885010e+000
1.737456e+003,1.682129e-001
1.738420e+003,5.938721e-001
1.739385e+003,4.117554e+000
1.740349e+003,4.842529e+000
1.741313e+003,2.454224e+000
1.742277e+003,1.058960e+000
1.743241e+003,8.513184e-001
1.744206e+003,2.169434e+000
1.745170e+003,6.684937e+000
1.746134e+003,1.024146e+001
1.747098e+003,1.015552e+001
1.748063e+003,8.091919e+000
1.749027e+003,5.441528e+000
1.749991e+003,3.033691e+000
1.750955e+003,1.540894e+000
1.751919e+003,1.140503e+000
1.752884e+003,2.241821e+000
1.753848e+003,5.272461e+000
1.754812e+003,7.601318e+000
1.755776e+003,3.591675e+000
1.756741e+003,-5.910522e+000
1.757705e+003,-9.097168e+000
1.758669e+003,-3.941040e+000
1.759633e+003,2.343750e-001
1.760598e+003,2.163208e+000
1.761562e+003,2.591919e+000
1.762526e+003,2.071045e+000
1.763490e+003,9.434814e-001
1.764455e+003,-1.944824e+000
1.765419e+003,-4.425049e+000
1.766383e+003,-2.977295e+000
1.767347e+003,1.816406e+000
1.768312e+003,6.192749e+000
1.769276e+003,8.245239e+000
1.770240e+003,8.652222e+000
1.771204e+003,9.153442e+000
1.772168e+003,9.253418e+000
1.773133e+003,5.482056e+000
1.774097e+003,-1.563599e+000
1.775061e+003,-5.311401e+000
1.776025e+003,-5.381958e+000
1.776990e+003,-4.639404e+000
1.777954e+003,-3.076172e+000
1.778918e+003,-1.067383e+000
1.779882e+003,7.106934e-001
1.780846e+003,2.044189e+000
1.781811e+003,3.608398e+000
1.782775e+003,5.183228e+000
1.783739e+003,5.380981e+000
1.784703e+003,4.088013e+000
1.785668e+003,2.815674e+000
1.786632e+003,1.115479e+000
1.787596e+003,-3.627930e-001
1.788560e+003,-6.157227e-001
1.789525e+003,7.758789e-001
1.790489e+003,4.631104e+000
1.791453e+003,9.520752e+000
1.792417e+003,1.262317e+001
1.793382e+003,1.317273e+001
1.794346e+003,9.862427e+000
1.795310e+003,1.552002e+000
1.796274e+003,-6.721436e+000
1.797239e+003,-8.790527e+000
1.798203e+003,-5.585938e+000
1.799167e+003,-1.978882e+000
1.800131e+003,1.133423e+000
1.801095e+003,2.561401e+000
1.802060e+003,2.569946e+000
1.803024e+003,2.881836e+000
1.803988e+003,3.106689e+000
1.804952e+003,3.524658e+000
1.805917e+003,5.627808e+000
1.806881e+003,6.802124e+000
1.807845e+003,2.811523e+000
1.808809e+003,-3.193359e+000
1.809773e+003,-4.087769e+000
1.810738e+003,7.873535e-001
1.811702e+003,5.142578e+000
1.812666e+003,4.996216e+000
1.813630e+003,2.876709e+000
1.814595e+003,2.072266e+000
1.815559e+003,2.141113e+000
1.816523e+003,2.053711e+000
1.817487e+003,1.963013e+000
1.818452e+003,1.427734e+000
1.819416e+003,4.029541e-001
1.820380e+003,6.755371e-001
1.821344e+003,3.184204e+000
1.822309e+003,5.289551e+000
1.823273e+003,6.403687e+000
1.824237e+003,6.475952e+000
1.825201e+003,4.176758e+000
1.826166e+003,4.388428e-001
1.827130e+003,-1.863281e+000
1.828094e+003,-2.468262e+000
1.829058e+003,-3.413818e+000
1.830022e+003,-5.770874e+000
1.830987e+003,-7.513672e+000
1.831951e+003,-6.470947e+000
1.832915e+003,-4.138916e+000
1.833879e+003,-2.370483e+000
1.834844e+003,-1.338501e+000
1.835808e+003,-1.833252e+000
1.836772e+003,-3.495972e+000
1.837736e+003,-2.598022e+000
1.838700e+003,2.345703e+000
1.839665e+003,6.575562e+000
1.840629e+003,5.884521e+000
1.841593e+003,2.201782e+000
1.842557e+003,-1.149292e+000
1.843522e+003,-4.176392e+000
1.844486e+003,-5.267456e+000
1.845450e+003,-2.898804e+000
1.846414e+003,-1.696777e-002
1.847379e+003,3.912354e+000
1.848343e+003,5.701782e+000
1.849307e+003,3.579956e+000
1.850271e+003,5.461426e-001
1.851236e+003,-1.968018e+000
1.852200e+003,-3.022461e+000
1.853164e+003,-1.658325e+000
1.854128e+003,9.659424e-001
1.855093e+003,2.770264e+000
1.856057e+003,3.419678e+000
1.857021e+003,3.743042e+000
1.857985e+003,4.175293e+000
1.858949e+003,4.026123e+000
1.859914e+003,1.327393e+000
1.860878e+003,-2.822632e+000
1.861842e+003,-2.271484e+000
1.862806e+003,2.963013e+000
1.863771e+003,5.772339e+000
1.864735e+003,4.276123e+000
1.865699e+003,2.382690e+000
1.866663e+003,1.747559e+000
1.867627e+003,2.360352e+000
1.868592e+003,4.435181e+000
1.869556e+003,6.541260e+000
1.870520e+003,7.365845e+000
1.871484e+003,6.761963e+000
1.872449e+003,3.537476e+000
1.873413e+003,-2.244873e+000
1.874377e+003,-4.938110e+000
1.875341e+003,-3.565430e+000
1.876306e+003,-7.246094e-001
1.877270e+003,3.385010e+000
1.878234e+003,6.893677e+000
1.879198e+003,7.886475e+000
1.880163e+003,7.332520e+000
1.881127e+003,6.720947e+000
1.882091e+003,6.714478e+000
1.883055e+003,8.308960e+000
1.884020e+003,1.157300e+001
1.884984e+003,1.404297e+001
1.885948e+003,1.351868e+001
1.886912e+003,1.078516e+001
1.887876e+003,7.099731e+000
1.888841e+003,2.753662e+000
1.889805e+003,8.337402e-001
1.890769e+003,1.634888e+000
1.891733e+003,3.382568e+000
1.892698e+003,5.920776e+000
1.893662e+003,8.332031e+000
1.894626e+003,1.113538e+001
1.895590e+003,1.302112e+001
1.896554e+003,1.310803e+001
1.897519e+003,1.237952e+001
1.898483e+003,1.105969e+001
1.899447e+003,9.058105e+000
1.900411e+003,7.339233e+000
1.901376e+003,6.218750e+000
1.902340e+003,6.308960e+000
1.903304e+003,8.576294e+000
1.904268e+003,1.071716e+001
1.905233e+003,1.187402e+001
1.906197e+003,1.215405e+001
1.907161e+003,1.056042e+001
1.908125e+003,8.969482e+000
1.909090e+003,1.072925e+001
1.910054e+003,1.504224e+001
1.911018e+003,1.897327e+001
1.911982e+003,2.150977e+001
1.912947e+003,2.202209e+001
1.913911e+003,1.988989e+001
1.914875e+003,1.631409e+001
1.915839e+003,1.264368e+001
1.916803e+003,9.151489e+000
1.917768e+003,1.028210e+001
1.918732e+003,1.777991e+001
1.919696e+003,2.083606e+001
1.920660e+003,1.805786e+001
1.921625e+003,1.521936e+001
1.922589e+003,1.201038e+001
1.923553e+003,1.064172e+001
1.924517e+003,1.392725e+001
1.925481e+003,1.828699e+001
1.926446e+003,2.139502e+001
1.927410e+003,2.305347e+001
1.928374e+003,2.176611e+001
1.929338e+003,1.763672e+001
1.930303e+003,1.650623e+001
1.931267e+003,2.190161e+001
1.932231e+003,2.650208e+001
1.933195e+003,2.623047e+001
1.934160e+003,2.375854e+001
1.935124e+003,1.999792e+001
1.936088e+003,1.565149e+001
1.937052e+003,1.127551e+001
1.938017e+003,7.967651e+000
1.938981e+003,7.492188e+000
1.939945e+003,9.610352e+000
1.940909e+003,1.278979e+001
1.941874e+003,1.593433e+001
1.942838e+003,1.736084e+001
1.943802e+003,1.588403e+001
1.944766e+003,1.337573e+001
1.945730e+003,1.225830e+001
1.946695e+003,1.217285e+001
1.947659e+003,1.374792e+001
1.948623e+003,1.710303e+001
1.949587e+003,1.912891e+001
1.950552e+003,1.967480e+001
1.951516e+003,1.934412e+001
1.952480e+003,1.779712e+001
1.953444e+003,1.645386e+001
1.954408e+003,1.583728e+001
1.955373e+003,1.574182e+001
1.956337e+003,1.723169e+001
1.957301e+003,2.009045e+001
1.958265e+003,2.127417e+001
1.959230e+003,2.051343e+001
1.960194e+003,2.050781e+001
1.961158e+003,2.113538e+001
1.962122e+003,2.140710e+001
1.963087e+003,2.111072e+001
1.964051e+003,2.064966e+001
1.965015e+003,2.130469e+001
1.965979e+003,2.202905e+001
1.966944e+003,1.997498e+001
1.967908e+003,1.693823e+001
1.968872e+003,1.732947e+001
1.969836e+003,2.111670e+001
1.970801e+003,2.446729e+001
1.971765e+003,2.576929e+001
1.972729e+003,2.617676e+001
1.973693e+003,2.653687e+001
1.974657e+003,2.674609e+001
1.975622e+003,2.543237e+001
1.976586e+003,2.388770e+001
1.977550e+003,2.805554e+001
1.978514e+003,3.647021e+001
1.979479e+003,3.854236e+001
1.980443e+003,3.298291e+001
1.981407e+003,2.799292e+001
1.982371e+003,2.676318e+001
1.983335e+003,2.814734e+001
1.984300e+003,3.133069e+001
1.985264e+003,3.451550e+001
1.986228e+003,3.534570e+001
1.987192e+003,3.402136e+001
1.988157e+003,3.147095e+001
1.989121e+003,2.728516e+001
1.990085e+003,2.527100e+001
1.991049e+003,2.705151e+001
1.992014e+003,2.836926e+001
1.992978e+003,2.735791e+001
1.993942e+003,2.706531e+001
1.994906e+003,2.952539e+001
1.995871e+003,3.208801e+001
1.996835e+003,3.312781e+001
1.997799e+003,3.321118e+001
1.998763e+003,3.202124e+001
1.999728e+003,3.013293e+001
