5.003444e+002,2.106344e+002
5.013087e+002,2.132004e+002
5.022729e+002,2.088918e+002
5.032371e+002,2.007114e+002
5.042014e+002,1.964438e+002
5.051656e+002,1.956619e+002
5.061298e+002,1.952156e+002
5.070941e+002,1.918507e+002
5.080583e+002,1.840010e+002
5.090225e+002,1.796644e+002
5.099868e+002,1.805990e+002
5.109510e+002,1.819022e+002
5.119152e+002,1.810668e+002
5.128795e+002,1.779115e+002
5.138437e+002,1.750374e+002
5.148079e+002,1.736079e+002
5.157722e+002,1.728087e+002
5.167364e+002,1.724307e+002
5.177006e+002,1.719579e+002
5.186649e+002,1.706637e+002
5.196291e+002,1.686927e+002
5.205933e+002,1.663223e+002
5.215576e+002,1.618348e+002
5.225218e+002,1.548025e+002
5.234860e+002,1.465386e+002
5.244503e+002,1.401984e+002
5.254145e+002,1.374977e+002
5.263787e+002,1.363574e+002
5.273430e+002,1.371229e+002
5.283072e+002,1.391967e+002
5.292714e+002,1.420321e+002
5.302357e+002,1.465659e+002
5.311999e+002,1.463967e+002
5.321641e+002,1.393718e+002
5.331284e+002,1.313740e+002
5.340926e+002,1.266006e+002
5.350568e+002,1.262792e+002
5.360211e+002,1.264470e+002
5.369853e+002,1.250375e+002
5.379495e+002,1.231371e+002
5.389138e+002,1.206543e+002
5.398780e+002,1.177002e+002
5.408422e+002,1.149891e+002
5.418065e+002,1.153850e+002
5.427707e+002,1.184219e+002
5.437349e+002,1.218070e+002
5.446992e+002,1.259410e+002
5.456634e+002,1.291400e+002
5.466276e+002,1.255760e+002
5.475919e+002,1.039501e+002
5.485561e+002,9.031250e+001
5.495203e+002,9.008630e+001
5.504846e+002,9.617566e+001
5.514488e+002,9.865283e+001
5.524130e+002,9.343372e+001
5.533773e+002,8.717908e+001
5.543415e+002,8.212061e+001
5.553057e+002,7.869836e+001
5.562700e+002,7.763391e+001
5.572342e+002,7.922632e+001
5.581984e+002,8.195056e+001
5.591627e+002,8.318445e+001
5.601269e+002,8.367065e+001
5.610911e+002,8.359314e+001
5.620554e+002,8.279407e+001
5.630196e+002,8.094812e+001
5.639838e+002,7.789697e+001
5.649481e+002,7.322400e+001
5.659123e+002,6.809070e+001
5.668765e+002,6.259460e+001
5.678408e+002,5.782751e+001
5.688050e+002,5.572791e+001
5.697692e+002,5.736621e+001
5.707335e+002,5.858948e+001
5.716977e+002,5.918713e+001
5.726619e+002,5.894104e+001
5.736262e+002,5.738049e+001
5.745904e+002,5.400195e+001
5.755546e+002,5.071448e+001
5.765189e+002,5.031396e+001
5.774831e+002,5.089209e+001
5.784473e+002,4.973047e+001
5.794116e+002,4.535303e+001
5.803758e+002,3.880811e+001
5.813400e+002,3.712720e+001
5.823043e+002,4.058716e+001
5.832685e+002,4.322266e+001
5.842327e+002,4.395886e+001
5.851970e+002,4.341077e+001
5.861612e+002,4.212793e+001
5.871254e+002,3.635889e+001
5.880897e+002,3.301355e+001
5.890539e+002,3.488940e+001
5.900181e+002,3.934045e+001
5.909824e+002,4.206421e+001
5.919466e+002,4.017273e+001
5.929108e+002,3.698706e+001
5.938751e+002,3.637036e+001
5.948393e+002,3.708459e+001
5.958035e+002,3.736731e+001
5.967678e+002,3.603979e+001
5.977320e+002,3.365784e+001
5.986962e+002,3.163794e+001
5.996605e+002,2.885449e+001
6.006247e+002,2.693762e+001
6.015889e+002,2.725415e+001
6.025532e+002,2.969482e+001
6.035174e+002,3.117615e+001
6.044816e+002,3.012781e+001
6.054459e+002,3.010962e+001
6.064101e+002,3.356763e+001
6.073743e+002,3.800330e+001
6.083386e+002,3.841455e+001
6.093028e+002,3.004248e+001
6.102670e+002,2.211096e+001
6.112313e+002,2.214221e+001
6.121955e+002,2.646826e+001
6.131597e+002,3.068542e+001
6.141240e+002,3.169495e+001
6.150882e+002,2.984863e+001
6.160524e+002,2.576257e+001
6.170167e+002,2.025427e+001
6.179809e+002,1.732153e+001
6.189451e+002,1.917847e+001
6.199094e+002,2.462317e+001
6.208736e+002,2.725635e+001
6.218378e+002,2.560181e+001
6.228021e+002,2.418677e+001
6.237663e+002,2.413403e+001
6.247305e+002,2.461499e+001
6.256948e+002,2.368591e+001
6.266590e+002,1.920581e+001
6.276232e+002,1.446838e+001
6.285875e+002,1.135596e+001
6.295517e+002,1.022534e+001
6.305159e+002,1.184558e+001
6.314802e+002,1.622119e+001
6.324444e+002,2.142273e+001
6.334086e+002,2.317883e+001
6.343729e+002,2.291333e+001
6.353371e+002,2.178992e+001
6.363013e+002,1.984937e+001
6.372656e+002,1.713794e+001
6.382298e+002,1.450586e+001
6.391940e+002,1.282166e+001
6.401583e+002,9.273193e+000
6.411225e+002,2.941528e+000
6.420867e+002,-3.211548e+000
6.430510e+002,-5.949951e+000
6.440152e+002,-4.194092e+000
6.449794e+002,-2.585571e+000
6.459437e+002,-2.985474e+000
6.469079e+002,-4.738037e+000
6.478721e+002,-8.159546e+000
6.488364e+002,-1.266907e+001
6.498006e+002,-1.594495e+001
6.507648e+002,-1.280957e+001
6.517291e+002,-5.940918e+000
6.526933e+002,-1.148682e+000
6.536575e+002,4.187012e-001
6.546218e+002,-3.260498e-001
6.555860e+002,-1.665405e+000
6.565502e+002,-4.331787e+000
6.575145e+002,-6.196289e+000
6.584787e+002,-7.681396e+000
6.594429e+002,-8.071411e+000
6.604072e+002,-6.104980e+000
6.613714e+002,-1.233643e+000
6.623356e+002,2.545410e+000
6.632999e+002,1.600464e+000
6.642641e+002,-4.074707e-001
6.652283e+002,-1.076538e+000
6.661926e+002,2.453613e-002
6.671568e+002,1.835327e+000
6.681210e+002,2.984985e+000
6.690853e+002,2.869751e+000
6.700495e+002,7.921143e-001
6.710137e+002,-3.031372e+000
6.719780e+002,-6.357178e+000
6.729422e+002,-6.817139e+000
6.739064e+002,-4.013306e+000
6.748707e+002,-2.276978e+000
6.758349e+002,-1.955078e+000
6.767991e+002,-2.260864e+000
6.777634e+002,-2.244629e+000
6.787276e+002,-1.506104e+000
6.796918e+002,-6.693115e-001
6.806561e+002,-1.142456e+000
6.816203e+002,-1.743530e+000
6.825845e+002,-1.259888e+000
6.835488e+002,-6.627197e-001
6.845130e+002,-1.965820e+000
6.854772e+002,-6.865234e+000
6.864415e+002,-1.209290e+001
6.874057e+002,-1.089539e+001
6.883699e+002,-5.997437e+000
6.893342e+002,-2.123413e+000
6.902984e+002,-1.713013e+000
6.912626e+002,-4.040405e+000
6.922269e+002,-5.656128e+000
6.931911e+002,-4.552612e+000
6.941553e+002,-3.287231e+000
6.951196e+002,-3.848633e+000
6.960838e+002,-5.086060e+000
6.970480e+002,-3.925171e+000
6.980123e+002,2.570557e+000
6.989765e+002,6.415283e+000
6.999407e+002,1.437500e+000
7.009050e+002,-5.120605e+000
7.018692e+002,-6.732544e+000
7.028334e+002,-1.767212e+000
7.037977e+002,4.625610e+000
7.047619e+002,4.237915e+000
7.057261e+002,1.793213e-001
7.066904e+002,-2.571289e+000
7.076546e+002,-3.277832e+000
7.086188e+002,-2.784180e+000
7.095831e+002,-2.364380e+000
7.105473e+002,-2.319702e+000
7.115115e+002,-2.814209e+000
7.124758e+002,-4.742798e+000
7.134400e+002,-6.706909e+000
7.144042e+002,-6.959106e+000
7.153685e+002,-5.284912e+000
7.163327e+002,-4.861206e+000
7.172969e+002,-9.575562e+000
7.182612e+002,-1.340515e+001
7.192254e+002,-1.372644e+001
7.201896e+002,-1.155029e+001
7.211539e+002,-9.199463e+000
7.221181e+002,-8.529663e+000
7.230823e+002,-8.659302e+000
7.240466e+002,-6.450562e+000
7.250108e+002,-2.020142e+000
7.259750e+002,1.392578e+000
7.269393e+002,9.626465e-001
7.279035e+002,-3.413086e+000
7.288677e+002,-6.042480e+000
7.298320e+002,-2.096191e+000
7.307962e+002,6.879883e-001
7.317604e+002,3.695068e-001
7.327247e+002,-6.147461e-001
7.336889e+002,1.165161e+000
7.346531e+002,6.723633e+000
7.356174e+002,9.497437e+000
7.365816e+002,7.087769e+000
7.375458e+002,2.844727e+000
7.385101e+002,-2.027344e+000
7.394743e+002,-6.525635e+000
7.404385e+002,-9.236450e+000
7.414028e+002,-7.589966e+000
7.423670e+002,-4.001953e+000
7.433312e+002,-2.953979e+000
7.442955e+002,-3.732544e+000
7.452597e+002,-4.528687e+000
7.462239e+002,-3.819580e+000
7.471882e+002,-1.502441e+000
7.481524e+002,3.173828e-001
7.491166e+002,-3.605957e-001
7.500809e+002,-1.341919e+000
7.510451e+002,-1.040405e+000
7.520093e+002,-1.408691e-001
7.529736e+002,-1.371582e+000
7.539378e+002,-7.053711e+000
7.549020e+002,-1.146411e+001
7.558663e+002,-1.092261e+001
7.568306e+002,-7.349976e+000
7.577948e+002,-3.454834e+000
7.587590e+002,-1.154053e+000
7.597233e+002,-3.206787e-001
7.606875e+002,1.226807e+000
7.616517e+002,3.853271e+000
7.626160e+002,4.980713e+000
7.635802e+002,3.269531e+000
7.645444e+002,7.304688e-001
7.655087e+002,1.810425e+000
7.664729e+002,9.397217e+000
7.674371e+002,1.361487e+001
7.684014e+002,1.200403e+001
7.693656e+002,9.073242e+000
7.703298e+002,7.326050e+000
7.712941e+002,7.349731e+000
7.722583e+002,8.720459e+000
7.732225e+002,1.197864e+001
7.741868e+002,1.567456e+001
7.751510e+002,1.931030e+001
7.761152e+002,2.244836e+001
7.770795e+002,2.400012e+001
7.780437e+002,2.286035e+001
7.790079e+002,1.937598e+001
7.799722e+002,1.902710e+001
7.809364e+002,2.221582e+001
7.819006e+002,2.395679e+001
7.828649e+002,2.211389e+001
7.838291e+002,1.815979e+001
7.847933e+002,1.575134e+001
7.857576e+002,1.467676e+001
7.867218e+002,1.353796e+001
7.876860e+002,1.305627e+001
7.886503e+002,1.315662e+001
7.896145e+002,1.378760e+001
7.905787e+002,1.488818e+001
7.915430e+002,1.623669e+001
7.925072e+002,1.686462e+001
7.934714e+002,1.673010e+001
7.944357e+002,1.668713e+001
7.953999e+002,1.728015e+001
7.963641e+002,1.860168e+001
7.973284e+002,2.049976e+001
7.982926e+002,2.304395e+001
7.992568e+002,2.492749e+001
8.002211e+002,2.525464e+001
8.011853e+002,2.340039e+001
8.021495e+002,1.898608e+001
8.031138e+002,1.415820e+001
8.040780e+002,1.344238e+001
8.050422e+002,1.952405e+001
8.060065e+002,2.442480e+001
8.069707e+002,2.444104e+001
8.079349e+002,2.197778e+001
8.088992e+002,1.941528e+001
8.098634e+002,1.805701e+001
8.108276e+002,1.795178e+001
8.117919e+002,1.880981e+001
8.127561e+002,1.922205e+001
8.137203e+002,1.916479e+001
8.146846e+002,1.940430e+001
8.156488e+002,1.950110e+001
8.166130e+002,1.805737e+001
8.175773e+002,1.402588e+001
8.185415e+002,1.360144e+001
8.195057e+002,1.921545e+001
8.204700e+002,2.331189e+001
8.214342e+002,2.236316e+001
8.223984e+002,1.801746e+001
8.233627e+002,1.478284e+001
8.243269e+002,1.438123e+001
8.252911e+002,1.569946e+001
8.262554e+002,1.911169e+001
8.272196e+002,2.264258e+001
8.281838e+002,2.381653e+001
8.291481e+002,2.194250e+001
8.301123e+002,1.868250e+001
8.310765e+002,1.671472e+001
8.320408e+002,1.602466e+001
8.330050e+002,1.714136e+001
8.339692e+002,2.095093e+001
8.349335e+002,2.458337e+001
8.358977e+002,2.489355e+001
8.368619e+002,2.167798e+001
8.378262e+002,1.998450e+001
8.387904e+002,1.934937e+001
8.397546e+002,1.972693e+001
8.407189e+002,2.176404e+001
8.416831e+002,2.482434e+001
8.426473e+002,2.821680e+001
8.436116e+002,3.203967e+001
8.445758e+002,3.490784e+001
8.455400e+002,3.297388e+001
8.465043e+002,2.890894e+001
8.474685e+002,2.697156e+001
8.484327e+002,2.876147e+001
8.493970e+002,3.266101e+001
8.503612e+002,3.497986e+001
8.513254e+002,3.497205e+001
8.522897e+002,3.614014e+001
8.532539e+002,3.900867e+001
8.542181e+002,4.123132e+001
8.551824e+002,4.123206e+001
8.561466e+002,4.028479e+001
8.571108e+002,4.305127e+001
8.580751e+002,5.228394e+001
8.590393e+002,5.910034e+001
8.600035e+002,6.065686e+001
8.609678e+002,5.980713e+001
8.619320e+002,5.925317e+001
8.628962e+002,6.011597e+001
8.638605e+002,6.202759e+001
8.648247e+002,6.500342e+001
8.657889e+002,6.846533e+001
8.667532e+002,7.201697e+001
8.677174e+002,7.557629e+001
8.686816e+002,7.763647e+001
8.696459e+002,7.605945e+001
8.706101e+002,7.024194e+001
8.715743e+002,6.870251e+001
8.725386e+002,7.367944e+001
8.735028e+002,7.972510e+001
8.744670e+002,8.574146e+001
8.754313e+002,9.079517e+001
8.763955e+002,9.392639e+001
8.773597e+002,9.477441e+001
8.783240e+002,9.537158e+001
8.792882e+002,9.740137e+001
8.802524e+002,9.911292e+001
8.812167e+002,9.813318e+001
8.821809e+002,9.476135e+001
8.831451e+002,9.214380e+001
8.841094e+002,9.464355e+001
8.850736e+002,1.026254e+002
8.860378e+002,1.089824e+002
8.870021e+002,1.127972e+002
8.879663e+002,1.167096e+002
8.889305e+002,1.224553e+002
8.898948e+002,1.292006e+002
8.908590e+002,1.338713e+002
8.918232e+002,1.368717e+002
8.927875e+002,1.376973e+002
8.937517e+002,1.342996e+002
8.947159e+002,1.304603e+002
8.956802e+002,1.286743e+002
8.966444e+002,1.291630e+002
8.976086e+002,1.306525e+002
8.985729e+002,1.331893e+002
8.995371e+002,1.365006e+002
9.005013e+002,1.391292e+002
9.014656e+002,1.414778e+002
9.024298e+002,1.442931e+002
9.033940e+002,1.477943e+002
9.043583e+002,1.510917e+002
9.053225e+002,1.519410e+002
9.062867e+002,1.462242e+002
9.072510e+002,1.422764e+002
9.082152e+002,1.420802e+002
9.091794e+002,1.442688e+002
9.101437e+002,1.477358e+002
9.111079e+002,1.522501e+002
9.120721e+002,1.564237e+002
9.130364e+002,1.587061e+002
9.140006e+002,1.595690e+002
9.149648e+002,1.598346e+002
9.159291e+002,1.599137e+002
9.168933e+002,1.591689e+002
9.178575e+002,1.568710e+002
9.188218e+002,1.539580e+002
9.197860e+002,1.561056e+002
9.207502e+002,1.632588e+002
9.217145e+002,1.657054e+002
9.226787e+002,1.610468e+002
9.236429e+002,1.533252e+002
9.246072e+002,1.470178e+002
9.255714e+002,1.417574e+002
9.265356e+002,1.365779e+002
9.274999e+002,1.289344e+002
9.284641e+002,1.232772e+002
9.294283e+002,1.233462e+002
9.303926e+002,1.266248e+002
9.313568e+002,1.283690e+002
9.323210e+002,1.260420e+002
9.332853e+002,1.217190e+002
9.342495e+002,1.178844e+002
9.352137e+002,1.143457e+002
9.361780e+002,1.116799e+002
9.371422e+002,1.105565e+002
9.381064e+002,1.111429e+002
9.390707e+002,1.132102e+002
9.400349e+002,1.165179e+002
9.409991e+002,1.173574e+002
9.419634e+002,1.127036e+002
9.429276e+002,1.093955e+002
9.438918e+002,1.107183e+002
9.448561e+002,1.143258e+002
9.458203e+002,1.159591e+002
9.467845e+002,1.142780e+002
9.477488e+002,1.127965e+002
9.487130e+002,1.148885e+002
9.496772e+002,1.174225e+002
9.506415e+002,1.173866e+002
9.516057e+002,1.150648e+002
9.525699e+002,1.130874e+002
9.535342e+002,1.139662e+002
9.544984e+002,1.169059e+002
9.554626e+002,1.173807e+002
9.564269e+002,1.159656e+002
9.573911e+002,1.154398e+002
9.583553e+002,1.169971e+002
9.593196e+002,1.191783e+002
9.602838e+002,1.195215e+002
9.612480e+002,1.172308e+002
9.622123e+002,1.149138e+002
9.631765e+002,1.134457e+002
9.641407e+002,1.125201e+002
9.651050e+002,1.123518e+002
9.660692e+002,1.120481e+002
9.670334e+002,1.102344e+002
9.679977e+002,1.064280e+002
9.689619e+002,1.026559e+002
9.699261e+002,1.015704e+002
9.708904e+002,1.022582e+002
9.718546e+002,1.047328e+002
9.728188e+002,1.088254e+002
9.737831e+002,1.140641e+002
9.747473e+002,1.203860e+002
9.757115e+002,1.283092e+002
9.766758e+002,1.359419e+002
9.776400e+002,1.458763e+002
9.786042e+002,1.536135e+002
9.795685e+002,1.573961e+002
9.805327e+002,1.575242e+002
9.814969e+002,1.551223e+002
9.824612e+002,1.510481e+002
9.834254e+002,1.451958e+002
9.843896e+002,1.348400e+002
9.853539e+002,1.226475e+002
9.863181e+002,1.105841e+002
9.872823e+002,9.907153e+001
9.882466e+002,9.009180e+001
9.892108e+002,8.619324e+001
9.901750e+002,8.761267e+001
9.911393e+002,8.870251e+001
9.921035e+002,8.599060e+001
9.930677e+002,8.447986e+001
9.940320e+002,8.451392e+001
9.949962e+002,8.716626e+001
9.959604e+002,9.483484e+001
9.969247e+002,1.074210e+002
9.978889e+002,1.183798e+002
9.988531e+002,1.224125e+002
9.998174e+002,1.243179e+002
1.000782e+003,1.272845e+002
1.001746e+003,1.314292e+002
1.002710e+003,1.368562e+002
1.003674e+003,1.431757e+002
1.004639e+003,1.487334e+002
1.005603e+003,1.504186e+002
1.006567e+003,1.475049e+002
1.007531e+003,1.469824e+002
1.008495e+003,1.507046e+002
1.009460e+003,1.533400e+002
1.010424e+003,1.508596e+002
1.011388e+003,1.448628e+002
1.012352e+003,1.414169e+002
1.013317e+003,1.426079e+002
1.014281e+003,1.425529e+002
1.015245e+003,1.400502e+002
1.016209e+003,1.348152e+002
1.017174e+003,1.256696e+002
1.018138e+003,1.137158e+002
1.019102e+003,1.018824e+002
1.020066e+003,9.266516e+001
1.021031e+003,8.594800e+001
1.021995e+003,8.050220e+001
1.022959e+003,7.535876e+001
1.023923e+003,6.951416e+001
1.024887e+003,6.237878e+001
1.025852e+003,5.451868e+001
1.026816e+003,4.682324e+001
1.027780e+003,3.952234e+001
1.028744e+003,3.415320e+001
1.029709e+003,3.128699e+001
1.030673e+003,2.946375e+001
1.031637e+003,2.903394e+001
1.032601e+003,2.864026e+001
1.033566e+003,2.663354e+001
1.034530e+003,2.268140e+001
1.035494e+003,1.844995e+001
1.036458e+003,1.457739e+001
1.037422e+003,1.187659e+001
1.038387e+003,1.235706e+001
1.039351e+003,1.560425e+001
1.040315e+003,1.941504e+001
1.041279e+003,2.258826e+001
1.042244e+003,2.529602e+001
1.043208e+003,2.674683e+001
1.044172e+003,2.438196e+001
1.045136e+003,2.377014e+001
1.046101e+003,2.698645e+001
1.047065e+003,3.061804e+001
1.048029e+003,3.295703e+001
1.048993e+003,3.348315e+001
1.049958e+003,3.137573e+001
1.050922e+003,2.534058e+001
1.051886e+003,2.019568e+001
1.052850e+003,2.178992e+001
1.053814e+003,2.635583e+001
1.054779e+003,2.902563e+001
1.055743e+003,2.871143e+001
1.056707e+003,2.761572e+001
1.057671e+003,2.843909e+001
1.058636e+003,3.105054e+001
1.059600e+003,3.323816e+001
1.060564e+003,3.723584e+001
1.061528e+003,3.949109e+001
1.062493e+003,3.730933e+001
1.063457e+003,3.319006e+001
1.064421e+003,3.054102e+001
1.065385e+003,3.000391e+001
1.066349e+003,2.904077e+001
1.067314e+003,2.586658e+001
1.068278e+003,2.253711e+001
1.069242e+003,1.991846e+001
1.070206e+003,1.867480e+001
1.071171e+003,1.991980e+001
1.072135e+003,2.354175e+001
1.073099e+003,2.753601e+001
1.074063e+003,2.909985e+001
1.075028e+003,2.830542e+001
1.075992e+003,2.689465e+001
1.076956e+003,2.330444e+001
1.077920e+003,2.055066e+001
1.078885e+003,2.234009e+001
1.079849e+003,2.576721e+001
1.080813e+003,2.373828e+001
1.081777e+003,1.391846e+001
1.082741e+003,7.134033e+000
1.083706e+003,1.141370e+001
1.084670e+003,1.667505e+001
1.085634e+003,1.778833e+001
1.086598e+003,1.552148e+001
1.087563e+003,1.242029e+001
1.088527e+003,1.033508e+001
1.089491e+003,9.610840e+000
1.090455e+003,9.949341e+000
1.091420e+003,1.092212e+001
1.092384e+003,1.219409e+001
1.093348e+003,1.404932e+001
1.094312e+003,1.467029e+001
1.095276e+003,1.221680e+001
1.096241e+003,8.589111e+000
1.097205e+003,9.058960e+000
1.098169e+003,1.586938e+001
1.099133e+003,2.031616e+001
1.100098e+003,1.729590e+001
1.101062e+003,1.345056e+001
1.102026e+003,1.244958e+001
1.102990e+003,1.429993e+001
1.103955e+003,1.801477e+001
1.104919e+003,2.276880e+001
1.105883e+003,2.679407e+001
1.106847e+003,2.608643e+001
1.107812e+003,2.048193e+001
1.108776e+003,1.788342e+001
1.109740e+003,1.996399e+001
1.110704e+003,2.228589e+001
1.111668e+003,2.134204e+001
1.112633e+003,1.869373e+001
1.113597e+003,1.961206e+001
1.114561e+003,2.578650e+001
1.115525e+003,3.129932e+001
1.116490e+003,3.392200e+001
1.117454e+003,3.556042e+001
1.118418e+003,3.787598e+001
1.119382e+003,4.107275e+001
1.120347e+003,4.435156e+001
1.121311e+003,4.665564e+001
1.122275e+003,4.704492e+001
1.123239e+003,4.490430e+001
1.124203e+003,4.145618e+001
1.125168e+003,4.045740e+001
1.126132e+003,4.303772e+001
1.127096e+003,4.645190e+001
1.128060e+003,4.738757e+001
1.129025e+003,4.665186e+001
1.129989e+003,4.992249e+001
1.130953e+003,6.017981e+001
1.131917e+003,6.765967e+001
1.132882e+003,6.697461e+001
1.133846e+003,6.641052e+001
1.134810e+003,7.180298e+001
1.135774e+003,8.164783e+001
1.136739e+003,9.085034e+001
1.137703e+003,9.650098e+001
1.138667e+003,1.009907e+002
1.139631e+003,1.087998e+002
1.140595e+003,1.195151e+002
1.141560e+003,1.297228e+002
1.142524e+003,1.390773e+002
1.143488e+003,1.507529e+002
1.144452e+003,1.658821e+002
1.145417e+003,1.847386e+002
1.146381e+003,2.092202e+002
1.147345e+003,2.417996e+002
1.148309e+003,2.727061e+002
1.149274e+003,2.960737e+002
1.150238e+003,3.215212e+002
1.151202e+003,3.559962e+002
1.152166e+003,3.965778e+002
1.153130e+003,4.380348e+002
1.154095e+003,4.767988e+002
1.155059e+003,5.098175e+002
1.156023e+003,5.344760e+002
1.156987e+003,5.499724e+002
1.157952e+003,5.548416e+002
1.158916e+003,5.499021e+002
1.159880e+003,5.387363e+002
1.160844e+003,5.209874e+002
1.161809e+003,4.963488e+002
1.162773e+003,4.659126e+002
1.163737e+003,4.290200e+002
1.164701e+003,3.897606e+002
1.165666e+003,3.437515e+002
1.166630e+003,3.023558e+002
1.167594e+003,2.693215e+002
1.168558e+003,2.435100e+002
1.169522e+003,2.237775e+002
1.170487e+003,2.092677e+002
1.171451e+003,1.992330e+002
1.172415e+003,1.930555e+002
1.173379e+003,1.898953e+002
1.174344e+003,1.864038e+002
1.175308e+003,1.828444e+002
1.176272e+003,1.792333e+002
1.177236e+003,1.760081e+002
1.178201e+003,1.728796e+002
1.179165e+003,1.688990e+002
1.180129e+003,1.635325e+002
1.181093e+003,1.577540e+002
1.182057e+003,1.518364e+002
1.183022e+003,1.461849e+002
1.183986e+003,1.413253e+002
1.184950e+003,1.366061e+002
1.185914e+003,1.304601e+002
1.186879e+003,1.238362e+002
1.187843e+003,1.204410e+002
1.188807e+003,1.231791e+002
1.189771e+003,1.293070e+002
1.190736e+003,1.312261e+002
1.191700e+003,1.283193e+002
1.192664e+003,1.266465e+002
1.193628e+003,1.280859e+002
1.194593e+003,1.299460e+002
1.195557e+003,1.306998e+002
1.196521e+003,1.301099e+002
1.197485e+003,1.276106e+002
1.198449e+003,1.230262e+002
1.199414e+003,1.172042e+002
1.200378e+003,1.100017e+002
1.201342e+003,1.023040e+002
1.202306e+003,9.338977e+001
1.203271e+003,8.420789e+001
1.204235e+003,7.682153e+001
1.205199e+003,7.229956e+001
1.206163e+003,6.968787e+001
1.207128e+003,6.746326e+001
1.208092e+003,6.580286e+001
1.209056e+003,6.069434e+001
1.210020e+003,5.143616e+001
1.210984e+003,4.109119e+001
1.211949e+003,2.883667e+001
1.212913e+003,1.666553e+001
1.213877e+003,7.689575e+000
1.214841e+003,2.210938e+000
1.215806e+003,-2.523804e+000
1.216770e+003,-7.689697e+000
1.217734e+003,-1.244910e+001
1.218698e+003,-1.615552e+001
1.219663e+003,-1.978833e+001
1.220627e+003,-2.455737e+001
1.221591e+003,-3.050073e+001
1.222555e+003,-3.699683e+001
1.223520e+003,-4.346533e+001
1.224484e+003,-4.890027e+001
1.225448e+003,-4.971338e+001
1.226412e+003,-4.273022e+001
1.227376e+003,-3.845911e+001
1.228341e+003,-3.802979e+001
1.229305e+003,-3.936328e+001
1.230269e+003,-4.206335e+001
1.231233e+003,-4.560461e+001
1.232198e+003,-4.905884e+001
1.233162e+003,-5.194043e+001
1.234126e+003,-5.372705e+001
1.235090e+003,-5.385559e+001
1.236055e+003,-5.372681e+001
1.237019e+003,-5.523669e+001
1.237983e+003,-5.779419e+001
1.238947e+003,-5.896082e+001
1.239911e+003,-5.744189e+001
1.240876e+003,-5.499939e+001
1.241840e+003,-5.468677e+001
1.242804e+003,-5.663391e+001
1.243768e+003,-5.760864e+001
1.244733e+003,-5.760181e+001
1.245697e+003,-5.638782e+001
1.246661e+003,-5.391882e+001
1.247625e+003,-5.143164e+001
1.248590e+003,-4.901123e+001
1.249554e+003,-4.662134e+001
1.250518e+003,-4.503430e+001
1.251482e+003,-4.502722e+001
1.252447e+003,-4.541016e+001
1.253411e+003,-4.424280e+001
1.254375e+003,-4.169067e+001
1.255339e+003,-3.884802e+001
1.256303e+003,-3.545984e+001
1.257268e+003,-3.070569e+001
1.258232e+003,-2.409351e+001
1.259196e+003,-1.740100e+001
1.260160e+003,-1.333350e+001
1.261125e+003,-1.171826e+001
1.262089e+003,-1.036328e+001
1.263053e+003,-1.057251e+001
1.264017e+003,-1.037585e+001
1.264982e+003,-9.422363e+000
1.265946e+003,-7.320190e+000
1.266910e+003,-2.366089e+000
1.267874e+003,4.180298e+000
1.268839e+003,8.404663e+000
1.269803e+003,7.726196e+000
1.270767e+003,3.822754e+000
1.271731e+003,-4.168701e-001
1.272695e+003,-4.678711e+000
1.273660e+003,-8.611206e+000
1.274624e+003,-1.336572e+001
1.275588e+003,-1.738269e+001
1.276552e+003,-1.846960e+001
1.277517e+003,-1.774292e+001
1.278481e+003,-1.767542e+001
1.279445e+003,-1.851599e+001
1.280409e+003,-2.132324e+001
1.281374e+003,-2.848254e+001
1.282338e+003,-3.470581e+001
1.283302e+003,-3.692920e+001
1.284266e+003,-3.718738e+001
1.285230e+003,-3.774414e+001
1.286195e+003,-3.903564e+001
1.287159e+003,-3.980432e+001
1.288123e+003,-3.874951e+001
1.289087e+003,-3.661206e+001
1.290052e+003,-3.692712e+001
1.291016e+003,-4.122009e+001
1.291980e+003,-4.432275e+001
1.292944e+003,-4.774500e+001
1.293909e+003,-4.930225e+001
1.294873e+003,-4.497144e+001
1.295837e+003,-3.909802e+001
1.296801e+003,-3.886743e+001
1.297766e+003,-4.475293e+001
1.298730e+003,-4.966101e+001
1.299694e+003,-4.994971e+001
1.300658e+003,-4.869519e+001
1.301622e+003,-4.886829e+001
1.302587e+003,-4.955176e+001
1.303551e+003,-4.970056e+001
1.304515e+003,-4.888428e+001
1.305479e+003,-4.696033e+001
1.306444e+003,-4.397681e+001
1.307408e+003,-4.051099e+001
1.308372e+003,-3.756250e+001
1.309336e+003,-3.497827e+001
1.310301e+003,-3.360486e+001
1.311265e+003,-3.267041e+001
1.312229e+003,-3.322095e+001
1.313193e+003,-3.608289e+001
1.314157e+003,-4.054016e+001
1.315122e+003,-4.784509e+001
1.316086e+003,-5.651123e+001
1.317050e+003,-6.060242e+001
1.318014e+003,-5.560828e+001
1.318979e+003,-4.671350e+001
1.319943e+003,-4.376477e+001
1.320907e+003,-4.579651e+001
1.321871e+003,-4.573804e+001
1.322836e+003,-4.371936e+001
1.323800e+003,-4.105750e+001
1.324764e+003,-3.763391e+001
1.325728e+003,-3.417151e+001
1.326693e+003,-3.218481e+001
1.327657e+003,-3.205737e+001
1.328621e+003,-3.301257e+001
1.329585e+003,-3.381763e+001
1.330549e+003,-3.402759e+001
1.331514e+003,-3.572681e+001
1.332478e+003,-3.763159e+001
1.333442e+003,-3.764905e+001
1.334406e+003,-3.580151e+001
1.335371e+003,-3.362305e+001
1.336335e+003,-3.208948e+001
1.337299e+003,-3.086560e+001
1.338263e+003,-2.941809e+001
1.339228e+003,-2.750439e+001
1.340192e+003,-2.746936e+001
1.341156e+003,-3.187549e+001
1.342120e+003,-3.433667e+001
1.343084e+003,-3.305603e+001
1.344049e+003,-3.138953e+001
1.345013e+003,-3.106519e+001
1.345977e+003,-3.197375e+001
1.346941e+003,-3.442578e+001
1.347906e+003,-3.876416e+001
1.348870e+003,-4.211890e+001
1.349834e+003,-4.185461e+001
1.350798e+003,-3.923621e+001
1.351763e+003,-3.559644e+001
1.352727e+003,-3.121509e+001
1.353691e+003,-2.868774e+001
1.354655e+003,-2.918457e+001
1.355620e+003,-3.068359e+001
1.356584e+003,-3.054907e+001
1.357548e+003,-2.886084e+001
1.358512e+003,-2.834155e+001
1.359476e+003,-3.058887e+001
1.360441e+003,-3.216699e+001
1.361405e+003,-3.032825e+001
1.362369e+003,-2.900049e+001
1.363333e+003,-3.073132e+001
1.364298e+003,-3.383862e+001
1.365262e+003,-3.568323e+001
1.366226e+003,-3.575562e+001
1.367190e+003,-3.587146e+001
1.368155e+003,-3.770447e+001
1.369119e+003,-4.010449e+001
1.370083e+003,-3.914758e+001
1.371047e+003,-3.328247e+001
1.372011e+003,-2.917993e+001
1.372976e+003,-2.780957e+001
1.373940e+003,-2.812012e+001
1.374904e+003,-3.129688e+001
1.375868e+003,-3.440967e+001
1.376833e+003,-3.309570e+001
1.377797e+003,-2.788684e+001
1.378761e+003,-2.420911e+001
1.379725e+003,-2.439001e+001
1.380690e+003,-2.601892e+001
1.381654e+003,-2.737268e+001
1.382618e+003,-2.799426e+001
1.383582e+003,-2.738599e+001
1.384547e+003,-2.552014e+001
1.385511e+003,-2.220020e+001
1.386475e+003,-1.708350e+001
1.387439e+003,-1.234387e+001
1.388403e+003,-1.158142e+001
1.389368e+003,-1.484729e+001
1.390332e+003,-1.750452e+001
1.391296e+003,-1.889722e+001
1.392260e+003,-1.990527e+001
1.393225e+003,-2.120422e+001
1.394189e+003,-2.203564e+001
1.395153e+003,-2.163000e+001
1.396117e+003,-2.056567e+001
1.397082e+003,-1.951550e+001
1.398046e+003,-1.865747e+001
1.399010e+003,-1.808521e+001
1.399974e+003,-1.826794e+001
1.400938e+003,-1.958215e+001
1.401903e+003,-2.136487e+001
1.402867e+003,-2.249878e+001
1.403831e+003,-2.112634e+001
1.404795e+003,-1.643079e+001
1.405760e+003,-1.199670e+001
1.406724e+003,-9.586304e+000
1.407688e+003,-9.746338e+000
1.408652e+003,-1.281079e+001
1.409617e+003,-1.745166e+001
1.410581e+003,-2.078601e+001
1.411545e+003,-2.182080e+001
1.412509e+003,-2.064160e+001
1.413474e+003,-1.589172e+001
1.414438e+003,-1.092346e+001
1.415402e+003,-1.050159e+001
1.416366e+003,-1.357813e+001
1.417330e+003,-1.645544e+001
1.418295e+003,-1.784229e+001
1.419259e+003,-1.797278e+001
1.420223e+003,-1.706384e+001
1.421187e+003,-1.566687e+001
1.422152e+003,-1.506165e+001
1.423116e+003,-1.520691e+001
1.424080e+003,-1.402454e+001
1.425044e+003,-9.324707e+000
1.426009e+003,-6.232544e+000
1.426973e+003,-8.624878e+000
1.427937e+003,-1.283386e+001
1.428901e+003,-1.448132e+001
1.429865e+003,-1.275964e+001
1.430830e+003,-9.133545e+000
1.431794e+003,-4.908813e+000
1.432758e+003,-7.790527e-001
1.433722e+003,2.658569e+000
1.434687e+003,6.297485e+000
1.435651e+003,9.843628e+000
1.436615e+003,1.103735e+001
1.437579e+003,1.128931e+001
1.438544e+003,1.039380e+001
1.439508e+003,9.479248e+000
1.440472e+003,9.577759e+000
1.441436e+003,1.089001e+001
1.442401e+003,1.352881e+001
1.443365e+003,1.709851e+001
1.444329e+003,1.995972e+001
1.445293e+003,2.120361e+001
1.446257e+003,2.098865e+001
1.447222e+003,1.824414e+001
1.448186e+003,1.361194e+001
1.449150e+003,1.162097e+001
1.450114e+003,1.318506e+001
1.451079e+003,1.433582e+001
1.452043e+003,1.279175e+001
1.453007e+003,1.073853e+001
1.453971e+003,1.123718e+001
1.454936e+003,1.359680e+001
1.455900e+003,1.403149e+001
1.456864e+003,1.144421e+001
1.457828e+003,9.199097e+000
1.458792e+003,9.218506e+000
1.459757e+003,9.583740e+000
1.460721e+003,8.424316e+000
1.461685e+003,6.516113e+000
1.462649e+003,6.252197e+000
1.463614e+003,8.229004e+000
1.464578e+003,9.401733e+000
1.465542e+003,6.414673e+000
1.466506e+003,1.095215e+000
1.467471e+003,7.470703e-002
1.468435e+003,5.342407e+000
1.469399e+003,8.385620e+000
1.470363e+003,3.581909e+000
1.471328e+003,2.572632e+000
1.472292e+003,1.218042e+001
1.473256e+003,2.105408e+001
1.474220e+003,2.051733e+001
1.475184e+003,1.441406e+001
1.476149e+003,1.041638e+001
1.477113e+003,1.082202e+001
1.478077e+003,1.277185e+001
1.479041e+003,1.405017e+001
1.480006e+003,1.522510e+001
1.480970e+003,1.683411e+001
1.481934e+003,1.824902e+001
1.482898e+003,1.998792e+001
1.483863e+003,2.143567e+001
1.484827e+003,2.371509e+001
1.485791e+003,2.838818e+001
1.486755e+003,3.396118e+001
1.487719e+003,3.914758e+001
1.488684e+003,4.333228e+001
1.489648e+003,4.572046e+001
1.490612e+003,4.645654e+001
1.491576e+003,4.800037e+001
1.492541e+003,5.225415e+001
1.493505e+003,5.794446e+001
1.494469e+003,6.198975e+001
1.495433e+003,6.425281e+001
1.496398e+003,6.875293e+001
1.497362e+003,7.776526e+001
1.498326e+003,8.665186e+001
1.499290e+003,9.121533e+001
1.500255e+003,9.533630e+001
1.501219e+003,1.045447e+002
1.502183e+003,1.179832e+002
1.503147e+003,1.304268e+002
1.504111e+003,1.400123e+002
1.505076e+003,1.523199e+002
1.506040e+003,1.713662e+002
1.507004e+003,1.942549e+002
1.507968e+003,2.182322e+002
1.508933e+003,2.433896e+002
1.509897e+003,2.699203e+002
1.510861e+003,2.988359e+002
1.511825e+003,3.309928e+002
1.512790e+003,3.658600e+002
1.513754e+003,4.041807e+002
1.514718e+003,4.488679e+002
1.515682e+003,4.992607e+002
1.516646e+003,5.520133e+002
1.517611e+003,6.110403e+002
1.518575e+003,6.641448e+002
1.519539e+003,7.075717e+002
1.520503e+003,7.453795e+002
1.521468e+003,7.818964e+002
1.522432e+003,8.122986e+002
1.523396e+003,8.300509e+002
1.524360e+003,8.343091e+002
1.525325e+003,8.282872e+002
1.526289e+003,8.142943e+002
1.527253e+003,7.943182e+002
1.528217e+003,7.717793e+002
1.529182e+003,7.472805e+002
1.530146e+003,7.156176e+002
1.531110e+003,6.764365e+002
1.532074e+003,6.288711e+002
1.533039e+003,5.663911e+002
1.534003e+003,5.013274e+002
1.534967e+003,4.389237e+002
1.535931e+003,3.796921e+002
1.536896e+003,3.209611e+002
1.537860e+003,2.651301e+002
1.538824e+003,2.191346e+002
1.539788e+003,1.859531e+002
1.540752e+003,1.605361e+002
1.541717e+003,1.367224e+002
1.542681e+003,1.152942e+002
1.543645e+003,9.844800e+001
1.544609e+003,8.748645e+001
1.545573e+003,8.032813e+001
1.546538e+003,7.771912e+001
1.547502e+003,7.591614e+001
1.548466e+003,7.433386e+001
1.549430e+003,7.394250e+001
1.550395e+003,7.619128e+001
1.551359e+003,7.963806e+001
1.552323e+003,8.097583e+001
1.553287e+003,7.917798e+001
1.554252e+003,7.618018e+001
1.555216e+003,7.393530e+001
1.556180e+003,7.056519e+001
1.557144e+003,6.032751e+001
1.558109e+003,4.324634e+001
1.559073e+003,3.264050e+001
1.560037e+003,3.016943e+001
1.561001e+003,2.922375e+001
1.561966e+003,2.859656e+001
1.562930e+003,2.940210e+001
1.563894e+003,3.276953e+001
1.564858e+003,3.755957e+001
1.565823e+003,4.192188e+001
1.566787e+003,4.527783e+001
1.567751e+003,4.621509e+001
1.568715e+003,4.337903e+001
1.569679e+003,4.033899e+001
1.570644e+003,4.208423e+001
1.571608e+003,4.628003e+001
1.572572e+003,4.705566e+001
1.573536e+003,4.458411e+001
1.574500e+003,4.285364e+001
1.575465e+003,4.272192e+001
1.576429e+003,4.387097e+001
1.577393e+003,4.674243e+001
1.578357e+003,5.001355e+001
1.579322e+003,5.085754e+001
1.580286e+003,4.961963e+001
1.581250e+003,5.113428e+001
1.582214e+003,5.790808e+001
1.583179e+003,6.368457e+001
1.584143e+003,6.293457e+001
1.585107e+003,5.877429e+001
1.586071e+003,5.568933e+001
1.587036e+003,5.426843e+001
1.588000e+003,5.400989e+001
1.588964e+003,5.429285e+001
1.589928e+003,5.622339e+001
1.590893e+003,6.214722e+001
1.591857e+003,6.880054e+001
1.592821e+003,7.021265e+001
1.593785e+003,6.770874e+001
1.594750e+003,6.884424e+001
1.595714e+003,7.487866e+001
1.596678e+003,8.034253e+001
1.597642e+003,8.344055e+001
1.598606e+003,8.487280e+001
1.599571e+003,8.423499e+001
1.600535e+003,8.337366e+001
1.601499e+003,8.509827e+001
1.602463e+003,8.878638e+001
1.603427e+003,9.077124e+001
1.604392e+003,8.934863e+001
1.605356e+003,8.808948e+001
1.606320e+003,9.192090e+001
1.607284e+003,9.835803e+001
1.608249e+003,9.972266e+001
1.609213e+003,9.582910e+001
1.610177e+003,9.237378e+001
1.611141e+003,9.025842e+001
1.612106e+003,8.876160e+001
1.613070e+003,8.802893e+001
1.614034e+003,8.720667e+001
1.614998e+003,8.596545e+001
1.615963e+003,8.415417e+001
1.616927e+003,8.033398e+001
1.617891e+003,7.489771e+001
1.618855e+003,7.235718e+001
1.619820e+003,7.560669e+001
1.620784e+003,7.990454e+001
1.621748e+003,7.866650e+001
1.622712e+003,7.398596e+001
1.623677e+003,7.405505e+001
1.624641e+003,7.988110e+001
1.625605e+003,8.536353e+001
1.626569e+003,8.796936e+001
1.627533e+003,8.889771e+001
1.628498e+003,8.927087e+001
1.629462e+003,8.932654e+001
1.630426e+003,8.854883e+001
1.631390e+003,8.746411e+001
1.632354e+003,8.751477e+001
1.633319e+003,8.885083e+001
1.634283e+003,8.987390e+001
1.635247e+003,8.926062e+001
1.636211e+003,8.769983e+001
1.637176e+003,8.674841e+001
1.638140e+003,8.663464e+001
1.639104e+003,8.650757e+001
1.640068e+003,8.604626e+001
1.641033e+003,8.552112e+001
1.641997e+003,8.501208e+001
1.642961e+003,8.509399e+001
1.643925e+003,8.552930e+001
1.644890e+003,8.689063e+001
1.645854e+003,9.075208e+001
1.646818e+003,9.566333e+001
1.647782e+003,9.812573e+001
1.648747e+003,9.707666e+001
1.649711e+003,9.445276e+001
1.650675e+003,9.176404e+001
1.651639e+003,8.998120e+001
1.652604e+003,9.079175e+001
1.653568e+003,9.373706e+001
1.654532e+003,9.560217e+001
1.655496e+003,9.646716e+001
1.656460e+003,9.541370e+001
1.657425e+003,9.179443e+001
1.658389e+003,8.715149e+001
1.659353e+003,8.039221e+001
1.660317e+003,7.442395e+001
1.661281e+003,7.333215e+001
1.662246e+003,7.552966e+001
1.663210e+003,7.608313e+001
1.664174e+003,7.361743e+001
1.665138e+003,7.082715e+001
1.666103e+003,6.970117e+001
1.667067e+003,6.934924e+001
1.668031e+003,6.882703e+001
1.668995e+003,6.817590e+001
1.669960e+003,6.509351e+001
1.670924e+003,5.843433e+001
1.671888e+003,5.443811e+001
1.672852e+003,5.646960e+001
1.673817e+003,5.884778e+001
1.674781e+003,5.658228e+001
1.675745e+003,5.365112e+001
1.676709e+003,5.571130e+001
1.677674e+003,6.094812e+001
1.678638e+003,6.251819e+001
1.679602e+003,5.833923e+001
1.680566e+003,5.325024e+001
1.681531e+003,5.134875e+001
1.682495e+003,5.105066e+001
1.683459e+003,4.865381e+001
1.684423e+003,4.434583e+001
1.685387e+003,4.177661e+001
1.686352e+003,4.170728e+001
1.687316e+003,4.134412e+001
1.688280e+003,3.925354e+001
1.689244e+003,3.763525e+001
1.690208e+003,3.809314e+001
1.691173e+003,3.961365e+001
1.692137e+003,4.254932e+001
1.693101e+003,4.624231e+001
1.694065e+003,4.712427e+001
1.695030e+003,4.371204e+001
1.695994e+003,3.941541e+001
1.696958e+003,3.612695e+001
1.697922e+003,3.394092e+001
1.698887e+003,3.366919e+001
1.699851e+003,3.461047e+001
1.700815e+003,3.382324e+001
1.701779e+003,3.083557e+001
1.702744e+003,2.804211e+001
1.703708e+003,2.663916e+001
1.704672e+003,2.659607e+001
1.705636e+003,2.806934e+001
1.706601e+003,2.905640e+001
1.707565e+003,2.664819e+001
1.708529e+003,2.254761e+001
1.709493e+003,2.105334e+001
1.710458e+003,2.278943e+001
1.711422e+003,2.492346e+001
1.712386e+003,2.832141e+001
1.713350e+003,3.022205e+001
1.714314e+003,2.651367e+001
1.715279e+003,1.988623e+001
1.716243e+003,1.456726e+001
1.717207e+003,1.124353e+001
1.718171e+003,1.079980e+001
1.719135e+003,1.358875e+001
1.720100e+003,1.769653e+001
1.721064e+003,2.242297e+001
1.722028e+003,2.521191e+001
1.722992e+003,2.209875e+001
1.723957e+003,1.481335e+001
1.724921e+003,9.641602e+000
1.725885e+003,5.394531e+000
1.726849e+003,3.759033e+000
1.727814e+003,8.865601e+000
1.728778e+003,1.351208e+001
1.729742e+003,1.311096e+001
1.730706e+003,1.181506e+001
1.731671e+003,1.404028e+001
1.732635e+003,1.738599e+001
1.733599e+003,1.781482e+001
1.734563e+003,1.512964e+001
1.735528e+003,1.009509e+001
1.736492e+003,2.875366e+000
1.737456e+003,-2.620361e+000
1.738420e+003,-1.336670e+000
1.739385e+003,4.068359e+000
1.740349e+003,5.401855e+000
1.741313e+003,2.134644e+000
1.742277e+003,-3.735352e-001
1.743241e+003,-2.868164e+000
1.744206e+003,-2.619141e+000
1.745170e+003,4.174194e+000
1.746134e+003,9.195557e+000
1.747098e+003,4.853638e+000
1.748063e+003,-1.580200e+000
1.749027e+003,-1.635742e-002
1.749991e+003,7.284546e+000
1.750955e+003,1.084753e+001
1.751919e+003,7.653687e+000
1.752884e+003,2.938599e+000
1.753848e+003,1.032959e+000
1.754812e+003,3.902588e-001
1.755776e+003,-1.853394e+000
1.756741e+003,-5.101196e+000
1.757705e+003,-5.733521e+000
1.758669e+003,-2.915527e+000
1.759633e+003,-1.323364e+000
1.760598e+003,-3.119995e+000
1.761562e+003,-4.597412e+000
1.762526e+003,-3.216797e+000
1.763490e+003,-1.557861e+000
1.764455e+003,-1.630493e+000
1.765419e+003,-2.407715e+000
1.766383e+003,-2.775513e+000
1.767347e+003,-2.593750e+000
1.768312e+003,-1.381958e+000
1.769276e+003,9.609375e-001
1.770240e+003,3.138550e+000
1.771204e+003,5.267578e+000
1.772168e+003,6.572998e+000
1.773133e+003,2.312744e+000
1.774097e+003,-6.554443e+000
1.775061e+003,-9.251709e+000
1.776025e+003,-4.438232e+000
1.776990e+003,8.764648e-002
1.777954e+003,3.001343e+000
1.778918e+003,4.162231e+000
1.779882e+003,1.276978e+000
1.780846e+003,-2.739380e+000
1.781811e+003,-2.769775e+000
1.782775e+003,3.979492e-002
1.783739e+003,1.176392e+000
1.784703e+003,1.220703e-002
1.785668e+003,-4.744873e-001
1.786632e+003,1.026245e+000
1.787596e+003,2.063965e+000
1.788560e+003,1.000000e+000
1.789525e+003,-2.265625e-001
1.790489e+003,3.345947e-001
1.791453e+003,2.177856e+000
1.792417e+003,4.724731e+000
1.793382e+003,7.567383e+000
1.794346e+003,8.369751e+000
1.795310e+003,5.736572e+000
1.796274e+003,1.200684e+000
1.797239e+003,-3.609985e+000
1.798203e+003,-7.248291e+000
1.799167e+003,-6.904419e+000
1.800131e+003,-2.852661e+000
1.801095e+003,-9.788818e-001
1.802060e+003,-1.333252e+000
1.803024e+003,-1.374390e+000
1.803988e+003,-2.293457e+000
1.804952e+003,-1.895020e+000
1.805917e+003,2.951660e+000
1.806881e+003,7.803467e+000
1.807845e+003,8.113770e+000
1.808809e+003,5.257202e+000
1.809773e+003,2.119019e+000
1.810738e+003,-1.339111e-001
1.811702e+003,-6.953125e-001
1.812666e+003,8.200684e-001
1.813630e+003,2.521362e+000
1.814595e+003,1.635864e+000
1.815559e+003,-1.029785e+000
1.816523e+003,-1.224121e+000
1.817487e+003,1.485840e+000
1.818452e+003,3.439941e+000
1.819416e+003,5.209717e+000
1.820380e+003,5.485840e+000
1.821344e+003,1.496216e+000
1.822309e+003,-1.757446e+000
1.823273e+003,-6.982422e-002
1.824237e+003,3.541138e+000
1.825201e+003,5.897461e+000
1.826166e+003,7.102661e+000
1.827130e+003,8.367676e+000
1.828094e+003,9.692505e+000
1.829058e+003,1.013428e+001
1.830022e+003,9.402100e+000
1.830987e+003,8.288696e+000
1.831951e+003,7.926880e+000
1.832915e+003,7.260010e+000
1.833879e+003,3.437012e+000
1.834844e+003,-1.916870e+000
1.835808e+003,-3.299683e+000
1.836772e+003,-1.701660e-001
1.837736e+003,2.827637e+000
1.838700e+003,3.398315e+000
1.839665e+003,3.718628e+000
1.840629e+003,6.241821e+000
1.841593e+003,9.496826e+000
1.842557e+003,9.773315e+000
1.843522e+003,7.096924e+000
1.844486e+003,5.504883e+000
1.845450e+003,6.849609e+000
1.846414e+003,7.089844e+000
1.847379e+003,3.046753e+000
1.848343e+003,4.453125e-001
1.849307e+003,2.901489e+000
1.850271e+003,5.964722e+000
1.851236e+003,6.663086e+000
1.852200e+003,6.295288e+000
1.853164e+003,6.600464e+000
1.854128e+003,6.954834e+000
1.855093e+003,5.469727e+000
1.856057e+003,2.173096e+000
1.857021e+003,-2.916260e-001
1.857985e+003,-7.055664e-002
1.858949e+003,2.013550e+000
1.859914e+003,5.810181e+000
1.860878e+003,1.070117e+001
1.861842e+003,1.165100e+001
1.862806e+003,8.323975e+000
1.863771e+003,6.447998e+000
1.864735e+003,6.827271e+000
1.865699e+003,8.262451e+000
1.866663e+003,1.132068e+001
1.867627e+003,1.424805e+001
1.868592e+003,1.543457e+001
1.869556e+003,1.442603e+001
1.870520e+003,1.015100e+001
1.871484e+003,3.416870e+000
1.872449e+003,1.989746e-001
1.873413e+003,3.035034e+000
1.874377e+003,8.001099e+000
1.875341e+003,1.488196e+001
1.876306e+003,1.976160e+001
1.877270e+003,1.970959e+001
1.878234e+003,1.706836e+001
1.879198e+003,1.288306e+001
1.880163e+003,8.988403e+000
1.881127e+003,8.997803e+000
1.882091e+003,1.229846e+001
1.883055e+003,1.412793e+001
1.884020e+003,1.261230e+001
1.884984e+003,1.090979e+001
1.885948e+003,1.195447e+001
1.886912e+003,1.434668e+001
1.887876e+003,1.530542e+001
1.888841e+003,1.504761e+001
1.889805e+003,1.544775e+001
1.890769e+003,1.659058e+001
1.891733e+003,1.796094e+001
1.892698e+003,1.916052e+001
1.893662e+003,2.043909e+001
1.894626e+003,2.331592e+001
1.895590e+003,2.480005e+001
1.896554e+003,2.137549e+001
1.897519e+003,1.705994e+001
1.898483e+003,1.624756e+001
1.899447e+003,1.789966e+001
1.900411e+003,1.993542e+001
1.901376e+003,2.236938e+001
1.902340e+003,2.256531e+001
1.903304e+003,1.739453e+001
1.904268e+003,1.290271e+001
1.905233e+003,1.328931e+001
1.906197e+003,1.604639e+001
1.907161e+003,1.923730e+001
1.908125e+003,2.278076e+001
1.909090e+003,2.743811e+001
1.910054e+003,3.188806e+001
1.911018e+003,3.170837e+001
1.911982e+003,2.644275e+001
1.912947e+003,2.276550e+001
1.913911e+003,2.541541e+001
1.914875e+003,3.006226e+001
1.915839e+003,2.962231e+001
1.916803e+003,2.495435e+001
1.917768e+003,2.266199e+001
1.918732e+003,2.348938e+001
1.919696e+003,2.435413e+001
1.920660e+003,2.549951e+001
1.921625e+003,2.679346e+001
1.922589e+003,2.769153e+001
1.923553e+003,2.877979e+001
1.924517e+003,3.075891e+001
1.925481e+003,3.285828e+001
1.926446e+003,3.483459e+001
1.927410e+003,3.633545e+001
1.928374e+003,3.673230e+001
1.929338e+003,3.559924e+001
1.930303e+003,3.212866e+001
1.931267e+003,2.544568e+001
1.932231e+003,2.132629e+001
1.933195e+003,2.297815e+001
1.934160e+003,2.610852e+001
1.935124e+003,2.826794e+001
1.936088e+003,2.928271e+001
1.937052e+003,2.925610e+001
1.938017e+003,2.887476e+001
1.938981e+003,2.865198e+001
1.939945e+003,2.877930e+001
1.940909e+003,2.982739e+001
1.941874e+003,3.180383e+001
1.942838e+003,3.334387e+001
1.943802e+003,3.360242e+001
1.944766e+003,3.386511e+001
1.945730e+003,3.594397e+001
1.946695e+003,3.904041e+001
1.947659e+003,3.948694e+001
1.948623e+003,3.691980e+001
1.949587e+003,3.403247e+001
1.950552e+003,3.107361e+001
1.951516e+003,2.908301e+001
1.952480e+003,2.806738e+001
1.953444e+003,2.888770e+001
1.954408e+003,3.387732e+001
1.955373e+003,3.863965e+001
1.956337e+003,3.569739e+001
1.957301e+003,2.850134e+001
1.958265e+003,2.801294e+001
1.959230e+003,3.554126e+001
1.960194e+003,4.119543e+001
1.961158e+003,4.322278e+001
1.962122e+003,4.203125e+001
1.963087e+003,3.383459e+001
1.964051e+003,2.744861e+001
1.965015e+003,2.902478e+001
1.965979e+003,3.488623e+001
1.966944e+003,4.339038e+001
1.967908e+003,5.095483e+001
1.968872e+003,5.146631e+001
1.969836e+003,4.616431e+001
1.970801e+003,4.332483e+001
1.971765e+003,4.642932e+001
1.972729e+003,5.108789e+001
1.973693e+003,5.395117e+001
1.974657e+003,5.508508e+001
1.975622e+003,5.366077e+001
1.976586e+003,5.053296e+001
1.977550e+003,4.861292e+001
1.978514e+003,4.797729e+001
1.979479e+003,4.719568e+001
1.980443e+003,4.603931e+001
1.981407e+003,4.667761e+001
1.982371e+003,5.024622e+001
1.983335e+003,5.382556e+001
1.984300e+003,5.491418e+001
1.985264e+003,5.430493e+001
1.986228e+003,5.342212e+001
1.987192e+003,5.242029e+001
1.988157e+003,5.225171e+001
1.989121e+003,5.342517e+001
1.990085e+003,5.394763e+001
1.991049e+003,5.392151e+001
1.992014e+003,5.368640e+001
1.992978e+003,5.223926e+001
1.993942e+003,5.139148e+001
1.994906e+003,5.289026e+001
1.995871e+003,5.409631e+001
1.996835e+003,5.206689e+001
1.997799e+003,4.947839e+001
1.998763e+003,5.039429e+001
1.999728e+003,5.400818e+001
