5.003444e+002,3.790808e+001
5.013087e+002,3.887744e+001
5.022729e+002,4.008124e+001
5.032371e+002,4.143945e+001
5.042014e+002,4.221616e+001
5.051656e+002,4.249530e+001
5.061298e+002,4.225165e+001
5.070941e+002,4.134030e+001
5.080583e+002,3.944479e+001
5.090225e+002,3.811194e+001
5.099868e+002,3.810608e+001
5.109510e+002,3.769806e+001
5.119152e+002,3.534747e+001
5.128795e+002,3.080463e+001
5.138437e+002,2.812213e+001
5.148079e+002,3.057776e+001
5.157722e+002,3.349731e+001
5.167364e+002,3.513843e+001
5.177006e+002,3.511301e+001
5.186649e+002,3.412558e+001
5.196291e+002,3.254196e+001
5.205933e+002,3.115701e+001
5.215576e+002,3.078320e+001
5.225218e+002,3.127115e+001
5.234860e+002,3.195404e+001
5.244503e+002,3.182535e+001
5.254145e+002,3.081409e+001
5.263787e+002,3.005084e+001
5.273430e+002,2.971011e+001
5.283072e+002,2.949854e+001
5.292714e+002,2.893848e+001
5.302357e+002,2.760229e+001
5.311999e+002,2.620898e+001
5.321641e+002,2.512088e+001
5.331284e+002,2.423251e+001
5.340926e+002,2.319916e+001
5.350568e+002,2.175241e+001
5.360211e+002,2.070090e+001
5.369853e+002,2.151553e+001
5.379495e+002,2.296692e+001
5.389138e+002,2.417279e+001
5.398780e+002,2.467511e+001
5.408422e+002,2.445181e+001
5.418065e+002,2.310913e+001
5.427707e+002,2.086536e+001
5.437349e+002,1.939438e+001
5.446992e+002,1.923831e+001
5.456634e+002,2.003598e+001
5.466276e+002,2.058673e+001
5.475919e+002,2.099051e+001
5.485561e+002,2.106860e+001
5.495203e+002,2.048306e+001
5.504846e+002,1.953806e+001
5.514488e+002,1.878040e+001
5.524130e+002,1.867325e+001
5.533773e+002,1.839951e+001
5.543415e+002,1.699875e+001
5.553057e+002,1.550122e+001
5.562700e+002,1.515152e+001
5.572342e+002,1.667053e+001
5.581984e+002,1.892734e+001
5.591627e+002,1.929047e+001
5.601269e+002,1.847998e+001
5.610911e+002,1.760608e+001
5.620554e+002,1.719855e+001
5.630196e+002,1.707492e+001
5.639838e+002,1.616211e+001
5.649481e+002,1.349344e+001
5.659123e+002,1.146054e+001
5.668765e+002,1.111993e+001
5.678408e+002,1.196243e+001
5.688050e+002,1.212833e+001
5.697692e+002,9.519623e+000
5.707335e+002,8.091370e+000
5.716977e+002,1.043143e+001
5.726619e+002,1.426157e+001
5.736262e+002,1.636447e+001
5.745904e+002,1.434116e+001
5.755546e+002,1.087436e+001
5.765189e+002,1.010889e+001
5.774831e+002,1.093732e+001
5.784473e+002,1.183096e+001
5.794116e+002,1.182321e+001
5.803758e+002,1.106882e+001
5.813400e+002,9.893127e+000
5.823043e+002,7.713623e+000
5.832685e+002,5.995026e+000
5.842327e+002,5.853424e+000
5.851970e+002,7.065643e+000
5.861612e+002,7.412109e+000
5.871254e+002,4.678558e+000
5.880897e+002,2.971802e+000
5.890539e+002,3.702454e+000
5.900181e+002,5.767090e+000
5.909824e+002,7.316162e+000
5.919466e+002,7.176971e+000
5.929108e+002,6.354126e+000
5.938751e+002,6.114258e+000
5.948393e+002,6.091400e+000
5.958035e+002,5.494995e+000
5.967678e+002,3.801727e+000
5.977320e+002,1.479279e+000
5.986962e+002,2.414215e+000
5.996605e+002,6.533997e+000
6.006247e+002,9.612396e+000
6.015889e+002,9.195831e+000
6.025532e+002,5.592712e+000
6.035174e+002,3.172821e+000
6.044816e+002,2.846558e+000
6.054459e+002,2.956482e+000
6.064101e+002,3.717133e+000
6.073743e+002,4.680481e+000
6.083386e+002,5.097229e+000
6.093028e+002,4.356262e+000
6.102670e+002,3.540100e+000
6.112313e+002,3.343292e+000
6.121955e+002,3.595459e+000
6.131597e+002,4.256683e+000
6.141240e+002,5.263214e+000
6.150882e+002,6.280731e+000
6.160524e+002,5.440186e+000
6.170167e+002,3.170685e+000
6.179809e+002,1.802063e+000
6.189451e+002,2.686523e+000
6.199094e+002,5.310913e+000
6.208736e+002,6.326233e+000
6.218378e+002,3.773590e+000
6.228021e+002,2.134552e+000
6.237663e+002,2.216125e+000
6.247305e+002,3.390381e+000
6.256948e+002,4.652985e+000
6.266590e+002,5.756195e+000
6.276232e+002,6.120056e+000
6.285875e+002,5.153381e+000
6.295517e+002,3.860748e+000
6.305159e+002,3.441803e+000
6.314802e+002,4.434357e+000
6.324444e+002,5.886230e+000
6.334086e+002,4.738403e+000
6.343729e+002,2.058746e+000
6.353371e+002,6.052856e-001
6.363013e+002,1.545837e+000
6.372656e+002,3.970062e+000
6.382298e+002,4.736542e+000
6.391940e+002,1.759216e+000
6.401583e+002,-3.863220e-001
6.411225e+002,-1.263763e+000
6.420867e+002,-1.152344e+000
6.430510e+002,-1.686707e-001
6.440152e+002,2.068604e+000
6.449794e+002,3.141357e+000
6.459437e+002,5.497131e-001
6.469079e+002,-2.588104e+000
6.478721e+002,-3.365814e+000
6.488364e+002,-9.955139e-001
6.498006e+002,2.268738e+000
6.507648e+002,1.907288e+000
6.517291e+002,-7.567444e-001
6.526933e+002,-2.265625e+000
6.536575e+002,-1.932037e+000
6.546218e+002,-8.498230e-001
6.555860e+002,-1.206818e+000
6.565502e+002,-4.486023e+000
6.575145e+002,-5.945038e+000
6.584787e+002,-4.640411e+000
6.594429e+002,-2.519592e+000
6.604072e+002,-1.031708e+000
6.613714e+002,-4.047852e-001
6.623356e+002,1.298828e-001
6.632999e+002,1.082947e+000
6.642641e+002,1.709351e+000
6.652283e+002,1.377625e+000
6.661926e+002,3.768616e-001
6.671568e+002,-2.461853e-001
6.681210e+002,9.446716e-001
6.690853e+002,3.025269e+000
6.700495e+002,3.808167e+000
6.710137e+002,3.282959e+000
6.719780e+002,1.994446e+000
6.729422e+002,3.860474e-001
6.739064e+002,-1.796814e+000
6.748707e+002,-2.971832e+000
6.758349e+002,-2.861511e+000
6.767991e+002,-2.472595e+000
6.777634e+002,-2.206604e+000
6.787276e+002,-1.878174e+000
6.796918e+002,-7.406006e-001
6.806561e+002,2.865662e+000
6.816203e+002,5.402985e+000
6.825845e+002,4.948944e+000
6.835488e+002,2.623932e+000
6.845130e+002,3.281250e-001
6.854772e+002,-5.022583e-001
6.864415e+002,-4.378052e-001
6.874057e+002,-1.349274e+000
6.883699e+002,-2.957458e+000
6.893342e+002,-4.004456e+000
6.902984e+002,-3.697937e+000
6.912626e+002,-2.213898e+000
6.922269e+002,-1.119843e+000
6.931911e+002,-4.075012e-001
6.941553e+002,3.674927e-001
6.951196e+002,9.106750e-001
6.960838e+002,1.355042e+000
6.970480e+002,2.336456e+000
6.980123e+002,4.862549e+000
6.989765e+002,5.734894e+000
6.999407e+002,2.361053e+000
7.009050e+002,-1.911713e+000
7.018692e+002,-4.384064e+000
7.028334e+002,-4.211182e+000
7.037977e+002,-2.891266e+000
7.047619e+002,-2.545135e+000
7.057261e+002,-2.645111e+000
7.066904e+002,-2.207672e+000
7.076546e+002,-1.095947e+000
7.086188e+002,-3.555298e-002
7.095831e+002,-3.038025e-001
7.105473e+002,-2.913391e+000
7.115115e+002,-3.785583e+000
7.124758e+002,-1.605042e+000
7.134400e+002,5.314941e-001
7.144042e+002,2.904663e-001
7.153685e+002,-2.244049e+000
7.163327e+002,-3.466736e+000
7.172969e+002,1.062958e+000
7.182612e+002,4.650726e+000
7.192254e+002,3.456329e+000
7.201896e+002,-9.494324e-001
7.211539e+002,-4.889893e+000
7.221181e+002,-5.245392e+000
7.230823e+002,-3.304352e+000
7.240466e+002,-2.920074e+000
7.250108e+002,-3.564117e+000
7.259750e+002,-3.539642e+000
7.269393e+002,-1.809631e+000
7.279035e+002,1.093170e+000
7.288677e+002,2.125000e+000
7.298320e+002,-7.264709e-001
7.307962e+002,-2.308319e+000
7.317604e+002,-1.570923e+000
7.327247e+002,3.746338e-001
7.336889e+002,1.899841e+000
7.346531e+002,2.311798e+000
7.356174e+002,2.207703e+000
7.365816e+002,2.637695e+000
7.375458e+002,2.884827e+000
7.385101e+002,1.985596e+000
7.394743e+002,-6.408691e-002
7.404385e+002,-2.119629e+000
7.414028e+002,-2.347717e+000
7.423670e+002,-1.453400e+000
7.433312e+002,-1.377197e+000
7.442955e+002,-2.036072e+000
7.452597e+002,-2.878235e+000
7.462239e+002,-3.559998e+000
7.471882e+002,-4.359253e+000
7.481524e+002,-3.976624e+000
7.491166e+002,-2.045593e+000
7.500809e+002,-6.530762e-002
7.510451e+002,1.837189e+000
7.520093e+002,3.398956e+000
7.529736e+002,3.936859e+000
7.539378e+002,2.851349e+000
7.549020e+002,1.430786e+000
7.558663e+002,2.135315e-001
7.568306e+002,-7.148132e-001
7.577948e+002,-1.357239e+000
7.587590e+002,-1.755096e+000
7.597233e+002,-1.921448e+000
7.606875e+002,-1.297943e+000
7.616517e+002,1.082764e-001
7.626160e+002,1.165466e+000
7.635802e+002,1.529327e+000
7.645444e+002,1.523102e+000
7.655087e+002,1.747375e+000
7.664729e+002,2.186432e+000
7.674371e+002,2.819702e+000
7.684014e+002,4.365082e+000
7.693656e+002,5.414368e+000
7.703298e+002,4.708221e+000
7.712941e+002,2.320099e+000
7.722583e+002,1.387634e-001
7.732225e+002,-1.217041e-001
7.741868e+002,4.492188e-002
7.751510e+002,-7.865295e-001
7.761152e+002,-2.213928e+000
7.770795e+002,-3.119873e+000
7.780437e+002,-2.532196e+000
7.790079e+002,-6.807251e-001
7.799722e+002,1.196259e+000
7.809364e+002,3.332581e+000
7.819006e+002,4.416870e+000
7.828649e+002,3.353790e+000
7.838291e+002,9.946899e-001
7.847933e+002,-2.792358e-002
7.857576e+002,9.330750e-001
7.867218e+002,1.892853e+000
7.876860e+002,3.299988e+000
7.886503e+002,4.324707e+000
7.896145e+002,3.632050e+000
7.905787e+002,1.113831e+000
7.915430e+002,-7.073364e-001
7.925072e+002,1.993134e+000
7.934714e+002,5.953186e+000
7.944357e+002,7.812836e+000
7.953999e+002,7.515808e+000
7.963641e+002,6.428192e+000
7.973284e+002,5.983704e+000
7.982926e+002,6.214813e+000
7.992568e+002,6.735382e+000
8.002211e+002,7.704803e+000
8.011853e+002,7.925964e+000
8.021495e+002,6.826935e+000
8.031138e+002,5.047485e+000
8.040780e+002,4.155182e+000
8.050422e+002,4.653076e+000
8.060065e+002,5.235718e+000
8.069707e+002,5.353210e+000
8.079349e+002,5.205261e+000
8.088992e+002,5.049011e+000
8.098634e+002,5.053192e+000
8.108276e+002,5.254150e+000
8.117919e+002,5.772339e+000
8.127561e+002,6.048615e+000
8.137203e+002,5.379120e+000
8.146846e+002,3.878021e+000
8.156488e+002,2.277985e+000
8.166130e+002,1.400269e+000
8.175773e+002,1.398163e+000
8.185415e+002,8.595886e-001
8.195057e+002,-1.513306e+000
8.204700e+002,-3.073425e+000
8.214342e+002,-2.587189e+000
8.223984e+002,-5.960693e-001
8.233627e+002,1.396606e+000
8.243269e+002,2.875000e+000
8.252911e+002,4.510101e+000
8.262554e+002,7.290497e+000
8.272196e+002,1.003970e+001
8.281838e+002,1.138272e+001
8.291481e+002,1.091098e+001
8.301123e+002,9.471558e+000
8.310765e+002,8.468292e+000
8.320408e+002,7.842712e+000
8.330050e+002,7.173492e+000
8.339692e+002,6.465149e+000
8.349335e+002,5.794525e+000
8.358977e+002,5.346008e+000
8.368619e+002,5.262878e+000
8.378262e+002,5.040466e+000
8.387904e+002,3.955475e+000
8.397546e+002,3.280975e+000
8.407189e+002,3.593719e+000
8.416831e+002,4.503021e+000
8.426473e+002,5.306213e+000
8.436116e+002,5.696533e+000
8.445758e+002,6.028076e+000
8.455400e+002,6.418945e+000
8.465043e+002,6.744965e+000
8.474685e+002,7.361115e+000
8.484327e+002,8.340576e+000
8.493970e+002,9.051453e+000
8.503612e+002,8.164917e+000
8.513254e+002,5.213806e+000
8.522897e+002,3.353027e+000
8.532539e+002,2.698334e+000
8.542181e+002,2.581726e+000
8.551824e+002,2.697021e+000
8.561466e+002,3.263336e+000
8.571108e+002,4.859467e+000
8.580751e+002,8.384003e+000
8.590393e+002,1.108655e+001
8.600035e+002,1.177924e+001
8.609678e+002,1.167932e+001
8.619320e+002,1.224451e+001
8.628962e+002,1.399695e+001
8.638605e+002,1.593817e+001
8.648247e+002,1.660526e+001
8.657889e+002,1.625925e+001
8.667532e+002,1.510898e+001
8.677174e+002,1.319324e+001
8.686816e+002,1.185971e+001
8.696459e+002,1.297308e+001
8.706101e+002,1.718210e+001
8.715743e+002,1.953836e+001
8.725386e+002,1.876306e+001
8.735028e+002,1.801169e+001
8.744670e+002,1.821994e+001
8.754313e+002,1.869583e+001
8.763955e+002,1.791742e+001
8.773597e+002,1.492035e+001
8.783240e+002,1.266946e+001
8.792882e+002,1.388663e+001
8.802524e+002,1.618710e+001
8.812167e+002,1.751657e+001
8.821809e+002,1.753702e+001
8.831451e+002,1.741232e+001
8.841094e+002,1.875159e+001
8.850736e+002,2.153546e+001
8.860378e+002,2.258926e+001
8.870021e+002,2.126364e+001
8.879663e+002,2.032938e+001
8.889305e+002,2.194708e+001
8.898948e+002,2.533487e+001
8.908590e+002,2.655920e+001
8.918232e+002,2.373840e+001
8.927875e+002,2.167212e+001
8.937517e+002,2.137305e+001
8.947159e+002,2.213400e+001
8.956802e+002,2.354761e+001
8.966444e+002,2.526297e+001
8.976086e+002,2.672775e+001
8.985729e+002,2.743381e+001
8.995371e+002,2.783212e+001
9.005013e+002,2.862631e+001
9.014656e+002,2.979251e+001
9.024298e+002,3.073962e+001
9.033940e+002,3.085474e+001
9.043583e+002,3.019409e+001
9.053225e+002,3.028424e+001
9.062867e+002,3.258261e+001
9.072510e+002,3.342221e+001
9.082152e+002,3.183200e+001
9.091794e+002,2.971271e+001
9.101437e+002,2.893433e+001
9.111079e+002,2.978308e+001
9.120721e+002,3.082690e+001
9.130364e+002,3.119687e+001
9.140006e+002,3.124741e+001
9.149648e+002,3.139117e+001
9.159291e+002,3.159238e+001
9.168933e+002,3.129868e+001
9.178575e+002,3.008301e+001
9.188218e+002,2.859293e+001
9.197860e+002,2.993768e+001
9.207502e+002,3.419296e+001
9.217145e+002,3.609857e+001
9.226787e+002,3.372067e+001
9.236429e+002,2.987875e+001
9.246072e+002,2.825626e+001
9.255714e+002,2.916183e+001
9.265356e+002,2.995352e+001
9.274999e+002,3.078690e+001
9.284641e+002,3.065903e+001
9.294283e+002,2.845370e+001
9.303926e+002,2.532382e+001
9.313568e+002,2.313379e+001
9.323210e+002,2.283267e+001
9.332853e+002,2.363968e+001
9.342495e+002,2.522366e+001
9.352137e+002,2.683768e+001
9.361780e+002,2.716235e+001
9.371422e+002,2.605911e+001
9.381064e+002,2.447519e+001
9.390707e+002,2.350879e+001
9.400349e+002,2.307803e+001
9.409991e+002,2.260580e+001
9.419634e+002,2.227786e+001
9.429276e+002,2.160339e+001
9.438918e+002,1.968900e+001
9.448561e+002,1.765515e+001
9.458203e+002,1.770367e+001
9.467845e+002,2.091150e+001
9.477488e+002,2.410144e+001
9.487130e+002,2.474783e+001
9.496772e+002,2.440875e+001
9.506415e+002,2.383963e+001
9.516057e+002,2.339063e+001
9.525699e+002,2.352396e+001
9.535342e+002,2.470963e+001
9.544984e+002,2.659857e+001
9.554626e+002,2.644855e+001
9.564269e+002,2.411740e+001
9.573911e+002,2.220895e+001
9.583553e+002,2.111264e+001
9.593196e+002,2.085641e+001
9.602838e+002,2.197803e+001
9.612480e+002,2.511752e+001
9.622123e+002,2.669016e+001
9.631765e+002,2.367499e+001
9.641407e+002,2.100244e+001
9.651050e+002,2.159747e+001
9.660692e+002,2.420938e+001
9.670334e+002,2.582278e+001
9.679977e+002,2.463916e+001
9.689619e+002,2.221921e+001
9.699261e+002,2.167731e+001
9.708904e+002,2.225729e+001
9.718546e+002,2.199820e+001
9.728188e+002,2.014523e+001
9.737831e+002,1.839539e+001
9.747473e+002,1.935510e+001
9.757115e+002,2.375412e+001
9.766758e+002,2.723001e+001
9.776400e+002,3.028955e+001
9.786042e+002,3.206836e+001
9.795685e+002,3.104239e+001
9.805327e+002,2.891214e+001
9.814969e+002,2.847440e+001
9.824612e+002,3.078302e+001
9.834254e+002,3.284109e+001
9.843896e+002,3.090134e+001
9.853539e+002,2.721671e+001
9.863181e+002,2.387491e+001
9.872823e+002,2.106046e+001
9.882466e+002,1.864230e+001
9.892108e+002,1.668298e+001
9.901750e+002,1.539133e+001
9.911393e+002,1.474890e+001
9.921035e+002,1.447983e+001
9.930677e+002,1.448474e+001
9.940320e+002,1.483313e+001
9.949962e+002,1.572107e+001
9.959604e+002,1.761539e+001
9.969247e+002,2.049570e+001
9.978889e+002,2.302115e+001
9.988531e+002,2.396103e+001
9.998174e+002,2.460861e+001
1.000782e+003,2.627542e+001
1.001746e+003,2.828882e+001
1.002710e+003,2.949573e+001
1.003674e+003,2.940637e+001
1.004639e+003,2.851025e+001
1.005603e+003,2.756598e+001
1.006567e+003,2.651456e+001
1.007531e+003,2.694330e+001
1.008495e+003,2.995056e+001
1.009460e+003,3.227682e+001
1.010424e+003,3.124475e+001
1.011388e+003,2.789352e+001
1.012352e+003,2.651157e+001
1.013317e+003,2.885779e+001
1.014281e+003,3.040073e+001
1.015245e+003,2.954907e+001
1.016209e+003,2.760617e+001
1.017174e+003,2.502698e+001
1.018138e+003,2.232358e+001
1.019102e+003,2.035733e+001
1.020066e+003,1.998120e+001
1.021031e+003,2.056174e+001
1.021995e+003,2.027884e+001
1.022959e+003,1.905423e+001
1.023923e+003,1.618066e+001
1.024887e+003,1.053967e+001
1.025852e+003,4.610596e+000
1.026816e+003,2.714844e+000
1.027780e+003,5.928802e+000
1.028744e+003,8.713623e+000
1.029709e+003,1.154910e+001
1.030673e+003,1.281873e+001
1.031637e+003,1.075394e+001
1.032601e+003,7.235321e+000
1.033566e+003,5.059113e+000
1.034530e+003,5.212555e+000
1.035494e+003,5.758270e+000
1.036458e+003,4.063049e+000
1.037422e+003,1.581879e+000
1.038387e+003,1.002655e+000
1.039351e+003,2.217865e+000
1.040315e+003,3.571930e+000
1.041279e+003,3.854767e+000
1.042244e+003,3.439301e+000
1.043208e+003,3.854492e+000
1.044172e+003,5.357391e+000
1.045136e+003,7.028839e+000
1.046101e+003,1.031851e+001
1.047065e+003,1.250284e+001
1.048029e+003,1.059396e+001
1.048993e+003,5.770813e+000
1.049958e+003,2.922852e+000
1.050922e+003,5.075104e+000
1.051886e+003,8.163513e+000
1.052850e+003,7.799103e+000
1.053814e+003,5.816589e+000
1.054779e+003,4.295166e+000
1.055743e+003,3.771454e+000
1.056707e+003,3.956268e+000
1.057671e+003,4.571106e+000
1.058636e+003,5.588409e+000
1.059600e+003,5.792023e+000
1.060564e+003,4.519073e+000
1.061528e+003,3.839020e+000
1.062493e+003,4.217682e+000
1.063457e+003,4.885345e+000
1.064421e+003,4.923859e+000
1.065385e+003,4.324463e+000
1.066349e+003,4.433563e+000
1.067314e+003,6.965729e+000
1.068278e+003,9.160736e+000
1.069242e+003,8.997772e+000
1.070206e+003,7.339508e+000
1.071171e+003,5.307434e+000
1.072135e+003,3.431580e+000
1.073099e+003,1.765594e+000
1.074063e+003,5.217896e-001
1.075028e+003,-2.324829e-001
1.075992e+003,-3.125305e-001
1.076956e+003,-4.415894e-002
1.077920e+003,9.754028e-001
1.078885e+003,4.416504e+000
1.079849e+003,8.401306e+000
1.080813e+003,8.699310e+000
1.081777e+003,3.926270e+000
1.082741e+003,2.188416e-001
1.083706e+003,1.502533e+000
1.084670e+003,3.718567e+000
1.085634e+003,4.951477e+000
1.086598e+003,5.357788e+000
1.087563e+003,5.941162e+000
1.088527e+003,7.266144e+000
1.089491e+003,8.659027e+000
1.090455e+003,8.470581e+000
1.091420e+003,6.355072e+000
1.092384e+003,4.781616e+000
1.093348e+003,3.734161e+000
1.094312e+003,2.979736e+000
1.095276e+003,2.594666e+000
1.096241e+003,2.579987e+000
1.097205e+003,2.615021e+000
1.098169e+003,2.419586e+000
1.099133e+003,2.636871e+000
1.100098e+003,4.300842e+000
1.101062e+003,5.838501e+000
1.102026e+003,6.130096e+000
1.102990e+003,5.476074e+000
1.103955e+003,4.683289e+000
1.104919e+003,4.225220e+000
1.105883e+003,4.093536e+000
1.106847e+003,4.442902e+000
1.107812e+003,5.255615e+000
1.108776e+003,5.870178e+000
1.109740e+003,6.516144e+000
1.110704e+003,6.439117e+000
1.111668e+003,4.494659e+000
1.112633e+003,1.440430e+000
1.113597e+003,3.991394e-001
1.114561e+003,2.522186e+000
1.115525e+003,4.345734e+000
1.116490e+003,3.947021e+000
1.117454e+003,3.664734e+000
1.118418e+003,5.709778e+000
1.119382e+003,9.339783e+000
1.120347e+003,1.211932e+001
1.121311e+003,1.243881e+001
1.122275e+003,1.123825e+001
1.123239e+003,1.093140e+001
1.124203e+003,1.154260e+001
1.125168e+003,1.073242e+001
1.126132e+003,7.683014e+000
1.127096e+003,5.027557e+000
1.128060e+003,4.737946e+000
1.129025e+003,6.416321e+000
1.129989e+003,8.630951e+000
1.130953e+003,1.188177e+001
1.131917e+003,1.411340e+001
1.132882e+003,1.406165e+001
1.133846e+003,1.381924e+001
1.134810e+003,1.490503e+001
1.135774e+003,1.688150e+001
1.136739e+003,1.823865e+001
1.137703e+003,1.813309e+001
1.138667e+003,1.764172e+001
1.139631e+003,1.893182e+001
1.140595e+003,2.167688e+001
1.141560e+003,2.282257e+001
1.142524e+003,2.156381e+001
1.143488e+003,2.156903e+001
1.144452e+003,2.582617e+001
1.145417e+003,3.329144e+001
1.146381e+003,4.025586e+001
1.147345e+003,4.658963e+001
1.148309e+003,5.228308e+001
1.149274e+003,5.632953e+001
1.150238e+003,6.097525e+001
1.151202e+003,6.783380e+001
1.152166e+003,7.621762e+001
1.153130e+003,8.473029e+001
1.154095e+003,9.253534e+001
1.155059e+003,9.961807e+001
1.156023e+003,1.066610e+002
1.156987e+003,1.130591e+002
1.157952e+003,1.151165e+002
1.158916e+003,1.126203e+002
1.159880e+003,1.089468e+002
1.160844e+003,1.055453e+002
1.161809e+003,1.017071e+002
1.162773e+003,9.623190e+001
1.163737e+003,8.889178e+001
1.164701e+003,8.101926e+001
1.165666e+003,7.229095e+001
1.166630e+003,6.399014e+001
1.167594e+003,5.616116e+001
1.168558e+003,4.918906e+001
1.169522e+003,4.357959e+001
1.170487e+003,3.944888e+001
1.171451e+003,3.662213e+001
1.172415e+003,3.502460e+001
1.173379e+003,3.431332e+001
1.174344e+003,3.254245e+001
1.175308e+003,2.957648e+001
1.176272e+003,2.801300e+001
1.177236e+003,2.995163e+001
1.178201e+003,3.283377e+001
1.179165e+003,3.322632e+001
1.180129e+003,3.099686e+001
1.181093e+003,2.821262e+001
1.182057e+003,2.386093e+001
1.183022e+003,2.142365e+001
1.183986e+003,2.383365e+001
1.184950e+003,2.736804e+001
1.185914e+003,2.829532e+001
1.186879e+003,2.652786e+001
1.187843e+003,2.471445e+001
1.188807e+003,2.498648e+001
1.189771e+003,2.632278e+001
1.190736e+003,2.563910e+001
1.191700e+003,2.262650e+001
1.192664e+003,2.065649e+001
1.193628e+003,2.033749e+001
1.194593e+003,2.087650e+001
1.195557e+003,2.244937e+001
1.196521e+003,2.441788e+001
1.197485e+003,2.421820e+001
1.198449e+003,2.057962e+001
1.199414e+003,1.769293e+001
1.200378e+003,1.875433e+001
1.201342e+003,2.003027e+001
1.202306e+003,1.851077e+001
1.203271e+003,1.533392e+001
1.204235e+003,1.361649e+001
1.205199e+003,1.477548e+001
1.206163e+003,1.680844e+001
1.207128e+003,1.621817e+001
1.208092e+003,1.282455e+001
1.209056e+003,1.115649e+001
1.210020e+003,1.218494e+001
1.210984e+003,1.270422e+001
1.211949e+003,1.178448e+001
1.212913e+003,9.814453e+000
1.213877e+003,6.754120e+000
1.214841e+003,2.768524e+000
1.215806e+003,4.085999e-001
1.216770e+003,1.655914e+000
1.217734e+003,3.140900e+000
1.218698e+003,2.721710e+000
1.219663e+003,9.606628e-001
1.220627e+003,-1.930725e+000
1.221591e+003,-5.502014e+000
1.222555e+003,-8.573792e+000
1.223520e+003,-1.000513e+001
1.224484e+003,-1.011258e+001
1.225448e+003,-1.074377e+001
1.226412e+003,-1.297479e+001
1.227376e+003,-1.317282e+001
1.228341e+003,-9.119690e+000
1.229305e+003,-5.693207e+000
1.230269e+003,-6.271362e+000
1.231233e+003,-9.170898e+000
1.232198e+003,-1.050745e+001
1.233162e+003,-9.123047e+000
1.234126e+003,-8.103119e+000
1.235090e+003,-1.061035e+001
1.236055e+003,-1.383847e+001
1.237019e+003,-1.464938e+001
1.237983e+003,-1.367438e+001
1.238947e+003,-1.265872e+001
1.239911e+003,-1.226892e+001
1.240876e+003,-1.195178e+001
1.241840e+003,-1.083209e+001
1.242804e+003,-8.793793e+000
1.243768e+003,-7.926849e+000
1.244733e+003,-9.928864e+000
1.245697e+003,-1.083789e+001
1.246661e+003,-9.244781e+000
1.247625e+003,-7.728851e+000
1.248590e+003,-8.517242e+000
1.249554e+003,-1.093756e+001
1.250518e+003,-1.272372e+001
1.251482e+003,-1.293649e+001
1.252447e+003,-1.239600e+001
1.253411e+003,-1.179541e+001
1.254375e+003,-1.103717e+001
1.255339e+003,-9.953033e+000
1.256303e+003,-8.502991e+000
1.257268e+003,-7.167542e+000
1.258232e+003,-6.367371e+000
1.259196e+003,-5.973633e+000
1.260160e+003,-5.478699e+000
1.261125e+003,-4.710052e+000
1.262089e+003,-4.139526e+000
1.263053e+003,-4.233185e+000
1.264017e+003,-4.291077e+000
1.264982e+003,-3.949219e+000
1.265946e+003,-3.541809e+000
1.266910e+003,-3.567688e+000
1.267874e+003,-3.880096e+000
1.268839e+003,-3.718414e+000
1.269803e+003,-2.561829e+000
1.270767e+003,-1.006409e+000
1.271731e+003,-1.448059e-001
1.272695e+003,5.834961e-002
1.273660e+003,1.736450e-002
1.274624e+003,-3.325195e-001
1.275588e+003,-1.333008e+000
1.276552e+003,-3.798798e+000
1.277517e+003,-6.532104e+000
1.278481e+003,-7.188019e+000
1.279445e+003,-5.531372e+000
1.280409e+003,-4.062378e+000
1.281374e+003,-3.306854e+000
1.282338e+003,-3.283691e+000
1.283302e+003,-4.260071e+000
1.284266e+003,-5.761078e+000
1.285230e+003,-7.552765e+000
1.286195e+003,-9.363220e+000
1.287159e+003,-1.053009e+001
1.288123e+003,-1.043924e+001
1.289087e+003,-9.601776e+000
1.290052e+003,-9.905090e+000
1.291016e+003,-1.212631e+001
1.291980e+003,-1.299643e+001
1.292944e+003,-1.202789e+001
1.293909e+003,-1.073019e+001
1.294873e+003,-8.768494e+000
1.295837e+003,-7.099243e+000
1.296801e+003,-7.896606e+000
1.297766e+003,-1.108743e+001
1.298730e+003,-1.237100e+001
1.299694e+003,-8.447083e+000
1.300658e+003,-3.952240e+000
1.301622e+003,-4.810699e+000
1.302587e+003,-8.123260e+000
1.303551e+003,-9.225800e+000
1.304515e+003,-7.378296e+000
1.305479e+003,-5.101624e+000
1.306444e+003,-4.425598e+000
1.307408e+003,-5.040070e+000
1.308372e+003,-5.823364e+000
1.309336e+003,-7.022797e+000
1.310301e+003,-7.639679e+000
1.311265e+003,-6.819366e+000
1.312229e+003,-6.269073e+000
1.313193e+003,-6.432953e+000
1.314157e+003,-7.206451e+000
1.315122e+003,-9.109436e+000
1.316086e+003,-1.163623e+001
1.317050e+003,-1.264832e+001
1.318014e+003,-1.053372e+001
1.318979e+003,-7.424438e+000
1.319943e+003,-7.481812e+000
1.320907e+003,-1.025394e+001
1.321871e+003,-1.187085e+001
1.322836e+003,-1.227115e+001
1.323800e+003,-1.185989e+001
1.324764e+003,-1.020355e+001
1.325728e+003,-8.143616e+000
1.326693e+003,-7.398163e+000
1.327657e+003,-8.114471e+000
1.328621e+003,-8.286194e+000
1.329585e+003,-6.416168e+000
1.330549e+003,-4.826080e+000
1.331514e+003,-5.181091e+000
1.332478e+003,-6.512604e+000
1.333442e+003,-8.354950e+000
1.334406e+003,-1.009961e+001
1.335371e+003,-1.049368e+001
1.336335e+003,-8.855713e+000
1.337299e+003,-6.490326e+000
1.338263e+003,-5.974915e+000
1.339228e+003,-7.573700e+000
1.340192e+003,-8.485413e+000
1.341156e+003,-8.641693e+000
1.342120e+003,-8.292175e+000
1.343084e+003,-6.978119e+000
1.344049e+003,-5.845490e+000
1.345013e+003,-6.061707e+000
1.345977e+003,-7.086029e+000
1.346941e+003,-7.119171e+000
1.347906e+003,-5.448212e+000
1.348870e+003,-4.007965e+000
1.349834e+003,-4.941254e+000
1.350798e+003,-7.135834e+000
1.351763e+003,-8.402496e+000
1.352727e+003,-8.753174e+000
1.353691e+003,-8.523560e+000
1.354655e+003,-7.731201e+000
1.355620e+003,-6.703705e+000
1.356584e+003,-5.414825e+000
1.357548e+003,-3.997162e+000
1.358512e+003,-4.373901e+000
1.359476e+003,-7.895844e+000
1.360441e+003,-1.031308e+001
1.361405e+003,-9.062469e+000
1.362369e+003,-7.945618e+000
1.363333e+003,-9.433472e+000
1.364298e+003,-1.192722e+001
1.365262e+003,-1.293304e+001
1.366226e+003,-1.196118e+001
1.367190e+003,-1.044641e+001
1.368155e+003,-9.660248e+000
1.369119e+003,-9.405365e+000
1.370083e+003,-9.042694e+000
1.371047e+003,-8.429535e+000
1.372011e+003,-8.041046e+000
1.372976e+003,-8.433472e+000
1.373940e+003,-8.602783e+000
1.374904e+003,-7.993225e+000
1.375868e+003,-6.964691e+000
1.376833e+003,-5.578003e+000
1.377797e+003,-4.149689e+000
1.378761e+003,-4.445923e+000
1.379725e+003,-7.843628e+000
1.380690e+003,-1.099939e+001
1.381654e+003,-9.379761e+000
1.382618e+003,-5.830475e+000
1.383582e+003,-4.302216e+000
1.384547e+003,-4.847443e+000
1.385511e+003,-5.744873e+000
1.386475e+003,-6.387756e+000
1.387439e+003,-6.351563e+000
1.388403e+003,-4.196960e+000
1.389368e+003,4.537964e-002
1.390332e+003,1.322388e+000
1.391296e+003,-1.916046e+000
1.392260e+003,-5.140930e+000
1.393225e+003,-8.888519e+000
1.394189e+003,-1.081149e+001
1.395153e+003,-8.439728e+000
1.396117e+003,-3.817749e+000
1.397082e+003,7.702026e-001
1.398046e+003,4.087585e+000
1.399010e+003,4.594147e+000
1.399974e+003,6.341248e-001
1.400938e+003,-5.958191e+000
1.401903e+003,-8.869690e+000
1.402867e+003,-6.739502e+000
1.403831e+003,-4.715790e+000
1.404795e+003,-2.665955e+000
1.405760e+003,-1.214264e+000
1.406724e+003,-9.842224e-001
1.407688e+003,-1.640137e+000
1.408652e+003,-2.942444e+000
1.409617e+003,-4.430847e+000
1.410581e+003,-4.677612e+000
1.411545e+003,-2.830200e+000
1.412509e+003,-1.242004e+000
1.413474e+003,-3.101288e+000
1.414438e+003,-6.315369e+000
1.415402e+003,-6.823120e+000
1.416366e+003,-4.879395e+000
1.417330e+003,-3.256866e+000
1.418295e+003,-3.007050e+000
1.419259e+003,-3.490906e+000
1.420223e+003,-4.483185e+000
1.421187e+003,-5.826965e+000
1.422152e+003,-5.761688e+000
1.423116e+003,-3.474396e+000
1.424080e+003,-1.840027e+000
1.425044e+003,-2.445923e+000
1.426009e+003,-3.285767e+000
1.426973e+003,-3.654846e+000
1.427937e+003,-3.748047e+000
1.428901e+003,-3.878723e+000
1.429865e+003,-3.954651e+000
1.430830e+003,-3.484558e+000
1.431794e+003,-2.227020e+000
1.432758e+003,-8.038025e-001
1.433722e+003,-2.994690e-001
1.434687e+003,-5.973816e-001
1.435651e+003,-6.098328e-001
1.436615e+003,-1.224884e+000
1.437579e+003,-1.161713e+000
1.438544e+003,2.831421e-001
1.439508e+003,1.959015e+000
1.440472e+003,3.566559e+000
1.441436e+003,4.853485e+000
1.442401e+003,5.266998e+000
1.443365e+003,4.698059e+000
1.444329e+003,3.722931e+000
1.445293e+003,2.718201e+000
1.446257e+003,1.863220e+000
1.447222e+003,1.443604e+000
1.448186e+003,1.396759e+000
1.449150e+003,1.487427e+000
1.450114e+003,1.556793e+000
1.451079e+003,2.125793e+000
1.452043e+003,4.049530e+000
1.453007e+003,6.395386e+000
1.453971e+003,8.196838e+000
1.454936e+003,9.219147e+000
1.455900e+003,7.795197e+000
1.456864e+003,2.504486e+000
1.457828e+003,-1.157532e+000
1.458792e+003,2.365631e+000
1.459757e+003,6.484314e+000
1.460721e+003,5.081848e+000
1.461685e+003,3.305359e-001
1.462649e+003,-3.331238e+000
1.463614e+003,-4.515656e+000
1.464578e+003,-3.498322e+000
1.465542e+003,-9.722900e-002
1.466506e+003,4.317688e+000
1.467471e+003,5.602173e+000
1.468435e+003,3.172394e+000
1.469399e+003,1.380646e+000
1.470363e+003,-1.814270e-001
1.471328e+003,-4.418640e-001
1.472292e+003,2.261139e+000
1.473256e+003,4.678131e+000
1.474220e+003,4.151123e+000
1.475184e+003,1.938477e+000
1.476149e+003,6.857300e-001
1.477113e+003,1.125336e+000
1.478077e+003,1.677948e+000
1.479041e+003,8.684692e-001
1.480006e+003,-2.530823e-001
1.480970e+003,1.756958e+000
1.481934e+003,8.374237e+000
1.482898e+003,1.100681e+001
1.483863e+003,6.811523e+000
1.484827e+003,3.037109e+000
1.485791e+003,1.581116e+000
1.486755e+003,1.555481e+000
1.487719e+003,2.459381e+000
1.488684e+003,3.847870e+000
1.489648e+003,5.056427e+000
1.490612e+003,5.943542e+000
1.491576e+003,6.872925e+000
1.492541e+003,8.057831e+000
1.493505e+003,9.451233e+000
1.494469e+003,1.126630e+001
1.495433e+003,1.320169e+001
1.496398e+003,1.405670e+001
1.497362e+003,1.356281e+001
1.498326e+003,1.316333e+001
1.499290e+003,1.293848e+001
1.500255e+003,1.364810e+001
1.501219e+003,1.669214e+001
1.502183e+003,2.167804e+001
1.503147e+003,2.664587e+001
1.504111e+003,3.130765e+001
1.505076e+003,3.515924e+001
1.506040e+003,3.729099e+001
1.507004e+003,3.919055e+001
1.507968e+003,4.213971e+001
1.508933e+003,4.602512e+001
1.509897e+003,5.066833e+001
1.510861e+003,5.620602e+001
1.511825e+003,6.267587e+001
1.512790e+003,7.003406e+001
1.513754e+003,7.797610e+001
1.514718e+003,8.618829e+001
1.515682e+003,9.454312e+001
1.516646e+003,1.029119e+002
1.517611e+003,1.113481e+002
1.518575e+003,1.200565e+002
1.519539e+003,1.305852e+002
1.520503e+003,1.401260e+002
1.521468e+003,1.465128e+002
1.522432e+003,1.512279e+002
1.523396e+003,1.571821e+002
1.524360e+003,1.640050e+002
1.525325e+003,1.684167e+002
1.526289e+003,1.682587e+002
1.527253e+003,1.643398e+002
1.528217e+003,1.576301e+002
1.529182e+003,1.481927e+002
1.530146e+003,1.408435e+002
1.531110e+003,1.380585e+002
1.532074e+003,1.324136e+002
1.533039e+003,1.222015e+002
1.534003e+003,1.100572e+002
1.534967e+003,9.618759e+001
1.535931e+003,8.227328e+001
1.536896e+003,6.945413e+001
1.537860e+003,5.828268e+001
1.538824e+003,4.948163e+001
1.539788e+003,4.321194e+001
1.540752e+003,3.778058e+001
1.541717e+003,3.089200e+001
1.542681e+003,2.328751e+001
1.543645e+003,1.912372e+001
1.544609e+003,2.056790e+001
1.545573e+003,2.040775e+001
1.546538e+003,1.669907e+001
1.547502e+003,1.357535e+001
1.548466e+003,1.304446e+001
1.549430e+003,1.374887e+001
1.550395e+003,1.475882e+001
1.551359e+003,1.544733e+001
1.552323e+003,1.434122e+001
1.553287e+003,1.116141e+001
1.554252e+003,8.976898e+000
1.555216e+003,1.073734e+001
1.556180e+003,1.453909e+001
1.557144e+003,1.610336e+001
1.558109e+003,1.536823e+001
1.559073e+003,1.379959e+001
1.560037e+003,1.051523e+001
1.561001e+003,7.871338e+000
1.561966e+003,7.247925e+000
1.562930e+003,7.393097e+000
1.563894e+003,6.818726e+000
1.564858e+003,5.975891e+000
1.565823e+003,6.673187e+000
1.566787e+003,9.073090e+000
1.567751e+003,1.021820e+001
1.568715e+003,8.183380e+000
1.569679e+003,5.188171e+000
1.570644e+003,3.521606e+000
1.571608e+003,3.104279e+000
1.572572e+003,4.048096e+000
1.573536e+003,6.483826e+000
1.574500e+003,8.869598e+000
1.575465e+003,1.080380e+001
1.576429e+003,1.226474e+001
1.577393e+003,1.297379e+001
1.578357e+003,1.318753e+001
1.579322e+003,1.354468e+001
1.580286e+003,1.410837e+001
1.581250e+003,1.464142e+001
1.582214e+003,1.530490e+001
1.583179e+003,1.490704e+001
1.584143e+003,1.098810e+001
1.585107e+003,6.837036e+000
1.586071e+003,7.990112e+000
1.587036e+003,1.274292e+001
1.588000e+003,1.499820e+001
1.588964e+003,1.321515e+001
1.589928e+003,1.121979e+001
1.590893e+003,1.173801e+001
1.591857e+003,1.331308e+001
1.592821e+003,1.370422e+001
1.593785e+003,1.317340e+001
1.594750e+003,1.317392e+001
1.595714e+003,1.391769e+001
1.596678e+003,1.447308e+001
1.597642e+003,1.423193e+001
1.598606e+003,1.408493e+001
1.599571e+003,1.494446e+001
1.600535e+003,1.627808e+001
1.601499e+003,1.758957e+001
1.602463e+003,1.866589e+001
1.603427e+003,1.891006e+001
1.604392e+003,1.799103e+001
1.605356e+003,1.701331e+001
1.606320e+003,1.722537e+001
1.607284e+003,1.821323e+001
1.608249e+003,1.879056e+001
1.609213e+003,1.894489e+001
1.610177e+003,1.906375e+001
1.611141e+003,1.940155e+001
1.612106e+003,1.923605e+001
1.613070e+003,1.715054e+001
1.614034e+003,1.540155e+001
1.614998e+003,1.629556e+001
1.615963e+003,1.841055e+001
1.616927e+003,1.932770e+001
1.617891e+003,1.862411e+001
1.618855e+003,1.690408e+001
1.619820e+003,1.423083e+001
1.620784e+003,1.177444e+001
1.621748e+003,1.198459e+001
1.622712e+003,1.445682e+001
1.623677e+003,1.517999e+001
1.624641e+003,1.370724e+001
1.625605e+003,1.306207e+001
1.626569e+003,1.372058e+001
1.627533e+003,1.487057e+001
1.628498e+003,1.711179e+001
1.629462e+003,1.910757e+001
1.630426e+003,1.963486e+001
1.631390e+003,1.894977e+001
1.632354e+003,1.746542e+001
1.633319e+003,1.546744e+001
1.634283e+003,1.421881e+001
1.635247e+003,1.489014e+001
1.636211e+003,1.600964e+001
1.637176e+003,1.417978e+001
1.638140e+003,9.848999e+000
1.639104e+003,9.589996e+000
1.640068e+003,1.506836e+001
1.641033e+003,1.856973e+001
1.641997e+003,1.669794e+001
1.642961e+003,1.476392e+001
1.643925e+003,1.615793e+001
1.644890e+003,1.814703e+001
1.645854e+003,1.771576e+001
1.646818e+003,1.552780e+001
1.647782e+003,1.405447e+001
1.648747e+003,1.400134e+001
1.649711e+003,1.381992e+001
1.650675e+003,1.203647e+001
1.651639e+003,9.992737e+000
1.652604e+003,1.067792e+001
1.653568e+003,1.388959e+001
1.654532e+003,1.601913e+001
1.655496e+003,1.678699e+001
1.656460e+003,1.676431e+001
1.657425e+003,1.509158e+001
1.658389e+003,1.415503e+001
1.659353e+003,1.621582e+001
1.660317e+003,1.885336e+001
1.661281e+003,1.957834e+001
1.662246e+003,1.847131e+001
1.663210e+003,1.632288e+001
1.664174e+003,1.353308e+001
1.665138e+003,1.153592e+001
1.666103e+003,1.181140e+001
1.667067e+003,1.300571e+001
1.668031e+003,1.203610e+001
1.668995e+003,9.185516e+000
1.669960e+003,8.347565e+000
1.670924e+003,1.035983e+001
1.671888e+003,1.217761e+001
1.672852e+003,1.289282e+001
1.673817e+003,1.300146e+001
1.674781e+003,1.259769e+001
1.675745e+003,1.194492e+001
1.676709e+003,1.093353e+001
1.677674e+003,9.940979e+000
1.678638e+003,1.052545e+001
1.679602e+003,1.313104e+001
1.680566e+003,1.432474e+001
1.681531e+003,1.043170e+001
1.682495e+003,5.111176e+000
1.683459e+003,5.228851e+000
1.684423e+003,9.660400e+000
1.685387e+003,1.156088e+001
1.686352e+003,1.013309e+001
1.687316e+003,8.109283e+000
1.688280e+003,5.681580e+000
1.689244e+003,4.109100e+000
1.690208e+003,4.741119e+000
1.691173e+003,6.405334e+000
1.692137e+003,8.618256e+000
1.693101e+003,1.090509e+001
1.694065e+003,1.153876e+001
1.695030e+003,9.933899e+000
1.695994e+003,7.693787e+000
1.696958e+003,5.551819e+000
1.697922e+003,3.741394e+000
1.698887e+003,2.409698e+000
1.699851e+003,1.684235e+000
1.700815e+003,2.195160e+000
1.701779e+003,3.878174e+000
1.702744e+003,4.542969e+000
1.703708e+003,3.247284e+000
1.704672e+003,2.501129e+000
1.705636e+003,4.516205e+000
1.706601e+003,7.300354e+000
1.707565e+003,8.503571e+000
1.708529e+003,8.281891e+000
1.709493e+003,6.099792e+000
1.710458e+003,1.500671e+000
1.711422e+003,-1.486389e+000
1.712386e+003,6.600952e-002
1.713350e+003,2.469818e+000
1.714314e+003,2.877350e+000
1.715279e+003,1.921783e+000
1.716243e+003,3.502808e-001
1.717207e+003,-1.463623e+000
1.718171e+003,-2.383575e+000
1.719135e+003,-2.070679e+000
1.720100e+003,-1.243744e+000
1.721064e+003,-2.455444e-001
1.722028e+003,4.481506e-001
1.722992e+003,1.432800e-001
1.723957e+003,-8.437500e-001
1.724921e+003,-1.569397e+000
1.725885e+003,-2.367218e+000
1.726849e+003,-2.352753e+000
1.727814e+003,-3.516235e-001
1.728778e+003,1.554779e+000
1.729742e+003,2.644073e+000
1.730706e+003,3.000397e+000
1.731671e+003,2.194855e+000
1.732635e+003,6.761169e-001
1.733599e+003,-3.299866e-001
1.734563e+003,-5.834351e-001
1.735528e+003,-1.079926e+000
1.736492e+003,-2.402161e+000
1.737456e+003,-3.368622e+000
1.738420e+003,-2.446899e+000
1.739385e+003,-4.392395e-001
1.740349e+003,-4.150391e-003
1.741313e+003,-1.549438e+000
1.742277e+003,-2.100311e+000
1.743241e+003,-4.685974e-001
1.744206e+003,4.453430e-001
1.745170e+003,-3.268433e-002
1.746134e+003,-1.088623e+000
1.747098e+003,-3.391571e+000
1.748063e+003,-5.222626e+000
1.749027e+003,-4.015442e+000
1.749991e+003,-6.779480e-001
1.750955e+003,2.014771e+000
1.751919e+003,2.985779e+000
1.752884e+003,2.758514e+000
1.753848e+003,1.739380e+000
1.754812e+003,4.243774e-001
1.755776e+003,-8.917236e-002
1.756741e+003,2.905579e-001
1.757705e+003,9.506836e-001
1.758669e+003,2.083130e+000
1.759633e+003,2.620605e+000
1.760598e+003,2.324493e+000
1.761562e+003,1.376709e+000
1.762526e+003,-1.044373e+000
1.763490e+003,-2.945892e+000
1.764455e+003,-2.398529e+000
1.765419e+003,-6.388855e-001
1.766383e+003,2.798157e-001
1.767347e+003,8.648682e-002
1.768312e+003,-3.234253e-001
1.769276e+003,-5.706787e-001
1.770240e+003,-7.017212e-001
1.771204e+003,-5.699768e-001
1.772168e+003,-1.638489e-001
1.773133e+003,4.297485e-001
1.774097e+003,1.132233e+000
1.775061e+003,1.017456e+000
1.776025e+003,-3.017578e-001
1.776990e+003,-1.187195e+000
1.777954e+003,-8.384094e-001
1.778918e+003,-7.449341e-002
1.779882e+003,5.433655e-001
1.780846e+003,9.875488e-001
1.781811e+003,1.457642e+000
1.782775e+003,1.884979e+000
1.783739e+003,1.916290e+000
1.784703e+003,1.531006e+000
1.785668e+003,9.273682e-001
1.786632e+003,-3.337097e-001
1.787596e+003,-1.408142e+000
1.788560e+003,-1.469482e+000
1.789525e+003,-7.840881e-001
1.790489e+003,5.316467e-001
1.791453e+003,1.979950e+000
1.792417e+003,2.207001e+000
1.793382e+003,1.078400e+000
1.794346e+003,1.536865e-001
1.795310e+003,2.477722e-001
1.796274e+003,8.027649e-001
1.797239e+003,1.458557e+000
1.798203e+003,1.911102e+000
1.799167e+003,4.534912e-001
1.800131e+003,-3.760406e+000
1.801095e+003,-6.022217e+000
1.802060e+003,-5.166412e+000
1.803024e+003,-3.925171e+000
1.803988e+003,-2.127411e+000
1.804952e+003,-7.035217e-001
1.805917e+003,6.814575e-002
1.806881e+003,1.120300e-001
1.807845e+003,-1.002441e+000
1.808809e+003,-2.641327e+000
1.809773e+003,-3.845978e+000
1.810738e+003,-4.289520e+000
1.811702e+003,-3.822174e+000
1.812666e+003,-2.400055e+000
1.813630e+003,-9.696655e-001
1.814595e+003,-8.598633e-001
1.815559e+003,-1.765045e+000
1.816523e+003,-2.356354e+000
1.817487e+003,-2.607452e+000
1.818452e+003,-2.376709e+000
1.819416e+003,-1.202393e+000
1.820380e+003,-5.662537e-001
1.821344e+003,-1.659363e+000
1.822309e+003,-2.508789e+000
1.823273e+003,-1.447418e+000
1.824237e+003,1.917725e-001
1.825201e+003,1.303070e+000
1.826166e+003,1.691315e+000
1.827130e+003,7.951355e-001
1.828094e+003,-1.450958e+000
1.829058e+003,-2.951294e+000
1.830022e+003,-2.372131e+000
1.830987e+003,-1.270721e+000
1.831951e+003,-7.986755e-001
1.832915e+003,-6.812134e-001
1.833879e+003,-7.237244e-001
1.834844e+003,-7.538147e-001
1.835808e+003,-2.185059e-002
1.836772e+003,1.421570e+000
1.837736e+003,1.869507e+000
1.838700e+003,4.797974e-001
1.839665e+003,-1.168152e+000
1.840629e+003,-1.612549e+000
1.841593e+003,-1.189514e+000
1.842557e+003,-6.777954e-001
1.843522e+003,-8.224487e-002
1.844486e+003,7.419434e-001
1.845450e+003,2.850586e+000
1.846414e+003,3.403290e+000
1.847379e+003,3.388062e-001
1.848343e+003,-1.851624e+000
1.849307e+003,-9.987183e-001
1.850271e+003,4.117126e-001
1.851236e+003,8.653259e-001
1.852200e+003,6.527710e-001
1.853164e+003,1.215820e-001
1.854128e+003,-6.565552e-001
1.855093e+003,-1.734802e+000
1.856057e+003,-2.895233e+000
1.857021e+003,-3.174988e+000
1.857985e+003,-1.786133e+000
1.858949e+003,5.671082e-001
1.859914e+003,3.378204e+000
1.860878e+003,6.244415e+000
1.861842e+003,6.246674e+000
1.862806e+003,3.249603e+000
1.863771e+003,9.517212e-001
1.864735e+003,-3.421021e-002
1.865699e+003,-6.931152e-001
1.866663e+003,-1.548187e+000
1.867627e+003,-1.783752e+000
1.868592e+003,-3.686218e-001
1.869556e+003,1.714844e+000
1.870520e+003,3.001129e+000
1.871484e+003,3.484924e+000
1.872449e+003,3.005493e+000
1.873413e+003,1.424438e+000
1.874377e+003,8.027039e-001
1.875341e+003,1.912750e+000
1.876306e+003,3.247589e+000
1.877270e+003,4.396484e+000
1.878234e+003,4.956390e+000
1.879198e+003,4.043427e+000
1.880163e+003,2.582214e+000
1.881127e+003,2.241302e+000
1.882091e+003,3.139740e+000
1.883055e+003,4.615417e+000
1.884020e+003,6.215790e+000
1.884984e+003,7.024994e+000
1.885948e+003,6.196442e+000
1.886912e+003,4.374756e+000
1.887876e+003,2.661346e+000
1.888841e+003,1.176270e+000
1.889805e+003,1.574371e+000
1.890769e+003,4.365082e+000
1.891733e+003,6.344025e+000
1.892698e+003,7.230682e+000
1.893662e+003,6.936218e+000
1.894626e+003,4.311462e+000
1.895590e+003,2.050751e+000
1.896554e+003,2.342529e+000
1.897519e+003,3.889832e+000
1.898483e+003,5.619904e+000
1.899447e+003,7.044281e+000
1.900411e+003,6.998688e+000
1.901376e+003,5.253235e+000
1.902340e+003,3.603333e+000
1.903304e+003,2.680908e+000
1.904268e+003,2.022278e+000
1.905233e+003,1.368439e+000
1.906197e+003,9.137268e-001
1.907161e+003,6.878662e-001
1.908125e+003,9.462585e-001
1.909090e+003,2.463745e+000
1.910054e+003,4.727234e+000
1.911018e+003,5.894318e+000
1.911982e+003,5.516785e+000
1.912947e+003,4.944122e+000
1.913911e+003,5.130859e+000
1.914875e+003,5.847656e+000
1.915839e+003,6.796234e+000
1.916803e+003,7.673889e+000
1.917768e+003,7.222015e+000
1.918732e+003,5.160919e+000
1.919696e+003,4.265839e+000
1.920660e+003,5.115753e+000
1.921625e+003,5.842041e+000
1.922589e+003,6.204895e+000
1.923553e+003,5.944122e+000
1.924517e+003,4.159637e+000
1.925481e+003,2.403015e+000
1.926446e+003,2.078979e+000
1.927410e+003,2.763885e+000
1.928374e+003,3.824066e+000
1.929338e+003,5.026764e+000
1.930303e+003,5.419922e+000
1.931267e+003,4.706726e+000
1.932231e+003,4.001282e+000
1.933195e+003,3.349304e+000
1.934160e+003,3.124756e+000
1.935124e+003,4.088287e+000
1.936088e+003,5.168182e+000
1.937052e+003,4.934784e+000
1.938017e+003,4.000275e+000
1.938981e+003,3.764618e+000
1.939945e+003,4.386169e+000
1.940909e+003,5.118530e+000
1.941874e+003,5.602600e+000
1.942838e+003,6.353241e+000
1.943802e+003,8.046021e+000
1.944766e+003,9.708679e+000
1.945730e+003,8.808929e+000
1.946695e+003,5.731934e+000
1.947659e+003,4.531128e+000
1.948623e+003,5.349213e+000
1.949587e+003,6.065552e+000
1.950552e+003,6.585114e+000
1.951516e+003,6.751038e+000
1.952480e+003,6.358276e+000
1.953444e+003,5.875671e+000
1.954408e+003,5.219238e+000
1.955373e+003,4.904541e+000
1.956337e+003,6.355072e+000
1.957301e+003,8.987305e+000
1.958265e+003,1.025815e+001
1.959230e+003,1.001294e+001
1.960194e+003,9.374786e+000
1.961158e+003,7.690155e+000
1.962122e+003,6.430420e+000
1.963087e+003,6.227936e+000
1.964051e+003,6.309723e+000
1.965015e+003,6.457581e+000
1.965979e+003,6.710541e+000
1.966944e+003,7.133911e+000
1.967908e+003,7.473175e+000
1.968872e+003,6.974274e+000
1.969836e+003,6.046539e+000
1.970801e+003,6.898529e+000
1.971765e+003,1.026321e+001
1.972729e+003,1.261481e+001
1.973693e+003,1.063879e+001
1.974657e+003,7.015106e+000
1.975622e+003,5.413513e+000
1.976586e+003,5.356171e+000
1.977550e+003,5.948944e+000
1.978514e+003,7.059082e+000
1.979479e+003,8.111938e+000
1.980443e+003,8.936890e+000
1.981407e+003,8.620789e+000
1.982371e+003,6.793884e+000
1.983335e+003,5.254456e+000
1.984300e+003,5.262360e+000
1.985264e+003,6.316986e+000
1.986228e+003,7.860840e+000
1.987192e+003,9.734253e+000
1.988157e+003,1.117545e+001
1.989121e+003,1.242133e+001
1.990085e+003,1.214200e+001
1.991049e+003,9.013397e+000
1.992014e+003,7.195953e+000
1.992978e+003,8.217102e+000
1.993942e+003,9.058929e+000
1.994906e+003,8.173431e+000
1.995871e+003,7.289825e+000
1.996835e+003,7.893494e+000
1.997799e+003,9.256775e+000
1.998763e+003,1.052081e+001
1.999728e+003,1.136435e+001
