5.003444e+002,2.334957e+002
5.013087e+002,2.331061e+002
5.022729e+002,2.270571e+002
5.032371e+002,2.177285e+002
5.042014e+002,2.106536e+002
5.051656e+002,2.057861e+002
5.061298e+002,2.027474e+002
5.070941e+002,2.011970e+002
5.080583e+002,2.011309e+002
5.090225e+002,2.005011e+002
5.099868e+002,1.991614e+002
5.109510e+002,1.975745e+002
5.119152e+002,1.963517e+002
5.128795e+002,1.956533e+002
5.138437e+002,1.936959e+002
5.148079e+002,1.881180e+002
5.157722e+002,1.830879e+002
5.167364e+002,1.804464e+002
5.177006e+002,1.800046e+002
5.186649e+002,1.798055e+002
5.196291e+002,1.780177e+002
5.205933e+002,1.761941e+002
5.215576e+002,1.752929e+002
5.225218e+002,1.748166e+002
5.234860e+002,1.737014e+002
5.244503e+002,1.706479e+002
5.254145e+002,1.656611e+002
5.263787e+002,1.627411e+002
5.273430e+002,1.630565e+002
5.283072e+002,1.646333e+002
5.292714e+002,1.646210e+002
5.302357e+002,1.616848e+002
5.311999e+002,1.575419e+002
5.321641e+002,1.523294e+002
5.331284e+002,1.477811e+002
5.340926e+002,1.455344e+002
5.350568e+002,1.460643e+002
5.360211e+002,1.453250e+002
5.369853e+002,1.382575e+002
5.379495e+002,1.303478e+002
5.389138e+002,1.264049e+002
5.398780e+002,1.278956e+002
5.408422e+002,1.321786e+002
5.418065e+002,1.319789e+002
5.427707e+002,1.280040e+002
5.437349e+002,1.252955e+002
5.446992e+002,1.255287e+002
5.456634e+002,1.274627e+002
5.466276e+002,1.268831e+002
5.475919e+002,1.196618e+002
5.485561e+002,1.156083e+002
5.495203e+002,1.168704e+002
5.504846e+002,1.203709e+002
5.514488e+002,1.220521e+002
5.524130e+002,1.207233e+002
5.533773e+002,1.178142e+002
5.543415e+002,1.138585e+002
5.553057e+002,1.093647e+002
5.562700e+002,1.043814e+002
5.572342e+002,9.887054e+001
5.581984e+002,9.352539e+001
5.591627e+002,9.062512e+001
5.601269e+002,8.976892e+001
5.610911e+002,8.983771e+001
5.620554e+002,9.016193e+001
5.630196e+002,9.038892e+001
5.639838e+002,8.945605e+001
5.649481e+002,8.652234e+001
5.659123e+002,8.374371e+001
5.668765e+002,8.187213e+001
5.678408e+002,8.123694e+001
5.688050e+002,8.191028e+001
5.697692e+002,8.429431e+001
5.707335e+002,8.553400e+001
5.716977e+002,8.524298e+001
5.726619e+002,8.372815e+001
5.736262e+002,8.124426e+001
5.745904e+002,7.787158e+001
5.755546e+002,7.452313e+001
5.765189e+002,7.191254e+001
5.774831e+002,6.947815e+001
5.784473e+002,6.686548e+001
5.794116e+002,6.411414e+001
5.803758e+002,6.177899e+001
5.813400e+002,6.229633e+001
5.823043e+002,6.674976e+001
5.832685e+002,6.818396e+001
5.842327e+002,6.227258e+001
5.851970e+002,5.104535e+001
5.861612e+002,4.529962e+001
5.871254e+002,5.177942e+001
5.880897e+002,5.746802e+001
5.890539e+002,5.975330e+001
5.900181e+002,5.929205e+001
5.909824e+002,5.767474e+001
5.919466e+002,5.560388e+001
5.929108e+002,5.391992e+001
5.938751e+002,5.362390e+001
5.948393e+002,5.405341e+001
5.958035e+002,5.436444e+001
5.967678e+002,5.401379e+001
5.977320e+002,5.326306e+001
5.986962e+002,5.193481e+001
5.996605e+002,4.929877e+001
6.006247e+002,4.683600e+001
6.015889e+002,4.556702e+001
6.025532e+002,4.543848e+001
6.035174e+002,4.452600e+001
6.044816e+002,4.129657e+001
6.054459e+002,3.917426e+001
6.064101e+002,3.918982e+001
6.073743e+002,4.050433e+001
6.083386e+002,4.166516e+001
6.093028e+002,4.208026e+001
6.102670e+002,4.224219e+001
6.112313e+002,4.264246e+001
6.121955e+002,4.290814e+001
6.131597e+002,4.225049e+001
6.141240e+002,4.015948e+001
6.150882e+002,3.729327e+001
6.160524e+002,3.772577e+001
6.170167e+002,4.112744e+001
6.179809e+002,4.325818e+001
6.189451e+002,4.145422e+001
6.199094e+002,3.606598e+001
6.208736e+002,3.200610e+001
6.218378e+002,3.044910e+001
6.228021e+002,3.037976e+001
6.237663e+002,3.347339e+001
6.247305e+002,3.776892e+001
6.256948e+002,3.970966e+001
6.266590e+002,3.649133e+001
6.276232e+002,3.251794e+001
6.285875e+002,3.069086e+001
6.295517e+002,3.048358e+001
6.305159e+002,3.158551e+001
6.314802e+002,3.353522e+001
6.324444e+002,3.534753e+001
6.334086e+002,3.472217e+001
6.343729e+002,3.277692e+001
6.353371e+002,3.084796e+001
6.363013e+002,2.925275e+001
6.372656e+002,2.770343e+001
6.382298e+002,2.564325e+001
6.391940e+002,2.220465e+001
6.401583e+002,1.894708e+001
6.411225e+002,1.655719e+001
6.420867e+002,1.519519e+001
6.430510e+002,1.471967e+001
6.440152e+002,1.482587e+001
6.449794e+002,1.469910e+001
6.459437e+002,1.403381e+001
6.469079e+002,1.300745e+001
6.478721e+002,1.167291e+001
6.488364e+002,1.029004e+001
6.498006e+002,9.504272e+000
6.507648e+002,1.101331e+001
6.517291e+002,1.341486e+001
6.526933e+002,1.327740e+001
6.536575e+002,9.781494e+000
6.546218e+002,4.718323e+000
6.555860e+002,1.414001e+000
6.565502e+002,-3.365479e-001
6.575145e+002,8.382568e-001
6.584787e+002,8.130859e+000
6.594429e+002,1.551563e+001
6.604072e+002,1.779718e+001
6.613714e+002,1.383777e+001
6.623356e+002,9.661011e+000
6.632999e+002,7.277039e+000
6.642641e+002,5.405212e+000
6.652283e+002,4.051941e+000
6.661926e+002,3.268921e+000
6.671568e+002,2.880127e+000
6.681210e+002,2.169739e+000
6.690853e+002,1.568298e+000
6.700495e+002,3.141663e+000
6.710137e+002,6.754517e+000
6.719780e+002,1.000800e+001
6.729422e+002,1.013116e+001
6.739064e+002,6.085266e+000
6.748707e+002,3.820923e+000
6.758349e+002,3.822205e+000
6.767991e+002,4.215149e+000
6.777634e+002,5.120911e+000
6.787276e+002,6.689575e+000
6.796918e+002,7.788513e+000
6.806561e+002,6.345825e+000
6.816203e+002,5.093018e+000
6.825845e+002,5.495789e+000
6.835488e+002,6.785278e+000
6.845130e+002,7.523560e+000
6.854772e+002,6.645752e+000
6.864415e+002,5.617615e+000
6.874057e+002,7.739319e+000
6.883699e+002,1.116577e+001
6.893342e+002,1.197937e+001
6.902984e+002,7.864014e+000
6.912626e+002,1.212158e-001
6.922269e+002,-3.418335e+000
6.931911e+002,2.521362e+000
6.941553e+002,7.129578e+000
6.951196e+002,8.369080e+000
6.960838e+002,7.294373e+000
6.970480e+002,5.556824e+000
6.980123e+002,2.719788e+000
6.989765e+002,2.207642e+000
6.999407e+002,7.291443e+000
7.009050e+002,1.315771e+001
7.018692e+002,1.571075e+001
7.028334e+002,1.366302e+001
7.037977e+002,9.412476e+000
7.047619e+002,6.400513e+000
7.057261e+002,4.865784e+000
7.066904e+002,4.646362e+000
7.076546e+002,5.696350e+000
7.086188e+002,7.493408e+000
7.095831e+002,9.301697e+000
7.105473e+002,1.124640e+001
7.115115e+002,1.153198e+001
7.124758e+002,8.980286e+000
7.134400e+002,5.959412e+000
7.144042e+002,4.095642e+000
7.153685e+002,3.651245e+000
7.163327e+002,3.428040e+000
7.172969e+002,1.837463e+000
7.182612e+002,1.615967e+000
7.192254e+002,5.743591e+000
7.201896e+002,1.178046e+001
7.211539e+002,1.466901e+001
7.221181e+002,9.811218e+000
7.230823e+002,8.700562e-001
7.240466e+002,-1.912659e+000
7.250108e+002,6.107178e-001
7.259750e+002,4.186035e+000
7.269393e+002,5.994812e+000
7.279035e+002,5.640015e+000
7.288677e+002,4.601379e+000
7.298320e+002,4.263184e+000
7.307962e+002,3.678955e+000
7.317604e+002,1.945801e+000
7.327247e+002,3.955688e-001
7.336889e+002,4.998169e-001
7.346531e+002,2.054199e+000
7.356174e+002,3.823547e+000
7.365816e+002,8.102661e+000
7.375458e+002,1.210950e+001
7.385101e+002,1.299677e+001
7.394743e+002,1.042139e+001
7.404385e+002,6.660950e+000
7.414028e+002,4.538818e+000
7.423670e+002,3.190796e+000
7.433312e+002,3.593140e+000
7.442955e+002,6.912476e+000
7.452597e+002,1.070770e+001
7.462239e+002,1.129688e+001
7.471882e+002,6.890320e+000
7.481524e+002,6.049988e+000
7.491166e+002,1.050049e+001
7.500809e+002,1.426746e+001
7.510451e+002,1.517242e+001
7.520093e+002,1.355762e+001
7.529736e+002,1.129742e+001
7.539378e+002,9.724792e+000
7.549020e+002,8.352173e+000
7.558663e+002,6.027771e+000
7.568306e+002,3.748718e+000
7.577948e+002,2.951355e+000
7.587590e+002,4.242554e+000
7.597233e+002,6.386292e+000
7.606875e+002,6.683960e+000
7.616517e+002,5.775208e+000
7.626160e+002,5.459656e+000
7.635802e+002,6.347534e+000
7.645444e+002,8.144958e+000
7.655087e+002,1.035352e+001
7.664729e+002,1.396246e+001
7.674371e+002,1.512219e+001
7.684014e+002,1.103717e+001
7.693656e+002,7.107849e+000
7.703298e+002,7.356995e+000
7.712941e+002,1.203601e+001
7.722583e+002,1.716901e+001
7.732225e+002,2.024237e+001
7.741868e+002,2.212195e+001
7.751510e+002,2.314490e+001
7.761152e+002,2.362878e+001
7.770795e+002,2.405670e+001
7.780437e+002,2.478375e+001
7.790079e+002,2.553070e+001
7.799722e+002,2.476886e+001
7.809364e+002,2.221185e+001
7.819006e+002,2.051074e+001
7.828649e+002,2.175897e+001
7.838291e+002,2.523370e+001
7.847933e+002,2.764691e+001
7.857576e+002,2.821289e+001
7.867218e+002,2.683984e+001
7.876860e+002,2.303180e+001
7.886503e+002,1.902765e+001
7.896145e+002,1.621552e+001
7.905787e+002,1.507788e+001
7.915430e+002,1.576501e+001
7.925072e+002,1.942664e+001
7.934714e+002,2.352124e+001
7.944357e+002,2.622290e+001
7.953999e+002,2.761292e+001
7.963641e+002,2.797375e+001
7.973284e+002,2.731836e+001
7.982926e+002,2.553870e+001
7.992568e+002,2.522241e+001
8.002211e+002,2.647217e+001
8.011853e+002,2.617529e+001
8.021495e+002,2.284314e+001
8.031138e+002,1.845020e+001
8.040780e+002,1.792603e+001
8.050422e+002,2.462384e+001
8.060065e+002,2.942865e+001
8.069707e+002,2.777997e+001
8.079349e+002,2.341821e+001
8.088992e+002,1.993933e+001
8.098634e+002,1.897504e+001
8.108276e+002,1.981512e+001
8.117919e+002,2.138928e+001
8.127561e+002,2.271777e+001
8.137203e+002,2.383881e+001
8.146846e+002,2.532196e+001
8.156488e+002,2.702234e+001
8.166130e+002,2.838641e+001
8.175773e+002,2.929364e+001
8.185415e+002,2.956378e+001
8.195057e+002,2.681036e+001
8.204700e+002,2.534540e+001
8.214342e+002,2.816797e+001
8.223984e+002,3.340662e+001
8.233627e+002,3.604608e+001
8.243269e+002,3.398193e+001
8.252911e+002,3.012152e+001
8.262554e+002,2.421741e+001
8.272196e+002,1.885107e+001
8.281838e+002,1.743585e+001
8.291481e+002,2.067725e+001
8.301123e+002,2.542987e+001
8.310765e+002,2.594470e+001
8.320408e+002,2.247168e+001
8.330050e+002,2.137939e+001
8.339692e+002,2.386383e+001
8.349335e+002,2.649933e+001
8.358977e+002,2.528430e+001
8.368619e+002,1.962280e+001
8.378262e+002,1.696844e+001
8.387904e+002,1.989270e+001
8.397546e+002,2.221344e+001
8.407189e+002,2.101904e+001
8.416831e+002,1.864960e+001
8.426473e+002,1.985583e+001
8.436116e+002,2.756720e+001
8.445758e+002,3.614264e+001
8.455400e+002,3.893512e+001
8.465043e+002,3.832050e+001
8.474685e+002,3.735724e+001
8.484327e+002,3.738104e+001
8.493970e+002,3.772620e+001
8.503612e+002,3.645551e+001
8.513254e+002,3.275092e+001
8.522897e+002,3.216992e+001
8.532539e+002,3.600623e+001
8.542181e+002,4.010156e+001
8.551824e+002,4.262427e+001
8.561466e+002,4.428613e+001
8.571108e+002,4.647638e+001
8.580751e+002,4.784833e+001
8.590393e+002,4.917700e+001
8.600035e+002,5.170154e+001
8.609678e+002,5.478479e+001
8.619320e+002,5.763367e+001
8.628962e+002,5.982587e+001
8.638605e+002,6.142139e+001
8.648247e+002,6.199280e+001
8.657889e+002,6.218573e+001
8.667532e+002,6.384857e+001
8.677174e+002,6.721143e+001
8.686816e+002,7.122925e+001
8.696459e+002,7.510724e+001
8.706101e+002,7.938867e+001
8.715743e+002,8.139911e+001
8.725386e+002,7.827411e+001
8.735028e+002,7.683710e+001
8.744670e+002,7.912006e+001
8.754313e+002,8.336298e+001
8.763955e+002,8.652020e+001
8.773597e+002,8.748822e+001
8.783240e+002,8.894617e+001
8.792882e+002,9.277246e+001
8.802524e+002,9.743677e+001
8.812167e+002,1.025077e+002
8.821809e+002,1.073567e+002
8.831451e+002,1.106682e+002
8.841094e+002,1.106538e+002
8.850736e+002,1.078894e+002
8.860378e+002,1.072732e+002
8.870021e+002,1.086819e+002
8.879663e+002,1.108901e+002
8.889305e+002,1.137459e+002
8.898948e+002,1.166985e+002
8.908590e+002,1.175111e+002
8.918232e+002,1.138633e+002
8.927875e+002,1.128138e+002
8.937517e+002,1.169457e+002
8.947159e+002,1.231376e+002
8.956802e+002,1.291781e+002
8.966444e+002,1.338832e+002
8.976086e+002,1.364453e+002
8.985729e+002,1.356766e+002
8.995371e+002,1.337220e+002
9.005013e+002,1.336674e+002
9.014656e+002,1.355636e+002
9.024298e+002,1.379586e+002
9.033940e+002,1.393902e+002
9.043583e+002,1.396304e+002
9.053225e+002,1.404987e+002
9.062867e+002,1.432181e+002
9.072510e+002,1.440303e+002
9.082152e+002,1.412391e+002
9.091794e+002,1.388480e+002
9.101437e+002,1.422776e+002
9.111079e+002,1.524219e+002
9.120721e+002,1.593111e+002
9.130364e+002,1.522021e+002
9.140006e+002,1.430697e+002
9.149648e+002,1.386168e+002
9.159291e+002,1.386094e+002
9.168933e+002,1.405452e+002
9.178575e+002,1.423690e+002
9.188218e+002,1.439559e+002
9.197860e+002,1.461700e+002
9.207502e+002,1.488990e+002
9.217145e+002,1.489698e+002
9.226787e+002,1.457261e+002
9.236429e+002,1.409822e+002
9.246072e+002,1.360670e+002
9.255714e+002,1.300625e+002
9.265356e+002,1.264094e+002
9.274999e+002,1.278655e+002
9.284641e+002,1.288578e+002
9.294283e+002,1.273003e+002
9.303926e+002,1.243754e+002
9.313568e+002,1.225218e+002
9.323210e+002,1.230309e+002
9.332853e+002,1.239312e+002
9.342495e+002,1.217704e+002
9.352137e+002,1.177711e+002
9.361780e+002,1.139085e+002
9.371422e+002,1.110473e+002
9.381064e+002,1.092306e+002
9.390707e+002,1.079828e+002
9.400349e+002,1.066819e+002
9.409991e+002,1.061451e+002
9.419634e+002,1.072538e+002
9.429276e+002,1.076154e+002
9.438918e+002,1.066134e+002
9.448561e+002,1.046934e+002
9.458203e+002,1.021979e+002
9.467845e+002,9.896887e+001
9.477488e+002,9.735052e+001
9.487130e+002,1.016096e+002
9.496772e+002,1.061731e+002
9.506415e+002,1.059616e+002
9.516057e+002,1.012388e+002
9.525699e+002,9.567944e+001
9.535342e+002,9.278241e+001
9.544984e+002,9.203436e+001
9.554626e+002,9.108820e+001
9.564269e+002,9.089081e+001
9.573911e+002,9.026776e+001
9.583553e+002,8.728473e+001
9.593196e+002,8.405188e+001
9.602838e+002,8.490137e+001
9.612480e+002,9.130731e+001
9.622123e+002,9.534912e+001
9.631765e+002,9.314246e+001
9.641407e+002,9.014752e+001
9.651050e+002,8.862323e+001
9.660692e+002,8.798975e+001
9.670334e+002,8.645319e+001
9.679977e+002,8.315521e+001
9.689619e+002,8.005847e+001
9.699261e+002,8.055841e+001
9.708904e+002,8.344513e+001
9.718546e+002,8.701599e+001
9.728188e+002,9.055103e+001
9.737831e+002,9.520728e+001
9.747473e+002,1.034601e+002
9.757115e+002,1.166105e+002
9.766758e+002,1.272903e+002
9.776400e+002,1.371670e+002
9.786042e+002,1.434459e+002
9.795685e+002,1.449961e+002
9.805327e+002,1.418406e+002
9.814969e+002,1.331695e+002
9.824612e+002,1.190267e+002
9.834254e+002,1.051185e+002
9.843896e+002,9.688348e+001
9.853539e+002,9.101422e+001
9.863181e+002,8.424243e+001
9.872823e+002,7.621521e+001
9.882466e+002,6.822961e+001
9.892108e+002,6.190332e+001
9.901750e+002,5.791296e+001
9.911393e+002,5.614148e+001
9.921035e+002,5.566241e+001
9.930677e+002,5.622491e+001
9.940320e+002,5.931372e+001
9.949962e+002,6.336951e+001
9.959604e+002,6.683527e+001
9.969247e+002,6.972778e+001
9.978889e+002,7.342303e+001
9.988531e+002,7.893231e+001
9.998174e+002,8.324133e+001
1.000782e+003,8.448425e+001
1.001746e+003,8.435693e+001
1.002710e+003,8.535156e+001
1.003674e+003,8.832379e+001
1.004639e+003,9.165961e+001
1.005603e+003,9.258142e+001
1.006567e+003,9.059009e+001
1.007531e+003,8.752448e+001
1.008495e+003,8.266638e+001
1.009460e+003,7.836029e+001
1.010424e+003,7.668591e+001
1.011388e+003,7.702008e+001
1.012352e+003,7.627277e+001
1.013317e+003,7.318719e+001
1.014281e+003,7.013733e+001
1.015245e+003,6.786664e+001
1.016209e+003,6.541290e+001
1.017174e+003,6.289551e+001
1.018138e+003,5.981976e+001
1.019102e+003,5.440497e+001
1.020066e+003,4.480725e+001
1.021031e+003,3.397748e+001
1.021995e+003,3.076312e+001
1.022959e+003,3.300500e+001
1.023923e+003,3.307935e+001
1.024887e+003,2.777167e+001
1.025852e+003,2.022522e+001
1.026816e+003,1.570410e+001
1.027780e+003,1.525354e+001
1.028744e+003,1.486780e+001
1.029709e+003,1.412231e+001
1.030673e+003,1.332977e+001
1.031637e+003,1.254285e+001
1.032601e+003,1.145831e+001
1.033566e+003,9.827942e+000
1.034530e+003,7.715515e+000
1.035494e+003,5.468689e+000
1.036458e+003,2.664612e+000
1.037422e+003,9.991455e-002
1.038387e+003,-7.169189e-001
1.039351e+003,7.891846e-002
1.040315e+003,1.811157e+000
1.041279e+003,4.252502e+000
1.042244e+003,7.461121e+000
1.043208e+003,1.072595e+001
1.044172e+003,1.395483e+001
1.045136e+003,1.623181e+001
1.046101e+003,1.847760e+001
1.047065e+003,1.946796e+001
1.048029e+003,1.736859e+001
1.048993e+003,1.294366e+001
1.049958e+003,9.362671e+000
1.050922e+003,8.377747e+000
1.051886e+003,8.833435e+000
1.052850e+003,9.709656e+000
1.053814e+003,1.083380e+001
1.054779e+003,1.207385e+001
1.055743e+003,1.327991e+001
1.056707e+003,1.419971e+001
1.057671e+003,1.452246e+001
1.058636e+003,1.413940e+001
1.059600e+003,1.434363e+001
1.060564e+003,1.724957e+001
1.061528e+003,1.896375e+001
1.062493e+003,1.730243e+001
1.063457e+003,1.430798e+001
1.064421e+003,1.285938e+001
1.065385e+003,1.343518e+001
1.066349e+003,1.322583e+001
1.067314e+003,9.359680e+000
1.068278e+003,6.145874e+000
1.069242e+003,7.435242e+000
1.070206e+003,1.134137e+001
1.071171e+003,1.481671e+001
1.072135e+003,1.624286e+001
1.073099e+003,1.585632e+001
1.074063e+003,1.437769e+001
1.075028e+003,1.186951e+001
1.075992e+003,9.912720e+000
1.076956e+003,8.222229e+000
1.077920e+003,6.579163e+000
1.078885e+003,4.995667e+000
1.079849e+003,4.051453e+000
1.080813e+003,4.784546e+000
1.081777e+003,7.753906e+000
1.082741e+003,1.051233e+001
1.083706e+003,1.005261e+001
1.084670e+003,9.551575e+000
1.085634e+003,1.149390e+001
1.086598e+003,1.467279e+001
1.087563e+003,1.681012e+001
1.088527e+003,1.682874e+001
1.089491e+003,1.549237e+001
1.090455e+003,1.331940e+001
1.091420e+003,9.781494e+000
1.092384e+003,7.925232e+000
1.093348e+003,8.333496e+000
1.094312e+003,8.550354e+000
1.095276e+003,7.256958e+000
1.096241e+003,5.279175e+000
1.097205e+003,4.378296e+000
1.098169e+003,4.853943e+000
1.099133e+003,4.933899e+000
1.100098e+003,3.613525e+000
1.101062e+003,2.483398e+000
1.102026e+003,2.613708e+000
1.102990e+003,3.841736e+000
1.103955e+003,5.533203e+000
1.104919e+003,7.183838e+000
1.105883e+003,8.398010e+000
1.106847e+003,8.456909e+000
1.107812e+003,7.265686e+000
1.108776e+003,6.596863e+000
1.109740e+003,6.563232e+000
1.110704e+003,6.988647e+000
1.111668e+003,8.489075e+000
1.112633e+003,1.101471e+001
1.113597e+003,1.300726e+001
1.114561e+003,1.411987e+001
1.115525e+003,1.408270e+001
1.116490e+003,1.173364e+001
1.117454e+003,9.297974e+000
1.118418e+003,8.360718e+000
1.119382e+003,9.151917e+000
1.120347e+003,1.107037e+001
1.121311e+003,1.335394e+001
1.122275e+003,1.539001e+001
1.123239e+003,1.743372e+001
1.124203e+003,1.999463e+001
1.125168e+003,2.165552e+001
1.126132e+003,2.208899e+001
1.127096e+003,2.261420e+001
1.128060e+003,2.403290e+001
1.129025e+003,2.600238e+001
1.129989e+003,2.778491e+001
1.130953e+003,2.933032e+001
1.131917e+003,3.012646e+001
1.132882e+003,2.932495e+001
1.133846e+003,2.896454e+001
1.134810e+003,3.076379e+001
1.135774e+003,3.407556e+001
1.136739e+003,3.684357e+001
1.137703e+003,3.789856e+001
1.138667e+003,3.866852e+001
1.139631e+003,4.142700e+001
1.140595e+003,4.637201e+001
1.141560e+003,5.456348e+001
1.142524e+003,6.706146e+001
1.143488e+003,8.067413e+001
1.144452e+003,9.228107e+001
1.145417e+003,1.030618e+002
1.146381e+003,1.179919e+002
1.147345e+003,1.392746e+002
1.148309e+003,1.585354e+002
1.149274e+003,1.703833e+002
1.150238e+003,1.837266e+002
1.151202e+003,2.058246e+002
1.152166e+003,2.327112e+002
1.153130e+003,2.566603e+002
1.154095e+003,2.735386e+002
1.155059e+003,2.847042e+002
1.156023e+003,2.932391e+002
1.156987e+003,2.984128e+002
1.157952e+003,2.960328e+002
1.158916e+003,2.864178e+002
1.159880e+003,2.733156e+002
1.160844e+003,2.566791e+002
1.161809e+003,2.367892e+002
1.162773e+003,2.154420e+002
1.163737e+003,1.922668e+002
1.164701e+003,1.696200e+002
1.165666e+003,1.465922e+002
1.166630e+003,1.265699e+002
1.167594e+003,1.108375e+002
1.168558e+003,9.879614e+001
1.169522e+003,9.016425e+001
1.170487e+003,8.448682e+001
1.171451e+003,8.080951e+001
1.172415e+003,7.821545e+001
1.173379e+003,7.619507e+001
1.174344e+003,7.257098e+001
1.175308e+003,6.742084e+001
1.176272e+003,6.283435e+001
1.177236e+003,5.973810e+001
1.178201e+003,5.764374e+001
1.179165e+003,5.586450e+001
1.180129e+003,5.406775e+001
1.181093e+003,5.138000e+001
1.182057e+003,4.759869e+001
1.183022e+003,4.337732e+001
1.183986e+003,3.747504e+001
1.184950e+003,3.238885e+001
1.185914e+003,3.106824e+001
1.186879e+003,3.338391e+001
1.187843e+003,3.692871e+001
1.188807e+003,3.964667e+001
1.189771e+003,4.129230e+001
1.190736e+003,4.138550e+001
1.191700e+003,3.963171e+001
1.192664e+003,3.902332e+001
1.193628e+003,4.191534e+001
1.194593e+003,4.385596e+001
1.195557e+003,4.037097e+001
1.196521e+003,3.313232e+001
1.197485e+003,2.856866e+001
1.198449e+003,2.857300e+001
1.199414e+003,2.855597e+001
1.200378e+003,2.634589e+001
1.201342e+003,2.359314e+001
1.202306e+003,2.091370e+001
1.203271e+003,1.828760e+001
1.204235e+003,1.574420e+001
1.205199e+003,1.332483e+001
1.206163e+003,1.061444e+001
1.207128e+003,6.622742e+000
1.208092e+003,1.265991e+000
1.209056e+003,-1.491638e+000
1.210020e+003,2.295532e-001
1.210984e+003,4.438477e-001
1.211949e+003,-2.788696e+000
1.212913e+003,-8.493103e+000
1.213877e+003,-1.629980e+001
1.214841e+003,-2.583850e+001
1.215806e+003,-3.293042e+001
1.216770e+003,-3.509070e+001
1.217734e+003,-3.591412e+001
1.218698e+003,-3.761993e+001
1.219663e+003,-4.021655e+001
1.220627e+003,-4.413684e+001
1.221591e+003,-4.901312e+001
1.222555e+003,-5.326385e+001
1.223520e+003,-5.530695e+001
1.224484e+003,-5.553876e+001
1.225448e+003,-5.677856e+001
1.226412e+003,-6.036719e+001
1.227376e+003,-6.203857e+001
1.228341e+003,-6.053516e+001
1.229305e+003,-5.891003e+001
1.230269e+003,-5.868719e+001
1.231233e+003,-5.960095e+001
1.232198e+003,-6.083136e+001
1.233162e+003,-6.197894e+001
1.234126e+003,-6.319733e+001
1.235090e+003,-6.542053e+001
1.236055e+003,-6.755017e+001
1.237019e+003,-6.845062e+001
1.237983e+003,-6.835327e+001
1.238947e+003,-6.713489e+001
1.239911e+003,-6.458057e+001
1.240876e+003,-6.241779e+001
1.241840e+003,-6.397528e+001
1.242804e+003,-6.966321e+001
1.243768e+003,-7.111554e+001
1.244733e+003,-6.317657e+001
1.245697e+003,-5.766882e+001
1.246661e+003,-5.758997e+001
1.247625e+003,-5.909558e+001
1.248590e+003,-5.870691e+001
1.249554e+003,-5.675433e+001
1.250518e+003,-5.641980e+001
1.251482e+003,-5.957886e+001
1.252447e+003,-6.282007e+001
1.253411e+003,-6.092291e+001
1.254375e+003,-5.602777e+001
1.255339e+003,-5.319604e+001
1.256303e+003,-5.240564e+001
1.257268e+003,-5.150623e+001
1.258232e+003,-4.950244e+001
1.259196e+003,-4.739453e+001
1.260160e+003,-4.695654e+001
1.261125e+003,-4.839722e+001
1.262089e+003,-4.776294e+001
1.263053e+003,-4.307330e+001
1.264017e+003,-3.902765e+001
1.264982e+003,-3.596942e+001
1.265946e+003,-3.425427e+001
1.266910e+003,-3.498450e+001
1.267874e+003,-3.740729e+001
1.268839e+003,-3.899390e+001
1.269803e+003,-3.802545e+001
1.270767e+003,-3.586707e+001
1.271731e+003,-3.501752e+001
1.272695e+003,-3.531262e+001
1.273660e+003,-3.588934e+001
1.274624e+003,-3.747229e+001
1.275588e+003,-3.917212e+001
1.276552e+003,-3.946509e+001
1.277517e+003,-3.926312e+001
1.278481e+003,-4.131409e+001
1.279445e+003,-4.615112e+001
1.280409e+003,-4.963654e+001
1.281374e+003,-4.974481e+001
1.282338e+003,-4.891534e+001
1.283302e+003,-4.790247e+001
1.284266e+003,-4.716595e+001
1.285230e+003,-4.706824e+001
1.286195e+003,-4.779724e+001
1.287159e+003,-4.978735e+001
1.288123e+003,-5.324115e+001
1.289087e+003,-5.660876e+001
1.290052e+003,-5.571564e+001
1.291016e+003,-4.862347e+001
1.291980e+003,-4.557806e+001
1.292944e+003,-4.998755e+001
1.293909e+003,-5.437451e+001
1.294873e+003,-5.493683e+001
1.295837e+003,-5.370551e+001
1.296801e+003,-5.396155e+001
1.297766e+003,-5.600665e+001
1.298730e+003,-5.734735e+001
1.299694e+003,-5.675458e+001
1.300658e+003,-5.545465e+001
1.301622e+003,-5.401599e+001
1.302587e+003,-5.275879e+001
1.303551e+003,-5.276324e+001
1.304515e+003,-5.392670e+001
1.305479e+003,-5.458575e+001
1.306444e+003,-5.348700e+001
1.307408e+003,-5.141211e+001
1.308372e+003,-5.035016e+001
1.309336e+003,-5.038623e+001
1.310301e+003,-5.133423e+001
1.311265e+003,-5.421283e+001
1.312229e+003,-5.622961e+001
1.313193e+003,-5.683136e+001
1.314157e+003,-5.616064e+001
1.315122e+003,-5.351270e+001
1.316086e+003,-4.975641e+001
1.317050e+003,-4.775983e+001
1.318014e+003,-4.935229e+001
1.318979e+003,-5.233167e+001
1.319943e+003,-5.317365e+001
1.320907e+003,-5.182178e+001
1.321871e+003,-4.985144e+001
1.322836e+003,-4.751331e+001
1.323800e+003,-4.582916e+001
1.324764e+003,-4.540417e+001
1.325728e+003,-4.577075e+001
1.326693e+003,-4.653156e+001
1.327657e+003,-4.790704e+001
1.328621e+003,-4.896838e+001
1.329585e+003,-4.836334e+001
1.330549e+003,-4.692627e+001
1.331514e+003,-4.566840e+001
1.332478e+003,-4.518573e+001
1.333442e+003,-4.639948e+001
1.334406e+003,-4.842883e+001
1.335371e+003,-4.882379e+001
1.336335e+003,-4.619360e+001
1.337299e+003,-4.231531e+001
1.338263e+003,-4.071454e+001
1.339228e+003,-4.162079e+001
1.340192e+003,-4.250653e+001
1.341156e+003,-4.327557e+001
1.342120e+003,-4.421057e+001
1.343084e+003,-4.677521e+001
1.344049e+003,-4.897772e+001
1.345013e+003,-4.824670e+001
1.345977e+003,-4.517865e+001
1.346941e+003,-4.247552e+001
1.347906e+003,-4.113483e+001
1.348870e+003,-4.024298e+001
1.349834e+003,-3.883313e+001
1.350798e+003,-3.782092e+001
1.351763e+003,-3.899890e+001
1.352727e+003,-4.174146e+001
1.353691e+003,-4.276636e+001
1.354655e+003,-4.039221e+001
1.355620e+003,-3.748468e+001
1.356584e+003,-3.784100e+001
1.357548e+003,-4.083142e+001
1.358512e+003,-4.175568e+001
1.359476e+003,-3.986011e+001
1.360441e+003,-3.893445e+001
1.361405e+003,-4.080975e+001
1.362369e+003,-4.246265e+001
1.363333e+003,-4.156805e+001
1.364298e+003,-3.988416e+001
1.365262e+003,-4.033832e+001
1.366226e+003,-4.328638e+001
1.367190e+003,-4.646893e+001
1.368155e+003,-4.790955e+001
1.369119e+003,-4.760352e+001
1.370083e+003,-4.521478e+001
1.371047e+003,-3.947961e+001
1.372011e+003,-3.631409e+001
1.372976e+003,-3.813525e+001
1.373940e+003,-4.009558e+001
1.374904e+003,-4.025854e+001
1.375868e+003,-3.934125e+001
1.376833e+003,-3.821582e+001
1.377797e+003,-3.715295e+001
1.378761e+003,-3.639954e+001
1.379725e+003,-3.601495e+001
1.380690e+003,-3.572021e+001
1.381654e+003,-3.509436e+001
1.382618e+003,-3.427148e+001
1.383582e+003,-3.350018e+001
1.384547e+003,-3.280933e+001
1.385511e+003,-3.223187e+001
1.386475e+003,-3.194012e+001
1.387439e+003,-3.193146e+001
1.388403e+003,-3.230927e+001
1.389368e+003,-3.311218e+001
1.390332e+003,-3.292413e+001
1.391296e+003,-3.079199e+001
1.392260e+003,-2.893646e+001
1.393225e+003,-2.853082e+001
1.394189e+003,-2.800305e+001
1.395153e+003,-2.580554e+001
1.396117e+003,-2.314941e+001
1.397082e+003,-2.189966e+001
1.398046e+003,-2.243158e+001
1.399010e+003,-2.402789e+001
1.399974e+003,-2.636511e+001
1.400938e+003,-2.901172e+001
1.401903e+003,-2.900421e+001
1.402867e+003,-2.404028e+001
1.403831e+003,-2.159595e+001
1.404795e+003,-2.517328e+001
1.405760e+003,-2.750122e+001
1.406724e+003,-2.524579e+001
1.407688e+003,-2.242719e+001
1.408652e+003,-2.377295e+001
1.409617e+003,-2.825641e+001
1.410581e+003,-3.049115e+001
1.411545e+003,-2.814032e+001
1.412509e+003,-2.434753e+001
1.413474e+003,-2.174005e+001
1.414438e+003,-2.061908e+001
1.415402e+003,-2.056940e+001
1.416366e+003,-2.123358e+001
1.417330e+003,-2.299231e+001
1.418295e+003,-2.642249e+001
1.419259e+003,-2.932520e+001
1.420223e+003,-2.908508e+001
1.421187e+003,-2.638196e+001
1.422152e+003,-2.382233e+001
1.423116e+003,-2.104681e+001
1.424080e+003,-1.819202e+001
1.425044e+003,-1.446277e+001
1.426009e+003,-1.251447e+001
1.426973e+003,-1.515448e+001
1.427937e+003,-1.924298e+001
1.428901e+003,-2.092334e+001
1.429865e+003,-1.972241e+001
1.430830e+003,-1.738385e+001
1.431794e+003,-1.530994e+001
1.432758e+003,-1.410400e+001
1.433722e+003,-1.459009e+001
1.434687e+003,-1.644141e+001
1.435651e+003,-1.606696e+001
1.436615e+003,-1.368628e+001
1.437579e+003,-1.161365e+001
1.438544e+003,-9.017517e+000
1.439508e+003,-7.452271e+000
1.440472e+003,-8.693115e+000
1.441436e+003,-1.092291e+001
1.442401e+003,-1.057959e+001
1.443365e+003,-7.234680e+000
1.444329e+003,-4.666565e+000
1.445293e+003,-5.756958e+000
1.446257e+003,-8.384521e+000
1.447222e+003,-8.547058e+000
1.448186e+003,-6.879822e+000
1.449150e+003,-6.555847e+000
1.450114e+003,-8.190491e+000
1.451079e+003,-1.031934e+001
1.452043e+003,-1.247992e+001
1.453007e+003,-1.395990e+001
1.453971e+003,-1.365863e+001
1.454936e+003,-1.203033e+001
1.455900e+003,-1.141052e+001
1.456864e+003,-1.254413e+001
1.457828e+003,-1.297192e+001
1.458792e+003,-1.089056e+001
1.459757e+003,-8.393250e+000
1.460721e+003,-6.705994e+000
1.461685e+003,-6.034424e+000
1.462649e+003,-6.696228e+000
1.463614e+003,-8.492981e+000
1.464578e+003,-1.041718e+001
1.465542e+003,-1.179108e+001
1.466506e+003,-1.281635e+001
1.467471e+003,-1.373291e+001
1.468435e+003,-1.433624e+001
1.469399e+003,-1.342413e+001
1.470363e+003,-1.111395e+001
1.471328e+003,-7.928833e+000
1.472292e+003,-2.138733e+000
1.473256e+003,1.891724e+000
1.474220e+003,9.338379e-003
1.475184e+003,-4.746460e+000
1.476149e+003,-6.409607e+000
1.477113e+003,-3.670959e+000
1.478077e+003,-1.128113e+000
1.479041e+003,-2.998291e+000
1.480006e+003,-6.961731e+000
1.480970e+003,-5.982117e+000
1.481934e+003,1.319763e+000
1.482898e+003,5.822021e+000
1.483863e+003,5.610718e+000
1.484827e+003,5.408264e+000
1.485791e+003,7.505981e+000
1.486755e+003,9.911926e+000
1.487719e+003,9.987915e+000
1.488684e+003,8.403015e+000
1.489648e+003,7.991516e+000
1.490612e+003,9.825806e+000
1.491576e+003,1.203467e+001
1.492541e+003,1.246936e+001
1.493505e+003,1.278723e+001
1.494469e+003,1.772473e+001
1.495433e+003,2.591949e+001
1.496398e+003,3.145929e+001
1.497362e+003,3.319702e+001
1.498326e+003,3.604230e+001
1.499290e+003,4.276837e+001
1.500255e+003,5.169928e+001
1.501219e+003,6.074176e+001
1.502183e+003,6.971625e+001
1.503147e+003,7.873108e+001
1.504111e+003,8.776306e+001
1.505076e+003,9.702283e+001
1.506040e+003,1.064159e+002
1.507004e+003,1.165557e+002
1.507968e+003,1.273674e+002
1.508933e+003,1.394537e+002
1.509897e+003,1.543028e+002
1.510861e+003,1.727139e+002
1.511825e+003,1.936573e+002
1.512790e+003,2.158436e+002
1.513754e+003,2.396672e+002
1.514718e+003,2.682029e+002
1.515682e+003,3.009987e+002
1.516646e+003,3.270245e+002
1.517611e+003,3.435335e+002
1.518575e+003,3.591497e+002
1.519539e+003,3.776575e+002
1.520503e+003,3.956598e+002
1.521468e+003,4.138236e+002
1.522432e+003,4.286426e+002
1.523396e+003,4.352491e+002
1.524360e+003,4.334578e+002
1.525325e+003,4.271097e+002
1.526289e+003,4.188756e+002
1.527253e+003,4.081863e+002
1.528217e+003,3.937691e+002
1.529182e+003,3.759504e+002
1.530146e+003,3.552733e+002
1.531110e+003,3.306274e+002
1.532074e+003,3.042658e+002
1.533039e+003,2.747979e+002
1.534003e+003,2.438334e+002
1.534967e+003,2.117509e+002
1.535931e+003,1.804852e+002
1.536896e+003,1.506646e+002
1.537860e+003,1.235530e+002
1.538824e+003,1.014743e+002
1.539788e+003,8.529877e+001
1.540752e+003,7.308063e+001
1.541717e+003,6.266058e+001
1.542681e+003,5.422864e+001
1.543645e+003,4.736877e+001
1.544609e+003,4.243677e+001
1.545573e+003,3.970502e+001
1.546538e+003,4.031671e+001
1.547502e+003,4.029022e+001
1.548466e+003,3.738251e+001
1.549430e+003,3.491840e+001
1.550395e+003,3.705737e+001
1.551359e+003,4.205060e+001
1.552323e+003,4.433844e+001
1.553287e+003,4.219208e+001
1.554252e+003,3.976715e+001
1.555216e+003,4.104480e+001
1.556180e+003,4.331531e+001
1.557144e+003,3.963385e+001
1.558109e+003,2.993054e+001
1.559073e+003,2.287408e+001
1.560037e+003,1.833301e+001
1.561001e+003,1.572321e+001
1.561966e+003,1.689789e+001
1.562930e+003,1.917163e+001
1.563894e+003,1.950867e+001
1.564858e+003,1.853906e+001
1.565823e+003,1.848480e+001
1.566787e+003,1.968109e+001
1.567751e+003,2.069470e+001
1.568715e+003,2.073987e+001
1.569679e+003,2.079449e+001
1.570644e+003,2.179199e+001
1.571608e+003,2.337335e+001
1.572572e+003,2.570154e+001
1.573536e+003,2.910345e+001
1.574500e+003,3.117645e+001
1.575465e+003,3.004657e+001
1.576429e+003,2.872046e+001
1.577393e+003,3.012238e+001
1.578357e+003,3.251367e+001
1.579322e+003,3.226697e+001
1.580286e+003,2.956238e+001
1.581250e+003,2.830475e+001
1.582214e+003,2.977362e+001
1.583179e+003,3.252075e+001
1.584143e+003,3.602209e+001
1.585107e+003,3.930798e+001
1.586071e+003,4.208331e+001
1.587036e+003,4.450696e+001
1.588000e+003,4.524414e+001
1.588964e+003,4.358740e+001
1.589928e+003,4.176575e+001
1.590893e+003,4.115326e+001
1.591857e+003,4.146075e+001
1.592821e+003,4.248944e+001
1.593785e+003,4.419702e+001
1.594750e+003,4.568427e+001
1.595714e+003,4.645367e+001
1.596678e+003,4.823578e+001
1.597642e+003,5.222620e+001
1.598606e+003,5.683990e+001
1.599571e+003,6.262115e+001
1.600535e+003,6.747986e+001
1.601499e+003,6.738629e+001
1.602463e+003,6.306378e+001
1.603427e+003,5.971692e+001
1.604392e+003,5.948676e+001
1.605356e+003,6.067596e+001
1.606320e+003,6.185272e+001
1.607284e+003,6.305780e+001
1.608249e+003,6.461707e+001
1.609213e+003,6.657440e+001
1.610177e+003,6.716943e+001
1.611141e+003,6.547980e+001
1.612106e+003,6.403070e+001
1.613070e+003,6.411145e+001
1.614034e+003,6.474194e+001
1.614998e+003,6.572845e+001
1.615963e+003,6.661774e+001
1.616927e+003,6.637073e+001
1.617891e+003,6.491650e+001
1.618855e+003,6.339862e+001
1.619820e+003,6.229327e+001
1.620784e+003,6.112598e+001
1.621748e+003,5.998163e+001
1.622712e+003,5.942883e+001
1.623677e+003,5.903406e+001
1.624641e+003,5.855023e+001
1.625605e+003,6.007819e+001
1.626569e+003,6.404218e+001
1.627533e+003,6.793732e+001
1.628498e+003,7.218323e+001
1.629462e+003,7.545355e+001
1.630426e+003,7.613153e+001
1.631390e+003,7.481812e+001
1.632354e+003,7.254541e+001
1.633319e+003,6.980219e+001
1.634283e+003,6.797485e+001
1.635247e+003,6.809753e+001
1.636211e+003,6.939911e+001
1.637176e+003,7.119824e+001
1.638140e+003,7.355359e+001
1.639104e+003,7.425531e+001
1.640068e+003,7.258813e+001
1.641033e+003,7.092871e+001
1.641997e+003,6.954669e+001
1.642961e+003,6.920117e+001
1.643925e+003,7.074261e+001
1.644890e+003,7.290704e+001
1.645854e+003,7.452325e+001
1.646818e+003,7.552649e+001
1.647782e+003,7.647028e+001
1.648747e+003,7.740656e+001
1.649711e+003,7.709222e+001
1.650675e+003,7.425720e+001
1.651639e+003,7.092920e+001
1.652604e+003,7.145978e+001
1.653568e+003,7.540259e+001
1.654532e+003,7.656140e+001
1.655496e+003,7.397430e+001
1.656460e+003,7.094727e+001
1.657425e+003,6.818127e+001
1.658389e+003,6.583997e+001
1.659353e+003,6.379547e+001
1.660317e+003,6.224420e+001
1.661281e+003,6.115192e+001
1.662246e+003,6.061377e+001
1.663210e+003,6.193823e+001
1.664174e+003,6.549890e+001
1.665138e+003,6.698456e+001
1.666103e+003,6.150073e+001
1.667067e+003,5.308380e+001
1.668031e+003,5.058795e+001
1.668995e+003,5.368335e+001
1.669960e+003,5.591962e+001
1.670924e+003,5.689587e+001
1.671888e+003,5.734167e+001
1.672852e+003,5.732813e+001
1.673817e+003,5.654840e+001
1.674781e+003,5.389478e+001
1.675745e+003,5.103394e+001
1.676709e+003,5.003864e+001
1.677674e+003,5.045056e+001
1.678638e+003,5.073206e+001
1.679602e+003,5.039972e+001
1.680566e+003,4.863525e+001
1.681531e+003,4.441785e+001
1.682495e+003,3.945947e+001
1.683459e+003,3.611511e+001
1.684423e+003,3.402875e+001
1.685387e+003,3.249377e+001
1.686352e+003,3.160852e+001
1.687316e+003,3.119531e+001
1.688280e+003,3.126404e+001
1.689244e+003,3.162701e+001
1.690208e+003,3.201483e+001
1.691173e+003,3.250610e+001
1.692137e+003,3.381348e+001
1.693101e+003,3.574213e+001
1.694065e+003,3.677081e+001
1.695030e+003,3.616718e+001
1.695994e+003,3.447095e+001
1.696958e+003,3.198499e+001
1.697922e+003,2.906152e+001
1.698887e+003,2.547162e+001
1.699851e+003,2.198242e+001
1.700815e+003,2.097522e+001
1.701779e+003,2.240570e+001
1.702744e+003,2.347040e+001
1.703708e+003,2.369128e+001
1.704672e+003,2.358923e+001
1.705636e+003,2.241803e+001
1.706601e+003,2.114685e+001
1.707565e+003,2.317853e+001
1.708529e+003,2.711786e+001
1.709493e+003,2.674261e+001
1.710458e+003,2.066522e+001
1.711422e+003,1.615887e+001
1.712386e+003,1.807190e+001
1.713350e+003,2.096790e+001
1.714314e+003,2.005237e+001
1.715279e+003,1.681061e+001
1.716243e+003,1.330231e+001
1.717207e+003,1.021295e+001
1.718171e+003,9.548157e+000
1.719135e+003,1.193665e+001
1.720100e+003,1.449719e+001
1.721064e+003,1.529138e+001
1.722028e+003,1.476410e+001
1.722992e+003,1.368781e+001
1.723957e+003,1.254309e+001
1.724921e+003,1.161554e+001
1.725885e+003,1.009332e+001
1.726849e+003,9.456970e+000
1.727814e+003,1.179083e+001
1.728778e+003,1.398639e+001
1.729742e+003,1.397736e+001
1.730706e+003,1.361578e+001
1.731671e+003,1.515186e+001
1.732635e+003,1.687659e+001
1.733599e+003,1.534528e+001
1.734563e+003,1.090863e+001
1.735528e+003,7.476990e+000
1.736492e+003,6.920532e+000
1.737456e+003,7.271545e+000
1.738420e+003,6.168762e+000
1.739385e+003,3.968628e+000
1.740349e+003,3.251404e+000
1.741313e+003,4.918823e+000
1.742277e+003,4.944824e+000
1.743241e+003,2.111267e+000
1.744206e+003,2.974854e-001
1.745170e+003,-2.261353e-001
1.746134e+003,2.121582e-001
1.747098e+003,2.249390e+000
1.748063e+003,4.471741e+000
1.749027e+003,5.326843e+000
1.749991e+003,5.026917e+000
1.750955e+003,4.308350e+000
1.751919e+003,3.561157e+000
1.752884e+003,3.562500e+000
1.753848e+003,4.994263e+000
1.754812e+003,6.529236e+000
1.755776e+003,5.483582e+000
1.756741e+003,2.331848e+000
1.757705e+003,1.891541e+000
1.758669e+003,5.199097e+000
1.759633e+003,7.255249e+000
1.760598e+003,6.984863e+000
1.761562e+003,5.607056e+000
1.762526e+003,3.122925e+000
1.763490e+003,7.984619e-001
1.764455e+003,-1.041931e+000
1.765419e+003,-1.761719e+000
1.766383e+003,1.959839e-001
1.767347e+003,3.917480e+000
1.768312e+003,5.339172e+000
1.769276e+003,2.387756e+000
1.770240e+003,-1.087585e+000
1.771204e+003,-1.775513e-001
1.772168e+003,3.287781e+000
1.773133e+003,4.080322e+000
1.774097e+003,2.492371e+000
1.775061e+003,1.498474e+000
1.776025e+003,9.431152e-001
1.776990e+003,1.506165e+000
1.777954e+003,4.644775e+000
1.778918e+003,7.528503e+000
1.779882e+003,7.716980e+000
1.780846e+003,6.073914e+000
1.781811e+003,3.359375e+000
1.782775e+003,3.759155e-001
1.783739e+003,-9.478760e-002
1.784703e+003,2.746521e+000
1.785668e+003,4.754150e+000
1.786632e+003,3.121460e+000
1.787596e+003,6.830444e-001
1.788560e+003,-3.219604e-001
1.789525e+003,-6.713867e-004
1.790489e+003,1.468079e+000
1.791453e+003,3.397400e+000
1.792417e+003,4.710999e+000
1.793382e+003,5.105774e+000
1.794346e+003,3.741272e+000
1.795310e+003,-8.813477e-002
1.796274e+003,-3.344116e+000
1.797239e+003,-2.057312e+000
1.798203e+003,2.656616e+000
1.799167e+003,5.989319e+000
1.800131e+003,7.287720e+000
1.801095e+003,6.113770e+000
1.802060e+003,-5.546265e-001
1.803024e+003,-3.136230e+000
1.803988e+003,2.425171e+000
1.804952e+003,7.829346e+000
1.805917e+003,9.022705e+000
1.806881e+003,8.263489e+000
1.807845e+003,7.741333e+000
1.808809e+003,7.697083e+000
1.809773e+003,7.907593e+000
1.810738e+003,8.103333e+000
1.811702e+003,7.366943e+000
1.812666e+003,5.149414e+000
1.813630e+003,3.357117e+000
1.814595e+003,4.853271e+000
1.815559e+003,8.434448e+000
1.816523e+003,9.443481e+000
1.817487e+003,7.716248e+000
1.818452e+003,6.240662e+000
1.819416e+003,5.394104e+000
1.820380e+003,5.187195e+000
1.821344e+003,5.430786e+000
1.822309e+003,5.818237e+000
1.823273e+003,6.690979e+000
1.824237e+003,7.751587e+000
1.825201e+003,8.092102e+000
1.826166e+003,8.106750e+000
1.827130e+003,9.500793e+000
1.828094e+003,1.235278e+001
1.829058e+003,1.380853e+001
1.830022e+003,1.206763e+001
1.830987e+003,1.014905e+001
1.831951e+003,1.127136e+001
1.832915e+003,1.322375e+001
1.833879e+003,1.213708e+001
1.834844e+003,9.110229e+000
1.835808e+003,8.148071e+000
1.836772e+003,9.711792e+000
1.837736e+003,1.088373e+001
1.838700e+003,1.020490e+001
1.839665e+003,9.184509e+000
1.840629e+003,9.451355e+000
1.841593e+003,1.020612e+001
1.842557e+003,9.173767e+000
1.843522e+003,6.393677e+000
1.844486e+003,6.366760e+000
1.845450e+003,1.281824e+001
1.846414e+003,1.571198e+001
1.847379e+003,1.063678e+001
1.848343e+003,6.843567e+000
1.849307e+003,8.962341e+000
1.850271e+003,1.167889e+001
1.851236e+003,1.083801e+001
1.852200e+003,8.665527e+000
1.853164e+003,8.175171e+000
1.854128e+003,9.139465e+000
1.855093e+003,1.028864e+001
1.856057e+003,1.125787e+001
1.857021e+003,1.113800e+001
1.857985e+003,8.719971e+000
1.858949e+003,5.710205e+000
1.859914e+003,5.189453e+000
1.860878e+003,6.950562e+000
1.861842e+003,9.456909e+000
1.862806e+003,1.258795e+001
1.863771e+003,1.545605e+001
1.864735e+003,1.795465e+001
1.865699e+003,1.907904e+001
1.866663e+003,1.771350e+001
1.867627e+003,1.691101e+001
1.868592e+003,2.048657e+001
1.869556e+003,2.496497e+001
1.870520e+003,2.364178e+001
1.871484e+003,1.749335e+001
1.872449e+003,1.326233e+001
1.873413e+003,1.272552e+001
1.874377e+003,1.392279e+001
1.875341e+003,1.666986e+001
1.876306e+003,1.869000e+001
1.877270e+003,1.785608e+001
1.878234e+003,1.631165e+001
1.879198e+003,1.625128e+001
1.880163e+003,1.739996e+001
1.881127e+003,1.950311e+001
1.882091e+003,2.194012e+001
1.883055e+003,2.280688e+001
1.884020e+003,2.145087e+001
1.884984e+003,1.971747e+001
1.885948e+003,1.928577e+001
1.886912e+003,1.992334e+001
1.887876e+003,2.147876e+001
1.888841e+003,2.379547e+001
1.889805e+003,2.411536e+001
1.890769e+003,2.193317e+001
1.891733e+003,2.049744e+001
1.892698e+003,2.003009e+001
1.893662e+003,1.979523e+001
1.894626e+003,1.992664e+001
1.895590e+003,2.001477e+001
1.896554e+003,1.975409e+001
1.897519e+003,1.969312e+001
1.898483e+003,2.074512e+001
1.899447e+003,2.197327e+001
1.900411e+003,2.047736e+001
1.901376e+003,1.561774e+001
1.902340e+003,1.374396e+001
1.903304e+003,1.946448e+001
1.904268e+003,2.506891e+001
1.905233e+003,2.539819e+001
1.906197e+003,2.408203e+001
1.907161e+003,2.518835e+001
1.908125e+003,2.740747e+001
1.909090e+003,2.725458e+001
1.910054e+003,2.488745e+001
1.911018e+003,2.326410e+001
1.911982e+003,2.360114e+001
1.912947e+003,2.546606e+001
1.913911e+003,2.844373e+001
1.914875e+003,3.054205e+001
1.915839e+003,2.810046e+001
1.916803e+003,2.234900e+001
1.917768e+003,2.145654e+001
1.918732e+003,2.666302e+001
1.919696e+003,3.028888e+001
1.920660e+003,3.201416e+001
1.921625e+003,3.339307e+001
1.922589e+003,3.460492e+001
1.923553e+003,3.523413e+001
1.924517e+003,3.481470e+001
1.925481e+003,3.402844e+001
1.926446e+003,3.341913e+001
1.927410e+003,3.293359e+001
1.928374e+003,3.240875e+001
1.929338e+003,3.158820e+001
1.930303e+003,3.000391e+001
1.931267e+003,2.746277e+001
1.932231e+003,2.625049e+001
1.933195e+003,2.731042e+001
1.934160e+003,2.931531e+001
1.935124e+003,3.137683e+001
1.936088e+003,3.355713e+001
1.937052e+003,3.798108e+001
1.938017e+003,4.250098e+001
1.938981e+003,4.084283e+001
1.939945e+003,3.354315e+001
1.940909e+003,2.796118e+001
1.941874e+003,2.736743e+001
1.942838e+003,2.893964e+001
1.943802e+003,3.045026e+001
1.944766e+003,3.200110e+001
1.945730e+003,3.304517e+001
1.946695e+003,3.338202e+001
1.947659e+003,3.327020e+001
1.948623e+003,3.248938e+001
1.949587e+003,3.279279e+001
1.950552e+003,3.482465e+001
1.951516e+003,3.698248e+001
1.952480e+003,3.914417e+001
1.953444e+003,4.035095e+001
1.954408e+003,3.907623e+001
1.955373e+003,3.685992e+001
1.956337e+003,3.617084e+001
1.957301e+003,3.710583e+001
1.958265e+003,3.921021e+001
1.959230e+003,4.295483e+001
1.960194e+003,4.408252e+001
1.961158e+003,3.783209e+001
1.962122e+003,3.406024e+001
1.963087e+003,3.779517e+001
1.964051e+003,4.180219e+001
1.965015e+003,4.219360e+001
1.965979e+003,4.132434e+001
1.966944e+003,4.105139e+001
1.967908e+003,4.116705e+001
1.968872e+003,4.095538e+001
1.969836e+003,4.055896e+001
1.970801e+003,4.076062e+001
1.971765e+003,4.193225e+001
1.972729e+003,4.397528e+001
1.973693e+003,4.724371e+001
1.974657e+003,4.991626e+001
1.975622e+003,4.757306e+001
1.976586e+003,4.282611e+001
1.977550e+003,4.445917e+001
1.978514e+003,5.121735e+001
1.979479e+003,5.388104e+001
1.980443e+003,5.123541e+001
1.981407e+003,4.895557e+001
1.982371e+003,4.928876e+001
1.983335e+003,5.040741e+001
1.984300e+003,5.075470e+001
1.985264e+003,5.078589e+001
1.986228e+003,5.159650e+001
1.987192e+003,5.276697e+001
1.988157e+003,5.201208e+001
1.989121e+003,4.877570e+001
1.990085e+003,4.734802e+001
1.991049e+003,4.918848e+001
1.992014e+003,5.029608e+001
1.992978e+003,4.764038e+001
1.993942e+003,4.730615e+001
1.994906e+003,5.496936e+001
1.995871e+003,6.200604e+001
1.996835e+003,6.152582e+001
1.997799e+003,5.698669e+001
1.998763e+003,5.131519e+001
1.999728e+003,4.617566e+001
