9.922330e+001,0.000000e+000
1.001875e+002,0.000000e+000
1.011518e+002,0.000000e+000
1.021160e+002,0.000000e+000
1.030802e+002,0.000000e+000
1.040445e+002,0.000000e+000
1.050087e+002,0.000000e+000
1.059729e+002,0.000000e+000
1.069372e+002,0.000000e+000
1.079014e+002,0.000000e+000
1.088656e+002,0.000000e+000
1.098299e+002,0.000000e+000
1.107941e+002,0.000000e+000
1.117583e+002,0.000000e+000
1.127226e+002,0.000000e+000
1.136868e+002,0.000000e+000
1.146510e+002,0.000000e+000
1.156153e+002,0.000000e+000
1.165795e+002,0.000000e+000
1.175437e+002,0.000000e+000
1.185080e+002,0.000000e+000
1.194722e+002,0.000000e+000
1.204364e+002,0.000000e+000
1.214007e+002,0.000000e+000
1.223649e+002,0.000000e+000
1.233291e+002,0.000000e+000
1.242934e+002,0.000000e+000
1.252576e+002,0.000000e+000
1.262218e+002,0.000000e+000
1.271861e+002,0.000000e+000
1.281503e+002,0.000000e+000
1.291145e+002,0.000000e+000
1.300788e+002,0.000000e+000
1.310430e+002,0.000000e+000
1.320072e+002,0.000000e+000
1.329715e+002,0.000000e+000
1.339357e+002,0.000000e+000
1.348999e+002,0.000000e+000
1.358642e+002,0.000000e+000
1.368284e+002,0.000000e+000
1.377926e+002,0.000000e+000
1.387569e+002,0.000000e+000
1.397211e+002,0.000000e+000
1.406853e+002,0.000000e+000
1.416496e+002,0.000000e+000
1.426138e+002,0.000000e+000
1.435780e+002,0.000000e+000
1.445423e+002,0.000000e+000
1.455065e+002,0.000000e+000
1.464707e+002,0.000000e+000
1.474350e+002,0.000000e+000
1.483992e+002,0.000000e+000
1.493634e+002,0.000000e+000
1.503277e+002,0.000000e+000
1.512919e+002,0.000000e+000
1.522561e+002,0.000000e+000
1.532204e+002,0.000000e+000
1.541846e+002,0.000000e+000
1.551488e+002,0.000000e+000
1.561131e+002,0.000000e+000
1.570773e+002,0.000000e+000
1.580415e+002,0.000000e+000
1.590058e+002,0.000000e+000
1.599700e+002,0.000000e+000
1.609342e+002,0.000000e+000
1.618985e+002,0.000000e+000
1.628627e+002,0.000000e+000
1.638269e+002,0.000000e+000
1.647912e+002,0.000000e+000
1.657554e+002,0.000000e+000
1.667196e+002,0.000000e+000
1.676839e+002,0.000000e+000
1.686481e+002,0.000000e+000
1.696123e+002,0.000000e+000
1.705766e+002,0.000000e+000
1.715408e+002,0.000000e+000
1.725050e+002,0.000000e+000
1.734693e+002,0.000000e+000
1.744335e+002,0.000000e+000
1.753977e+002,0.000000e+000
1.763620e+002,0.000000e+000
1.773262e+002,0.000000e+000
1.782904e+002,0.000000e+000
1.792547e+002,0.000000e+000
1.802189e+002,0.000000e+000
1.811831e+002,0.000000e+000
1.821474e+002,0.000000e+000
1.831116e+002,0.000000e+000
1.840758e+002,0.000000e+000
1.850401e+002,0.000000e+000
1.860043e+002,0.000000e+000
1.869685e+002,0.000000e+000
1.879328e+002,0.000000e+000
1.888970e+002,0.000000e+000
1.898612e+002,0.000000e+000
1.908255e+002,0.000000e+000
1.917897e+002,0.000000e+000
1.927540e+002,0.000000e+000
1.937182e+002,0.000000e+000
1.946824e+002,0.000000e+000
1.956467e+002,0.000000e+000
1.966109e+002,0.000000e+000
1.975751e+002,0.000000e+000
1.985394e+002,0.000000e+000
1.995036e+002,0.000000e+000
2.004678e+002,0.000000e+000
2.014321e+002,0.000000e+000
2.023963e+002,0.000000e+000
2.033605e+002,0.000000e+000
2.043248e+002,0.000000e+000
2.052890e+002,0.000000e+000
2.062532e+002,0.000000e+000
2.072175e+002,0.000000e+000
2.081817e+002,0.000000e+000
2.091459e+002,0.000000e+000
2.101102e+002,0.000000e+000
2.110744e+002,0.000000e+000
2.120386e+002,0.000000e+000
2.130029e+002,0.000000e+000
2.139671e+002,0.000000e+000
2.149313e+002,0.000000e+000
2.158956e+002,0.000000e+000
2.168598e+002,0.000000e+000
2.178240e+002,0.000000e+000
2.187883e+002,0.000000e+000
2.197525e+002,0.000000e+000
2.207167e+002,0.000000e+000
2.216810e+002,0.000000e+000
2.226452e+002,0.000000e+000
2.236094e+002,0.000000e+000
2.245737e+002,0.000000e+000
2.255379e+002,0.000000e+000
2.265021e+002,0.000000e+000
2.274664e+002,0.000000e+000
2.284306e+002,0.000000e+000
2.293948e+002,0.000000e+000
2.303591e+002,0.000000e+000
2.313233e+002,0.000000e+000
2.322875e+002,0.000000e+000
2.332518e+002,0.000000e+000
2.342160e+002,0.000000e+000
2.351802e+002,0.000000e+000
2.361445e+002,0.000000e+000
2.371087e+002,0.000000e+000
2.380729e+002,0.000000e+000
2.390372e+002,0.000000e+000
2.400014e+002,0.000000e+000
2.409656e+002,0.000000e+000
2.419299e+002,0.000000e+000
2.428941e+002,0.000000e+000
2.438583e+002,0.000000e+000
2.448226e+002,0.000000e+000
2.457868e+002,0.000000e+000
2.467510e+002,0.000000e+000
2.477153e+002,0.000000e+000
2.486795e+002,0.000000e+000
2.496437e+002,0.000000e+000
2.506080e+002,0.000000e+000
2.515722e+002,0.000000e+000
2.525364e+002,0.000000e+000
2.535007e+002,0.000000e+000
2.544649e+002,0.000000e+000
2.554291e+002,0.000000e+000
2.563934e+002,0.000000e+000
2.573576e+002,0.000000e+000
2.583218e+002,0.000000e+000
2.592861e+002,0.000000e+000
2.602503e+002,0.000000e+000
2.612145e+002,0.000000e+000
2.621788e+002,0.000000e+000
2.631430e+002,0.000000e+000
2.641072e+002,0.000000e+000
2.650715e+002,0.000000e+000
2.660357e+002,0.000000e+000
2.669999e+002,0.000000e+000
2.679642e+002,0.000000e+000
2.689284e+002,0.000000e+000
2.698926e+002,0.000000e+000
2.708569e+002,0.000000e+000
2.718211e+002,0.000000e+000
2.727853e+002,0.000000e+000
2.737496e+002,0.000000e+000
2.747138e+002,0.000000e+000
2.756780e+002,0.000000e+000
2.766423e+002,0.000000e+000
2.776065e+002,0.000000e+000
2.785707e+002,0.000000e+000
2.795350e+002,0.000000e+000
2.804992e+002,0.000000e+000
2.814634e+002,0.000000e+000
2.824277e+002,0.000000e+000
2.833919e+002,0.000000e+000
2.843561e+002,0.000000e+000
2.853204e+002,0.000000e+000
2.862846e+002,0.000000e+000
2.872488e+002,0.000000e+000
2.882131e+002,0.000000e+000
2.891773e+002,0.000000e+000
2.901415e+002,0.000000e+000
2.911058e+002,0.000000e+000
2.920700e+002,0.000000e+000
2.930342e+002,0.000000e+000
2.939985e+002,0.000000e+000
2.949627e+002,0.000000e+000
2.959269e+002,0.000000e+000
2.968912e+002,0.000000e+000
2.978554e+002,0.000000e+000
2.988196e+002,0.000000e+000
2.997839e+002,0.000000e+000
3.007481e+002,0.000000e+000
3.017123e+002,0.000000e+000
3.026766e+002,0.000000e+000
3.036408e+002,0.000000e+000
3.046050e+002,0.000000e+000
3.055693e+002,0.000000e+000
3.065335e+002,0.000000e+000
3.074977e+002,0.000000e+000
3.084620e+002,0.000000e+000
3.094262e+002,0.000000e+000
3.103904e+002,0.000000e+000
3.113547e+002,0.000000e+000
3.123189e+002,0.000000e+000
3.132831e+002,0.000000e+000
3.142474e+002,0.000000e+000
3.152116e+002,0.000000e+000
3.161758e+002,0.000000e+000
3.171401e+002,0.000000e+000
3.181043e+002,0.000000e+000
3.190685e+002,0.000000e+000
3.200328e+002,0.000000e+000
3.209970e+002,0.000000e+000
3.219612e+002,0.000000e+000
3.229255e+002,0.000000e+000
3.238897e+002,0.000000e+000
3.248539e+002,0.000000e+000
3.258182e+002,0.000000e+000
3.267824e+002,0.000000e+000
3.277466e+002,0.000000e+000
3.287109e+002,0.000000e+000
3.296751e+002,0.000000e+000
3.306393e+002,0.000000e+000
3.316036e+002,0.000000e+000
3.325678e+002,0.000000e+000
3.335320e+002,0.000000e+000
3.344963e+002,0.000000e+000
3.354605e+002,0.000000e+000
3.364247e+002,0.000000e+000
3.373890e+002,0.000000e+000
3.383532e+002,0.000000e+000
3.393174e+002,0.000000e+000
3.402817e+002,0.000000e+000
3.412459e+002,0.000000e+000
3.422101e+002,0.000000e+000
3.431744e+002,0.000000e+000
3.441386e+002,0.000000e+000
3.451028e+002,0.000000e+000
3.460671e+002,0.000000e+000
3.470313e+002,0.000000e+000
3.479955e+002,0.000000e+000
3.489598e+002,0.000000e+000
3.499240e+002,0.000000e+000
3.508882e+002,0.000000e+000
3.518525e+002,0.000000e+000
3.528167e+002,0.000000e+000
3.537809e+002,0.000000e+000
3.547452e+002,0.000000e+000
3.557094e+002,0.000000e+000
3.566736e+002,0.000000e+000
3.576379e+002,0.000000e+000
3.586021e+002,0.000000e+000
3.595663e+002,0.000000e+000
3.605306e+002,0.000000e+000
3.614948e+002,0.000000e+000
3.624590e+002,0.000000e+000
3.634233e+002,0.000000e+000
3.643875e+002,0.000000e+000
3.653517e+002,0.000000e+000
3.663160e+002,0.000000e+000
3.672802e+002,0.000000e+000
3.682444e+002,0.000000e+000
3.692087e+002,0.000000e+000
3.701729e+002,0.000000e+000
3.711371e+002,0.000000e+000
3.721014e+002,0.000000e+000
3.730656e+002,0.000000e+000
3.740298e+002,0.000000e+000
3.749941e+002,0.000000e+000
3.759583e+002,0.000000e+000
3.769225e+002,0.000000e+000
3.778868e+002,0.000000e+000
3.788510e+002,0.000000e+000
3.798152e+002,0.000000e+000
3.807795e+002,0.000000e+000
3.817437e+002,0.000000e+000
3.827079e+002,0.000000e+000
3.836722e+002,0.000000e+000
3.846364e+002,0.000000e+000
3.856006e+002,0.000000e+000
3.865649e+002,0.000000e+000
3.875291e+002,0.000000e+000
3.884933e+002,0.000000e+000
3.894576e+002,0.000000e+000
3.904218e+002,0.000000e+000
3.913860e+002,0.000000e+000
3.923503e+002,0.000000e+000
3.933145e+002,0.000000e+000
3.942787e+002,0.000000e+000
3.952430e+002,0.000000e+000
3.962072e+002,0.000000e+000
3.971714e+002,0.000000e+000
3.981357e+002,0.000000e+000
3.990999e+002,0.000000e+000
4.000641e+002,0.000000e+000
4.010284e+002,0.000000e+000
4.019926e+002,0.000000e+000
4.029568e+002,0.000000e+000
4.039211e+002,0.000000e+000
4.048853e+002,0.000000e+000
4.058495e+002,0.000000e+000
4.068138e+002,0.000000e+000
4.077780e+002,0.000000e+000
4.087422e+002,0.000000e+000
4.097065e+002,0.000000e+000
4.106707e+002,0.000000e+000
4.116349e+002,0.000000e+000
4.125992e+002,0.000000e+000
4.135634e+002,0.000000e+000
4.145276e+002,0.000000e+000
4.154919e+002,0.000000e+000
4.164561e+002,0.000000e+000
4.174203e+002,0.000000e+000
4.183846e+002,0.000000e+000
4.193488e+002,0.000000e+000
4.203130e+002,0.000000e+000
4.212773e+002,0.000000e+000
4.222415e+002,0.000000e+000
4.232057e+002,0.000000e+000
4.241700e+002,0.000000e+000
4.251342e+002,0.000000e+000
4.260984e+002,0.000000e+000
4.270627e+002,0.000000e+000
4.280269e+002,0.000000e+000
4.289911e+002,0.000000e+000
4.299554e+002,0.000000e+000
4.309196e+002,0.000000e+000
4.318839e+002,0.000000e+000
4.328481e+002,0.000000e+000
4.338123e+002,0.000000e+000
4.347766e+002,0.000000e+000
4.357408e+002,0.000000e+000
4.367050e+002,0.000000e+000
4.376693e+002,0.000000e+000
4.386335e+002,0.000000e+000
4.395977e+002,0.000000e+000
4.405620e+002,0.000000e+000
4.415262e+002,0.000000e+000
4.424904e+002,0.000000e+000
4.434547e+002,0.000000e+000
4.444189e+002,0.000000e+000
4.453831e+002,0.000000e+000
4.463474e+002,0.000000e+000
4.473116e+002,0.000000e+000
4.482758e+002,0.000000e+000
4.492401e+002,0.000000e+000
4.502043e+002,0.000000e+000
4.511685e+002,0.000000e+000
4.521328e+002,0.000000e+000
4.530970e+002,0.000000e+000
4.540612e+002,0.000000e+000
4.550255e+002,0.000000e+000
4.559897e+002,0.000000e+000
4.569539e+002,0.000000e+000
4.579182e+002,0.000000e+000
4.588824e+002,0.000000e+000
4.598466e+002,0.000000e+000
4.608109e+002,0.000000e+000
4.617751e+002,0.000000e+000
4.627393e+002,0.000000e+000
4.637036e+002,0.000000e+000
4.646678e+002,0.000000e+000
4.656320e+002,0.000000e+000
4.665963e+002,0.000000e+000
4.675605e+002,0.000000e+000
4.685247e+002,0.000000e+000
4.694890e+002,0.000000e+000
4.704532e+002,0.000000e+000
4.714174e+002,0.000000e+000
4.723817e+002,0.000000e+000
4.733459e+002,0.000000e+000
4.743102e+002,0.000000e+000
4.752744e+002,0.000000e+000
4.762386e+002,0.000000e+000
4.772029e+002,0.000000e+000
4.781671e+002,0.000000e+000
4.791313e+002,0.000000e+000
4.800956e+002,0.000000e+000
4.810598e+002,0.000000e+000
4.820240e+002,0.000000e+000
4.829883e+002,0.000000e+000
4.839525e+002,0.000000e+000
4.849167e+002,0.000000e+000
4.858810e+002,0.000000e+000
4.868452e+002,0.000000e+000
4.878094e+002,0.000000e+000
4.887737e+002,0.000000e+000
4.897379e+002,0.000000e+000
4.907021e+002,0.000000e+000
4.916664e+002,0.000000e+000
4.926306e+002,0.000000e+000
4.935948e+002,0.000000e+000
4.945591e+002,0.000000e+000
4.955233e+002,0.000000e+000
4.964875e+002,0.000000e+000
4.974518e+002,0.000000e+000
4.984160e+002,0.000000e+000
4.993802e+002,0.000000e+000
5.003445e+002,9.538837e+001
5.013087e+002,9.549136e+001
5.022729e+002,9.453001e+001
5.032372e+002,9.278171e+001
5.042014e+002,9.069545e+001
5.051656e+002,8.841180e+001
5.061299e+002,8.668357e+001
5.070941e+002,8.621950e+001
5.080583e+002,8.723036e+001
5.090226e+002,8.805503e+001
5.099868e+002,8.879867e+001
5.109510e+002,8.932195e+001
5.119153e+002,8.988222e+001
5.128795e+002,9.056757e+001
5.138438e+002,8.985889e+001
5.148080e+002,8.522615e+001
5.157722e+002,8.099149e+001
5.167365e+002,7.923728e+001
5.177007e+002,7.995504e+001
5.186649e+002,8.122832e+001
5.196292e+002,8.077667e+001
5.205934e+002,7.981902e+001
5.215576e+002,7.973344e+001
5.225219e+002,8.048605e+001
5.234861e+002,8.126201e+001
5.244503e+002,8.067315e+001
5.254146e+002,7.827073e+001
5.263788e+002,7.701303e+001
5.273430e+002,7.771773e+001
5.283073e+002,7.900947e+001
5.292715e+002,7.885322e+001
5.302357e+002,7.613086e+001
5.312000e+002,7.394949e+001
5.321642e+002,7.281489e+001
5.331284e+002,7.237241e+001
5.340927e+002,7.254771e+001
5.350569e+002,7.332608e+001
5.360211e+002,7.372819e+001
5.369854e+002,7.291906e+001
5.379496e+002,7.155562e+001
5.389138e+002,6.974998e+001
5.398781e+002,6.769418e+001
5.408423e+002,6.585307e+001
5.418065e+002,6.592198e+001
5.427708e+002,6.759412e+001
5.437350e+002,6.882417e+001
5.446992e+002,6.905248e+001
5.456635e+002,6.847067e+001
5.466277e+002,6.778244e+001
5.475919e+002,6.657996e+001
5.485562e+002,6.592628e+001
5.495204e+002,6.642603e+001
5.504846e+002,6.722148e+001
5.514489e+002,6.707049e+001
5.524131e+002,6.527793e+001
5.533773e+002,6.321078e+001
5.543416e+002,6.111443e+001
5.553058e+002,5.940701e+001
5.562700e+002,5.864181e+001
5.572343e+002,5.913271e+001
5.581985e+002,6.026955e+001
5.591627e+002,6.068407e+001
5.601270e+002,6.068052e+001
5.610912e+002,6.075621e+001
5.620554e+002,6.115489e+001
5.630197e+002,6.175318e+001
5.639839e+002,6.176093e+001
5.649481e+002,6.101802e+001
5.659124e+002,5.995215e+001
5.668766e+002,5.841132e+001
5.678408e+002,5.670942e+001
5.688051e+002,5.558922e+001
5.697693e+002,5.533957e+001
5.707335e+002,5.531664e+001
5.716978e+002,5.583228e+001
5.726620e+002,5.635495e+001
5.736262e+002,5.606044e+001
5.745905e+002,5.423851e+001
5.755547e+002,5.213900e+001
5.765189e+002,5.159900e+001
5.774832e+002,5.205524e+001
5.784474e+002,5.280666e+001
5.794116e+002,5.341395e+001
5.803759e+002,5.393143e+001
5.813401e+002,5.414856e+001
5.823043e+002,5.409924e+001
5.832686e+002,5.346984e+001
5.842328e+002,5.166413e+001
5.851970e+002,4.906328e+001
5.861613e+002,4.777341e+001
5.871255e+002,4.948002e+001
5.880897e+002,5.092074e+001
5.890540e+002,5.154782e+001
5.900182e+002,5.142950e+001
5.909824e+002,5.073968e+001
5.919467e+002,4.936269e+001
5.929109e+002,4.804289e+001
5.938751e+002,4.728467e+001
5.948394e+002,4.709829e+001
5.958036e+002,4.783910e+001
5.967678e+002,4.974034e+001
5.977321e+002,5.242909e+001
5.986963e+002,5.203863e+001
5.996605e+002,4.839697e+001
6.006248e+002,4.540820e+001
6.015890e+002,4.534769e+001
6.025532e+002,4.796609e+001
6.035175e+002,4.931022e+001
6.044817e+002,4.796188e+001
6.054459e+002,4.677859e+001
6.064102e+002,4.596108e+001
6.073744e+002,4.560046e+001
6.083386e+002,4.591071e+001
6.093029e+002,4.750233e+001
6.102671e+002,4.880613e+001
6.112313e+002,4.829180e+001
6.121956e+002,4.691002e+001
6.131598e+002,4.596741e+001
6.141240e+002,4.634133e+001
6.150883e+002,4.756600e+001
6.160525e+002,4.760855e+001
6.170167e+002,4.673064e+001
6.179810e+002,4.584925e+001
6.189452e+002,4.530245e+001
6.199094e+002,4.501479e+001
6.208737e+002,4.474762e+001
6.218379e+002,4.480944e+001
6.228021e+002,4.471131e+001
6.237664e+002,4.392604e+001
6.247306e+002,4.310811e+001
6.256948e+002,4.348573e+001
6.266591e+002,4.616673e+001
6.276233e+002,4.837247e+001
6.285875e+002,4.854616e+001
6.295518e+002,4.758822e+001
6.305160e+002,4.620722e+001
6.314802e+002,4.481578e+001
6.324445e+002,4.345799e+001
6.334087e+002,4.227673e+001
6.343729e+002,4.135993e+001
6.353372e+002,4.105843e+001
6.363014e+002,4.160147e+001
6.372656e+002,4.263068e+001
6.382299e+002,4.292141e+001
6.391941e+002,4.129671e+001
6.401583e+002,4.041324e+001
6.411226e+002,4.093874e+001
6.420868e+002,4.207594e+001
6.430510e+002,4.289169e+001
6.440153e+002,4.311549e+001
6.449795e+002,4.275826e+001
6.459437e+002,4.156272e+001
6.469080e+002,4.013374e+001
6.478722e+002,3.886137e+001
6.488364e+002,3.794855e+001
6.498007e+002,3.742773e+001
6.507649e+002,3.753740e+001
6.517291e+002,3.798392e+001
6.526934e+002,3.797033e+001
6.536576e+002,3.729865e+001
6.546218e+002,3.657581e+001
6.555861e+002,3.706561e+001
6.565503e+002,4.000871e+001
6.575145e+002,4.135744e+001
6.584788e+002,3.999551e+001
6.594430e+002,3.817126e+001
6.604072e+002,3.786678e+001
6.613715e+002,3.954166e+001
6.623357e+002,4.071361e+001
6.632999e+002,3.982709e+001
6.642642e+002,3.836215e+001
6.652284e+002,3.672243e+001
6.661926e+002,3.526677e+001
6.671569e+002,3.442331e+001
6.681211e+002,3.488208e+001
6.690853e+002,3.612167e+001
6.700496e+002,3.674371e+001
6.710138e+002,3.675198e+001
6.719780e+002,3.661459e+001
6.729423e+002,3.682151e+001
6.739065e+002,3.741494e+001
6.748707e+002,3.791940e+001
6.758350e+002,3.831506e+001
6.767992e+002,3.863551e+001
6.777634e+002,3.915668e+001
6.787277e+002,3.983009e+001
6.796919e+002,3.995897e+001
6.806561e+002,3.872427e+001
6.816204e+002,3.727142e+001
6.825846e+002,3.556137e+001
6.835488e+002,3.404817e+001
6.845131e+002,3.350292e+001
6.854773e+002,3.461147e+001
6.864415e+002,3.656563e+001
6.874058e+002,3.726408e+001
6.883700e+002,3.704006e+001
6.893342e+002,3.699906e+001
6.902985e+002,3.781378e+001
6.912627e+002,3.930991e+001
6.922269e+002,4.009595e+001
6.931912e+002,4.009093e+001
6.941554e+002,3.968585e+001
6.951196e+002,3.850951e+001
6.960839e+002,3.691592e+001
6.970481e+002,3.537481e+001
6.980123e+002,3.367200e+001
6.989766e+002,3.307362e+001
6.999408e+002,3.445005e+001
7.009050e+002,3.651977e+001
7.018693e+002,3.864551e+001
7.028335e+002,4.040646e+001
7.037977e+002,4.130314e+001
7.047620e+002,3.994195e+001
7.057262e+002,3.739880e+001
7.066904e+002,3.561589e+001
7.076547e+002,3.490644e+001
7.086189e+002,3.512000e+001
7.095831e+002,3.611816e+001
7.105474e+002,3.833884e+001
7.115116e+002,3.976319e+001
7.124758e+002,4.064243e+001
7.134401e+002,4.065240e+001
7.144043e+002,3.900449e+001
7.153685e+002,3.583021e+001
7.163328e+002,3.373075e+001
7.172970e+002,3.547568e+001
7.182612e+002,3.713988e+001
7.192255e+002,3.666904e+001
7.201897e+002,3.480653e+001
7.211539e+002,3.338536e+001
7.221182e+002,3.396663e+001
7.230824e+002,3.590630e+001
7.240466e+002,3.768571e+001
7.250109e+002,3.930161e+001
7.259751e+002,4.023376e+001
7.269393e+002,4.011694e+001
7.279036e+002,3.888833e+001
7.288678e+002,3.680452e+001
7.298320e+002,3.148720e+001
7.307963e+002,2.876287e+001
7.317605e+002,3.070788e+001
7.327247e+002,3.481354e+001
7.336890e+002,3.764479e+001
7.346532e+002,3.811080e+001
7.356174e+002,3.746235e+001
7.365817e+002,3.599066e+001
7.375459e+002,3.450990e+001
7.385101e+002,3.370060e+001
7.394744e+002,3.367614e+001
7.404386e+002,3.393227e+001
7.414028e+002,3.362370e+001
7.423671e+002,3.278162e+001
7.433313e+002,3.247514e+001
7.442955e+002,3.296098e+001
7.452598e+002,3.357629e+001
7.462240e+002,3.335499e+001
7.471882e+002,3.181870e+001
7.481525e+002,3.141969e+001
7.491167e+002,3.345888e+001
7.500809e+002,3.472410e+001
7.510452e+002,3.323180e+001
7.520094e+002,2.982031e+001
7.529736e+002,2.770195e+001
7.539379e+002,2.936211e+001
7.549021e+002,3.138644e+001
7.558663e+002,3.116226e+001
7.568306e+002,2.996680e+001
7.577948e+002,2.975851e+001
7.587590e+002,3.161576e+001
7.597233e+002,3.449156e+001
7.606875e+002,3.521388e+001
7.616517e+002,3.412456e+001
7.626160e+002,3.336564e+001
7.635802e+002,3.365746e+001
7.645444e+002,3.439938e+001
7.655087e+002,3.407530e+001
7.664729e+002,3.121940e+001
7.674371e+002,3.066112e+001
7.684014e+002,3.469681e+001
7.693656e+002,3.883743e+001
7.703298e+002,3.996383e+001
7.712941e+002,3.789091e+001
7.722583e+002,3.548091e+001
7.732225e+002,3.455688e+001
7.741868e+002,3.438879e+001
7.751510e+002,3.467516e+001
7.761152e+002,3.521286e+001
7.770795e+002,3.566336e+001
7.780437e+002,3.571329e+001
7.790079e+002,3.541732e+001
7.799722e+002,3.551404e+001
7.809364e+002,3.601471e+001
7.819006e+002,3.649007e+001
7.828649e+002,3.684913e+001
7.838291e+002,3.714946e+001
7.847933e+002,3.748552e+001
7.857576e+002,3.806303e+001
7.867218e+002,3.797811e+001
7.876860e+002,3.675034e+001
7.886503e+002,3.530450e+001
7.896145e+002,3.417342e+001
7.905787e+002,3.357238e+001
7.915430e+002,3.379901e+001
7.925072e+002,3.639365e+001
7.934714e+002,3.905225e+001
7.944357e+002,3.867225e+001
7.953999e+002,3.558617e+001
7.963641e+002,3.248563e+001
7.973284e+002,3.240897e+001
7.982926e+002,3.560943e+001
7.992568e+002,3.714581e+001
8.002211e+002,3.626932e+001
8.011853e+002,3.516087e+001
8.021495e+002,3.461027e+001
8.031138e+002,3.467708e+001
8.040780e+002,3.519823e+001
8.050422e+002,3.622581e+001
8.060065e+002,3.737061e+001
8.069707e+002,3.885649e+001
8.079349e+002,4.007910e+001
8.088992e+002,4.026466e+001
8.098634e+002,3.928753e+001
8.108276e+002,3.815932e+001
8.117919e+002,3.855882e+001
8.127561e+002,3.953840e+001
8.137203e+002,3.940386e+001
8.146846e+002,3.806186e+001
8.156488e+002,3.621544e+001
8.166130e+002,3.456719e+001
8.175773e+002,3.295954e+001
8.185415e+002,3.239722e+001
8.195057e+002,3.365091e+001
8.204700e+002,3.463418e+001
8.214342e+002,3.439503e+001
8.223984e+002,3.336108e+001
8.233627e+002,3.271864e+001
8.243269e+002,3.293801e+001
8.252911e+002,3.358166e+001
8.262554e+002,3.452788e+001
8.272196e+002,3.553719e+001
8.281838e+002,3.654942e+001
8.291481e+002,3.742373e+001
8.301123e+002,3.774886e+001
8.310765e+002,3.658780e+001
8.320408e+002,3.406292e+001
8.330050e+002,3.225860e+001
8.339692e+002,3.130110e+001
8.349335e+002,3.109045e+001
8.358977e+002,3.162147e+001
8.368619e+002,3.298431e+001
8.378262e+002,3.482471e+001
8.387904e+002,3.898943e+001
8.397546e+002,4.131812e+001
8.407189e+002,3.950864e+001
8.416831e+002,3.546992e+001
8.426473e+002,3.241780e+001
8.436116e+002,3.177072e+001
8.445758e+002,3.250971e+001
8.455400e+002,3.454637e+001
8.465043e+002,3.656282e+001
8.474685e+002,3.657167e+001
8.484327e+002,3.440270e+001
8.493970e+002,3.206610e+001
8.503612e+002,3.290941e+001
8.513254e+002,3.763081e+001
8.522897e+002,4.047048e+001
8.532539e+002,4.085146e+001
8.542181e+002,4.029832e+001
8.551824e+002,3.945903e+001
8.561466e+002,3.848914e+001
8.571108e+002,3.799162e+001
8.580751e+002,3.812674e+001
8.590393e+002,3.830817e+001
8.600035e+002,3.843934e+001
8.609678e+002,3.861431e+001
8.619320e+002,3.891348e+001
8.628962e+002,3.936101e+001
8.638605e+002,3.994205e+001
8.648247e+002,4.068374e+001
8.657889e+002,4.152859e+001
8.667532e+002,4.253426e+001
8.677174e+002,4.369985e+001
8.686816e+002,4.453529e+001
8.696459e+002,4.438081e+001
8.706101e+002,4.305490e+001
8.715743e+002,4.248490e+001
8.725386e+002,4.330802e+001
8.735028e+002,4.401468e+001
8.744670e+002,4.379733e+001
8.754313e+002,4.318778e+001
8.763955e+002,4.336460e+001
8.773597e+002,4.493399e+001
8.783240e+002,4.672556e+001
8.792882e+002,4.825478e+001
8.802524e+002,4.929792e+001
8.812167e+002,4.934402e+001
8.821809e+002,4.851353e+001
8.831451e+002,4.758674e+001
8.841094e+002,4.760152e+001
8.850736e+002,4.860040e+001
8.860378e+002,4.941574e+001
8.870021e+002,4.987302e+001
8.879663e+002,5.054119e+001
8.889305e+002,5.211340e+001
8.898948e+002,5.422333e+001
8.908590e+002,5.499912e+001
8.918232e+002,5.329380e+001
8.927875e+002,5.206384e+001
8.937517e+002,5.209923e+001
8.947159e+002,5.268160e+001
8.956802e+002,5.342489e+001
8.966444e+002,5.403995e+001
8.976086e+002,5.400000e+001
8.985729e+002,5.245968e+001
8.995371e+002,5.040447e+001
9.005013e+002,4.892688e+001
9.014656e+002,4.828259e+001
9.024298e+002,4.942365e+001
9.033940e+002,5.327526e+001
9.043583e+002,5.919684e+001
9.053225e+002,6.263837e+001
9.062867e+002,6.173577e+001
9.072510e+002,6.030270e+001
9.082152e+002,5.788403e+001
9.091794e+002,5.552440e+001
9.101437e+002,5.432021e+001
9.111079e+002,5.444576e+001
9.120721e+002,5.476921e+001
9.130364e+002,5.460449e+001
9.140006e+002,5.432015e+001
9.149648e+002,5.389944e+001
9.159291e+002,5.368086e+001
9.168933e+002,5.440164e+001
9.178575e+002,5.649862e+001
9.188218e+002,5.918232e+001
9.197860e+002,5.965282e+001
9.207502e+002,5.784885e+001
9.217145e+002,5.598936e+001
9.226787e+002,5.408419e+001
9.236429e+002,5.285954e+001
9.246072e+002,5.375648e+001
9.255714e+002,5.742831e+001
9.265356e+002,5.938116e+001
9.274999e+002,5.768855e+001
9.284641e+002,5.540157e+001
9.294283e+002,5.284959e+001
9.303926e+002,5.067416e+001
9.313568e+002,5.000664e+001
9.323210e+002,5.154987e+001
9.332853e+002,5.332506e+001
9.342495e+002,5.092069e+001
9.352137e+002,4.681641e+001
9.361780e+002,4.533197e+001
9.371422e+002,4.741754e+001
9.381064e+002,5.048948e+001
9.390707e+002,5.087775e+001
9.400349e+002,4.788927e+001
9.409991e+002,4.633250e+001
9.419634e+002,4.756782e+001
9.429276e+002,4.824652e+001
9.438918e+002,4.687843e+001
9.448561e+002,4.463916e+001
9.458203e+002,4.373162e+001
9.467845e+002,4.504878e+001
9.477488e+002,4.637335e+001
9.487130e+002,4.631619e+001
9.496772e+002,4.534859e+001
9.506415e+002,4.306686e+001
9.516057e+002,4.000056e+001
9.525699e+002,3.775365e+001
9.535342e+002,3.790757e+001
9.544984e+002,4.003974e+001
9.554626e+002,4.065787e+001
9.564269e+002,3.960709e+001
9.573911e+002,3.880608e+001
9.583553e+002,3.903725e+001
9.593196e+002,3.963277e+001
9.602838e+002,3.934312e+001
9.612480e+002,3.774599e+001
9.622123e+002,3.674978e+001
9.631765e+002,3.766327e+001
9.641407e+002,3.858240e+001
9.651050e+002,3.838511e+001
9.660692e+002,3.745004e+001
9.670334e+002,3.687346e+001
9.679977e+002,3.739056e+001
9.689619e+002,3.846220e+001
9.699261e+002,3.865707e+001
9.708904e+002,3.824615e+001
9.718546e+002,3.804575e+001
9.728188e+002,3.808491e+001
9.737831e+002,3.886640e+001
9.747473e+002,4.144012e+001
9.757115e+002,4.637875e+001
9.766758e+002,5.013740e+001
9.776400e+002,5.254325e+001
9.786042e+002,5.411523e+001
9.795685e+002,5.467644e+001
9.805327e+002,5.443269e+001
9.814969e+002,5.391596e+001
9.824612e+002,5.336781e+001
9.834254e+002,5.174907e+001
9.843896e+002,4.644436e+001
9.853539e+002,4.026241e+001
9.863181e+002,3.638768e+001
9.872823e+002,3.475635e+001
9.882466e+002,3.380762e+001
9.892108e+002,3.233189e+001
9.901750e+002,3.049980e+001
9.911393e+002,2.883772e+001
9.921035e+002,2.631692e+001
9.930677e+002,2.538377e+001
9.940320e+002,2.757405e+001
9.949962e+002,3.043750e+001
9.959604e+002,3.183216e+001
9.969247e+002,3.161318e+001
9.978889e+002,3.073999e+001
9.988531e+002,2.889143e+001
9.998174e+002,2.718699e+001
1.000782e+003,2.669759e+001
1.001746e+003,2.676772e+001
1.002710e+003,2.618860e+001
1.003674e+003,2.452659e+001
1.004639e+003,2.268616e+001
1.005603e+003,2.231828e+001
1.006567e+003,2.357309e+001
1.007531e+003,2.449102e+001
1.008495e+003,2.515203e+001
1.009460e+003,2.539954e+001
1.010424e+003,2.491409e+001
1.011388e+003,2.393018e+001
1.012352e+003,2.339033e+001
1.013317e+003,2.369258e+001
1.014281e+003,2.375366e+001
1.015245e+003,2.316503e+001
1.016209e+003,2.227584e+001
1.017174e+003,2.119748e+001
1.018138e+003,2.008597e+001
1.019102e+003,1.914992e+001
1.020066e+003,1.855521e+001
1.021031e+003,1.837646e+001
1.021995e+003,1.868645e+001
1.022959e+003,1.936484e+001
1.023923e+003,2.057824e+001
1.024887e+003,2.269943e+001
1.025852e+003,2.479634e+001
1.026816e+003,2.529246e+001
1.027780e+003,2.386607e+001
1.028744e+003,2.263080e+001
1.029709e+003,2.160301e+001
1.030673e+003,2.090710e+001
1.031637e+003,2.057470e+001
1.032601e+003,2.056155e+001
1.033566e+003,2.103645e+001
1.034530e+003,2.204465e+001
1.035494e+003,2.284444e+001
1.036458e+003,2.232458e+001
1.037422e+003,2.116731e+001
1.038387e+003,2.047324e+001
1.039351e+003,2.027924e+001
1.040315e+003,2.048654e+001
1.041279e+003,2.113882e+001
1.042244e+003,2.207466e+001
1.043208e+003,2.225678e+001
1.044172e+003,2.040311e+001
1.045136e+003,1.994000e+001
1.046101e+003,2.248010e+001
1.047065e+003,2.488497e+001
1.048029e+003,2.472694e+001
1.048993e+003,2.253081e+001
1.049958e+003,2.090378e+001
1.050922e+003,2.126714e+001
1.051886e+003,2.211446e+001
1.052850e+003,2.155005e+001
1.053814e+003,2.060330e+001
1.054779e+003,2.087391e+001
1.055743e+003,2.254917e+001
1.056707e+003,2.428159e+001
1.057671e+003,2.441695e+001
1.058636e+003,2.292715e+001
1.059600e+003,2.210261e+001
1.060564e+003,2.229913e+001
1.061528e+003,2.278178e+001
1.062493e+003,2.415476e+001
1.063457e+003,2.518264e+001
1.064421e+003,2.405458e+001
1.065385e+003,2.067735e+001
1.066349e+003,1.802366e+001
1.067314e+003,1.784216e+001
1.068278e+003,1.863757e+001
1.069242e+003,1.981097e+001
1.070206e+003,2.101781e+001
1.071171e+003,2.168391e+001
1.072135e+003,2.158987e+001
1.073099e+003,2.119383e+001
1.074063e+003,2.136620e+001
1.075028e+003,2.224763e+001
1.075992e+003,2.201161e+001
1.076956e+003,1.966574e+001
1.077920e+003,1.791936e+001
1.078885e+003,1.850710e+001
1.079849e+003,2.017265e+001
1.080813e+003,2.024396e+001
1.081777e+003,1.795724e+001
1.082741e+003,1.643923e+001
1.083706e+003,1.867755e+001
1.084670e+003,2.075139e+001
1.085634e+003,1.994610e+001
1.086598e+003,1.736482e+001
1.087563e+003,1.544719e+001
1.088527e+003,1.558403e+001
1.089491e+003,1.704237e+001
1.090455e+003,1.837379e+001
1.091420e+003,1.950461e+001
1.092384e+003,2.025659e+001
1.093348e+003,2.064042e+001
1.094312e+003,2.055431e+001
1.095276e+003,1.980092e+001
1.096241e+003,1.862294e+001
1.097205e+003,1.755340e+001
1.098169e+003,1.642293e+001
1.099133e+003,1.591758e+001
1.100098e+003,1.699909e+001
1.101062e+003,1.814368e+001
1.102026e+003,1.840246e+001
1.102990e+003,1.791314e+001
1.103955e+003,1.712479e+001
1.104919e+003,1.631622e+001
1.105883e+003,1.576418e+001
1.106847e+003,1.629639e+001
1.107812e+003,1.789693e+001
1.108776e+003,1.843836e+001
1.109740e+003,1.748067e+001
1.110704e+003,1.619496e+001
1.111668e+003,1.530277e+001
1.112633e+003,1.483687e+001
1.113597e+003,1.478423e+001
1.114561e+003,1.515907e+001
1.115525e+003,1.580618e+001
1.116490e+003,1.727316e+001
1.117454e+003,1.838821e+001
1.118418e+003,1.843961e+001
1.119382e+003,1.754133e+001
1.120347e+003,1.578117e+001
1.121311e+003,1.317035e+001
1.122275e+003,1.080506e+001
1.123239e+003,1.168727e+001
1.124203e+003,1.549944e+001
1.125168e+003,1.684234e+001
1.126132e+003,1.452756e+001
1.127096e+003,1.187131e+001
1.128060e+003,1.129507e+001
1.129025e+003,1.243166e+001
1.129989e+003,1.388466e+001
1.130953e+003,1.634838e+001
1.131917e+003,1.716410e+001
1.132882e+003,1.404718e+001
1.133846e+003,1.092078e+001
1.134810e+003,1.060075e+001
1.135774e+003,1.226452e+001
1.136739e+003,1.338910e+001
1.137703e+003,1.254961e+001
1.138667e+003,1.078366e+001
1.139631e+003,9.803802e+000
1.140595e+003,9.592163e+000
1.141560e+003,9.688927e+000
1.142524e+003,1.022359e+001
1.143488e+003,1.073425e+001
1.144452e+003,1.080117e+001
1.145417e+003,1.056282e+001
1.146381e+003,1.064858e+001
1.147345e+003,1.136175e+001
1.148309e+003,1.148882e+001
1.149274e+003,9.918472e+000
1.150238e+003,8.615280e+000
1.151202e+003,8.844643e+000
1.152166e+003,1.008039e+001
1.153130e+003,1.132624e+001
1.154095e+003,1.201553e+001
1.155059e+003,1.196882e+001
1.156023e+003,1.085442e+001
1.156987e+003,8.878693e+000
1.157952e+003,7.337372e+000
1.158916e+003,6.265579e+000
1.159880e+003,5.882599e+000
1.160844e+003,6.431854e+000
1.161809e+003,7.553261e+000
1.162773e+003,8.854027e+000
1.163737e+003,1.071204e+001
1.164701e+003,1.106667e+001
1.165666e+003,7.298027e+000
1.166630e+003,4.175583e+000
1.167594e+003,3.895599e+000
1.168558e+003,5.143211e+000
1.169522e+003,6.221504e+000
1.170487e+003,6.474045e+000
1.171451e+003,6.076523e+000
1.172415e+003,5.093559e+000
1.173379e+003,3.745117e+000
1.174344e+003,3.413956e+000
1.175308e+003,4.165741e+000
1.176272e+003,4.704529e+000
1.177236e+003,4.262703e+000
1.178201e+003,3.711784e+000
1.179165e+003,4.449280e+000
1.180129e+003,6.463058e+000
1.181093e+003,7.376541e+000
1.182057e+003,5.718597e+000
1.183022e+003,4.436684e+000
1.183986e+003,5.297729e+000
1.184950e+003,6.551102e+000
1.185914e+003,6.293121e+000
1.186879e+003,4.581329e+000
1.187843e+003,2.978668e+000
1.188807e+003,2.743149e+000
1.189771e+003,3.418625e+000
1.190736e+003,3.749855e+000
1.191700e+003,3.697609e+000
1.192664e+003,3.566704e+000
1.193628e+003,2.994202e+000
1.194593e+003,2.922516e+000
1.195557e+003,4.958290e+000
1.196521e+003,8.076080e+000
1.197485e+003,8.130394e+000
1.198449e+003,3.193527e+000
1.199414e+003,-5.913773e-001
1.200378e+003,7.536011e-001
1.201342e+003,3.067284e+000
1.202306e+003,3.855148e+000
1.203271e+003,3.480911e+000
1.204235e+003,3.508194e+000
1.205199e+003,4.643867e+000
1.206163e+003,5.862946e+000
1.207128e+003,5.349556e+000
1.208092e+003,2.984741e+000
1.209056e+003,1.594658e+000
1.210020e+003,1.556732e+000
1.210984e+003,1.546005e+000
1.211949e+003,1.010445e+000
1.212913e+003,3.843536e-001
1.213877e+003,4.144516e-001
1.214841e+003,1.128792e+000
1.215806e+003,1.411194e+000
1.216770e+003,5.139008e-001
1.217734e+003,-4.475327e-001
1.218698e+003,-5.648727e-001
1.219663e+003,-4.136505e-001
1.220627e+003,-8.713760e-001
1.221591e+003,-1.934319e+000
1.222555e+003,-2.714989e+000
1.223520e+003,-2.367485e+000
1.224484e+003,-1.103622e+000
1.225448e+003,-3.897095e-002
1.226412e+003,9.187775e-001
1.227376e+003,1.332886e+000
1.228341e+003,8.772888e-001
1.229305e+003,2.280731e-001
1.230269e+003,-3.688812e-001
1.231233e+003,-8.727875e-001
1.232198e+003,-1.219849e+000
1.233162e+003,-1.365837e+000
1.234126e+003,-1.364403e+000
1.235090e+003,-1.256554e+000
1.236055e+003,-1.085121e+000
1.237019e+003,-9.312286e-001
1.237983e+003,-7.624359e-001
1.238947e+003,-2.677460e-001
1.239911e+003,6.946793e-001
1.240876e+003,1.371658e+000
1.241840e+003,4.539566e-001
1.242804e+003,-2.194344e+000
1.243768e+003,-3.845100e+000
1.244733e+003,-4.488297e+000
1.245697e+003,-3.945877e+000
1.246661e+003,-8.493652e-001
1.247625e+003,2.126343e+000
1.248590e+003,2.775589e+000
1.249554e+003,1.595482e+000
1.250518e+003,5.812759e-001
1.251482e+003,6.127319e-001
1.252447e+003,8.153305e-001
1.253411e+003,1.090088e-001
1.254375e+003,-1.070457e+000
1.255339e+003,-1.786537e+000
1.256303e+003,-1.995872e+000
1.257268e+003,-2.301811e+000
1.258232e+003,-3.193062e+000
1.259196e+003,-4.310013e+000
1.260160e+003,-4.934837e+000
1.261125e+003,-5.061012e+000
1.262089e+003,-4.383911e+000
1.263053e+003,-1.780266e+000
1.264017e+003,1.579819e-001
1.264982e+003,4.322891e-001
1.265946e+003,1.184464e-001
1.266910e+003,3.566818e-001
1.267874e+003,1.079231e+000
1.268839e+003,1.240349e+000
1.269803e+003,1.345215e-001
1.270767e+003,-1.361832e+000
1.271731e+003,-1.389763e+000
1.272695e+003,9.399414e-003
1.273660e+003,4.923706e-001
1.274624e+003,-3.722534e-001
1.275588e+003,-1.384926e+000
1.276552e+003,-1.858986e+000
1.277517e+003,-1.986397e+000
1.278481e+003,-2.277672e+000
1.279445e+003,-2.819016e+000
1.280409e+003,-2.889923e+000
1.281374e+003,-1.598839e+000
1.282338e+003,-6.817322e-001
1.283302e+003,-1.710129e+000
1.284266e+003,-3.172180e+000
1.285230e+003,-3.014671e+000
1.286195e+003,-1.275970e+000
1.287159e+003,1.271362e-001
1.288123e+003,-3.659668e-001
1.289087e+003,-1.934624e+000
1.290052e+003,-2.146828e+000
1.291016e+003,-5.471802e-001
1.291980e+003,7.110519e-001
1.292944e+003,1.632820e+000
1.293909e+003,2.153595e+000
1.294873e+003,2.430672e+000
1.295837e+003,2.280815e+000
1.296801e+003,1.004158e+000
1.297766e+003,-1.310852e+000
1.298730e+003,-2.766991e+000
1.299694e+003,-2.066971e+000
1.300658e+003,-7.724380e-001
1.301622e+003,-6.191711e-001
1.302587e+003,-1.025391e+000
1.303551e+003,-1.178513e+000
1.304515e+003,-8.968124e-001
1.305479e+003,-2.045670e-001
1.306444e+003,1.033951e+000
1.307408e+003,2.358521e+000
1.308372e+003,2.013809e+000
1.309336e+003,-1.019302e+000
1.310301e+003,-2.560333e+000
1.311265e+003,-8.349533e-001
1.312229e+003,4.883881e-001
1.313193e+003,-3.316269e-001
1.314157e+003,-1.645279e+000
1.315122e+003,-1.245537e+000
1.316086e+003,6.790771e-001
1.317050e+003,1.728638e+000
1.318014e+003,2.692871e-001
1.318979e+003,-2.099426e+000
1.319943e+003,-2.563988e+000
1.320907e+003,-1.246887e+000
1.321871e+003,2.577820e-001
1.322836e+003,2.117424e+000
1.323800e+003,3.098846e+000
1.324764e+003,2.151161e+000
1.325728e+003,1.452484e-001
1.326693e+003,-1.840675e+000
1.327657e+003,-3.819618e+000
1.328621e+003,-4.284897e+000
1.329585e+003,-1.722595e+000
1.330549e+003,8.586655e-001
1.331514e+003,1.849823e+000
1.332478e+003,1.964684e+000
1.333442e+003,1.674126e+000
1.334406e+003,1.238228e+000
1.335371e+003,9.761810e-001
1.336335e+003,1.066002e+000
1.337299e+003,1.219200e+000
1.338263e+003,8.296280e-001
1.339228e+003,-2.162399e-001
1.340192e+003,-7.070007e-001
1.341156e+003,-2.659912e-001
1.342120e+003,1.253586e-001
1.343084e+003,1.273956e-001
1.344049e+003,1.161652e-001
1.345013e+003,7.167053e-001
1.345977e+003,1.637756e+000
1.346941e+003,1.704147e+000
1.347906e+003,4.251480e-001
1.348870e+003,-7.109375e-001
1.349834e+003,-8.359528e-002
1.350798e+003,1.356506e+000
1.351763e+003,1.769646e+000
1.352727e+003,1.316124e+000
1.353691e+003,8.620834e-001
1.354655e+003,6.507568e-001
1.355620e+003,8.068466e-001
1.356584e+003,1.711014e+000
1.357548e+003,3.250748e+000
1.358512e+003,4.267647e+000
1.359476e+003,4.715263e+000
1.360441e+003,4.452385e+000
1.361405e+003,2.326469e+000
1.362369e+003,7.613068e-001
1.363333e+003,1.588318e+000
1.364298e+003,3.426811e+000
1.365262e+003,4.367210e+000
1.366226e+003,3.898323e+000
1.367190e+003,2.594963e+000
1.368155e+003,9.405365e-001
1.369119e+003,-7.650833e-001
1.370083e+003,-1.525505e+000
1.371047e+003,-1.078232e+000
1.372011e+003,-5.435562e-001
1.372976e+003,-1.584702e-001
1.373940e+003,4.981918e-001
1.374904e+003,2.350388e+000
1.375868e+003,4.113266e+000
1.376833e+003,3.678459e+000
1.377797e+003,1.233231e+000
1.378761e+003,-5.826263e-001
1.379725e+003,-5.626678e-001
1.380690e+003,1.408386e-001
1.381654e+003,7.312546e-001
1.382618e+003,1.097946e+000
1.383582e+003,6.973190e-001
1.384547e+003,-2.740631e-001
1.385511e+003,-2.629700e-001
1.386475e+003,1.765450e+000
1.387439e+003,4.159584e+000
1.388403e+003,3.993080e+000
1.389368e+003,1.272377e+000
1.390332e+003,2.326584e-001
1.391296e+003,2.356888e+000
1.392260e+003,3.443474e+000
1.393225e+003,1.418129e+000
1.394189e+003,-6.011734e-001
1.395153e+003,-8.979263e-001
1.396117e+003,1.559448e-002
1.397082e+003,1.319496e+000
1.398046e+003,2.636871e+000
1.399010e+003,3.870712e+000
1.399974e+003,4.908440e+000
1.400938e+003,5.521042e+000
1.401903e+003,5.080162e+000
1.402867e+003,3.323578e+000
1.403831e+003,2.372169e+000
1.404795e+003,2.272186e+000
1.405760e+003,2.713196e+000
1.406724e+003,4.056824e+000
1.407688e+003,5.378578e+000
1.408652e+003,5.585732e+000
1.409617e+003,4.832222e+000
1.410581e+003,4.086548e+000
1.411545e+003,3.685715e+000
1.412509e+003,3.606918e+000
1.413474e+003,4.126701e+000
1.414438e+003,4.668327e+000
1.415402e+003,4.209557e+000
1.416366e+003,2.966164e+000
1.417330e+003,2.050888e+000
1.418295e+003,1.909157e+000
1.419259e+003,2.188950e+000
1.420223e+003,2.657875e+000
1.421187e+003,3.188019e+000
1.422152e+003,3.001671e+000
1.423116e+003,1.658211e+000
1.424080e+003,1.227074e+000
1.425044e+003,3.200394e+000
1.426009e+003,5.101982e+000
1.426973e+003,6.109581e+000
1.427937e+003,6.351181e+000
1.428901e+003,5.875900e+000
1.429865e+003,4.893013e+000
1.430830e+003,3.711342e+000
1.431794e+003,2.527390e+000
1.432758e+003,1.621635e+000
1.433722e+003,1.664925e+000
1.434687e+003,2.826004e+000
1.435651e+003,3.794579e+000
1.436615e+003,4.600067e+000
1.437579e+003,4.789978e+000
1.438544e+003,3.941086e+000
1.439508e+003,2.903397e+000
1.440472e+003,2.039017e+000
1.441436e+003,1.542618e+000
1.442401e+003,1.892113e+000
1.443365e+003,3.037567e+000
1.444329e+003,3.725029e+000
1.445293e+003,2.964455e+000
1.446257e+003,1.465904e+000
1.447222e+003,2.628784e-001
1.448186e+003,-5.744095e-001
1.449150e+003,-3.488617e-001
1.450114e+003,1.248634e+000
1.451079e+003,2.812645e+000
1.452043e+003,4.180229e+000
1.453007e+003,4.808571e+000
1.453971e+003,3.121223e+000
1.454936e+003,-4.119186e-001
1.455900e+003,-1.822548e+000
1.456864e+003,3.953323e-001
1.457828e+003,2.461891e+000
1.458792e+003,1.477196e+000
1.459757e+003,4.021454e-002
1.460721e+003,4.723358e-001
1.461685e+003,2.036659e+000
1.462649e+003,3.262657e+000
1.463614e+003,3.709480e+000
1.464578e+003,3.306465e+000
1.465542e+003,1.750237e+000
1.466506e+003,-3.131714e-001
1.467471e+003,-7.915344e-001
1.468435e+003,7.259598e-001
1.469399e+003,2.083817e+000
1.470363e+003,3.519661e+000
1.471328e+003,4.104523e+000
1.472292e+003,2.907310e+000
1.473256e+003,1.407867e+000
1.474220e+003,5.663681e-001
1.475184e+003,4.143677e-001
1.476149e+003,8.762817e-001
1.477113e+003,1.725845e+000
1.478077e+003,2.277924e+000
1.479041e+003,1.895370e+000
1.480006e+003,8.980713e-001
1.480970e+003,2.120438e-001
1.481934e+003,-2.581406e-001
1.482898e+003,-1.762161e-001
1.483863e+003,5.889587e-001
1.484827e+003,1.622086e+000
1.485791e+003,3.468460e+000
1.486755e+003,5.065048e+000
1.487719e+003,5.247612e+000
1.488684e+003,4.312431e+000
1.489648e+003,3.168251e+000
1.490612e+003,2.162376e+000
1.491576e+003,1.657486e+000
1.492541e+003,2.120514e+000
1.493505e+003,2.888512e+000
1.494469e+003,2.166901e+000
1.495433e+003,2.421036e-001
1.496398e+003,-6.184540e-001
1.497362e+003,1.759262e-001
1.498326e+003,1.276184e+000
1.499290e+003,2.218285e+000
1.500255e+003,2.891869e+000
1.501219e+003,2.901840e+000
1.502183e+003,2.406097e+000
1.503147e+003,2.523026e+000
1.504111e+003,3.677452e+000
1.505076e+003,4.506386e+000
1.506040e+003,4.016785e+000
1.507004e+003,3.059227e+000
1.507968e+003,2.114052e+000
1.508933e+003,1.476349e+000
1.509897e+003,2.010941e+000
1.510861e+003,3.841042e+000
1.511825e+003,5.665863e+000
1.512790e+003,6.586792e+000
1.513754e+003,6.755180e+000
1.514718e+003,6.428955e+000
1.515682e+003,5.587814e+000
1.516646e+003,4.583321e+000
1.517611e+003,3.188293e+000
1.518575e+003,2.426338e+000
1.519539e+003,3.452934e+000
1.520503e+003,4.388626e+000
1.521468e+003,3.948975e+000
1.522432e+003,2.903557e+000
1.523396e+003,2.210999e+000
1.524360e+003,2.140625e+000
1.525325e+003,2.847183e+000
1.526289e+003,4.443161e+000
1.527253e+003,5.977783e+000
1.528217e+003,5.570900e+000
1.529182e+003,3.211945e+000
1.530146e+003,2.175720e+000
1.531110e+003,3.723869e+000
1.532074e+003,4.178864e+000
1.533038e+003,1.717361e+000
1.534003e+003,-1.350403e-001
1.534967e+003,8.072205e-001
1.535931e+003,2.894737e+000
1.536895e+003,4.379944e+000
1.537860e+003,4.974953e+000
1.538824e+003,5.010025e+000
1.539788e+003,4.677299e+000
1.540752e+003,4.313370e+000
1.541717e+003,4.446945e+000
1.542681e+003,4.935532e+000
1.543645e+003,4.695633e+000
1.544609e+003,3.073700e+000
1.545573e+003,2.604515e+000
1.546538e+003,3.718063e+000
1.547502e+003,5.214546e+000
1.548466e+003,7.528618e+000
1.549430e+003,9.469688e+000
1.550395e+003,9.036629e+000
1.551359e+003,7.174667e+000
1.552323e+003,7.262184e+000
1.553287e+003,1.031628e+001
1.554252e+003,1.305518e+001
1.555216e+003,1.250819e+001
1.556180e+003,9.938278e+000
1.557144e+003,8.138985e+000
1.558109e+003,7.176735e+000
1.559073e+003,6.421829e+000
1.560037e+003,5.740326e+000
1.561001e+003,5.345192e+000
1.561965e+003,5.707771e+000
1.562930e+003,6.163887e+000
1.563894e+003,5.906067e+000
1.564858e+003,5.224777e+000
1.565822e+003,4.941605e+000
1.566787e+003,5.197342e+000
1.567751e+003,5.535583e+000
1.568715e+003,5.713890e+000
1.569679e+003,5.912697e+000
1.570644e+003,6.379395e+000
1.571608e+003,6.973633e+000
1.572572e+003,7.367531e+000
1.573536e+003,7.580421e+000
1.574500e+003,7.962479e+000
1.575465e+003,8.813454e+000
1.576429e+003,9.523689e+000
1.577393e+003,9.315338e+000
1.578357e+003,8.701187e+000
1.579322e+003,8.855690e+000
1.580286e+003,9.801445e+000
1.581250e+003,1.046916e+001
1.582214e+003,1.048199e+001
1.583179e+003,1.032748e+001
1.584143e+003,1.001995e+001
1.585107e+003,1.000487e+001
1.586071e+003,1.155086e+001
1.587036e+003,1.394244e+001
1.588000e+003,1.450684e+001
1.588964e+003,1.253552e+001
1.589928e+003,1.027837e+001
1.590893e+003,8.906166e+000
1.591857e+003,8.407661e+000
1.592821e+003,9.078651e+000
1.593785e+003,1.071111e+001
1.594750e+003,1.205299e+001
1.595714e+003,1.292262e+001
1.596678e+003,1.354094e+001
1.597642e+003,1.408567e+001
1.598606e+003,1.427316e+001
1.599571e+003,1.346422e+001
1.600535e+003,1.247205e+001
1.601499e+003,1.262753e+001
1.602463e+003,1.369603e+001
1.603428e+003,1.397897e+001
1.604392e+003,1.267448e+001
1.605356e+003,1.137193e+001
1.606320e+003,1.200064e+001
1.607285e+003,1.377641e+001
1.608249e+003,1.423948e+001
1.609213e+003,1.332233e+001
1.610177e+003,1.321017e+001
1.611141e+003,1.446760e+001
1.612106e+003,1.603866e+001
1.613070e+003,1.814561e+001
1.614034e+003,1.967574e+001
1.614998e+003,1.914207e+001
1.615963e+003,1.773720e+001
1.616927e+003,1.772341e+001
1.617891e+003,1.923513e+001
1.618855e+003,2.029665e+001
1.619820e+003,1.964294e+001
1.620784e+003,1.830799e+001
1.621748e+003,1.780891e+001
1.622712e+003,1.811243e+001
1.623677e+003,1.851134e+001
1.624641e+003,1.899883e+001
1.625605e+003,1.966628e+001
1.626569e+003,2.067480e+001
1.627533e+003,2.130414e+001
1.628498e+003,2.120463e+001
1.629462e+003,2.075530e+001
1.630426e+003,1.988281e+001
1.631390e+003,1.898585e+001
1.632355e+003,1.904823e+001
1.633319e+003,2.017382e+001
1.634283e+003,2.105154e+001
1.635247e+003,2.059602e+001
1.636212e+003,1.966310e+001
1.637176e+003,2.002065e+001
1.638140e+003,2.156902e+001
1.639104e+003,2.227066e+001
1.640068e+003,2.179313e+001
1.641033e+003,2.145129e+001
1.641997e+003,2.206190e+001
1.642961e+003,2.220904e+001
1.643925e+003,2.052466e+001
1.644890e+003,1.860490e+001
1.645854e+003,1.813137e+001
1.646818e+003,1.875533e+001
1.647782e+003,1.923820e+001
1.648747e+003,1.918993e+001
1.649711e+003,1.916218e+001
1.650675e+003,1.976347e+001
1.651639e+003,2.046656e+001
1.652604e+003,1.995225e+001
1.653568e+003,1.824036e+001
1.654532e+003,1.672704e+001
1.655496e+003,1.528795e+001
1.656460e+003,1.479833e+001
1.657425e+003,1.636308e+001
1.658389e+003,1.784103e+001
1.659353e+003,1.784619e+001
1.660317e+003,1.735104e+001
1.661282e+003,1.745004e+001
1.662246e+003,1.797596e+001
1.663210e+003,1.824599e+001
1.664174e+003,1.803827e+001
1.665139e+003,1.728913e+001
1.666103e+003,1.569510e+001
1.667067e+003,1.384851e+001
1.668031e+003,1.296849e+001
1.668995e+003,1.303257e+001
1.669960e+003,1.363187e+001
1.670924e+003,1.503943e+001
1.671888e+003,1.571019e+001
1.672852e+003,1.437683e+001
1.673817e+003,1.328558e+001
1.674781e+003,1.428490e+001
1.675745e+003,1.592257e+001
1.676709e+003,1.686965e+001
1.677674e+003,1.699976e+001
1.678638e+003,1.619270e+001
1.679602e+003,1.443200e+001
1.680566e+003,1.289297e+001
1.681531e+003,1.257270e+001
1.682495e+003,1.296710e+001
1.683459e+003,1.321145e+001
1.684423e+003,1.330836e+001
1.685387e+003,1.357484e+001
1.686352e+003,1.413222e+001
1.687316e+003,1.423418e+001
1.688280e+003,1.354741e+001
1.689244e+003,1.252431e+001
1.690209e+003,1.120670e+001
1.691173e+003,9.898666e+000
1.692137e+003,8.834084e+000
1.693101e+003,8.139877e+000
1.694066e+003,8.201355e+000
1.695030e+003,9.106079e+000
1.695994e+003,9.718758e+000
1.696958e+003,9.232224e+000
1.697922e+003,8.288918e+000
1.698887e+003,7.486626e+000
1.699851e+003,6.926926e+000
1.700815e+003,7.195396e+000
1.701779e+003,8.265045e+000
1.702744e+003,8.150993e+000
1.703708e+003,5.960922e+000
1.704672e+003,3.780289e+000
1.705636e+003,2.788994e+000
1.706601e+003,2.856544e+000
1.707565e+003,4.585190e+000
1.708529e+003,7.255684e+000
1.709493e+003,8.219559e+000
1.710458e+003,6.976730e+000
1.711422e+003,5.850967e+000
1.712386e+003,5.937790e+000
1.713350e+003,6.381401e+000
1.714314e+003,6.549789e+000
1.715279e+003,6.500923e+000
1.716243e+003,6.458649e+000
1.717207e+003,6.367142e+000
1.718171e+003,5.698883e+000
1.719136e+003,4.322601e+000
1.720100e+003,3.350670e+000
1.721064e+003,3.545586e+000
1.722028e+003,4.404182e+000
1.722993e+003,5.511330e+000
1.723957e+003,6.729790e+000
1.724921e+003,6.841560e+000
1.725885e+003,5.533272e+000
1.726849e+003,4.629593e+000
1.727814e+003,4.679260e+000
1.728778e+003,5.009705e+000
1.729742e+003,5.605949e+000
1.730706e+003,6.071693e+000
1.731671e+003,5.867294e+000
1.732635e+003,5.189499e+000
1.733599e+003,4.450630e+000
1.734563e+003,3.891968e+000
1.735528e+003,4.045166e+000
1.736492e+003,5.157410e+000
1.737456e+003,6.055725e+000
1.738420e+003,5.278366e+000
1.739385e+003,3.304054e+000
1.740349e+003,2.047226e+000
1.741313e+003,1.672379e+000
1.742277e+003,1.391930e+000
1.743241e+003,9.327393e-001
1.744206e+003,1.057930e+000
1.745170e+003,2.606270e+000
1.746134e+003,3.850304e+000
1.747098e+003,3.651520e+000
1.748063e+003,2.770660e+000
1.749027e+003,1.802406e+000
1.749991e+003,1.102722e+000
1.750955e+003,1.158203e+000
1.751920e+003,2.041222e+000
1.752884e+003,3.287964e+000
1.753848e+003,4.532036e+000
1.754812e+003,5.411453e+000
1.755776e+003,5.139610e+000
1.756741e+003,3.805260e+000
1.757705e+003,2.803970e+000
1.758669e+003,2.109627e+000
1.759633e+003,1.726692e+000
1.760598e+003,2.202126e+000
1.761562e+003,2.118858e+000
1.762526e+003,4.248199e-001
1.763490e+003,-1.211388e+000
1.764455e+003,-1.662872e+000
1.765419e+003,-1.234947e+000
1.766383e+003,-4.822006e-001
1.767347e+003,4.432831e-001
1.768312e+003,1.752190e+000
1.769276e+003,3.554779e+000
1.770240e+003,4.839722e+000
1.771204e+003,4.596008e+000
1.772168e+003,3.218727e+000
1.773133e+003,8.890076e-001
1.774097e+003,-2.128922e+000
1.775061e+003,-2.714386e+000
1.776025e+003,-2.213974e-001
1.776990e+003,1.738754e+000
1.777954e+003,1.938782e+000
1.778918e+003,1.604469e+000
1.779882e+003,1.627220e+000
1.780847e+003,1.489464e+000
1.781811e+003,2.098312e-001
1.782775e+003,-1.729370e+000
1.783739e+003,-2.649986e+000
1.784703e+003,-2.216103e+000
1.785668e+003,-1.807274e+000
1.786632e+003,-2.362785e+000
1.787596e+003,-2.732513e+000
1.788560e+003,-1.644821e+000
1.789525e+003,-4.210663e-002
1.790489e+003,7.258911e-001
1.791453e+003,7.307968e-001
1.792417e+003,5.467300e-001
1.793382e+003,3.249283e-001
1.794346e+003,-6.302643e-002
1.795310e+003,-7.396240e-001
1.796274e+003,-9.190903e-001
1.797239e+003,5.961227e-001
1.798203e+003,2.896790e+000
1.799167e+003,2.671112e+000
1.800131e+003,-8.218613e-001
1.801095e+003,-2.556190e+000
1.802060e+003,-1.049614e+000
1.803024e+003,-1.330566e-001
1.803988e+003,-8.493729e-001
1.804952e+003,-1.459366e+000
1.805917e+003,-9.575195e-001
1.806881e+003,-1.127853e-001
1.807845e+003,5.809555e-001
1.808809e+003,8.701630e-001
1.809774e+003,2.536163e-001
1.810738e+003,-1.148376e+000
1.811702e+003,-2.406601e+000
1.812666e+003,-2.933243e+000
1.813630e+003,-2.726494e+000
1.814595e+003,-1.605110e+000
1.815559e+003,6.874084e-003
1.816523e+003,2.207642e-001
1.817487e+003,-1.136536e+000
1.818452e+003,-1.754059e+000
1.819416e+003,-1.192398e+000
1.820380e+003,-7.088547e-001
1.821344e+003,-6.478195e-001
1.822309e+003,-8.373489e-001
1.823273e+003,-1.616394e+000
1.824237e+003,-2.173523e+000
1.825201e+003,-1.215820e+000
1.826166e+003,5.330811e-001
1.827130e+003,1.013748e+000
1.828094e+003,-1.135635e-001
1.829058e+003,-1.223457e+000
1.830022e+003,-1.568062e+000
1.830987e+003,-1.548050e+000
1.831951e+003,-1.468948e+000
1.832915e+003,-1.244308e+000
1.833879e+003,-6.395645e-001
1.834844e+003,1.997910e-001
1.835808e+003,7.856979e-001
1.836772e+003,1.086349e+000
1.837736e+003,1.765373e+000
1.838701e+003,3.132454e+000
1.839665e+003,3.656296e+000
1.840629e+003,1.736382e+000
1.841593e+003,-1.316505e+000
1.842557e+003,-2.800591e+000
1.843522e+003,-2.732239e+000
1.844486e+003,-2.288071e+000
1.845450e+003,-5.679932e-001
1.846414e+003,-1.370163e-001
1.847379e+003,-2.834457e+000
1.848343e+003,-4.433075e+000
1.849307e+003,-2.411934e+000
1.850271e+003,-1.699295e-001
1.851236e+003,-5.434341e-001
1.852200e+003,-1.971169e+000
1.853164e+003,-2.087502e+000
1.854128e+003,-9.367142e-001
1.855093e+003,2.485046e-001
1.856057e+003,9.488068e-001
1.857021e+003,9.759521e-001
1.857985e+003,3.048706e-002
1.858949e+003,-1.141266e+000
1.859914e+003,-1.088882e+000
1.860878e+003,-5.536652e-002
1.861842e+003,5.441284e-001
1.862806e+003,6.804657e-001
1.863771e+003,3.614349e-001
1.864735e+003,-6.715240e-001
1.865699e+003,-9.950638e-001
1.866663e+003,4.725647e-001
1.867628e+003,2.036400e+000
1.868592e+003,2.103111e+000
1.869556e+003,1.244217e+000
1.870520e+003,4.251480e-001
1.871484e+003,-2.930679e-001
1.872449e+003,-3.646088e-001
1.873413e+003,6.152267e-001
1.874377e+003,1.430397e+000
1.875341e+003,1.646805e+000
1.876306e+003,1.492783e+000
1.877270e+003,6.706696e-001
1.878234e+003,-1.173248e-001
1.879198e+003,-4.194641e-002
1.880163e+003,5.753250e-001
1.881127e+003,1.147072e+000
1.882091e+003,1.539490e+000
1.883055e+003,1.819725e+000
1.884020e+003,2.008705e+000
1.884984e+003,2.003067e+000
1.885948e+003,1.701378e+000
1.886912e+003,1.301285e+000
1.887876e+003,1.229965e+000
1.888841e+003,1.454315e+000
1.889805e+003,1.422951e+000
1.890769e+003,9.872055e-001
1.891733e+003,1.218269e+000
1.892698e+003,2.782005e+000
1.893662e+003,3.509346e+000
1.894626e+003,2.107849e+000
1.895590e+003,4.279938e-001
1.896555e+003,-4.250336e-001
1.897519e+003,-6.879044e-001
1.898483e+003,-5.538864e-001
1.899447e+003,-1.436081e-001
1.900411e+003,4.990921e-001
1.901376e+003,1.437927e+000
1.902340e+003,1.621979e+000
1.903304e+003,8.370972e-002
1.904268e+003,-1.417084e+000
1.905233e+003,-1.771713e+000
1.906197e+003,-1.574844e+000
1.907161e+003,-1.137856e+000
1.908125e+003,-7.383652e-001
1.909090e+003,-1.040390e+000
1.910054e+003,-1.859726e+000
1.911018e+003,-2.240204e+000
1.911982e+003,-1.837425e+000
1.912947e+003,-9.017487e-001
1.913911e+003,3.740158e-001
1.914875e+003,1.487976e+000
1.915839e+003,1.594330e+000
1.916803e+003,8.694305e-001
1.917768e+003,3.765793e-001
1.918732e+003,1.633759e-001
1.919696e+003,9.918213e-002
1.920660e+003,2.674637e-001
1.921625e+003,4.120255e-001
1.922589e+003,3.401489e-001
1.923553e+003,3.923874e-001
1.924517e+003,1.221878e+000
1.925482e+003,1.838326e+000
1.926446e+003,1.117645e+000
1.927410e+003,-3.454590e-001
1.928374e+003,-1.577919e+000
1.929339e+003,-2.466530e+000
1.930303e+003,-2.638641e+000
1.931267e+003,-1.768883e+000
1.932231e+003,-6.996841e-001
1.933195e+003,3.657379e-001
1.934160e+003,1.202332e+000
1.935124e+003,1.607742e+000
1.936088e+003,1.696487e+000
1.937052e+003,1.683884e+000
1.938017e+003,1.529808e+000
1.938981e+003,1.009995e+000
1.939945e+003,1.354752e-001
1.940909e+003,-1.082336e+000
1.941874e+003,-2.520470e+000
1.942838e+003,-3.056335e+000
1.943802e+003,-1.531700e+000
1.944766e+003,9.233704e-001
1.945730e+003,1.974068e+000
1.946695e+003,1.725616e+000
1.947659e+003,1.228638e+000
1.948623e+003,4.393158e-001
1.949587e+003,-3.421707e-001
1.950552e+003,-1.228836e+000
1.951516e+003,-1.337563e+000
1.952480e+003,1.237488e-002
1.953444e+003,1.368141e+000
1.954409e+003,1.624496e+000
1.955373e+003,1.367096e+000
1.956337e+003,1.478653e+000
1.957301e+003,1.864052e+000
1.958266e+003,1.931137e+000
1.959230e+003,1.593201e+000
1.960194e+003,1.644165e+000
1.961158e+003,2.785629e+000
1.962122e+003,3.253670e+000
1.963087e+003,1.842384e+000
1.964051e+003,5.863266e-001
1.965015e+003,8.967056e-001
1.965979e+003,1.796295e+000
1.966944e+003,2.464073e+000
1.967908e+003,2.714684e+000
1.968872e+003,2.422501e+000
1.969836e+003,1.707603e+000
1.970801e+003,8.679123e-001
1.971765e+003,7.364655e-002
1.972729e+003,-2.582016e-001
1.973693e+003,3.723297e-001
1.974657e+003,1.189743e+000
1.975622e+003,6.905441e-001
1.976586e+003,-4.482346e-001
1.977550e+003,1.276779e-001
1.978514e+003,1.970604e+000
1.979479e+003,1.699158e+000
1.980443e+003,-9.811172e-001
1.981407e+003,-1.782654e+000
1.982371e+003,1.014206e+000
1.983336e+003,3.861778e+000
1.984300e+003,4.069069e+000
1.985264e+003,2.826363e+000
1.986228e+003,1.878975e+000
1.987193e+003,1.230949e+000
1.988157e+003,9.620972e-001
1.989121e+003,1.269623e+000
1.990085e+003,9.610901e-001
1.991049e+003,-9.967270e-001
1.992014e+003,-1.409279e+000
1.992978e+003,1.946060e+000
1.993942e+003,4.315636e+000
1.994906e+003,2.939224e+000
1.995871e+003,1.193291e+000
1.996835e+003,2.134529e+000
1.997799e+003,3.958000e+000
1.998763e+003,3.587700e+000
1.999728e+003,1.392685e+000
2.000692e+003,0.000000e+000
2.001656e+003,0.000000e+000
2.002620e+003,0.000000e+000
2.003584e+003,0.000000e+000
2.004549e+003,0.000000e+000
2.005513e+003,0.000000e+000
2.006477e+003,0.000000e+000
2.007441e+003,0.000000e+000
2.008406e+003,0.000000e+000
2.009370e+003,0.000000e+000
2.010334e+003,0.000000e+000
2.011298e+003,0.000000e+000
2.012263e+003,0.000000e+000
2.013227e+003,0.000000e+000
2.014191e+003,0.000000e+000
2.015155e+003,0.000000e+000
2.016120e+003,0.000000e+000
2.017084e+003,0.000000e+000
2.018048e+003,0.000000e+000
2.019012e+003,0.000000e+000
2.019976e+003,0.000000e+000
2.020941e+003,0.000000e+000
2.021905e+003,0.000000e+000
2.022869e+003,0.000000e+000
2.023833e+003,0.000000e+000
2.024798e+003,0.000000e+000
2.025762e+003,0.000000e+000
2.026726e+003,0.000000e+000
2.027690e+003,0.000000e+000
2.028655e+003,0.000000e+000
2.029619e+003,0.000000e+000
2.030583e+003,0.000000e+000
2.031547e+003,0.000000e+000
2.032511e+003,0.000000e+000
2.033476e+003,0.000000e+000
2.034440e+003,0.000000e+000
2.035404e+003,0.000000e+000
2.036368e+003,0.000000e+000
2.037333e+003,0.000000e+000
2.038297e+003,0.000000e+000
2.039261e+003,0.000000e+000
2.040225e+003,0.000000e+000
2.041190e+003,0.000000e+000
2.042154e+003,0.000000e+000
2.043118e+003,0.000000e+000
2.044082e+003,0.000000e+000
2.045047e+003,0.000000e+000
2.046011e+003,0.000000e+000
2.046975e+003,0.000000e+000
2.047939e+003,0.000000e+000
2.048904e+003,0.000000e+000
2.049868e+003,0.000000e+000
2.050832e+003,0.000000e+000
2.051796e+003,0.000000e+000
2.052760e+003,0.000000e+000
2.053725e+003,0.000000e+000
2.054689e+003,0.000000e+000
2.055653e+003,0.000000e+000
2.056617e+003,0.000000e+000
2.057582e+003,0.000000e+000
2.058546e+003,0.000000e+000
2.059510e+003,0.000000e+000
2.060474e+003,0.000000e+000
2.061438e+003,0.000000e+000
2.062403e+003,0.000000e+000
2.063367e+003,0.000000e+000
2.064331e+003,0.000000e+000
2.065295e+003,0.000000e+000
2.066260e+003,0.000000e+000
2.067224e+003,0.000000e+000
2.068188e+003,0.000000e+000
2.069152e+003,0.000000e+000
2.070117e+003,0.000000e+000
2.071081e+003,0.000000e+000
2.072045e+003,0.000000e+000
2.073009e+003,0.000000e+000
2.073974e+003,0.000000e+000
2.074938e+003,0.000000e+000
2.075902e+003,0.000000e+000
2.076866e+003,0.000000e+000
2.077831e+003,0.000000e+000
2.078795e+003,0.000000e+000
2.079759e+003,0.000000e+000
2.080723e+003,0.000000e+000
2.081688e+003,0.000000e+000
2.082652e+003,0.000000e+000
2.083616e+003,0.000000e+000
2.084580e+003,0.000000e+000
2.085544e+003,0.000000e+000
2.086509e+003,0.000000e+000
2.087473e+003,0.000000e+000
2.088437e+003,0.000000e+000
2.089401e+003,0.000000e+000
2.090365e+003,0.000000e+000
2.091330e+003,0.000000e+000
2.092294e+003,0.000000e+000
2.093258e+003,0.000000e+000
2.094222e+003,0.000000e+000
2.095187e+003,0.000000e+000
2.096151e+003,0.000000e+000
2.097115e+003,0.000000e+000
2.098079e+003,0.000000e+000
2.099044e+003,0.000000e+000
2.100008e+003,0.000000e+000
2.100972e+003,0.000000e+000
2.101936e+003,0.000000e+000
2.102901e+003,0.000000e+000
2.103865e+003,0.000000e+000
2.104829e+003,0.000000e+000
2.105793e+003,0.000000e+000
2.106758e+003,0.000000e+000
2.107722e+003,0.000000e+000
2.108686e+003,0.000000e+000
2.109650e+003,0.000000e+000
2.110615e+003,0.000000e+000
2.111579e+003,0.000000e+000
2.112543e+003,0.000000e+000
2.113507e+003,0.000000e+000
2.114471e+003,0.000000e+000
2.115436e+003,0.000000e+000
2.116400e+003,0.000000e+000
2.117364e+003,0.000000e+000
2.118328e+003,0.000000e+000
2.119292e+003,0.000000e+000
2.120257e+003,0.000000e+000
2.121221e+003,0.000000e+000
2.122185e+003,0.000000e+000
2.123149e+003,0.000000e+000
2.124114e+003,0.000000e+000
2.125078e+003,0.000000e+000
2.126042e+003,0.000000e+000
2.127006e+003,0.000000e+000
2.127971e+003,0.000000e+000
2.128935e+003,0.000000e+000
2.129899e+003,0.000000e+000
2.130863e+003,0.000000e+000
2.131828e+003,0.000000e+000
2.132792e+003,0.000000e+000
2.133756e+003,0.000000e+000
2.134720e+003,0.000000e+000
2.135685e+003,0.000000e+000
2.136649e+003,0.000000e+000
2.137613e+003,0.000000e+000
2.138577e+003,0.000000e+000
2.139542e+003,0.000000e+000
2.140506e+003,0.000000e+000
2.141470e+003,0.000000e+000
2.142434e+003,0.000000e+000
2.143398e+003,0.000000e+000
2.144363e+003,0.000000e+000
2.145327e+003,0.000000e+000
2.146291e+003,0.000000e+000
2.147255e+003,0.000000e+000
2.148220e+003,0.000000e+000
2.149184e+003,0.000000e+000
2.150148e+003,0.000000e+000
2.151112e+003,0.000000e+000
2.152077e+003,0.000000e+000
2.153041e+003,0.000000e+000
2.154005e+003,0.000000e+000
2.154969e+003,0.000000e+000
2.155934e+003,0.000000e+000
2.156898e+003,0.000000e+000
2.157862e+003,0.000000e+000
2.158826e+003,0.000000e+000
2.159791e+003,0.000000e+000
2.160755e+003,0.000000e+000
2.161719e+003,0.000000e+000
2.162683e+003,0.000000e+000
2.163647e+003,0.000000e+000
2.164612e+003,0.000000e+000
2.165576e+003,0.000000e+000
2.166540e+003,0.000000e+000
2.167504e+003,0.000000e+000
2.168469e+003,0.000000e+000
2.169433e+003,0.000000e+000
2.170397e+003,0.000000e+000
2.171361e+003,0.000000e+000
2.172325e+003,0.000000e+000
2.173290e+003,0.000000e+000
2.174254e+003,0.000000e+000
2.175218e+003,0.000000e+000
2.176182e+003,0.000000e+000
2.177147e+003,0.000000e+000
2.178111e+003,0.000000e+000
2.179075e+003,0.000000e+000
2.180039e+003,0.000000e+000
2.181004e+003,0.000000e+000
2.181968e+003,0.000000e+000
2.182932e+003,0.000000e+000
2.183896e+003,0.000000e+000
2.184861e+003,0.000000e+000
2.185825e+003,0.000000e+000
2.186789e+003,0.000000e+000
2.187753e+003,0.000000e+000
2.188718e+003,0.000000e+000
2.189682e+003,0.000000e+000
2.190646e+003,0.000000e+000
2.191610e+003,0.000000e+000
2.192574e+003,0.000000e+000
2.193539e+003,0.000000e+000
2.194503e+003,0.000000e+000
2.195467e+003,0.000000e+000
2.196431e+003,0.000000e+000
2.197396e+003,0.000000e+000
2.198360e+003,0.000000e+000
2.199324e+003,0.000000e+000
2.200288e+003,0.000000e+000
2.201252e+003,0.000000e+000
2.202217e+003,0.000000e+000
2.203181e+003,0.000000e+000
2.204145e+003,0.000000e+000
2.205109e+003,0.000000e+000
2.206074e+003,0.000000e+000
2.207038e+003,0.000000e+000
2.208002e+003,0.000000e+000
2.208966e+003,0.000000e+000
2.209931e+003,0.000000e+000
2.210895e+003,0.000000e+000
2.211859e+003,0.000000e+000
2.212823e+003,0.000000e+000
2.213788e+003,0.000000e+000
2.214752e+003,0.000000e+000
2.215716e+003,0.000000e+000
2.216680e+003,0.000000e+000
2.217645e+003,0.000000e+000
2.218609e+003,0.000000e+000
2.219573e+003,0.000000e+000
2.220537e+003,0.000000e+000
2.221501e+003,0.000000e+000
2.222466e+003,0.000000e+000
2.223430e+003,0.000000e+000
2.224394e+003,0.000000e+000
2.225358e+003,0.000000e+000
2.226323e+003,0.000000e+000
2.227287e+003,0.000000e+000
2.228251e+003,0.000000e+000
2.229215e+003,0.000000e+000
2.230179e+003,0.000000e+000
2.231144e+003,0.000000e+000
2.232108e+003,0.000000e+000
2.233072e+003,0.000000e+000
2.234036e+003,0.000000e+000
2.235001e+003,0.000000e+000
2.235965e+003,0.000000e+000
2.236929e+003,0.000000e+000
2.237893e+003,0.000000e+000
2.238858e+003,0.000000e+000
2.239822e+003,0.000000e+000
2.240786e+003,0.000000e+000
2.241750e+003,0.000000e+000
2.242715e+003,0.000000e+000
2.243679e+003,0.000000e+000
2.244643e+003,0.000000e+000
2.245607e+003,0.000000e+000
2.246572e+003,0.000000e+000
2.247536e+003,0.000000e+000
2.248500e+003,0.000000e+000
2.249464e+003,0.000000e+000
2.250428e+003,0.000000e+000
2.251393e+003,0.000000e+000
2.252357e+003,0.000000e+000
2.253321e+003,0.000000e+000
2.254285e+003,0.000000e+000
2.255250e+003,0.000000e+000
2.256214e+003,0.000000e+000
2.257178e+003,0.000000e+000
2.258142e+003,0.000000e+000
2.259106e+003,0.000000e+000
2.260071e+003,0.000000e+000
2.261035e+003,0.000000e+000
2.261999e+003,0.000000e+000
2.262963e+003,0.000000e+000
2.263928e+003,0.000000e+000
2.264892e+003,0.000000e+000
2.265856e+003,0.000000e+000
2.266820e+003,0.000000e+000
2.267785e+003,0.000000e+000
2.268749e+003,0.000000e+000
2.269713e+003,0.000000e+000
2.270677e+003,0.000000e+000
2.271642e+003,0.000000e+000
2.272606e+003,0.000000e+000
2.273570e+003,0.000000e+000
2.274534e+003,0.000000e+000
2.275499e+003,0.000000e+000
2.276463e+003,0.000000e+000
2.277427e+003,0.000000e+000
2.278391e+003,0.000000e+000
2.279355e+003,0.000000e+000
2.280320e+003,0.000000e+000
2.281284e+003,0.000000e+000
2.282248e+003,0.000000e+000
2.283212e+003,0.000000e+000
2.284177e+003,0.000000e+000
2.285141e+003,0.000000e+000
2.286105e+003,0.000000e+000
2.287069e+003,0.000000e+000
2.288033e+003,0.000000e+000
2.288998e+003,0.000000e+000
2.289962e+003,0.000000e+000
2.290926e+003,0.000000e+000
2.291890e+003,0.000000e+000
2.292855e+003,0.000000e+000
2.293819e+003,0.000000e+000
2.294783e+003,0.000000e+000
2.295747e+003,0.000000e+000
2.296712e+003,0.000000e+000
2.297676e+003,0.000000e+000
2.298640e+003,0.000000e+000
2.299604e+003,0.000000e+000
2.300569e+003,0.000000e+000
2.301533e+003,0.000000e+000
2.302497e+003,0.000000e+000
2.303461e+003,0.000000e+000
2.304426e+003,0.000000e+000
2.305390e+003,0.000000e+000
2.306354e+003,0.000000e+000
2.307318e+003,0.000000e+000
2.308282e+003,0.000000e+000
2.309247e+003,0.000000e+000
2.310211e+003,0.000000e+000
2.311175e+003,0.000000e+000
2.312139e+003,0.000000e+000
2.313104e+003,0.000000e+000
2.314068e+003,0.000000e+000
2.315032e+003,0.000000e+000
2.315996e+003,0.000000e+000
2.316960e+003,0.000000e+000
2.317925e+003,0.000000e+000
2.318889e+003,0.000000e+000
2.319853e+003,0.000000e+000
2.320817e+003,0.000000e+000
2.321782e+003,0.000000e+000
2.322746e+003,0.000000e+000
2.323710e+003,0.000000e+000
2.324674e+003,0.000000e+000
2.325639e+003,0.000000e+000
2.326603e+003,0.000000e+000
2.327567e+003,0.000000e+000
2.328531e+003,0.000000e+000
2.329496e+003,0.000000e+000
2.330460e+003,0.000000e+000
2.331424e+003,0.000000e+000
2.332388e+003,0.000000e+000
2.333353e+003,0.000000e+000
2.334317e+003,0.000000e+000
2.335281e+003,0.000000e+000
2.336245e+003,0.000000e+000
2.337209e+003,0.000000e+000
2.338174e+003,0.000000e+000
2.339138e+003,0.000000e+000
2.340102e+003,0.000000e+000
2.341066e+003,0.000000e+000
2.342031e+003,0.000000e+000
2.342995e+003,0.000000e+000
2.343959e+003,0.000000e+000
2.344923e+003,0.000000e+000
2.345887e+003,0.000000e+000
2.346852e+003,0.000000e+000
2.347816e+003,0.000000e+000
2.348780e+003,0.000000e+000
2.349744e+003,0.000000e+000
2.350709e+003,0.000000e+000
2.351673e+003,0.000000e+000
2.352637e+003,0.000000e+000
2.353601e+003,0.000000e+000
2.354566e+003,0.000000e+000
2.355530e+003,0.000000e+000
2.356494e+003,0.000000e+000
2.357458e+003,0.000000e+000
2.358423e+003,0.000000e+000
2.359387e+003,0.000000e+000
2.360351e+003,0.000000e+000
2.361315e+003,0.000000e+000
2.362280e+003,0.000000e+000
2.363244e+003,0.000000e+000
2.364208e+003,0.000000e+000
2.365172e+003,0.000000e+000
2.366136e+003,0.000000e+000
2.367101e+003,0.000000e+000
2.368065e+003,0.000000e+000
2.369029e+003,0.000000e+000
2.369993e+003,0.000000e+000
2.370958e+003,0.000000e+000
2.371922e+003,0.000000e+000
2.372886e+003,0.000000e+000
2.373850e+003,0.000000e+000
2.374814e+003,0.000000e+000
2.375779e+003,0.000000e+000
2.376743e+003,0.000000e+000
2.377707e+003,0.000000e+000
2.378671e+003,0.000000e+000
2.379636e+003,0.000000e+000
2.380600e+003,0.000000e+000
2.381564e+003,0.000000e+000
2.382528e+003,0.000000e+000
2.383493e+003,0.000000e+000
2.384457e+003,0.000000e+000
2.385421e+003,0.000000e+000
2.386385e+003,0.000000e+000
2.387350e+003,0.000000e+000
2.388314e+003,0.000000e+000
2.389278e+003,0.000000e+000
2.390242e+003,0.000000e+000
2.391207e+003,0.000000e+000
2.392171e+003,0.000000e+000
2.393135e+003,0.000000e+000
2.394099e+003,0.000000e+000
2.395063e+003,0.000000e+000
2.396028e+003,0.000000e+000
2.396992e+003,0.000000e+000
2.397956e+003,0.000000e+000
2.398920e+003,0.000000e+000
2.399885e+003,0.000000e+000
2.400849e+003,0.000000e+000
2.401813e+003,0.000000e+000
2.402777e+003,0.000000e+000
2.403741e+003,0.000000e+000
2.404706e+003,0.000000e+000
2.405670e+003,0.000000e+000
2.406634e+003,0.000000e+000
2.407598e+003,0.000000e+000
2.408563e+003,0.000000e+000
2.409527e+003,0.000000e+000
2.410491e+003,0.000000e+000
2.411455e+003,0.000000e+000
2.412420e+003,0.000000e+000
2.413384e+003,0.000000e+000
2.414348e+003,0.000000e+000
2.415312e+003,0.000000e+000
2.416277e+003,0.000000e+000
2.417241e+003,0.000000e+000
2.418205e+003,0.000000e+000
2.419169e+003,0.000000e+000
2.420134e+003,0.000000e+000
2.421098e+003,0.000000e+000
2.422062e+003,0.000000e+000
2.423026e+003,0.000000e+000
2.423990e+003,0.000000e+000
2.424955e+003,0.000000e+000
2.425919e+003,0.000000e+000
2.426883e+003,0.000000e+000
2.427847e+003,0.000000e+000
2.428812e+003,0.000000e+000
2.429776e+003,0.000000e+000
2.430740e+003,0.000000e+000
2.431704e+003,0.000000e+000
2.432668e+003,0.000000e+000
2.433633e+003,0.000000e+000
2.434597e+003,0.000000e+000
2.435561e+003,0.000000e+000
2.436525e+003,0.000000e+000
2.437490e+003,0.000000e+000
2.438454e+003,0.000000e+000
2.439418e+003,0.000000e+000
2.440382e+003,0.000000e+000
2.441347e+003,0.000000e+000
2.442311e+003,0.000000e+000
2.443275e+003,0.000000e+000
2.444239e+003,0.000000e+000
2.445204e+003,0.000000e+000
2.446168e+003,0.000000e+000
2.447132e+003,0.000000e+000
2.448096e+003,0.000000e+000
2.449061e+003,0.000000e+000
2.450025e+003,0.000000e+000
2.450989e+003,0.000000e+000
2.451953e+003,0.000000e+000
2.452917e+003,0.000000e+000
2.453882e+003,0.000000e+000
2.454846e+003,0.000000e+000
2.455810e+003,0.000000e+000
2.456774e+003,0.000000e+000
2.457739e+003,0.000000e+000
2.458703e+003,0.000000e+000
2.459667e+003,0.000000e+000
2.460631e+003,0.000000e+000
2.461595e+003,0.000000e+000
2.462560e+003,0.000000e+000
2.463524e+003,0.000000e+000
2.464488e+003,0.000000e+000
2.465452e+003,0.000000e+000
2.466417e+003,0.000000e+000
2.467381e+003,0.000000e+000
2.468345e+003,0.000000e+000
2.469309e+003,0.000000e+000
2.470274e+003,0.000000e+000
2.471238e+003,0.000000e+000
2.472202e+003,0.000000e+000
2.473166e+003,0.000000e+000
2.474131e+003,0.000000e+000
2.475095e+003,0.000000e+000
2.476059e+003,0.000000e+000
2.477023e+003,0.000000e+000
2.477988e+003,0.000000e+000
2.478952e+003,0.000000e+000
2.479916e+003,0.000000e+000
2.480880e+003,0.000000e+000
2.481844e+003,0.000000e+000
2.482809e+003,0.000000e+000
2.483773e+003,0.000000e+000
2.484737e+003,0.000000e+000
2.485701e+003,0.000000e+000
2.486666e+003,0.000000e+000
2.487630e+003,0.000000e+000
2.488594e+003,0.000000e+000
2.489558e+003,0.000000e+000
2.490522e+003,0.000000e+000
2.491487e+003,0.000000e+000
2.492451e+003,0.000000e+000
2.493415e+003,0.000000e+000
2.494379e+003,0.000000e+000
2.495344e+003,0.000000e+000
2.496308e+003,0.000000e+000
2.497272e+003,0.000000e+000
2.498236e+003,0.000000e+000
2.499201e+003,0.000000e+000
2.500165e+003,0.000000e+000
2.501129e+003,0.000000e+000
2.502093e+003,0.000000e+000
2.503058e+003,0.000000e+000
2.504022e+003,0.000000e+000
2.504986e+003,0.000000e+000
2.505950e+003,0.000000e+000
2.506915e+003,0.000000e+000
2.507879e+003,0.000000e+000
2.508843e+003,0.000000e+000
2.509807e+003,0.000000e+000
2.510771e+003,0.000000e+000
2.511736e+003,0.000000e+000
2.512700e+003,0.000000e+000
2.513664e+003,0.000000e+000
2.514628e+003,0.000000e+000
2.515593e+003,0.000000e+000
2.516557e+003,0.000000e+000
2.517521e+003,0.000000e+000
2.518485e+003,0.000000e+000
2.519449e+003,0.000000e+000
2.520414e+003,0.000000e+000
2.521378e+003,0.000000e+000
2.522342e+003,0.000000e+000
2.523306e+003,0.000000e+000
2.524271e+003,0.000000e+000
2.525235e+003,0.000000e+000
2.526199e+003,0.000000e+000
2.527163e+003,0.000000e+000
2.528128e+003,0.000000e+000
2.529092e+003,0.000000e+000
2.530056e+003,0.000000e+000
2.531020e+003,0.000000e+000
2.531985e+003,0.000000e+000
2.532949e+003,0.000000e+000
2.533913e+003,0.000000e+000
2.534877e+003,0.000000e+000
2.535842e+003,0.000000e+000
2.536806e+003,0.000000e+000
2.537770e+003,0.000000e+000
2.538734e+003,0.000000e+000
2.539698e+003,0.000000e+000
2.540663e+003,0.000000e+000
2.541627e+003,0.000000e+000
2.542591e+003,0.000000e+000
2.543555e+003,0.000000e+000
2.544520e+003,0.000000e+000
2.545484e+003,0.000000e+000
2.546448e+003,0.000000e+000
2.547412e+003,0.000000e+000
2.548376e+003,0.000000e+000
2.549341e+003,0.000000e+000
2.550305e+003,0.000000e+000
2.551269e+003,0.000000e+000
2.552233e+003,0.000000e+000
2.553198e+003,0.000000e+000
2.554162e+003,0.000000e+000
2.555126e+003,0.000000e+000
2.556090e+003,0.000000e+000
2.557055e+003,0.000000e+000
2.558019e+003,0.000000e+000
2.558983e+003,0.000000e+000
2.559947e+003,0.000000e+000
2.560912e+003,0.000000e+000
2.561876e+003,0.000000e+000
2.562840e+003,0.000000e+000
2.563804e+003,0.000000e+000
2.564769e+003,0.000000e+000
2.565733e+003,0.000000e+000
2.566697e+003,0.000000e+000
2.567661e+003,0.000000e+000
2.568625e+003,0.000000e+000
2.569590e+003,0.000000e+000
2.570554e+003,0.000000e+000
2.571518e+003,0.000000e+000
2.572482e+003,0.000000e+000
2.573447e+003,0.000000e+000
2.574411e+003,0.000000e+000
2.575375e+003,0.000000e+000
2.576339e+003,0.000000e+000
2.577303e+003,0.000000e+000
2.578268e+003,0.000000e+000
2.579232e+003,0.000000e+000
2.580196e+003,0.000000e+000
2.581160e+003,0.000000e+000
2.582125e+003,0.000000e+000
2.583089e+003,0.000000e+000
2.584053e+003,0.000000e+000
2.585017e+003,0.000000e+000
2.585982e+003,0.000000e+000
2.586946e+003,0.000000e+000
2.587910e+003,0.000000e+000
2.588874e+003,0.000000e+000
2.589839e+003,0.000000e+000
2.590803e+003,0.000000e+000
2.591767e+003,0.000000e+000
2.592731e+003,0.000000e+000
2.593696e+003,0.000000e+000
2.594660e+003,0.000000e+000
2.595624e+003,0.000000e+000
2.596588e+003,0.000000e+000
2.597552e+003,0.000000e+000
2.598517e+003,0.000000e+000
2.599481e+003,0.000000e+000
2.600445e+003,0.000000e+000
2.601409e+003,0.000000e+000
2.602374e+003,0.000000e+000
2.603338e+003,0.000000e+000
2.604302e+003,0.000000e+000
2.605266e+003,0.000000e+000
2.606230e+003,0.000000e+000
2.607195e+003,0.000000e+000
2.608159e+003,0.000000e+000
2.609123e+003,0.000000e+000
2.610087e+003,0.000000e+000
2.611052e+003,0.000000e+000
2.612016e+003,0.000000e+000
2.612980e+003,0.000000e+000
2.613944e+003,0.000000e+000
2.614909e+003,0.000000e+000
2.615873e+003,0.000000e+000
2.616837e+003,0.000000e+000
2.617801e+003,0.000000e+000
2.618766e+003,0.000000e+000
2.619730e+003,0.000000e+000
2.620694e+003,0.000000e+000
2.621658e+003,0.000000e+000
2.622623e+003,0.000000e+000
2.623587e+003,0.000000e+000
2.624551e+003,0.000000e+000
2.625515e+003,0.000000e+000
2.626479e+003,0.000000e+000
2.627444e+003,0.000000e+000
2.628408e+003,0.000000e+000
2.629372e+003,0.000000e+000
2.630336e+003,0.000000e+000
2.631301e+003,0.000000e+000
2.632265e+003,0.000000e+000
2.633229e+003,0.000000e+000
2.634193e+003,0.000000e+000
2.635157e+003,0.000000e+000
2.636122e+003,0.000000e+000
2.637086e+003,0.000000e+000
2.638050e+003,0.000000e+000
2.639014e+003,0.000000e+000
2.639979e+003,0.000000e+000
2.640943e+003,0.000000e+000
2.641907e+003,0.000000e+000
2.642871e+003,0.000000e+000
2.643836e+003,0.000000e+000
2.644800e+003,0.000000e+000
2.645764e+003,0.000000e+000
2.646728e+003,0.000000e+000
2.647693e+003,0.000000e+000
2.648657e+003,0.000000e+000
2.649621e+003,0.000000e+000
2.650585e+003,0.000000e+000
2.651550e+003,0.000000e+000
2.652514e+003,0.000000e+000
2.653478e+003,0.000000e+000
2.654442e+003,0.000000e+000
2.655406e+003,0.000000e+000
2.656371e+003,0.000000e+000
2.657335e+003,0.000000e+000
2.658299e+003,0.000000e+000
2.659263e+003,0.000000e+000
2.660228e+003,0.000000e+000
2.661192e+003,0.000000e+000
2.662156e+003,0.000000e+000
2.663120e+003,0.000000e+000
2.664084e+003,0.000000e+000
2.665049e+003,0.000000e+000
2.666013e+003,0.000000e+000
2.666977e+003,0.000000e+000
2.667941e+003,0.000000e+000
2.668906e+003,0.000000e+000
2.669870e+003,0.000000e+000
2.670834e+003,0.000000e+000
2.671798e+003,0.000000e+000
2.672763e+003,0.000000e+000
2.673727e+003,0.000000e+000
2.674691e+003,0.000000e+000
2.675655e+003,0.000000e+000
2.676620e+003,0.000000e+000
2.677584e+003,0.000000e+000
2.678548e+003,0.000000e+000
2.679512e+003,0.000000e+000
2.680477e+003,0.000000e+000
2.681441e+003,0.000000e+000
2.682405e+003,0.000000e+000
2.683369e+003,0.000000e+000
2.684333e+003,0.000000e+000
2.685298e+003,0.000000e+000
2.686262e+003,0.000000e+000
2.687226e+003,0.000000e+000
2.688190e+003,0.000000e+000
2.689155e+003,0.000000e+000
2.690119e+003,0.000000e+000
2.691083e+003,0.000000e+000
2.692047e+003,0.000000e+000
2.693011e+003,0.000000e+000
2.693976e+003,0.000000e+000
2.694940e+003,0.000000e+000
2.695904e+003,0.000000e+000
2.696868e+003,0.000000e+000
2.697833e+003,0.000000e+000
2.698797e+003,0.000000e+000
2.699761e+003,0.000000e+000
2.700725e+003,0.000000e+000
2.701690e+003,0.000000e+000
2.702654e+003,0.000000e+000
2.703618e+003,0.000000e+000
2.704582e+003,0.000000e+000
2.705547e+003,0.000000e+000
2.706511e+003,0.000000e+000
2.707475e+003,0.000000e+000
2.708439e+003,0.000000e+000
2.709404e+003,0.000000e+000
2.710368e+003,0.000000e+000
2.711332e+003,0.000000e+000
2.712296e+003,0.000000e+000
2.713260e+003,0.000000e+000
2.714225e+003,0.000000e+000
2.715189e+003,0.000000e+000
2.716153e+003,0.000000e+000
2.717117e+003,0.000000e+000
2.718082e+003,0.000000e+000
2.719046e+003,0.000000e+000
2.720010e+003,0.000000e+000
2.720974e+003,0.000000e+000
2.721938e+003,0.000000e+000
2.722903e+003,0.000000e+000
2.723867e+003,0.000000e+000
2.724831e+003,0.000000e+000
2.725795e+003,0.000000e+000
2.726760e+003,0.000000e+000
2.727724e+003,0.000000e+000
2.728688e+003,0.000000e+000
2.729652e+003,0.000000e+000
2.730617e+003,0.000000e+000
2.731581e+003,0.000000e+000
2.732545e+003,0.000000e+000
2.733509e+003,0.000000e+000
2.734474e+003,0.000000e+000
2.735438e+003,0.000000e+000
2.736402e+003,0.000000e+000
2.737366e+003,0.000000e+000
2.738331e+003,0.000000e+000
2.739295e+003,0.000000e+000
2.740259e+003,0.000000e+000
2.741223e+003,0.000000e+000
2.742188e+003,0.000000e+000
2.743152e+003,0.000000e+000
2.744116e+003,0.000000e+000
2.745080e+003,0.000000e+000
2.746044e+003,0.000000e+000
2.747009e+003,0.000000e+000
2.747973e+003,0.000000e+000
2.748937e+003,0.000000e+000
2.749901e+003,0.000000e+000
2.750865e+003,0.000000e+000
2.751830e+003,0.000000e+000
2.752794e+003,0.000000e+000
2.753758e+003,0.000000e+000
2.754722e+003,0.000000e+000
2.755687e+003,0.000000e+000
2.756651e+003,0.000000e+000
2.757615e+003,0.000000e+000
2.758579e+003,0.000000e+000
2.759544e+003,0.000000e+000
2.760508e+003,0.000000e+000
2.761472e+003,0.000000e+000
2.762436e+003,0.000000e+000
2.763401e+003,0.000000e+000
2.764365e+003,0.000000e+000
2.765329e+003,0.000000e+000
2.766293e+003,0.000000e+000
2.767258e+003,0.000000e+000
2.768222e+003,0.000000e+000
2.769186e+003,0.000000e+000
2.770150e+003,0.000000e+000
2.771115e+003,0.000000e+000
2.772079e+003,0.000000e+000
2.773043e+003,0.000000e+000
2.774007e+003,0.000000e+000
2.774971e+003,0.000000e+000
2.775936e+003,0.000000e+000
2.776900e+003,0.000000e+000
2.777864e+003,0.000000e+000
2.778828e+003,0.000000e+000
2.779792e+003,0.000000e+000
2.780757e+003,0.000000e+000
2.781721e+003,0.000000e+000
2.782685e+003,0.000000e+000
2.783649e+003,0.000000e+000
2.784614e+003,0.000000e+000
2.785578e+003,0.000000e+000
2.786542e+003,0.000000e+000
2.787506e+003,0.000000e+000
2.788471e+003,0.000000e+000
2.789435e+003,0.000000e+000
2.790399e+003,0.000000e+000
2.791363e+003,0.000000e+000
2.792328e+003,0.000000e+000
2.793292e+003,0.000000e+000
2.794256e+003,0.000000e+000
2.795220e+003,0.000000e+000
2.796185e+003,0.000000e+000
2.797149e+003,0.000000e+000
2.798113e+003,0.000000e+000
2.799077e+003,0.000000e+000
2.800042e+003,0.000000e+000
2.801006e+003,0.000000e+000
2.801970e+003,0.000000e+000
2.802934e+003,0.000000e+000
2.803898e+003,0.000000e+000
2.804863e+003,0.000000e+000
2.805827e+003,0.000000e+000
2.806791e+003,0.000000e+000
2.807755e+003,0.000000e+000
2.808719e+003,0.000000e+000
2.809684e+003,0.000000e+000
2.810648e+003,0.000000e+000
2.811612e+003,0.000000e+000
2.812576e+003,0.000000e+000
2.813541e+003,0.000000e+000
2.814505e+003,0.000000e+000
2.815469e+003,0.000000e+000
2.816433e+003,0.000000e+000
2.817398e+003,0.000000e+000
2.818362e+003,0.000000e+000
2.819326e+003,0.000000e+000
2.820290e+003,0.000000e+000
2.821255e+003,0.000000e+000
2.822219e+003,0.000000e+000
2.823183e+003,0.000000e+000
2.824147e+003,0.000000e+000
2.825112e+003,0.000000e+000
2.826076e+003,0.000000e+000
2.827040e+003,0.000000e+000
2.828004e+003,0.000000e+000
2.828969e+003,0.000000e+000
2.829933e+003,0.000000e+000
2.830897e+003,0.000000e+000
2.831861e+003,0.000000e+000
2.832825e+003,0.000000e+000
2.833790e+003,0.000000e+000
2.834754e+003,0.000000e+000
2.835718e+003,0.000000e+000
2.836682e+003,0.000000e+000
2.837646e+003,0.000000e+000
2.838611e+003,0.000000e+000
2.839575e+003,0.000000e+000
2.840539e+003,0.000000e+000
2.841503e+003,0.000000e+000
2.842468e+003,0.000000e+000
2.843432e+003,0.000000e+000
2.844396e+003,0.000000e+000
2.845360e+003,0.000000e+000
2.846325e+003,0.000000e+000
2.847289e+003,0.000000e+000
2.848253e+003,0.000000e+000
2.849217e+003,0.000000e+000
2.850182e+003,0.000000e+000
2.851146e+003,0.000000e+000
2.852110e+003,0.000000e+000
2.853074e+003,0.000000e+000
2.854039e+003,0.000000e+000
2.855003e+003,0.000000e+000
2.855967e+003,0.000000e+000
2.856931e+003,0.000000e+000
2.857896e+003,0.000000e+000
2.858860e+003,0.000000e+000
2.859824e+003,0.000000e+000
2.860788e+003,0.000000e+000
2.861752e+003,0.000000e+000
2.862717e+003,0.000000e+000
2.863681e+003,0.000000e+000
2.864645e+003,0.000000e+000
2.865609e+003,0.000000e+000
2.866573e+003,0.000000e+000
2.867538e+003,0.000000e+000
2.868502e+003,0.000000e+000
2.869466e+003,0.000000e+000
2.870430e+003,0.000000e+000
2.871395e+003,0.000000e+000
2.872359e+003,0.000000e+000
2.873323e+003,0.000000e+000
2.874287e+003,0.000000e+000
2.875252e+003,0.000000e+000
2.876216e+003,0.000000e+000
2.877180e+003,0.000000e+000
2.878144e+003,0.000000e+000
2.879109e+003,0.000000e+000
2.880073e+003,0.000000e+000
2.881037e+003,0.000000e+000
2.882001e+003,0.000000e+000
2.882966e+003,0.000000e+000
2.883930e+003,0.000000e+000
2.884894e+003,0.000000e+000
2.885858e+003,0.000000e+000
2.886823e+003,0.000000e+000
2.887787e+003,0.000000e+000
2.888751e+003,0.000000e+000
2.889715e+003,0.000000e+000
2.890679e+003,0.000000e+000
2.891644e+003,0.000000e+000
2.892608e+003,0.000000e+000
2.893572e+003,0.000000e+000
2.894536e+003,0.000000e+000
2.895500e+003,0.000000e+000
2.896465e+003,0.000000e+000
2.897429e+003,0.000000e+000
2.898393e+003,0.000000e+000
2.899357e+003,0.000000e+000
2.900322e+003,0.000000e+000
2.901286e+003,0.000000e+000
2.902250e+003,0.000000e+000
2.903214e+003,0.000000e+000
2.904179e+003,0.000000e+000
2.905143e+003,0.000000e+000
2.906107e+003,0.000000e+000
2.907071e+003,0.000000e+000
2.908036e+003,0.000000e+000
2.909000e+003,0.000000e+000
2.909964e+003,0.000000e+000
2.910928e+003,0.000000e+000
2.911893e+003,0.000000e+000
2.912857e+003,0.000000e+000
2.913821e+003,0.000000e+000
2.914785e+003,0.000000e+000
2.915750e+003,0.000000e+000
2.916714e+003,0.000000e+000
2.917678e+003,0.000000e+000
2.918642e+003,0.000000e+000
2.919606e+003,0.000000e+000
2.920571e+003,0.000000e+000
2.921535e+003,0.000000e+000
2.922499e+003,0.000000e+000
2.923463e+003,0.000000e+000
2.924427e+003,0.000000e+000
2.925392e+003,0.000000e+000
2.926356e+003,0.000000e+000
2.927320e+003,0.000000e+000
2.928284e+003,0.000000e+000
2.929249e+003,0.000000e+000
2.930213e+003,0.000000e+000
2.931177e+003,0.000000e+000
2.932141e+003,0.000000e+000
2.933106e+003,0.000000e+000
2.934070e+003,0.000000e+000
2.935034e+003,0.000000e+000
2.935998e+003,0.000000e+000
2.936963e+003,0.000000e+000
2.937927e+003,0.000000e+000
2.938891e+003,0.000000e+000
2.939855e+003,0.000000e+000
2.940820e+003,0.000000e+000
2.941784e+003,0.000000e+000
2.942748e+003,0.000000e+000
2.943712e+003,0.000000e+000
2.944677e+003,0.000000e+000
2.945641e+003,0.000000e+000
2.946605e+003,0.000000e+000
2.947569e+003,0.000000e+000
2.948533e+003,0.000000e+000
2.949498e+003,0.000000e+000
2.950462e+003,0.000000e+000
2.951426e+003,0.000000e+000
2.952390e+003,0.000000e+000
2.953354e+003,0.000000e+000
2.954319e+003,0.000000e+000
2.955283e+003,0.000000e+000
2.956247e+003,0.000000e+000
2.957211e+003,0.000000e+000
2.958176e+003,0.000000e+000
2.959140e+003,0.000000e+000
2.960104e+003,0.000000e+000
2.961068e+003,0.000000e+000
2.962033e+003,0.000000e+000
2.962997e+003,0.000000e+000
2.963961e+003,0.000000e+000
2.964925e+003,0.000000e+000
2.965890e+003,0.000000e+000
2.966854e+003,0.000000e+000
2.967818e+003,0.000000e+000
2.968782e+003,0.000000e+000
2.969747e+003,0.000000e+000
2.970711e+003,0.000000e+000
2.971675e+003,0.000000e+000
2.972639e+003,0.000000e+000
2.973604e+003,0.000000e+000
2.974568e+003,0.000000e+000
2.975532e+003,0.000000e+000
2.976496e+003,0.000000e+000
2.977460e+003,0.000000e+000
2.978425e+003,0.000000e+000
2.979389e+003,0.000000e+000
2.980353e+003,0.000000e+000
2.981317e+003,0.000000e+000
2.982281e+003,0.000000e+000
2.983246e+003,0.000000e+000
2.984210e+003,0.000000e+000
2.985174e+003,0.000000e+000
2.986138e+003,0.000000e+000
2.987103e+003,0.000000e+000
2.988067e+003,0.000000e+000
2.989031e+003,0.000000e+000
2.989995e+003,0.000000e+000
2.990960e+003,0.000000e+000
2.991924e+003,0.000000e+000
2.992888e+003,0.000000e+000
2.993852e+003,0.000000e+000
2.994817e+003,0.000000e+000
2.995781e+003,0.000000e+000
2.996745e+003,0.000000e+000
2.997709e+003,0.000000e+000
2.998674e+003,0.000000e+000
2.999638e+003,0.000000e+000
3.000602e+003,0.000000e+000
3.001566e+003,0.000000e+000
3.002531e+003,0.000000e+000
3.003495e+003,0.000000e+000
3.004459e+003,0.000000e+000
3.005423e+003,0.000000e+000
3.006387e+003,0.000000e+000
3.007352e+003,0.000000e+000
3.008316e+003,0.000000e+000
3.009280e+003,0.000000e+000
3.010244e+003,0.000000e+000
3.011208e+003,0.000000e+000
3.012173e+003,0.000000e+000
3.013137e+003,0.000000e+000
3.014101e+003,0.000000e+000
3.015065e+003,0.000000e+000
3.016030e+003,0.000000e+000
3.016994e+003,0.000000e+000
3.017958e+003,0.000000e+000
3.018922e+003,0.000000e+000
3.019887e+003,0.000000e+000
3.020851e+003,0.000000e+000
3.021815e+003,0.000000e+000
3.022779e+003,0.000000e+000
3.023744e+003,0.000000e+000
3.024708e+003,0.000000e+000
3.025672e+003,0.000000e+000
3.026636e+003,0.000000e+000
3.027601e+003,0.000000e+000
3.028565e+003,0.000000e+000
3.029529e+003,0.000000e+000
3.030493e+003,0.000000e+000
3.031458e+003,0.000000e+000
3.032422e+003,0.000000e+000
3.033386e+003,0.000000e+000
3.034350e+003,0.000000e+000
3.035314e+003,0.000000e+000
3.036279e+003,0.000000e+000
3.037243e+003,0.000000e+000
3.038207e+003,0.000000e+000
3.039171e+003,0.000000e+000
3.040135e+003,0.000000e+000
3.041100e+003,0.000000e+000
3.042064e+003,0.000000e+000
3.043028e+003,0.000000e+000
3.043992e+003,0.000000e+000
3.044957e+003,0.000000e+000
3.045921e+003,0.000000e+000
3.046885e+003,0.000000e+000
3.047849e+003,0.000000e+000
3.048814e+003,0.000000e+000
3.049778e+003,0.000000e+000
3.050742e+003,0.000000e+000
3.051706e+003,0.000000e+000
3.052671e+003,0.000000e+000
3.053635e+003,0.000000e+000
3.054599e+003,0.000000e+000
3.055563e+003,0.000000e+000
3.056528e+003,0.000000e+000
3.057492e+003,0.000000e+000
3.058456e+003,0.000000e+000
3.059420e+003,0.000000e+000
3.060385e+003,0.000000e+000
3.061349e+003,0.000000e+000
3.062313e+003,0.000000e+000
3.063277e+003,0.000000e+000
3.064241e+003,0.000000e+000
3.065206e+003,0.000000e+000
3.066170e+003,0.000000e+000
3.067134e+003,0.000000e+000
3.068098e+003,0.000000e+000
3.069063e+003,0.000000e+000
3.070027e+003,0.000000e+000
3.070991e+003,0.000000e+000
3.071955e+003,0.000000e+000
3.072920e+003,0.000000e+000
3.073884e+003,0.000000e+000
3.074848e+003,0.000000e+000
3.075812e+003,0.000000e+000
3.076777e+003,0.000000e+000
3.077741e+003,0.000000e+000
3.078705e+003,0.000000e+000
3.079669e+003,0.000000e+000
3.080634e+003,0.000000e+000
3.081598e+003,0.000000e+000
3.082562e+003,0.000000e+000
3.083526e+003,0.000000e+000
3.084490e+003,0.000000e+000
3.085455e+003,0.000000e+000
3.086419e+003,0.000000e+000
3.087383e+003,0.000000e+000
3.088347e+003,0.000000e+000
3.089312e+003,0.000000e+000
3.090276e+003,0.000000e+000
3.091240e+003,0.000000e+000
3.092204e+003,0.000000e+000
3.093168e+003,0.000000e+000
3.094133e+003,0.000000e+000
3.095097e+003,0.000000e+000
3.096061e+003,0.000000e+000
3.097025e+003,0.000000e+000
3.097990e+003,0.000000e+000
3.098954e+003,0.000000e+000
3.099918e+003,0.000000e+000
3.100882e+003,0.000000e+000
3.101847e+003,0.000000e+000
3.102811e+003,0.000000e+000
3.103775e+003,0.000000e+000
3.104739e+003,0.000000e+000
3.105704e+003,0.000000e+000
3.106668e+003,0.000000e+000
3.107632e+003,0.000000e+000
3.108596e+003,0.000000e+000
3.109561e+003,0.000000e+000
3.110525e+003,0.000000e+000
3.111489e+003,0.000000e+000
3.112453e+003,0.000000e+000
3.113417e+003,0.000000e+000
3.114382e+003,0.000000e+000
3.115346e+003,0.000000e+000
3.116310e+003,0.000000e+000
3.117274e+003,0.000000e+000
3.118239e+003,0.000000e+000
3.119203e+003,0.000000e+000
3.120167e+003,0.000000e+000
3.121131e+003,0.000000e+000
3.122095e+003,0.000000e+000
3.123060e+003,0.000000e+000
3.124024e+003,0.000000e+000
3.124988e+003,0.000000e+000
3.125952e+003,0.000000e+000
3.126917e+003,0.000000e+000
3.127881e+003,0.000000e+000
3.128845e+003,0.000000e+000
3.129809e+003,0.000000e+000
3.130774e+003,0.000000e+000
3.131738e+003,0.000000e+000
3.132702e+003,0.000000e+000
3.133666e+003,0.000000e+000
3.134631e+003,0.000000e+000
3.135595e+003,0.000000e+000
3.136559e+003,0.000000e+000
3.137523e+003,0.000000e+000
3.138488e+003,0.000000e+000
3.139452e+003,0.000000e+000
3.140416e+003,0.000000e+000
3.141380e+003,0.000000e+000
3.142344e+003,0.000000e+000
3.143309e+003,0.000000e+000
3.144273e+003,0.000000e+000
3.145237e+003,0.000000e+000
3.146201e+003,0.000000e+000
3.147166e+003,0.000000e+000
3.148130e+003,0.000000e+000
3.149094e+003,0.000000e+000
3.150058e+003,0.000000e+000
3.151022e+003,0.000000e+000
3.151987e+003,0.000000e+000
3.152951e+003,0.000000e+000
3.153915e+003,0.000000e+000
3.154879e+003,0.000000e+000
3.155844e+003,0.000000e+000
3.156808e+003,0.000000e+000
3.157772e+003,0.000000e+000
3.158736e+003,0.000000e+000
3.159701e+003,0.000000e+000
3.160665e+003,0.000000e+000
3.161629e+003,0.000000e+000
3.162593e+003,0.000000e+000
3.163558e+003,0.000000e+000
3.164522e+003,0.000000e+000
3.165486e+003,0.000000e+000
3.166450e+003,0.000000e+000
3.167415e+003,0.000000e+000
3.168379e+003,0.000000e+000
3.169343e+003,0.000000e+000
3.170307e+003,0.000000e+000
3.171271e+003,0.000000e+000
3.172236e+003,0.000000e+000
3.173200e+003,0.000000e+000
3.174164e+003,0.000000e+000
3.175128e+003,0.000000e+000
3.176093e+003,0.000000e+000
3.177057e+003,0.000000e+000
3.178021e+003,0.000000e+000
3.178985e+003,0.000000e+000
3.179949e+003,0.000000e+000
3.180914e+003,0.000000e+000
3.181878e+003,0.000000e+000
3.182842e+003,0.000000e+000
3.183806e+003,0.000000e+000
3.184771e+003,0.000000e+000
3.185735e+003,0.000000e+000
3.186699e+003,0.000000e+000
3.187663e+003,0.000000e+000
3.188628e+003,0.000000e+000
3.189592e+003,0.000000e+000
3.190556e+003,0.000000e+000
3.191520e+003,0.000000e+000
3.192485e+003,0.000000e+000
3.193449e+003,0.000000e+000
3.194413e+003,0.000000e+000
3.195377e+003,0.000000e+000
3.196342e+003,0.000000e+000
3.197306e+003,0.000000e+000
3.198270e+003,0.000000e+000
3.199234e+003,0.000000e+000
3.200198e+003,0.000000e+000
3.201163e+003,0.000000e+000
3.202127e+003,0.000000e+000
3.203091e+003,0.000000e+000
3.204055e+003,0.000000e+000
3.205020e+003,0.000000e+000
3.205984e+003,0.000000e+000
3.206948e+003,0.000000e+000
3.207912e+003,0.000000e+000
3.208876e+003,0.000000e+000
3.209841e+003,0.000000e+000
3.210805e+003,0.000000e+000
3.211769e+003,0.000000e+000
3.212733e+003,0.000000e+000
3.213698e+003,0.000000e+000
3.214662e+003,0.000000e+000
3.215626e+003,0.000000e+000
3.216590e+003,0.000000e+000
3.217555e+003,0.000000e+000
3.218519e+003,0.000000e+000
3.219483e+003,0.000000e+000
3.220447e+003,0.000000e+000
3.221412e+003,0.000000e+000
3.222376e+003,0.000000e+000
3.223340e+003,0.000000e+000
3.224304e+003,0.000000e+000
3.225269e+003,0.000000e+000
3.226233e+003,0.000000e+000
3.227197e+003,0.000000e+000
3.228161e+003,0.000000e+000
3.229125e+003,0.000000e+000
3.230090e+003,0.000000e+000
3.231054e+003,0.000000e+000
3.232018e+003,0.000000e+000
3.232982e+003,0.000000e+000
3.233947e+003,0.000000e+000
3.234911e+003,0.000000e+000
3.235875e+003,0.000000e+000
3.236839e+003,0.000000e+000
3.237803e+003,0.000000e+000
3.238768e+003,0.000000e+000
3.239732e+003,0.000000e+000
3.240696e+003,0.000000e+000
3.241660e+003,0.000000e+000
3.242625e+003,0.000000e+000
3.243589e+003,0.000000e+000
3.244553e+003,0.000000e+000
3.245517e+003,0.000000e+000
3.246482e+003,0.000000e+000
3.247446e+003,0.000000e+000
3.248410e+003,0.000000e+000
3.249374e+003,0.000000e+000
3.250339e+003,0.000000e+000
3.251303e+003,0.000000e+000
3.252267e+003,0.000000e+000
3.253231e+003,0.000000e+000
3.254196e+003,0.000000e+000
3.255160e+003,0.000000e+000
3.256124e+003,0.000000e+000
3.257088e+003,0.000000e+000
3.258052e+003,0.000000e+000
3.259017e+003,0.000000e+000
3.259981e+003,0.000000e+000
3.260945e+003,0.000000e+000
3.261909e+003,0.000000e+000
3.262874e+003,0.000000e+000
3.263838e+003,0.000000e+000
3.264802e+003,0.000000e+000
3.265766e+003,0.000000e+000
3.266730e+003,0.000000e+000
3.267695e+003,0.000000e+000
3.268659e+003,0.000000e+000
3.269623e+003,0.000000e+000
3.270587e+003,0.000000e+000
3.271552e+003,0.000000e+000
3.272516e+003,0.000000e+000
3.273480e+003,0.000000e+000
3.274444e+003,0.000000e+000
3.275409e+003,0.000000e+000
3.276373e+003,0.000000e+000
3.277337e+003,0.000000e+000
3.278301e+003,0.000000e+000
3.279266e+003,0.000000e+000
3.280230e+003,0.000000e+000
3.281194e+003,0.000000e+000
3.282158e+003,0.000000e+000
3.283123e+003,0.000000e+000
3.284087e+003,0.000000e+000
3.285051e+003,0.000000e+000
3.286015e+003,0.000000e+000
3.286979e+003,0.000000e+000
3.287944e+003,0.000000e+000
3.288908e+003,0.000000e+000
3.289872e+003,0.000000e+000
3.290836e+003,0.000000e+000
3.291801e+003,0.000000e+000
3.292765e+003,0.000000e+000
3.293729e+003,0.000000e+000
3.294693e+003,0.000000e+000
3.295657e+003,0.000000e+000
3.296622e+003,0.000000e+000
3.297586e+003,0.000000e+000
3.298550e+003,0.000000e+000
3.299514e+003,0.000000e+000
3.300479e+003,0.000000e+000
3.301443e+003,0.000000e+000
3.302407e+003,0.000000e+000
3.303371e+003,0.000000e+000
3.304336e+003,0.000000e+000
3.305300e+003,0.000000e+000
3.306264e+003,0.000000e+000
3.307228e+003,0.000000e+000
3.308193e+003,0.000000e+000
3.309157e+003,0.000000e+000
3.310121e+003,0.000000e+000
3.311085e+003,0.000000e+000
3.312050e+003,0.000000e+000
3.313014e+003,0.000000e+000
3.313978e+003,0.000000e+000
3.314942e+003,0.000000e+000
3.315906e+003,0.000000e+000
3.316871e+003,0.000000e+000
3.317835e+003,0.000000e+000
3.318799e+003,0.000000e+000
3.319763e+003,0.000000e+000
3.320728e+003,0.000000e+000
3.321692e+003,0.000000e+000
3.322656e+003,0.000000e+000
3.323620e+003,0.000000e+000
3.324584e+003,0.000000e+000
3.325549e+003,0.000000e+000
3.326513e+003,0.000000e+000
3.327477e+003,0.000000e+000
3.328441e+003,0.000000e+000
3.329406e+003,0.000000e+000
3.330370e+003,0.000000e+000
3.331334e+003,0.000000e+000
3.332298e+003,0.000000e+000
3.333263e+003,0.000000e+000
3.334227e+003,0.000000e+000
3.335191e+003,0.000000e+000
3.336155e+003,0.000000e+000
3.337120e+003,0.000000e+000
3.338084e+003,0.000000e+000
3.339048e+003,0.000000e+000
3.340012e+003,0.000000e+000
3.340977e+003,0.000000e+000
3.341941e+003,0.000000e+000
3.342905e+003,0.000000e+000
3.343869e+003,0.000000e+000
3.344833e+003,0.000000e+000
3.345798e+003,0.000000e+000
3.346762e+003,0.000000e+000
3.347726e+003,0.000000e+000
3.348690e+003,0.000000e+000
3.349655e+003,0.000000e+000
3.350619e+003,0.000000e+000
3.351583e+003,0.000000e+000
3.352547e+003,0.000000e+000
3.353511e+003,0.000000e+000
3.354476e+003,0.000000e+000
3.355440e+003,0.000000e+000
3.356404e+003,0.000000e+000
3.357368e+003,0.000000e+000
3.358333e+003,0.000000e+000
3.359297e+003,0.000000e+000
3.360261e+003,0.000000e+000
3.361225e+003,0.000000e+000
3.362190e+003,0.000000e+000
3.363154e+003,0.000000e+000
3.364118e+003,0.000000e+000
3.365082e+003,0.000000e+000
3.366047e+003,0.000000e+000
3.367011e+003,0.000000e+000
3.367975e+003,0.000000e+000
3.368939e+003,0.000000e+000
3.369904e+003,0.000000e+000
3.370868e+003,0.000000e+000
3.371832e+003,0.000000e+000
3.372796e+003,0.000000e+000
3.373760e+003,0.000000e+000
3.374725e+003,0.000000e+000
3.375689e+003,0.000000e+000
3.376653e+003,0.000000e+000
3.377617e+003,0.000000e+000
3.378582e+003,0.000000e+000
3.379546e+003,0.000000e+000
3.380510e+003,0.000000e+000
3.381474e+003,0.000000e+000
3.382438e+003,0.000000e+000
3.383403e+003,0.000000e+000
3.384367e+003,0.000000e+000
3.385331e+003,0.000000e+000
3.386295e+003,0.000000e+000
3.387260e+003,0.000000e+000
3.388224e+003,0.000000e+000
3.389188e+003,0.000000e+000
3.390152e+003,0.000000e+000
3.391117e+003,0.000000e+000
3.392081e+003,0.000000e+000
3.393045e+003,0.000000e+000
3.394009e+003,0.000000e+000
3.394974e+003,0.000000e+000
3.395938e+003,0.000000e+000
3.396902e+003,0.000000e+000
3.397866e+003,0.000000e+000
3.398831e+003,0.000000e+000
3.399795e+003,0.000000e+000
3.400759e+003,0.000000e+000
3.401723e+003,0.000000e+000
3.402688e+003,0.000000e+000
3.403652e+003,0.000000e+000
3.404616e+003,0.000000e+000
3.405580e+003,0.000000e+000
3.406544e+003,0.000000e+000
3.407509e+003,0.000000e+000
3.408473e+003,0.000000e+000
3.409437e+003,0.000000e+000
3.410401e+003,0.000000e+000
3.411365e+003,0.000000e+000
3.412330e+003,0.000000e+000
3.413294e+003,0.000000e+000
3.414258e+003,0.000000e+000
3.415222e+003,0.000000e+000
3.416187e+003,0.000000e+000
3.417151e+003,0.000000e+000
3.418115e+003,0.000000e+000
3.419079e+003,0.000000e+000
3.420044e+003,0.000000e+000
3.421008e+003,0.000000e+000
3.421972e+003,0.000000e+000
3.422936e+003,0.000000e+000
3.423901e+003,0.000000e+000
3.424865e+003,0.000000e+000
3.425829e+003,0.000000e+000
3.426793e+003,0.000000e+000
3.427758e+003,0.000000e+000
3.428722e+003,0.000000e+000
3.429686e+003,0.000000e+000
3.430650e+003,0.000000e+000
3.431615e+003,0.000000e+000
3.432579e+003,0.000000e+000
3.433543e+003,0.000000e+000
3.434507e+003,0.000000e+000
3.435471e+003,0.000000e+000
3.436436e+003,0.000000e+000
3.437400e+003,0.000000e+000
3.438364e+003,0.000000e+000
3.439328e+003,0.000000e+000
3.440292e+003,0.000000e+000
3.441257e+003,0.000000e+000
3.442221e+003,0.000000e+000
3.443185e+003,0.000000e+000
3.444149e+003,0.000000e+000
3.445114e+003,0.000000e+000
3.446078e+003,0.000000e+000
3.447042e+003,0.000000e+000
3.448006e+003,0.000000e+000
3.448971e+003,0.000000e+000
3.449935e+003,0.000000e+000
3.450899e+003,0.000000e+000
3.451863e+003,0.000000e+000
3.452828e+003,0.000000e+000
3.453792e+003,0.000000e+000
3.454756e+003,0.000000e+000
3.455720e+003,0.000000e+000
3.456685e+003,0.000000e+000
3.457649e+003,0.000000e+000
3.458613e+003,0.000000e+000
3.459577e+003,0.000000e+000
3.460542e+003,0.000000e+000
3.461506e+003,0.000000e+000
3.462470e+003,0.000000e+000
3.463434e+003,0.000000e+000
3.464398e+003,0.000000e+000
3.465363e+003,0.000000e+000
3.466327e+003,0.000000e+000
3.467291e+003,0.000000e+000
3.468255e+003,0.000000e+000
3.469219e+003,0.000000e+000
3.470184e+003,0.000000e+000
3.471148e+003,0.000000e+000
3.472112e+003,0.000000e+000
3.473076e+003,0.000000e+000
3.474041e+003,0.000000e+000
3.475005e+003,0.000000e+000
3.475969e+003,0.000000e+000
3.476933e+003,0.000000e+000
3.477898e+003,0.000000e+000
3.478862e+003,0.000000e+000
3.479826e+003,0.000000e+000
3.480790e+003,0.000000e+000
3.481755e+003,0.000000e+000
3.482719e+003,0.000000e+000
3.483683e+003,0.000000e+000
3.484647e+003,0.000000e+000
3.485612e+003,0.000000e+000
3.486576e+003,0.000000e+000
3.487540e+003,0.000000e+000
3.488504e+003,0.000000e+000
3.489469e+003,0.000000e+000
3.490433e+003,0.000000e+000
3.491397e+003,0.000000e+000
3.492361e+003,0.000000e+000
3.493325e+003,0.000000e+000
3.494290e+003,0.000000e+000
3.495254e+003,0.000000e+000
3.496218e+003,0.000000e+000
3.497182e+003,0.000000e+000
3.498146e+003,0.000000e+000
3.499111e+003,0.000000e+000
3.500075e+003,0.000000e+000
