5.003444e+002,1.819658e+002
5.013087e+002,1.797606e+002
5.022729e+002,1.789178e+002
5.032371e+002,1.794482e+002
5.042014e+002,1.794772e+002
5.051656e+002,1.791077e+002
5.061298e+002,1.778398e+002
5.070941e+002,1.749903e+002
5.080583e+002,1.699075e+002
5.090225e+002,1.651815e+002
5.099868e+002,1.607018e+002
5.109510e+002,1.565052e+002
5.119152e+002,1.523118e+002
5.128795e+002,1.480643e+002
5.138437e+002,1.454749e+002
5.148079e+002,1.468947e+002
5.157722e+002,1.486901e+002
5.167364e+002,1.491896e+002
5.177006e+002,1.480843e+002
5.186649e+002,1.463502e+002
5.196291e+002,1.456949e+002
5.205933e+002,1.457478e+002
5.215576e+002,1.454338e+002
5.225218e+002,1.442136e+002
5.234860e+002,1.419235e+002
5.244503e+002,1.387413e+002
5.254145e+002,1.349627e+002
5.263787e+002,1.320475e+002
5.273430e+002,1.304001e+002
5.283072e+002,1.293292e+002
5.292714e+002,1.276218e+002
5.302357e+002,1.239053e+002
5.311999e+002,1.209871e+002
5.321641e+002,1.211362e+002
5.331284e+002,1.217947e+002
5.340926e+002,1.204796e+002
5.350568e+002,1.159076e+002
5.360211e+002,1.105109e+002
5.369853e+002,1.061190e+002
5.379495e+002,1.032415e+002
5.389138e+002,1.029470e+002
5.398780e+002,1.052161e+002
5.408422e+002,1.085627e+002
5.418065e+002,1.089832e+002
5.427707e+002,1.068558e+002
5.437349e+002,1.043440e+002
5.446992e+002,1.017031e+002
5.456634e+002,9.906512e+001
5.466276e+002,9.706372e+001
5.475919e+002,9.640594e+001
5.485561e+002,9.604156e+001
5.495203e+002,9.654382e+001
5.504846e+002,9.672223e+001
5.514488e+002,9.476404e+001
5.524130e+002,8.914716e+001
5.533773e+002,8.413593e+001
5.543415e+002,8.216614e+001
5.553057e+002,8.165277e+001
5.562700e+002,8.088000e+001
5.572342e+002,7.873450e+001
5.581984e+002,7.594788e+001
5.591627e+002,7.447748e+001
5.601269e+002,7.427039e+001
5.610911e+002,7.524316e+001
5.620554e+002,7.737500e+001
5.630196e+002,8.010583e+001
5.639838e+002,7.988043e+001
5.649481e+002,7.456940e+001
5.659123e+002,6.950909e+001
5.668765e+002,6.586810e+001
5.678408e+002,6.371442e+001
5.688050e+002,6.252649e+001
5.697692e+002,6.191083e+001
5.707335e+002,6.131366e+001
5.716977e+002,6.101843e+001
5.726619e+002,6.085382e+001
5.736262e+002,6.064362e+001
5.745904e+002,6.034753e+001
5.755546e+002,6.004944e+001
5.765189e+002,5.964990e+001
5.774831e+002,5.871399e+001
5.784473e+002,5.687714e+001
5.794116e+002,5.410345e+001
5.803758e+002,5.081189e+001
5.813400e+002,4.856335e+001
5.823043e+002,4.691779e+001
5.832685e+002,4.519012e+001
5.842327e+002,4.357245e+001
5.851970e+002,4.235034e+001
5.861612e+002,4.144446e+001
5.871254e+002,3.995264e+001
5.880897e+002,3.919568e+001
5.890539e+002,3.942957e+001
5.900181e+002,4.031128e+001
5.909824e+002,4.171063e+001
5.919466e+002,4.435742e+001
5.929108e+002,4.596930e+001
5.938751e+002,4.378583e+001
5.948393e+002,3.942670e+001
5.958035e+002,3.522870e+001
5.967678e+002,3.296948e+001
5.977320e+002,3.267224e+001
5.986962e+002,3.367609e+001
5.996605e+002,3.559003e+001
6.006247e+002,3.662506e+001
6.015889e+002,3.555817e+001
6.025532e+002,3.263300e+001
6.035174e+002,3.068079e+001
6.044816e+002,3.038403e+001
6.054459e+002,3.064874e+001
6.064101e+002,3.228400e+001
6.073743e+002,3.418689e+001
6.083386e+002,3.432312e+001
6.093028e+002,3.086713e+001
6.102670e+002,2.724908e+001
6.112313e+002,2.582452e+001
6.121955e+002,2.586389e+001
6.131597e+002,2.643622e+001
6.141240e+002,2.688660e+001
6.150882e+002,2.731049e+001
6.160524e+002,2.893262e+001
6.170167e+002,3.173431e+001
6.179809e+002,3.360498e+001
6.189451e+002,3.288763e+001
6.199094e+002,2.988190e+001
6.208736e+002,2.856293e+001
6.218378e+002,3.270319e+001
6.228021e+002,3.511432e+001
6.237663e+002,3.449176e+001
6.247305e+002,3.208594e+001
6.256948e+002,2.953748e+001
6.266590e+002,2.655231e+001
6.276232e+002,2.460480e+001
6.285875e+002,2.632562e+001
6.295517e+002,2.900635e+001
6.305159e+002,2.919092e+001
6.314802e+002,2.502502e+001
6.324444e+002,1.855609e+001
6.334086e+002,1.601233e+001
6.343729e+002,1.661926e+001
6.353371e+002,1.848279e+001
6.363013e+002,2.122705e+001
6.372656e+002,2.402234e+001
6.382298e+002,2.418823e+001
6.391940e+002,1.752527e+001
6.401583e+002,1.342450e+001
6.411225e+002,1.481030e+001
6.420867e+002,1.827136e+001
6.430510e+002,1.891443e+001
6.440152e+002,1.389209e+001
6.449794e+002,1.001306e+001
6.459437e+002,1.300568e+001
6.469079e+002,1.691815e+001
6.478721e+002,1.661322e+001
6.488364e+002,1.076898e+001
6.498006e+002,3.301819e+000
6.507648e+002,1.129089e+000
6.517291e+002,2.422363e+000
6.526933e+002,3.207581e+000
6.536575e+002,2.694885e+000
6.546218e+002,1.689331e+000
6.555860e+002,1.848389e+000
6.565502e+002,4.364319e+000
6.575145e+002,5.215881e+000
6.584787e+002,3.019165e+000
6.594429e+002,5.547485e-001
6.604072e+002,3.519897e-001
6.613714e+002,3.034729e+000
6.623356e+002,5.176819e+000
6.632999e+002,3.683167e+000
6.642641e+002,1.938477e+000
6.652283e+002,2.565186e+000
6.661926e+002,5.444397e+000
6.671568e+002,8.199768e+000
6.681210e+002,7.403687e+000
6.690853e+002,4.357361e+000
6.700495e+002,3.145630e+000
6.710137e+002,3.835083e+000
6.719780e+002,5.648438e+000
6.729422e+002,7.930359e+000
6.739064e+002,1.100372e+001
6.748707e+002,1.123151e+001
6.758349e+002,5.897461e+000
6.767991e+002,1.504150e+000
6.777634e+002,1.989075e+000
6.787276e+002,6.919067e+000
6.796918e+002,1.087866e+001
6.806561e+002,1.092517e+001
6.816203e+002,9.702332e+000
6.825845e+002,7.493530e+000
6.835488e+002,4.940918e+000
6.845130e+002,2.814453e+000
6.854772e+002,1.740234e+000
6.864415e+002,1.845642e+000
6.874057e+002,2.651062e+000
6.883699e+002,3.645081e+000
6.893342e+002,4.916809e+000
6.902984e+002,6.740479e+000
6.912626e+002,8.938049e+000
6.922269e+002,9.396851e+000
6.931911e+002,6.671082e+000
6.941553e+002,5.382874e+000
6.951196e+002,6.141968e+000
6.960838e+002,7.707581e+000
6.970480e+002,8.457886e+000
6.980123e+002,8.076355e+000
6.989765e+002,7.369812e+000
6.999407e+002,5.226379e+000
7.009050e+002,3.772217e+000
7.018692e+002,5.567200e+000
7.028334e+002,1.094470e+001
7.037977e+002,1.679431e+001
7.047619e+002,1.840393e+001
7.057261e+002,1.715759e+001
7.066904e+002,1.442511e+001
7.076546e+002,1.039679e+001
7.086188e+002,6.804504e+000
7.095831e+002,6.640686e+000
7.105473e+002,1.167175e+001
7.115115e+002,1.372949e+001
7.124758e+002,1.148413e+001
7.134400e+002,8.032166e+000
7.144042e+002,4.719055e+000
7.153685e+002,1.881165e+000
7.163327e+002,5.972900e-001
7.172969e+002,3.295105e+000
7.182612e+002,6.071228e+000
7.192254e+002,7.455444e+000
7.201896e+002,7.399475e+000
7.211539e+002,6.009949e+000
7.221181e+002,3.125244e+000
7.230823e+002,1.905518e-001
7.240466e+002,1.787354e+000
7.250108e+002,7.087952e+000
7.259750e+002,1.151691e+001
7.269393e+002,1.192358e+001
7.279035e+002,8.421265e+000
7.288677e+002,5.604553e+000
7.298320e+002,5.011353e+000
7.307962e+002,4.961365e+000
7.317604e+002,5.268127e+000
7.327247e+002,6.203247e+000
7.336889e+002,8.315979e+000
7.346531e+002,1.194427e+001
7.356174e+002,1.325873e+001
7.365816e+002,9.999878e+000
7.375458e+002,5.637329e+000
7.385101e+002,2.253479e+000
7.394743e+002,6.350708e-001
7.404385e+002,5.519409e-001
7.414028e+002,1.962219e+000
7.423670e+002,3.646851e+000
7.433312e+002,3.978760e+000
7.442955e+002,3.441833e+000
7.452597e+002,2.502380e+000
7.462239e+002,9.887695e-001
7.471882e+002,-1.965698e+000
7.481524e+002,-2.312988e+000
7.491166e+002,6.901855e-001
7.500809e+002,3.738770e+000
7.510451e+002,6.177734e+000
7.520093e+002,7.749695e+000
7.529736e+002,7.974304e+000
7.539378e+002,6.265747e+000
7.549020e+002,4.726868e+000
7.558663e+002,4.538147e+000
7.568306e+002,5.247314e+000
7.577948e+002,6.259521e+000
7.587590e+002,7.036133e+000
7.597233e+002,7.192993e+000
7.606875e+002,5.990112e+000
7.616517e+002,3.945007e+000
7.626160e+002,3.187195e+000
7.635802e+002,4.739624e+000
7.645444e+002,7.568481e+000
7.655087e+002,9.359375e+000
7.664729e+002,9.313843e+000
7.674371e+002,9.632690e+000
7.684014e+002,1.015375e+001
7.693656e+002,1.116901e+001
7.703298e+002,1.356439e+001
7.712941e+002,1.718414e+001
7.722583e+002,1.981598e+001
7.732225e+002,1.884271e+001
7.741868e+002,1.704462e+001
7.751510e+002,1.642761e+001
7.761152e+002,1.694299e+001
7.770795e+002,1.788849e+001
7.780437e+002,1.859174e+001
7.790079e+002,1.902075e+001
7.799722e+002,2.028491e+001
7.809364e+002,2.265546e+001
7.819006e+002,2.387793e+001
7.828649e+002,2.287628e+001
7.838291e+002,2.049194e+001
7.847933e+002,1.881543e+001
7.857576e+002,1.755121e+001
7.867218e+002,1.643835e+001
7.876860e+002,1.629144e+001
7.886503e+002,1.642682e+001
7.896145e+002,1.590546e+001
7.905787e+002,1.459808e+001
7.915430e+002,1.393439e+001
7.925072e+002,1.579785e+001
7.934714e+002,1.827100e+001
7.944357e+002,1.996515e+001
7.953999e+002,2.095215e+001
7.963641e+002,2.158270e+001
7.973284e+002,2.208478e+001
7.982926e+002,2.247913e+001
7.992568e+002,2.228442e+001
8.002211e+002,2.002509e+001
8.011853e+002,1.791382e+001
8.021495e+002,1.786340e+001
8.031138e+002,1.982202e+001
8.040780e+002,2.169495e+001
8.050422e+002,2.246118e+001
8.060065e+002,2.286444e+001
8.069707e+002,2.280109e+001
8.079349e+002,2.227240e+001
8.088992e+002,2.111627e+001
8.098634e+002,1.959583e+001
8.108276e+002,1.890625e+001
8.117919e+002,2.143451e+001
8.127561e+002,2.470551e+001
8.137203e+002,2.487036e+001
8.146846e+002,2.195911e+001
8.156488e+002,1.797327e+001
8.166130e+002,1.488257e+001
8.175773e+002,1.241632e+001
8.185415e+002,1.184985e+001
8.195057e+002,1.284766e+001
8.204700e+002,1.489972e+001
8.214342e+002,1.950891e+001
8.223984e+002,2.505823e+001
8.233627e+002,2.695490e+001
8.243269e+002,2.153992e+001
8.252911e+002,1.686267e+001
8.262554e+002,1.819794e+001
8.272196e+002,2.199725e+001
8.281838e+002,2.469031e+001
8.291481e+002,2.491608e+001
8.301123e+002,2.399268e+001
8.310765e+002,2.432129e+001
8.320408e+002,2.556116e+001
8.330050e+002,2.500702e+001
8.339692e+002,2.197894e+001
8.349335e+002,1.918115e+001
8.358977e+002,2.036115e+001
8.368619e+002,2.675208e+001
8.378262e+002,2.970190e+001
8.387904e+002,2.470447e+001
8.397546e+002,2.048669e+001
8.407189e+002,1.946198e+001
8.416831e+002,2.067755e+001
8.426473e+002,2.186444e+001
8.436116e+002,2.179297e+001
8.445758e+002,2.287189e+001
8.455400e+002,2.884998e+001
8.465043e+002,3.586945e+001
8.474685e+002,4.002533e+001
8.484327e+002,4.061096e+001
8.493970e+002,3.951056e+001
8.503612e+002,3.932465e+001
8.513254e+002,4.005396e+001
8.522897e+002,4.028925e+001
8.532539e+002,3.984894e+001
8.542181e+002,3.870721e+001
8.551824e+002,3.655322e+001
8.561466e+002,3.409894e+001
8.571108e+002,3.396033e+001
8.580751e+002,3.703491e+001
8.590393e+002,4.010852e+001
8.600035e+002,4.295117e+001
8.609678e+002,4.555548e+001
8.619320e+002,4.776038e+001
8.628962e+002,4.948767e+001
8.638605e+002,5.105811e+001
8.648247e+002,5.279102e+001
8.657889e+002,5.478595e+001
8.667532e+002,5.764838e+001
8.677174e+002,6.144257e+001
8.686816e+002,6.544312e+001
8.696459e+002,6.903760e+001
8.706101e+002,7.250763e+001
8.715743e+002,7.493286e+001
8.725386e+002,7.546283e+001
8.735028e+002,7.623682e+001
8.744670e+002,7.731512e+001
8.754313e+002,7.849426e+001
8.763955e+002,7.971130e+001
8.773597e+002,8.110327e+001
8.783240e+002,8.289758e+001
8.792882e+002,8.521478e+001
8.802524e+002,8.760645e+001
8.812167e+002,8.984601e+001
8.821809e+002,9.184302e+001
8.831451e+002,9.360370e+001
8.841094e+002,9.519696e+001
8.850736e+002,9.692065e+001
8.860378e+002,9.876764e+001
8.870021e+002,1.005435e+002
8.879663e+002,1.021759e+002
8.889305e+002,1.037103e+002
8.898948e+002,1.048690e+002
8.908590e+002,1.047158e+002
8.918232e+002,1.018317e+002
8.927875e+002,1.007391e+002
8.937517e+002,1.032497e+002
8.947159e+002,1.070821e+002
8.956802e+002,1.100278e+002
8.966444e+002,1.114447e+002
8.976086e+002,1.126552e+002
8.985729e+002,1.159965e+002
8.995371e+002,1.198517e+002
9.005013e+002,1.205909e+002
9.014656e+002,1.188973e+002
9.024298e+002,1.176706e+002
9.033940e+002,1.189750e+002
9.043583e+002,1.219590e+002
9.053225e+002,1.224769e+002
9.062867e+002,1.159995e+002
9.072510e+002,1.124043e+002
9.082152e+002,1.138421e+002
9.091794e+002,1.179401e+002
9.101437e+002,1.231662e+002
9.111079e+002,1.292774e+002
9.120721e+002,1.335246e+002
9.130364e+002,1.325090e+002
9.140006e+002,1.296832e+002
9.149648e+002,1.261012e+002
9.159291e+002,1.230043e+002
9.168933e+002,1.222699e+002
9.178575e+002,1.249341e+002
9.188218e+002,1.291142e+002
9.197860e+002,1.285006e+002
9.207502e+002,1.227869e+002
9.217145e+002,1.181890e+002
9.226787e+002,1.166816e+002
9.236429e+002,1.169912e+002
9.246072e+002,1.173380e+002
9.255714e+002,1.175605e+002
9.265356e+002,1.169229e+002
9.274999e+002,1.146840e+002
9.284641e+002,1.118836e+002
9.294283e+002,1.087504e+002
9.303926e+002,1.056530e+002
9.313568e+002,1.029863e+002
9.323210e+002,1.009343e+002
9.332853e+002,9.907874e+001
9.342495e+002,9.659271e+001
9.352137e+002,9.379321e+001
9.361780e+002,9.169916e+001
9.371422e+002,9.081781e+001
9.381064e+002,9.060889e+001
9.390707e+002,8.985968e+001
9.400349e+002,8.785327e+001
9.409991e+002,8.720728e+001
9.419634e+002,8.970654e+001
9.429276e+002,9.089691e+001
9.438918e+002,8.877350e+001
9.448561e+002,8.504779e+001
9.458203e+002,8.269562e+001
9.467845e+002,8.282007e+001
9.477488e+002,8.353827e+001
9.487130e+002,8.415747e+001
9.496772e+002,8.408191e+001
9.506415e+002,8.223877e+001
9.516057e+002,7.898413e+001
9.525699e+002,7.577863e+001
9.535342e+002,7.397998e+001
9.544984e+002,7.328925e+001
9.554626e+002,7.252209e+001
9.564269e+002,7.201733e+001
9.573911e+002,7.247162e+001
9.583553e+002,7.490851e+001
9.593196e+002,7.779791e+001
9.602838e+002,7.850531e+001
9.612480e+002,7.632086e+001
9.622123e+002,7.388660e+001
9.631765e+002,7.237091e+001
9.641407e+002,7.066425e+001
9.651050e+002,6.718530e+001
9.660692e+002,6.294452e+001
9.670334e+002,6.052966e+001
9.679977e+002,6.181677e+001
9.689619e+002,6.518182e+001
9.699261e+002,6.607257e+001
9.708904e+002,6.517291e+001
9.718546e+002,6.526801e+001
9.728188e+002,6.671722e+001
9.737831e+002,6.961322e+001
9.747473e+002,7.489764e+001
9.757115e+002,8.358807e+001
9.766758e+002,8.982611e+001
9.776400e+002,9.485498e+001
9.786042e+002,9.656879e+001
9.795685e+002,9.238135e+001
9.805327e+002,8.483051e+001
9.814969e+002,7.758057e+001
9.824612e+002,7.212604e+001
9.834254e+002,6.659338e+001
9.843896e+002,5.631940e+001
9.853539e+002,4.603528e+001
9.863181e+002,4.150909e+001
9.872823e+002,4.233179e+001
9.882466e+002,4.551349e+001
9.892108e+002,4.905530e+001
9.901750e+002,5.311182e+001
9.911393e+002,5.463989e+001
9.921035e+002,4.970209e+001
9.930677e+002,4.634930e+001
9.940320e+002,4.548901e+001
9.949962e+002,4.662134e+001
9.959604e+002,5.000433e+001
9.969247e+002,5.553369e+001
9.978889e+002,6.063214e+001
9.988531e+002,6.347955e+001
9.998174e+002,6.504407e+001
1.000782e+003,6.627271e+001
1.001746e+003,6.728271e+001
1.002710e+003,6.785999e+001
1.003674e+003,6.790930e+001
1.004639e+003,6.778845e+001
1.005603e+003,6.832697e+001
1.006567e+003,6.944025e+001
1.007531e+003,6.789368e+001
1.008495e+003,6.241919e+001
1.009460e+003,5.708887e+001
1.010424e+003,5.505298e+001
1.011388e+003,5.540900e+001
1.012352e+003,5.382202e+001
1.013317e+003,4.772852e+001
1.014281e+003,4.350287e+001
1.015245e+003,4.473566e+001
1.016209e+003,4.637646e+001
1.017174e+003,4.446814e+001
1.018138e+003,3.925800e+001
1.019102e+003,3.412958e+001
1.020066e+003,3.205548e+001
1.021031e+003,3.178754e+001
1.021995e+003,2.859503e+001
1.022959e+003,2.278094e+001
1.023923e+003,1.748608e+001
1.024887e+003,1.353638e+001
1.025852e+003,1.072986e+001
1.026816e+003,9.076355e+000
1.027780e+003,9.120422e+000
1.028744e+003,9.169800e+000
1.029709e+003,9.198364e+000
1.030673e+003,8.940125e+000
1.031637e+003,7.848999e+000
1.032601e+003,6.378723e+000
1.033566e+003,5.412720e+000
1.034530e+003,5.343689e+000
1.035494e+003,5.396606e+000
1.036458e+003,4.064880e+000
1.037422e+003,2.438354e+000
1.038387e+003,2.915588e+000
1.039351e+003,5.204224e+000
1.040315e+003,6.898804e+000
1.041279e+003,6.191223e+000
1.042244e+003,3.903687e+000
1.043208e+003,3.459839e+000
1.044172e+003,6.495056e+000
1.045136e+003,7.798767e+000
1.046101e+003,6.589783e+000
1.047065e+003,4.797974e+000
1.048029e+003,3.363037e+000
1.048993e+003,2.264404e+000
1.049958e+003,9.974976e-001
1.050922e+003,-1.010071e+000
1.051886e+003,-1.666260e+000
1.052850e+003,2.432800e+000
1.053814e+003,8.253967e+000
1.054779e+003,1.189746e+001
1.055743e+003,1.248114e+001
1.056707e+003,1.151947e+001
1.057671e+003,1.081549e+001
1.058636e+003,1.029468e+001
1.059600e+003,9.626587e+000
1.060564e+003,9.019165e+000
1.061528e+003,8.905151e+000
1.062493e+003,9.269470e+000
1.063457e+003,9.495850e+000
1.064421e+003,9.190857e+000
1.065385e+003,8.455261e+000
1.066349e+003,7.440735e+000
1.067314e+003,5.620056e+000
1.068278e+003,4.346130e+000
1.069242e+003,4.944702e+000
1.070206e+003,6.729675e+000
1.071171e+003,8.460632e+000
1.072135e+003,9.449402e+000
1.073099e+003,9.952148e+000
1.074063e+003,1.072406e+001
1.075028e+003,1.199341e+001
1.075992e+003,1.223120e+001
1.076956e+003,1.118451e+001
1.077920e+003,9.200500e+000
1.078885e+003,5.745422e+000
1.079849e+003,2.161499e+000
1.080813e+003,9.293213e-001
1.081777e+003,2.825745e+000
1.082741e+003,4.917908e+000
1.083706e+003,4.926331e+000
1.084670e+003,4.692261e+000
1.085634e+003,5.730896e+000
1.086598e+003,7.244080e+000
1.087563e+003,7.588501e+000
1.088527e+003,6.061584e+000
1.089491e+003,3.738464e+000
1.090455e+003,2.178833e+000
1.091420e+003,1.198120e+000
1.092384e+003,-1.808472e-001
1.093348e+003,-3.178345e+000
1.094312e+003,-4.959412e+000
1.095276e+003,-2.682617e+000
1.096241e+003,2.468933e+000
1.097205e+003,6.471985e+000
1.098169e+003,9.013245e+000
1.099133e+003,9.068176e+000
1.100098e+003,4.026001e+000
1.101062e+003,-1.001099e+000
1.102026e+003,-2.458069e+000
1.102990e+003,-1.151855e+000
1.103955e+003,-4.071045e-002
1.104919e+003,-9.840088e-001
1.105883e+003,-2.636719e+000
1.106847e+003,-1.555054e+000
1.107812e+003,2.205566e+000
1.108776e+003,3.365784e+000
1.109740e+003,3.020630e-001
1.110704e+003,-2.438232e+000
1.111668e+003,-4.564819e-001
1.112633e+003,5.155701e+000
1.113597e+003,8.430420e+000
1.114561e+003,7.536682e+000
1.115525e+003,6.541748e+000
1.116490e+003,7.585754e+000
1.117454e+003,8.101868e+000
1.118418e+003,5.693054e+000
1.119382e+003,1.736877e+000
1.120347e+003,-5.905151e-001
1.121311e+003,3.698120e-001
1.122275e+003,3.008972e+000
1.123239e+003,5.399536e+000
1.124203e+003,7.877014e+000
1.125168e+003,9.102844e+000
1.126132e+003,8.248108e+000
1.127096e+003,8.335510e+000
1.128060e+003,1.251642e+001
1.129025e+003,1.951263e+001
1.129989e+003,2.365009e+001
1.130953e+003,2.346417e+001
1.131917e+003,2.240735e+001
1.132882e+003,2.040820e+001
1.133846e+003,1.924298e+001
1.134810e+003,2.062897e+001
1.135774e+003,2.374664e+001
1.136739e+003,2.609137e+001
1.137703e+003,2.627808e+001
1.138667e+003,2.659546e+001
1.139631e+003,3.156738e+001
1.140595e+003,4.069189e+001
1.141560e+003,4.921301e+001
1.142524e+003,5.721313e+001
1.143488e+003,6.463562e+001
1.144452e+003,6.950623e+001
1.145417e+003,7.355280e+001
1.146381e+003,8.371637e+001
1.147345e+003,1.023442e+002
1.148309e+003,1.210162e+002
1.149274e+003,1.376608e+002
1.150238e+003,1.541688e+002
1.151202e+003,1.732715e+002
1.152166e+003,1.929026e+002
1.153130e+003,2.091997e+002
1.154095e+003,2.200325e+002
1.155059e+003,2.262339e+002
1.156023e+003,2.300637e+002
1.156987e+003,2.306460e+002
1.157952e+003,2.228889e+002
1.158916e+003,2.062837e+002
1.159880e+003,1.884178e+002
1.160844e+003,1.720659e+002
1.161809e+003,1.562894e+002
1.162773e+003,1.399826e+002
1.163737e+003,1.228711e+002
1.164701e+003,1.065762e+002
1.165666e+003,8.995386e+001
1.166630e+003,7.648090e+001
1.167594e+003,6.871466e+001
1.168558e+003,6.430255e+001
1.169522e+003,6.038483e+001
1.170487e+003,5.593469e+001
1.171451e+003,5.172046e+001
1.172415e+003,4.846570e+001
1.173379e+003,4.611133e+001
1.174344e+003,4.544897e+001
1.175308e+003,4.690460e+001
1.176272e+003,4.617896e+001
1.177236e+003,4.011505e+001
1.178201e+003,3.277911e+001
1.179165e+003,2.935144e+001
1.180129e+003,2.962122e+001
1.181093e+003,2.965839e+001
1.182057e+003,2.860809e+001
1.183022e+003,2.772583e+001
1.183986e+003,2.778485e+001
1.184950e+003,2.805890e+001
1.185914e+003,2.755743e+001
1.186879e+003,2.657257e+001
1.187843e+003,2.679150e+001
1.188807e+003,2.956262e+001
1.189771e+003,3.320935e+001
1.190736e+003,3.272076e+001
1.191700e+003,2.755286e+001
1.192664e+003,2.330829e+001
1.193628e+003,2.072778e+001
1.194593e+003,1.921820e+001
1.195557e+003,1.880798e+001
1.196521e+003,1.903796e+001
1.197485e+003,1.844855e+001
1.198449e+003,1.678113e+001
1.199414e+003,1.461975e+001
1.200378e+003,1.198126e+001
1.201342e+003,9.221252e+000
1.202306e+003,6.131104e+000
1.203271e+003,2.968140e+000
1.204235e+003,4.919434e-001
1.205199e+003,-9.552002e-001
1.206163e+003,-2.157043e+000
1.207128e+003,-4.538879e+000
1.208092e+003,-8.136475e+000
1.209056e+003,-1.168945e+001
1.210020e+003,-1.565485e+001
1.210984e+003,-1.869128e+001
1.211949e+003,-1.902417e+001
1.212913e+003,-1.923523e+001
1.213877e+003,-2.334686e+001
1.214841e+003,-3.134692e+001
1.215806e+003,-3.763867e+001
1.216770e+003,-3.973273e+001
1.217734e+003,-4.016858e+001
1.218698e+003,-4.023645e+001
1.219663e+003,-4.054749e+001
1.220627e+003,-4.190741e+001
1.221591e+003,-4.432574e+001
1.222555e+003,-4.722577e+001
1.223520e+003,-5.006390e+001
1.224484e+003,-5.247601e+001
1.225448e+003,-5.332037e+001
1.226412e+003,-5.144208e+001
1.227376e+003,-5.073700e+001
1.228341e+003,-5.233411e+001
1.229305e+003,-5.400690e+001
1.230269e+003,-5.425183e+001
1.231233e+003,-5.383118e+001
1.232198e+003,-5.428510e+001
1.233162e+003,-5.589124e+001
1.234126e+003,-5.782318e+001
1.235090e+003,-6.064655e+001
1.236055e+003,-6.274786e+001
1.237019e+003,-6.180768e+001
1.237983e+003,-5.886945e+001
1.238947e+003,-5.633441e+001
1.239911e+003,-5.507141e+001
1.240876e+003,-5.465857e+001
1.241840e+003,-5.465021e+001
1.242804e+003,-5.501868e+001
1.243768e+003,-5.591345e+001
1.244733e+003,-5.932867e+001
1.245697e+003,-6.042938e+001
1.246661e+003,-5.773517e+001
1.247625e+003,-5.418494e+001
1.248590e+003,-5.111743e+001
1.249554e+003,-4.881342e+001
1.250518e+003,-4.801855e+001
1.251482e+003,-4.939087e+001
1.252447e+003,-5.082782e+001
1.253411e+003,-4.884265e+001
1.254375e+003,-4.511786e+001
1.255339e+003,-4.391754e+001
1.256303e+003,-4.515912e+001
1.257268e+003,-4.560400e+001
1.258232e+003,-4.345398e+001
1.259196e+003,-4.010883e+001
1.260160e+003,-3.789117e+001
1.261125e+003,-3.670508e+001
1.262089e+003,-3.560956e+001
1.263053e+003,-3.503650e+001
1.264017e+003,-3.450409e+001
1.264982e+003,-3.394830e+001
1.265946e+003,-3.312213e+001
1.266910e+003,-3.102057e+001
1.267874e+003,-2.835492e+001
1.268839e+003,-2.759448e+001
1.269803e+003,-3.038831e+001
1.270767e+003,-3.499261e+001
1.271731e+003,-3.832642e+001
1.272695e+003,-4.012781e+001
1.273660e+003,-4.020093e+001
1.274624e+003,-3.818378e+001
1.275588e+003,-3.668549e+001
1.276552e+003,-3.700409e+001
1.277517e+003,-3.828589e+001
1.278481e+003,-3.928027e+001
1.279445e+003,-3.998346e+001
1.280409e+003,-4.093671e+001
1.281374e+003,-4.243109e+001
1.282338e+003,-4.395660e+001
1.283302e+003,-4.527039e+001
1.284266e+003,-4.652380e+001
1.285230e+003,-4.841077e+001
1.286195e+003,-5.060144e+001
1.287159e+003,-5.110229e+001
1.288123e+003,-4.812518e+001
1.289087e+003,-4.347620e+001
1.290052e+003,-4.349695e+001
1.291016e+003,-5.101581e+001
1.291980e+003,-5.360266e+001
1.292944e+003,-4.730981e+001
1.293909e+003,-4.218176e+001
1.294873e+003,-4.229132e+001
1.295837e+003,-4.517664e+001
1.296801e+003,-4.787531e+001
1.297766e+003,-4.985858e+001
1.298730e+003,-5.143353e+001
1.299694e+003,-5.302026e+001
1.300658e+003,-5.418280e+001
1.301622e+003,-5.443994e+001
1.302587e+003,-5.377063e+001
1.303551e+003,-5.180334e+001
1.304515e+003,-4.854578e+001
1.305479e+003,-4.531268e+001
1.306444e+003,-4.323834e+001
1.307408e+003,-4.231897e+001
1.308372e+003,-4.218701e+001
1.309336e+003,-4.295984e+001
1.310301e+003,-4.426532e+001
1.311265e+003,-4.680963e+001
1.312229e+003,-4.863885e+001
1.313193e+003,-4.877026e+001
1.314157e+003,-4.828955e+001
1.315122e+003,-4.832196e+001
1.316086e+003,-4.908093e+001
1.317050e+003,-5.035498e+001
1.318014e+003,-5.199274e+001
1.318979e+003,-5.285126e+001
1.319943e+003,-5.030389e+001
1.320907e+003,-4.486414e+001
1.321871e+003,-4.254584e+001
1.322836e+003,-4.484650e+001
1.323800e+003,-4.709137e+001
1.324764e+003,-4.613409e+001
1.325728e+003,-4.381451e+001
1.326693e+003,-4.382037e+001
1.327657e+003,-4.646002e+001
1.328621e+003,-4.774622e+001
1.329585e+003,-4.489850e+001
1.330549e+003,-4.185297e+001
1.331514e+003,-4.157013e+001
1.332478e+003,-4.255554e+001
1.333442e+003,-4.347913e+001
1.334406e+003,-4.388281e+001
1.335371e+003,-4.366632e+001
1.336335e+003,-4.279211e+001
1.337299e+003,-4.136029e+001
1.338263e+003,-3.957074e+001
1.339228e+003,-3.725702e+001
1.340192e+003,-3.605347e+001
1.341156e+003,-3.640106e+001
1.342120e+003,-3.713843e+001
1.343084e+003,-3.926990e+001
1.344049e+003,-4.121149e+001
1.345013e+003,-4.100769e+001
1.345977e+003,-3.909583e+001
1.346941e+003,-3.736200e+001
1.347906e+003,-3.647589e+001
1.348870e+003,-3.637164e+001
1.349834e+003,-3.760583e+001
1.350798e+003,-3.934845e+001
1.351763e+003,-3.973431e+001
1.352727e+003,-3.884308e+001
1.353691e+003,-3.745233e+001
1.354655e+003,-3.549261e+001
1.355620e+003,-3.420343e+001
1.356584e+003,-3.554285e+001
1.357548e+003,-3.902991e+001
1.358512e+003,-4.123596e+001
1.359476e+003,-4.244873e+001
1.360441e+003,-4.231720e+001
1.361405e+003,-3.877826e+001
1.362369e+003,-3.573285e+001
1.363333e+003,-3.588336e+001
1.364298e+003,-3.732587e+001
1.365262e+003,-3.666449e+001
1.366226e+003,-3.359399e+001
1.367190e+003,-3.158331e+001
1.368155e+003,-3.379877e+001
1.369119e+003,-3.836389e+001
1.370083e+003,-3.913251e+001
1.371047e+003,-3.452069e+001
1.372011e+003,-3.215521e+001
1.372976e+003,-3.424127e+001
1.373940e+003,-3.617493e+001
1.374904e+003,-3.664587e+001
1.375868e+003,-3.556055e+001
1.376833e+003,-3.151648e+001
1.377797e+003,-2.541284e+001
1.378761e+003,-2.309229e+001
1.379725e+003,-2.807581e+001
1.380690e+003,-3.382813e+001
1.381654e+003,-3.257422e+001
1.382618e+003,-2.826398e+001
1.383582e+003,-2.643921e+001
1.384547e+003,-2.714142e+001
1.385511e+003,-2.744965e+001
1.386475e+003,-2.582245e+001
1.387439e+003,-2.390723e+001
1.388403e+003,-2.473975e+001
1.389368e+003,-2.833423e+001
1.390332e+003,-2.930341e+001
1.391296e+003,-2.564343e+001
1.392260e+003,-2.269751e+001
1.393225e+003,-2.151514e+001
1.394189e+003,-2.155353e+001
1.395153e+003,-2.373218e+001
1.396117e+003,-2.638831e+001
1.397082e+003,-2.660992e+001
1.398046e+003,-2.403296e+001
1.399010e+003,-2.145483e+001
1.399974e+003,-2.160010e+001
1.400938e+003,-2.428400e+001
1.401903e+003,-2.831482e+001
1.402867e+003,-3.409869e+001
1.403831e+003,-3.507751e+001
1.404795e+003,-2.790442e+001
1.405760e+003,-2.140698e+001
1.406724e+003,-1.890552e+001
1.407688e+003,-1.941229e+001
1.408652e+003,-2.216687e+001
1.409617e+003,-2.609149e+001
1.410581e+003,-2.843750e+001
1.411545e+003,-2.797589e+001
1.412509e+003,-2.656433e+001
1.413474e+003,-2.603772e+001
1.414438e+003,-2.612988e+001
1.415402e+003,-2.558765e+001
1.416366e+003,-2.435162e+001
1.417330e+003,-2.379791e+001
1.418295e+003,-2.466003e+001
1.419259e+003,-2.559271e+001
1.420223e+003,-2.507697e+001
1.421187e+003,-2.350940e+001
1.422152e+003,-2.229382e+001
1.423116e+003,-2.132996e+001
1.424080e+003,-2.003741e+001
1.425044e+003,-1.846777e+001
1.426009e+003,-1.689337e+001
1.426973e+003,-1.495721e+001
1.427937e+003,-1.339343e+001
1.428901e+003,-1.332831e+001
1.429865e+003,-1.438184e+001
1.430830e+003,-1.501428e+001
1.431794e+003,-1.433948e+001
1.432758e+003,-1.290503e+001
1.433722e+003,-1.137445e+001
1.434687e+003,-9.276428e+000
1.435651e+003,-7.403381e+000
1.436615e+003,-7.397278e+000
1.437579e+003,-7.174194e+000
1.438544e+003,-5.515869e+000
1.439508e+003,-4.381714e+000
1.440472e+003,-5.339844e+000
1.441436e+003,-7.315552e+000
1.442401e+003,-8.688660e+000
1.443365e+003,-9.054016e+000
1.444329e+003,-8.078064e+000
1.445293e+003,-4.952148e+000
1.446257e+003,-1.540649e+000
1.447222e+003,-2.405396e+000
1.448186e+003,-6.587463e+000
1.449150e+003,-8.463196e+000
1.450114e+003,-7.255249e+000
1.451079e+003,-5.435913e+000
1.452043e+003,-3.278992e+000
1.453007e+003,-1.487976e+000
1.453971e+003,-1.411133e+000
1.454936e+003,-3.025208e+000
1.455900e+003,-5.422485e+000
1.456864e+003,-8.838074e+000
1.457828e+003,-1.093512e+001
1.458792e+003,-8.606934e+000
1.459757e+003,-6.390015e+000
1.460721e+003,-9.134705e+000
1.461685e+003,-1.452350e+001
1.462649e+003,-1.744049e+001
1.463614e+003,-1.652582e+001
1.464578e+003,-1.444196e+001
1.465542e+003,-1.360303e+001
1.466506e+003,-1.358514e+001
1.467471e+003,-1.266492e+001
1.468435e+003,-1.018091e+001
1.469399e+003,-8.397949e+000
1.470363e+003,-8.506409e+000
1.471328e+003,-8.541443e+000
1.472292e+003,-8.256104e+000
1.473256e+003,-8.152100e+000
1.474220e+003,-8.319092e+000
1.475184e+003,-8.383911e+000
1.476149e+003,-8.043640e+000
1.477113e+003,-7.354309e+000
1.478077e+003,-6.411377e+000
1.479041e+003,-5.057983e+000
1.480006e+003,-3.278076e+000
1.480970e+003,-1.648560e+000
1.481934e+003,-4.439087e-001
1.482898e+003,3.718262e-001
1.483863e+003,3.750000e-001
1.484827e+003,4.897461e-001
1.485791e+003,1.490723e+000
1.486755e+003,2.737732e+000
1.487719e+003,2.978149e+000
1.488684e+003,2.709961e+000
1.489648e+003,4.153870e+000
1.490612e+003,8.062134e+000
1.491576e+003,1.138116e+001
1.492541e+003,1.087592e+001
1.493505e+003,9.067871e+000
1.494469e+003,1.209839e+001
1.495433e+003,1.884290e+001
1.496398e+003,2.472668e+001
1.497362e+003,2.955164e+001
1.498326e+003,3.407050e+001
1.499290e+003,3.827179e+001
1.500255e+003,4.254633e+001
1.501219e+003,4.683234e+001
1.502183e+003,5.136517e+001
1.503147e+003,5.818085e+001
1.504111e+003,6.817108e+001
1.505076e+003,7.802411e+001
1.506040e+003,8.468304e+001
1.507004e+003,9.179303e+001
1.507968e+003,1.026171e+002
1.508933e+003,1.165827e+002
1.509897e+003,1.331287e+002
1.510861e+003,1.523932e+002
1.511825e+003,1.724255e+002
1.512790e+003,1.915634e+002
1.513754e+003,2.101909e+002
1.514718e+003,2.299410e+002
1.515682e+003,2.505105e+002
1.516646e+003,2.688305e+002
1.517611e+003,2.846636e+002
1.518575e+003,2.991951e+002
1.519539e+003,3.147051e+002
1.520503e+003,3.276223e+002
1.521468e+003,3.364028e+002
1.522432e+003,3.408465e+002
1.523396e+003,3.405743e+002
1.524360e+003,3.358718e+002
1.525325e+003,3.277764e+002
1.526289e+003,3.170844e+002
1.527253e+003,3.042783e+002
1.528217e+003,2.900314e+002
1.529182e+003,2.745997e+002
1.530146e+003,2.570002e+002
1.531110e+003,2.362112e+002
1.532074e+003,2.144717e+002
1.533039e+003,1.903826e+002
1.534003e+003,1.660614e+002
1.534967e+003,1.426271e+002
1.535931e+003,1.205127e+002
1.536896e+003,9.870898e+001
1.537860e+003,7.847687e+001
1.538824e+003,6.387781e+001
1.539788e+003,5.650555e+001
1.540752e+003,5.119440e+001
1.541717e+003,4.103882e+001
1.542681e+003,2.786224e+001
1.543645e+003,2.236523e+001
1.544609e+003,2.929071e+001
1.545573e+003,3.279462e+001
1.546538e+003,2.946368e+001
1.547502e+003,2.644513e+001
1.548466e+003,2.658563e+001
1.549430e+003,2.881012e+001
1.550395e+003,3.288995e+001
1.551359e+003,3.743878e+001
1.552323e+003,3.974164e+001
1.553287e+003,3.890857e+001
1.554252e+003,3.595526e+001
1.555216e+003,3.144971e+001
1.556180e+003,2.611237e+001
1.557144e+003,2.133069e+001
1.558109e+003,1.728400e+001
1.559073e+003,1.563782e+001
1.560037e+003,1.761810e+001
1.561001e+003,1.847705e+001
1.561966e+003,1.669086e+001
1.562930e+003,1.394165e+001
1.563894e+003,1.038196e+001
1.564858e+003,7.039124e+000
1.565823e+003,6.741028e+000
1.566787e+003,9.838562e+000
1.567751e+003,1.350623e+001
1.568715e+003,1.659247e+001
1.569679e+003,1.867554e+001
1.570644e+003,1.819135e+001
1.571608e+003,1.622253e+001
1.572572e+003,1.691809e+001
1.573536e+003,2.066199e+001
1.574500e+003,2.345697e+001
1.575465e+003,2.370782e+001
1.576429e+003,2.285419e+001
1.577393e+003,2.102338e+001
1.578357e+003,1.912610e+001
1.579322e+003,1.963470e+001
1.580286e+003,2.257257e+001
1.581250e+003,2.483032e+001
1.582214e+003,2.529498e+001
1.583179e+003,2.553406e+001
1.584143e+003,2.673480e+001
1.585107e+003,2.796680e+001
1.586071e+003,2.797797e+001
1.587036e+003,2.761780e+001
1.588000e+003,2.872235e+001
1.588964e+003,3.155731e+001
1.589928e+003,3.425891e+001
1.590893e+003,3.579205e+001
1.591857e+003,3.642163e+001
1.592821e+003,3.609338e+001
1.593785e+003,3.515521e+001
1.594750e+003,3.546301e+001
1.595714e+003,3.730261e+001
1.596678e+003,3.903223e+001
1.597642e+003,3.992969e+001
1.598606e+003,4.070386e+001
1.599571e+003,4.223889e+001
1.600535e+003,4.400452e+001
1.601499e+003,4.521912e+001
1.602463e+003,4.579883e+001
1.603427e+003,4.607202e+001
1.604392e+003,4.618884e+001
1.605356e+003,4.610437e+001
1.606320e+003,4.562750e+001
1.607284e+003,4.498981e+001
1.608249e+003,4.480341e+001
1.609213e+003,4.508032e+001
1.610177e+003,4.562842e+001
1.611141e+003,4.666809e+001
1.612106e+003,4.736859e+001
1.613070e+003,4.660956e+001
1.614034e+003,4.597046e+001
1.614998e+003,4.649713e+001
1.615963e+003,4.800812e+001
1.616927e+003,5.050055e+001
1.617891e+003,5.360809e+001
1.618855e+003,5.570319e+001
1.619820e+003,5.561975e+001
1.620784e+003,5.415784e+001
1.621748e+003,5.270020e+001
1.622712e+003,5.169836e+001
1.623677e+003,5.126276e+001
1.624641e+003,5.132935e+001
1.625605e+003,5.267194e+001
1.626569e+003,5.573999e+001
1.627533e+003,5.808142e+001
1.628498e+003,5.902356e+001
1.629462e+003,5.905872e+001
1.630426e+003,5.802606e+001
1.631390e+003,5.640088e+001
1.632354e+003,5.505121e+001
1.633319e+003,5.420129e+001
1.634283e+003,5.385394e+001
1.635247e+003,5.408429e+001
1.636211e+003,5.439191e+001
1.637176e+003,5.384674e+001
1.638140e+003,5.267633e+001
1.639104e+003,5.252600e+001
1.640068e+003,5.383929e+001
1.641033e+003,5.398425e+001
1.641997e+003,5.100830e+001
1.642961e+003,4.892957e+001
1.643925e+003,5.038635e+001
1.644890e+003,5.300690e+001
1.645854e+003,5.460681e+001
1.646818e+003,5.520404e+001
1.647782e+003,5.559198e+001
1.648747e+003,5.600018e+001
1.649711e+003,5.619855e+001
1.650675e+003,5.622028e+001
1.651639e+003,5.602484e+001
1.652604e+003,5.492114e+001
1.653568e+003,5.279980e+001
1.654532e+003,5.131915e+001
1.655496e+003,5.077539e+001
1.656460e+003,5.012073e+001
1.657425e+003,4.863586e+001
1.658389e+003,4.782635e+001
1.659353e+003,4.947723e+001
1.660317e+003,5.138666e+001
1.661281e+003,5.084906e+001
1.662246e+003,4.836316e+001
1.663210e+003,4.629126e+001
1.664174e+003,4.549213e+001
1.665138e+003,4.475970e+001
1.666103e+003,4.282404e+001
1.667067e+003,4.028979e+001
1.668031e+003,3.842493e+001
1.668995e+003,3.731006e+001
1.669960e+003,3.720624e+001
1.670924e+003,3.860565e+001
1.671888e+003,3.931763e+001
1.672852e+003,3.782495e+001
1.673817e+003,3.638916e+001
1.674781e+003,3.701147e+001
1.675745e+003,3.797516e+001
1.676709e+003,3.711078e+001
1.677674e+003,3.487628e+001
1.678638e+003,3.323853e+001
1.679602e+003,3.281732e+001
1.680566e+003,3.233521e+001
1.681531e+003,3.079510e+001
1.682495e+003,2.900232e+001
1.683459e+003,2.809814e+001
1.684423e+003,2.778583e+001
1.685387e+003,2.707697e+001
1.686352e+003,2.585278e+001
1.687316e+003,2.535571e+001
1.688280e+003,2.623151e+001
1.689244e+003,2.742480e+001
1.690208e+003,2.806055e+001
1.691173e+003,2.852179e+001
1.692137e+003,2.963806e+001
1.693101e+003,3.124567e+001
1.694065e+003,3.223376e+001
1.695030e+003,3.209851e+001
1.695994e+003,3.072620e+001
1.696958e+003,2.753705e+001
1.697922e+003,2.401288e+001
1.698887e+003,2.170740e+001
1.699851e+003,2.067206e+001
1.700815e+003,2.126154e+001
1.701779e+003,2.330902e+001
1.702744e+003,2.465985e+001
1.703708e+003,2.505963e+001
1.704672e+003,2.410419e+001
1.705636e+003,1.960797e+001
1.706601e+003,1.475696e+001
1.707565e+003,1.571796e+001
1.708529e+003,2.078174e+001
1.709493e+003,2.410510e+001
1.710458e+003,2.492853e+001
1.711422e+003,2.452100e+001
1.712386e+003,2.346100e+001
1.713350e+003,2.172449e+001
1.714314e+003,1.792181e+001
1.715279e+003,1.367926e+001
1.716243e+003,1.235144e+001
1.717207e+003,1.360028e+001
1.718171e+003,1.449554e+001
1.719135e+003,1.428430e+001
1.720100e+003,1.386993e+001
1.721064e+003,1.390143e+001
1.722028e+003,1.341309e+001
1.722992e+003,1.091333e+001
1.723957e+003,7.142090e+000
1.724921e+003,4.665955e+000
1.725885e+003,2.963196e+000
1.726849e+003,2.554993e+000
1.727814e+003,5.737915e+000
1.728778e+003,8.215088e+000
1.729742e+003,7.157715e+000
1.730706e+003,5.271484e+000
1.731671e+003,4.747253e+000
1.732635e+003,5.157593e+000
1.733599e+003,6.006165e+000
1.734563e+003,7.238342e+000
1.735528e+003,8.257019e+000
1.736492e+003,8.632263e+000
1.737456e+003,8.702148e+000
1.738420e+003,8.923523e+000
1.739385e+003,8.842224e+000
1.740349e+003,7.429688e+000
1.741313e+003,4.282837e+000
1.742277e+003,2.900146e+000
1.743241e+003,4.706848e+000
1.744206e+003,6.342651e+000
1.745170e+003,7.650574e+000
1.746134e+003,8.111572e+000
1.747098e+003,6.826721e+000
1.748063e+003,4.964661e+000
1.749027e+003,3.515442e+000
1.749991e+003,2.867859e+000
1.750955e+003,3.597778e+000
1.751919e+003,5.567261e+000
1.752884e+003,7.296631e+000
1.753848e+003,7.567200e+000
1.754812e+003,6.574829e+000
1.755776e+003,4.660583e+000
1.756741e+003,2.126831e+000
1.757705e+003,1.535583e+000
1.758669e+003,3.422485e+000
1.759633e+003,5.076111e+000
1.760598e+003,6.550232e+000
1.761562e+003,6.858154e+000
1.762526e+003,4.658875e+000
1.763490e+003,2.785645e+000
1.764455e+003,3.499939e+000
1.765419e+003,5.807129e+000
1.766383e+003,8.568787e+000
1.767347e+003,1.088647e+001
1.768312e+003,1.069373e+001
1.769276e+003,6.881714e+000
1.770240e+003,2.814636e+000
1.771204e+003,2.617615e+000
1.772168e+003,4.794128e+000
1.773133e+003,5.373230e+000
1.774097e+003,4.490784e+000
1.775061e+003,3.447327e+000
1.776025e+003,1.977234e+000
1.776990e+003,1.274353e+000
1.777954e+003,2.231018e+000
1.778918e+003,3.826294e+000
1.779882e+003,5.378662e+000
1.780846e+003,6.637390e+000
1.781811e+003,7.982178e+000
1.782775e+003,9.073608e+000
1.783739e+003,8.061218e+000
1.784703e+003,4.481628e+000
1.785668e+003,2.292419e+000
1.786632e+003,3.804565e+000
1.787596e+003,5.640686e+000
1.788560e+003,5.666443e+000
1.789525e+003,4.976563e+000
1.790489e+003,4.441833e+000
1.791453e+003,4.148743e+000
1.792417e+003,4.664795e+000
1.793382e+003,5.972412e+000
1.794346e+003,6.695313e+000
1.795310e+003,6.057617e+000
1.796274e+003,4.592163e+000
1.797239e+003,2.973572e+000
1.798203e+003,1.558350e+000
1.799167e+003,4.490967e-001
1.800131e+003,-9.660645e-001
1.801095e+003,-1.622253e+000
1.802060e+003,-1.458252e+000
1.803024e+003,2.745361e-001
1.803988e+003,5.807373e+000
1.804952e+003,9.899353e+000
1.805917e+003,8.346191e+000
1.806881e+003,5.606934e+000
1.807845e+003,7.169495e+000
1.808809e+003,1.109955e+001
1.809773e+003,1.211169e+001
1.810738e+003,9.384216e+000
1.811702e+003,6.190796e+000
1.812666e+003,4.615417e+000
1.813630e+003,5.009766e+000
1.814595e+003,8.261719e+000
1.815559e+003,1.327338e+001
1.816523e+003,1.570923e+001
1.817487e+003,1.541925e+001
1.818452e+003,1.490051e+001
1.819416e+003,1.465381e+001
1.820380e+003,1.375751e+001
1.821344e+003,1.106445e+001
1.822309e+003,8.404053e+000
1.823273e+003,6.517822e+000
1.824237e+003,5.791626e+000
1.825201e+003,7.236267e+000
1.826166e+003,9.837646e+000
1.827130e+003,1.126892e+001
1.828094e+003,1.102429e+001
1.829058e+003,9.489136e+000
1.830022e+003,5.905396e+000
1.830987e+003,3.529602e+000
1.831951e+003,6.640564e+000
1.832915e+003,1.145593e+001
1.833879e+003,1.196857e+001
1.834844e+003,9.408691e+000
1.835808e+003,8.194702e+000
1.836772e+003,9.033386e+000
1.837736e+003,1.038953e+001
1.838700e+003,1.149036e+001
1.839665e+003,1.265869e+001
1.840629e+003,1.450043e+001
1.841593e+003,1.617444e+001
1.842557e+003,1.555377e+001
1.843522e+003,1.266333e+001
1.844486e+003,1.033728e+001
1.845450e+003,8.543762e+000
1.846414e+003,8.101990e+000
1.847379e+003,9.100830e+000
1.848343e+003,1.048065e+001
1.849307e+003,1.304132e+001
1.850271e+003,1.502246e+001
1.851236e+003,1.498981e+001
1.852200e+003,1.397668e+001
1.853164e+003,1.270862e+001
1.854128e+003,1.155762e+001
1.855093e+003,1.172528e+001
1.856057e+003,1.365900e+001
1.857021e+003,1.546887e+001
1.857985e+003,1.541772e+001
1.858949e+003,1.428442e+001
1.859914e+003,1.317017e+001
1.860878e+003,1.228619e+001
1.861842e+003,1.260803e+001
1.862806e+003,1.408417e+001
1.863771e+003,1.523694e+001
1.864735e+003,1.565289e+001
1.865699e+003,1.601355e+001
1.866663e+003,1.675049e+001
1.867627e+003,1.776843e+001
1.868592e+003,1.944220e+001
1.869556e+003,2.055121e+001
1.870520e+003,1.845251e+001
1.871484e+003,1.382379e+001
1.872449e+003,1.149585e+001
1.873413e+003,1.299634e+001
1.874377e+003,1.550824e+001
1.875341e+003,1.872144e+001
1.876306e+003,2.088495e+001
1.877270e+003,2.014276e+001
1.878234e+003,1.857837e+001
1.879198e+003,1.820721e+001
1.880163e+003,1.884357e+001
1.881127e+003,2.018457e+001
1.882091e+003,2.181543e+001
1.883055e+003,2.276917e+001
1.884020e+003,2.262006e+001
1.884984e+003,2.147198e+001
1.885948e+003,1.934265e+001
1.886912e+003,1.758453e+001
1.887876e+003,1.931055e+001
1.888841e+003,2.412860e+001
1.889805e+003,2.674658e+001
1.890769e+003,2.691315e+001
1.891733e+003,2.613049e+001
1.892698e+003,2.389630e+001
1.893662e+003,2.174512e+001
1.894626e+003,1.987610e+001
1.895590e+003,1.887598e+001
1.896554e+003,1.922974e+001
1.897519e+003,2.083698e+001
1.898483e+003,2.429517e+001
1.899447e+003,2.850162e+001
1.900411e+003,3.058185e+001
1.901376e+003,3.010147e+001
1.902340e+003,2.854449e+001
1.903304e+003,2.540530e+001
1.904268e+003,2.289264e+001
1.905233e+003,2.348004e+001
1.906197e+003,2.446982e+001
1.907161e+003,2.178052e+001
1.908125e+003,1.820078e+001
1.909090e+003,1.980664e+001
1.910054e+003,2.549619e+001
1.911018e+003,2.873535e+001
1.911982e+003,2.762454e+001
1.912947e+003,2.575684e+001
1.913911e+003,2.569708e+001
1.914875e+003,2.673550e+001
1.915839e+003,2.771942e+001
1.916803e+003,2.852560e+001
1.917768e+003,2.971448e+001
1.918732e+003,3.174350e+001
1.919696e+003,3.218213e+001
1.920660e+003,3.033890e+001
1.921625e+003,2.923904e+001
1.922589e+003,2.956677e+001
1.923553e+003,3.031894e+001
1.924517e+003,3.104541e+001
1.925481e+003,3.198605e+001
1.926446e+003,3.476971e+001
1.927410e+003,3.741495e+001
1.928374e+003,3.458948e+001
1.929338e+003,2.652432e+001
1.930303e+003,2.211795e+001
1.931267e+003,2.485278e+001
1.932231e+003,2.847507e+001
1.933195e+003,3.011902e+001
1.934160e+003,3.123288e+001
1.935124e+003,3.366296e+001
1.936088e+003,3.538229e+001
1.937052e+003,3.305579e+001
1.938017e+003,2.871063e+001
1.938981e+003,2.642233e+001
1.939945e+003,2.697894e+001
1.940909e+003,2.990512e+001
1.941874e+003,3.457092e+001
1.942838e+003,3.847104e+001
1.943802e+003,3.951440e+001
1.944766e+003,3.858591e+001
1.945730e+003,3.640363e+001
1.946695e+003,3.325043e+001
1.947659e+003,3.345108e+001
1.948623e+003,3.736646e+001
1.949587e+003,3.965060e+001
1.950552e+003,3.949713e+001
1.951516e+003,3.936020e+001
1.952480e+003,4.028259e+001
1.953444e+003,4.082687e+001
1.954408e+003,3.937640e+001
1.955373e+003,3.729126e+001
1.956337e+003,3.685532e+001
1.957301e+003,3.789172e+001
1.958265e+003,3.900974e+001
1.959230e+003,4.030164e+001
1.960194e+003,4.089871e+001
1.961158e+003,3.917145e+001
1.962122e+003,3.819833e+001
1.963087e+003,3.931937e+001
1.964051e+003,4.085822e+001
1.965015e+003,4.261533e+001
1.965979e+003,4.412976e+001
1.966944e+003,4.485629e+001
1.967908e+003,4.461505e+001
1.968872e+003,4.282248e+001
1.969836e+003,4.014154e+001
1.970801e+003,3.891904e+001
1.971765e+003,4.008737e+001
1.972729e+003,4.180060e+001
1.973693e+003,4.254733e+001
1.974657e+003,4.275354e+001
1.975622e+003,4.290793e+001
1.976586e+003,4.290381e+001
1.977550e+003,4.255618e+001
1.978514e+003,4.209888e+001
1.979479e+003,4.235812e+001
1.980443e+003,4.337613e+001
1.981407e+003,4.481213e+001
1.982371e+003,4.670187e+001
1.983335e+003,4.778253e+001
1.984300e+003,4.677414e+001
1.985264e+003,4.519019e+001
1.986228e+003,4.567642e+001
1.987192e+003,4.762610e+001
1.988157e+003,4.783118e+001
1.989121e+003,4.587161e+001
1.990085e+003,4.488654e+001
1.991049e+003,4.564908e+001
1.992014e+003,4.610944e+001
1.992978e+003,4.501962e+001
1.993942e+003,4.470056e+001
1.994906e+003,4.678397e+001
1.995871e+003,4.906476e+001
1.996835e+003,4.983655e+001
1.997799e+003,4.999698e+001
1.998763e+003,5.117438e+001
1.999728e+003,5.285342e+001
