5.003444e+002,2.306449e+002
5.013087e+002,2.255234e+002
5.022729e+002,2.215496e+002
5.032371e+002,2.209980e+002
5.042014e+002,2.194889e+002
5.051656e+002,2.172368e+002
5.061298e+002,2.142833e+002
5.070941e+002,2.099348e+002
5.080583e+002,2.021951e+002
5.090225e+002,1.972266e+002
5.099868e+002,1.975599e+002
5.109510e+002,1.992036e+002
5.119152e+002,1.997193e+002
5.128795e+002,1.982055e+002
5.138437e+002,1.953307e+002
5.148079e+002,1.899825e+002
5.157722e+002,1.845256e+002
5.167364e+002,1.817017e+002
5.177006e+002,1.823100e+002
5.186649e+002,1.847338e+002
5.196291e+002,1.839533e+002
5.205933e+002,1.810402e+002
5.215576e+002,1.786908e+002
5.225218e+002,1.767511e+002
5.234860e+002,1.746660e+002
5.244503e+002,1.723608e+002
5.254145e+002,1.717231e+002
5.263787e+002,1.707101e+002
5.273430e+002,1.691611e+002
5.283072e+002,1.669965e+002
5.292714e+002,1.637744e+002
5.302357e+002,1.577554e+002
5.311999e+002,1.520430e+002
5.321641e+002,1.499202e+002
5.331284e+002,1.498094e+002
5.340926e+002,1.491571e+002
5.350568e+002,1.457161e+002
5.360211e+002,1.403630e+002
5.369853e+002,1.386302e+002
5.379495e+002,1.399787e+002
5.389138e+002,1.401415e+002
5.398780e+002,1.358105e+002
5.408422e+002,1.266006e+002
5.418065e+002,1.212187e+002
5.427707e+002,1.217151e+002
5.437349e+002,1.226540e+002
5.446992e+002,1.221467e+002
5.456634e+002,1.204222e+002
5.466276e+002,1.196256e+002
5.475919e+002,1.233806e+002
5.485561e+002,1.257858e+002
5.495203e+002,1.235732e+002
5.504846e+002,1.179791e+002
5.514488e+002,1.123210e+002
5.524130e+002,1.101571e+002
5.533773e+002,1.100660e+002
5.543415e+002,1.088116e+002
5.553057e+002,1.063760e+002
5.562700e+002,1.026656e+002
5.572342e+002,9.739136e+001
5.581984e+002,8.987219e+001
5.591627e+002,8.588916e+001
5.601269e+002,8.769647e+001
5.610911e+002,9.033295e+001
5.620554e+002,9.038776e+001
5.630196e+002,8.724286e+001
5.639838e+002,8.432867e+001
5.649481e+002,8.218939e+001
5.659123e+002,8.066266e+001
5.668765e+002,8.109235e+001
5.678408e+002,8.320160e+001
5.688050e+002,8.474945e+001
5.697692e+002,8.175189e+001
5.707335e+002,7.683716e+001
5.716977e+002,7.338257e+001
5.726619e+002,7.183557e+001
5.736262e+002,7.156482e+001
5.745904e+002,7.145825e+001
5.755546e+002,7.147791e+001
5.765189e+002,7.072864e+001
5.774831e+002,6.826367e+001
5.784473e+002,6.555359e+001
5.794116e+002,6.452222e+001
5.803758e+002,6.633289e+001
5.813400e+002,6.736121e+001
5.823043e+002,6.716992e+001
5.832685e+002,6.526416e+001
5.842327e+002,6.082520e+001
5.851970e+002,5.456708e+001
5.861612e+002,4.982947e+001
5.871254e+002,4.971368e+001
5.880897e+002,5.073340e+001
5.890539e+002,5.145349e+001
5.900181e+002,5.145227e+001
5.909824e+002,5.071680e+001
5.919466e+002,4.922559e+001
5.929108e+002,4.721808e+001
5.938751e+002,4.603778e+001
5.948393e+002,4.588306e+001
5.958035e+002,4.615039e+001
5.967678e+002,4.620093e+001
5.977320e+002,4.613367e+001
5.986962e+002,4.650635e+001
5.996605e+002,4.632837e+001
6.006247e+002,4.603363e+001
6.015889e+002,4.668292e+001
6.025532e+002,4.833643e+001
6.035174e+002,4.811810e+001
6.044816e+002,4.091595e+001
6.054459e+002,3.388190e+001
6.064101e+002,3.032288e+001
6.073743e+002,3.030957e+001
6.083386e+002,3.228137e+001
6.093028e+002,3.495428e+001
6.102670e+002,3.795721e+001
6.112313e+002,3.902130e+001
6.121955e+002,3.794232e+001
6.131597e+002,3.593683e+001
6.141240e+002,3.431586e+001
6.150882e+002,3.292230e+001
6.160524e+002,3.245013e+001
6.170167e+002,3.398376e+001
6.179809e+002,3.570135e+001
6.189451e+002,3.587671e+001
6.199094e+002,3.420178e+001
6.208736e+002,3.328638e+001
6.218378e+002,3.650842e+001
6.228021e+002,4.031030e+001
6.237663e+002,4.452026e+001
6.247305e+002,4.807220e+001
6.256948e+002,4.897827e+001
6.266590e+002,4.436395e+001
6.276232e+002,3.579584e+001
6.285875e+002,2.891669e+001
6.295517e+002,2.408722e+001
6.305159e+002,2.169537e+001
6.314802e+002,2.212848e+001
6.324444e+002,2.564032e+001
6.334086e+002,2.611346e+001
6.343729e+002,2.297626e+001
6.353371e+002,1.988837e+001
6.363013e+002,1.780426e+001
6.372656e+002,1.655835e+001
6.382298e+002,1.614539e+001
6.391940e+002,1.854120e+001
6.401583e+002,1.952838e+001
6.411225e+002,1.723077e+001
6.420867e+002,1.344330e+001
6.430510e+002,1.097980e+001
6.440152e+002,1.182111e+001
6.449794e+002,1.374176e+001
6.459437e+002,1.416504e+001
6.469079e+002,1.316113e+001
6.478721e+002,1.020612e+001
6.488364e+002,4.921265e+000
6.498006e+002,-2.073547e+000
6.507648e+002,-4.644836e+000
6.517291e+002,-1.077087e+000
6.526933e+002,2.584473e+000
6.536575e+002,5.256836e+000
6.546218e+002,6.924988e+000
6.555860e+002,7.606567e+000
6.565502e+002,6.908813e+000
6.575145e+002,5.345398e+000
6.584787e+002,1.793579e+000
6.594429e+002,-1.753418e+000
6.604072e+002,-2.799500e+000
6.613714e+002,9.851074e-002
6.623356e+002,4.510742e+000
6.632999e+002,7.220642e+000
6.642641e+002,8.213257e+000
6.652283e+002,7.190063e+000
6.661926e+002,4.396484e+000
6.671568e+002,9.371338e-001
6.681210e+002,-4.427490e-001
6.690853e+002,8.142700e-001
6.700495e+002,1.678406e+000
6.710137e+002,1.833130e+000
6.719780e+002,1.666687e+000
6.729422e+002,1.477173e+000
6.739064e+002,6.809082e-001
6.748707e+002,6.801758e-001
6.758349e+002,2.718689e+000
6.767991e+002,4.756042e+000
6.777634e+002,5.928589e+000
6.787276e+002,6.146667e+000
6.796918e+002,5.655090e+000
6.806561e+002,2.306580e+000
6.816203e+002,-1.659241e+000
6.825845e+002,-1.956909e+000
6.835488e+002,1.723145e+000
6.845130e+002,6.841248e+000
6.854772e+002,9.501221e+000
6.864415e+002,9.681946e+000
6.874057e+002,9.410767e+000
6.883699e+002,7.006897e+000
6.893342e+002,4.049805e+000
6.902984e+002,1.605652e+000
6.912626e+002,-8.374023e-002
6.922269e+002,-4.927979e-001
6.931911e+002,3.637817e+000
6.941553e+002,7.224854e+000
6.951196e+002,6.714172e+000
6.960838e+002,3.182373e+000
6.970480e+002,4.767456e-001
6.980123e+002,2.279541e+000
6.989765e+002,6.646545e+000
6.999407e+002,9.969849e+000
7.009050e+002,1.199274e+001
7.018692e+002,1.209521e+001
7.028334e+002,9.766907e+000
7.037977e+002,5.199524e+000
7.047619e+002,2.392151e+000
7.057261e+002,3.138306e+000
7.066904e+002,3.511719e+000
7.076546e+002,1.969055e+000
7.086188e+002,-5.600586e-001
7.095831e+002,-1.754517e+000
7.105473e+002,-1.408142e+000
7.115115e+002,1.132202e-001
7.124758e+002,4.642151e+000
7.134400e+002,8.787537e+000
7.144042e+002,8.866089e+000
7.153685e+002,3.740845e+000
7.163327e+002,-2.598816e+000
7.172969e+002,-3.804688e+000
7.182612e+002,-2.211060e+000
7.192254e+002,-6.342163e-001
7.201896e+002,-9.851074e-002
7.211539e+002,-7.807007e-001
7.221181e+002,-2.660034e+000
7.230823e+002,-6.457886e+000
7.240466e+002,-7.487671e+000
7.250108e+002,-3.670654e+000
7.259750e+002,1.571411e+000
7.269393e+002,5.476807e+000
7.279035e+002,7.240112e+000
7.288677e+002,7.795471e+000
7.298320e+002,9.258240e+000
7.307962e+002,1.009021e+001
7.317604e+002,8.205322e+000
7.327247e+002,4.875061e+000
7.336889e+002,3.038513e+000
7.346531e+002,5.092651e+000
7.356174e+002,7.761536e+000
7.365816e+002,6.581909e+000
7.375458e+002,3.544678e+000
7.385101e+002,1.106018e+000
7.394743e+002,5.800171e-001
7.404385e+002,1.674744e+000
7.414028e+002,2.987366e+000
7.423670e+002,3.229797e+000
7.433312e+002,2.431580e+000
7.442955e+002,1.462524e+000
7.452597e+002,7.855835e-001
7.462239e+002,3.810425e-001
7.471882e+002,-8.245850e-002
7.481524e+002,-3.485718e-001
7.491166e+002,-2.565369e+000
7.500809e+002,-4.199158e+000
7.510451e+002,-1.767761e+000
7.520093e+002,4.766052e+000
7.529736e+002,1.125653e+001
7.539378e+002,1.192059e+001
7.549020e+002,8.682617e+000
7.558663e+002,5.606567e+000
7.568306e+002,2.698181e+000
7.577948e+002,1.073669e+000
7.587590e+002,2.197144e+000
7.597233e+002,6.390869e+000
7.606875e+002,7.806396e+000
7.616517e+002,5.022217e+000
7.626160e+002,2.724548e+000
7.635802e+002,2.555237e+000
7.645444e+002,4.310425e+000
7.655087e+002,7.014832e+000
7.664729e+002,1.091821e+001
7.674371e+002,1.418378e+001
7.684014e+002,1.601996e+001
7.693656e+002,1.659082e+001
7.703298e+002,1.589056e+001
7.712941e+002,1.412714e+001
7.722583e+002,1.206616e+001
7.732225e+002,1.109595e+001
7.741868e+002,1.104761e+001
7.751510e+002,1.259308e+001
7.761152e+002,1.669751e+001
7.770795e+002,2.154187e+001
7.780437e+002,2.359100e+001
7.790079e+002,2.086389e+001
7.799722e+002,1.914050e+001
7.809364e+002,1.956573e+001
7.819006e+002,2.014099e+001
7.828649e+002,1.977924e+001
7.838291e+002,1.888165e+001
7.847933e+002,1.909845e+001
7.857576e+002,2.176501e+001
7.867218e+002,2.421722e+001
7.876860e+002,2.541357e+001
7.886503e+002,2.578003e+001
7.896145e+002,2.534338e+001
7.905787e+002,2.403094e+001
7.915430e+002,2.231067e+001
7.925072e+002,2.304352e+001
7.934714e+002,2.573553e+001
7.944357e+002,2.617432e+001
7.953999e+002,2.175854e+001
7.963641e+002,1.601422e+001
7.973284e+002,1.632141e+001
7.982926e+002,2.695270e+001
7.992568e+002,3.345551e+001
8.002211e+002,3.022058e+001
8.011853e+002,2.415381e+001
8.021495e+002,2.010938e+001
8.031138e+002,1.966656e+001
8.040780e+002,2.105981e+001
8.050422e+002,2.148041e+001
8.060065e+002,2.161621e+001
8.069707e+002,2.412305e+001
8.079349e+002,2.841418e+001
8.088992e+002,3.210974e+001
8.098634e+002,3.335382e+001
8.108276e+002,3.260303e+001
8.117919e+002,3.205945e+001
8.127561e+002,3.117090e+001
8.137203e+002,2.897760e+001
8.146846e+002,2.515704e+001
8.156488e+002,2.126886e+001
8.166130e+002,1.948706e+001
8.175773e+002,2.031964e+001
8.185415e+002,2.217291e+001
8.195057e+002,2.449542e+001
8.204700e+002,2.653064e+001
8.214342e+002,2.816510e+001
8.223984e+002,2.920251e+001
8.233627e+002,2.909601e+001
8.243269e+002,2.693243e+001
8.252911e+002,2.357813e+001
8.262554e+002,2.111066e+001
8.272196e+002,1.946783e+001
8.281838e+002,1.875580e+001
8.291481e+002,1.908105e+001
8.301123e+002,2.037787e+001
8.310765e+002,2.214270e+001
8.320408e+002,2.530090e+001
8.330050e+002,2.719550e+001
8.339692e+002,2.770886e+001
8.349335e+002,2.697992e+001
8.358977e+002,2.458167e+001
8.368619e+002,2.006769e+001
8.378262e+002,1.741736e+001
8.387904e+002,2.052063e+001
8.397546e+002,2.488123e+001
8.407189e+002,2.794366e+001
8.416831e+002,2.927362e+001
8.426473e+002,2.941498e+001
8.436116e+002,2.867975e+001
8.445758e+002,2.741351e+001
8.455400e+002,2.886658e+001
8.465043e+002,3.270746e+001
8.474685e+002,3.510486e+001
8.484327e+002,3.385822e+001
8.493970e+002,3.045093e+001
8.503612e+002,2.986908e+001
8.513254e+002,3.303070e+001
8.522897e+002,3.707257e+001
8.532539e+002,4.350238e+001
8.542181e+002,4.890485e+001
8.551824e+002,4.933179e+001
8.561466e+002,4.462372e+001
8.571108e+002,4.111902e+001
8.580751e+002,4.537518e+001
8.590393e+002,5.235718e+001
8.600035e+002,5.755249e+001
8.609678e+002,6.119409e+001
8.619320e+002,6.471558e+001
8.628962e+002,6.927954e+001
8.638605e+002,7.474371e+001
8.648247e+002,7.773438e+001
8.657889e+002,7.647229e+001
8.667532e+002,7.553333e+001
8.677174e+002,7.618451e+001
8.686816e+002,7.747449e+001
8.696459e+002,7.763519e+001
8.706101e+002,7.592554e+001
8.715743e+002,7.607605e+001
8.725386e+002,8.093323e+001
8.735028e+002,8.683636e+001
8.744670e+002,9.145117e+001
8.754313e+002,9.403345e+001
8.763955e+002,9.486035e+001
8.773597e+002,9.424066e+001
8.783240e+002,9.339642e+001
8.792882e+002,9.582532e+001
8.802524e+002,1.009637e+002
8.812167e+002,1.049796e+002
8.821809e+002,1.055082e+002
8.831451e+002,1.033753e+002
8.841094e+002,1.022783e+002
8.850736e+002,1.033583e+002
8.860378e+002,1.051329e+002
8.870021e+002,1.062813e+002
8.879663e+002,1.082892e+002
8.889305e+002,1.132516e+002
8.898948e+002,1.207626e+002
8.908590e+002,1.263877e+002
8.918232e+002,1.256899e+002
8.927875e+002,1.238982e+002
8.937517e+002,1.259616e+002
8.947159e+002,1.308568e+002
8.956802e+002,1.357915e+002
8.966444e+002,1.385803e+002
8.976086e+002,1.390504e+002
8.985729e+002,1.386377e+002
8.995371e+002,1.377781e+002
9.005013e+002,1.384404e+002
9.014656e+002,1.424352e+002
9.024298e+002,1.476185e+002
9.033940e+002,1.511359e+002
9.043583e+002,1.521042e+002
9.053225e+002,1.525812e+002
9.062867e+002,1.529307e+002
9.072510e+002,1.528032e+002
9.082152e+002,1.527991e+002
9.091794e+002,1.531691e+002
9.101437e+002,1.536511e+002
9.111079e+002,1.538041e+002
9.120721e+002,1.537481e+002
9.130364e+002,1.544870e+002
9.140006e+002,1.552030e+002
9.149648e+002,1.546003e+002
9.159291e+002,1.528768e+002
9.168933e+002,1.511730e+002
9.178575e+002,1.503842e+002
9.188218e+002,1.500004e+002
9.197860e+002,1.498776e+002
9.207502e+002,1.513375e+002
9.217145e+002,1.511270e+002
9.226787e+002,1.480344e+002
9.236429e+002,1.434391e+002
9.246072e+002,1.390272e+002
9.255714e+002,1.347654e+002
9.265356e+002,1.318044e+002
9.274999e+002,1.330267e+002
9.284641e+002,1.353245e+002
9.294283e+002,1.358828e+002
9.303926e+002,1.343124e+002
9.313568e+002,1.313910e+002
9.323210e+002,1.276081e+002
9.332853e+002,1.223954e+002
9.342495e+002,1.190814e+002
9.352137e+002,1.180658e+002
9.361780e+002,1.175374e+002
9.371422e+002,1.183556e+002
9.381064e+002,1.198188e+002
9.390707e+002,1.190689e+002
9.400349e+002,1.137538e+002
9.409991e+002,1.094361e+002
9.419634e+002,1.093705e+002
9.429276e+002,1.103878e+002
9.438918e+002,1.105298e+002
9.448561e+002,1.097570e+002
9.458203e+002,1.094747e+002
9.467845e+002,1.111393e+002
9.477488e+002,1.138057e+002
9.487130e+002,1.125938e+002
9.496772e+002,1.078085e+002
9.506415e+002,1.038453e+002
9.516057e+002,1.021307e+002
9.525699e+002,1.023352e+002
9.535342e+002,1.043846e+002
9.544984e+002,1.101530e+002
9.554626e+002,1.116121e+002
9.564269e+002,1.060530e+002
9.573911e+002,1.003590e+002
9.583553e+002,9.684119e+001
9.593196e+002,9.574609e+001
9.602838e+002,9.744122e+001
9.612480e+002,1.030283e+002
9.622123e+002,1.085195e+002
9.631765e+002,1.078408e+002
9.641407e+002,1.031450e+002
9.651050e+002,9.717303e+001
9.660692e+002,9.078827e+001
9.670334e+002,8.467688e+001
9.679977e+002,8.013153e+001
9.689619e+002,7.766321e+001
9.699261e+002,7.835468e+001
9.708904e+002,8.250677e+001
9.718546e+002,8.736902e+001
9.728188e+002,9.202051e+001
9.737831e+002,9.636829e+001
9.747473e+002,1.008391e+002
9.757115e+002,1.059024e+002
9.766758e+002,1.107172e+002
9.776400e+002,1.159164e+002
9.786042e+002,1.201585e+002
9.795685e+002,1.221552e+002
9.805327e+002,1.212749e+002
9.814969e+002,1.173002e+002
9.824612e+002,1.105244e+002
9.834254e+002,1.022233e+002
9.843896e+002,9.453723e+001
9.853539e+002,8.579370e+001
9.863181e+002,7.844403e+001
9.872823e+002,7.293225e+001
9.882466e+002,6.871521e+001
9.892108e+002,6.596539e+001
9.901750e+002,6.571979e+001
9.911393e+002,6.607104e+001
9.921035e+002,6.310205e+001
9.930677e+002,6.144312e+001
9.940320e+002,6.497980e+001
9.949962e+002,7.192657e+001
9.959604e+002,7.864917e+001
9.969247e+002,8.309607e+001
9.978889e+002,8.658783e+001
9.988531e+002,9.175897e+001
9.998174e+002,9.718719e+001
1.000782e+003,9.949249e+001
1.001746e+003,9.844720e+001
1.002710e+003,9.686920e+001
1.003674e+003,9.731573e+001
1.004639e+003,9.976404e+001
1.005603e+003,1.017683e+002
1.006567e+003,1.043615e+002
1.007531e+003,1.041735e+002
1.008495e+003,9.888092e+001
1.009460e+003,9.215668e+001
1.010424e+003,8.703900e+001
1.011388e+003,8.432623e+001
1.012352e+003,8.360480e+001
1.013317e+003,8.570135e+001
1.014281e+003,8.741516e+001
1.015245e+003,8.286823e+001
1.016209e+003,7.362134e+001
1.017174e+003,6.560687e+001
1.018138e+003,6.229266e+001
1.019102e+003,6.209320e+001
1.020066e+003,6.053577e+001
1.021031e+003,5.803009e+001
1.021995e+003,5.462958e+001
1.022959e+003,4.865515e+001
1.023923e+003,4.237225e+001
1.024887e+003,3.645581e+001
1.025852e+003,3.106439e+001
1.026816e+003,2.644592e+001
1.027780e+003,2.300134e+001
1.028744e+003,2.074603e+001
1.029709e+003,2.070837e+001
1.030673e+003,2.066223e+001
1.031637e+003,1.713513e+001
1.032601e+003,1.045740e+001
1.033566e+003,5.246094e+000
1.034530e+003,6.596008e+000
1.035494e+003,1.405328e+001
1.036458e+003,1.695117e+001
1.037422e+003,1.161932e+001
1.038387e+003,7.895386e+000
1.039351e+003,7.496033e+000
1.040315e+003,8.703613e+000
1.041279e+003,1.021838e+001
1.042244e+003,1.206671e+001
1.043208e+003,1.354138e+001
1.044172e+003,1.377142e+001
1.045136e+003,1.340186e+001
1.046101e+003,1.259015e+001
1.047065e+003,1.188617e+001
1.048029e+003,1.222559e+001
1.048993e+003,1.373389e+001
1.049958e+003,1.519226e+001
1.050922e+003,1.473059e+001
1.051886e+003,1.251849e+001
1.052850e+003,1.180798e+001
1.053814e+003,1.323517e+001
1.054779e+003,1.473969e+001
1.055743e+003,1.439520e+001
1.056707e+003,1.311066e+001
1.057671e+003,1.383643e+001
1.058636e+003,1.752533e+001
1.059600e+003,2.103204e+001
1.060564e+003,2.470599e+001
1.061528e+003,2.746222e+001
1.062493e+003,2.788312e+001
1.063457e+003,2.615472e+001
1.064421e+003,2.287476e+001
1.065385e+003,1.865961e+001
1.066349e+003,1.507007e+001
1.067314e+003,1.594232e+001
1.068278e+003,2.098633e+001
1.069242e+003,2.383099e+001
1.070206e+003,2.344934e+001
1.071171e+003,2.197583e+001
1.072135e+003,2.050049e+001
1.073099e+003,1.886670e+001
1.074063e+003,1.835211e+001
1.075028e+003,2.072491e+001
1.075992e+003,2.170459e+001
1.076956e+003,1.846515e+001
1.077920e+003,1.461591e+001
1.078885e+003,1.405713e+001
1.079849e+003,1.651190e+001
1.080813e+003,1.812811e+001
1.081777e+003,1.571680e+001
1.082741e+003,1.151154e+001
1.083706e+003,1.045404e+001
1.084670e+003,1.125214e+001
1.085634e+003,1.229431e+001
1.086598e+003,1.345203e+001
1.087563e+003,1.406311e+001
1.088527e+003,1.335803e+001
1.089491e+003,1.178784e+001
1.090455e+003,1.139423e+001
1.091420e+003,1.237292e+001
1.092384e+003,1.316669e+001
1.093348e+003,1.326147e+001
1.094312e+003,1.291321e+001
1.095276e+003,1.304810e+001
1.096241e+003,1.377710e+001
1.097205e+003,1.360455e+001
1.098169e+003,1.051080e+001
1.099133e+003,6.156372e+000
1.100098e+003,4.728271e+000
1.101062e+003,5.932556e+000
1.102026e+003,8.249573e+000
1.102990e+003,1.139978e+001
1.103955e+003,1.435876e+001
1.104919e+003,1.523950e+001
1.105883e+003,1.333844e+001
1.106847e+003,1.167621e+001
1.107812e+003,9.565796e+000
1.108776e+003,8.294434e+000
1.109740e+003,8.737305e+000
1.110704e+003,9.843445e+000
1.111668e+003,1.061584e+001
1.112633e+003,1.120404e+001
1.113597e+003,1.267841e+001
1.114561e+003,1.564014e+001
1.115525e+003,1.881702e+001
1.116490e+003,2.169580e+001
1.117454e+003,2.424780e+001
1.118418e+003,2.489410e+001
1.119382e+003,2.294025e+001
1.120347e+003,2.076532e+001
1.121311e+003,2.191058e+001
1.122275e+003,2.617786e+001
1.123239e+003,2.973749e+001
1.124203e+003,3.498938e+001
1.125168e+003,3.831866e+001
1.126132e+003,3.728851e+001
1.127096e+003,3.510468e+001
1.128060e+003,3.515912e+001
1.129025e+003,3.781018e+001
1.129989e+003,4.077747e+001
1.130953e+003,4.223718e+001
1.131917e+003,4.333386e+001
1.132882e+003,4.656213e+001
1.133846e+003,5.122485e+001
1.134810e+003,5.498798e+001
1.135774e+003,5.698340e+001
1.136739e+003,5.824500e+001
1.137703e+003,5.976251e+001
1.138667e+003,6.080920e+001
1.139631e+003,6.568097e+001
1.140595e+003,7.795245e+001
1.141560e+003,8.939996e+001
1.142524e+003,9.802808e+001
1.143488e+003,1.063870e+002
1.144452e+003,1.159677e+002
1.145417e+003,1.274071e+002
1.146381e+003,1.420576e+002
1.147345e+003,1.612231e+002
1.148309e+003,1.833198e+002
1.149274e+003,2.073290e+002
1.150238e+003,2.328544e+002
1.151202e+003,2.595461e+002
1.152166e+003,2.875955e+002
1.153130e+003,3.139901e+002
1.154095e+003,3.347187e+002
1.155059e+003,3.487313e+002
1.156023e+003,3.551559e+002
1.156987e+003,3.555301e+002
1.157952e+003,3.472437e+002
1.158916e+003,3.258227e+002
1.159880e+003,3.008701e+002
1.160844e+003,2.783283e+002
1.161809e+003,2.580043e+002
1.162773e+003,2.371898e+002
1.163737e+003,2.143916e+002
1.164701e+003,1.915824e+002
1.165666e+003,1.711323e+002
1.166630e+003,1.528810e+002
1.167594e+003,1.366642e+002
1.168558e+003,1.223454e+002
1.169522e+003,1.097657e+002
1.170487e+003,9.833905e+001
1.171451e+003,8.860229e+001
1.172415e+003,8.413525e+001
1.173379e+003,8.800201e+001
1.174344e+003,9.075708e+001
1.175308e+003,9.328479e+001
1.176272e+003,9.355597e+001
1.177236e+003,8.956500e+001
1.178201e+003,8.273932e+001
1.179165e+003,7.502936e+001
1.180129e+003,6.692444e+001
1.181093e+003,6.060089e+001
1.182057e+003,6.015863e+001
1.183022e+003,6.331000e+001
1.183986e+003,6.478125e+001
1.184950e+003,6.443774e+001
1.185914e+003,6.317908e+001
1.186879e+003,6.139331e+001
1.187843e+003,5.952948e+001
1.188807e+003,5.816779e+001
1.189771e+003,5.663837e+001
1.190736e+003,5.652173e+001
1.191700e+003,6.054718e+001
1.192664e+003,6.287439e+001
1.193628e+003,6.072522e+001
1.194593e+003,5.681348e+001
1.195557e+003,5.491779e+001
1.196521e+003,5.539716e+001
1.197485e+003,5.451794e+001
1.198449e+003,4.884277e+001
1.199414e+003,4.047058e+001
1.200378e+003,3.395361e+001
1.201342e+003,2.902307e+001
1.202306e+003,2.554163e+001
1.203271e+003,2.370502e+001
1.204235e+003,2.221741e+001
1.205199e+003,1.949097e+001
1.206163e+003,1.568500e+001
1.207128e+003,1.323792e+001
1.208092e+003,1.450024e+001
1.209056e+003,1.347070e+001
1.210020e+003,7.241394e+000
1.210984e+003,-1.362915e-001
1.211949e+003,-5.835693e+000
1.212913e+003,-1.014935e+001
1.213877e+003,-1.498999e+001
1.214841e+003,-2.134198e+001
1.215806e+003,-2.792126e+001
1.216770e+003,-3.314032e+001
1.217734e+003,-3.687085e+001
1.218698e+003,-3.885681e+001
1.219663e+003,-3.887335e+001
1.220627e+003,-3.909125e+001
1.221591e+003,-4.039276e+001
1.222555e+003,-4.259418e+001
1.223520e+003,-4.570776e+001
1.224484e+003,-4.982703e+001
1.225448e+003,-5.249957e+001
1.226412e+003,-5.218195e+001
1.227376e+003,-5.127972e+001
1.228341e+003,-4.975061e+001
1.229305e+003,-4.905676e+001
1.230269e+003,-5.183514e+001
1.231233e+003,-5.776807e+001
1.232198e+003,-6.293195e+001
1.233162e+003,-6.327789e+001
1.234126e+003,-5.940216e+001
1.235090e+003,-5.551434e+001
1.236055e+003,-5.182440e+001
1.237019e+003,-5.042834e+001
1.237983e+003,-5.364532e+001
1.238947e+003,-5.720001e+001
1.239911e+003,-5.705438e+001
1.240876e+003,-5.449182e+001
1.241840e+003,-5.454834e+001
1.242804e+003,-5.906195e+001
1.243768e+003,-6.234869e+001
1.244733e+003,-5.913562e+001
1.245697e+003,-5.494501e+001
1.246661e+003,-5.414948e+001
1.247625e+003,-5.569159e+001
1.248590e+003,-5.602856e+001
1.249554e+003,-5.336548e+001
1.250518e+003,-4.947009e+001
1.251482e+003,-4.772766e+001
1.252447e+003,-4.887067e+001
1.253411e+003,-4.934479e+001
1.254375e+003,-4.834131e+001
1.255339e+003,-4.648444e+001
1.256303e+003,-4.315436e+001
1.257268e+003,-3.934076e+001
1.258232e+003,-3.599200e+001
1.259196e+003,-3.346704e+001
1.260160e+003,-3.156244e+001
1.261125e+003,-2.980719e+001
1.262089e+003,-2.868573e+001
1.263053e+003,-3.064111e+001
1.264017e+003,-3.345630e+001
1.264982e+003,-3.322174e+001
1.265946e+003,-2.988440e+001
1.266910e+003,-2.624933e+001
1.267874e+003,-2.395410e+001
1.268839e+003,-2.329761e+001
1.269803e+003,-2.513696e+001
1.270767e+003,-3.024396e+001
1.271731e+003,-3.343854e+001
1.272695e+003,-3.329333e+001
1.273660e+003,-3.272034e+001
1.274624e+003,-3.206067e+001
1.275588e+003,-3.222467e+001
1.276552e+003,-3.437122e+001
1.277517e+003,-3.754034e+001
1.278481e+003,-3.880341e+001
1.279445e+003,-3.648346e+001
1.280409e+003,-3.347699e+001
1.281374e+003,-3.450806e+001
1.282338e+003,-3.857758e+001
1.283302e+003,-4.194196e+001
1.284266e+003,-4.469135e+001
1.285230e+003,-4.597754e+001
1.286195e+003,-4.378229e+001
1.287159e+003,-4.046637e+001
1.288123e+003,-4.114221e+001
1.289087e+003,-4.594067e+001
1.290052e+003,-4.981360e+001
1.291016e+003,-5.216980e+001
1.291980e+003,-5.350336e+001
1.292944e+003,-5.420697e+001
1.293909e+003,-5.431525e+001
1.294873e+003,-5.269202e+001
1.295837e+003,-4.977081e+001
1.296801e+003,-4.799194e+001
1.297766e+003,-4.923608e+001
1.298730e+003,-5.190765e+001
1.299694e+003,-5.216583e+001
1.300658e+003,-4.992871e+001
1.301622e+003,-4.843530e+001
1.302587e+003,-4.770300e+001
1.303551e+003,-4.690466e+001
1.304515e+003,-4.508710e+001
1.305479e+003,-4.312415e+001
1.306444e+003,-4.276611e+001
1.307408e+003,-4.416785e+001
1.308372e+003,-4.498462e+001
1.309336e+003,-4.352838e+001
1.310301e+003,-4.261017e+001
1.311265e+003,-4.594574e+001
1.312229e+003,-5.037207e+001
1.313193e+003,-5.190021e+001
1.314157e+003,-5.048010e+001
1.315122e+003,-4.878064e+001
1.316086e+003,-4.878497e+001
1.317050e+003,-5.008228e+001
1.318014e+003,-5.098737e+001
1.318979e+003,-5.067310e+001
1.319943e+003,-5.042004e+001
1.320907e+003,-5.184534e+001
1.321871e+003,-5.121350e+001
1.322836e+003,-4.585175e+001
1.323800e+003,-4.033752e+001
1.324764e+003,-3.936627e+001
1.325728e+003,-4.216296e+001
1.326693e+003,-4.433362e+001
1.327657e+003,-4.358160e+001
1.328621e+003,-4.200775e+001
1.329585e+003,-4.223987e+001
1.330549e+003,-4.315753e+001
1.331514e+003,-4.338885e+001
1.332478e+003,-4.405389e+001
1.333442e+003,-4.382538e+001
1.334406e+003,-4.084753e+001
1.335371e+003,-3.695349e+001
1.336335e+003,-3.478308e+001
1.337299e+003,-3.414996e+001
1.338263e+003,-3.338782e+001
1.339228e+003,-3.147467e+001
1.340192e+003,-3.090540e+001
1.341156e+003,-3.461499e+001
1.342120e+003,-3.855591e+001
1.343084e+003,-3.992120e+001
1.344049e+003,-3.936511e+001
1.345013e+003,-3.813306e+001
1.345977e+003,-3.660004e+001
1.346941e+003,-3.493530e+001
1.347906e+003,-3.386633e+001
1.348870e+003,-3.355682e+001
1.349834e+003,-3.330682e+001
1.350798e+003,-3.292480e+001
1.351763e+003,-3.361346e+001
1.352727e+003,-3.682324e+001
1.353691e+003,-3.942944e+001
1.354655e+003,-3.884949e+001
1.355620e+003,-3.641803e+001
1.356584e+003,-3.473132e+001
1.357548e+003,-3.438574e+001
1.358512e+003,-3.475458e+001
1.359476e+003,-3.603223e+001
1.360441e+003,-3.768182e+001
1.361405e+003,-3.851746e+001
1.362369e+003,-3.842944e+001
1.363333e+003,-3.694061e+001
1.364298e+003,-3.365747e+001
1.365262e+003,-3.086523e+001
1.366226e+003,-3.107562e+001
1.367190e+003,-3.329932e+001
1.368155e+003,-3.373083e+001
1.369119e+003,-3.161255e+001
1.370083e+003,-3.125360e+001
1.371047e+003,-3.617023e+001
1.372011e+003,-3.930499e+001
1.372976e+003,-3.728998e+001
1.373940e+003,-3.360596e+001
1.374904e+003,-3.146246e+001
1.375868e+003,-3.086865e+001
1.376833e+003,-3.018872e+001
1.377797e+003,-2.852051e+001
1.378761e+003,-2.621118e+001
1.379725e+003,-2.349841e+001
1.380690e+003,-2.016901e+001
1.381654e+003,-1.866602e+001
1.382618e+003,-1.957733e+001
1.383582e+003,-2.047876e+001
1.384547e+003,-2.136530e+001
1.385511e+003,-2.182434e+001
1.386475e+003,-2.160406e+001
1.387439e+003,-2.094916e+001
1.388403e+003,-2.018799e+001
1.389368e+003,-1.941119e+001
1.390332e+003,-1.875543e+001
1.391296e+003,-1.794250e+001
1.392260e+003,-1.726349e+001
1.393225e+003,-1.777612e+001
1.394189e+003,-1.937860e+001
1.395153e+003,-2.096185e+001
1.396117e+003,-2.206128e+001
1.397082e+003,-2.243762e+001
1.398046e+003,-2.136005e+001
1.399010e+003,-1.951221e+001
1.399974e+003,-2.013202e+001
1.400938e+003,-2.466199e+001
1.401903e+003,-2.731195e+001
1.402867e+003,-2.339050e+001
1.403831e+003,-1.930829e+001
1.404795e+003,-1.838422e+001
1.405760e+003,-1.891345e+001
1.406724e+003,-1.984015e+001
1.407688e+003,-2.098218e+001
1.408652e+003,-2.175043e+001
1.409617e+003,-2.125110e+001
1.410581e+003,-1.941016e+001
1.411545e+003,-1.706921e+001
1.412509e+003,-1.438654e+001
1.413474e+003,-1.242310e+001
1.414438e+003,-1.145258e+001
1.415402e+003,-1.278021e+001
1.416366e+003,-1.771161e+001
1.417330e+003,-2.244708e+001
1.418295e+003,-2.513739e+001
1.419259e+003,-2.580603e+001
1.420223e+003,-2.460840e+001
1.421187e+003,-2.188226e+001
1.422152e+003,-1.851776e+001
1.423116e+003,-1.442908e+001
1.424080e+003,-1.004486e+001
1.425044e+003,-6.496277e+000
1.426009e+003,-4.695984e+000
1.426973e+003,-6.512756e+000
1.427937e+003,-1.243646e+001
1.428901e+003,-1.664758e+001
1.429865e+003,-1.449292e+001
1.430830e+003,-9.273926e+000
1.431794e+003,-6.656433e+000
1.432758e+003,-6.625122e+000
1.433722e+003,-6.361023e+000
1.434687e+003,-5.139465e+000
1.435651e+003,-2.368042e+000
1.436615e+003,3.165466e+000
1.437579e+003,7.139343e+000
1.438544e+003,5.716309e+000
1.439508e+003,1.435120e+000
1.440472e+003,-7.166748e-001
1.441436e+003,9.025269e-001
1.442401e+003,3.901672e+000
1.443365e+003,5.682983e+000
1.444329e+003,6.053101e+000
1.445293e+003,5.182495e+000
1.446257e+003,1.826050e+000
1.447222e+003,1.649170e+000
1.448186e+003,9.077087e+000
1.449150e+003,1.308905e+001
1.450114e+003,7.398254e+000
1.451079e+003,-1.312256e-001
1.452043e+003,-1.384033e+000
1.453007e+003,2.329590e+000
1.453971e+003,4.440918e+000
1.454936e+003,2.050354e+000
1.455900e+003,-1.722534e+000
1.456864e+003,-3.204346e+000
1.457828e+003,-2.726929e+000
1.458792e+003,-3.148804e+000
1.459757e+003,-5.247253e+000
1.460721e+003,-6.115234e+000
1.461685e+003,-4.304688e+000
1.462649e+003,-2.405884e+000
1.463614e+003,-1.358154e+000
1.464578e+003,-9.408569e-001
1.465542e+003,-1.571655e+000
1.466506e+003,-3.122681e+000
1.467471e+003,-3.323364e+000
1.468435e+003,-6.200562e-001
1.469399e+003,3.042542e+000
1.470363e+003,5.010193e+000
1.471328e+003,5.900330e+000
1.472292e+003,8.051941e+000
1.473256e+003,1.087659e+001
1.474220e+003,1.106281e+001
1.475184e+003,7.354553e+000
1.476149e+003,3.935242e+000
1.477113e+003,5.351563e+000
1.478077e+003,1.008185e+001
1.479041e+003,1.317828e+001
1.480006e+003,1.489209e+001
1.480970e+003,1.553540e+001
1.481934e+003,1.319037e+001
1.482898e+003,1.141882e+001
1.483863e+003,1.216797e+001
1.484827e+003,1.401642e+001
1.485791e+003,1.596240e+001
1.486755e+003,1.803174e+001
1.487719e+003,2.022455e+001
1.488684e+003,2.237500e+001
1.489648e+003,2.508215e+001
1.490612e+003,2.980109e+001
1.491576e+003,3.645978e+001
1.492541e+003,4.119940e+001
1.493505e+003,4.217438e+001
1.494469e+003,4.407825e+001
1.495433e+003,4.674048e+001
1.496398e+003,4.943652e+001
1.497362e+003,5.181879e+001
1.498326e+003,5.542114e+001
1.499290e+003,6.121246e+001
1.500255e+003,6.931390e+001
1.501219e+003,8.024750e+001
1.502183e+003,9.377832e+001
1.503147e+003,1.066292e+002
1.504111e+003,1.149961e+002
1.505076e+003,1.207156e+002
1.506040e+003,1.308264e+002
1.507004e+003,1.457855e+002
1.507968e+003,1.627919e+002
1.508933e+003,1.827194e+002
1.509897e+003,2.035812e+002
1.510861e+003,2.246948e+002
1.511825e+003,2.476697e+002
1.512790e+003,2.740044e+002
1.513754e+003,3.028905e+002
1.514718e+003,3.331263e+002
1.515682e+003,3.641559e+002
1.516646e+003,3.942294e+002
1.517611e+003,4.228534e+002
1.518575e+003,4.492965e+002
1.519539e+003,4.720652e+002
1.520503e+003,4.913400e+002
1.521468e+003,5.052577e+002
1.522432e+003,5.126189e+002
1.523396e+003,5.147442e+002
1.524360e+003,5.129128e+002
1.525325e+003,5.059344e+002
1.526289e+003,4.912211e+002
1.527253e+003,4.697177e+002
1.528217e+003,4.463923e+002
1.529182e+003,4.227574e+002
1.530146e+003,3.974224e+002
1.531110e+003,3.681814e+002
1.532074e+003,3.370533e+002
1.533039e+003,3.061121e+002
1.534003e+003,2.743995e+002
1.534967e+003,2.402827e+002
1.535931e+003,2.046451e+002
1.536896e+003,1.725291e+002
1.537860e+003,1.469311e+002
1.538824e+003,1.266955e+002
1.539788e+003,1.103024e+002
1.540752e+003,9.708197e+001
1.541717e+003,8.480835e+001
1.542681e+003,7.361078e+001
1.543645e+003,6.456573e+001
1.544609e+003,5.905975e+001
1.545573e+003,5.509814e+001
1.546538e+003,5.017871e+001
1.547502e+003,4.655750e+001
1.548466e+003,4.871808e+001
1.549430e+003,5.575311e+001
1.550395e+003,6.241217e+001
1.551359e+003,6.571820e+001
1.552323e+003,6.621545e+001
1.553287e+003,6.470215e+001
1.554252e+003,6.119647e+001
1.555216e+003,5.601941e+001
1.556180e+003,4.786902e+001
1.557144e+003,4.230750e+001
1.558109e+003,4.224988e+001
1.559073e+003,4.189136e+001
1.560037e+003,3.862091e+001
1.561001e+003,3.457385e+001
1.561966e+003,3.137305e+001
1.562930e+003,3.000983e+001
1.563894e+003,3.172742e+001
1.564858e+003,3.605396e+001
1.565823e+003,3.967310e+001
1.566787e+003,3.963684e+001
1.567751e+003,3.734125e+001
1.568715e+003,3.676471e+001
1.569679e+003,3.842676e+001
1.570644e+003,3.996576e+001
1.571608e+003,4.131830e+001
1.572572e+003,4.190479e+001
1.573536e+003,4.106860e+001
1.574500e+003,4.078571e+001
1.575465e+003,4.259680e+001
1.576429e+003,4.530591e+001
1.577393e+003,4.744800e+001
1.578357e+003,4.831653e+001
1.579322e+003,4.686230e+001
1.580286e+003,4.275610e+001
1.581250e+003,3.922998e+001
1.582214e+003,4.079358e+001
1.583179e+003,4.674536e+001
1.584143e+003,5.232635e+001
1.585107e+003,5.821783e+001
1.586071e+003,6.130951e+001
1.587036e+003,6.071649e+001
1.588000e+003,5.988184e+001
1.588964e+003,5.923773e+001
1.589928e+003,5.898846e+001
1.590893e+003,5.955682e+001
1.591857e+003,6.087756e+001
1.592821e+003,6.294287e+001
1.593785e+003,6.562616e+001
1.594750e+003,6.745325e+001
1.595714e+003,6.681592e+001
1.596678e+003,6.478644e+001
1.597642e+003,6.429657e+001
1.598606e+003,6.560150e+001
1.599571e+003,6.692969e+001
1.600535e+003,6.792792e+001
1.601499e+003,7.020605e+001
1.602463e+003,7.544049e+001
1.603427e+003,8.036047e+001
1.604392e+003,8.223224e+001
1.605356e+003,8.246875e+001
1.606320e+003,8.387708e+001
1.607284e+003,8.656268e+001
1.608249e+003,8.837195e+001
1.609213e+003,8.824207e+001
1.610177e+003,8.670447e+001
1.611141e+003,8.386560e+001
1.612106e+003,8.054419e+001
1.613070e+003,7.988635e+001
1.614034e+003,8.189655e+001
1.614998e+003,8.276923e+001
1.615963e+003,8.135382e+001
1.616927e+003,8.035736e+001
1.617891e+003,8.051373e+001
1.618855e+003,8.154138e+001
1.619820e+003,8.363568e+001
1.620784e+003,8.588049e+001
1.621748e+003,8.697351e+001
1.622712e+003,8.723419e+001
1.623677e+003,8.680414e+001
1.624641e+003,8.485602e+001
1.625605e+003,8.405353e+001
1.626569e+003,8.896576e+001
1.627533e+003,9.718915e+001
1.628498e+003,1.006946e+002
1.629462e+003,9.975464e+001
1.630426e+003,9.770178e+001
1.631390e+003,9.431305e+001
1.632354e+003,9.133777e+001
1.633319e+003,8.921234e+001
1.634283e+003,8.808691e+001
1.635247e+003,8.879187e+001
1.636211e+003,9.071100e+001
1.637176e+003,9.182947e+001
1.638140e+003,9.172205e+001
1.639104e+003,9.099408e+001
1.640068e+003,8.942267e+001
1.641033e+003,8.845355e+001
1.641997e+003,9.154065e+001
1.642961e+003,9.765582e+001
1.643925e+003,1.001309e+002
1.644890e+003,9.837750e+001
1.645854e+003,9.624506e+001
1.646818e+003,9.399414e+001
1.647782e+003,9.202484e+001
1.648747e+003,9.059576e+001
1.649711e+003,8.967328e+001
1.650675e+003,8.950769e+001
1.651639e+003,9.017316e+001
1.652604e+003,9.139423e+001
1.653568e+003,9.287378e+001
1.654532e+003,9.281793e+001
1.655496e+003,8.944043e+001
1.656460e+003,8.514563e+001
1.657425e+003,8.484039e+001
1.658389e+003,8.801276e+001
1.659353e+003,8.823883e+001
1.660317e+003,8.438641e+001
1.661281e+003,8.096332e+001
1.662246e+003,7.899390e+001
1.663210e+003,7.786041e+001
1.664174e+003,7.784906e+001
1.665138e+003,7.834467e+001
1.666103e+003,7.830865e+001
1.667067e+003,7.753046e+001
1.668031e+003,7.630658e+001
1.668995e+003,7.486267e+001
1.669960e+003,7.278253e+001
1.670924e+003,6.944818e+001
1.671888e+003,6.616620e+001
1.672852e+003,6.538123e+001
1.673817e+003,6.661334e+001
1.674781e+003,6.576428e+001
1.675745e+003,6.192529e+001
1.676709e+003,5.932330e+001
1.677674e+003,6.018475e+001
1.678638e+003,6.073254e+001
1.679602e+003,5.825092e+001
1.680566e+003,5.469421e+001
1.681531e+003,5.246851e+001
1.682495e+003,5.187445e+001
1.683459e+003,5.269220e+001
1.684423e+003,5.444153e+001
1.685387e+003,5.498395e+001
1.686352e+003,5.277057e+001
1.687316e+003,4.945288e+001
1.688280e+003,4.734711e+001
1.689244e+003,4.631763e+001
1.690208e+003,4.725653e+001
1.691173e+003,5.233142e+001
1.692137e+003,5.306232e+001
1.693101e+003,4.380115e+001
1.694065e+003,3.702539e+001
1.695030e+003,4.042883e+001
1.695994e+003,4.646259e+001
1.696958e+003,4.795709e+001
1.697922e+003,4.554779e+001
1.698887e+003,4.211554e+001
1.699851e+003,3.873090e+001
1.700815e+003,3.572339e+001
1.701779e+003,3.336865e+001
1.702744e+003,3.183826e+001
1.703708e+003,3.141699e+001
1.704672e+003,3.229895e+001
1.705636e+003,3.411664e+001
1.706601e+003,3.756512e+001
1.707565e+003,3.849213e+001
1.708529e+003,3.590509e+001
1.709493e+003,3.299280e+001
1.710458e+003,3.008685e+001
1.711422e+003,2.769391e+001
1.712386e+003,2.699786e+001
1.713350e+003,2.707245e+001
1.714314e+003,2.565704e+001
1.715279e+003,2.248224e+001
1.716243e+003,1.924316e+001
1.717207e+003,1.729333e+001
1.718171e+003,1.733698e+001
1.719135e+003,2.018628e+001
1.720100e+003,2.486029e+001
1.721064e+003,2.688885e+001
1.722028e+003,2.553259e+001
1.722992e+003,2.394910e+001
1.723957e+003,2.243066e+001
1.724921e+003,2.119019e+001
1.725885e+003,1.974127e+001
1.726849e+003,1.777631e+001
1.727814e+003,1.486322e+001
1.728778e+003,1.280286e+001
1.729742e+003,1.382501e+001
1.730706e+003,1.686963e+001
1.731671e+003,1.882538e+001
1.732635e+003,1.828845e+001
1.733599e+003,1.659003e+001
1.734563e+003,1.544574e+001
1.735528e+003,1.537872e+001
1.736492e+003,1.679230e+001
1.737456e+003,1.951245e+001
1.738420e+003,1.961084e+001
1.739385e+003,1.548676e+001
1.740349e+003,1.256799e+001
1.741313e+003,1.351135e+001
1.742277e+003,1.439221e+001
1.743241e+003,1.272888e+001
1.744206e+003,1.095953e+001
1.745170e+003,1.120074e+001
1.746134e+003,1.267828e+001
1.747098e+003,1.399396e+001
1.748063e+003,1.471960e+001
1.749027e+003,1.418768e+001
1.749991e+003,1.173639e+001
1.750955e+003,9.409424e+000
1.751919e+003,9.763977e+000
1.752884e+003,1.161835e+001
1.753848e+003,1.221735e+001
1.754812e+003,1.151672e+001
1.755776e+003,1.064081e+001
1.756741e+003,1.014697e+001
1.757705e+003,9.641785e+000
1.758669e+003,8.442932e+000
1.759633e+003,7.103821e+000
1.760598e+003,6.110901e+000
1.761562e+003,5.433716e+000
1.762526e+003,5.932251e+000
1.763490e+003,7.754639e+000
1.764455e+003,8.469666e+000
1.765419e+003,7.238220e+000
1.766383e+003,6.167297e+000
1.767347e+003,5.200867e+000
1.768312e+003,5.077759e+000
1.769276e+003,7.640381e+000
1.770240e+003,1.084003e+001
1.771204e+003,1.088837e+001
1.772168e+003,8.444458e+000
1.773133e+003,7.053894e+000
1.774097e+003,7.826111e+000
1.775061e+003,9.858521e+000
1.776025e+003,1.254364e+001
1.776990e+003,1.485480e+001
1.777954e+003,1.538885e+001
1.778918e+003,1.480768e+001
1.779882e+003,1.507434e+001
1.780846e+003,1.637274e+001
1.781811e+003,1.593292e+001
1.782775e+003,1.206921e+001
1.783739e+003,9.566895e+000
1.784703e+003,1.142285e+001
1.785668e+003,1.369165e+001
1.786632e+003,1.249054e+001
1.787596e+003,9.507324e+000
1.788560e+003,8.116028e+000
1.789525e+003,8.854797e+000
1.790489e+003,1.026147e+001
1.791453e+003,1.140497e+001
1.792417e+003,1.197467e+001
1.793382e+003,1.148029e+001
1.794346e+003,1.020587e+001
1.795310e+003,9.433838e+000
1.796274e+003,9.349060e+000
1.797239e+003,1.032867e+001
1.798203e+003,1.355841e+001
1.799167e+003,1.564526e+001
1.800131e+003,1.384619e+001
1.801095e+003,1.224213e+001
1.802060e+003,1.433966e+001
1.803024e+003,1.688971e+001
1.803988e+003,1.608777e+001
1.804952e+003,1.359045e+001
1.805917e+003,1.345007e+001
1.806881e+003,1.586133e+001
1.807845e+003,1.726025e+001
1.808809e+003,1.598285e+001
1.809773e+003,1.473059e+001
1.810738e+003,1.677679e+001
1.811702e+003,1.965814e+001
1.812666e+003,1.810492e+001
1.813630e+003,1.368213e+001
1.814595e+003,1.308124e+001
1.815559e+003,1.684930e+001
1.816523e+003,1.974988e+001
1.817487e+003,2.001636e+001
1.818452e+003,1.912640e+001
1.819416e+003,1.799457e+001
1.820380e+003,1.697717e+001
1.821344e+003,1.660034e+001
1.822309e+003,1.645251e+001
1.823273e+003,1.491644e+001
1.824237e+003,1.141577e+001
1.825201e+003,1.039240e+001
1.826166e+003,1.483118e+001
1.827130e+003,1.804889e+001
1.828094e+003,1.620660e+001
1.829058e+003,1.316846e+001
1.830022e+003,1.227466e+001
1.830987e+003,1.283728e+001
1.831951e+003,1.326202e+001
1.832915e+003,1.338708e+001
1.833879e+003,1.405798e+001
1.834844e+003,1.559851e+001
1.835808e+003,1.714948e+001
1.836772e+003,1.780896e+001
1.837736e+003,1.787878e+001
1.838700e+003,1.803320e+001
1.839665e+003,1.809729e+001
1.840629e+003,1.739349e+001
1.841593e+003,1.519000e+001
1.842557e+003,1.587830e+001
1.843522e+003,2.260095e+001
1.844486e+003,2.731238e+001
1.845450e+003,2.620435e+001
1.846414e+003,2.369891e+001
1.847379e+003,2.055927e+001
1.848343e+003,1.769275e+001
1.849307e+003,1.744690e+001
1.850271e+003,1.960718e+001
1.851236e+003,2.113287e+001
1.852200e+003,2.109613e+001
1.853164e+003,2.130908e+001
1.854128e+003,2.307318e+001
1.855093e+003,2.418079e+001
1.856057e+003,2.249579e+001
1.857021e+003,1.955585e+001
1.857985e+003,1.729352e+001
1.858949e+003,1.584766e+001
1.859914e+003,1.534381e+001
1.860878e+003,1.586670e+001
1.861842e+003,1.732233e+001
1.862806e+003,1.960193e+001
1.863771e+003,2.132611e+001
1.864735e+003,2.091754e+001
1.865699e+003,1.911816e+001
1.866663e+003,1.823145e+001
1.867627e+003,1.869965e+001
1.868592e+003,2.093317e+001
1.869556e+003,2.658783e+001
1.870520e+003,2.932190e+001
1.871484e+003,2.806085e+001
1.872449e+003,2.574896e+001
1.873413e+003,2.315100e+001
1.874377e+003,2.174628e+001
1.875341e+003,2.204034e+001
1.876306e+003,2.292877e+001
1.877270e+003,2.338257e+001
1.878234e+003,2.319293e+001
1.879198e+003,2.249597e+001
1.880163e+003,2.153156e+001
1.881127e+003,2.093646e+001
1.882091e+003,2.118304e+001
1.883055e+003,2.228113e+001
1.884020e+003,2.467438e+001
1.884984e+003,2.769568e+001
1.885948e+003,2.908795e+001
1.886912e+003,2.889636e+001
1.887876e+003,2.853784e+001
1.888841e+003,2.827820e+001
1.889805e+003,2.854114e+001
1.890769e+003,2.974152e+001
1.891733e+003,3.057629e+001
1.892698e+003,2.925000e+001
1.893662e+003,2.690472e+001
1.894626e+003,2.674536e+001
1.895590e+003,2.901056e+001
1.896554e+003,3.118298e+001
1.897519e+003,3.407397e+001
1.898483e+003,3.541437e+001
1.899447e+003,3.278528e+001
1.900411e+003,3.054608e+001
1.901376e+003,3.029663e+001
1.902340e+003,3.123633e+001
1.903304e+003,3.361841e+001
1.904268e+003,3.603925e+001
1.905233e+003,3.680762e+001
1.906197e+003,3.626093e+001
1.907161e+003,3.560193e+001
1.908125e+003,3.532599e+001
1.909090e+003,3.535651e+001
1.910054e+003,3.539447e+001
1.911018e+003,3.552063e+001
1.911982e+003,3.677228e+001
1.912947e+003,3.871057e+001
1.913911e+003,3.870044e+001
1.914875e+003,3.693158e+001
1.915839e+003,3.587695e+001
1.916803e+003,3.552405e+001
1.917768e+003,3.627045e+001
1.918732e+003,3.906250e+001
1.919696e+003,4.065710e+001
1.920660e+003,3.775385e+001
1.921625e+003,3.452777e+001
1.922589e+003,3.736438e+001
1.923553e+003,4.439722e+001
1.924517e+003,4.786127e+001
1.925481e+003,4.757983e+001
1.926446e+003,4.692432e+001
1.927410e+003,4.508154e+001
1.928374e+003,4.419293e+001
1.929338e+003,4.587848e+001
1.930303e+003,4.672040e+001
1.931267e+003,4.426648e+001
1.932231e+003,4.164435e+001
1.933195e+003,4.191888e+001
1.934160e+003,4.361163e+001
1.935124e+003,4.365210e+001
1.936088e+003,4.179950e+001
1.937052e+003,4.027130e+001
1.938017e+003,4.043121e+001
1.938981e+003,4.174500e+001
1.939945e+003,4.362878e+001
1.940909e+003,4.525891e+001
1.941874e+003,4.540692e+001
1.942838e+003,4.427399e+001
1.943802e+003,4.251849e+001
1.944766e+003,4.073383e+001
1.945730e+003,4.082483e+001
1.946695e+003,4.288776e+001
1.947659e+003,4.582715e+001
1.948623e+003,4.953796e+001
1.949587e+003,5.122491e+001
1.950552e+003,4.788348e+001
1.951516e+003,4.302173e+001
1.952480e+003,4.319531e+001
1.953444e+003,4.780328e+001
1.954408e+003,5.027332e+001
1.955373e+003,4.977649e+001
1.956337e+003,4.834027e+001
1.957301e+003,4.508716e+001
1.958265e+003,4.354028e+001
1.959230e+003,4.561383e+001
1.960194e+003,4.800616e+001
1.961158e+003,4.822656e+001
1.962122e+003,4.773328e+001
1.963087e+003,4.900073e+001
1.964051e+003,5.097675e+001
1.965015e+003,5.037866e+001
1.965979e+003,4.756024e+001
1.966944e+003,4.699084e+001
1.967908e+003,5.033948e+001
1.968872e+003,5.504053e+001
1.969836e+003,6.120996e+001
1.970801e+003,6.601624e+001
1.971765e+003,6.586340e+001
1.972729e+003,6.297809e+001
1.973693e+003,5.999756e+001
1.974657e+003,5.764337e+001
1.975622e+003,5.731244e+001
1.976586e+003,5.883606e+001
1.977550e+003,6.030652e+001
1.978514e+003,6.094147e+001
1.979479e+003,6.163116e+001
1.980443e+003,6.319983e+001
1.981407e+003,6.428479e+001
1.982371e+003,6.203943e+001
1.983335e+003,5.735675e+001
1.984300e+003,5.615863e+001
1.985264e+003,5.877002e+001
1.986228e+003,6.025366e+001
1.987192e+003,5.980310e+001
1.988157e+003,6.026477e+001
1.989121e+003,6.306470e+001
1.990085e+003,6.583856e+001
1.991049e+003,6.755963e+001
1.992014e+003,6.853156e+001
1.992978e+003,6.900403e+001
1.993942e+003,6.860663e+001
1.994906e+003,6.613104e+001
1.995871e+003,6.167798e+001
1.996835e+003,5.998822e+001
1.997799e+003,6.335693e+001
1.998763e+003,6.588477e+001
1.999728e+003,6.478992e+001
