5.003444e+002,2.701375e+002
5.013087e+002,2.690046e+002
5.022729e+002,2.661643e+002
5.032371e+002,2.625515e+002
5.042014e+002,2.585814e+002
5.051656e+002,2.545094e+002
5.061298e+002,2.507742e+002
5.070941e+002,2.476042e+002
5.080583e+002,2.446884e+002
5.090225e+002,2.418097e+002
5.099868e+002,2.380684e+002
5.109510e+002,2.351497e+002
5.119152e+002,2.343253e+002
5.128795e+002,2.358312e+002
5.138437e+002,2.372634e+002
5.148079e+002,2.388357e+002
5.157722e+002,2.396268e+002
5.167364e+002,2.386221e+002
5.177006e+002,2.357207e+002
5.186649e+002,2.318612e+002
5.196291e+002,2.290725e+002
5.205933e+002,2.267845e+002
5.215576e+002,2.222467e+002
5.225218e+002,2.151627e+002
5.234860e+002,2.079213e+002
5.244503e+002,2.057278e+002
5.254145e+002,2.117969e+002
5.263787e+002,2.136631e+002
5.273430e+002,2.084802e+002
5.283072e+002,2.010459e+002
5.292714e+002,1.978721e+002
5.302357e+002,2.004387e+002
5.311999e+002,2.020884e+002
5.321641e+002,2.040090e+002
5.331284e+002,2.051570e+002
5.340926e+002,2.040343e+002
5.350568e+002,1.995978e+002
5.360211e+002,1.936357e+002
5.369853e+002,1.877184e+002
5.379495e+002,1.827404e+002
5.389138e+002,1.791667e+002
5.398780e+002,1.770885e+002
5.408422e+002,1.763809e+002
5.418065e+002,1.777867e+002
5.427707e+002,1.808956e+002
5.437349e+002,1.829274e+002
5.446992e+002,1.832052e+002
5.456634e+002,1.816454e+002
5.466276e+002,1.781370e+002
5.475919e+002,1.690465e+002
5.485561e+002,1.632510e+002
5.495203e+002,1.624227e+002
5.504846e+002,1.640156e+002
5.514488e+002,1.647882e+002
5.524130e+002,1.640559e+002
5.533773e+002,1.625553e+002
5.543415e+002,1.607484e+002
5.553057e+002,1.586177e+002
5.562700e+002,1.556469e+002
5.572342e+002,1.514468e+002
5.581984e+002,1.469854e+002
5.591627e+002,1.454506e+002
5.601269e+002,1.462169e+002
5.610911e+002,1.476019e+002
5.620554e+002,1.486405e+002
5.630196e+002,1.489293e+002
5.639838e+002,1.471564e+002
5.649481e+002,1.418651e+002
5.659123e+002,1.367515e+002
5.668765e+002,1.325286e+002
5.678408e+002,1.298232e+002
5.688050e+002,1.295452e+002
5.697692e+002,1.334332e+002
5.707335e+002,1.355132e+002
5.716977e+002,1.332588e+002
5.726619e+002,1.290286e+002
5.736262e+002,1.262228e+002
5.745904e+002,1.274980e+002
5.755546e+002,1.301302e+002
5.765189e+002,1.286150e+002
5.774831e+002,1.242772e+002
5.784473e+002,1.201816e+002
5.794116e+002,1.187126e+002
5.803758e+002,1.200906e+002
5.813400e+002,1.214629e+002
5.823043e+002,1.221262e+002
5.832685e+002,1.219534e+002
5.842327e+002,1.214646e+002
5.851970e+002,1.210820e+002
5.861612e+002,1.206001e+002
5.871254e+002,1.180151e+002
5.880897e+002,1.165807e+002
5.890539e+002,1.175782e+002
5.900181e+002,1.196272e+002
5.909824e+002,1.206400e+002
5.919466e+002,1.194088e+002
5.929108e+002,1.171547e+002
5.938751e+002,1.152584e+002
5.948393e+002,1.134796e+002
5.958035e+002,1.112267e+002
5.967678e+002,1.081942e+002
5.977320e+002,1.050861e+002
5.986962e+002,1.062656e+002
5.996605e+002,1.110867e+002
6.006247e+002,1.145538e+002
6.015889e+002,1.139546e+002
6.025532e+002,1.096720e+002
6.035174e+002,1.062966e+002
6.044816e+002,1.044846e+002
6.054459e+002,1.032664e+002
6.064101e+002,1.024755e+002
6.073743e+002,1.021355e+002
6.083386e+002,1.027476e+002
6.093028e+002,1.057159e+002
6.102670e+002,1.076310e+002
6.112313e+002,1.044846e+002
6.121955e+002,9.922681e+001
6.131597e+002,9.582239e+001
6.141240e+002,9.693433e+001
6.150882e+002,1.012018e+002
6.160524e+002,1.034152e+002
6.170167e+002,1.042618e+002
6.179809e+002,1.051123e+002
6.189451e+002,1.064771e+002
6.199094e+002,1.077836e+002
6.208736e+002,1.071259e+002
6.218378e+002,1.027200e+002
6.228021e+002,9.973022e+001
6.237663e+002,9.931750e+001
6.247305e+002,1.006295e+002
6.256948e+002,1.022438e+002
6.266590e+002,1.037285e+002
6.276232e+002,1.033619e+002
6.285875e+002,9.917175e+001
6.295517e+002,9.455298e+001
6.305159e+002,9.348438e+001
6.314802e+002,9.773096e+001
6.324444e+002,1.041414e+002
6.334086e+002,1.046586e+002
6.343729e+002,1.014333e+002
6.353371e+002,9.741797e+001
6.363013e+002,9.310010e+001
6.372656e+002,8.885730e+001
6.382298e+002,8.667578e+001
6.391940e+002,8.942725e+001
6.401583e+002,9.000366e+001
6.411225e+002,8.716211e+001
6.420867e+002,8.407227e+001
6.430510e+002,8.475403e+001
6.440152e+002,9.129846e+001
6.449794e+002,9.543274e+001
6.459437e+002,9.166577e+001
6.469079e+002,8.526489e+001
6.478721e+002,7.980444e+001
6.488364e+002,7.697339e+001
6.498006e+002,7.637793e+001
6.507648e+002,7.759436e+001
6.517291e+002,8.000598e+001
6.526933e+002,8.327734e+001
6.536575e+002,8.745752e+001
6.546218e+002,9.090088e+001
6.555860e+002,9.025208e+001
6.565502e+002,8.186035e+001
6.575145e+002,7.703674e+001
6.584787e+002,7.837805e+001
6.594429e+002,8.081104e+001
6.604072e+002,7.989758e+001
6.613714e+002,7.463574e+001
6.623356e+002,7.057166e+001
6.632999e+002,6.968140e+001
6.642641e+002,7.030518e+001
6.652283e+002,7.403687e+001
6.661926e+002,7.979004e+001
6.671568e+002,8.368152e+001
6.681210e+002,7.934766e+001
6.690853e+002,7.037817e+001
6.700495e+002,6.730286e+001
6.710137e+002,7.016333e+001
6.719780e+002,7.568176e+001
6.729422e+002,8.065637e+001
6.739064e+002,8.526025e+001
6.748707e+002,8.602991e+001
6.758349e+002,7.995593e+001
6.767991e+002,7.441187e+001
6.777634e+002,7.356104e+001
6.787276e+002,7.723999e+001
6.796918e+002,8.073987e+001
6.806561e+002,8.178674e+001
6.816203e+002,8.156055e+001
6.825845e+002,7.981104e+001
6.835488e+002,7.733240e+001
6.845130e+002,7.514099e+001
6.854772e+002,7.403479e+001
6.864415e+002,7.455237e+001
6.874057e+002,7.762585e+001
6.883699e+002,8.156750e+001
6.893342e+002,8.346057e+001
6.902984e+002,8.174377e+001
6.912626e+002,7.717346e+001
6.922269e+002,7.360022e+001
6.931911e+002,7.185059e+001
6.941553e+002,7.195679e+001
6.951196e+002,7.373401e+001
6.960838e+002,7.631189e+001
6.970480e+002,7.919336e+001
6.980123e+002,8.340027e+001
6.989765e+002,8.575464e+001
6.999407e+002,8.395239e+001
7.009050e+002,8.080359e+001
7.018692e+002,7.832678e+001
7.028334e+002,7.720105e+001
7.037977e+002,7.660193e+001
7.047619e+002,7.568127e+001
7.057261e+002,7.506299e+001
7.066904e+002,7.493115e+001
7.076546e+002,7.527783e+001
7.086188e+002,7.626355e+001
7.095831e+002,7.829102e+001
7.105473e+002,8.201868e+001
7.115115e+002,8.324463e+001
7.124758e+002,8.025586e+001
7.134400e+002,7.661316e+001
7.144042e+002,7.485669e+001
7.153685e+002,7.528516e+001
7.163327e+002,7.550244e+001
7.172969e+002,7.356494e+001
7.182612e+002,7.218323e+001
7.192254e+002,7.280383e+001
7.201896e+002,7.452405e+001
7.211539e+002,7.545337e+001
7.221181e+002,7.397473e+001
7.230823e+002,7.128357e+001
7.240466e+002,7.098950e+001
7.250108e+002,7.301001e+001
7.259750e+002,7.501514e+001
7.269393e+002,7.499561e+001
7.279035e+002,7.262061e+001
7.288677e+002,7.073889e+001
7.298320e+002,7.125098e+001
7.307962e+002,7.264075e+001
7.317604e+002,7.559119e+001
7.327247e+002,7.923840e+001
7.336889e+002,8.191772e+001
7.346531e+002,8.218176e+001
7.356174e+002,8.069189e+001
7.365816e+002,7.880457e+001
7.375458e+002,7.725012e+001
7.385101e+002,7.665759e+001
7.394743e+002,7.702429e+001
7.404385e+002,7.749915e+001
7.414028e+002,7.615088e+001
7.423670e+002,7.248230e+001
7.433312e+002,7.063660e+001
7.442955e+002,7.201953e+001
7.452597e+002,7.485986e+001
7.462239e+002,7.665588e+001
7.471882e+002,7.675305e+001
7.481524e+002,7.721082e+001
7.491166e+002,7.595886e+001
7.500809e+002,7.542371e+001
7.510451e+002,7.794202e+001
7.520093e+002,8.225781e+001
7.529736e+002,8.389673e+001
7.539378e+002,7.996582e+001
7.549020e+002,7.569702e+001
7.558663e+002,7.446143e+001
7.568306e+002,7.484961e+001
7.577948e+002,7.435120e+001
7.587590e+002,7.136963e+001
7.597233e+002,6.697168e+001
7.606875e+002,6.604407e+001
7.616517e+002,6.861792e+001
7.626160e+002,7.193323e+001
7.635802e+002,7.583887e+001
7.645444e+002,7.989587e+001
7.655087e+002,8.282678e+001
7.664729e+002,8.348425e+001
7.674371e+002,8.507556e+001
7.684014e+002,8.907434e+001
7.693656e+002,9.264050e+001
7.703298e+002,9.381458e+001
7.712941e+002,9.259412e+001
7.722583e+002,9.108679e+001
7.732225e+002,9.110620e+001
7.741868e+002,9.100366e+001
7.751510e+002,8.848425e+001
7.761152e+002,8.475476e+001
7.770795e+002,8.278931e+001
7.780437e+002,8.516223e+001
7.790079e+002,9.098218e+001
7.799722e+002,9.416016e+001
7.809364e+002,9.475269e+001
7.819006e+002,9.450977e+001
7.828649e+002,9.432422e+001
7.838291e+002,9.446680e+001
7.847933e+002,9.468066e+001
7.857576e+002,9.372363e+001
7.867218e+002,9.301794e+001
7.876860e+002,9.529236e+001
7.886503e+002,9.741785e+001
7.896145e+002,9.566858e+001
7.905787e+002,8.946741e+001
7.915430e+002,8.380066e+001
7.925072e+002,8.416199e+001
7.934714e+002,8.698914e+001
7.944357e+002,9.015820e+001
7.953999e+002,9.340271e+001
7.963641e+002,9.593481e+001
7.973284e+002,9.655322e+001
7.982926e+002,9.511292e+001
7.992568e+002,9.460718e+001
8.002211e+002,9.428711e+001
8.011853e+002,9.296118e+001
8.021495e+002,9.156628e+001
8.031138e+002,9.070435e+001
8.040780e+002,8.916553e+001
8.050422e+002,8.362622e+001
8.060065e+002,8.084766e+001
8.069707e+002,8.505359e+001
8.079349e+002,9.063232e+001
8.088992e+002,9.149451e+001
8.098634e+002,8.620313e+001
8.108276e+002,8.051379e+001
8.117919e+002,8.345789e+001
8.127561e+002,9.008472e+001
8.137203e+002,9.235645e+001
8.146846e+002,9.007031e+001
8.156488e+002,8.640027e+001
8.166130e+002,8.462097e+001
8.175773e+002,8.469617e+001
8.185415e+002,8.583862e+001
8.195057e+002,8.861108e+001
8.204700e+002,9.034619e+001
8.214342e+002,8.931860e+001
8.223984e+002,8.661157e+001
8.233627e+002,8.511890e+001
8.243269e+002,8.618555e+001
8.252911e+002,8.857568e+001
8.262554e+002,9.239880e+001
8.272196e+002,9.616675e+001
8.281838e+002,9.806689e+001
8.291481e+002,9.755664e+001
8.301123e+002,9.578967e+001
8.310765e+002,9.474341e+001
8.320408e+002,9.417908e+001
8.330050e+002,9.309814e+001
8.339692e+002,9.139697e+001
8.349335e+002,8.991675e+001
8.358977e+002,8.995349e+001
8.368619e+002,9.216602e+001
8.378262e+002,9.383154e+001
8.387904e+002,9.327869e+001
8.397546e+002,9.293555e+001
8.407189e+002,9.394946e+001
8.416831e+002,9.557190e+001
8.426473e+002,9.601819e+001
8.436116e+002,9.409863e+001
8.445758e+002,9.310583e+001
8.455400e+002,9.731714e+001
8.465043e+002,1.025898e+002
8.474685e+002,1.046708e+002
8.484327e+002,1.031470e+002
8.493970e+002,1.010745e+002
8.503612e+002,1.028323e+002
8.513254e+002,1.090077e+002
8.522897e+002,1.126758e+002
8.532539e+002,1.123748e+002
8.542181e+002,1.109834e+002
8.551824e+002,1.107683e+002
8.561466e+002,1.122292e+002
8.571108e+002,1.140920e+002
8.580751e+002,1.140364e+002
8.590393e+002,1.138033e+002
8.600035e+002,1.139578e+002
8.609678e+002,1.153629e+002
8.619320e+002,1.197819e+002
8.628962e+002,1.274539e+002
8.638605e+002,1.346130e+002
8.648247e+002,1.336215e+002
8.657889e+002,1.283958e+002
8.667532e+002,1.282695e+002
8.677174e+002,1.344319e+002
8.686816e+002,1.421390e+002
8.696459e+002,1.460623e+002
8.706101e+002,1.458893e+002
8.715743e+002,1.467457e+002
8.725386e+002,1.493693e+002
8.735028e+002,1.521133e+002
8.744670e+002,1.539695e+002
8.754313e+002,1.548588e+002
8.763955e+002,1.552332e+002
8.773597e+002,1.554045e+002
8.783240e+002,1.558628e+002
8.792882e+002,1.567657e+002
8.802524e+002,1.576216e+002
8.812167e+002,1.580236e+002
8.821809e+002,1.580007e+002
8.831451e+002,1.580605e+002
8.841094e+002,1.589902e+002
8.850736e+002,1.612443e+002
8.860378e+002,1.637528e+002
8.870021e+002,1.662744e+002
8.879663e+002,1.684581e+002
8.889305e+002,1.694419e+002
8.898948e+002,1.693917e+002
8.908590e+002,1.702249e+002
8.918232e+002,1.728207e+002
8.927875e+002,1.763754e+002
8.937517e+002,1.826423e+002
8.947159e+002,1.883636e+002
8.956802e+002,1.893910e+002
8.966444e+002,1.851902e+002
8.976086e+002,1.803496e+002
8.985729e+002,1.801775e+002
8.995371e+002,1.832349e+002
9.005013e+002,1.860380e+002
9.014656e+002,1.888496e+002
9.024298e+002,1.923943e+002
9.033940e+002,1.969362e+002
9.043583e+002,2.016747e+002
9.053225e+002,2.044279e+002
9.062867e+002,2.015488e+002
9.072510e+002,2.004634e+002
9.082152e+002,2.045913e+002
9.091794e+002,2.098989e+002
9.101437e+002,2.119177e+002
9.111079e+002,2.098452e+002
9.120721e+002,2.073789e+002
9.130364e+002,2.056508e+002
9.140006e+002,2.038411e+002
9.149648e+002,2.015610e+002
9.159291e+002,1.997635e+002
9.168933e+002,2.000388e+002
9.178575e+002,2.031322e+002
9.188218e+002,2.074070e+002
9.197860e+002,2.082476e+002
9.207502e+002,2.054070e+002
9.217145e+002,2.007623e+002
9.226787e+002,1.940054e+002
9.236429e+002,1.877233e+002
9.246072e+002,1.852141e+002
9.255714e+002,1.867450e+002
9.265356e+002,1.879485e+002
9.274999e+002,1.888605e+002
9.284641e+002,1.879489e+002
9.294283e+002,1.834406e+002
9.303926e+002,1.774878e+002
9.313568e+002,1.737500e+002
9.323210e+002,1.741594e+002
9.332853e+002,1.759911e+002
9.342495e+002,1.750808e+002
9.352137e+002,1.724236e+002
9.361780e+002,1.696304e+002
9.371422e+002,1.675682e+002
9.381064e+002,1.666880e+002
9.390707e+002,1.671437e+002
9.400349e+002,1.686356e+002
9.409991e+002,1.687084e+002
9.419634e+002,1.665956e+002
9.429276e+002,1.639413e+002
9.438918e+002,1.612455e+002
9.448561e+002,1.585051e+002
9.458203e+002,1.550385e+002
9.467845e+002,1.502275e+002
9.477488e+002,1.479285e+002
9.487130e+002,1.534843e+002
9.496772e+002,1.606779e+002
9.506415e+002,1.650532e+002
9.516057e+002,1.661046e+002
9.525699e+002,1.653622e+002
9.535342e+002,1.642510e+002
9.544984e+002,1.624077e+002
9.554626e+002,1.581014e+002
9.564269e+002,1.506998e+002
9.573911e+002,1.478125e+002
9.583553e+002,1.550192e+002
9.593196e+002,1.659833e+002
9.602838e+002,1.696553e+002
9.612480e+002,1.633774e+002
9.622123e+002,1.583175e+002
9.631765e+002,1.603268e+002
9.641407e+002,1.620876e+002
9.651050e+002,1.590105e+002
9.660692e+002,1.526099e+002
9.670334e+002,1.471011e+002
9.679977e+002,1.454464e+002
9.689619e+002,1.468259e+002
9.699261e+002,1.482404e+002
9.708904e+002,1.497046e+002
9.718546e+002,1.537621e+002
9.728188e+002,1.611460e+002
9.737831e+002,1.693807e+002
9.747473e+002,1.752208e+002
9.757115e+002,1.781611e+002
9.766758e+002,1.827045e+002
9.776400e+002,1.937219e+002
9.786042e+002,2.014893e+002
9.795685e+002,2.032401e+002
9.805327e+002,1.996416e+002
9.814969e+002,1.911796e+002
9.824612e+002,1.783936e+002
9.834254e+002,1.657697e+002
9.843896e+002,1.566566e+002
9.853539e+002,1.495994e+002
9.863181e+002,1.433368e+002
9.872823e+002,1.375192e+002
9.882466e+002,1.329344e+002
9.892108e+002,1.309496e+002
9.901750e+002,1.319919e+002
9.911393e+002,1.328589e+002
9.921035e+002,1.297008e+002
9.930677e+002,1.292950e+002
9.940320e+002,1.341486e+002
9.949962e+002,1.413778e+002
9.959604e+002,1.490391e+002
9.969247e+002,1.569308e+002
9.978889e+002,1.637166e+002
9.988531e+002,1.671215e+002
9.998174e+002,1.691510e+002
1.000782e+003,1.714563e+002
1.001746e+003,1.742573e+002
1.002710e+003,1.780282e+002
1.003674e+003,1.825450e+002
1.004639e+003,1.859165e+002
1.005603e+003,1.844841e+002
1.006567e+003,1.774429e+002
1.007531e+003,1.740912e+002
1.008495e+003,1.760664e+002
1.009460e+003,1.784376e+002
1.010424e+003,1.783362e+002
1.011388e+003,1.764999e+002
1.012352e+003,1.753505e+002
1.013317e+003,1.752411e+002
1.014281e+003,1.748577e+002
1.015245e+003,1.752852e+002
1.016209e+003,1.735981e+002
1.017174e+003,1.668118e+002
1.018138e+003,1.558187e+002
1.019102e+003,1.443639e+002
1.020066e+003,1.355565e+002
1.021031e+003,1.291277e+002
1.021995e+003,1.234536e+002
1.022959e+003,1.177953e+002
1.023923e+003,1.118688e+002
1.024887e+003,1.054321e+002
1.025852e+003,9.866235e+001
1.026816e+003,9.162793e+001
1.027780e+003,8.417065e+001
1.028744e+003,7.965320e+001
1.029709e+003,8.039941e+001
1.030673e+003,8.136377e+001
1.031637e+003,8.133215e+001
1.032601e+003,8.014026e+001
1.033566e+003,7.750354e+001
1.034530e+003,7.359497e+001
1.035494e+003,7.059216e+001
1.036458e+003,7.152600e+001
1.037422e+003,7.403992e+001
1.038387e+003,7.369031e+001
1.039351e+003,7.061890e+001
1.040315e+003,6.881641e+001
1.041279e+003,7.175232e+001
1.042244e+003,7.842737e+001
1.043208e+003,8.265759e+001
1.044172e+003,8.275061e+001
1.045136e+003,8.163477e+001
1.046101e+003,7.839380e+001
1.047065e+003,7.563672e+001
1.048029e+003,7.535999e+001
1.048993e+003,7.685327e+001
1.049958e+003,7.738208e+001
1.050922e+003,7.532214e+001
1.051886e+003,7.400049e+001
1.052850e+003,7.784216e+001
1.053814e+003,8.364941e+001
1.054779e+003,8.748035e+001
1.055743e+003,8.831628e+001
1.056707e+003,8.728711e+001
1.057671e+003,8.575842e+001
1.058636e+003,8.359900e+001
1.059600e+003,8.066345e+001
1.060564e+003,7.517224e+001
1.061528e+003,7.302783e+001
1.062493e+003,7.661475e+001
1.063457e+003,8.172363e+001
1.064421e+003,8.454529e+001
1.065385e+003,8.484729e+001
1.066349e+003,8.341162e+001
1.067314e+003,7.881567e+001
1.068278e+003,7.482556e+001
1.069242e+003,7.500085e+001
1.070206e+003,7.751880e+001
1.071171e+003,7.893164e+001
1.072135e+003,7.766296e+001
1.073099e+003,7.519666e+001
1.074063e+003,7.447070e+001
1.075028e+003,7.584497e+001
1.075992e+003,7.849829e+001
1.076956e+003,8.456042e+001
1.077920e+003,8.733215e+001
1.078885e+003,8.297839e+001
1.079849e+003,7.509985e+001
1.080813e+003,6.972266e+001
1.081777e+003,6.792224e+001
1.082741e+003,6.764746e+001
1.083706e+003,6.727197e+001
1.084670e+003,6.755176e+001
1.085634e+003,7.038696e+001
1.086598e+003,7.401208e+001
1.087563e+003,7.485083e+001
1.088527e+003,7.141150e+001
1.089491e+003,6.677100e+001
1.090455e+003,6.618604e+001
1.091420e+003,6.972375e+001
1.092384e+003,7.255505e+001
1.093348e+003,7.497766e+001
1.094312e+003,7.536157e+001
1.095276e+003,7.150989e+001
1.096241e+003,6.565625e+001
1.097205e+003,6.414465e+001
1.098169e+003,6.912451e+001
1.099133e+003,7.287939e+001
1.100098e+003,7.183374e+001
1.101062e+003,6.995361e+001
1.102026e+003,6.931726e+001
1.102990e+003,7.006152e+001
1.103955e+003,7.156042e+001
1.104919e+003,7.329907e+001
1.105883e+003,7.498169e+001
1.106847e+003,7.640076e+001
1.107812e+003,7.741443e+001
1.108776e+003,7.763062e+001
1.109740e+003,7.673682e+001
1.110704e+003,7.568408e+001
1.111668e+003,7.529358e+001
1.112633e+003,7.599292e+001
1.113597e+003,7.839050e+001
1.114561e+003,8.361694e+001
1.115525e+003,8.670190e+001
1.116490e+003,8.375098e+001
1.117454e+003,8.054016e+001
1.118418e+003,8.130176e+001
1.119382e+003,8.575403e+001
1.120347e+003,9.143347e+001
1.121311e+003,9.634229e+001
1.122275e+003,9.954443e+001
1.123239e+003,1.006395e+002
1.124203e+003,1.003937e+002
1.125168e+003,9.913489e+001
1.126132e+003,9.634729e+001
1.127096e+003,9.444025e+001
1.128060e+003,9.455981e+001
1.129025e+003,9.653967e+001
1.129989e+003,1.011472e+002
1.130953e+003,1.102811e+002
1.131917e+003,1.171284e+002
1.132882e+003,1.185859e+002
1.133846e+003,1.193444e+002
1.134810e+003,1.224146e+002
1.135774e+003,1.272946e+002
1.136739e+003,1.311938e+002
1.137703e+003,1.325746e+002
1.138667e+003,1.345339e+002
1.139631e+003,1.434255e+002
1.140595e+003,1.583998e+002
1.141560e+003,1.713453e+002
1.142524e+003,1.813438e+002
1.143488e+003,1.931490e+002
1.144452e+003,2.101152e+002
1.145417e+003,2.312338e+002
1.146381e+003,2.527919e+002
1.147345e+003,2.740367e+002
1.148309e+003,2.969677e+002
1.149274e+003,3.241138e+002
1.150238e+003,3.514843e+002
1.151202e+003,3.771724e+002
1.152166e+003,4.021349e+002
1.153130e+003,4.291003e+002
1.154095e+003,4.583928e+002
1.155059e+003,4.848793e+002
1.156023e+003,5.030162e+002
1.156987e+003,5.120435e+002
1.157952e+003,5.106126e+002
1.158916e+003,4.989068e+002
1.159880e+003,4.832330e+002
1.160844e+003,4.655579e+002
1.161809e+003,4.443731e+002
1.162773e+003,4.173494e+002
1.163737e+003,3.830651e+002
1.164701e+003,3.497054e+002
1.165666e+003,3.189976e+002
1.166630e+003,2.908992e+002
1.167594e+003,2.632449e+002
1.168558e+003,2.390197e+002
1.169522e+003,2.228297e+002
1.170487e+003,2.156140e+002
1.171451e+003,2.141374e+002
1.172415e+003,2.152619e+002
1.173379e+003,2.180576e+002
1.174344e+003,2.188688e+002
1.175308e+003,2.181288e+002
1.176272e+003,2.153439e+002
1.177236e+003,2.094786e+002
1.178201e+003,2.025702e+002
1.179165e+003,1.973574e+002
1.180129e+003,1.934225e+002
1.181093e+003,1.864174e+002
1.182057e+003,1.728642e+002
1.183022e+003,1.606368e+002
1.183986e+003,1.513652e+002
1.184950e+003,1.455261e+002
1.185914e+003,1.450612e+002
1.186879e+003,1.489438e+002
1.187843e+003,1.529844e+002
1.188807e+003,1.535435e+002
1.189771e+003,1.522574e+002
1.190736e+003,1.555474e+002
1.191700e+003,1.641975e+002
1.192664e+003,1.679660e+002
1.193628e+003,1.641234e+002
1.194593e+003,1.584381e+002
1.195557e+003,1.547443e+002
1.196521e+003,1.523023e+002
1.197485e+003,1.486437e+002
1.198449e+003,1.430276e+002
1.199414e+003,1.377818e+002
1.200378e+003,1.361047e+002
1.201342e+003,1.333152e+002
1.202306e+003,1.243951e+002
1.203271e+003,1.119083e+002
1.204235e+003,1.017026e+002
1.205199e+003,9.675244e+001
1.206163e+003,9.510345e+001
1.207128e+003,9.371161e+001
1.208092e+003,9.276501e+001
1.209056e+003,8.688208e+001
1.210020e+003,7.290021e+001
1.210984e+003,6.126349e+001
1.211949e+003,5.699097e+001
1.212913e+003,5.509656e+001
1.213877e+003,4.844525e+001
1.214841e+003,3.694165e+001
1.215806e+003,2.862048e+001
1.216770e+003,2.819550e+001
1.217734e+003,2.894513e+001
1.218698e+003,2.572717e+001
1.219663e+003,2.059644e+001
1.220627e+003,1.549799e+001
1.221591e+003,1.132080e+001
1.222555e+003,9.195923e+000
1.223520e+003,1.040167e+001
1.224484e+003,1.398590e+001
1.225448e+003,1.427417e+001
1.226412e+003,8.885742e+000
1.227376e+003,5.090576e+000
1.228341e+003,3.150146e+000
1.229305e+003,2.050598e+000
1.230269e+003,1.984558e+000
1.231233e+003,2.113220e+000
1.232198e+003,6.464233e-001
1.233162e+003,-2.756409e+000
1.234126e+003,-5.173096e+000
1.235090e+003,-4.408081e+000
1.236055e+003,-2.395996e+000
1.237019e+003,-6.909790e-001
1.237983e+003,3.557739e-001
1.238947e+003,3.655396e-001
1.239911e+003,-5.431519e-001
1.240876e+003,-1.593079e+000
1.241840e+003,-1.934021e+000
1.242804e+003,-1.512390e+000
1.243768e+003,-8.273315e-001
1.244733e+003,4.085693e-001
1.245697e+003,1.587830e+000
1.246661e+003,2.045776e+000
1.247625e+003,1.993958e+000
1.248590e+003,1.491455e+000
1.249554e+003,1.301880e+000
1.250518e+003,2.855835e+000
1.251482e+003,6.660889e+000
1.252447e+003,1.042163e+001
1.253411e+003,1.173950e+001
1.254375e+003,1.165930e+001
1.255339e+003,1.140808e+001
1.256303e+003,1.139575e+001
1.257268e+003,1.342212e+001
1.258232e+003,1.876361e+001
1.259196e+003,2.510284e+001
1.260160e+003,2.818909e+001
1.261125e+003,2.770715e+001
1.262089e+003,2.886627e+001
1.263053e+003,3.231989e+001
1.264017e+003,3.636145e+001
1.264982e+003,4.235339e+001
1.265946e+003,4.787616e+001
1.266910e+003,5.061865e+001
1.267874e+003,5.060889e+001
1.268839e+003,4.945465e+001
1.269803e+003,4.824921e+001
1.270767e+003,4.642847e+001
1.271731e+003,4.268127e+001
1.272695e+003,3.730414e+001
1.273660e+003,3.282788e+001
1.274624e+003,2.895300e+001
1.275588e+003,2.465839e+001
1.276552e+003,1.840167e+001
1.277517e+003,1.270776e+001
1.278481e+003,1.298517e+001
1.279445e+003,1.996246e+001
1.280409e+003,2.391779e+001
1.281374e+003,1.966077e+001
1.282338e+003,1.457080e+001
1.283302e+003,1.153558e+001
1.284266e+003,1.026514e+001
1.285230e+003,1.171185e+001
1.286195e+003,1.471600e+001
1.287159e+003,1.518292e+001
1.288123e+003,9.932312e+000
1.289087e+003,1.754639e+000
1.290052e+003,-1.696167e+000
1.291016e+003,9.999390e-001
1.291980e+003,2.032898e+000
1.292944e+003,-3.198242e-001
1.293909e+003,-2.859985e+000
1.294873e+003,-3.817871e+000
1.295837e+003,-3.757813e+000
1.296801e+003,-3.812134e+000
1.297766e+003,-4.075745e+000
1.298730e+003,-3.567322e+000
1.299694e+003,-1.592285e+000
1.300658e+003,2.020874e-001
1.301622e+003,-1.343384e-001
1.302587e+003,-1.328125e+000
1.303551e+003,-1.325195e+000
1.304515e+003,2.644043e-001
1.305479e+003,1.569031e+000
1.306444e+003,5.261841e-001
1.307408e+003,-1.921143e+000
1.308372e+003,-1.481323e+000
1.309336e+003,3.329468e+000
1.310301e+003,6.295776e+000
1.311265e+003,6.639893e+000
1.312229e+003,6.323853e+000
1.313193e+003,5.810852e+000
1.314157e+003,4.721680e+000
1.315122e+003,1.859253e+000
1.316086e+003,-2.366577e+000
1.317050e+003,-5.618591e+000
1.318014e+003,-6.104980e+000
1.318979e+003,-4.812317e+000
1.319943e+003,-3.719666e+000
1.320907e+003,-2.543091e+000
1.321871e+003,-8.360596e-001
1.322836e+003,8.761597e-001
1.323800e+003,2.638855e+000
1.324764e+003,5.102417e+000
1.325728e+003,7.518250e+000
1.326693e+003,8.016357e+000
1.327657e+003,6.231812e+000
1.328621e+003,5.000122e+000
1.329585e+003,7.083618e+000
1.330549e+003,9.287354e+000
1.331514e+003,8.240295e+000
1.332478e+003,5.708618e+000
1.333442e+003,3.166199e+000
1.334406e+003,1.484619e+000
1.335371e+003,1.612793e+000
1.336335e+003,4.045349e+000
1.337299e+003,7.920105e+000
1.338263e+003,1.165613e+001
1.339228e+003,1.562427e+001
1.340192e+003,1.604980e+001
1.341156e+003,9.256409e+000
1.342120e+003,4.520691e+000
1.343084e+003,2.989441e+000
1.344049e+003,3.203064e+000
1.345013e+003,5.703247e+000
1.345977e+003,9.532227e+000
1.346941e+003,1.151520e+001
1.347906e+003,1.039514e+001
1.348870e+003,8.532715e+000
1.349834e+003,7.839783e+000
1.350798e+003,7.589600e+000
1.351763e+003,6.855103e+000
1.352727e+003,5.838867e+000
1.353691e+003,4.854431e+000
1.354655e+003,3.928223e+000
1.355620e+003,3.601929e+000
1.356584e+003,5.564087e+000
1.357548e+003,9.412048e+000
1.358512e+003,9.322021e+000
1.359476e+003,2.038452e+000
1.360441e+003,-2.929810e+000
1.361405e+003,-7.919312e-001
1.362369e+003,2.111023e+000
1.363333e+003,3.075134e+000
1.364298e+003,2.720215e+000
1.365262e+003,2.005798e+000
1.366226e+003,1.420288e+000
1.367190e+003,1.334412e+000
1.368155e+003,2.080627e+000
1.369119e+003,3.487732e+000
1.370083e+003,5.133057e+000
1.371047e+003,7.344177e+000
1.372011e+003,9.620239e+000
1.372976e+003,1.224731e+001
1.373940e+003,1.346106e+001
1.374904e+003,1.197357e+001
1.375868e+003,9.585388e+000
1.376833e+003,8.076172e+000
1.377797e+003,7.585327e+000
1.378761e+003,8.262390e+000
1.379725e+003,1.079376e+001
1.380690e+003,1.297711e+001
1.381654e+003,1.093091e+001
1.382618e+003,8.166321e+000
1.383582e+003,1.083649e+001
1.384547e+003,1.825299e+001
1.385511e+003,2.305444e+001
1.386475e+003,2.091016e+001
1.387439e+003,1.577814e+001
1.388403e+003,1.345874e+001
1.389368e+003,1.389618e+001
1.390332e+003,1.582806e+001
1.391296e+003,2.147205e+001
1.392260e+003,2.469006e+001
1.393225e+003,2.259064e+001
1.394189e+003,1.939996e+001
1.395153e+003,1.672888e+001
1.396117e+003,1.492969e+001
1.397082e+003,1.433527e+001
1.398046e+003,1.497449e+001
1.399010e+003,1.639417e+001
1.399974e+003,1.793146e+001
1.400938e+003,1.855060e+001
1.401903e+003,1.640033e+001
1.402867e+003,1.157758e+001
1.403831e+003,1.015808e+001
1.404795e+003,1.325189e+001
1.405760e+003,1.674976e+001
1.406724e+003,1.886755e+001
1.407688e+003,1.920789e+001
1.408652e+003,1.757458e+001
1.409617e+003,1.507483e+001
1.410581e+003,1.473846e+001
1.411545e+003,1.827020e+001
1.412509e+003,2.126404e+001
1.413474e+003,1.729279e+001
1.414438e+003,1.060089e+001
1.415402e+003,9.962646e+000
1.416366e+003,1.498560e+001
1.417330e+003,1.963843e+001
1.418295e+003,2.176556e+001
1.419259e+003,2.214612e+001
1.420223e+003,2.051215e+001
1.421187e+003,1.711060e+001
1.422152e+003,1.558765e+001
1.423116e+003,1.684778e+001
1.424080e+003,1.921429e+001
1.425044e+003,2.237939e+001
1.426009e+003,2.541382e+001
1.426973e+003,2.904932e+001
1.427937e+003,3.160510e+001
1.428901e+003,3.057672e+001
1.429865e+003,2.667670e+001
1.430830e+003,2.261200e+001
1.431794e+003,2.002167e+001
1.432758e+003,1.973639e+001
1.433722e+003,2.443329e+001
1.434687e+003,3.554443e+001
1.435651e+003,4.327338e+001
1.436615e+003,4.342371e+001
1.437579e+003,4.291235e+001
1.438544e+003,4.194537e+001
1.439508e+003,4.132391e+001
1.440472e+003,4.271484e+001
1.441436e+003,4.509583e+001
1.442401e+003,4.576874e+001
1.443365e+003,4.409454e+001
1.444329e+003,4.247180e+001
1.445293e+003,4.299841e+001
1.446257e+003,4.433478e+001
1.447222e+003,4.331689e+001
1.448186e+003,4.038464e+001
1.449150e+003,3.853949e+001
1.450114e+003,3.823883e+001
1.451079e+003,3.744861e+001
1.452043e+003,3.472937e+001
1.453007e+003,3.193732e+001
1.453971e+003,3.180066e+001
1.454936e+003,3.366748e+001
1.455900e+003,3.347723e+001
1.456864e+003,2.943439e+001
1.457828e+003,2.771832e+001
1.458792e+003,3.490967e+001
1.459757e+003,4.249469e+001
1.460721e+003,4.311432e+001
1.461685e+003,3.889490e+001
1.462649e+003,3.436340e+001
1.463614e+003,3.114471e+001
1.464578e+003,2.910242e+001
1.465542e+003,2.781580e+001
1.466506e+003,2.748914e+001
1.467471e+003,3.010162e+001
1.468435e+003,3.757092e+001
1.469399e+003,4.136462e+001
1.470363e+003,3.635309e+001
1.471328e+003,3.297974e+001
1.472292e+003,3.453503e+001
1.473256e+003,3.648169e+001
1.474220e+003,3.600238e+001
1.475184e+003,3.432727e+001
1.476149e+003,3.356396e+001
1.477113e+003,3.420380e+001
1.478077e+003,3.570990e+001
1.479041e+003,3.801904e+001
1.480006e+003,4.113574e+001
1.480970e+003,4.390363e+001
1.481934e+003,4.556873e+001
1.482898e+003,4.770972e+001
1.483863e+003,5.059137e+001
1.484827e+003,5.325690e+001
1.485791e+003,5.597058e+001
1.486755e+003,5.879932e+001
1.487719e+003,6.117755e+001
1.488684e+003,6.321216e+001
1.489648e+003,6.612378e+001
1.490612e+003,7.048816e+001
1.491576e+003,7.443524e+001
1.492541e+003,7.590771e+001
1.493505e+003,7.618909e+001
1.494469e+003,7.766437e+001
1.495433e+003,7.986993e+001
1.496398e+003,8.445496e+001
1.497362e+003,9.311707e+001
1.498326e+003,1.022387e+002
1.499290e+003,1.091929e+002
1.500255e+003,1.158844e+002
1.501219e+003,1.248618e+002
1.502183e+003,1.357018e+002
1.503147e+003,1.460103e+002
1.504111e+003,1.547053e+002
1.505076e+003,1.657625e+002
1.506040e+003,1.823470e+002
1.507004e+003,2.018197e+002
1.507968e+003,2.207488e+002
1.508933e+003,2.404717e+002
1.509897e+003,2.632866e+002
1.510861e+003,2.906019e+002
1.511825e+003,3.243621e+002
1.512790e+003,3.666899e+002
1.513754e+003,4.131376e+002
1.514718e+003,4.560190e+002
1.515682e+003,4.948010e+002
1.516646e+003,5.342328e+002
1.517611e+003,5.768961e+002
1.518575e+003,6.163387e+002
1.519539e+003,6.544257e+002
1.520503e+003,6.858501e+002
1.521468e+003,7.064785e+002
1.522432e+003,7.187380e+002
1.523396e+003,7.270231e+002
1.524360e+003,7.311161e+002
1.525325e+003,7.267064e+002
1.526289e+003,7.110914e+002
1.527253e+003,6.870927e+002
1.528217e+003,6.591073e+002
1.529182e+003,6.275911e+002
1.530146e+003,5.934933e+002
1.531110e+003,5.576667e+002
1.532074e+003,5.162019e+002
1.533039e+003,4.658287e+002
1.534003e+003,4.116042e+002
1.534967e+003,3.522633e+002
1.535931e+003,2.949227e+002
1.536896e+003,2.454658e+002
1.537860e+003,2.055347e+002
1.538824e+003,1.758604e+002
1.539788e+003,1.560760e+002
1.540752e+003,1.412778e+002
1.541717e+003,1.253571e+002
1.542681e+003,1.093707e+002
1.543645e+003,9.802228e+001
1.544609e+003,9.340857e+001
1.545573e+003,9.004272e+001
1.546538e+003,8.780792e+001
1.547502e+003,8.536194e+001
1.548466e+003,8.250354e+001
1.549430e+003,8.036011e+001
1.550395e+003,7.976495e+001
1.551359e+003,8.021167e+001
1.552323e+003,8.130188e+001
1.553287e+003,8.276178e+001
1.554252e+003,8.227826e+001
1.555216e+003,7.747974e+001
1.556180e+003,7.002466e+001
1.557144e+003,6.346198e+001
1.558109e+003,5.807605e+001
1.559073e+003,5.451489e+001
1.560037e+003,5.335095e+001
1.561001e+003,5.108783e+001
1.561966e+003,4.592090e+001
1.562930e+003,4.123560e+001
1.563894e+003,3.976190e+001
1.564858e+003,4.066223e+001
1.565823e+003,4.230115e+001
1.566787e+003,4.419604e+001
1.567751e+003,4.566315e+001
1.568715e+003,4.632617e+001
1.569679e+003,4.709351e+001
1.570644e+003,4.922736e+001
1.571608e+003,5.170062e+001
1.572572e+003,5.245129e+001
1.573536e+003,5.172241e+001
1.574500e+003,5.143976e+001
1.575465e+003,5.232776e+001
1.576429e+003,5.324866e+001
1.577393e+003,5.247223e+001
1.578357e+003,5.109088e+001
1.579322e+003,5.183069e+001
1.580286e+003,5.490588e+001
1.581250e+003,5.872003e+001
1.582214e+003,6.342834e+001
1.583179e+003,6.617786e+001
1.584143e+003,6.238196e+001
1.585107e+003,5.717303e+001
1.586071e+003,5.954822e+001
1.587036e+003,6.725684e+001
1.588000e+003,7.092596e+001
1.588964e+003,6.794342e+001
1.589928e+003,6.453870e+001
1.590893e+003,6.524255e+001
1.591857e+003,6.761725e+001
1.592821e+003,6.781458e+001
1.593785e+003,6.640149e+001
1.594750e+003,6.578754e+001
1.595714e+003,6.576654e+001
1.596678e+003,6.837817e+001
1.597642e+003,7.659802e+001
1.598606e+003,8.465558e+001
1.599571e+003,8.814417e+001
1.600535e+003,8.902075e+001
1.601499e+003,8.886682e+001
1.602463e+003,8.809540e+001
1.603427e+003,8.819385e+001
1.604392e+003,8.999146e+001
1.605356e+003,9.130609e+001
1.606320e+003,8.938507e+001
1.607284e+003,8.550464e+001
1.608249e+003,8.324084e+001
1.609213e+003,8.265570e+001
1.610177e+003,8.213000e+001
1.611141e+003,8.123291e+001
1.612106e+003,8.083356e+001
1.613070e+003,8.155182e+001
1.614034e+003,8.265442e+001
1.614998e+003,8.410095e+001
1.615963e+003,8.542047e+001
1.616927e+003,8.583875e+001
1.617891e+003,8.508154e+001
1.618855e+003,8.274463e+001
1.619820e+003,7.802484e+001
1.620784e+003,7.288965e+001
1.621748e+003,7.144690e+001
1.622712e+003,7.373053e+001
1.623677e+003,7.520795e+001
1.624641e+003,7.548096e+001
1.625605e+003,7.768958e+001
1.626569e+003,8.316376e+001
1.627533e+003,8.683496e+001
1.628498e+003,8.578064e+001
1.629462e+003,8.363422e+001
1.630426e+003,8.331744e+001
1.631390e+003,8.414551e+001
1.632354e+003,8.422815e+001
1.633319e+003,8.308368e+001
1.634283e+003,8.170361e+001
1.635247e+003,8.077173e+001
1.636211e+003,7.983789e+001
1.637176e+003,7.748273e+001
1.638140e+003,7.426831e+001
1.639104e+003,7.623523e+001
1.640068e+003,8.554608e+001
1.641033e+003,9.139166e+001
1.641997e+003,9.047412e+001
1.642961e+003,8.692493e+001
1.643925e+003,7.920807e+001
1.644890e+003,7.284753e+001
1.645854e+003,7.532739e+001
1.646818e+003,8.337274e+001
1.647782e+003,8.778961e+001
1.648747e+003,8.577820e+001
1.649711e+003,8.184680e+001
1.650675e+003,7.968207e+001
1.651639e+003,7.911780e+001
1.652604e+003,7.939124e+001
1.653568e+003,8.019092e+001
1.654532e+003,8.089532e+001
1.655496e+003,8.191211e+001
1.656460e+003,8.123950e+001
1.657425e+003,7.717438e+001
1.658389e+003,7.323053e+001
1.659353e+003,7.201074e+001
1.660317e+003,7.125586e+001
1.661281e+003,6.773212e+001
1.662246e+003,6.236389e+001
1.663210e+003,5.900610e+001
1.664174e+003,5.902997e+001
1.665138e+003,5.979962e+001
1.666103e+003,5.879749e+001
1.667067e+003,5.687683e+001
1.668031e+003,5.612128e+001
1.668995e+003,5.658069e+001
1.669960e+003,5.716357e+001
1.670924e+003,5.786707e+001
1.671888e+003,5.913409e+001
1.672852e+003,6.225549e+001
1.673817e+003,6.369080e+001
1.674781e+003,5.961334e+001
1.675745e+003,5.391058e+001
1.676709e+003,5.072888e+001
1.677674e+003,4.974365e+001
1.678638e+003,4.895050e+001
1.679602e+003,4.774170e+001
1.680566e+003,4.608008e+001
1.681531e+003,4.398682e+001
1.682495e+003,4.201617e+001
1.683459e+003,4.061517e+001
1.684423e+003,3.944806e+001
1.685387e+003,3.823700e+001
1.686352e+003,3.713721e+001
1.687316e+003,3.581079e+001
1.688280e+003,3.347974e+001
1.689244e+003,3.211292e+001
1.690208e+003,3.399683e+001
1.691173e+003,3.681134e+001
1.692137e+003,3.865723e+001
1.693101e+003,3.975995e+001
1.694065e+003,3.972046e+001
1.695030e+003,3.792419e+001
1.695994e+003,3.664972e+001
1.696958e+003,3.845667e+001
1.697922e+003,4.062225e+001
1.698887e+003,3.967694e+001
1.699851e+003,3.644324e+001
1.700815e+003,3.256439e+001
1.701779e+003,2.802576e+001
1.702744e+003,2.409882e+001
1.703708e+003,2.142963e+001
1.704672e+003,2.074567e+001
1.705636e+003,2.255371e+001
1.706601e+003,2.534283e+001
1.707565e+003,2.880853e+001
1.708529e+003,3.235474e+001
1.709493e+003,3.231891e+001
1.710458e+003,2.782678e+001
1.711422e+003,2.336267e+001
1.712386e+003,2.055463e+001
1.713350e+003,1.941949e+001
1.714314e+003,2.007849e+001
1.715279e+003,2.145520e+001
1.716243e+003,2.274042e+001
1.717207e+003,2.357501e+001
1.718171e+003,2.232599e+001
1.719135e+003,1.865802e+001
1.720100e+003,1.517682e+001
1.721064e+003,1.335687e+001
1.722028e+003,1.260645e+001
1.722992e+003,1.257788e+001
1.723957e+003,1.373865e+001
1.724921e+003,1.627649e+001
1.725885e+003,2.004102e+001
1.726849e+003,2.097919e+001
1.727814e+003,1.675140e+001
1.728778e+003,1.369446e+001
1.729742e+003,1.529541e+001
1.730706e+003,1.822992e+001
1.731671e+003,1.939514e+001
1.732635e+003,1.835608e+001
1.733599e+003,1.563379e+001
1.734563e+003,1.204010e+001
1.735528e+003,8.364441e+000
1.736492e+003,4.794128e+000
1.737456e+003,1.877991e+000
1.738420e+003,2.685547e-001
1.739385e+003,-4.459839e-001
1.740349e+003,-2.703857e-001
1.741313e+003,1.542419e+000
1.742277e+003,2.225342e+000
1.743241e+003,1.569885e+000
1.744206e+003,9.810181e-001
1.745170e+003,-4.598389e-001
1.746134e+003,-1.041382e+000
1.747098e+003,8.729858e-001
1.748063e+003,3.551514e+000
1.749027e+003,5.813293e+000
1.749991e+003,6.940002e+000
1.750955e+003,4.886597e+000
1.751919e+003,-2.875366e-001
1.752884e+003,-3.640808e+000
1.753848e+003,-1.000122e+000
1.754812e+003,3.948425e+000
1.755776e+003,3.853088e+000
1.756741e+003,-6.643066e-001
1.757705e+003,-2.686218e+000
1.758669e+003,-2.182495e+000
1.759633e+003,-3.160400e-001
1.760598e+003,4.800781e+000
1.761562e+003,7.615906e+000
1.762526e+003,5.745056e+000
1.763490e+003,2.744629e+000
1.764455e+003,2.124023e-001
1.765419e+003,-1.172363e+000
1.766383e+003,-3.304443e-001
1.767347e+003,1.980774e+000
1.768312e+003,2.773438e+000
1.769276e+003,4.681396e-001
1.770240e+003,-1.972778e+000
1.771204e+003,-2.790527e-001
1.772168e+003,3.692627e+000
1.773133e+003,4.355286e+000
1.774097e+003,2.064697e+000
1.775061e+003,5.054932e-001
1.776025e+003,-4.638062e-001
1.776990e+003,-4.902954e-001
1.777954e+003,1.741821e+000
1.778918e+003,3.886963e+000
1.779882e+003,3.933411e+000
1.780846e+003,2.281982e+000
1.781811e+003,-1.137024e+000
1.782775e+003,-5.116089e+000
1.783739e+003,-5.460754e+000
1.784703e+003,-1.053223e+000
1.785668e+003,2.548035e+000
1.786632e+003,1.986572e+000
1.787596e+003,2.163696e-001
1.788560e+003,-2.899170e-001
1.789525e+003,3.070068e-001
1.790489e+003,1.742188e+000
1.791453e+003,3.179504e+000
1.792417e+003,2.444580e+000
1.793382e+003,-5.363159e-001
1.794346e+003,-1.965515e+000
1.795310e+003,2.827148e-001
1.796274e+003,2.149170e+000
1.797239e+003,-1.330017e+000
1.798203e+003,-6.934448e+000
1.799167e+003,-5.516785e+000
1.800131e+003,3.874023e+000
1.801095e+003,7.157043e+000
1.802060e+003,7.634888e-001
1.803024e+003,-3.589233e+000
1.803988e+003,-3.610779e+000
1.804952e+003,-3.500122e+000
1.805917e+003,-6.468750e+000
1.806881e+003,-9.251526e+000
1.807845e+003,-7.922546e+000
1.808809e+003,-3.589844e+000
1.809773e+003,1.473083e+000
1.810738e+003,5.963806e+000
1.811702e+003,7.770813e+000
1.812666e+003,5.637756e+000
1.813630e+003,2.967529e+000
1.814595e+003,4.711792e+000
1.815559e+003,9.141968e+000
1.816523e+003,9.308167e+000
1.817487e+003,4.842163e+000
1.818452e+003,1.570862e+000
1.819416e+003,3.305054e-001
1.820380e+003,-1.275635e-002
1.821344e+003,3.389282e-001
1.822309e+003,4.168091e-001
1.823273e+003,-3.032837e-001
1.824237e+003,-9.285889e-001
1.825201e+003,-7.432251e-001
1.826166e+003,-1.144409e-001
1.827130e+003,1.815796e-001
1.828094e+003,-1.451416e-001
1.829058e+003,-6.667480e-001
1.830022e+003,-1.188538e+000
1.830987e+003,-1.044312e+000
1.831951e+003,1.492554e+000
1.832915e+003,4.195068e+000
1.833879e+003,3.017578e+000
1.834844e+003,-7.694702e-001
1.835808e+003,-2.990601e+000
1.836772e+003,-2.959229e+000
1.837736e+003,-2.089050e+000
1.838700e+003,-1.164917e+000
1.839665e+003,-7.253418e-001
1.840629e+003,-1.076904e+000
1.841593e+003,-1.984802e+000
1.842557e+003,-3.620544e+000
1.843522e+003,-5.963440e+000
1.844486e+003,-5.466980e+000
1.845450e+003,1.357117e+000
1.846414e+003,5.417664e+000
1.847379e+003,3.706543e+000
1.848343e+003,1.837158e+000
1.849307e+003,2.146057e+000
1.850271e+003,2.645630e+000
1.851236e+003,1.371155e+000
1.852200e+003,9.661865e-002
1.853164e+003,1.904846e+000
1.854128e+003,5.310486e+000
1.855093e+003,5.303040e+000
1.856057e+003,8.239746e-001
1.857021e+003,-2.754150e+000
1.857985e+003,-8.801270e-001
1.858949e+003,2.521912e+000
1.859914e+003,-3.889771e-001
1.860878e+003,-7.758240e+000
1.861842e+003,-9.240051e+000
1.862806e+003,-4.795715e+000
1.863771e+003,-6.760864e-001
1.864735e+003,2.120178e+000
1.865699e+003,3.454895e+000
1.866663e+003,2.790710e+000
1.867627e+003,2.432434e+000
1.868592e+003,4.537231e+000
1.869556e+003,7.349792e+000
1.870520e+003,8.627502e+000
1.871484e+003,8.352234e+000
1.872449e+003,6.266724e+000
1.873413e+003,2.563904e+000
1.874377e+003,1.431213e+000
1.875341e+003,4.290649e+000
1.876306e+003,7.416931e+000
1.877270e+003,9.721069e+000
1.878234e+003,1.025470e+001
1.879198e+003,6.742493e+000
1.880163e+003,1.783630e+000
1.881127e+003,2.117310e-001
1.882091e+003,2.203796e+000
1.883055e+003,4.841980e+000
1.884020e+003,6.686584e+000
1.884984e+003,7.725525e+000
1.885948e+003,7.973145e+000
1.886912e+003,7.549316e+000
1.887876e+003,6.495911e+000
1.888841e+003,5.052429e+000
1.889805e+003,6.086304e+000
1.890769e+003,1.051447e+001
1.891733e+003,1.235651e+001
1.892698e+003,9.921753e+000
1.893662e+003,6.652710e+000
1.894626e+003,2.366089e+000
1.895590e+003,-2.982178e-001
1.896554e+003,2.501282e+000
1.897519e+003,6.915588e+000
1.898483e+003,7.378845e+000
1.899447e+003,4.703308e+000
1.900411e+003,3.822021e+000
1.901376e+003,5.805786e+000
1.902340e+003,7.508850e+000
1.903304e+003,7.719604e+000
1.904268e+003,7.239258e+000
1.905233e+003,6.353333e+000
1.906197e+003,5.553345e+000
1.907161e+003,5.054626e+000
1.908125e+003,5.349792e+000
1.909090e+003,7.559631e+000
1.910054e+003,1.075598e+001
1.911018e+003,1.203796e+001
1.911982e+003,1.088116e+001
1.912947e+003,9.975098e+000
1.913911e+003,1.116589e+001
1.914875e+003,1.303534e+001
1.915839e+003,1.310187e+001
1.916803e+003,1.163837e+001
1.917768e+003,1.215948e+001
1.918732e+003,1.558630e+001
1.919696e+003,1.700220e+001
1.920660e+003,1.602844e+001
1.921625e+003,1.465234e+001
1.922589e+003,1.238062e+001
1.923553e+003,1.061761e+001
1.924517e+003,1.045313e+001
1.925481e+003,1.095776e+001
1.926446e+003,1.141113e+001
1.927410e+003,1.195020e+001
1.928374e+003,1.276727e+001
1.929338e+003,1.360480e+001
1.930303e+003,1.424634e+001
1.931267e+003,1.507336e+001
1.932231e+003,1.657550e+001
1.933195e+003,2.029346e+001
1.934160e+003,2.222351e+001
1.935124e+003,1.691602e+001
1.936088e+003,9.957336e+000
1.937052e+003,9.000427e+000
1.938017e+003,1.251245e+001
1.938981e+003,1.570941e+001
1.939945e+003,1.741241e+001
1.940909e+003,1.865924e+001
1.941874e+003,1.975128e+001
1.942838e+003,1.930743e+001
1.943802e+003,1.624982e+001
1.944766e+003,1.307373e+001
1.945730e+003,1.431165e+001
1.946695e+003,1.894116e+001
1.947659e+003,2.110858e+001
1.948623e+003,2.057214e+001
1.949587e+003,1.875616e+001
1.950552e+003,1.549249e+001
1.951516e+003,1.328656e+001
1.952480e+003,1.315204e+001
1.953444e+003,1.381030e+001
1.954408e+003,1.442889e+001
1.955373e+003,1.474072e+001
1.956337e+003,1.469299e+001
1.957301e+003,1.493195e+001
1.958265e+003,1.638690e+001
1.959230e+003,1.940460e+001
1.960194e+003,2.132507e+001
1.961158e+003,2.042969e+001
1.962122e+003,1.895239e+001
1.963087e+003,1.647235e+001
1.964051e+003,1.500110e+001
1.965015e+003,1.751862e+001
1.965979e+003,2.083301e+001
1.966944e+003,2.019763e+001
1.967908e+003,1.769092e+001
1.968872e+003,1.882581e+001
1.969836e+003,2.345062e+001
1.970801e+003,2.635138e+001
1.971765e+003,2.540198e+001
1.972729e+003,2.314581e+001
1.973693e+003,2.126038e+001
1.974657e+003,2.048602e+001
1.975622e+003,2.314508e+001
1.976586e+003,2.704926e+001
1.977550e+003,2.558557e+001
1.978514e+003,2.013318e+001
1.979479e+003,1.853113e+001
1.980443e+003,2.165601e+001
1.981407e+003,2.521783e+001
1.982371e+003,2.790466e+001
1.983335e+003,2.889777e+001
1.984300e+003,2.698474e+001
1.985264e+003,2.437738e+001
1.986228e+003,2.503998e+001
1.987192e+003,2.801447e+001
1.988157e+003,2.831256e+001
1.989121e+003,2.557648e+001
1.990085e+003,2.283289e+001
1.991049e+003,1.928546e+001
1.992014e+003,1.786859e+001
1.992978e+003,1.919592e+001
1.993942e+003,2.186975e+001
1.994906e+003,2.797736e+001
1.995871e+003,3.267596e+001
1.996835e+003,3.071002e+001
1.997799e+003,2.638293e+001
1.998763e+003,2.597455e+001
1.999728e+003,2.888416e+001
