5.003444e+002,1.938305e+002
5.013087e+002,1.948672e+002
5.022729e+002,1.932800e+002
5.032371e+002,1.896951e+002
5.042014e+002,1.845894e+002
5.051656e+002,1.783665e+002
5.061298e+002,1.721981e+002
5.070941e+002,1.668121e+002
5.080583e+002,1.615461e+002
5.090225e+002,1.598408e+002
5.099868e+002,1.637627e+002
5.109510e+002,1.678106e+002
5.119152e+002,1.693176e+002
5.128795e+002,1.680978e+002
5.138437e+002,1.661373e+002
5.148079e+002,1.637172e+002
5.157722e+002,1.613549e+002
5.167364e+002,1.593713e+002
5.177006e+002,1.574580e+002
5.186649e+002,1.546116e+002
5.196291e+002,1.485131e+002
5.205933e+002,1.427655e+002
5.215576e+002,1.413820e+002
5.225218e+002,1.439932e+002
5.234860e+002,1.479217e+002
5.244503e+002,1.489872e+002
5.254145e+002,1.469798e+002
5.263787e+002,1.437929e+002
5.273430e+002,1.382490e+002
5.283072e+002,1.323046e+002
5.292714e+002,1.285186e+002
5.302357e+002,1.269985e+002
5.311999e+002,1.260841e+002
5.321641e+002,1.275062e+002
5.331284e+002,1.291067e+002
5.340926e+002,1.287917e+002
5.350568e+002,1.254364e+002
5.360211e+002,1.208280e+002
5.369853e+002,1.168793e+002
5.379495e+002,1.135212e+002
5.389138e+002,1.104724e+002
5.398780e+002,1.075553e+002
5.408422e+002,1.048682e+002
5.418065e+002,1.029147e+002
5.427707e+002,1.016398e+002
5.437349e+002,1.011403e+002
5.446992e+002,1.017981e+002
5.456634e+002,1.028898e+002
5.466276e+002,1.020107e+002
5.475919e+002,9.675751e+001
5.485561e+002,9.276453e+001
5.495203e+002,9.062549e+001
5.504846e+002,8.932251e+001
5.514488e+002,8.743372e+001
5.524130e+002,8.421265e+001
5.533773e+002,8.191479e+001
5.543415e+002,8.240784e+001
5.553057e+002,8.382043e+001
5.562700e+002,8.400568e+001
5.572342e+002,8.159387e+001
5.581984e+002,7.782062e+001
5.591627e+002,7.626129e+001
5.601269e+002,7.632330e+001
5.610911e+002,7.618561e+001
5.620554e+002,7.475165e+001
5.630196e+002,7.201514e+001
5.639838e+002,6.961908e+001
5.649481e+002,6.829742e+001
5.659123e+002,6.632245e+001
5.668765e+002,6.297638e+001
5.678408e+002,5.938660e+001
5.688050e+002,5.829547e+001
5.697692e+002,6.299615e+001
5.707335e+002,6.491595e+001
5.716977e+002,5.971228e+001
5.726619e+002,5.135364e+001
5.736262e+002,4.507611e+001
5.745904e+002,4.456854e+001
5.755546e+002,4.738757e+001
5.765189e+002,4.984100e+001
5.774831e+002,5.135529e+001
5.784473e+002,5.104919e+001
5.794116e+002,4.854193e+001
5.803758e+002,4.451215e+001
5.813400e+002,4.395715e+001
5.823043e+002,4.752533e+001
5.832685e+002,4.984143e+001
5.842327e+002,4.931201e+001
5.851970e+002,4.656671e+001
5.861612e+002,4.365234e+001
5.871254e+002,3.792743e+001
5.880897e+002,3.475031e+001
5.890539e+002,3.697485e+001
5.900181e+002,4.182751e+001
5.909824e+002,4.475677e+001
5.919466e+002,4.255951e+001
5.929108e+002,3.880286e+001
5.938751e+002,3.783722e+001
5.948393e+002,3.820422e+001
5.958035e+002,3.731696e+001
5.967678e+002,3.339691e+001
5.977320e+002,2.750201e+001
5.986962e+002,2.757831e+001
5.996605e+002,3.325067e+001
6.006247e+002,3.735742e+001
6.015889e+002,3.578699e+001
6.025532e+002,2.907770e+001
6.035174e+002,2.450183e+001
6.044816e+002,2.366785e+001
6.054459e+002,2.371735e+001
6.064101e+002,2.490912e+001
6.073743e+002,2.658563e+001
6.083386e+002,2.782141e+001
6.093028e+002,2.823993e+001
6.102670e+002,2.811920e+001
6.112313e+002,2.707190e+001
6.121955e+002,2.583435e+001
6.131597e+002,2.540833e+001
6.141240e+002,2.645447e+001
6.150882e+002,2.854578e+001
6.160524e+002,3.078882e+001
6.170167e+002,3.335992e+001
6.179809e+002,3.443091e+001
6.189451e+002,3.252771e+001
6.199094e+002,2.787720e+001
6.208736e+002,2.395184e+001
6.218378e+002,2.088049e+001
6.228021e+002,1.957855e+001
6.237663e+002,2.146594e+001
6.247305e+002,2.499634e+001
6.256948e+002,2.753387e+001
6.266590e+002,2.747089e+001
6.276232e+002,2.647662e+001
6.285875e+002,2.601038e+001
6.295517e+002,2.590167e+001
6.305159e+002,2.586304e+001
6.314802e+002,2.559552e+001
6.324444e+002,2.490240e+001
6.334086e+002,2.369495e+001
6.343729e+002,2.243982e+001
6.353371e+002,2.136230e+001
6.363013e+002,2.048151e+001
6.372656e+002,1.953668e+001
6.382298e+002,1.793036e+001
6.391940e+002,1.388318e+001
6.401583e+002,1.132947e+001
6.411225e+002,1.255865e+001
6.420867e+002,1.508307e+001
6.430510e+002,1.532813e+001
6.440152e+002,1.124994e+001
6.449794e+002,7.094421e+000
6.459437e+002,5.117432e+000
6.469079e+002,3.985291e+000
6.478721e+002,2.961609e+000
6.488364e+002,1.802917e+000
6.498006e+002,7.403564e-001
6.507648e+002,-9.136963e-002
6.517291e+002,-8.387451e-001
6.526933e+002,-1.595032e+000
6.536575e+002,-2.436035e+000
6.546218e+002,-3.025940e+000
6.555860e+002,-2.642761e+000
6.565502e+002,-5.477905e-001
6.575145e+002,8.255005e-001
6.584787e+002,1.472961e+000
6.594429e+002,1.592346e+000
6.604072e+002,1.244812e+000
6.613714e+002,4.118042e-001
6.623356e+002,-4.993286e-001
6.632999e+002,-2.710571e+000
6.642641e+002,-4.320313e+000
6.652283e+002,-3.244324e+000
6.661926e+002,2.407837e-001
6.671568e+002,3.975098e+000
6.681210e+002,5.166748e+000
6.690853e+002,4.214233e+000
6.700495e+002,2.777405e+000
6.710137e+002,1.027893e+000
6.719780e+002,3.637695e-002
6.729422e+002,9.944458e-001
6.739064e+002,4.251648e+000
6.748707e+002,6.427002e+000
6.758349e+002,7.393799e+000
6.767991e+002,7.624512e+000
6.777634e+002,7.411194e+000
6.787276e+002,7.106628e+000
6.796918e+002,7.233093e+000
6.806561e+002,8.051941e+000
6.816203e+002,8.387207e+000
6.825845e+002,7.810425e+000
6.835488e+002,6.478699e+000
6.845130e+002,4.555359e+000
6.854772e+002,2.121094e+000
6.864415e+002,7.873535e-002
6.874057e+002,-3.192139e-001
6.883699e+002,1.544189e-001
6.893342e+002,8.180542e-001
6.902984e+002,1.424438e+000
6.912626e+002,2.147339e+000
6.922269e+002,3.312866e+000
6.931911e+002,6.666687e+000
6.941553e+002,9.270691e+000
6.951196e+002,9.225098e+000
6.960838e+002,8.118103e+000
6.970480e+002,9.548035e+000
6.980123e+002,1.671399e+001
6.989765e+002,2.039197e+001
6.999407e+002,1.382074e+001
7.009050e+002,5.061646e+000
7.018692e+002,4.784546e-001
7.028334e+002,2.125183e+000
7.037977e+002,6.842224e+000
7.047619e+002,1.155499e+001
7.057261e+002,1.546680e+001
7.066904e+002,1.528278e+001
7.076546e+002,1.043927e+001
7.086188e+002,4.323425e+000
7.095831e+002,2.447388e+000
7.105473e+002,6.652283e+000
7.115115e+002,8.728088e+000
7.124758e+002,7.516479e+000
7.134400e+002,5.556335e+000
7.144042e+002,4.303284e+000
7.153685e+002,4.008850e+000
7.163327e+002,4.301697e+000
7.172969e+002,6.102112e+000
7.182612e+002,7.548523e+000
7.192254e+002,7.546631e+000
7.201896e+002,6.351990e+000
7.211539e+002,4.550964e+000
7.221181e+002,2.522278e+000
7.230823e+002,8.991699e-001
7.240466e+002,1.347778e+000
7.250108e+002,3.791565e+000
7.259750e+002,7.092407e+000
7.269393e+002,1.044910e+001
7.279035e+002,1.325543e+001
7.288677e+002,1.408838e+001
7.298320e+002,1.180469e+001
7.307962e+002,1.061951e+001
7.317604e+002,1.150800e+001
7.327247e+002,1.346680e+001
7.336889e+002,1.481409e+001
7.346531e+002,1.446399e+001
7.356174e+002,1.303333e+001
7.365816e+002,1.142786e+001
7.375458e+002,1.016486e+001
7.385101e+002,9.807556e+000
7.394743e+002,1.031482e+001
7.404385e+002,1.080847e+001
7.414028e+002,9.372131e+000
7.423670e+002,5.998108e+000
7.433312e+002,4.992859e+000
7.442955e+002,7.525757e+000
7.452597e+002,1.077826e+001
7.462239e+002,1.077704e+001
7.471882e+002,5.824219e+000
7.481524e+002,4.276611e+000
7.491166e+002,7.885803e+000
7.500809e+002,1.105042e+001
7.510451e+002,1.191620e+001
7.520093e+002,1.063708e+001
7.529736e+002,8.153198e+000
7.539378e+002,3.779053e+000
7.549020e+002,1.293335e+000
7.558663e+002,3.891785e+000
7.568306e+002,9.095703e+000
7.577948e+002,1.342871e+001
7.587590e+002,1.468103e+001
7.597233e+002,1.374127e+001
7.606875e+002,1.405151e+001
7.616517e+002,1.573358e+001
7.626160e+002,1.738043e+001
7.635802e+002,1.884595e+001
7.645444e+002,2.007190e+001
7.655087e+002,2.068445e+001
7.664729e+002,1.990222e+001
7.674371e+002,1.997974e+001
7.684014e+002,2.202783e+001
7.693656e+002,2.386420e+001
7.703298e+002,2.354065e+001
7.712941e+002,2.119763e+001
7.722583e+002,1.983209e+001
7.732225e+002,2.244019e+001
7.741868e+002,2.618811e+001
7.751510e+002,2.968420e+001
7.761152e+002,3.240009e+001
7.770795e+002,3.344293e+001
7.780437e+002,3.193213e+001
7.790079e+002,2.820129e+001
7.799722e+002,2.604248e+001
7.809364e+002,2.531360e+001
7.819006e+002,2.531915e+001
7.828649e+002,2.661945e+001
7.838291e+002,2.892065e+001
7.847933e+002,3.053845e+001
7.857576e+002,3.064996e+001
7.867218e+002,2.996552e+001
7.876860e+002,2.788953e+001
7.886503e+002,2.647687e+001
7.896145e+002,2.837976e+001
7.905787e+002,3.389783e+001
7.915430e+002,3.869617e+001
7.925072e+002,3.557495e+001
7.934714e+002,2.997626e+001
7.944357e+002,2.864081e+001
7.953999e+002,3.197626e+001
7.963641e+002,3.707135e+001
7.973284e+002,4.060645e+001
7.982926e+002,4.256189e+001
7.992568e+002,4.257074e+001
8.002211e+002,3.900873e+001
8.011853e+002,3.500098e+001
8.021495e+002,3.197559e+001
8.031138e+002,3.051941e+001
8.040780e+002,3.091479e+001
8.050422e+002,3.376166e+001
8.060065e+002,3.637958e+001
8.069707e+002,3.774585e+001
8.079349e+002,3.810089e+001
8.088992e+002,3.756384e+001
8.098634e+002,3.649591e+001
8.108276e+002,3.589282e+001
8.117919e+002,3.761029e+001
8.127561e+002,3.955365e+001
8.137203e+002,3.834845e+001
8.146846e+002,3.412610e+001
8.156488e+002,2.972968e+001
8.166130e+002,2.836322e+001
8.175773e+002,3.037793e+001
8.185415e+002,3.268420e+001
8.195057e+002,3.514105e+001
8.204700e+002,3.723138e+001
8.214342e+002,3.935345e+001
8.223984e+002,4.098370e+001
8.233627e+002,4.048962e+001
8.243269e+002,3.607532e+001
8.252911e+002,3.231073e+001
8.262554e+002,3.161023e+001
8.272196e+002,3.270862e+001
8.281838e+002,3.490643e+001
8.291481e+002,3.755402e+001
8.301123e+002,3.958569e+001
8.310765e+002,3.873578e+001
8.320408e+002,3.521576e+001
8.330050e+002,3.345911e+001
8.339692e+002,3.399957e+001
8.349335e+002,3.571106e+001
8.358977e+002,3.789948e+001
8.368619e+002,4.096881e+001
8.378262e+002,4.334546e+001
8.387904e+002,4.445184e+001
8.397546e+002,4.478784e+001
8.407189e+002,4.387506e+001
8.416831e+002,4.248560e+001
8.426473e+002,4.178064e+001
8.436116e+002,4.230438e+001
8.445758e+002,4.382904e+001
8.455400e+002,4.646234e+001
8.465043e+002,4.882617e+001
8.474685e+002,4.937238e+001
8.484327e+002,4.826782e+001
8.493970e+002,4.752429e+001
8.503612e+002,5.012421e+001
8.513254e+002,5.674286e+001
8.522897e+002,6.009302e+001
8.532539e+002,5.787268e+001
8.542181e+002,5.526886e+001
8.551824e+002,5.592261e+001
8.561466e+002,5.986591e+001
8.571108e+002,6.398053e+001
8.580751e+002,6.717212e+001
8.590393e+002,6.883490e+001
8.600035e+002,6.774475e+001
8.609678e+002,6.637378e+001
8.619320e+002,6.767584e+001
8.628962e+002,7.263470e+001
8.638605e+002,7.881445e+001
8.648247e+002,8.282465e+001
8.657889e+002,8.512177e+001
8.667532e+002,8.680396e+001
8.677174e+002,8.799786e+001
8.686816e+002,8.850201e+001
8.696459e+002,8.794733e+001
8.706101e+002,8.620471e+001
8.715743e+002,8.622382e+001
8.725386e+002,8.866125e+001
8.735028e+002,9.188641e+001
8.744670e+002,9.503528e+001
8.754313e+002,9.822736e+001
8.763955e+002,1.024979e+002
8.773597e+002,1.089446e+002
8.783240e+002,1.146703e+002
8.792882e+002,1.170349e+002
8.802524e+002,1.178472e+002
8.812167e+002,1.183954e+002
8.821809e+002,1.191428e+002
8.831451e+002,1.200526e+002
8.841094e+002,1.211406e+002
8.850736e+002,1.227439e+002
8.860378e+002,1.251114e+002
8.870021e+002,1.283514e+002
8.879663e+002,1.310007e+002
8.889305e+002,1.310396e+002
8.898948e+002,1.292374e+002
8.908590e+002,1.306237e+002
8.918232e+002,1.394163e+002
8.927875e+002,1.456121e+002
8.937517e+002,1.449722e+002
8.947159e+002,1.427993e+002
8.956802e+002,1.436079e+002
8.966444e+002,1.479016e+002
8.976086e+002,1.521192e+002
8.985729e+002,1.528941e+002
8.995371e+002,1.520721e+002
9.005013e+002,1.525152e+002
9.014656e+002,1.542415e+002
9.024298e+002,1.559121e+002
9.033940e+002,1.561823e+002
9.043583e+002,1.550037e+002
9.053225e+002,1.547491e+002
9.062867e+002,1.552946e+002
9.072510e+002,1.564938e+002
9.082152e+002,1.603604e+002
9.091794e+002,1.645106e+002
9.101437e+002,1.661915e+002
9.111079e+002,1.648995e+002
9.120721e+002,1.632651e+002
9.130364e+002,1.615468e+002
9.140006e+002,1.603042e+002
9.149648e+002,1.613574e+002
9.159291e+002,1.636510e+002
9.168933e+002,1.644149e+002
9.178575e+002,1.615543e+002
9.188218e+002,1.561501e+002
9.197860e+002,1.525331e+002
9.207502e+002,1.504537e+002
9.217145e+002,1.495060e+002
9.226787e+002,1.508682e+002
9.236429e+002,1.532048e+002
9.246072e+002,1.543668e+002
9.255714e+002,1.539000e+002
9.265356e+002,1.529244e+002
9.274999e+002,1.514927e+002
9.284641e+002,1.493597e+002
9.294283e+002,1.465120e+002
9.303926e+002,1.431921e+002
9.313568e+002,1.393123e+002
9.323210e+002,1.346861e+002
9.332853e+002,1.305159e+002
9.342495e+002,1.291454e+002
9.352137e+002,1.294033e+002
9.361780e+002,1.310074e+002
9.371422e+002,1.340876e+002
9.381064e+002,1.363467e+002
9.390707e+002,1.338780e+002
9.400349e+002,1.250547e+002
9.409991e+002,1.195295e+002
9.419634e+002,1.178062e+002
9.429276e+002,1.179529e+002
9.438918e+002,1.211359e+002
9.448561e+002,1.255205e+002
9.458203e+002,1.282150e+002
9.467845e+002,1.284744e+002
9.477488e+002,1.275176e+002
9.487130e+002,1.248181e+002
9.496772e+002,1.221389e+002
9.506415e+002,1.213252e+002
9.516057e+002,1.220994e+002
9.525699e+002,1.226447e+002
9.535342e+002,1.211086e+002
9.544984e+002,1.176187e+002
9.554626e+002,1.144928e+002
9.564269e+002,1.119791e+002
9.573911e+002,1.109954e+002
9.583553e+002,1.131418e+002
9.593196e+002,1.161362e+002
9.602838e+002,1.158021e+002
9.612480e+002,1.107862e+002
9.622123e+002,1.069067e+002
9.631765e+002,1.067669e+002
9.641407e+002,1.074383e+002
9.651050e+002,1.078251e+002
9.660692e+002,1.076298e+002
9.670334e+002,1.068004e+002
9.679977e+002,1.054919e+002
9.689619e+002,1.046973e+002
9.699261e+002,1.057531e+002
9.708904e+002,1.081082e+002
9.718546e+002,1.116995e+002
9.728188e+002,1.164229e+002
9.737831e+002,1.220894e+002
9.747473e+002,1.290010e+002
9.757115e+002,1.377488e+002
9.766758e+002,1.452704e+002
9.776400e+002,1.543813e+002
9.786042e+002,1.595057e+002
9.795685e+002,1.576703e+002
9.805327e+002,1.511095e+002
9.814969e+002,1.426212e+002
9.824612e+002,1.333929e+002
9.834254e+002,1.242773e+002
9.843896e+002,1.150221e+002
9.853539e+002,1.062147e+002
9.863181e+002,9.848047e+001
9.872823e+002,9.176886e+001
9.882466e+002,8.639771e+001
9.892108e+002,8.308691e+001
9.901750e+002,8.208893e+001
9.911393e+002,8.148792e+001
9.921035e+002,8.002563e+001
9.930677e+002,7.890405e+001
9.940320e+002,7.795068e+001
9.949962e+002,7.828693e+001
9.959604e+002,8.198309e+001
9.969247e+002,8.896234e+001
9.978889e+002,9.415509e+001
9.988531e+002,9.275818e+001
9.998174e+002,9.074603e+001
1.000782e+003,9.292352e+001
1.001746e+003,9.716473e+001
1.002710e+003,9.991943e+001
1.003674e+003,9.962805e+001
1.004639e+003,9.772089e+001
1.005603e+003,9.673212e+001
1.006567e+003,9.662183e+001
1.007531e+003,9.607147e+001
1.008495e+003,9.518475e+001
1.009460e+003,9.384521e+001
1.010424e+003,9.209009e+001
1.011388e+003,8.999323e+001
1.012352e+003,8.740802e+001
1.013317e+003,8.364630e+001
1.014281e+003,8.028827e+001
1.015245e+003,7.795502e+001
1.016209e+003,7.564478e+001
1.017174e+003,7.263617e+001
1.018138e+003,6.904028e+001
1.019102e+003,6.566901e+001
1.020066e+003,6.337677e+001
1.021031e+003,6.165869e+001
1.021995e+003,5.765558e+001
1.022959e+003,5.161877e+001
1.023923e+003,4.714954e+001
1.024887e+003,4.572137e+001
1.025852e+003,4.569470e+001
1.026816e+003,4.445099e+001
1.027780e+003,4.174506e+001
1.028744e+003,4.039185e+001
1.029709e+003,4.103485e+001
1.030673e+003,4.236896e+001
1.031637e+003,4.559283e+001
1.032601e+003,4.841034e+001
1.033566e+003,4.711871e+001
1.034530e+003,4.068280e+001
1.035494e+003,3.382837e+001
1.036458e+003,3.119977e+001
1.037422e+003,3.174762e+001
1.038387e+003,3.474622e+001
1.039351e+003,3.955359e+001
1.040315e+003,4.293958e+001
1.041279e+003,4.232825e+001
1.042244e+003,3.898993e+001
1.043208e+003,3.858661e+001
1.044172e+003,4.329492e+001
1.045136e+003,4.660248e+001
1.046101e+003,4.906702e+001
1.047065e+003,4.991901e+001
1.048029e+003,4.720178e+001
1.048993e+003,4.207813e+001
1.049958e+003,3.888849e+001
1.050922e+003,4.016235e+001
1.051886e+003,4.328577e+001
1.052850e+003,4.665265e+001
1.053814e+003,4.942297e+001
1.054779e+003,4.952478e+001
1.055743e+003,4.695135e+001
1.056707e+003,4.492261e+001
1.057671e+003,4.756647e+001
1.058636e+003,5.485181e+001
1.059600e+003,5.785565e+001
1.060564e+003,5.368140e+001
1.061528e+003,5.061951e+001
1.062493e+003,4.950830e+001
1.063457e+003,4.944971e+001
1.064421e+003,5.024176e+001
1.065385e+003,5.192413e+001
1.066349e+003,5.274664e+001
1.067314e+003,5.142010e+001
1.068278e+003,4.939435e+001
1.069242e+003,4.719073e+001
1.070206e+003,4.540033e+001
1.071171e+003,4.470758e+001
1.072135e+003,4.523956e+001
1.073099e+003,4.649005e+001
1.074063e+003,4.787054e+001
1.075028e+003,4.948187e+001
1.075992e+003,5.231989e+001
1.076956e+003,5.843915e+001
1.077920e+003,6.173975e+001
1.078885e+003,5.867877e+001
1.079849e+003,5.233295e+001
1.080813e+003,4.785065e+001
1.081777e+003,4.601917e+001
1.082741e+003,4.578882e+001
1.083706e+003,4.770374e+001
1.084670e+003,4.950714e+001
1.085634e+003,4.959167e+001
1.086598e+003,4.866711e+001
1.087563e+003,4.857983e+001
1.088527e+003,5.042719e+001
1.089491e+003,5.326331e+001
1.090455e+003,5.476801e+001
1.091420e+003,5.447607e+001
1.092384e+003,5.328674e+001
1.093348e+003,5.026099e+001
1.094312e+003,4.750677e+001
1.095276e+003,4.644904e+001
1.096241e+003,4.701489e+001
1.097205e+003,4.881006e+001
1.098169e+003,5.260925e+001
1.099133e+003,5.438782e+001
1.100098e+003,5.100018e+001
1.101062e+003,4.714478e+001
1.102026e+003,4.581506e+001
1.102990e+003,4.655945e+001
1.103955e+003,4.738660e+001
1.104919e+003,4.700067e+001
1.105883e+003,4.587439e+001
1.106847e+003,4.503070e+001
1.107812e+003,4.448950e+001
1.108776e+003,4.523053e+001
1.109740e+003,4.800134e+001
1.110704e+003,5.060754e+001
1.111668e+003,5.156067e+001
1.112633e+003,5.143469e+001
1.113597e+003,5.192102e+001
1.114561e+003,5.367145e+001
1.115525e+003,5.408038e+001
1.116490e+003,5.084656e+001
1.117454e+003,4.754926e+001
1.118418e+003,4.665466e+001
1.119382e+003,4.811389e+001
1.120347e+003,5.079340e+001
1.121311e+003,5.371222e+001
1.122275e+003,5.589020e+001
1.123239e+003,5.605865e+001
1.124203e+003,5.476312e+001
1.125168e+003,5.354584e+001
1.126132e+003,5.222754e+001
1.127096e+003,5.202899e+001
1.128060e+003,5.440112e+001
1.129025e+003,5.855383e+001
1.129989e+003,6.116504e+001
1.130953e+003,6.118365e+001
1.131917e+003,6.117633e+001
1.132882e+003,6.177527e+001
1.133846e+003,6.290973e+001
1.134810e+003,6.484131e+001
1.135774e+003,6.728577e+001
1.136739e+003,6.947980e+001
1.137703e+003,7.098468e+001
1.138667e+003,7.253448e+001
1.139631e+003,7.552399e+001
1.140595e+003,7.986285e+001
1.141560e+003,8.451154e+001
1.142524e+003,8.926904e+001
1.143488e+003,9.591223e+001
1.144452e+003,1.062164e+002
1.145417e+003,1.192652e+002
1.146381e+003,1.316616e+002
1.147345e+003,1.427499e+002
1.148309e+003,1.543709e+002
1.149274e+003,1.664112e+002
1.150238e+003,1.799477e+002
1.151202e+003,1.979530e+002
1.152166e+003,2.176324e+002
1.153130e+003,2.342910e+002
1.154095e+003,2.453403e+002
1.155059e+003,2.511232e+002
1.156023e+003,2.525708e+002
1.156987e+003,2.495770e+002
1.157952e+003,2.422703e+002
1.158916e+003,2.306133e+002
1.159880e+003,2.186534e+002
1.160844e+003,2.085592e+002
1.161809e+003,1.984487e+002
1.162773e+003,1.844897e+002
1.163737e+003,1.655113e+002
1.164701e+003,1.481024e+002
1.165666e+003,1.343075e+002
1.166630e+003,1.225391e+002
1.167594e+003,1.123079e+002
1.168558e+003,1.036638e+002
1.169522e+003,9.673370e+001
1.170487e+003,9.161182e+001
1.171451e+003,8.882910e+001
1.172415e+003,8.931787e+001
1.173379e+003,9.203186e+001
1.174344e+003,9.146106e+001
1.175308e+003,8.752588e+001
1.176272e+003,8.467920e+001
1.177236e+003,8.572705e+001
1.178201e+003,8.772125e+001
1.179165e+003,8.623816e+001
1.180129e+003,8.099207e+001
1.181093e+003,7.658240e+001
1.182057e+003,7.485040e+001
1.183022e+003,7.305823e+001
1.183986e+003,6.920715e+001
1.184950e+003,6.552441e+001
1.185914e+003,6.434869e+001
1.186879e+003,6.579901e+001
1.187843e+003,6.866077e+001
1.188807e+003,7.191919e+001
1.189771e+003,7.471350e+001
1.190736e+003,7.444861e+001
1.191700e+003,7.069110e+001
1.192664e+003,6.793500e+001
1.193628e+003,6.705505e+001
1.194593e+003,6.699213e+001
1.195557e+003,6.773621e+001
1.196521e+003,6.862476e+001
1.197485e+003,6.715173e+001
1.198449e+003,6.221210e+001
1.199414e+003,5.743121e+001
1.200378e+003,5.378778e+001
1.201342e+003,5.147583e+001
1.202306e+003,5.168933e+001
1.203271e+003,5.302209e+001
1.204235e+003,5.265247e+001
1.205199e+003,4.940332e+001
1.206163e+003,4.528467e+001
1.207128e+003,4.371179e+001
1.208092e+003,4.492792e+001
1.209056e+003,4.364001e+001
1.210020e+003,3.867517e+001
1.210984e+003,3.409894e+001
1.211949e+003,3.175928e+001
1.212913e+003,2.984650e+001
1.213877e+003,2.559991e+001
1.214841e+003,1.904315e+001
1.215806e+003,1.393060e+001
1.216770e+003,1.165143e+001
1.217734e+003,1.125958e+001
1.218698e+003,1.328156e+001
1.219663e+003,1.549213e+001
1.220627e+003,1.477661e+001
1.221591e+003,1.100806e+001
1.222555e+003,6.768860e+000
1.223520e+003,4.499023e+000
1.224484e+003,3.875183e+000
1.225448e+003,2.717224e+000
1.226412e+003,8.911133e-002
1.227376e+003,-9.690552e-001
1.228341e+003,4.417725e-001
1.229305e+003,2.141663e+000
1.230269e+003,3.443359e+000
1.231233e+003,4.028259e+000
1.232198e+003,3.169067e+000
1.233162e+003,7.138672e-001
1.234126e+003,-1.364563e+000
1.235090e+003,-2.076111e+000
1.236055e+003,-1.621399e+000
1.237019e+003,5.822144e-001
1.237983e+003,3.587708e+000
1.238947e+003,5.104919e+000
1.239911e+003,4.335999e+000
1.240876e+003,2.810303e+000
1.241840e+003,2.771912e+000
1.242804e+003,4.397705e+000
1.243768e+003,4.598511e+000
1.244733e+003,6.137695e-001
1.245697e+003,-1.014221e+000
1.246661e+003,1.455444e+000
1.247625e+003,4.770264e+000
1.248590e+003,6.852966e+000
1.249554e+003,7.934326e+000
1.250518e+003,9.300720e+000
1.251482e+003,1.145618e+001
1.252447e+003,1.302191e+001
1.253411e+003,1.200720e+001
1.254375e+003,9.804016e+000
1.255339e+003,9.068542e+000
1.256303e+003,1.002612e+001
1.257268e+003,1.180225e+001
1.258232e+003,1.380798e+001
1.259196e+003,1.578815e+001
1.260160e+003,1.773230e+001
1.261125e+003,1.991498e+001
1.262089e+003,2.191486e+001
1.263053e+003,2.375922e+001
1.264017e+003,2.468127e+001
1.264982e+003,2.389685e+001
1.265946e+003,2.278162e+001
1.266910e+003,2.273633e+001
1.267874e+003,2.367657e+001
1.268839e+003,2.452716e+001
1.269803e+003,2.459607e+001
1.270767e+003,2.420251e+001
1.271731e+003,2.402618e+001
1.272695e+003,2.415118e+001
1.273660e+003,2.371698e+001
1.274624e+003,2.205481e+001
1.275588e+003,2.036273e+001
1.276552e+003,2.005219e+001
1.277517e+003,2.029828e+001
1.278481e+003,1.875336e+001
1.279445e+003,1.498456e+001
1.280409e+003,1.262274e+001
1.281374e+003,1.407233e+001
1.282338e+003,1.563867e+001
1.283302e+003,1.496124e+001
1.284266e+003,1.354016e+001
1.285230e+003,1.316083e+001
1.286195e+003,1.397766e+001
1.287159e+003,1.499091e+001
1.288123e+003,1.549304e+001
1.289087e+003,1.582996e+001
1.290052e+003,1.655420e+001
1.291016e+003,1.770093e+001
1.291980e+003,1.828857e+001
1.292944e+003,1.761920e+001
1.293909e+003,1.685846e+001
1.294873e+003,1.641101e+001
1.295837e+003,1.657660e+001
1.296801e+003,1.837146e+001
1.297766e+003,2.161835e+001
1.298730e+003,2.283185e+001
1.299694e+003,1.885144e+001
1.300658e+003,1.421558e+001
1.301622e+003,1.520770e+001
1.302587e+003,1.869849e+001
1.303551e+003,1.909491e+001
1.304515e+003,1.579254e+001
1.305479e+003,1.298358e+001
1.306444e+003,1.394299e+001
1.307408e+003,1.762347e+001
1.308372e+003,2.126080e+001
1.309336e+003,2.570764e+001
1.310301e+003,2.728668e+001
1.311265e+003,2.351233e+001
1.312229e+003,2.009943e+001
1.313193e+003,1.833063e+001
1.314157e+003,1.786694e+001
1.315122e+003,1.857608e+001
1.316086e+003,2.004773e+001
1.317050e+003,2.158954e+001
1.318014e+003,2.291550e+001
1.318979e+003,2.376193e+001
1.319943e+003,2.297205e+001
1.320907e+003,2.104510e+001
1.321871e+003,2.149954e+001
1.322836e+003,2.498270e+001
1.323800e+003,2.771643e+001
1.324764e+003,2.685638e+001
1.325728e+003,2.454410e+001
1.326693e+003,2.453372e+001
1.327657e+003,2.682300e+001
1.328621e+003,2.851599e+001
1.329585e+003,2.908023e+001
1.330549e+003,3.011526e+001
1.331514e+003,3.290106e+001
1.332478e+003,3.504266e+001
1.333442e+003,3.342252e+001
1.334406e+003,2.920102e+001
1.335371e+003,2.680695e+001
1.336335e+003,2.882190e+001
1.337299e+003,3.254379e+001
1.338263e+003,3.260434e+001
1.339228e+003,2.839941e+001
1.340192e+003,2.633710e+001
1.341156e+003,2.742563e+001
1.342120e+003,2.895901e+001
1.343084e+003,3.081482e+001
1.344049e+003,3.228491e+001
1.345013e+003,3.281888e+001
1.345977e+003,3.283560e+001
1.346941e+003,3.335571e+001
1.347906e+003,3.476208e+001
1.348870e+003,3.604160e+001
1.349834e+003,3.594504e+001
1.350798e+003,3.512427e+001
1.351763e+003,3.523926e+001
1.352727e+003,3.618985e+001
1.353691e+003,3.694217e+001
1.354655e+003,3.718567e+001
1.355620e+003,3.702222e+001
1.356584e+003,3.613034e+001
1.357548e+003,3.483224e+001
1.358512e+003,3.560999e+001
1.359476e+003,3.958984e+001
1.360441e+003,4.195157e+001
1.361405e+003,4.024277e+001
1.362369e+003,3.831049e+001
1.363333e+003,3.784106e+001
1.364298e+003,3.844678e+001
1.365262e+003,3.966599e+001
1.366226e+003,4.113211e+001
1.367190e+003,4.217914e+001
1.368155e+003,4.219336e+001
1.369119e+003,4.162338e+001
1.370083e+003,4.199661e+001
1.371047e+003,4.387744e+001
1.372011e+003,4.484906e+001
1.372976e+003,4.372263e+001
1.373940e+003,4.270981e+001
1.374904e+003,4.255664e+001
1.375868e+003,4.323236e+001
1.376833e+003,4.499741e+001
1.377797e+003,4.753830e+001
1.378761e+003,4.936646e+001
1.379725e+003,4.983307e+001
1.380690e+003,4.973563e+001
1.381654e+003,4.946280e+001
1.382618e+003,4.947272e+001
1.383582e+003,5.058289e+001
1.384547e+003,5.267850e+001
1.385511e+003,5.474643e+001
1.386475e+003,5.624554e+001
1.387439e+003,5.712793e+001
1.388403e+003,5.743527e+001
1.389368e+003,5.713809e+001
1.390332e+003,5.573047e+001
1.391296e+003,5.154407e+001
1.392260e+003,5.008151e+001
1.393225e+003,5.480399e+001
1.394189e+003,5.972418e+001
1.395153e+003,6.187579e+001
1.396117e+003,6.179727e+001
1.397082e+003,6.019601e+001
1.398046e+003,5.786499e+001
1.399010e+003,5.648810e+001
1.399974e+003,5.752017e+001
1.400938e+003,5.956503e+001
1.401903e+003,5.888580e+001
1.402867e+003,5.489642e+001
1.403831e+003,5.442642e+001
1.404795e+003,5.989200e+001
1.405760e+003,6.475452e+001
1.406724e+003,6.663568e+001
1.407688e+003,6.592990e+001
1.408652e+003,6.256308e+001
1.409617e+003,5.766455e+001
1.410581e+003,5.453430e+001
1.411545e+003,5.444406e+001
1.412509e+003,5.655948e+001
1.413474e+003,6.190543e+001
1.414438e+003,6.729718e+001
1.415402e+003,6.721539e+001
1.416366e+003,6.269107e+001
1.417330e+003,5.907791e+001
1.418295e+003,5.844049e+001
1.419259e+003,5.944965e+001
1.420223e+003,6.067117e+001
1.421187e+003,6.195816e+001
1.422152e+003,6.343933e+001
1.423116e+003,6.537219e+001
1.424080e+003,6.771487e+001
1.425044e+003,7.110611e+001
1.426009e+003,7.361053e+001
1.426973e+003,7.437750e+001
1.427937e+003,7.378769e+001
1.428901e+003,7.193216e+001
1.429865e+003,6.939557e+001
1.430830e+003,6.714136e+001
1.431794e+003,6.570755e+001
1.432758e+003,6.543845e+001
1.433722e+003,6.755029e+001
1.434687e+003,7.276721e+001
1.435651e+003,7.630820e+001
1.436615e+003,7.579898e+001
1.437579e+003,7.529938e+001
1.438544e+003,7.508917e+001
1.439508e+003,7.529532e+001
1.440472e+003,7.631998e+001
1.441436e+003,7.804987e+001
1.442401e+003,8.009381e+001
1.443365e+003,8.224100e+001
1.444329e+003,8.461212e+001
1.445293e+003,8.773212e+001
1.446257e+003,9.024030e+001
1.447222e+003,8.832391e+001
1.448186e+003,8.299878e+001
1.449150e+003,8.034137e+001
1.450114e+003,8.131683e+001
1.451079e+003,8.269214e+001
1.452043e+003,8.295508e+001
1.453007e+003,8.299304e+001
1.453971e+003,8.412097e+001
1.454936e+003,8.599414e+001
1.455900e+003,8.668884e+001
1.456864e+003,8.568323e+001
1.457828e+003,8.443933e+001
1.458792e+003,8.323102e+001
1.459757e+003,8.228357e+001
1.460721e+003,8.200323e+001
1.461685e+003,8.208472e+001
1.462649e+003,8.214240e+001
1.463614e+003,8.210919e+001
1.464578e+003,8.147540e+001
1.465542e+003,7.936237e+001
1.466506e+003,7.677271e+001
1.467471e+003,7.752716e+001
1.468435e+003,8.306592e+001
1.469399e+003,8.628040e+001
1.470363e+003,8.445380e+001
1.471328e+003,8.287866e+001
1.472292e+003,8.227118e+001
1.473256e+003,8.218237e+001
1.474220e+003,8.304016e+001
1.475184e+003,8.449194e+001
1.476149e+003,8.560431e+001
1.477113e+003,8.594617e+001
1.478077e+003,8.587439e+001
1.479041e+003,8.591077e+001
1.480006e+003,8.653516e+001
1.480970e+003,8.892786e+001
1.481934e+003,9.375568e+001
1.482898e+003,9.611975e+001
1.483863e+003,9.414758e+001
1.484827e+003,9.250476e+001
1.485791e+003,9.252136e+001
1.486755e+003,9.373309e+001
1.487719e+003,9.616058e+001
1.488684e+003,9.901367e+001
1.489648e+003,1.006442e+002
1.490612e+003,1.006977e+002
1.491576e+003,1.006311e+002
1.492541e+003,1.011594e+002
1.493505e+003,1.027738e+002
1.494469e+003,1.074893e+002
1.495433e+003,1.143933e+002
1.496398e+003,1.195948e+002
1.497362e+003,1.226348e+002
1.498326e+003,1.254883e+002
1.499290e+003,1.288077e+002
1.500255e+003,1.326636e+002
1.501219e+003,1.368278e+002
1.502183e+003,1.413907e+002
1.503147e+003,1.472076e+002
1.504111e+003,1.544014e+002
1.505076e+003,1.632391e+002
1.506040e+003,1.749521e+002
1.507004e+003,1.874234e+002
1.507968e+003,1.984553e+002
1.508933e+003,2.086589e+002
1.509897e+003,2.188740e+002
1.510861e+003,2.298311e+002
1.511825e+003,2.434866e+002
1.512790e+003,2.615561e+002
1.513754e+003,2.815208e+002
1.514718e+003,2.988234e+002
1.515682e+003,3.132250e+002
1.516646e+003,3.284517e+002
1.517611e+003,3.463611e+002
1.518575e+003,3.621484e+002
1.519539e+003,3.750684e+002
1.520503e+003,3.852435e+002
1.521468e+003,3.928925e+002
1.522432e+003,3.973741e+002
1.523396e+003,3.976637e+002
1.524360e+003,3.938278e+002
1.525325e+003,3.868158e+002
1.526289e+003,3.773569e+002
1.527253e+003,3.660942e+002
1.528217e+003,3.540513e+002
1.529182e+003,3.414695e+002
1.530146e+003,3.266234e+002
1.531110e+003,3.075840e+002
1.532074e+003,2.893422e+002
1.533039e+003,2.730024e+002
1.534003e+003,2.553604e+002
1.534967e+003,2.339706e+002
1.535931e+003,2.123485e+002
1.536896e+003,1.938483e+002
1.537860e+003,1.790717e+002
1.538824e+003,1.671614e+002
1.539788e+003,1.574971e+002
1.540752e+003,1.500663e+002
1.541717e+003,1.452106e+002
1.542681e+003,1.425994e+002
1.543645e+003,1.390474e+002
1.544609e+003,1.333203e+002
1.545573e+003,1.308525e+002
1.546538e+003,1.325638e+002
1.547502e+003,1.353734e+002
1.548466e+003,1.400060e+002
1.549430e+003,1.444675e+002
1.550395e+003,1.461920e+002
1.551359e+003,1.456494e+002
1.552323e+003,1.454158e+002
1.553287e+003,1.463237e+002
1.554252e+003,1.459216e+002
1.555216e+003,1.417800e+002
1.556180e+003,1.355168e+002
1.557144e+003,1.307221e+002
1.558109e+003,1.276003e+002
1.559073e+003,1.254628e+002
1.560037e+003,1.240465e+002
1.561001e+003,1.232365e+002
1.561966e+003,1.238346e+002
1.562930e+003,1.250067e+002
1.563894e+003,1.258937e+002
1.564858e+003,1.263986e+002
1.565823e+003,1.265555e+002
1.566787e+003,1.263574e+002
1.567751e+003,1.258522e+002
1.568715e+003,1.248383e+002
1.569679e+003,1.246334e+002
1.570644e+003,1.276432e+002
1.571608e+003,1.322336e+002
1.572572e+003,1.341605e+002
1.573536e+003,1.334416e+002
1.574500e+003,1.322668e+002
1.575465e+003,1.302924e+002
1.576429e+003,1.294910e+002
1.577393e+003,1.324879e+002
1.578357e+003,1.371577e+002
1.579322e+003,1.394073e+002
1.580286e+003,1.391868e+002
1.581250e+003,1.389175e+002
1.582214e+003,1.392680e+002
1.583179e+003,1.398724e+002
1.584143e+003,1.400217e+002
1.585107e+003,1.404196e+002
1.586071e+003,1.429828e+002
1.587036e+003,1.470784e+002
1.588000e+003,1.496381e+002
1.588964e+003,1.497525e+002
1.589928e+003,1.490858e+002
1.590893e+003,1.479847e+002
1.591857e+003,1.475435e+002
1.592821e+003,1.501605e+002
1.593785e+003,1.552040e+002
1.594750e+003,1.585520e+002
1.595714e+003,1.593534e+002
1.596678e+003,1.598524e+002
1.597642e+003,1.607627e+002
1.598606e+003,1.619879e+002
1.599571e+003,1.640751e+002
1.600535e+003,1.662247e+002
1.601499e+003,1.668521e+002
1.602463e+003,1.662180e+002
1.603427e+003,1.666235e+002
1.604392e+003,1.691916e+002
1.605356e+003,1.716830e+002
1.606320e+003,1.712525e+002
1.607284e+003,1.692090e+002
1.608249e+003,1.696611e+002
1.609213e+003,1.727301e+002
1.610177e+003,1.743256e+002
1.611141e+003,1.729237e+002
1.612106e+003,1.721757e+002
1.613070e+003,1.751818e+002
1.614034e+003,1.781825e+002
1.614998e+003,1.776902e+002
1.615963e+003,1.756401e+002
1.616927e+003,1.755402e+002
1.617891e+003,1.777029e+002
1.618855e+003,1.798093e+002
1.619820e+003,1.803620e+002
1.620784e+003,1.799692e+002
1.621748e+003,1.799236e+002
1.622712e+003,1.805279e+002
1.623677e+003,1.811920e+002
1.624641e+003,1.819625e+002
1.625605e+003,1.826350e+002
1.626569e+003,1.819125e+002
1.627533e+003,1.817338e+002
1.628498e+003,1.839512e+002
1.629462e+003,1.869267e+002
1.630426e+003,1.899451e+002
1.631390e+003,1.922840e+002
1.632354e+003,1.923321e+002
1.633319e+003,1.899612e+002
1.634283e+003,1.875994e+002
1.635247e+003,1.869060e+002
1.636211e+003,1.874737e+002
1.637176e+003,1.892607e+002
1.638140e+003,1.922170e+002
1.639104e+003,1.934498e+002
1.640068e+003,1.922871e+002
1.641033e+003,1.911485e+002
1.641997e+003,1.909686e+002
1.642961e+003,1.907235e+002
1.643925e+003,1.889595e+002
1.644890e+003,1.875629e+002
1.645854e+003,1.891041e+002
1.646818e+003,1.924210e+002
1.647782e+003,1.942903e+002
1.648747e+003,1.937263e+002
1.649711e+003,1.924220e+002
1.650675e+003,1.919550e+002
1.651639e+003,1.918273e+002
1.652604e+003,1.904150e+002
1.653568e+003,1.876338e+002
1.654532e+003,1.855969e+002
1.655496e+003,1.844500e+002
1.656460e+003,1.839819e+002
1.657425e+003,1.848476e+002
1.658389e+003,1.856699e+002
1.659353e+003,1.853807e+002
1.660317e+003,1.848691e+002
1.661281e+003,1.854835e+002
1.662246e+003,1.866108e+002
1.663210e+003,1.862454e+002
1.664174e+003,1.838869e+002
1.665138e+003,1.815685e+002
1.666103e+003,1.811047e+002
1.667067e+003,1.812329e+002
1.668031e+003,1.790127e+002
1.668995e+003,1.748058e+002
1.669960e+003,1.731409e+002
1.670924e+003,1.751088e+002
1.671888e+003,1.766948e+002
1.672852e+003,1.763685e+002
1.673817e+003,1.754899e+002
1.674781e+003,1.745594e+002
1.675745e+003,1.737889e+002
1.676709e+003,1.739064e+002
1.677674e+003,1.743536e+002
1.678638e+003,1.730161e+002
1.679602e+003,1.692891e+002
1.680566e+003,1.663037e+002
1.681531e+003,1.672827e+002
1.682495e+003,1.697094e+002
1.683459e+003,1.685015e+002
1.684423e+003,1.642410e+002
1.685387e+003,1.618439e+002
1.686352e+003,1.620768e+002
1.687316e+003,1.621417e+002
1.688280e+003,1.610625e+002
1.689244e+003,1.597411e+002
1.690208e+003,1.586236e+002
1.691173e+003,1.576289e+002
1.692137e+003,1.567344e+002
1.693101e+003,1.561819e+002
1.694065e+003,1.563001e+002
1.695030e+003,1.569830e+002
1.695994e+003,1.571312e+002
1.696958e+003,1.559514e+002
1.697922e+003,1.543211e+002
1.698887e+003,1.531827e+002
1.699851e+003,1.525690e+002
1.700815e+003,1.525243e+002
1.701779e+003,1.529081e+002
1.702744e+003,1.526677e+002
1.703708e+003,1.513849e+002
1.704672e+003,1.510829e+002
1.705636e+003,1.540512e+002
1.706601e+003,1.572256e+002
1.707565e+003,1.557963e+002
1.708529e+003,1.513625e+002
1.709493e+003,1.482124e+002
1.710458e+003,1.468145e+002
1.711422e+003,1.464763e+002
1.712386e+003,1.481274e+002
1.713350e+003,1.496842e+002
1.714314e+003,1.487442e+002
1.715279e+003,1.465806e+002
1.716243e+003,1.456809e+002
1.717207e+003,1.459471e+002
1.718171e+003,1.456819e+002
1.719135e+003,1.444733e+002
1.720100e+003,1.432674e+002
1.721064e+003,1.426200e+002
1.722028e+003,1.420913e+002
1.722992e+003,1.409959e+002
1.723957e+003,1.399189e+002
1.724921e+003,1.410798e+002
1.725885e+003,1.446885e+002
1.726849e+003,1.463782e+002
1.727814e+003,1.448179e+002
1.728778e+003,1.430434e+002
1.729742e+003,1.413145e+002
1.730706e+003,1.407006e+002
1.731671e+003,1.430661e+002
1.732635e+003,1.465858e+002
1.733599e+003,1.480847e+002
1.734563e+003,1.472899e+002
1.735528e+003,1.454626e+002
1.736492e+003,1.431651e+002
1.737456e+003,1.410999e+002
1.738420e+003,1.400507e+002
1.739385e+003,1.398904e+002
1.740349e+003,1.410716e+002
1.741313e+003,1.445153e+002
1.742277e+003,1.455029e+002
1.743241e+003,1.425083e+002
1.744206e+003,1.400435e+002
1.745170e+003,1.386300e+002
1.746134e+003,1.376510e+002
1.747098e+003,1.369541e+002
1.748063e+003,1.363202e+002
1.749027e+003,1.353142e+002
1.749991e+003,1.342906e+002
1.750955e+003,1.341056e+002
1.751919e+003,1.349612e+002
1.752884e+003,1.363370e+002
1.753848e+003,1.378117e+002
1.754812e+003,1.392227e+002
1.755776e+003,1.404605e+002
1.756741e+003,1.417161e+002
1.757705e+003,1.423201e+002
1.758669e+003,1.421631e+002
1.759633e+003,1.410420e+002
1.760598e+003,1.370631e+002
1.761562e+003,1.344970e+002
1.762526e+003,1.362363e+002
1.763490e+003,1.385626e+002
1.764455e+003,1.386584e+002
1.765419e+003,1.377318e+002
1.766383e+003,1.377669e+002
1.767347e+003,1.388521e+002
1.768312e+003,1.401482e+002
1.769276e+003,1.412156e+002
1.770240e+003,1.414557e+002
1.771204e+003,1.402707e+002
1.772168e+003,1.385109e+002
1.773133e+003,1.373866e+002
1.774097e+003,1.369232e+002
1.775061e+003,1.378377e+002
1.776025e+003,1.402693e+002
1.776990e+003,1.415428e+002
1.777954e+003,1.401875e+002
1.778918e+003,1.396402e+002
1.779882e+003,1.435525e+002
1.780846e+003,1.482738e+002
1.781811e+003,1.488791e+002
1.782775e+003,1.464492e+002
1.783739e+003,1.441661e+002
1.784703e+003,1.424796e+002
1.785668e+003,1.417574e+002
1.786632e+003,1.423509e+002
1.787596e+003,1.431082e+002
1.788560e+003,1.436230e+002
1.789525e+003,1.441080e+002
1.790489e+003,1.444964e+002
1.791453e+003,1.447106e+002
1.792417e+003,1.448911e+002
1.793382e+003,1.450591e+002
1.794346e+003,1.448639e+002
1.795310e+003,1.440401e+002
1.796274e+003,1.432532e+002
1.797239e+003,1.433851e+002
1.798203e+003,1.445555e+002
1.799167e+003,1.463354e+002
1.800131e+003,1.484072e+002
1.801095e+003,1.498954e+002
1.802060e+003,1.514187e+002
1.803024e+003,1.523533e+002
1.803988e+003,1.521342e+002
1.804952e+003,1.515986e+002
1.805917e+003,1.508426e+002
1.806881e+003,1.501986e+002
1.807845e+003,1.502785e+002
1.808809e+003,1.507532e+002
1.809773e+003,1.506384e+002
1.810738e+003,1.498893e+002
1.811702e+003,1.495591e+002
1.812666e+003,1.502824e+002
1.813630e+003,1.516786e+002
1.814595e+003,1.533715e+002
1.815559e+003,1.550733e+002
1.816523e+003,1.558846e+002
1.817487e+003,1.558438e+002
1.818452e+003,1.550194e+002
1.819416e+003,1.532272e+002
1.820380e+003,1.518389e+002
1.821344e+003,1.509207e+002
1.822309e+003,1.504444e+002
1.823273e+003,1.508722e+002
1.824237e+003,1.516635e+002
1.825201e+003,1.521012e+002
1.826166e+003,1.522500e+002
1.827130e+003,1.525203e+002
1.828094e+003,1.529008e+002
1.829058e+003,1.531820e+002
1.830022e+003,1.532769e+002
1.830987e+003,1.536140e+002
1.831951e+003,1.551219e+002
1.832915e+003,1.566801e+002
1.833879e+003,1.560052e+002
1.834844e+003,1.540211e+002
1.835808e+003,1.540034e+002
1.836772e+003,1.562648e+002
1.837736e+003,1.581372e+002
1.838700e+003,1.583562e+002
1.839665e+003,1.577150e+002
1.840629e+003,1.569057e+002
1.841593e+003,1.562224e+002
1.842557e+003,1.561808e+002
1.843522e+003,1.567568e+002
1.844486e+003,1.568828e+002
1.845450e+003,1.565720e+002
1.846414e+003,1.563503e+002
1.847379e+003,1.553466e+002
1.848343e+003,1.548741e+002
1.849307e+003,1.563232e+002
1.850271e+003,1.576463e+002
1.851236e+003,1.566404e+002
1.852200e+003,1.552582e+002
1.853164e+003,1.562532e+002
1.854128e+003,1.592066e+002
1.855093e+003,1.622966e+002
1.856057e+003,1.648470e+002
1.857021e+003,1.663739e+002
1.857985e+003,1.662458e+002
1.858949e+003,1.652238e+002
1.859914e+003,1.644923e+002
1.860878e+003,1.641547e+002
1.861842e+003,1.645259e+002
1.862806e+003,1.655437e+002
1.863771e+003,1.665940e+002
1.864735e+003,1.676176e+002
1.865699e+003,1.679020e+002
1.866663e+003,1.667408e+002
1.867627e+003,1.659558e+002
1.868592e+003,1.675788e+002
1.869556e+003,1.699289e+002
1.870520e+003,1.700412e+002
1.871484e+003,1.682382e+002
1.872449e+003,1.666374e+002
1.873413e+003,1.656686e+002
1.874377e+003,1.665993e+002
1.875341e+003,1.709867e+002
1.876306e+003,1.746846e+002
1.877270e+003,1.748040e+002
1.878234e+003,1.736562e+002
1.879198e+003,1.737550e+002
1.880163e+003,1.744709e+002
1.881127e+003,1.739635e+002
1.882091e+003,1.724414e+002
1.883055e+003,1.717609e+002
1.884020e+003,1.726693e+002
1.884984e+003,1.745185e+002
1.885948e+003,1.767965e+002
1.886912e+003,1.787772e+002
1.887876e+003,1.788434e+002
1.888841e+003,1.772363e+002
1.889805e+003,1.767293e+002
1.890769e+003,1.775937e+002
1.891733e+003,1.780996e+002
1.892698e+003,1.778780e+002
1.893662e+003,1.772896e+002
1.894626e+003,1.755354e+002
1.895590e+003,1.748414e+002
1.896554e+003,1.786113e+002
1.897519e+003,1.831744e+002
1.898483e+003,1.830816e+002
1.899447e+003,1.795629e+002
1.900411e+003,1.783914e+002
1.901376e+003,1.807633e+002
1.902340e+003,1.820535e+002
1.903304e+003,1.789952e+002
1.904268e+003,1.767616e+002
1.905233e+003,1.800282e+002
1.906197e+003,1.843687e+002
1.907161e+003,1.852857e+002
1.908125e+003,1.839642e+002
1.909090e+003,1.821945e+002
1.910054e+003,1.805540e+002
1.911018e+003,1.799401e+002
1.911982e+003,1.806903e+002
1.912947e+003,1.821590e+002
1.913911e+003,1.838080e+002
1.914875e+003,1.857115e+002
1.915839e+003,1.880221e+002
1.916803e+003,1.902620e+002
1.917768e+003,1.907034e+002
1.918732e+003,1.891367e+002
1.919696e+003,1.882113e+002
1.920660e+003,1.882249e+002
1.921625e+003,1.885416e+002
1.922589e+003,1.888367e+002
1.923553e+003,1.893926e+002
1.924517e+003,1.903360e+002
1.925481e+003,1.916961e+002
1.926446e+003,1.942618e+002
1.927410e+003,1.970012e+002
1.928374e+003,1.976026e+002
1.929338e+003,1.959342e+002
1.930303e+003,1.942646e+002
1.931267e+003,1.934593e+002
1.932231e+003,1.928549e+002
1.933195e+003,1.908209e+002
1.934160e+003,1.899317e+002
1.935124e+003,1.938346e+002
1.936088e+003,1.983833e+002
1.937052e+003,1.979735e+002
1.938017e+003,1.946050e+002
1.938981e+003,1.931902e+002
1.939945e+003,1.943930e+002
1.940909e+003,1.961466e+002
1.941874e+003,1.973300e+002
1.942838e+003,1.977270e+002
1.943802e+003,1.972704e+002
1.944766e+003,1.967761e+002
1.945730e+003,1.974023e+002
1.946695e+003,1.989300e+002
1.947659e+003,2.012907e+002
1.948623e+003,2.047080e+002
1.949587e+003,2.054178e+002
1.950552e+003,2.023075e+002
1.951516e+003,1.998768e+002
1.952480e+003,1.993350e+002
1.953444e+003,2.004688e+002
1.954408e+003,2.045479e+002
1.955373e+003,2.085433e+002
1.956337e+003,2.073520e+002
1.957301e+003,2.029997e+002
1.958265e+003,2.022993e+002
1.959230e+003,2.060544e+002
1.960194e+003,2.080555e+002
1.961158e+003,2.056849e+002
1.962122e+003,2.034340e+002
1.963087e+003,2.019175e+002
1.964051e+003,2.015803e+002
1.965015e+003,2.035208e+002
1.965979e+003,2.064377e+002
1.966944e+003,2.098152e+002
1.967908e+003,2.123490e+002
1.968872e+003,2.113901e+002
1.969836e+003,2.077865e+002
1.970801e+003,2.061748e+002
1.971765e+003,2.084211e+002
1.972729e+003,2.112135e+002
1.973693e+003,2.117379e+002
1.974657e+003,2.112518e+002
1.975622e+003,2.113765e+002
1.976586e+003,2.119102e+002
1.977550e+003,2.127574e+002
1.978514e+003,2.138493e+002
1.979479e+003,2.144662e+002
1.980443e+003,2.144466e+002
1.981407e+003,2.135700e+002
1.982371e+003,2.117435e+002
1.983335e+003,2.111145e+002
1.984300e+003,2.133777e+002
1.985264e+003,2.164782e+002
1.986228e+003,2.173234e+002
1.987192e+003,2.164518e+002
1.988157e+003,2.166808e+002
1.989121e+003,2.182075e+002
1.990085e+003,2.204557e+002
1.991049e+003,2.254845e+002
1.992014e+003,2.273159e+002
1.992978e+003,2.217072e+002
1.993942e+003,2.173724e+002
1.994906e+003,2.179757e+002
1.995871e+003,2.201736e+002
1.996835e+003,2.228847e+002
1.997799e+003,2.249804e+002
1.998763e+003,2.240493e+002
1.999728e+003,2.208195e+002
