5.003444e+002,1.777332e+002
5.013087e+002,1.815104e+002
5.022729e+002,1.805590e+002
5.032371e+002,1.765475e+002
5.042014e+002,1.740704e+002
5.051656e+002,1.729302e+002
5.061298e+002,1.709564e+002
5.070941e+002,1.657328e+002
5.080583e+002,1.557110e+002
5.090225e+002,1.497152e+002
5.099868e+002,1.488512e+002
5.109510e+002,1.493027e+002
5.119152e+002,1.493834e+002
5.128795e+002,1.490172e+002
5.138437e+002,1.489760e+002
5.148079e+002,1.506817e+002
5.157722e+002,1.520221e+002
5.167364e+002,1.523273e+002
5.177006e+002,1.510706e+002
5.186649e+002,1.476320e+002
5.196291e+002,1.396305e+002
5.205933e+002,1.312888e+002
5.215576e+002,1.268531e+002
5.225218e+002,1.261454e+002
5.234860e+002,1.270516e+002
5.244503e+002,1.263900e+002
5.254145e+002,1.243323e+002
5.263787e+002,1.226283e+002
5.273430e+002,1.210714e+002
5.283072e+002,1.199921e+002
5.292714e+002,1.199230e+002
5.302357e+002,1.212861e+002
5.311999e+002,1.206955e+002
5.321641e+002,1.185050e+002
5.331284e+002,1.154670e+002
5.340926e+002,1.111968e+002
5.350568e+002,1.050793e+002
5.360211e+002,9.957843e+001
5.369853e+002,9.836511e+001
5.379495e+002,9.906183e+001
5.389138e+002,1.000188e+002
5.398780e+002,1.002935e+002
5.408422e+002,9.970538e+001
5.418065e+002,9.744708e+001
5.427707e+002,9.383234e+001
5.437349e+002,9.124890e+001
5.446992e+002,9.039685e+001
5.456634e+002,9.078461e+001
5.466276e+002,9.090619e+001
5.475919e+002,9.169257e+001
5.485561e+002,9.125037e+001
5.495203e+002,8.839978e+001
5.504846e+002,8.421558e+001
5.514488e+002,8.042450e+001
5.524130e+002,7.801892e+001
5.533773e+002,7.607153e+001
5.543415e+002,7.447595e+001
5.553057e+002,7.279474e+001
5.562700e+002,7.016498e+001
5.572342e+002,6.600555e+001
5.581984e+002,6.140173e+001
5.591627e+002,5.965973e+001
5.601269e+002,6.008197e+001
5.610911e+002,6.087897e+001
5.620554e+002,6.101813e+001
5.630196e+002,6.032025e+001
5.639838e+002,5.900702e+001
5.649481e+002,5.683899e+001
5.659123e+002,5.448700e+001
5.668765e+002,5.230328e+001
5.678408e+002,5.073010e+001
5.688050e+002,5.022174e+001
5.697692e+002,5.082208e+001
5.707335e+002,5.098944e+001
5.716977e+002,5.110205e+001
5.726619e+002,5.069739e+001
5.736262e+002,4.879364e+001
5.745904e+002,4.441107e+001
5.755546e+002,4.016382e+001
5.765189e+002,3.945850e+001
5.774831e+002,4.090387e+001
5.784473e+002,4.355957e+001
5.794116e+002,4.697736e+001
5.803758e+002,5.108209e+001
5.813400e+002,4.941858e+001
5.823043e+002,3.904022e+001
5.832685e+002,3.028320e+001
5.842327e+002,2.826947e+001
5.851970e+002,3.218274e+001
5.861612e+002,3.440985e+001
5.871254e+002,3.019049e+001
5.880897e+002,2.773431e+001
5.890539e+002,2.967859e+001
5.900181e+002,3.392908e+001
5.909824e+002,3.712671e+001
5.919466e+002,3.742780e+001
5.929108e+002,3.582373e+001
5.938751e+002,3.290985e+001
5.948393e+002,2.951996e+001
5.958035e+002,2.702521e+001
5.967678e+002,2.648389e+001
5.977320e+002,2.785803e+001
5.986962e+002,2.982562e+001
5.996605e+002,3.206238e+001
6.006247e+002,3.274371e+001
6.015889e+002,3.032916e+001
6.025532e+002,2.516315e+001
6.035174e+002,2.142511e+001
6.044816e+002,2.042383e+001
6.054459e+002,1.980768e+001
6.064101e+002,1.921265e+001
6.073743e+002,1.874500e+001
6.083386e+002,1.893085e+001
6.093028e+002,2.072473e+001
6.102670e+002,2.209515e+001
6.112313e+002,2.072626e+001
6.121955e+002,1.818323e+001
6.131597e+002,1.654724e+001
6.141240e+002,1.721497e+001
6.150882e+002,1.949786e+001
6.160524e+002,2.133014e+001
6.170167e+002,2.302631e+001
6.179809e+002,2.333099e+001
6.189451e+002,2.083569e+001
6.199094e+002,1.583875e+001
6.208736e+002,1.255511e+001
6.218378e+002,1.295782e+001
6.228021e+002,1.412122e+001
6.237663e+002,1.709290e+001
6.247305e+002,2.052972e+001
6.256948e+002,2.176654e+001
6.266590e+002,1.809711e+001
6.276232e+002,1.474353e+001
6.285875e+002,1.629565e+001
6.295517e+002,1.978021e+001
6.305159e+002,2.209283e+001
6.314802e+002,2.135901e+001
6.324444e+002,1.823560e+001
6.334086e+002,1.415784e+001
6.343729e+002,9.930847e+000
6.353371e+002,6.960327e+000
6.363013e+002,5.765442e+000
6.372656e+002,5.728821e+000
6.382298e+002,5.020081e+000
6.391940e+002,1.337524e+000
6.401583e+002,-9.979248e-002
6.411225e+002,4.151794e+000
6.420867e+002,9.996704e+000
6.430510e+002,1.182452e+001
6.440152e+002,6.667114e+000
6.449794e+002,7.424316e-001
6.459437e+002,-3.143738e+000
6.469079e+002,-5.955383e+000
6.478721e+002,-8.477051e+000
6.488364e+002,-1.076300e+001
6.498006e+002,-1.176868e+001
6.507648e+002,-8.418945e+000
6.517291e+002,-2.938354e+000
6.526933e+002,-1.004761e+000
6.536575e+002,-3.901672e+000
6.546218e+002,-8.875366e+000
6.555860e+002,-1.055029e+001
6.565502e+002,-6.811401e+000
6.575145e+002,-4.110535e+000
6.584787e+002,-2.452515e+000
6.594429e+002,-1.576477e+000
6.604072e+002,-1.619995e+000
6.613714e+002,-2.733398e+000
6.623356e+002,-3.233337e+000
6.632999e+002,-2.075928e+000
6.642641e+002,-9.591064e-001
6.652283e+002,-3.115234e-001
6.661926e+002,-4.760742e-002
6.671568e+002,1.234741e-001
6.681210e+002,2.097778e-001
6.690853e+002,8.612061e-002
6.700495e+002,1.849976e-001
6.710137e+002,4.940796e-001
6.719780e+002,5.236816e-001
6.729422e+002,-4.326782e-001
6.739064e+002,-2.935120e+000
6.748707e+002,-4.002502e+000
6.758349e+002,-3.187317e+000
6.767991e+002,-2.138184e+000
6.777634e+002,-9.814453e-001
6.787276e+002,5.256958e-001
6.796918e+002,2.242981e+000
6.806561e+002,4.370972e+000
6.816203e+002,5.335327e+000
6.825845e+002,3.537659e+000
6.835488e+002,4.152222e-001
6.845130e+002,-1.481384e+000
6.854772e+002,-9.704590e-003
6.864415e+002,3.197449e+000
6.874057e+002,3.180847e+000
6.883699e+002,6.051025e-001
6.893342e+002,-1.561218e+000
6.902984e+002,-1.464539e+000
6.912626e+002,5.967407e-001
6.922269e+002,1.506531e+000
6.931911e+002,1.060852e+000
6.941553e+002,1.096130e+000
6.951196e+002,1.378601e+000
6.960838e+002,1.492676e+000
6.970480e+002,1.090088e+000
6.980123e+002,7.238770e-002
6.989765e+002,-7.026367e-001
6.999407e+002,-1.438965e+000
7.009050e+002,-1.677734e+000
7.018692e+002,-8.457031e-001
7.028334e+002,1.073792e+000
7.037977e+002,3.289795e+000
7.047619e+002,5.094727e+000
7.057261e+002,6.662292e+000
7.066904e+002,7.286377e+000
7.076546e+002,6.815674e+000
7.086188e+002,6.243652e+000
7.095831e+002,7.293518e+000
7.105473e+002,1.099274e+001
7.115115e+002,1.193353e+001
7.124758e+002,8.094238e+000
7.134400e+002,3.806274e+000
7.144042e+002,2.017944e+000
7.153685e+002,2.976563e+000
7.163327e+002,3.892151e+000
7.172969e+002,3.451294e+000
7.182612e+002,2.857361e+000
7.192254e+002,2.384949e+000
7.201896e+002,1.900818e+000
7.211539e+002,1.096924e+000
7.221181e+002,-2.799072e-001
7.230823e+002,-1.842896e+000
7.240466e+002,-2.508301e+000
7.250108e+002,-2.098511e+000
7.259750e+002,-1.409302e+000
7.269393e+002,-1.454468e+000
7.279035e+002,-2.444763e+000
7.288677e+002,-2.066528e+000
7.298320e+002,3.991516e+000
7.307962e+002,7.918884e+000
7.317604e+002,7.757324e+000
7.327247e+002,5.884216e+000
7.336889e+002,5.236816e+000
7.346531e+002,6.106323e+000
7.356174e+002,6.655457e+000
7.365816e+002,7.018738e+000
7.375458e+002,7.545349e+000
7.385101e+002,8.527954e+000
7.394743e+002,9.942749e+000
7.404385e+002,1.133240e+001
7.414028e+002,1.164307e+001
7.423670e+002,1.027509e+001
7.433312e+002,9.268066e+000
7.442955e+002,9.504700e+000
7.452597e+002,1.057001e+001
7.462239e+002,1.165802e+001
7.471882e+002,1.253540e+001
7.481524e+002,1.342480e+001
7.491166e+002,1.447095e+001
7.500809e+002,1.404480e+001
7.510451e+002,1.025024e+001
7.520093e+002,4.298279e+000
7.529736e+002,4.808350e-001
7.539378e+002,2.780640e+000
7.549020e+002,5.963135e+000
7.558663e+002,6.499878e+000
7.568306e+002,5.560181e+000
7.577948e+002,4.646362e+000
7.587590e+002,4.525391e+000
7.597233e+002,4.576355e+000
7.606875e+002,3.821289e+000
7.616517e+002,2.721802e+000
7.626160e+002,2.251160e+000
7.635802e+002,2.827698e+000
7.645444e+002,4.208130e+000
7.655087e+002,5.685120e+000
7.664729e+002,6.672729e+000
7.674371e+002,8.872437e+000
7.684014e+002,1.417426e+001
7.693656e+002,1.880804e+001
7.703298e+002,2.008374e+001
7.712941e+002,1.795538e+001
7.722583e+002,1.524799e+001
7.732225e+002,1.360187e+001
7.741868e+002,1.251331e+001
7.751510e+002,1.129272e+001
7.761152e+002,1.030774e+001
7.770795e+002,1.051080e+001
7.780437e+002,1.270459e+001
7.790079e+002,1.639832e+001
7.799722e+002,1.849371e+001
7.809364e+002,1.904669e+001
7.819006e+002,1.898566e+001
7.828649e+002,1.835266e+001
7.838291e+002,1.782172e+001
7.847933e+002,1.909082e+001
7.857576e+002,2.349414e+001
7.867218e+002,2.597717e+001
7.876860e+002,2.522864e+001
7.886503e+002,2.373767e+001
7.896145e+002,2.353632e+001
7.905787e+002,2.513580e+001
7.915430e+002,2.727881e+001
7.925072e+002,2.863660e+001
7.934714e+002,2.888556e+001
7.944357e+002,2.813885e+001
7.953999e+002,2.677002e+001
7.963641e+002,2.505347e+001
7.973284e+002,2.304871e+001
7.982926e+002,2.071765e+001
7.992568e+002,1.922986e+001
8.002211e+002,1.696252e+001
8.011853e+002,1.567212e+001
8.021495e+002,1.794952e+001
8.031138e+002,2.320392e+001
8.040780e+002,2.698523e+001
8.050422e+002,2.644861e+001
8.060065e+002,2.629828e+001
8.069707e+002,2.847089e+001
8.079349e+002,3.091107e+001
8.088992e+002,3.166669e+001
8.098634e+002,3.031775e+001
8.108276e+002,2.841681e+001
8.117919e+002,2.742218e+001
8.127561e+002,2.660223e+001
8.137203e+002,2.645135e+001
8.146846e+002,2.748120e+001
8.156488e+002,2.867578e+001
8.166130e+002,2.832184e+001
8.175773e+002,2.581097e+001
8.185415e+002,2.458783e+001
8.195057e+002,2.444482e+001
8.204700e+002,2.463916e+001
8.214342e+002,2.515527e+001
8.223984e+002,2.585583e+001
8.233627e+002,2.646423e+001
8.243269e+002,2.707910e+001
8.252911e+002,2.758936e+001
8.262554e+002,2.761261e+001
8.272196e+002,2.759363e+001
8.281838e+002,2.787756e+001
8.291481e+002,2.860449e+001
8.301123e+002,2.983368e+001
8.310765e+002,3.203204e+001
8.320408e+002,3.473981e+001
8.330050e+002,3.501935e+001
8.339692e+002,3.234296e+001
8.349335e+002,2.879193e+001
8.358977e+002,2.637433e+001
8.368619e+002,2.534058e+001
8.378262e+002,2.561249e+001
8.387904e+002,2.801666e+001
8.397546e+002,2.997485e+001
8.407189e+002,3.054553e+001
8.416831e+002,3.041113e+001
8.426473e+002,3.069220e+001
8.436116e+002,3.184784e+001
8.445758e+002,3.406659e+001
8.455400e+002,3.841290e+001
8.465043e+002,4.244189e+001
8.474685e+002,4.348822e+001
8.484327e+002,4.142963e+001
8.493970e+002,3.841907e+001
8.503612e+002,3.743365e+001
8.513254e+002,3.857324e+001
8.522897e+002,4.018225e+001
8.532539e+002,4.214447e+001
8.542181e+002,4.402441e+001
8.551824e+002,4.592670e+001
8.561466e+002,4.837207e+001
8.571108e+002,5.191150e+001
8.580751e+002,5.677521e+001
8.590393e+002,6.009381e+001
8.600035e+002,6.063696e+001
8.609678e+002,6.025378e+001
8.619320e+002,6.088281e+001
8.628962e+002,6.323279e+001
8.638605e+002,6.634344e+001
8.648247e+002,6.938947e+001
8.657889e+002,7.184326e+001
8.667532e+002,7.214197e+001
8.677174e+002,7.009326e+001
8.686816e+002,6.830212e+001
8.696459e+002,7.016077e+001
8.706101e+002,7.664972e+001
8.715743e+002,8.129193e+001
8.725386e+002,8.341626e+001
8.735028e+002,8.489783e+001
8.744670e+002,8.460840e+001
8.754313e+002,8.365253e+001
8.763955e+002,8.474518e+001
8.773597e+002,8.961664e+001
8.783240e+002,9.465253e+001
8.792882e+002,9.685309e+001
8.802524e+002,9.784552e+001
8.812167e+002,9.886877e+001
8.821809e+002,1.003249e+002
8.831451e+002,1.021970e+002
8.841094e+002,1.046332e+002
8.850736e+002,1.078544e+002
8.860378e+002,1.094833e+002
8.870021e+002,1.085104e+002
8.879663e+002,1.084828e+002
8.889305e+002,1.119921e+002
8.898948e+002,1.180250e+002
8.908590e+002,1.220317e+002
8.918232e+002,1.229681e+002
8.927875e+002,1.238196e+002
8.937517e+002,1.248201e+002
8.947159e+002,1.263254e+002
8.956802e+002,1.286801e+002
8.966444e+002,1.314894e+002
8.976086e+002,1.334822e+002
8.985729e+002,1.335911e+002
8.995371e+002,1.328989e+002
9.005013e+002,1.320977e+002
9.014656e+002,1.317526e+002
9.024298e+002,1.334750e+002
9.033940e+002,1.384713e+002
9.043583e+002,1.456970e+002
9.053225e+002,1.499036e+002
9.062867e+002,1.475864e+002
9.072510e+002,1.458318e+002
9.082152e+002,1.452754e+002
9.091794e+002,1.461223e+002
9.101437e+002,1.494571e+002
9.111079e+002,1.554554e+002
9.120721e+002,1.592662e+002
9.130364e+002,1.546573e+002
9.140006e+002,1.489068e+002
9.149648e+002,1.462805e+002
9.159291e+002,1.466403e+002
9.168933e+002,1.483579e+002
9.178575e+002,1.500352e+002
9.188218e+002,1.514705e+002
9.197860e+002,1.530200e+002
9.207502e+002,1.545750e+002
9.217145e+002,1.539484e+002
9.226787e+002,1.504927e+002
9.236429e+002,1.460659e+002
9.246072e+002,1.426979e+002
9.255714e+002,1.402023e+002
9.265356e+002,1.376805e+002
9.274999e+002,1.343528e+002
9.284641e+002,1.312465e+002
9.294283e+002,1.290306e+002
9.303926e+002,1.275943e+002
9.313568e+002,1.266842e+002
9.323210e+002,1.261860e+002
9.332853e+002,1.254457e+002
9.342495e+002,1.234098e+002
9.352137e+002,1.202992e+002
9.361780e+002,1.161367e+002
9.371422e+002,1.113455e+002
9.381064e+002,1.076893e+002
9.390707e+002,1.072097e+002
9.400349e+002,1.098721e+002
9.409991e+002,1.125577e+002
9.419634e+002,1.165711e+002
9.429276e+002,1.187432e+002
9.438918e+002,1.173338e+002
9.448561e+002,1.140447e+002
9.458203e+002,1.116884e+002
9.467845e+002,1.112267e+002
9.477488e+002,1.115104e+002
9.487130e+002,1.120645e+002
9.496772e+002,1.124993e+002
9.506415e+002,1.126473e+002
9.516057e+002,1.123586e+002
9.525699e+002,1.112798e+002
9.535342e+002,1.089727e+002
9.544984e+002,1.054617e+002
9.554626e+002,1.026258e+002
9.564269e+002,1.012532e+002
9.573911e+002,1.000236e+002
9.583553e+002,9.735309e+001
9.593196e+002,9.487628e+001
9.602838e+002,9.605878e+001
9.612480e+002,1.021783e+002
9.622123e+002,1.063408e+002
9.631765e+002,1.052283e+002
9.641407e+002,1.034625e+002
9.651050e+002,1.031144e+002
9.660692e+002,1.035101e+002
9.670334e+002,1.030356e+002
9.679977e+002,1.009464e+002
9.689619e+002,9.823969e+001
9.699261e+002,9.497192e+001
9.708904e+002,9.160284e+001
9.718546e+002,9.133179e+001
9.728188e+002,9.482739e+001
9.737831e+002,1.009075e+002
9.747473e+002,1.089548e+002
9.757115e+002,1.199385e+002
9.766758e+002,1.284197e+002
9.776400e+002,1.340776e+002
9.786042e+002,1.384028e+002
9.795685e+002,1.425491e+002
9.805327e+002,1.444547e+002
9.814969e+002,1.410801e+002
9.824612e+002,1.316929e+002
9.834254e+002,1.206825e+002
9.843896e+002,1.102358e+002
9.853539e+002,1.008804e+002
9.863181e+002,9.348230e+001
9.872823e+002,8.778644e+001
9.882466e+002,8.359430e+001
9.892108e+002,8.129980e+001
9.901750e+002,8.109308e+001
9.911393e+002,7.982758e+001
9.921035e+002,7.416742e+001
9.930677e+002,7.041223e+001
9.940320e+002,6.995563e+001
9.949962e+002,7.150317e+001
9.959604e+002,7.429218e+001
9.969247e+002,7.823999e+001
9.978889e+002,8.240643e+001
9.988531e+002,8.575262e+001
9.998174e+002,8.857611e+001
1.000782e+003,9.183069e+001
1.001746e+003,9.521478e+001
1.002710e+003,9.845087e+001
1.003674e+003,1.011417e+002
1.004639e+003,1.022847e+002
1.005603e+003,9.988025e+001
1.006567e+003,9.332660e+001
1.007531e+003,8.882672e+001
1.008495e+003,8.713696e+001
1.009460e+003,8.596912e+001
1.010424e+003,8.388208e+001
1.011388e+003,8.136780e+001
1.012352e+003,8.026978e+001
1.013317e+003,8.181628e+001
1.014281e+003,8.208716e+001
1.015245e+003,7.968835e+001
1.016209e+003,7.569031e+001
1.017174e+003,7.015607e+001
1.018138e+003,6.388446e+001
1.019102e+003,5.847766e+001
1.020066e+003,5.538690e+001
1.021031e+003,5.422803e+001
1.021995e+003,5.339374e+001
1.022959e+003,5.240112e+001
1.023923e+003,5.087549e+001
1.024887e+003,4.860767e+001
1.025852e+003,4.570667e+001
1.026816e+003,4.242560e+001
1.027780e+003,3.896838e+001
1.028744e+003,3.582745e+001
1.029709e+003,3.201025e+001
1.030673e+003,2.950531e+001
1.031637e+003,2.969849e+001
1.032601e+003,3.098639e+001
1.033566e+003,3.128320e+001
1.034530e+003,2.999365e+001
1.035494e+003,2.840411e+001
1.036458e+003,2.733466e+001
1.037422e+003,2.695032e+001
1.038387e+003,2.808887e+001
1.039351e+003,3.042450e+001
1.040315e+003,3.219104e+001
1.041279e+003,3.213928e+001
1.042244e+003,3.087982e+001
1.043208e+003,3.053223e+001
1.044172e+003,3.083856e+001
1.045136e+003,3.180994e+001
1.046101e+003,3.451782e+001
1.047065e+003,3.719324e+001
1.048029e+003,3.850055e+001
1.048993e+003,3.853851e+001
1.049958e+003,3.824170e+001
1.050922e+003,3.793463e+001
1.051886e+003,3.848987e+001
1.052850e+003,4.136597e+001
1.053814e+003,4.509436e+001
1.054779e+003,4.802576e+001
1.055743e+003,4.961194e+001
1.056707e+003,4.974707e+001
1.057671e+003,4.820953e+001
1.058636e+003,4.489423e+001
1.059600e+003,4.302332e+001
1.060564e+003,4.442078e+001
1.061528e+003,4.562079e+001
1.062493e+003,4.537152e+001
1.063457e+003,4.441809e+001
1.064421e+003,4.421191e+001
1.065385e+003,4.503510e+001
1.066349e+003,4.472589e+001
1.067314e+003,4.071710e+001
1.068278e+003,3.707489e+001
1.069242e+003,3.718347e+001
1.070206e+003,3.959387e+001
1.071171e+003,4.166565e+001
1.072135e+003,4.214594e+001
1.073099e+003,4.204199e+001
1.074063e+003,4.348065e+001
1.075028e+003,4.690131e+001
1.075992e+003,4.808038e+001
1.076956e+003,4.581995e+001
1.077920e+003,4.310468e+001
1.078885e+003,4.156274e+001
1.079849e+003,4.067584e+001
1.080813e+003,3.866571e+001
1.081777e+003,3.480847e+001
1.082741e+003,3.296600e+001
1.083706e+003,3.677289e+001
1.084670e+003,4.088562e+001
1.085634e+003,4.326379e+001
1.086598e+003,4.349036e+001
1.087563e+003,4.081653e+001
1.088527e+003,3.534784e+001
1.089491e+003,2.976465e+001
1.090455e+003,2.883911e+001
1.091420e+003,3.286572e+001
1.092384e+003,3.694476e+001
1.093348e+003,4.162061e+001
1.094312e+003,4.481091e+001
1.095276e+003,4.516986e+001
1.096241e+003,4.363605e+001
1.097205e+003,4.218738e+001
1.098169e+003,4.063556e+001
1.099133e+003,3.936127e+001
1.100098e+003,3.903278e+001
1.101062e+003,3.890161e+001
1.102026e+003,3.826196e+001
1.102990e+003,3.749084e+001
1.103955e+003,3.756555e+001
1.104919e+003,3.897235e+001
1.105883e+003,4.078186e+001
1.106847e+003,4.101678e+001
1.107812e+003,3.962329e+001
1.108776e+003,3.994977e+001
1.109740e+003,4.312842e+001
1.110704e+003,4.599078e+001
1.111668e+003,4.622974e+001
1.112633e+003,4.471454e+001
1.113597e+003,4.406793e+001
1.114561e+003,4.443213e+001
1.115525e+003,4.507214e+001
1.116490e+003,4.590753e+001
1.117454e+003,4.665277e+001
1.118418e+003,4.699219e+001
1.119382e+003,4.756537e+001
1.120347e+003,4.993304e+001
1.121311e+003,5.469312e+001
1.122275e+003,5.876154e+001
1.123239e+003,5.590845e+001
1.124203e+003,4.742377e+001
1.125168e+003,4.329370e+001
1.126132e+003,4.540582e+001
1.127096e+003,4.920361e+001
1.128060e+003,5.113568e+001
1.129025e+003,5.153870e+001
1.129989e+003,5.281866e+001
1.130953e+003,5.560236e+001
1.131917e+003,5.772742e+001
1.132882e+003,5.850635e+001
1.133846e+003,5.903333e+001
1.134810e+003,5.947870e+001
1.135774e+003,6.035712e+001
1.136739e+003,6.240582e+001
1.137703e+003,6.599890e+001
1.138667e+003,7.072217e+001
1.139631e+003,7.597870e+001
1.140595e+003,8.180835e+001
1.141560e+003,8.893402e+001
1.142524e+003,9.783099e+001
1.143488e+003,1.076608e+002
1.144452e+003,1.180253e+002
1.145417e+003,1.287179e+002
1.146381e+003,1.384942e+002
1.147345e+003,1.454243e+002
1.148309e+003,1.563386e+002
1.149274e+003,1.755033e+002
1.150238e+003,1.964306e+002
1.151202e+003,2.180082e+002
1.152166e+003,2.387171e+002
1.153130e+003,2.568929e+002
1.154095e+003,2.712946e+002
1.155059e+003,2.809496e+002
1.156023e+003,2.851143e+002
1.156987e+003,2.837062e+002
1.157952e+003,2.777534e+002
1.158916e+003,2.676772e+002
1.159880e+003,2.554715e+002
1.160844e+003,2.404384e+002
1.161809e+003,2.230923e+002
1.162773e+003,2.061587e+002
1.163737e+003,1.902268e+002
1.164701e+003,1.722420e+002
1.165666e+003,1.458771e+002
1.166630e+003,1.238246e+002
1.167594e+003,1.120421e+002
1.168558e+003,1.068550e+002
1.169522e+003,1.039974e+002
1.170487e+003,1.015183e+002
1.171451e+003,9.894806e+001
1.172415e+003,9.553912e+001
1.173379e+003,9.157855e+001
1.174344e+003,8.967627e+001
1.175308e+003,9.019202e+001
1.176272e+003,8.928613e+001
1.177236e+003,8.404742e+001
1.178201e+003,7.832690e+001
1.179165e+003,7.803790e+001
1.180129e+003,8.299799e+001
1.181093e+003,8.366510e+001
1.182057e+003,7.462079e+001
1.183022e+003,6.661548e+001
1.183986e+003,6.364874e+001
1.184950e+003,6.350012e+001
1.185914e+003,6.500403e+001
1.186879e+003,6.727570e+001
1.187843e+003,6.887982e+001
1.188807e+003,6.849481e+001
1.189771e+003,6.691345e+001
1.190736e+003,6.724554e+001
1.191700e+003,6.978015e+001
1.192664e+003,7.064148e+001
1.193628e+003,6.906860e+001
1.194593e+003,6.682544e+001
1.195557e+003,6.461212e+001
1.196521e+003,6.257318e+001
1.197485e+003,6.173456e+001
1.198449e+003,6.298438e+001
1.199414e+003,6.332458e+001
1.200378e+003,6.054413e+001
1.201342e+003,5.725415e+001
1.202306e+003,5.468835e+001
1.203271e+003,5.275275e+001
1.204235e+003,5.092950e+001
1.205199e+003,4.906848e+001
1.206163e+003,4.774786e+001
1.207128e+003,4.806744e+001
1.208092e+003,5.024811e+001
1.209056e+003,4.871155e+001
1.210020e+003,4.176215e+001
1.210984e+003,3.529382e+001
1.211949e+003,3.137939e+001
1.212913e+003,2.840454e+001
1.213877e+003,2.417535e+001
1.214841e+003,1.871094e+001
1.215806e+003,1.442761e+001
1.216770e+003,1.275800e+001
1.217734e+003,1.154456e+001
1.218698e+003,8.617676e+000
1.219663e+003,5.248718e+000
1.220627e+003,3.301636e+000
1.221591e+003,2.920410e+000
1.222555e+003,2.610779e+000
1.223520e+003,1.023560e+000
1.224484e+003,-1.196716e+000
1.225448e+003,-1.645508e+000
1.226412e+003,1.274292e+000
1.227376e+003,2.095642e+000
1.228341e+003,-1.326782e+000
1.229305e+003,-4.617981e+000
1.230269e+003,-5.209290e+000
1.231233e+003,-4.081360e+000
1.232198e+003,-3.232605e+000
1.233162e+003,-3.016357e+000
1.234126e+003,-2.590027e+000
1.235090e+003,-8.734741e-001
1.236055e+003,3.067017e-001
1.237019e+003,-2.022461e+000
1.237983e+003,-6.425049e+000
1.238947e+003,-8.437805e+000
1.239911e+003,-6.060425e+000
1.240876e+003,-2.123169e+000
1.241840e+003,-1.101196e+000
1.242804e+003,-3.180542e+000
1.243768e+003,-4.307922e+000
1.244733e+003,-4.346191e+000
1.245697e+003,-3.412781e+000
1.246661e+003,-4.307251e-001
1.247625e+003,1.887512e+000
1.248590e+003,7.776489e-001
1.249554e+003,-2.335083e+000
1.250518e+003,-3.134583e+000
1.251482e+003,2.990723e-001
1.252447e+003,4.388245e+000
1.253411e+003,4.740662e+000
1.254375e+003,3.292847e+000
1.255339e+003,4.424561e+000
1.256303e+003,8.299194e+000
1.257268e+003,1.081305e+001
1.258232e+003,8.661438e+000
1.259196e+003,4.273132e+000
1.260160e+003,3.247864e+000
1.261125e+003,6.423279e+000
1.262089e+003,9.855530e+000
1.263053e+003,1.370337e+001
1.264017e+003,1.632159e+001
1.264982e+003,1.675543e+001
1.265946e+003,1.650403e+001
1.266910e+003,1.691833e+001
1.267874e+003,1.807538e+001
1.268839e+003,1.931543e+001
1.269803e+003,2.022467e+001
1.270767e+003,2.095081e+001
1.271731e+003,2.221179e+001
1.272695e+003,2.393311e+001
1.273660e+003,2.241998e+001
1.274624e+003,1.551532e+001
1.275588e+003,9.403015e+000
1.276552e+003,8.085754e+000
1.277517e+003,1.005328e+001
1.278481e+003,1.260352e+001
1.279445e+003,1.561792e+001
1.280409e+003,1.718457e+001
1.281374e+003,1.552832e+001
1.282338e+003,1.390851e+001
1.283302e+003,1.416571e+001
1.284266e+003,1.518933e+001
1.285230e+003,1.611255e+001
1.286195e+003,1.640930e+001
1.287159e+003,1.529700e+001
1.288123e+003,1.226190e+001
1.289087e+003,8.522644e+000
1.290052e+003,7.178711e+000
1.291016e+003,8.695801e+000
1.291980e+003,1.017627e+001
1.292944e+003,1.182300e+001
1.293909e+003,1.257544e+001
1.294873e+003,1.175226e+001
1.295837e+003,1.049805e+001
1.296801e+003,1.042603e+001
1.297766e+003,1.165570e+001
1.298730e+003,1.261841e+001
1.299694e+003,1.237170e+001
1.300658e+003,1.121014e+001
1.301622e+003,9.191650e+000
1.302587e+003,6.971313e+000
1.303551e+003,5.265747e+000
1.304515e+003,4.386536e+000
1.305479e+003,4.722595e+000
1.306444e+003,6.484497e+000
1.307408e+003,9.308044e+000
1.308372e+003,1.281354e+001
1.309336e+003,1.807526e+001
1.310301e+003,2.050549e+001
1.311265e+003,1.807391e+001
1.312229e+003,1.549799e+001
1.313193e+003,1.355206e+001
1.314157e+003,1.235950e+001
1.315122e+003,1.191400e+001
1.316086e+003,1.212238e+001
1.317050e+003,1.301422e+001
1.318014e+003,1.479852e+001
1.318979e+003,1.718915e+001
1.319943e+003,1.969800e+001
1.320907e+003,2.233466e+001
1.321871e+003,2.402002e+001
1.322836e+003,2.412549e+001
1.323800e+003,2.372491e+001
1.324764e+003,2.288245e+001
1.325728e+003,2.227844e+001
1.326693e+003,2.360901e+001
1.327657e+003,2.678778e+001
1.328621e+003,2.745343e+001
1.329585e+003,2.370142e+001
1.330549e+003,2.048773e+001
1.331514e+003,1.870422e+001
1.332478e+003,1.832391e+001
1.333442e+003,2.091907e+001
1.334406e+003,2.544104e+001
1.335371e+003,2.819659e+001
1.336335e+003,2.701428e+001
1.337299e+003,2.417273e+001
1.338263e+003,2.400000e+001
1.339228e+003,2.700171e+001
1.340192e+003,2.801074e+001
1.341156e+003,2.500000e+001
1.342120e+003,2.308636e+001
1.343084e+003,2.327722e+001
1.344049e+003,2.394836e+001
1.345013e+003,2.406622e+001
1.345977e+003,2.395941e+001
1.346941e+003,2.435803e+001
1.347906e+003,2.548114e+001
1.348870e+003,2.742584e+001
1.349834e+003,3.104663e+001
1.350798e+003,3.463409e+001
1.351763e+003,3.525922e+001
1.352727e+003,3.339758e+001
1.353691e+003,3.120361e+001
1.354655e+003,2.923871e+001
1.355620e+003,2.809625e+001
1.356584e+003,2.894336e+001
1.357548e+003,3.160889e+001
1.358512e+003,3.354449e+001
1.359476e+003,3.424164e+001
1.360441e+003,3.410065e+001
1.361405e+003,3.253833e+001
1.362369e+003,3.129572e+001
1.363333e+003,3.135492e+001
1.364298e+003,3.224304e+001
1.365262e+003,3.337903e+001
1.366226e+003,3.449957e+001
1.367190e+003,3.546588e+001
1.368155e+003,3.614893e+001
1.369119e+003,3.664343e+001
1.370083e+003,3.732129e+001
1.371047e+003,3.844104e+001
1.372011e+003,3.942633e+001
1.372976e+003,3.938342e+001
1.373940e+003,3.962445e+001
1.374904e+003,4.136737e+001
1.375868e+003,4.348627e+001
1.376833e+003,4.422052e+001
1.377797e+003,4.353589e+001
1.378761e+003,4.300726e+001
1.379725e+003,4.340967e+001
1.380690e+003,4.412402e+001
1.381654e+003,4.481732e+001
1.382618e+003,4.541949e+001
1.383582e+003,4.548065e+001
1.384547e+003,4.513525e+001
1.385511e+003,4.543073e+001
1.386475e+003,4.689624e+001
1.387439e+003,4.864490e+001
1.388403e+003,4.948230e+001
1.389368e+003,4.937262e+001
1.390332e+003,4.863153e+001
1.391296e+003,4.647601e+001
1.392260e+003,4.583185e+001
1.393225e+003,4.913544e+001
1.394189e+003,5.189191e+001
1.395153e+003,5.070605e+001
1.396117e+003,4.766321e+001
1.397082e+003,4.626697e+001
1.398046e+003,4.746368e+001
1.399010e+003,4.954333e+001
1.399974e+003,5.075195e+001
1.400938e+003,5.099957e+001
1.401903e+003,5.115228e+001
1.402867e+003,5.224451e+001
1.403831e+003,5.286029e+001
1.404795e+003,5.132526e+001
1.405760e+003,5.068213e+001
1.406724e+003,5.235046e+001
1.407688e+003,5.402203e+001
1.408652e+003,5.330426e+001
1.409617e+003,5.083093e+001
1.410581e+003,4.904559e+001
1.411545e+003,4.881873e+001
1.412509e+003,4.990723e+001
1.413474e+003,5.282849e+001
1.414438e+003,5.585602e+001
1.415402e+003,5.651825e+001
1.416366e+003,5.543353e+001
1.417330e+003,5.481982e+001
1.418295e+003,5.553357e+001
1.419259e+003,5.703754e+001
1.420223e+003,5.923138e+001
1.421187e+003,6.149713e+001
1.422152e+003,6.066437e+001
1.423116e+003,5.531384e+001
1.424080e+003,5.271130e+001
1.425044e+003,5.687805e+001
1.426009e+003,6.134943e+001
1.426973e+003,6.385101e+001
1.427937e+003,6.492633e+001
1.428901e+003,6.513086e+001
1.429865e+003,6.501715e+001
1.430830e+003,6.515356e+001
1.431794e+003,6.576721e+001
1.432758e+003,6.687958e+001
1.433722e+003,6.911908e+001
1.434687e+003,7.323529e+001
1.435651e+003,7.570892e+001
1.436615e+003,7.239545e+001
1.437579e+003,7.122742e+001
1.438544e+003,7.515717e+001
1.439508e+003,7.943170e+001
1.440472e+003,8.113910e+001
1.441436e+003,8.121777e+001
1.442401e+003,8.200208e+001
1.443365e+003,8.372595e+001
1.444329e+003,8.317145e+001
1.445293e+003,7.714905e+001
1.446257e+003,7.028406e+001
1.447222e+003,7.306158e+001
1.448186e+003,8.312372e+001
1.449150e+003,8.717719e+001
1.450114e+003,8.256171e+001
1.451079e+003,7.776404e+001
1.452043e+003,7.781042e+001
1.453007e+003,8.004755e+001
1.453971e+003,8.063538e+001
1.454936e+003,7.959143e+001
1.455900e+003,7.860510e+001
1.456864e+003,7.805835e+001
1.457828e+003,7.815118e+001
1.458792e+003,7.881659e+001
1.459757e+003,7.991821e+001
1.460721e+003,8.272827e+001
1.461685e+003,8.553638e+001
1.462649e+003,8.433838e+001
1.463614e+003,7.863293e+001
1.464578e+003,7.290594e+001
1.465542e+003,7.081360e+001
1.466506e+003,7.169116e+001
1.467471e+003,7.460706e+001
1.468435e+003,8.081873e+001
1.469399e+003,8.484869e+001
1.470363e+003,8.421704e+001
1.471328e+003,8.354077e+001
1.472292e+003,8.311108e+001
1.473256e+003,8.296204e+001
1.474220e+003,8.402655e+001
1.475184e+003,8.586841e+001
1.476149e+003,8.720844e+001
1.477113e+003,8.744867e+001
1.478077e+003,8.722076e+001
1.479041e+003,8.744104e+001
1.480006e+003,8.794513e+001
1.480970e+003,8.730707e+001
1.481934e+003,8.431232e+001
1.482898e+003,8.390070e+001
1.483863e+003,8.832526e+001
1.484827e+003,9.169745e+001
1.485791e+003,9.165717e+001
1.486755e+003,9.123206e+001
1.487719e+003,9.324207e+001
1.488684e+003,9.686908e+001
1.489648e+003,9.964667e+001
1.490612e+003,1.009743e+002
1.491576e+003,1.022175e+002
1.492541e+003,1.040834e+002
1.493505e+003,1.068277e+002
1.494469e+003,1.124089e+002
1.495433e+003,1.196223e+002
1.496398e+003,1.220920e+002
1.497362e+003,1.174457e+002
1.498326e+003,1.152121e+002
1.499290e+003,1.216924e+002
1.500255e+003,1.322553e+002
1.501219e+003,1.411202e+002
1.502183e+003,1.481967e+002
1.503147e+003,1.547010e+002
1.504111e+003,1.608310e+002
1.505076e+003,1.665459e+002
1.506040e+003,1.697844e+002
1.507004e+003,1.750842e+002
1.507968e+003,1.872905e+002
1.508933e+003,2.044490e+002
1.509897e+003,2.233173e+002
1.510861e+003,2.435573e+002
1.511825e+003,2.639687e+002
1.512790e+003,2.833116e+002
1.513754e+003,3.018391e+002
1.514718e+003,3.205826e+002
1.515682e+003,3.392280e+002
1.516646e+003,3.575327e+002
1.517611e+003,3.764706e+002
1.518575e+003,3.938052e+002
1.519539e+003,4.101974e+002
1.520503e+003,4.240770e+002
1.521468e+003,4.345345e+002
1.522432e+003,4.415717e+002
1.523396e+003,4.456898e+002
1.524360e+003,4.466044e+002
1.525325e+003,4.432008e+002
1.526289e+003,4.348414e+002
1.527253e+003,4.223823e+002
1.528217e+003,4.067890e+002
1.529182e+003,3.883001e+002
1.530146e+003,3.707833e+002
1.531110e+003,3.570869e+002
1.532074e+003,3.381990e+002
1.533039e+003,3.080543e+002
1.534003e+003,2.780480e+002
1.534967e+003,2.540136e+002
1.535931e+003,2.335991e+002
1.536896e+003,2.129944e+002
1.537860e+003,1.926926e+002
1.538824e+003,1.759046e+002
1.539788e+003,1.640983e+002
1.540752e+003,1.561514e+002
1.541717e+003,1.511620e+002
1.542681e+003,1.486400e+002
1.543645e+003,1.441365e+002
1.544609e+003,1.361671e+002
1.545573e+003,1.311921e+002
1.546538e+003,1.297015e+002
1.547502e+003,1.293720e+002
1.548466e+003,1.304688e+002
1.549430e+003,1.323772e+002
1.550395e+003,1.346567e+002
1.551359e+003,1.367026e+002
1.552323e+003,1.373856e+002
1.553287e+003,1.364625e+002
1.554252e+003,1.356264e+002
1.555216e+003,1.366328e+002
1.556180e+003,1.377783e+002
1.557144e+003,1.345095e+002
1.558109e+003,1.268001e+002
1.559073e+003,1.216754e+002
1.560037e+003,1.197105e+002
1.561001e+003,1.182377e+002
1.561966e+003,1.164854e+002
1.562930e+003,1.157495e+002
1.563894e+003,1.176192e+002
1.564858e+003,1.208921e+002
1.565823e+003,1.227850e+002
1.566787e+003,1.227641e+002
1.567751e+003,1.224282e+002
1.568715e+003,1.226053e+002
1.569679e+003,1.235284e+002
1.570644e+003,1.258890e+002
1.571608e+003,1.286830e+002
1.572572e+003,1.293905e+002
1.573536e+003,1.281102e+002
1.574500e+003,1.281381e+002
1.575465e+003,1.313837e+002
1.576429e+003,1.346178e+002
1.577393e+003,1.344783e+002
1.578357e+003,1.325813e+002
1.579322e+003,1.325985e+002
1.580286e+003,1.347249e+002
1.581250e+003,1.363898e+002
1.582214e+003,1.368082e+002
1.583179e+003,1.365375e+002
1.584143e+003,1.351705e+002
1.585107e+003,1.336870e+002
1.586071e+003,1.342755e+002
1.587036e+003,1.365338e+002
1.588000e+003,1.376843e+002
1.588964e+003,1.367610e+002
1.589928e+003,1.363076e+002
1.590893e+003,1.384750e+002
1.591857e+003,1.417311e+002
1.592821e+003,1.436285e+002
1.593785e+003,1.445493e+002
1.594750e+003,1.465638e+002
1.595714e+003,1.500181e+002
1.596678e+003,1.526791e+002
1.597642e+003,1.528224e+002
1.598606e+003,1.532577e+002
1.599571e+003,1.570348e+002
1.600535e+003,1.621606e+002
1.601499e+003,1.667392e+002
1.602463e+003,1.700720e+002
1.603427e+003,1.701110e+002
1.604392e+003,1.656324e+002
1.605356e+003,1.611282e+002
1.606320e+003,1.616339e+002
1.607284e+003,1.654955e+002
1.608249e+003,1.683320e+002
1.609213e+003,1.701529e+002
1.610177e+003,1.699662e+002
1.611141e+003,1.666791e+002
1.612106e+003,1.637208e+002
1.613070e+003,1.620613e+002
1.614034e+003,1.619637e+002
1.614998e+003,1.648874e+002
1.615963e+003,1.690640e+002
1.616927e+003,1.715220e+002
1.617891e+003,1.717463e+002
1.618855e+003,1.705781e+002
1.619820e+003,1.680267e+002
1.620784e+003,1.656310e+002
1.621748e+003,1.670679e+002
1.622712e+003,1.719207e+002
1.623677e+003,1.740056e+002
1.624641e+003,1.727355e+002
1.625605e+003,1.721703e+002
1.626569e+003,1.723649e+002
1.627533e+003,1.728380e+002
1.628498e+003,1.743336e+002
1.629462e+003,1.759841e+002
1.630426e+003,1.767525e+002
1.631390e+003,1.769691e+002
1.632354e+003,1.776185e+002
1.633319e+003,1.788649e+002
1.634283e+003,1.799318e+002
1.635247e+003,1.801362e+002
1.636211e+003,1.799366e+002
1.637176e+003,1.804728e+002
1.638140e+003,1.818304e+002
1.639104e+003,1.828123e+002
1.640068e+003,1.832435e+002
1.641033e+003,1.831199e+002
1.641997e+003,1.820963e+002
1.642961e+003,1.813887e+002
1.643925e+003,1.818769e+002
1.644890e+003,1.826385e+002
1.645854e+003,1.825021e+002
1.646818e+003,1.817656e+002
1.647782e+003,1.815464e+002
1.648747e+003,1.821387e+002
1.649711e+003,1.829058e+002
1.650675e+003,1.835289e+002
1.651639e+003,1.842744e+002
1.652604e+003,1.855154e+002
1.653568e+003,1.869919e+002
1.654532e+003,1.866429e+002
1.655496e+003,1.836279e+002
1.656460e+003,1.815075e+002
1.657425e+003,1.825352e+002
1.658389e+003,1.832927e+002
1.659353e+003,1.811053e+002
1.660317e+003,1.782833e+002
1.661281e+003,1.770478e+002
1.662246e+003,1.773245e+002
1.663210e+003,1.789177e+002
1.664174e+003,1.817474e+002
1.665138e+003,1.833785e+002
1.666103e+003,1.813401e+002
1.667067e+003,1.769864e+002
1.668031e+003,1.727825e+002
1.668995e+003,1.689184e+002
1.669960e+003,1.666915e+002
1.670924e+003,1.664834e+002
1.671888e+003,1.672140e+002
1.672852e+003,1.687526e+002
1.673817e+003,1.704966e+002
1.674781e+003,1.728408e+002
1.675745e+003,1.745623e+002
1.676709e+003,1.740506e+002
1.677674e+003,1.716801e+002
1.678638e+003,1.687684e+002
1.679602e+003,1.657614e+002
1.680566e+003,1.627531e+002
1.681531e+003,1.595114e+002
1.682495e+003,1.571915e+002
1.683459e+003,1.583766e+002
1.684423e+003,1.620347e+002
1.685387e+003,1.624326e+002
1.686352e+003,1.587416e+002
1.687316e+003,1.553981e+002
1.688280e+003,1.534091e+002
1.689244e+003,1.528003e+002
1.690208e+003,1.543828e+002
1.691173e+003,1.566711e+002
1.692137e+003,1.586287e+002
1.693101e+003,1.602574e+002
1.694065e+003,1.608199e+002
1.695030e+003,1.597778e+002
1.695994e+003,1.586199e+002
1.696958e+003,1.586888e+002
1.697922e+003,1.589721e+002
1.698887e+003,1.582905e+002
1.699851e+003,1.568562e+002
1.700815e+003,1.548050e+002
1.701779e+003,1.520247e+002
1.702744e+003,1.493445e+002
1.703708e+003,1.472245e+002
1.704672e+003,1.460203e+002
1.705636e+003,1.454554e+002
1.706601e+003,1.455820e+002
1.707565e+003,1.480030e+002
1.708529e+003,1.518367e+002
1.709493e+003,1.531724e+002
1.710458e+003,1.512585e+002
1.711422e+003,1.492651e+002
1.712386e+003,1.492994e+002
1.713350e+003,1.492773e+002
1.714314e+003,1.462872e+002
1.715279e+003,1.422170e+002
1.716243e+003,1.406774e+002
1.717207e+003,1.415441e+002
1.718171e+003,1.425804e+002
1.719135e+003,1.432354e+002
1.720100e+003,1.441860e+002
1.721064e+003,1.459529e+002
1.722028e+003,1.474668e+002
1.722992e+003,1.473474e+002
1.723957e+003,1.462120e+002
1.724921e+003,1.457454e+002
1.725885e+003,1.456072e+002
1.726849e+003,1.445577e+002
1.727814e+003,1.413052e+002
1.728778e+003,1.398370e+002
1.729742e+003,1.438823e+002
1.730706e+003,1.484125e+002
1.731671e+003,1.473722e+002
1.732635e+003,1.427263e+002
1.733599e+003,1.401829e+002
1.734563e+003,1.407922e+002
1.735528e+003,1.410281e+002
1.736492e+003,1.388782e+002
1.737456e+003,1.369781e+002
1.738420e+003,1.386116e+002
1.739385e+003,1.424418e+002
1.740349e+003,1.445839e+002
1.741313e+003,1.451886e+002
1.742277e+003,1.445557e+002
1.743241e+003,1.422335e+002
1.744206e+003,1.400375e+002
1.745170e+003,1.364329e+002
1.746134e+003,1.346834e+002
1.747098e+003,1.387092e+002
1.748063e+003,1.439182e+002
1.749027e+003,1.444105e+002
1.749991e+003,1.413733e+002
1.750955e+003,1.400292e+002
1.751919e+003,1.418362e+002
1.752884e+003,1.431045e+002
1.753848e+003,1.407271e+002
1.754812e+003,1.371835e+002
1.755776e+003,1.380208e+002
1.756741e+003,1.433212e+002
1.757705e+003,1.460676e+002
1.758669e+003,1.449929e+002
1.759633e+003,1.442725e+002
1.760598e+003,1.443909e+002
1.761562e+003,1.442705e+002
1.762526e+003,1.439338e+002
1.763490e+003,1.435346e+002
1.764455e+003,1.430536e+002
1.765419e+003,1.427321e+002
1.766383e+003,1.425370e+002
1.767347e+003,1.424799e+002
1.768312e+003,1.432118e+002
1.769276e+003,1.449714e+002
1.770240e+003,1.465919e+002
1.771204e+003,1.472921e+002
1.772168e+003,1.475707e+002
1.773133e+003,1.478107e+002
1.774097e+003,1.479970e+002
1.775061e+003,1.479729e+002
1.776025e+003,1.472651e+002
1.776990e+003,1.473342e+002
1.777954e+003,1.494936e+002
1.778918e+003,1.518316e+002
1.779882e+003,1.528909e+002
1.780846e+003,1.527787e+002
1.781811e+003,1.514844e+002
1.782775e+003,1.496224e+002
1.783739e+003,1.489461e+002
1.784703e+003,1.498430e+002
1.785668e+003,1.515973e+002
1.786632e+003,1.551859e+002
1.787596e+003,1.570251e+002
1.788560e+003,1.528782e+002
1.789525e+003,1.474225e+002
1.790489e+003,1.474738e+002
1.791453e+003,1.514357e+002
1.792417e+003,1.534689e+002
1.793382e+003,1.524811e+002
1.794346e+003,1.514518e+002
1.795310e+003,1.519154e+002
1.796274e+003,1.528475e+002
1.797239e+003,1.533727e+002
1.798203e+003,1.538217e+002
1.799167e+003,1.539932e+002
1.800131e+003,1.532391e+002
1.801095e+003,1.518141e+002
1.802060e+003,1.485841e+002
1.803024e+003,1.478430e+002
1.803988e+003,1.517780e+002
1.804952e+003,1.556199e+002
1.805917e+003,1.568682e+002
1.806881e+003,1.571287e+002
1.807845e+003,1.584003e+002
1.808809e+003,1.602443e+002
1.809773e+003,1.611910e+002
1.810738e+003,1.609443e+002
1.811702e+003,1.601165e+002
1.812666e+003,1.590950e+002
1.813630e+003,1.585851e+002
1.814595e+003,1.598230e+002
1.815559e+003,1.619124e+002
1.816523e+003,1.611373e+002
1.817487e+003,1.571902e+002
1.818452e+003,1.547967e+002
1.819416e+003,1.545594e+002
1.820380e+003,1.557834e+002
1.821344e+003,1.593480e+002
1.822309e+003,1.621419e+002
1.823273e+003,1.622820e+002
1.824237e+003,1.613395e+002
1.825201e+003,1.602358e+002
1.826166e+003,1.591735e+002
1.827130e+003,1.586061e+002
1.828094e+003,1.584973e+002
1.829058e+003,1.586940e+002
1.830022e+003,1.591455e+002
1.830987e+003,1.603895e+002
1.831951e+003,1.642985e+002
1.832915e+003,1.682476e+002
1.833879e+003,1.673975e+002
1.834844e+003,1.633552e+002
1.835808e+003,1.613116e+002
1.836772e+003,1.621089e+002
1.837736e+003,1.643550e+002
1.838700e+003,1.673872e+002
1.839665e+003,1.692009e+002
1.840629e+003,1.678080e+002
1.841593e+003,1.650112e+002
1.842557e+003,1.643946e+002
1.843522e+003,1.659123e+002
1.844486e+003,1.673569e+002
1.845450e+003,1.693929e+002
1.846414e+003,1.708640e+002
1.847379e+003,1.706500e+002
1.848343e+003,1.703186e+002
1.849307e+003,1.708860e+002
1.850271e+003,1.712851e+002
1.851236e+003,1.703870e+002
1.852200e+003,1.693633e+002
1.853164e+003,1.697892e+002
1.854128e+003,1.711018e+002
1.855093e+003,1.717615e+002
1.856057e+003,1.714340e+002
1.857021e+003,1.704091e+002
1.857985e+003,1.684916e+002
1.858949e+003,1.670159e+002
1.859914e+003,1.692716e+002
1.860878e+003,1.743692e+002
1.861842e+003,1.765676e+002
1.862806e+003,1.756595e+002
1.863771e+003,1.743537e+002
1.864735e+003,1.727310e+002
1.865699e+003,1.716485e+002
1.866663e+003,1.717178e+002
1.867627e+003,1.725891e+002
1.868592e+003,1.742036e+002
1.869556e+003,1.756392e+002
1.870520e+003,1.755448e+002
1.871484e+003,1.741218e+002
1.872449e+003,1.728911e+002
1.873413e+003,1.727670e+002
1.874377e+003,1.735524e+002
1.875341e+003,1.746164e+002
1.876306e+003,1.757063e+002
1.877270e+003,1.767355e+002
1.878234e+003,1.774791e+002
1.879198e+003,1.771281e+002
1.880163e+003,1.768509e+002
1.881127e+003,1.798028e+002
1.882091e+003,1.851111e+002
1.883055e+003,1.874852e+002
1.884020e+003,1.849803e+002
1.884984e+003,1.817217e+002
1.885948e+003,1.814860e+002
1.886912e+003,1.828890e+002
1.887876e+003,1.832292e+002
1.888841e+003,1.826359e+002
1.889805e+003,1.819999e+002
1.890769e+003,1.809525e+002
1.891733e+003,1.822596e+002
1.892698e+003,1.879390e+002
1.893662e+003,1.909255e+002
1.894626e+003,1.865854e+002
1.895590e+003,1.820506e+002
1.896554e+003,1.826830e+002
1.897519e+003,1.858088e+002
1.898483e+003,1.883995e+002
1.899447e+003,1.901813e+002
1.900411e+003,1.922005e+002
1.901376e+003,1.948934e+002
1.902340e+003,1.949420e+002
1.903304e+003,1.885752e+002
1.904268e+003,1.831199e+002
1.905233e+003,1.844218e+002
1.906197e+003,1.877161e+002
1.907161e+003,1.877471e+002
1.908125e+003,1.864437e+002
1.909090e+003,1.880000e+002
1.910054e+003,1.918395e+002
1.911018e+003,1.942660e+002
1.911982e+003,1.942378e+002
1.912947e+003,1.934644e+002
1.913911e+003,1.931064e+002
1.914875e+003,1.930878e+002
1.915839e+003,1.931379e+002
1.916803e+003,1.931714e+002
1.917768e+003,1.942411e+002
1.918732e+003,1.969008e+002
1.919696e+003,1.983471e+002
1.920660e+003,1.980242e+002
1.921625e+003,1.986257e+002
1.922589e+003,2.015758e+002
1.923553e+003,2.037060e+002
1.924517e+003,2.029189e+002
1.925481e+003,2.010467e+002
1.926446e+003,1.991610e+002
1.927410e+003,1.975878e+002
1.928374e+003,1.964409e+002
1.929338e+003,1.956971e+002
1.930303e+003,1.969899e+002
1.931267e+003,2.022415e+002
1.932231e+003,2.063074e+002
1.933195e+003,2.057415e+002
1.934160e+003,2.038438e+002
1.935124e+003,2.020853e+002
1.936088e+003,2.009158e+002
1.937052e+003,2.017472e+002
1.938017e+003,2.037200e+002
1.938981e+003,2.044858e+002
1.939945e+003,2.038077e+002
1.940909e+003,2.031985e+002
1.941874e+003,2.032719e+002
1.942838e+003,2.032893e+002
1.943802e+003,2.027990e+002
1.944766e+003,2.025382e+002
1.945730e+003,2.033529e+002
1.946695e+003,2.049449e+002
1.947659e+003,2.067908e+002
1.948623e+003,2.088589e+002
1.949587e+003,2.106971e+002
1.950552e+003,2.125381e+002
1.951516e+003,2.137352e+002
1.952480e+003,2.140002e+002
1.953444e+003,2.136529e+002
1.954408e+003,2.123666e+002
1.955373e+003,2.107227e+002
1.956337e+003,2.098041e+002
1.957301e+003,2.098674e+002
1.958265e+003,2.107658e+002
1.959230e+003,2.126611e+002
1.960194e+003,2.143676e+002
1.961158e+003,2.148281e+002
1.962122e+003,2.153584e+002
1.963087e+003,2.160848e+002
1.964051e+003,2.173876e+002
1.965015e+003,2.209759e+002
1.965979e+003,2.245445e+002
1.966944e+003,2.251564e+002
1.967908e+003,2.236364e+002
1.968872e+003,2.214565e+002
1.969836e+003,2.196729e+002
1.970801e+003,2.202572e+002
1.971765e+003,2.238839e+002
1.972729e+003,2.277529e+002
1.973693e+003,2.297944e+002
1.974657e+003,2.298275e+002
1.975622e+003,2.258162e+002
1.976586e+003,2.199759e+002
1.977550e+003,2.192244e+002
1.978514e+003,2.229254e+002
1.979479e+003,2.262798e+002
1.980443e+003,2.284221e+002
1.981407e+003,2.291412e+002
1.982371e+003,2.283958e+002
1.983335e+003,2.279444e+002
1.984300e+003,2.288098e+002
1.985264e+003,2.311795e+002
1.986228e+003,2.361960e+002
1.987192e+003,2.424673e+002
1.988157e+003,2.423989e+002
1.989121e+003,2.343076e+002
1.990085e+003,2.292556e+002
1.991049e+003,2.283348e+002
1.992014e+003,2.286382e+002
1.992978e+003,2.307250e+002
1.993942e+003,2.324140e+002
1.994906e+003,2.325032e+002
1.995871e+003,2.324370e+002
1.996835e+003,2.337319e+002
1.997799e+003,2.354823e+002
1.998763e+003,2.355966e+002
1.999728e+003,2.344788e+002
