5.003444e+002,1.693052e+002
5.013087e+002,1.680833e+002
5.022729e+002,1.659382e+002
5.032371e+002,1.635830e+002
5.042014e+002,1.607933e+002
5.051656e+002,1.577936e+002
5.061298e+002,1.547200e+002
5.070941e+002,1.514404e+002
5.080583e+002,1.473516e+002
5.090225e+002,1.443588e+002
5.099868e+002,1.431036e+002
5.109510e+002,1.418438e+002
5.119152e+002,1.394163e+002
5.128795e+002,1.357064e+002
5.138437e+002,1.331384e+002
5.148079e+002,1.335083e+002
5.157722e+002,1.346274e+002
5.167364e+002,1.360955e+002
5.177006e+002,1.372014e+002
5.186649e+002,1.368472e+002
5.196291e+002,1.339106e+002
5.205933e+002,1.298811e+002
5.215576e+002,1.242708e+002
5.225218e+002,1.170695e+002
5.234860e+002,1.101223e+002
5.244503e+002,1.076039e+002
5.254145e+002,1.123861e+002
5.263787e+002,1.139060e+002
5.273430e+002,1.100024e+002
5.283072e+002,1.043225e+002
5.292714e+002,1.017803e+002
5.302357e+002,1.033611e+002
5.311999e+002,1.038850e+002
5.321641e+002,1.045021e+002
5.331284e+002,1.044224e+002
5.340926e+002,1.019156e+002
5.350568e+002,9.574976e+001
5.360211e+002,8.961865e+001
5.369853e+002,8.894812e+001
5.379495e+002,9.018140e+001
5.389138e+002,9.030969e+001
5.398780e+002,8.798755e+001
5.408422e+002,8.388196e+001
5.418065e+002,7.922375e+001
5.427707e+002,7.432251e+001
5.437349e+002,7.259839e+001
5.446992e+002,7.581812e+001
5.456634e+002,8.210803e+001
5.466276e+002,8.509204e+001
5.475919e+002,8.096106e+001
5.485561e+002,7.848340e+001
5.495203e+002,7.866492e+001
5.504846e+002,7.988635e+001
5.514488e+002,8.028308e+001
5.524130e+002,7.997351e+001
5.533773e+002,7.794690e+001
5.543415e+002,7.264685e+001
5.553057e+002,6.641663e+001
5.562700e+002,6.115735e+001
5.572342e+002,5.796082e+001
5.581984e+002,5.672473e+001
5.591627e+002,5.915381e+001
5.601269e+002,6.396191e+001
5.610911e+002,6.738550e+001
5.620554e+002,6.718396e+001
5.630196e+002,6.358374e+001
5.639838e+002,6.103711e+001
5.649481e+002,6.098596e+001
5.659123e+002,5.998022e+001
5.668765e+002,5.730652e+001
5.678408e+002,5.417639e+001
5.688050e+002,5.315588e+001
5.697692e+002,5.638672e+001
5.707335e+002,5.740173e+001
5.716977e+002,5.391602e+001
5.726619e+002,4.789331e+001
5.736262e+002,4.157910e+001
5.745904e+002,3.628235e+001
5.755546e+002,3.287817e+001
5.765189e+002,3.230701e+001
5.774831e+002,3.305762e+001
5.784473e+002,3.356714e+001
5.794116e+002,3.305505e+001
5.803758e+002,3.196545e+001
5.813400e+002,2.992969e+001
5.823043e+002,2.532739e+001
5.832685e+002,2.147791e+001
5.842327e+002,2.026184e+001
5.851970e+002,2.181836e+001
5.861612e+002,2.424036e+001
5.871254e+002,2.763330e+001
5.880897e+002,3.061597e+001
5.890539e+002,3.280823e+001
5.900181e+002,3.405139e+001
5.909824e+002,3.432581e+001
5.919466e+002,3.369128e+001
5.929108e+002,3.250171e+001
5.938751e+002,3.099866e+001
5.948393e+002,2.934680e+001
5.958035e+002,2.786755e+001
5.967678e+002,2.688611e+001
5.977320e+002,2.662720e+001
5.986962e+002,2.657568e+001
5.996605e+002,2.574890e+001
6.006247e+002,2.581628e+001
6.015889e+002,2.912964e+001
6.025532e+002,3.526294e+001
6.035174e+002,3.687708e+001
6.044816e+002,2.811584e+001
6.054459e+002,2.105591e+001
6.064101e+002,1.764429e+001
6.073743e+002,1.698389e+001
6.083386e+002,1.734448e+001
6.093028e+002,1.847180e+001
6.102670e+002,1.969849e+001
6.112313e+002,2.062268e+001
6.121955e+002,2.107654e+001
6.131597e+002,2.063989e+001
6.141240e+002,1.903650e+001
6.150882e+002,1.667639e+001
6.160524e+002,1.599353e+001
6.170167e+002,1.699951e+001
6.179809e+002,1.800818e+001
6.189451e+002,1.772095e+001
6.199094e+002,1.610901e+001
6.208736e+002,1.541052e+001
6.218378e+002,1.901355e+001
6.228021e+002,2.092566e+001
6.237663e+002,1.930835e+001
6.247305e+002,1.623828e+001
6.256948e+002,1.504272e+001
6.266590e+002,1.736584e+001
6.276232e+002,1.916260e+001
6.285875e+002,1.821680e+001
6.295517e+002,1.639038e+001
6.305159e+002,1.555139e+001
6.314802e+002,1.647754e+001
6.324444e+002,1.781494e+001
6.334086e+002,1.547571e+001
6.343729e+002,1.142700e+001
6.353371e+002,1.079700e+001
6.363013e+002,1.609717e+001
6.372656e+002,2.453540e+001
6.382298e+002,2.655920e+001
6.391940e+002,1.415369e+001
6.401583e+002,4.872803e+000
6.411225e+002,1.382324e+000
6.420867e+002,1.188477e+000
6.430510e+002,8.231201e-001
6.440152e+002,-1.373413e+000
6.449794e+002,-3.292725e+000
6.459437e+002,-3.608521e+000
6.469079e+002,-3.380859e+000
6.478721e+002,-3.254272e+000
6.488364e+002,-3.301880e+000
6.498006e+002,-2.902588e+000
6.507648e+002,-4.840088e-001
6.517291e+002,2.597046e+000
6.526933e+002,2.936035e+000
6.536575e+002,-3.133545e-001
6.546218e+002,-4.961060e+000
6.555860e+002,-6.664307e+000
6.565502e+002,-3.214355e+000
6.575145e+002,-1.641724e+000
6.584787e+002,-2.627197e+000
6.594429e+002,-4.551636e+000
6.604072e+002,-6.717773e+000
6.613714e+002,-9.214722e+000
6.623356e+002,-9.879395e+000
6.632999e+002,-6.069336e+000
6.642641e+002,-2.425293e+000
6.652283e+002,-5.678711e-001
6.661926e+002,-6.030273e-001
6.671568e+002,-2.053467e+000
6.681210e+002,-5.550049e+000
6.690853e+002,-9.780273e+000
6.700495e+002,-1.071973e+001
6.710137e+002,-8.382080e+000
6.719780e+002,-4.403687e+000
6.729422e+002,-2.784424e-001
6.739064e+002,4.322754e+000
6.748707e+002,4.957520e+000
6.758349e+002,-1.762085e+000
6.767991e+002,-7.622437e+000
6.777634e+002,-8.011963e+000
6.787276e+002,-3.186157e+000
6.796918e+002,1.502075e+000
6.806561e+002,3.653931e+000
6.816203e+002,4.444458e+000
6.825845e+002,3.603394e+000
6.835488e+002,1.947632e+000
6.845130e+002,7.333984e-001
6.854772e+002,1.057861e+000
6.864415e+002,2.556763e+000
6.874057e+002,3.172974e+000
6.883699e+002,2.641968e+000
6.893342e+002,1.909668e+000
6.902984e+002,1.659302e+000
6.912626e+002,2.067627e+000
6.922269e+002,2.992798e+000
6.931911e+002,7.720581e+000
6.941553e+002,1.021399e+001
6.951196e+002,7.660156e+000
6.960838e+002,2.256348e+000
6.970480e+002,-2.349731e+000
6.980123e+002,-5.603882e+000
6.989765e+002,-6.344971e+000
6.999407e+002,-3.309570e+000
7.009050e+002,8.630371e-001
7.018692e+002,4.409912e+000
7.028334e+002,6.486206e+000
7.037977e+002,7.154419e+000
7.047619e+002,6.704834e+000
7.057261e+002,5.554932e+000
7.066904e+002,2.584595e+000
7.076546e+002,-2.403809e+000
7.086188e+002,-6.560913e+000
7.095831e+002,-4.979858e+000
7.105473e+002,5.266357e+000
7.115115e+002,1.076770e+001
7.124758e+002,1.008435e+001
7.134400e+002,6.858276e+000
7.144042e+002,2.159424e+000
7.153685e+002,-3.462524e+000
7.163327e+002,-6.532959e+000
7.172969e+002,-2.967651e+000
7.182612e+002,1.574097e+000
7.192254e+002,5.484253e+000
7.201896e+002,8.157471e+000
7.211539e+002,9.300415e+000
7.221181e+002,8.665649e+000
7.230823e+002,6.619629e+000
7.240466e+002,3.765747e+000
7.250108e+002,9.362793e-001
7.259750e+002,-1.398926e-001
7.269393e+002,1.228149e+000
7.279035e+002,3.971558e+000
7.288677e+002,4.655273e+000
7.298320e+002,2.952393e+000
7.307962e+002,2.123169e+000
7.317604e+002,2.917114e+000
7.327247e+002,4.642700e+000
7.336889e+002,5.727295e+000
7.346531e+002,4.570923e+000
7.356174e+002,2.793945e+000
7.365816e+002,3.606445e+000
7.375458e+002,4.903076e+000
7.385101e+002,4.239990e+000
7.394743e+002,1.453491e+000
7.404385e+002,-9.812012e-001
7.414028e+002,8.133545e-001
7.423670e+002,4.797363e+000
7.433312e+002,7.291382e+000
7.442955e+002,9.075806e+000
7.452597e+002,1.017322e+001
7.462239e+002,9.363403e+000
7.471882e+002,4.758545e+000
7.481524e+002,5.579712e+000
7.491166e+002,1.645520e+001
7.500809e+002,2.465442e+001
7.510451e+002,2.433459e+001
7.520093e+002,1.715735e+001
7.529736e+002,9.951660e+000
7.539378e+002,6.072876e+000
7.549020e+002,4.450073e+000
7.558663e+002,5.067505e+000
7.568306e+002,6.606934e+000
7.577948e+002,6.862671e+000
7.587590e+002,4.427368e+000
7.597233e+002,3.457031e-001
7.606875e+002,-3.304443e-001
7.616517e+002,2.361694e+000
7.626160e+002,3.871460e+000
7.635802e+002,2.671875e+000
7.645444e+002,3.770752e-001
7.655087e+002,3.740234e-001
7.664729e+002,4.142334e+000
7.674371e+002,6.535889e+000
7.684014e+002,6.279175e+000
7.693656e+002,5.553589e+000
7.703298e+002,6.074951e+000
7.712941e+002,7.998169e+000
7.722583e+002,9.628174e+000
7.732225e+002,9.546387e+000
7.741868e+002,8.682861e+000
7.751510e+002,7.360596e+000
7.761152e+002,5.964478e+000
7.770795e+002,4.903931e+000
7.780437e+002,4.448853e+000
7.790079e+002,4.491211e+000
7.799722e+002,6.246094e+000
7.809364e+002,9.963501e+000
7.819006e+002,1.263831e+001
7.828649e+002,1.300110e+001
7.838291e+002,1.209558e+001
7.847933e+002,1.243689e+001
7.857576e+002,1.428479e+001
7.867218e+002,1.510461e+001
7.876860e+002,1.505823e+001
7.886503e+002,1.477563e+001
7.896145e+002,1.478955e+001
7.905787e+002,1.519983e+001
7.915430e+002,1.539453e+001
7.925072e+002,1.278247e+001
7.934714e+002,9.778198e+000
7.944357e+002,1.107825e+001
7.953999e+002,1.652454e+001
7.963641e+002,2.182007e+001
7.973284e+002,2.175610e+001
7.982926e+002,1.585828e+001
7.992568e+002,1.393762e+001
8.002211e+002,1.737366e+001
8.011853e+002,1.851929e+001
8.021495e+002,1.380054e+001
8.031138e+002,6.130859e+000
8.040780e+002,3.365845e+000
8.050422e+002,9.263062e+000
8.060065e+002,1.449731e+001
8.069707e+002,1.507251e+001
8.079349e+002,1.342468e+001
8.088992e+002,1.195544e+001
8.098634e+002,1.191309e+001
8.108276e+002,1.319043e+001
8.117919e+002,1.542053e+001
8.127561e+002,1.735889e+001
8.137203e+002,1.917102e+001
8.146846e+002,2.148254e+001
8.156488e+002,2.293237e+001
8.166130e+002,2.092786e+001
8.175773e+002,1.396460e+001
8.185415e+002,1.163916e+001
8.195057e+002,1.671545e+001
8.204700e+002,2.086035e+001
8.214342e+002,2.080542e+001
8.223984e+002,1.773877e+001
8.233627e+002,1.483655e+001
8.243269e+002,1.251599e+001
8.252911e+002,1.260327e+001
8.262554e+002,1.712378e+001
8.272196e+002,2.312756e+001
8.281838e+002,2.777405e+001
8.291481e+002,2.987012e+001
8.301123e+002,3.004224e+001
8.310765e+002,2.907349e+001
8.320408e+002,2.687292e+001
8.330050e+002,2.502649e+001
8.339692e+002,2.385913e+001
8.349335e+002,2.286255e+001
8.358977e+002,2.168384e+001
8.368619e+002,2.060352e+001
8.378262e+002,2.003796e+001
8.387904e+002,1.940051e+001
8.397546e+002,1.891260e+001
8.407189e+002,1.857739e+001
8.416831e+002,1.857214e+001
8.426473e+002,1.906946e+001
8.436116e+002,2.014221e+001
8.445758e+002,2.227820e+001
8.455400e+002,2.618567e+001
8.465043e+002,2.989917e+001
8.474685e+002,3.195691e+001
8.484327e+002,3.248145e+001
8.493970e+002,3.258630e+001
8.503612e+002,3.333069e+001
8.513254e+002,3.459131e+001
8.522897e+002,3.485986e+001
8.532539e+002,3.258643e+001
8.542181e+002,3.057520e+001
8.551824e+002,3.140662e+001
8.561466e+002,3.539673e+001
8.571108e+002,3.992371e+001
8.580751e+002,4.338135e+001
8.590393e+002,4.539063e+001
8.600035e+002,4.549927e+001
8.609678e+002,4.549036e+001
8.619320e+002,4.752832e+001
8.628962e+002,5.224231e+001
8.638605e+002,5.741150e+001
8.648247e+002,5.922632e+001
8.657889e+002,5.907629e+001
8.667532e+002,6.060083e+001
8.677174e+002,6.424902e+001
8.686816e+002,6.782520e+001
8.696459e+002,6.894080e+001
8.706101e+002,6.765723e+001
8.715743e+002,6.593835e+001
8.725386e+002,6.113330e+001
8.735028e+002,5.933142e+001
8.744670e+002,6.316077e+001
8.754313e+002,6.986560e+001
8.763955e+002,7.471301e+001
8.773597e+002,7.601501e+001
8.783240e+002,7.728357e+001
8.792882e+002,8.236963e+001
8.802524e+002,8.724255e+001
8.812167e+002,8.751917e+001
8.821809e+002,8.308179e+001
8.831451e+002,7.758118e+001
8.841094e+002,7.576648e+001
8.850736e+002,7.822534e+001
8.860378e+002,8.330042e+001
8.870021e+002,9.163635e+001
8.879663e+002,9.866736e+001
8.889305e+002,1.003007e+002
8.898948e+002,9.772168e+001
8.908590e+002,9.830920e+001
8.918232e+002,1.059459e+002
8.927875e+002,1.122897e+002
8.937517e+002,1.149717e+002
8.947159e+002,1.163168e+002
8.956802e+002,1.181058e+002
8.966444e+002,1.202601e+002
8.976086e+002,1.209395e+002
8.985729e+002,1.182711e+002
8.995371e+002,1.143752e+002
9.005013e+002,1.112499e+002
9.014656e+002,1.096012e+002
9.024298e+002,1.111006e+002
9.033940e+002,1.169771e+002
9.043583e+002,1.259487e+002
9.053225e+002,1.318820e+002
9.062867e+002,1.328729e+002
9.072510e+002,1.317939e+002
9.082152e+002,1.270525e+002
9.091794e+002,1.228107e+002
9.101437e+002,1.238201e+002
9.111079e+002,1.308225e+002
9.120721e+002,1.373325e+002
9.130364e+002,1.395385e+002
9.140006e+002,1.387311e+002
9.149648e+002,1.345020e+002
9.159291e+002,1.288270e+002
9.168933e+002,1.244955e+002
9.178575e+002,1.231556e+002
9.188218e+002,1.236932e+002
9.197860e+002,1.235576e+002
9.207502e+002,1.224397e+002
9.217145e+002,1.213475e+002
9.226787e+002,1.215553e+002
9.236429e+002,1.223844e+002
9.246072e+002,1.226709e+002
9.255714e+002,1.222332e+002
9.265356e+002,1.194882e+002
9.274999e+002,1.116527e+002
9.284641e+002,1.036891e+002
9.294283e+002,9.636597e+001
9.303926e+002,9.084326e+001
9.313568e+002,8.895935e+001
9.323210e+002,9.181848e+001
9.332853e+002,9.607520e+001
9.342495e+002,9.661816e+001
9.352137e+002,9.469397e+001
9.361780e+002,9.192407e+001
9.371422e+002,8.919666e+001
9.381064e+002,8.742444e+001
9.390707e+002,8.735681e+001
9.400349e+002,8.869519e+001
9.409991e+002,8.909937e+001
9.419634e+002,8.716870e+001
9.429276e+002,8.588696e+001
9.438918e+002,8.710547e+001
9.448561e+002,8.937463e+001
9.458203e+002,9.006067e+001
9.467845e+002,8.834668e+001
9.477488e+002,8.661047e+001
9.487130e+002,8.619983e+001
9.496772e+002,8.652661e+001
9.506415e+002,8.790808e+001
9.516057e+002,8.976746e+001
9.525699e+002,9.037207e+001
9.535342e+002,8.789575e+001
9.544984e+002,8.260046e+001
9.554626e+002,7.889307e+001
9.564269e+002,7.753528e+001
9.573911e+002,7.771838e+001
9.583553e+002,8.013977e+001
9.593196e+002,8.321106e+001
9.602838e+002,8.395911e+001
9.612480e+002,8.119800e+001
9.622123e+002,7.977209e+001
9.631765e+002,8.369958e+001
9.641407e+002,8.709680e+001
9.651050e+002,8.677075e+001
9.660692e+002,8.328125e+001
9.670334e+002,7.854749e+001
9.679977e+002,7.404810e+001
9.689619e+002,7.089575e+001
9.699261e+002,7.090601e+001
9.708904e+002,7.278406e+001
9.718546e+002,7.434998e+001
9.728188e+002,7.453943e+001
9.737831e+002,7.560193e+001
9.747473e+002,8.189233e+001
9.757115e+002,9.545862e+001
9.766758e+002,1.041927e+002
9.776400e+002,1.042422e+002
9.786042e+002,1.051992e+002
9.795685e+002,1.120806e+002
9.805327e+002,1.190116e+002
9.814969e+002,1.171125e+002
9.824612e+002,1.037776e+002
9.834254e+002,8.941663e+001
9.843896e+002,8.372522e+001
9.853539e+002,8.176599e+001
9.863181e+002,7.894958e+001
9.872823e+002,7.458447e+001
9.882466e+002,6.982214e+001
9.892108e+002,6.626880e+001
9.901750e+002,6.459424e+001
9.911393e+002,6.348401e+001
9.921035e+002,6.022375e+001
9.930677e+002,5.861938e+001
9.940320e+002,6.075342e+001
9.949962e+002,6.436865e+001
9.959604e+002,6.750696e+001
9.969247e+002,7.011865e+001
9.978889e+002,7.276709e+001
9.988531e+002,7.296057e+001
9.998174e+002,7.502722e+001
1.000782e+003,8.472607e+001
1.001746e+003,9.773132e+001
1.002710e+003,1.076545e+002
1.003674e+003,1.115482e+002
1.004639e+003,1.112299e+002
1.005603e+003,1.097144e+002
1.006567e+003,1.066141e+002
1.007531e+003,1.038901e+002
1.008495e+003,1.016349e+002
1.009460e+003,9.973657e+001
1.010424e+003,9.826868e+001
1.011388e+003,9.737170e+001
1.012352e+003,9.732397e+001
1.013317e+003,9.916016e+001
1.014281e+003,9.882422e+001
1.015245e+003,9.406067e+001
1.016209e+003,8.753821e+001
1.017174e+003,8.059717e+001
1.018138e+003,7.406079e+001
1.019102e+003,6.908582e+001
1.020066e+003,6.713745e+001
1.021031e+003,6.656799e+001
1.021995e+003,6.047595e+001
1.022959e+003,4.949182e+001
1.023923e+003,3.932153e+001
1.024887e+003,3.156616e+001
1.025852e+003,2.561304e+001
1.026816e+003,2.105652e+001
1.027780e+003,1.879468e+001
1.028744e+003,1.601111e+001
1.029709e+003,1.023596e+001
1.030673e+003,6.281982e+000
1.031637e+003,6.377930e+000
1.032601e+003,8.471313e+000
1.033566e+003,9.948486e+000
1.034530e+003,1.006287e+001
1.035494e+003,1.005347e+001
1.036458e+003,1.133862e+001
1.037422e+003,1.279468e+001
1.038387e+003,1.221912e+001
1.039351e+003,9.723511e+000
1.040315e+003,8.090942e+000
1.041279e+003,9.874878e+000
1.042244e+003,1.429578e+001
1.043208e+003,1.611914e+001
1.044172e+003,1.214380e+001
1.045136e+003,9.754639e+000
1.046101e+003,1.060046e+001
1.047065e+003,1.207947e+001
1.048029e+003,1.266528e+001
1.048993e+003,1.213501e+001
1.049958e+003,1.063550e+001
1.050922e+003,7.914063e+000
1.051886e+003,6.165039e+000
1.052850e+003,8.028442e+000
1.053814e+003,1.162720e+001
1.054779e+003,1.486511e+001
1.055743e+003,1.706592e+001
1.056707e+003,1.844836e+001
1.057671e+003,1.935144e+001
1.058636e+003,1.964856e+001
1.059600e+003,1.835583e+001
1.060564e+003,1.408496e+001
1.061528e+003,1.184827e+001
1.062493e+003,1.315027e+001
1.063457e+003,1.508875e+001
1.064421e+003,1.453772e+001
1.065385e+003,1.145251e+001
1.066349e+003,9.216919e+000
1.067314e+003,1.015295e+001
1.068278e+003,1.184766e+001
1.069242e+003,1.288269e+001
1.070206e+003,1.365210e+001
1.071171e+003,1.460352e+001
1.072135e+003,1.566309e+001
1.073099e+003,1.639795e+001
1.074063e+003,1.661035e+001
1.075028e+003,1.656079e+001
1.075992e+003,1.505042e+001
1.076956e+003,1.024927e+001
1.077920e+003,6.251465e+000
1.078885e+003,5.198608e+000
1.079849e+003,6.496826e+000
1.080813e+003,9.161621e+000
1.081777e+003,1.357739e+001
1.082741e+003,1.705737e+001
1.083706e+003,1.658508e+001
1.084670e+003,1.490808e+001
1.085634e+003,1.376526e+001
1.086598e+003,1.254016e+001
1.087563e+003,9.150391e+000
1.088527e+003,3.032471e+000
1.089491e+003,-2.562744e+000
1.090455e+003,-1.777222e+000
1.091420e+003,5.782593e+000
1.092384e+003,1.157654e+001
1.093348e+003,1.599548e+001
1.094312e+003,1.725586e+001
1.095276e+003,1.242468e+001
1.096241e+003,4.416992e+000
1.097205e+003,1.714844e+000
1.098169e+003,6.945679e+000
1.099133e+003,1.124988e+001
1.100098e+003,1.204993e+001
1.101062e+003,1.087463e+001
1.102026e+003,6.623047e+000
1.102990e+003,1.429443e+000
1.103955e+003,-2.020264e-001
1.104919e+003,4.236328e+000
1.105883e+003,1.095276e+001
1.106847e+003,1.183008e+001
1.107812e+003,6.631592e+000
1.108776e+003,3.451416e+000
1.109740e+003,3.106445e+000
1.110704e+003,3.800049e+000
1.111668e+003,4.984497e+000
1.112633e+003,6.908569e+000
1.113597e+003,9.013306e+000
1.114561e+003,1.085718e+001
1.115525e+003,1.258557e+001
1.116490e+003,1.426953e+001
1.117454e+003,1.568860e+001
1.118418e+003,1.704993e+001
1.119382e+003,1.867542e+001
1.120347e+003,2.058435e+001
1.121311e+003,2.231653e+001
1.122275e+003,2.319238e+001
1.123239e+003,2.339648e+001
1.124203e+003,2.367834e+001
1.125168e+003,2.373779e+001
1.126132e+003,2.327271e+001
1.127096e+003,2.382104e+001
1.128060e+003,2.673376e+001
1.129025e+003,3.127380e+001
1.129989e+003,3.471631e+001
1.130953e+003,3.564001e+001
1.131917e+003,3.777014e+001
1.132882e+003,4.364294e+001
1.133846e+003,4.984717e+001
1.134810e+003,5.449731e+001
1.135774e+003,5.777771e+001
1.136739e+003,6.036194e+001
1.137703e+003,6.262354e+001
1.138667e+003,6.520203e+001
1.139631e+003,6.920410e+001
1.140595e+003,7.470837e+001
1.141560e+003,8.235107e+001
1.142524e+003,9.282544e+001
1.143488e+003,1.048611e+002
1.144452e+003,1.171876e+002
1.145417e+003,1.301433e+002
1.146381e+003,1.448685e+002
1.147345e+003,1.607080e+002
1.148309e+003,1.797452e+002
1.149274e+003,2.039160e+002
1.150238e+003,2.301945e+002
1.151202e+003,2.586803e+002
1.152166e+003,2.883347e+002
1.153130e+003,3.188693e+002
1.154095e+003,3.490886e+002
1.155059e+003,3.735582e+002
1.156023e+003,3.847161e+002
1.156987e+003,3.836586e+002
1.157952e+003,3.823439e+002
1.158916e+003,3.829102e+002
1.159880e+003,3.783181e+002
1.160844e+003,3.614979e+002
1.161809e+003,3.359023e+002
1.162773e+003,3.111677e+002
1.163737e+003,2.880414e+002
1.164701e+003,2.629711e+002
1.165666e+003,2.309994e+002
1.166630e+003,2.020724e+002
1.167594e+003,1.804703e+002
1.168558e+003,1.637466e+002
1.169522e+003,1.479413e+002
1.170487e+003,1.321375e+002
1.171451e+003,1.197927e+002
1.172415e+003,1.149910e+002
1.173379e+003,1.163170e+002
1.174344e+003,1.174393e+002
1.175308e+003,1.187400e+002
1.176272e+003,1.185913e+002
1.177236e+003,1.162919e+002
1.178201e+003,1.128271e+002
1.179165e+003,1.088405e+002
1.180129e+003,1.038865e+002
1.181093e+003,9.866821e+001
1.182057e+003,9.349927e+001
1.183022e+003,8.845776e+001
1.183986e+003,8.316089e+001
1.184950e+003,7.834326e+001
1.185914e+003,7.462036e+001
1.186879e+003,7.231152e+001
1.187843e+003,7.177795e+001
1.188807e+003,7.318262e+001
1.189771e+003,7.552441e+001
1.190736e+003,7.646033e+001
1.191700e+003,7.577332e+001
1.192664e+003,7.514844e+001
1.193628e+003,7.510181e+001
1.194593e+003,7.538733e+001
1.195557e+003,7.631726e+001
1.196521e+003,7.726819e+001
1.197485e+003,7.633411e+001
1.198449e+003,7.322583e+001
1.199414e+003,6.855750e+001
1.200378e+003,6.032825e+001
1.201342e+003,5.279785e+001
1.202306e+003,4.909167e+001
1.203271e+003,4.786890e+001
1.204235e+003,4.626331e+001
1.205199e+003,4.292517e+001
1.206163e+003,3.872717e+001
1.207128e+003,3.498694e+001
1.208092e+003,3.181848e+001
1.209056e+003,2.765808e+001
1.210020e+003,2.244287e+001
1.210984e+003,1.671838e+001
1.211949e+003,9.738892e+000
1.212913e+003,2.619873e+000
1.213877e+003,-2.508179e+000
1.214841e+003,-5.463379e+000
1.215806e+003,-9.522583e+000
1.216770e+003,-1.784814e+001
1.217734e+003,-2.472986e+001
1.218698e+003,-2.522485e+001
1.219663e+003,-2.339026e+001
1.220627e+003,-2.388611e+001
1.221591e+003,-2.758936e+001
1.222555e+003,-3.293628e+001
1.223520e+003,-3.846875e+001
1.224484e+003,-4.363586e+001
1.225448e+003,-4.690625e+001
1.226412e+003,-4.733789e+001
1.227376e+003,-4.809436e+001
1.228341e+003,-5.004144e+001
1.229305e+003,-5.171564e+001
1.230269e+003,-5.196252e+001
1.231233e+003,-5.153296e+001
1.232198e+003,-5.195648e+001
1.233162e+003,-5.344043e+001
1.234126e+003,-5.437262e+001
1.235090e+003,-5.388953e+001
1.236055e+003,-5.270483e+001
1.237019e+003,-5.090637e+001
1.237983e+003,-4.919287e+001
1.238947e+003,-4.890631e+001
1.239911e+003,-5.033270e+001
1.240876e+003,-5.254498e+001
1.241840e+003,-5.466382e+001
1.242804e+003,-5.674713e+001
1.243768e+003,-5.715527e+001
1.244733e+003,-5.506152e+001
1.245697e+003,-5.212402e+001
1.246661e+003,-4.714191e+001
1.247625e+003,-4.351801e+001
1.248590e+003,-4.460187e+001
1.249554e+003,-4.861133e+001
1.250518e+003,-5.048486e+001
1.251482e+003,-4.810138e+001
1.252447e+003,-4.492883e+001
1.253411e+003,-4.495264e+001
1.254375e+003,-4.639801e+001
1.255339e+003,-4.574451e+001
1.256303e+003,-4.269885e+001
1.257268e+003,-3.968420e+001
1.258232e+003,-3.887585e+001
1.259196e+003,-3.908215e+001
1.260160e+003,-3.649512e+001
1.261125e+003,-2.986096e+001
1.262089e+003,-2.533716e+001
1.263053e+003,-2.686487e+001
1.264017e+003,-2.749878e+001
1.264982e+003,-2.474854e+001
1.265946e+003,-2.062793e+001
1.266910e+003,-1.625049e+001
1.267874e+003,-1.246375e+001
1.268839e+003,-1.056616e+001
1.269803e+003,-1.142712e+001
1.270767e+003,-1.375940e+001
1.271731e+003,-1.486218e+001
1.272695e+003,-1.464148e+001
1.273660e+003,-1.637122e+001
1.274624e+003,-2.162109e+001
1.275588e+003,-2.711511e+001
1.276552e+003,-3.063245e+001
1.277517e+003,-3.251770e+001
1.278481e+003,-3.398828e+001
1.279445e+003,-3.527356e+001
1.280409e+003,-3.623071e+001
1.281374e+003,-3.629407e+001
1.282338e+003,-3.655347e+001
1.283302e+003,-3.794073e+001
1.284266e+003,-3.972235e+001
1.285230e+003,-4.136603e+001
1.286195e+003,-4.259979e+001
1.287159e+003,-4.284595e+001
1.288123e+003,-4.140436e+001
1.289087e+003,-3.855884e+001
1.290052e+003,-3.609583e+001
1.291016e+003,-3.399097e+001
1.291980e+003,-3.421582e+001
1.292944e+003,-3.924573e+001
1.293909e+003,-4.410956e+001
1.294873e+003,-4.582520e+001
1.295837e+003,-4.605725e+001
1.296801e+003,-4.780603e+001
1.297766e+003,-5.124719e+001
1.298730e+003,-5.319305e+001
1.299694e+003,-5.171588e+001
1.300658e+003,-4.937744e+001
1.301622e+003,-4.849402e+001
1.302587e+003,-4.844019e+001
1.303551e+003,-4.874158e+001
1.304515e+003,-4.904980e+001
1.305479e+003,-4.875818e+001
1.306444e+003,-4.762982e+001
1.307408e+003,-4.598065e+001
1.308372e+003,-4.402234e+001
1.309336e+003,-4.146851e+001
1.310301e+003,-3.965106e+001
1.311265e+003,-3.834894e+001
1.312229e+003,-3.752942e+001
1.313193e+003,-3.734894e+001
1.314157e+003,-3.779248e+001
1.315122e+003,-3.885040e+001
1.316086e+003,-4.066821e+001
1.317050e+003,-4.374841e+001
1.318014e+003,-4.835596e+001
1.318979e+003,-5.270990e+001
1.319943e+003,-5.406989e+001
1.320907e+003,-5.224219e+001
1.321871e+003,-4.833130e+001
1.322836e+003,-4.216986e+001
1.323800e+003,-3.707904e+001
1.324764e+003,-3.519690e+001
1.325728e+003,-3.507385e+001
1.326693e+003,-3.408997e+001
1.327657e+003,-3.241187e+001
1.328621e+003,-3.351117e+001
1.329585e+003,-4.013013e+001
1.330549e+003,-4.353827e+001
1.331514e+003,-3.780377e+001
1.332478e+003,-3.055212e+001
1.333442e+003,-2.919312e+001
1.334406e+003,-3.287158e+001
1.335371e+003,-3.590442e+001
1.336335e+003,-3.488110e+001
1.337299e+003,-3.202808e+001
1.338263e+003,-3.183630e+001
1.339228e+003,-3.473090e+001
1.340192e+003,-3.606152e+001
1.341156e+003,-3.470581e+001
1.342120e+003,-3.361206e+001
1.343084e+003,-3.357959e+001
1.344049e+003,-3.452106e+001
1.345013e+003,-3.636237e+001
1.345977e+003,-3.838519e+001
1.346941e+003,-3.945599e+001
1.347906e+003,-3.921191e+001
1.348870e+003,-3.814026e+001
1.349834e+003,-3.648633e+001
1.350798e+003,-3.486316e+001
1.351763e+003,-3.393243e+001
1.352727e+003,-3.346466e+001
1.353691e+003,-3.278375e+001
1.354655e+003,-3.141107e+001
1.355620e+003,-3.030945e+001
1.356584e+003,-3.061554e+001
1.357548e+003,-3.204535e+001
1.358512e+003,-3.396088e+001
1.359476e+003,-3.825531e+001
1.360441e+003,-3.979608e+001
1.361405e+003,-3.259277e+001
1.362369e+003,-2.690527e+001
1.363333e+003,-2.937463e+001
1.364298e+003,-3.572046e+001
1.365262e+003,-3.983331e+001
1.366226e+003,-4.006616e+001
1.367190e+003,-3.849091e+001
1.368155e+003,-3.692340e+001
1.369119e+003,-3.543909e+001
1.370083e+003,-3.419861e+001
1.371047e+003,-3.298962e+001
1.372011e+003,-3.178680e+001
1.372976e+003,-3.083508e+001
1.373940e+003,-3.068384e+001
1.374904e+003,-3.252356e+001
1.375868e+003,-3.418835e+001
1.376833e+003,-3.228387e+001
1.377797e+003,-2.733105e+001
1.378761e+003,-2.409717e+001
1.379725e+003,-2.474219e+001
1.380690e+003,-2.669031e+001
1.381654e+003,-2.861987e+001
1.382618e+003,-2.927539e+001
1.383582e+003,-2.507458e+001
1.384547e+003,-1.702722e+001
1.385511e+003,-1.316211e+001
1.386475e+003,-1.860779e+001
1.387439e+003,-2.718701e+001
1.388403e+003,-2.901477e+001
1.389368e+003,-2.416614e+001
1.390332e+003,-2.023438e+001
1.391296e+003,-1.634387e+001
1.392260e+003,-1.496423e+001
1.393225e+003,-1.917981e+001
1.394189e+003,-2.328772e+001
1.395153e+003,-2.339636e+001
1.396117e+003,-2.148865e+001
1.397082e+003,-2.115979e+001
1.398046e+003,-2.303723e+001
1.399010e+003,-2.470435e+001
1.399974e+003,-2.425342e+001
1.400938e+003,-2.274634e+001
1.401903e+003,-2.181641e+001
1.402867e+003,-2.025085e+001
1.403831e+003,-1.824756e+001
1.404795e+003,-1.633191e+001
1.405760e+003,-1.460815e+001
1.406724e+003,-1.380029e+001
1.407688e+003,-1.447668e+001
1.408652e+003,-1.703088e+001
1.409617e+003,-2.035645e+001
1.410581e+003,-2.181042e+001
1.411545e+003,-2.027832e+001
1.412509e+003,-1.712683e+001
1.413474e+003,-1.254272e+001
1.414438e+003,-8.856812e+000
1.415402e+003,-9.492798e+000
1.416366e+003,-1.339294e+001
1.417330e+003,-1.663257e+001
1.418295e+003,-1.772644e+001
1.419259e+003,-1.747485e+001
1.420223e+003,-1.680078e+001
1.421187e+003,-1.607239e+001
1.422152e+003,-1.577356e+001
1.423116e+003,-1.592468e+001
1.424080e+003,-1.445227e+001
1.425044e+003,-1.006592e+001
1.426009e+003,-5.739136e+000
1.426973e+003,-1.964966e+000
1.427937e+003,5.679932e-001
1.428901e+003,1.052734e+000
1.429865e+003,-1.090088e-001
1.430830e+003,-2.119263e+000
1.431794e+003,-4.628540e+000
1.432758e+003,-6.768799e+000
1.433722e+003,-5.947144e+000
1.434687e+003,-1.010986e+000
1.435651e+003,2.138550e+000
1.436615e+003,-1.028687e+000
1.437579e+003,-2.804688e+000
1.438544e+003,-1.149902e+000
1.439508e+003,1.157593e+000
1.440472e+003,3.055054e+000
1.441436e+003,4.625000e+000
1.442401e+003,6.046631e+000
1.443365e+003,7.115845e+000
1.444329e+003,6.754028e+000
1.445293e+003,3.859619e+000
1.446257e+003,6.237793e-001
1.447222e+003,1.506592e+000
1.448186e+003,5.582397e+000
1.449150e+003,8.368164e+000
1.450114e+003,9.412109e+000
1.451079e+003,8.758301e+000
1.452043e+003,5.979492e+000
1.453007e+003,2.540405e+000
1.453971e+003,-5.704346e-001
1.454936e+003,-3.288818e+000
1.455900e+003,-3.471191e+000
1.456864e+003,2.556152e-001
1.457828e+003,4.337769e+000
1.458792e+003,7.410889e+000
1.459757e+003,8.620605e+000
1.460721e+003,6.159668e+000
1.461685e+003,1.618530e+000
1.462649e+003,-1.670654e+000
1.463614e+003,-2.659912e+000
1.464578e+003,-2.886353e+000
1.465542e+003,-3.988281e+000
1.466506e+003,-5.497437e+000
1.467471e+003,-5.189819e+000
1.468435e+003,-1.976074e+000
1.469399e+003,6.549072e-001
1.470363e+003,5.762939e-001
1.471328e+003,1.416748e+000
1.472292e+003,5.401367e+000
1.473256e+003,8.161011e+000
1.474220e+003,6.603271e+000
1.475184e+003,2.560303e+000
1.476149e+003,-1.477661e+000
1.477113e+003,-4.472656e+000
1.478077e+003,-5.347656e+000
1.479041e+003,-2.521973e+000
1.480006e+003,3.124878e+000
1.480970e+003,7.582275e+000
1.481934e+003,1.023877e+001
1.482898e+003,1.165332e+001
1.483863e+003,9.201660e+000
1.484827e+003,9.061157e+000
1.485791e+003,1.620129e+001
1.486755e+003,2.432288e+001
1.487719e+003,2.683337e+001
1.488684e+003,2.484546e+001
1.489648e+003,2.306055e+001
1.490612e+003,2.330896e+001
1.491576e+003,2.510840e+001
1.492541e+003,2.767700e+001
1.493505e+003,3.148242e+001
1.494469e+003,3.900684e+001
1.495433e+003,4.880920e+001
1.496398e+003,5.478687e+001
1.497362e+003,5.557715e+001
1.498326e+003,5.752942e+001
1.499290e+003,6.451636e+001
1.500255e+003,7.388928e+001
1.501219e+003,8.201611e+001
1.502183e+003,8.891760e+001
1.503147e+003,9.600000e+001
1.504111e+003,1.032936e+002
1.505076e+003,1.121500e+002
1.506040e+003,1.231263e+002
1.507004e+003,1.366575e+002
1.507968e+003,1.534569e+002
1.508933e+003,1.726863e+002
1.509897e+003,1.921401e+002
1.510861e+003,2.123553e+002
1.511825e+003,2.371439e+002
1.512790e+003,2.689628e+002
1.513754e+003,3.054829e+002
1.514718e+003,3.446770e+002
1.515682e+003,3.859885e+002
1.516646e+003,4.212742e+002
1.517611e+003,4.476713e+002
1.518575e+003,4.749690e+002
1.519539e+003,5.116147e+002
1.520503e+003,5.453794e+002
1.521468e+003,5.711342e+002
1.522432e+003,5.887930e+002
1.523396e+003,5.985026e+002
1.524360e+003,6.007059e+002
1.525325e+003,5.969570e+002
1.526289e+003,5.884294e+002
1.527253e+003,5.746425e+002
1.528217e+003,5.540968e+002
1.529182e+003,5.271732e+002
1.530146e+003,4.987258e+002
1.531110e+003,4.697480e+002
1.532074e+003,4.361194e+002
1.533039e+003,3.946975e+002
1.534003e+003,3.500770e+002
1.534967e+003,3.035211e+002
1.535931e+003,2.575995e+002
1.536896e+003,2.117926e+002
1.537860e+003,1.690262e+002
1.538824e+003,1.364282e+002
1.539788e+003,1.170485e+002
1.540752e+003,1.049745e+002
1.541717e+003,9.309277e+001
1.542681e+003,8.186560e+001
1.543645e+003,7.228394e+001
1.544609e+003,6.519861e+001
1.545573e+003,5.936755e+001
1.546538e+003,5.352795e+001
1.547502e+003,4.894971e+001
1.548466e+003,4.672107e+001
1.549430e+003,4.684814e+001
1.550395e+003,5.053174e+001
1.551359e+003,5.566833e+001
1.552323e+003,5.714197e+001
1.553287e+003,5.342371e+001
1.554252e+003,4.850452e+001
1.555216e+003,4.586108e+001
1.556180e+003,4.415564e+001
1.557144e+003,4.032971e+001
1.558109e+003,3.450378e+001
1.559073e+003,2.809900e+001
1.560037e+003,1.827332e+001
1.561001e+003,1.224622e+001
1.561966e+003,1.650061e+001
1.562930e+003,2.314050e+001
1.563894e+003,2.390100e+001
1.564858e+003,2.075635e+001
1.565823e+003,1.957764e+001
1.566787e+003,2.144067e+001
1.567751e+003,2.466711e+001
1.568715e+003,2.929187e+001
1.569679e+003,3.262341e+001
1.570644e+003,2.921814e+001
1.571608e+003,2.179358e+001
1.572572e+003,1.985449e+001
1.573536e+003,2.414880e+001
1.574500e+003,2.782532e+001
1.575465e+003,2.870361e+001
1.576429e+003,2.781848e+001
1.577393e+003,2.356604e+001
1.578357e+003,1.879712e+001
1.579322e+003,2.075916e+001
1.580286e+003,2.945532e+001
1.581250e+003,3.649585e+001
1.582214e+003,3.932788e+001
1.583179e+003,3.997839e+001
1.584143e+003,3.842334e+001
1.585107e+003,3.623279e+001
1.586071e+003,3.667419e+001
1.587036e+003,3.932166e+001
1.588000e+003,4.089270e+001
1.588964e+003,4.024438e+001
1.589928e+003,3.912097e+001
1.590893e+003,3.878784e+001
1.591857e+003,3.872083e+001
1.592821e+003,3.721729e+001
1.593785e+003,3.512439e+001
1.594750e+003,3.773328e+001
1.595714e+003,4.648999e+001
1.596678e+003,5.286133e+001
1.597642e+003,5.194641e+001
1.598606e+003,4.996545e+001
1.599571e+003,5.280945e+001
1.600535e+003,5.741943e+001
1.601499e+003,5.974463e+001
1.602463e+003,5.957605e+001
1.603427e+003,5.832666e+001
1.604392e+003,5.638184e+001
1.605356e+003,5.535913e+001
1.606320e+003,5.811255e+001
1.607284e+003,6.271252e+001
1.608249e+003,6.325830e+001
1.609213e+003,5.962158e+001
1.610177e+003,5.558179e+001
1.611141e+003,5.112317e+001
1.612106e+003,4.792065e+001
1.613070e+003,4.714722e+001
1.614034e+003,4.756018e+001
1.614998e+003,4.853186e+001
1.615963e+003,5.003467e+001
1.616927e+003,5.192749e+001
1.617891e+003,5.411230e+001
1.618855e+003,5.697461e+001
1.619820e+003,6.084485e+001
1.620784e+003,6.327563e+001
1.621748e+003,6.057056e+001
1.622712e+003,5.456079e+001
1.623677e+003,5.252820e+001
1.624641e+003,5.540649e+001
1.625605e+003,5.731824e+001
1.626569e+003,5.453491e+001
1.627533e+003,5.208398e+001
1.628498e+003,5.416455e+001
1.629462e+003,5.727393e+001
1.630426e+003,5.836731e+001
1.631390e+003,5.784094e+001
1.632354e+003,5.709998e+001
1.633319e+003,5.650647e+001
1.634283e+003,5.571460e+001
1.635247e+003,5.417126e+001
1.636211e+003,5.285840e+001
1.637176e+003,5.463159e+001
1.638140e+003,5.935901e+001
1.639104e+003,6.101392e+001
1.640068e+003,5.822852e+001
1.641033e+003,5.597986e+001
1.641997e+003,5.566931e+001
1.642961e+003,5.644568e+001
1.643925e+003,5.867993e+001
1.644890e+003,6.093896e+001
1.645854e+003,6.173291e+001
1.646818e+003,6.116846e+001
1.647782e+003,5.956750e+001
1.648747e+003,5.718079e+001
1.649711e+003,5.596313e+001
1.650675e+003,5.816553e+001
1.651639e+003,6.219250e+001
1.652604e+003,6.415747e+001
1.653568e+003,6.383203e+001
1.654532e+003,6.256738e+001
1.655496e+003,6.009668e+001
1.656460e+003,5.792969e+001
1.657425e+003,5.695935e+001
1.658389e+003,5.620703e+001
1.659353e+003,5.552222e+001
1.660317e+003,5.440332e+001
1.661281e+003,5.142371e+001
1.662246e+003,4.742639e+001
1.663210e+003,4.569275e+001
1.664174e+003,4.734875e+001
1.665138e+003,4.878650e+001
1.666103e+003,4.640564e+001
1.667067e+003,4.203589e+001
1.668031e+003,3.966833e+001
1.668995e+003,3.932239e+001
1.669960e+003,3.936865e+001
1.670924e+003,3.992224e+001
1.671888e+003,4.053375e+001
1.672852e+003,4.057153e+001
1.673817e+003,4.078448e+001
1.674781e+003,4.227734e+001
1.675745e+003,4.363812e+001
1.676709e+003,4.359314e+001
1.677674e+003,4.195734e+001
1.678638e+003,3.788098e+001
1.679602e+003,3.119336e+001
1.680566e+003,2.607886e+001
1.681531e+003,2.678333e+001
1.682495e+003,3.029523e+001
1.683459e+003,3.139417e+001
1.684423e+003,2.993610e+001
1.685387e+003,2.601709e+001
1.686352e+003,1.913300e+001
1.687316e+003,1.569873e+001
1.688280e+003,1.947943e+001
1.689244e+003,2.385205e+001
1.690208e+003,2.255853e+001
1.691173e+003,1.994739e+001
1.692137e+003,2.204736e+001
1.693101e+003,2.752197e+001
1.694065e+003,2.974329e+001
1.695030e+003,2.650726e+001
1.695994e+003,2.389673e+001
1.696958e+003,2.745660e+001
1.697922e+003,3.189856e+001
1.698887e+003,3.014264e+001
1.699851e+003,2.406702e+001
1.700815e+003,1.808807e+001
1.701779e+003,1.248669e+001
1.702744e+003,1.022980e+001
1.703708e+003,1.359485e+001
1.704672e+003,1.734607e+001
1.705636e+003,1.645386e+001
1.706601e+003,1.369971e+001
1.707565e+003,1.487543e+001
1.708529e+003,1.872009e+001
1.709493e+003,1.963153e+001
1.710458e+003,1.650427e+001
1.711422e+003,1.413263e+001
1.712386e+003,1.549316e+001
1.713350e+003,1.786798e+001
1.714314e+003,1.888330e+001
1.715279e+003,1.869708e+001
1.716243e+003,1.801550e+001
1.717207e+003,1.693958e+001
1.718171e+003,1.515149e+001
1.719135e+003,1.267773e+001
1.720100e+003,1.055121e+001
1.721064e+003,9.269287e+000
1.722028e+003,8.513489e+000
1.722992e+003,8.555420e+000
1.723957e+003,9.598083e+000
1.724921e+003,9.690918e+000
1.725885e+003,7.779846e+000
1.726849e+003,6.178711e+000
1.727814e+003,6.984436e+000
1.728778e+003,7.652954e+000
1.729742e+003,5.650024e+000
1.730706e+003,3.958069e+000
1.731671e+003,5.953979e+000
1.732635e+003,9.456238e+000
1.733599e+003,1.099011e+001
1.734563e+003,1.030023e+001
1.735528e+003,7.867188e+000
1.736492e+003,3.741028e+000
1.737456e+003,5.146484e-001
1.738420e+003,1.528198e+000
1.739385e+003,4.964783e+000
1.740349e+003,5.439697e+000
1.741313e+003,2.332703e+000
1.742277e+003,1.322327e+000
1.743241e+003,4.665405e+000
1.744206e+003,7.235840e+000
1.745170e+003,8.856506e+000
1.746134e+003,8.492432e+000
1.747098e+003,2.993591e+000
1.748063e+003,-2.952759e+000
1.749027e+003,-2.695129e+000
1.749991e+003,1.924927e+000
1.750955e+003,3.561157e+000
1.751919e+003,1.280518e-001
1.752884e+003,-2.859802e+000
1.753848e+003,-7.908325e-001
1.754812e+003,3.372742e+000
1.755776e+003,3.907410e+000
1.756741e+003,1.375305e+000
1.757705e+003,1.217651e-001
1.758669e+003,4.697266e-001
1.759633e+003,-8.166504e-002
1.760598e+003,-3.878296e+000
1.761562e+003,-6.265259e+000
1.762526e+003,-3.262695e+000
1.763490e+003,-1.453857e-001
1.764455e+003,-1.943115e+000
1.765419e+003,-5.329285e+000
1.766383e+003,-4.318909e+000
1.767347e+003,6.202393e-001
1.768312e+003,3.627197e+000
1.769276e+003,1.779236e+000
1.770240e+003,-1.540100e+000
1.771204e+003,-2.224915e+000
1.772168e+003,-1.002869e+000
1.773133e+003,-6.300049e-001
1.774097e+003,-1.016235e+000
1.775061e+003,-9.595337e-001
1.776025e+003,-7.346191e-001
1.776990e+003,-9.658203e-001
1.777954e+003,-1.360596e+000
1.778918e+003,-1.728333e+000
1.779882e+003,-2.916992e+000
1.780846e+003,-4.125793e+000
1.781811e+003,-3.500122e+000
1.782775e+003,-1.446655e+000
1.783739e+003,4.732056e-001
1.784703e+003,2.280884e+000
1.785668e+003,3.163757e+000
1.786632e+003,1.771118e+000
1.787596e+003,-4.973145e-001
1.788560e+003,-2.804321e+000
1.789525e+003,-3.949524e+000
1.790489e+003,-2.007263e+000
1.791453e+003,1.634583e+000
1.792417e+003,3.122314e+000
1.793382e+003,1.854126e+000
1.794346e+003,5.029907e-001
1.795310e+003,4.039917e-001
1.796274e+003,8.318481e-001
1.797239e+003,1.410217e+000
1.798203e+003,2.336060e+000
1.799167e+003,2.059021e+000
1.800131e+003,-1.088196e+000
1.801095e+003,-1.120789e+000
1.802060e+003,6.636780e+000
1.803024e+003,1.163861e+001
1.803988e+003,1.107953e+001
1.804952e+003,9.091003e+000
1.805917e+003,5.896484e+000
1.806881e+003,3.640991e+000
1.807845e+003,5.666077e+000
1.808809e+003,1.004364e+001
1.809773e+003,1.254736e+001
1.810738e+003,1.221429e+001
1.811702e+003,1.050214e+001
1.812666e+003,8.359070e+000
1.813630e+003,7.363708e+000
1.814595e+003,1.019220e+001
1.815559e+003,1.510303e+001
1.816523e+003,1.499841e+001
1.817487e+003,9.444458e+000
1.818452e+003,5.076660e+000
1.819416e+003,2.485046e+000
1.820380e+003,1.665283e+000
1.821344e+003,2.626953e+000
1.822309e+003,4.360413e+000
1.823273e+003,8.170532e+000
1.824237e+003,1.166296e+001
1.825201e+003,1.123584e+001
1.826166e+003,8.158875e+000
1.827130e+003,6.290955e+000
1.828094e+003,6.129639e+000
1.829058e+003,6.195313e+000
1.830022e+003,6.374817e+000
1.830987e+003,6.188354e+000
1.831951e+003,4.690369e+000
1.832915e+003,2.998840e+000
1.833879e+003,3.255371e+000
1.834844e+003,4.603271e+000
1.835808e+003,3.717651e+000
1.836772e+003,5.289917e-001
1.837736e+003,-1.253540e+000
1.838700e+003,-2.545166e-001
1.839665e+003,2.799377e+000
1.840629e+003,8.126770e+000
1.841593e+003,1.343762e+001
1.842557e+003,1.297223e+001
1.843522e+003,6.825562e+000
1.844486e+003,4.259949e+000
1.845450e+003,8.731140e+000
1.846414e+003,1.138422e+001
1.847379e+003,1.034119e+001
1.848343e+003,8.442566e+000
1.849307e+003,5.610291e+000
1.850271e+003,3.698853e+000
1.851236e+003,5.013550e+000
1.852200e+003,7.865601e+000
1.853164e+003,9.487915e+000
1.854128e+003,9.313843e+000
1.855093e+003,8.369507e+000
1.856057e+003,7.557312e+000
1.857021e+003,7.304626e+000
1.857985e+003,7.828918e+000
1.858949e+003,8.145874e+000
1.859914e+003,5.662292e+000
1.860878e+003,1.583130e+000
1.861842e+003,2.924072e+000
1.862806e+003,9.718811e+000
1.863771e+003,1.368909e+001
1.864735e+003,1.259192e+001
1.865699e+003,1.188513e+001
1.866663e+003,1.485522e+001
1.867627e+003,1.806079e+001
1.868592e+003,1.784564e+001
1.869556e+003,1.531757e+001
1.870520e+003,1.343420e+001
1.871484e+003,1.199396e+001
1.872449e+003,9.731873e+000
1.873413e+003,7.195496e+000
1.874377e+003,6.734497e+000
1.875341e+003,8.517273e+000
1.876306e+003,1.077423e+001
1.877270e+003,1.287909e+001
1.878234e+003,1.442590e+001
1.879198e+003,1.508032e+001
1.880163e+003,1.521851e+001
1.881127e+003,1.568909e+001
1.882091e+003,1.645074e+001
1.883055e+003,1.630157e+001
1.884020e+003,1.486182e+001
1.884984e+003,1.391400e+001
1.885948e+003,1.517407e+001
1.886912e+003,1.706079e+001
1.887876e+003,1.613385e+001
1.888841e+003,1.284814e+001
1.889805e+003,1.247876e+001
1.890769e+003,1.570142e+001
1.891733e+003,1.834961e+001
1.892698e+003,2.021576e+001
1.893662e+003,1.999457e+001
1.894626e+003,1.540588e+001
1.895590e+003,1.136945e+001
1.896554e+003,1.244031e+001
1.897519e+003,1.556531e+001
1.898483e+003,1.631879e+001
1.899447e+003,1.518329e+001
1.900411e+003,1.635614e+001
1.901376e+003,2.093121e+001
1.902340e+003,2.326440e+001
1.903304e+003,1.898517e+001
1.904268e+003,1.532642e+001
1.905233e+003,1.889996e+001
1.906197e+003,2.350299e+001
1.907161e+003,2.144385e+001
1.908125e+003,1.654517e+001
1.909090e+003,1.611066e+001
1.910054e+003,1.978485e+001
1.911018e+003,2.303271e+001
1.911982e+003,2.446246e+001
1.912947e+003,2.566882e+001
1.913911e+003,2.769910e+001
1.914875e+003,2.894348e+001
1.915839e+003,2.637488e+001
1.916803e+003,2.089288e+001
1.917768e+003,1.943567e+001
1.918732e+003,2.327258e+001
1.919696e+003,2.482068e+001
1.920660e+003,2.305688e+001
1.921625e+003,2.252557e+001
1.922589e+003,2.490594e+001
1.923553e+003,2.684009e+001
1.924517e+003,2.588873e+001
1.925481e+003,2.446252e+001
1.926446e+003,2.490991e+001
1.927410e+003,2.637585e+001
1.928374e+003,2.714697e+001
1.929338e+003,2.678375e+001
1.930303e+003,2.506665e+001
1.931267e+003,2.148895e+001
1.932231e+003,2.039240e+001
1.933195e+003,2.530487e+001
1.934160e+003,3.044434e+001
1.935124e+003,3.192853e+001
1.936088e+003,3.072888e+001
1.937052e+003,2.718182e+001
1.938017e+003,2.324756e+001
1.938981e+003,2.257794e+001
1.939945e+003,2.498077e+001
1.940909e+003,2.641565e+001
1.941874e+003,2.514355e+001
1.942838e+003,2.481964e+001
1.943802e+003,2.949408e+001
1.944766e+003,3.576318e+001
1.945730e+003,3.510736e+001
1.946695e+003,2.843018e+001
1.947659e+003,2.636029e+001
1.948623e+003,2.925391e+001
1.949587e+003,3.135419e+001
1.950552e+003,3.247278e+001
1.951516e+003,3.196240e+001
1.952480e+003,2.830896e+001
1.953444e+003,2.571924e+001
1.954408e+003,2.768829e+001
1.955373e+003,3.118457e+001
1.956337e+003,3.308112e+001
1.957301e+003,3.386694e+001
1.958265e+003,3.287140e+001
1.959230e+003,2.963989e+001
1.960194e+003,2.908942e+001
1.961158e+003,3.321863e+001
1.962122e+003,3.642474e+001
1.963087e+003,3.740723e+001
1.964051e+003,3.720056e+001
1.965015e+003,3.631982e+001
1.965979e+003,3.550964e+001
1.966944e+003,3.474615e+001
1.967908e+003,3.399939e+001
1.968872e+003,3.340363e+001
1.969836e+003,3.322156e+001
1.970801e+003,3.418512e+001
1.971765e+003,3.650745e+001
1.972729e+003,3.825287e+001
1.973693e+003,3.763220e+001
1.974657e+003,3.585590e+001
1.975622e+003,3.356616e+001
1.976586e+003,3.162646e+001
1.977550e+003,3.405078e+001
1.978514e+003,3.994116e+001
1.979479e+003,4.273810e+001
1.980443e+003,4.152356e+001
1.981407e+003,4.025275e+001
1.982371e+003,4.056689e+001
1.983335e+003,4.131110e+001
1.984300e+003,4.124890e+001
1.985264e+003,4.131403e+001
1.986228e+003,4.351990e+001
1.987192e+003,4.714496e+001
1.988157e+003,4.846545e+001
1.989121e+003,4.734277e+001
1.990085e+003,4.556287e+001
1.991049e+003,4.303088e+001
1.992014e+003,4.057428e+001
1.992978e+003,3.587158e+001
1.993942e+003,3.406830e+001
1.994906e+003,3.957678e+001
1.995871e+003,4.586847e+001
1.996835e+003,4.870190e+001
1.997799e+003,4.927521e+001
1.998763e+003,4.833057e+001
1.999728e+003,4.651532e+001
