5.003444e+002,1.882674e+002
5.013087e+002,1.895528e+002
5.022729e+002,1.883278e+002
5.032371e+002,1.856233e+002
5.042014e+002,1.833099e+002
5.051656e+002,1.814086e+002
5.061298e+002,1.789753e+002
5.070941e+002,1.747848e+002
5.080583e+002,1.677188e+002
5.090225e+002,1.637145e+002
5.099868e+002,1.642686e+002
5.109510e+002,1.651896e+002
5.119152e+002,1.642753e+002
5.128795e+002,1.613442e+002
5.138437e+002,1.588568e+002
5.148079e+002,1.580709e+002
5.157722e+002,1.577988e+002
5.167364e+002,1.579672e+002
5.177006e+002,1.580138e+002
5.186649e+002,1.567991e+002
5.196291e+002,1.525622e+002
5.205933e+002,1.476489e+002
5.215576e+002,1.433085e+002
5.225218e+002,1.395113e+002
5.234860e+002,1.366191e+002
5.244503e+002,1.359871e+002
5.254145e+002,1.394022e+002
5.263787e+002,1.408575e+002
5.273430e+002,1.402624e+002
5.283072e+002,1.378277e+002
5.292714e+002,1.328534e+002
5.302357e+002,1.214077e+002
5.311999e+002,1.145980e+002
5.321641e+002,1.175578e+002
5.331284e+002,1.231149e+002
5.340926e+002,1.252601e+002
5.350568e+002,1.213237e+002
5.360211e+002,1.160474e+002
5.369853e+002,1.145341e+002
5.379495e+002,1.146576e+002
5.389138e+002,1.149122e+002
5.398780e+002,1.144257e+002
5.408422e+002,1.130034e+002
5.418065e+002,1.096152e+002
5.427707e+002,1.046752e+002
5.437349e+002,1.015330e+002
5.446992e+002,1.013606e+002
5.456634e+002,1.032366e+002
5.466276e+002,1.041451e+002
5.475919e+002,1.045265e+002
5.485561e+002,1.034314e+002
5.495203e+002,9.908722e+001
5.504846e+002,9.338623e+001
5.514488e+002,8.932312e+001
5.524130e+002,8.881873e+001
5.533773e+002,8.904370e+001
5.543415e+002,8.875720e+001
5.553057e+002,8.810632e+001
5.562700e+002,8.726129e+001
5.572342e+002,8.623987e+001
5.581984e+002,8.458630e+001
5.591627e+002,8.070660e+001
5.601269e+002,7.600824e+001
5.610911e+002,7.312146e+001
5.620554e+002,7.336499e+001
5.630196e+002,7.605499e+001
5.639838e+002,7.692200e+001
5.649481e+002,7.504047e+001
5.659123e+002,7.279333e+001
5.668765e+002,7.141449e+001
5.678408e+002,7.071106e+001
5.688050e+002,6.918060e+001
5.697692e+002,6.484589e+001
5.707335e+002,6.005438e+001
5.716977e+002,5.517542e+001
5.726619e+002,5.085583e+001
5.736262e+002,4.781976e+001
5.745904e+002,4.667261e+001
5.755546e+002,4.717328e+001
5.765189e+002,4.895056e+001
5.774831e+002,5.087769e+001
5.784473e+002,5.137616e+001
5.794116e+002,4.960870e+001
5.803758e+002,4.625763e+001
5.813400e+002,4.570264e+001
5.823043e+002,4.816827e+001
5.832685e+002,4.976123e+001
5.842327e+002,4.911975e+001
5.851970e+002,4.701324e+001
5.861612e+002,4.622345e+001
5.871254e+002,4.788434e+001
5.880897e+002,4.932068e+001
5.890539e+002,5.028186e+001
5.900181e+002,5.032928e+001
5.909824e+002,4.889172e+001
5.919466e+002,4.533240e+001
5.929108e+002,4.128198e+001
5.938751e+002,3.812695e+001
5.948393e+002,3.576971e+001
5.958035e+002,3.396484e+001
5.967678e+002,3.261945e+001
5.977320e+002,3.216992e+001
5.986962e+002,3.577448e+001
5.996605e+002,4.317627e+001
6.006247e+002,4.820593e+001
6.015889e+002,4.655518e+001
6.025532e+002,3.893341e+001
6.035174e+002,3.502332e+001
6.044816e+002,3.998077e+001
6.054459e+002,4.353009e+001
6.064101e+002,4.396729e+001
6.073743e+002,4.198969e+001
6.083386e+002,3.891052e+001
6.093028e+002,3.459363e+001
6.102670e+002,3.136981e+001
6.112313e+002,3.140582e+001
6.121955e+002,3.301440e+001
6.131597e+002,3.391785e+001
6.141240e+002,3.255780e+001
6.150882e+002,2.961908e+001
6.160524e+002,2.853912e+001
6.170167e+002,2.923151e+001
6.179809e+002,2.992151e+001
6.189451e+002,2.959241e+001
6.199094e+002,2.809271e+001
6.208736e+002,2.618481e+001
6.218378e+002,2.359424e+001
6.228021e+002,2.203802e+001
6.237663e+002,2.249323e+001
6.247305e+002,2.403711e+001
6.256948e+002,2.485950e+001
6.266590e+002,2.340100e+001
6.276232e+002,2.189288e+001
6.285875e+002,2.215424e+001
6.295517e+002,2.356879e+001
6.305159e+002,2.552417e+001
6.314802e+002,2.748535e+001
6.324444e+002,2.904968e+001
6.334086e+002,3.036755e+001
6.343729e+002,3.153461e+001
6.353371e+002,3.033319e+001
6.363013e+002,2.529321e+001
6.372656e+002,1.782861e+001
6.382298e+002,1.347034e+001
6.391940e+002,1.542004e+001
6.401583e+002,1.624048e+001
6.411225e+002,1.627289e+001
6.420867e+002,1.598743e+001
6.430510e+002,1.521118e+001
6.440152e+002,1.292749e+001
6.449794e+002,1.164612e+001
6.459437e+002,1.416241e+001
6.469079e+002,1.702979e+001
6.478721e+002,1.734259e+001
6.488364e+002,1.441223e+001
6.498006e+002,1.054663e+001
6.507648e+002,9.720581e+000
6.517291e+002,1.075439e+001
6.526933e+002,1.113098e+001
6.536575e+002,1.030475e+001
6.546218e+002,9.115540e+000
6.555860e+002,9.327393e+000
6.565502e+002,1.248853e+001
6.575145e+002,1.334296e+001
6.584787e+002,1.035510e+001
6.594429e+002,6.696838e+000
6.604072e+002,4.766663e+000
6.613714e+002,4.984009e+000
6.623356e+002,6.034607e+000
6.632999e+002,8.232178e+000
6.642641e+002,9.638550e+000
6.652283e+002,9.551147e+000
6.661926e+002,8.126770e+000
6.671568e+002,5.717773e+000
6.681210e+002,1.640442e+000
6.690853e+002,-2.605103e+000
6.700495e+002,-2.580811e+000
6.710137e+002,1.589539e+000
6.719780e+002,6.990417e+000
6.729422e+002,1.064941e+001
6.739064e+002,1.234473e+001
6.748707e+002,1.189575e+001
6.758349e+002,8.062500e+000
6.767991e+002,4.007690e+000
6.777634e+002,9.038696e-001
6.787276e+002,-7.980347e-001
6.796918e+002,-5.508423e-001
6.806561e+002,2.975769e+000
6.816203e+002,6.465698e+000
6.825845e+002,8.966736e+000
6.835488e+002,1.051337e+001
6.845130e+002,1.141986e+001
6.854772e+002,1.201007e+001
6.864415e+002,1.241949e+001
6.874057e+002,1.186365e+001
6.883699e+002,1.026044e+001
6.893342e+002,8.745300e+000
6.902984e+002,8.128662e+000
6.912626e+002,8.368286e+000
6.922269e+002,8.092896e+000
6.931911e+002,7.760742e+000
6.941553e+002,7.692566e+000
6.951196e+002,7.424744e+000
6.960838e+002,6.722473e+000
6.970480e+002,5.180908e+000
6.980123e+002,1.794739e+000
6.989765e+002,8.949585e-001
6.999407e+002,6.047363e+000
7.009050e+002,1.231409e+001
7.018692e+002,1.587274e+001
7.028334e+002,1.534015e+001
7.037977e+002,1.221472e+001
7.047619e+002,7.920349e+000
7.057261e+002,3.746094e+000
7.066904e+002,1.824036e+000
7.076546e+002,2.481384e+000
7.086188e+002,4.447510e+000
7.095831e+002,5.761963e+000
7.105473e+002,6.038086e+000
7.115115e+002,5.854004e+000
7.124758e+002,4.095947e+000
7.134400e+002,2.722778e+000
7.144042e+002,3.844421e+000
7.153685e+002,7.565491e+000
7.163327e+002,9.970276e+000
7.172969e+002,6.871826e+000
7.182612e+002,4.419678e+000
7.192254e+002,6.524048e+000
7.201896e+002,1.096417e+001
7.211539e+002,1.262396e+001
7.221181e+002,6.836121e+000
7.230823e+002,-2.599670e+000
7.240466e+002,-5.022522e+000
7.250108e+002,-1.532959e+000
7.259750e+002,2.841309e+000
7.269393e+002,4.838196e+000
7.279035e+002,4.241272e+000
7.288677e+002,3.525391e+000
7.298320e+002,3.638611e+000
7.307962e+002,4.513000e+000
7.317604e+002,7.267944e+000
7.327247e+002,1.047119e+001
7.336889e+002,1.145453e+001
7.346531e+002,8.149536e+000
7.356174e+002,4.175903e+000
7.365816e+002,2.329834e+000
7.375458e+002,1.891296e+000
7.385101e+002,2.624390e+000
7.394743e+002,4.210632e+000
7.404385e+002,6.076599e+000
7.414028e+002,7.185242e+000
7.423670e+002,6.656067e+000
7.433312e+002,5.303406e+000
7.442955e+002,3.802551e+000
7.452597e+002,3.180542e+000
7.462239e+002,4.351013e+000
7.471882e+002,7.560913e+000
7.481524e+002,1.053339e+001
7.491166e+002,1.340125e+001
7.500809e+002,1.456921e+001
7.510451e+002,1.284528e+001
7.520093e+002,8.853149e+000
7.529736e+002,4.706299e+000
7.539378e+002,1.451782e+000
7.549020e+002,-4.195557e-001
7.558663e+002,-5.037231e-001
7.568306e+002,4.985962e-001
7.577948e+002,1.417114e+000
7.587590e+002,1.433044e+000
7.597233e+002,8.945313e-001
7.606875e+002,2.269104e+000
7.616517e+002,5.614929e+000
7.626160e+002,8.458557e+000
7.635802e+002,1.044293e+001
7.645444e+002,1.154156e+001
7.655087e+002,1.126007e+001
7.664729e+002,8.035950e+000
7.674371e+002,6.621521e+000
7.684014e+002,7.954590e+000
7.693656e+002,1.009131e+001
7.703298e+002,1.214850e+001
7.712941e+002,1.396173e+001
7.722583e+002,1.550391e+001
7.732225e+002,1.656042e+001
7.741868e+002,1.741864e+001
7.751510e+002,1.882257e+001
7.761152e+002,2.028754e+001
7.770795e+002,2.029205e+001
7.780437e+002,1.738373e+001
7.790079e+002,1.208356e+001
7.799722e+002,1.054559e+001
7.809364e+002,1.286865e+001
7.819006e+002,1.516644e+001
7.828649e+002,1.620233e+001
7.838291e+002,1.661273e+001
7.847933e+002,1.774365e+001
7.857576e+002,1.943817e+001
7.867218e+002,2.071545e+001
7.876860e+002,2.324927e+001
7.886503e+002,2.505426e+001
7.896145e+002,2.313263e+001
7.905787e+002,1.718726e+001
7.915430e+002,1.249329e+001
7.925072e+002,1.675494e+001
7.934714e+002,2.334619e+001
7.944357e+002,2.552655e+001
7.953999e+002,2.336725e+001
7.963641e+002,1.981622e+001
7.973284e+002,1.787128e+001
7.982926e+002,1.754883e+001
7.992568e+002,1.963055e+001
8.002211e+002,2.526709e+001
8.011853e+002,2.857928e+001
8.021495e+002,2.744019e+001
8.031138e+002,2.357617e+001
8.040780e+002,2.085046e+001
8.050422e+002,1.922943e+001
8.060065e+002,1.863092e+001
8.069707e+002,1.872278e+001
8.079349e+002,1.919934e+001
8.088992e+002,2.028668e+001
8.098634e+002,2.213403e+001
8.108276e+002,2.423877e+001
8.117919e+002,2.561145e+001
8.127561e+002,2.546436e+001
8.137203e+002,2.368304e+001
8.146846e+002,2.080896e+001
8.156488e+002,1.780341e+001
8.166130e+002,1.541113e+001
8.175773e+002,1.342023e+001
8.185415e+002,1.248053e+001
8.195057e+002,1.185175e+001
8.204700e+002,1.197351e+001
8.214342e+002,1.342029e+001
8.223984e+002,1.576740e+001
8.233627e+002,1.816571e+001
8.243269e+002,2.125958e+001
8.252911e+002,2.272321e+001
8.262554e+002,1.957507e+001
8.272196e+002,1.539532e+001
8.281838e+002,1.419775e+001
8.291481e+002,1.716071e+001
8.301123e+002,2.187616e+001
8.310765e+002,2.439691e+001
8.320408e+002,2.444403e+001
8.330050e+002,2.275568e+001
8.339692e+002,1.894397e+001
8.349335e+002,1.509918e+001
8.358977e+002,1.365784e+001
8.368619e+002,1.522150e+001
8.378262e+002,1.683087e+001
8.387904e+002,1.852191e+001
8.397546e+002,1.927972e+001
8.407189e+002,1.794629e+001
8.416831e+002,1.581281e+001
8.426473e+002,1.505139e+001
8.436116e+002,1.677972e+001
8.445758e+002,1.981305e+001
8.455400e+002,2.315601e+001
8.465043e+002,2.580731e+001
8.474685e+002,2.676471e+001
8.484327e+002,2.638025e+001
8.493970e+002,2.641113e+001
8.503612e+002,2.929572e+001
8.513254e+002,3.555853e+001
8.522897e+002,3.888281e+001
8.532539e+002,3.760138e+001
8.542181e+002,3.533539e+001
8.551824e+002,3.447772e+001
8.561466e+002,3.540521e+001
8.571108e+002,3.723218e+001
8.580751e+002,3.931696e+001
8.590393e+002,4.035596e+001
8.600035e+002,3.958154e+001
8.609678e+002,3.865503e+001
8.619320e+002,3.947546e+001
8.628962e+002,4.265735e+001
8.638605e+002,4.667487e+001
8.648247e+002,4.925421e+001
8.657889e+002,5.091357e+001
8.667532e+002,5.313605e+001
8.677174e+002,5.609674e+001
8.686816e+002,5.892188e+001
8.696459e+002,6.074030e+001
8.706101e+002,6.172534e+001
8.715743e+002,6.229089e+001
8.725386e+002,6.048151e+001
8.735028e+002,6.080969e+001
8.744670e+002,6.547467e+001
8.754313e+002,7.210260e+001
8.763955e+002,7.677039e+001
8.773597e+002,7.829205e+001
8.783240e+002,7.844324e+001
8.792882e+002,7.644293e+001
8.802524e+002,7.472058e+001
8.812167e+002,7.648462e+001
8.821809e+002,8.167255e+001
8.831451e+002,8.701581e+001
8.841094e+002,8.818066e+001
8.850736e+002,8.581842e+001
8.860378e+002,8.735657e+001
8.870021e+002,9.339728e+001
8.879663e+002,9.941827e+001
8.889305e+002,1.028870e+002
8.898948e+002,1.039721e+002
8.908590e+002,1.041422e+002
8.918232e+002,1.026276e+002
8.927875e+002,1.025928e+002
8.937517e+002,1.052272e+002
8.947159e+002,1.090424e+002
8.956802e+002,1.124932e+002
8.966444e+002,1.150032e+002
8.976086e+002,1.174052e+002
8.985729e+002,1.217618e+002
8.995371e+002,1.263569e+002
9.005013e+002,1.273427e+002
9.014656e+002,1.254807e+002
9.024298e+002,1.237612e+002
9.033940e+002,1.241524e+002
9.043583e+002,1.259636e+002
9.053225e+002,1.268590e+002
9.062867e+002,1.256210e+002
9.072510e+002,1.242212e+002
9.082152e+002,1.235193e+002
9.091794e+002,1.232785e+002
9.101437e+002,1.226323e+002
9.111079e+002,1.213672e+002
9.120721e+002,1.216957e+002
9.130364e+002,1.273569e+002
9.140006e+002,1.319578e+002
9.149648e+002,1.307314e+002
9.159291e+002,1.262125e+002
9.168933e+002,1.239329e+002
9.178575e+002,1.274608e+002
9.188218e+002,1.340570e+002
9.197860e+002,1.347427e+002
9.207502e+002,1.292173e+002
9.217145e+002,1.238273e+002
9.226787e+002,1.200956e+002
9.236429e+002,1.178265e+002
9.246072e+002,1.168608e+002
9.255714e+002,1.173826e+002
9.265356e+002,1.160956e+002
9.274999e+002,1.093145e+002
9.284641e+002,1.036436e+002
9.294283e+002,1.023036e+002
9.303926e+002,1.038975e+002
9.313568e+002,1.058206e+002
9.323210e+002,1.068009e+002
9.332853e+002,1.064244e+002
9.342495e+002,1.027072e+002
9.352137e+002,9.733160e+001
9.361780e+002,9.331763e+001
9.371422e+002,9.167639e+001
9.381064e+002,9.144092e+001
9.390707e+002,9.080817e+001
9.400349e+002,8.902618e+001
9.409991e+002,8.839819e+001
9.419634e+002,9.035565e+001
9.429276e+002,9.123346e+001
9.438918e+002,8.966913e+001
9.448561e+002,8.675378e+001
9.458203e+002,8.427032e+001
9.467845e+002,8.282001e+001
9.477488e+002,8.203101e+001
9.487130e+002,8.169122e+001
9.496772e+002,8.160693e+001
9.506415e+002,8.151898e+001
9.516057e+002,8.151001e+001
9.525699e+002,8.216888e+001
9.535342e+002,8.407568e+001
9.544984e+002,8.660510e+001
9.554626e+002,8.545264e+001
9.564269e+002,8.057635e+001
9.573911e+002,7.675458e+001
9.583553e+002,7.490436e+001
9.593196e+002,7.467377e+001
9.602838e+002,7.621503e+001
9.612480e+002,8.026031e+001
9.622123e+002,8.216437e+001
9.631765e+002,7.880688e+001
9.641407e+002,7.520844e+001
9.651050e+002,7.414398e+001
9.660692e+002,7.431604e+001
9.670334e+002,7.235425e+001
9.679977e+002,6.634521e+001
9.689619e+002,5.966455e+001
9.699261e+002,5.887421e+001
9.708904e+002,6.225635e+001
9.718546e+002,6.749890e+001
9.728188e+002,7.431946e+001
9.737831e+002,8.114465e+001
9.747473e+002,8.566461e+001
9.757115e+002,8.720245e+001
9.766758e+002,9.110626e+001
9.776400e+002,1.030208e+002
9.786042e+002,1.112317e+002
9.795685e+002,1.109319e+002
9.805327e+002,1.054708e+002
9.814969e+002,9.982703e+001
9.824612e+002,9.597009e+001
9.834254e+002,9.197095e+001
9.843896e+002,8.413177e+001
9.853539e+002,7.527246e+001
9.863181e+002,6.881030e+001
9.872823e+002,6.439960e+001
9.882466e+002,5.997321e+001
9.892108e+002,5.421716e+001
9.901750e+002,4.823187e+001
9.911393e+002,4.555267e+001
9.921035e+002,4.633752e+001
9.930677e+002,4.787891e+001
9.940320e+002,5.176300e+001
9.949962e+002,5.604486e+001
9.959604e+002,5.828906e+001
9.969247e+002,5.858228e+001
9.978889e+002,6.067242e+001
9.988531e+002,6.741388e+001
9.998174e+002,7.358685e+001
1.000782e+003,7.671539e+001
1.001746e+003,7.780933e+001
1.002710e+003,7.820306e+001
1.003674e+003,7.845093e+001
1.004639e+003,7.808075e+001
1.005603e+003,7.612555e+001
1.006567e+003,7.222028e+001
1.007531e+003,7.032983e+001
1.008495e+003,7.165497e+001
1.009460e+003,7.266882e+001
1.010424e+003,7.089746e+001
1.011388e+003,6.722729e+001
1.012352e+003,6.500208e+001
1.013317e+003,6.546375e+001
1.014281e+003,6.499707e+001
1.015245e+003,6.258765e+001
1.016209e+003,5.860339e+001
1.017174e+003,5.262201e+001
1.018138e+003,4.541241e+001
1.019102e+003,3.885278e+001
1.020066e+003,3.462952e+001
1.021031e+003,3.227539e+001
1.021995e+003,2.970551e+001
1.022959e+003,2.654895e+001
1.023923e+003,2.326300e+001
1.024887e+003,1.992438e+001
1.025852e+003,1.643982e+001
1.026816e+003,1.277985e+001
1.027780e+003,9.187439e+000
1.028744e+003,6.026428e+000
1.029709e+003,1.949707e+000
1.030673e+003,-3.073120e-001
1.031637e+003,1.488220e+000
1.032601e+003,4.754272e+000
1.033566e+003,5.993652e+000
1.034530e+003,4.144714e+000
1.035494e+003,1.475037e+000
1.036458e+003,-2.172241e-001
1.037422e+003,-1.022217e+000
1.038387e+003,-8.107910e-001
1.039351e+003,2.149048e-001
1.040315e+003,1.411377e+000
1.041279e+003,2.407410e+000
1.042244e+003,3.572205e+000
1.043208e+003,6.004272e+000
1.044172e+003,1.182825e+001
1.045136e+003,1.401849e+001
1.046101e+003,1.048602e+001
1.047065e+003,5.968689e+000
1.048029e+003,2.736267e+000
1.048993e+003,9.645386e-001
1.049958e+003,5.889282e-001
1.050922e+003,2.223633e+000
1.051886e+003,4.413391e+000
1.052850e+003,5.556885e+000
1.053814e+003,6.176025e+000
1.054779e+003,7.076965e+000
1.055743e+003,8.270630e+000
1.056707e+003,8.767822e+000
1.057671e+003,7.244812e+000
1.058636e+003,3.588379e+000
1.059600e+003,2.866577e+000
1.060564e+003,9.354858e+000
1.061528e+003,1.358875e+001
1.062493e+003,1.170154e+001
1.063457e+003,7.811584e+000
1.064421e+003,7.388550e+000
1.065385e+003,1.112390e+001
1.066349e+003,1.325568e+001
1.067314e+003,8.800903e+000
1.068278e+003,4.420288e+000
1.069242e+003,5.863770e+000
1.070206e+003,1.044055e+001
1.071171e+003,1.350519e+001
1.072135e+003,1.294202e+001
1.073099e+003,1.021869e+001
1.074063e+003,8.032532e+000
1.075028e+003,6.502686e+000
1.075992e+003,7.306946e+000
1.076956e+003,1.241278e+001
1.077920e+003,1.548993e+001
1.078885e+003,1.345490e+001
1.079849e+003,8.803101e+000
1.080813e+003,5.623413e+000
1.081777e+003,4.575806e+000
1.082741e+003,4.747498e+000
1.083706e+003,6.455444e+000
1.084670e+003,7.707825e+000
1.085634e+003,6.742371e+000
1.086598e+003,4.581177e+000
1.087563e+003,3.810486e+000
1.088527e+003,5.902222e+000
1.089491e+003,9.145203e+000
1.090455e+003,9.422852e+000
1.091420e+003,5.965515e+000
1.092384e+003,2.964661e+000
1.093348e+003,-4.216309e-001
1.094312e+003,-2.592590e+000
1.095276e+003,-1.322876e+000
1.096241e+003,2.373962e+000
1.097205e+003,4.581726e+000
1.098169e+003,4.291809e+000
1.099133e+003,3.069275e+000
1.100098e+003,-1.089478e-001
1.101062e+003,-2.091553e+000
1.102026e+003,3.918457e-001
1.102990e+003,5.720032e+000
1.103955e+003,9.924744e+000
1.104919e+003,1.050146e+001
1.105883e+003,8.407288e+000
1.106847e+003,5.446899e+000
1.107812e+003,1.622925e+000
1.108776e+003,-1.226196e-001
1.109740e+003,1.209351e+000
1.110704e+003,2.812866e+000
1.111668e+003,2.410400e+000
1.112633e+003,1.033447e+000
1.113597e+003,2.497192e+000
1.114561e+003,8.972656e+000
1.115525e+003,1.302063e+001
1.116490e+003,1.027087e+001
1.117454e+003,6.573120e+000
1.118418e+003,6.148621e+000
1.119382e+003,8.577209e+000
1.120347e+003,1.079468e+001
1.121311e+003,1.057391e+001
1.122275e+003,8.826599e+000
1.123239e+003,8.461487e+000
1.124203e+003,1.001874e+001
1.125168e+003,1.266644e+001
1.126132e+003,1.726276e+001
1.127096e+003,2.095300e+001
1.128060e+003,2.010376e+001
1.129025e+003,1.589905e+001
1.129989e+003,1.501666e+001
1.130953e+003,1.923663e+001
1.131917e+003,2.333215e+001
1.132882e+003,2.589087e+001
1.133846e+003,2.827734e+001
1.134810e+003,3.177472e+001
1.135774e+003,3.582227e+001
1.136739e+003,3.847241e+001
1.137703e+003,3.865186e+001
1.138667e+003,3.847540e+001
1.139631e+003,4.200226e+001
1.140595e+003,4.883966e+001
1.141560e+003,5.496356e+001
1.142524e+003,5.982574e+001
1.143488e+003,6.663635e+001
1.144452e+003,7.787445e+001
1.145417e+003,9.264233e+001
1.146381e+003,1.076294e+002
1.147345e+003,1.221587e+002
1.148309e+003,1.381271e+002
1.149274e+003,1.558273e+002
1.150238e+003,1.755315e+002
1.151202e+003,2.003958e+002
1.152166e+003,2.271080e+002
1.153130e+003,2.502372e+002
1.154095e+003,2.667267e+002
1.155059e+003,2.766885e+002
1.156023e+003,2.807397e+002
1.156987e+003,2.789409e+002
1.157952e+003,2.735868e+002
1.158916e+003,2.657415e+002
1.159880e+003,2.537280e+002
1.160844e+003,2.336911e+002
1.161809e+003,2.082110e+002
1.162773e+003,1.840674e+002
1.163737e+003,1.611434e+002
1.164701e+003,1.404537e+002
1.165666e+003,1.234759e+002
1.166630e+003,1.082468e+002
1.167594e+003,9.336499e+001
1.168558e+003,8.001251e+001
1.169522e+003,7.008795e+001
1.170487e+003,6.403186e+001
1.171451e+003,6.068170e+001
1.172415e+003,5.881464e+001
1.173379e+003,5.817255e+001
1.174344e+003,5.834460e+001
1.175308e+003,5.961975e+001
1.176272e+003,5.991772e+001
1.177236e+003,5.909650e+001
1.178201e+003,5.686560e+001
1.179165e+003,5.159039e+001
1.180129e+003,4.288531e+001
1.181093e+003,3.634039e+001
1.182057e+003,3.384711e+001
1.183022e+003,3.320691e+001
1.183986e+003,3.498499e+001
1.184950e+003,3.704926e+001
1.185914e+003,3.698480e+001
1.186879e+003,3.512445e+001
1.187843e+003,3.406415e+001
1.188807e+003,3.582410e+001
1.189771e+003,3.912842e+001
1.190736e+003,4.075677e+001
1.191700e+003,4.056665e+001
1.192664e+003,3.929871e+001
1.193628e+003,3.718475e+001
1.194593e+003,3.431464e+001
1.195557e+003,2.999976e+001
1.196521e+003,2.478687e+001
1.197485e+003,2.093274e+001
1.198449e+003,1.915094e+001
1.199414e+003,1.781458e+001
1.200378e+003,1.657062e+001
1.201342e+003,1.524139e+001
1.202306e+003,1.331635e+001
1.203271e+003,1.102118e+001
1.204235e+003,8.989319e+000
1.205199e+003,7.611389e+000
1.206163e+003,6.792725e+000
1.207128e+003,6.375977e+000
1.208092e+003,6.465820e+000
1.209056e+003,4.878235e+000
1.210020e+003,1.496521e+000
1.210984e+003,-2.826050e+000
1.211949e+003,-8.504944e+000
1.212913e+003,-1.478876e+001
1.213877e+003,-2.069714e+001
1.214841e+003,-2.603247e+001
1.215806e+003,-3.066193e+001
1.216770e+003,-3.439307e+001
1.217734e+003,-3.781012e+001
1.218698e+003,-4.233679e+001
1.219663e+003,-4.664709e+001
1.220627e+003,-4.851703e+001
1.221591e+003,-4.797424e+001
1.222555e+003,-4.717346e+001
1.223520e+003,-4.801215e+001
1.224484e+003,-5.025623e+001
1.225448e+003,-5.363904e+001
1.226412e+003,-6.047040e+001
1.227376e+003,-6.298969e+001
1.228341e+003,-5.748950e+001
1.229305e+003,-5.227838e+001
1.230269e+003,-5.269391e+001
1.231233e+003,-5.641284e+001
1.232198e+003,-5.800281e+001
1.233162e+003,-5.578595e+001
1.234126e+003,-5.347394e+001
1.235090e+003,-5.425061e+001
1.236055e+003,-5.630255e+001
1.237019e+003,-5.833514e+001
1.237983e+003,-5.994000e+001
1.238947e+003,-5.956299e+001
1.239911e+003,-5.641077e+001
1.240876e+003,-5.246997e+001
1.241840e+003,-5.103729e+001
1.242804e+003,-5.229144e+001
1.243768e+003,-5.233643e+001
1.244733e+003,-4.959955e+001
1.245697e+003,-4.768146e+001
1.246661e+003,-4.780292e+001
1.247625e+003,-4.869250e+001
1.248590e+003,-4.947980e+001
1.249554e+003,-4.967706e+001
1.250518e+003,-4.864172e+001
1.251482e+003,-4.614569e+001
1.252447e+003,-4.421680e+001
1.253411e+003,-4.551086e+001
1.254375e+003,-4.843884e+001
1.255339e+003,-5.027283e+001
1.256303e+003,-5.067212e+001
1.257268e+003,-4.940314e+001
1.258232e+003,-4.621234e+001
1.259196e+003,-4.236652e+001
1.260160e+003,-3.983228e+001
1.261125e+003,-3.847137e+001
1.262089e+003,-3.718494e+001
1.263053e+003,-3.621600e+001
1.264017e+003,-3.568329e+001
1.264982e+003,-3.572137e+001
1.265946e+003,-3.583661e+001
1.266910e+003,-3.539307e+001
1.267874e+003,-3.455273e+001
1.268839e+003,-3.411432e+001
1.269803e+003,-3.458984e+001
1.270767e+003,-3.555182e+001
1.271731e+003,-3.621820e+001
1.272695e+003,-3.638379e+001
1.273660e+003,-3.598779e+001
1.274624e+003,-3.509198e+001
1.275588e+003,-3.512054e+001
1.276552e+003,-3.674316e+001
1.277517e+003,-3.917151e+001
1.278481e+003,-4.199353e+001
1.279445e+003,-4.551678e+001
1.280409e+003,-4.645667e+001
1.281374e+003,-4.148596e+001
1.282338e+003,-3.657776e+001
1.283302e+003,-3.459381e+001
1.284266e+003,-3.458582e+001
1.285230e+003,-3.592584e+001
1.286195e+003,-3.812024e+001
1.287159e+003,-4.028461e+001
1.288123e+003,-4.152698e+001
1.289087e+003,-4.194666e+001
1.290052e+003,-4.253931e+001
1.291016e+003,-4.343793e+001
1.291980e+003,-4.530432e+001
1.292944e+003,-5.081104e+001
1.293909e+003,-5.446307e+001
1.294873e+003,-5.213562e+001
1.295837e+003,-4.728070e+001
1.296801e+003,-4.502429e+001
1.297766e+003,-4.591211e+001
1.298730e+003,-4.651178e+001
1.299694e+003,-4.483722e+001
1.300658e+003,-4.319379e+001
1.301622e+003,-4.457019e+001
1.302587e+003,-4.716516e+001
1.303551e+003,-4.815796e+001
1.304515e+003,-4.701874e+001
1.305479e+003,-4.535022e+001
1.306444e+003,-4.461505e+001
1.307408e+003,-4.464398e+001
1.308372e+003,-4.434033e+001
1.309336e+003,-4.365747e+001
1.310301e+003,-4.287146e+001
1.311265e+003,-4.097052e+001
1.312229e+003,-3.981165e+001
1.313193e+003,-4.023810e+001
1.314157e+003,-4.165656e+001
1.315122e+003,-4.383466e+001
1.316086e+003,-4.648639e+001
1.317050e+003,-4.890985e+001
1.318014e+003,-5.049628e+001
1.318979e+003,-5.123529e+001
1.319943e+003,-5.114380e+001
1.320907e+003,-5.019604e+001
1.321871e+003,-4.988934e+001
1.322836e+003,-5.119702e+001
1.323800e+003,-5.162817e+001
1.324764e+003,-4.891315e+001
1.325728e+003,-4.483936e+001
1.326693e+003,-4.277106e+001
1.327657e+003,-4.303693e+001
1.328621e+003,-4.322595e+001
1.329585e+003,-4.148291e+001
1.330549e+003,-3.956348e+001
1.331514e+003,-3.970129e+001
1.332478e+003,-4.066095e+001
1.333442e+003,-4.071881e+001
1.334406e+003,-3.990881e+001
1.335371e+003,-3.961194e+001
1.336335e+003,-4.065527e+001
1.337299e+003,-4.226654e+001
1.338263e+003,-4.313318e+001
1.339228e+003,-4.322021e+001
1.340192e+003,-4.270990e+001
1.341156e+003,-4.106915e+001
1.342120e+003,-3.969104e+001
1.343084e+003,-3.885278e+001
1.344049e+003,-3.893445e+001
1.345013e+003,-4.045837e+001
1.345977e+003,-4.264532e+001
1.346941e+003,-4.383167e+001
1.347906e+003,-4.344165e+001
1.348870e+003,-4.229999e+001
1.349834e+003,-4.101428e+001
1.350798e+003,-3.988342e+001
1.351763e+003,-3.883838e+001
1.352727e+003,-3.789917e+001
1.353691e+003,-3.793134e+001
1.354655e+003,-3.951367e+001
1.355620e+003,-4.105200e+001
1.356584e+003,-4.056482e+001
1.357548e+003,-3.810956e+001
1.358512e+003,-3.492822e+001
1.359476e+003,-3.024847e+001
1.360441e+003,-2.831036e+001
1.361405e+003,-3.258264e+001
1.362369e+003,-3.676874e+001
1.363333e+003,-3.797968e+001
1.364298e+003,-3.704230e+001
1.365262e+003,-3.455273e+001
1.366226e+003,-3.141040e+001
1.367190e+003,-3.011035e+001
1.368155e+003,-3.297314e+001
1.369119e+003,-3.801898e+001
1.370083e+003,-3.876160e+001
1.371047e+003,-3.353278e+001
1.372011e+003,-3.001898e+001
1.372976e+003,-2.990948e+001
1.373940e+003,-3.001038e+001
1.374904e+003,-2.822565e+001
1.375868e+003,-2.627899e+001
1.376833e+003,-2.672247e+001
1.377797e+003,-2.961603e+001
1.378761e+003,-3.323907e+001
1.379725e+003,-3.728754e+001
1.380690e+003,-4.016577e+001
1.381654e+003,-3.984302e+001
1.382618e+003,-3.726898e+001
1.383582e+003,-3.267126e+001
1.384547e+003,-2.666046e+001
1.385511e+003,-2.250311e+001
1.386475e+003,-2.218713e+001
1.387439e+003,-2.395978e+001
1.388403e+003,-2.531262e+001
1.389368e+003,-2.628394e+001
1.390332e+003,-2.708881e+001
1.391296e+003,-2.794263e+001
1.392260e+003,-2.762079e+001
1.393225e+003,-2.487677e+001
1.394189e+003,-2.225372e+001
1.395153e+003,-2.073474e+001
1.396117e+003,-2.047400e+001
1.397082e+003,-2.213501e+001
1.398046e+003,-2.522186e+001
1.399010e+003,-2.714258e+001
1.399974e+003,-2.563605e+001
1.400938e+003,-2.281818e+001
1.401903e+003,-2.448169e+001
1.402867e+003,-3.165057e+001
1.403831e+003,-3.381628e+001
1.404795e+003,-2.797058e+001
1.405760e+003,-2.239612e+001
1.406724e+003,-2.049768e+001
1.407688e+003,-2.120203e+001
1.408652e+003,-2.330463e+001
1.409617e+003,-2.578040e+001
1.410581e+003,-2.655194e+001
1.411545e+003,-2.458411e+001
1.412509e+003,-2.202057e+001
1.413474e+003,-2.142297e+001
1.414438e+003,-2.186243e+001
1.415402e+003,-2.022998e+001
1.416366e+003,-1.682471e+001
1.417330e+003,-1.611914e+001
1.418295e+003,-2.062506e+001
1.419259e+003,-2.541815e+001
1.420223e+003,-2.397150e+001
1.421187e+003,-1.779718e+001
1.422152e+003,-1.543414e+001
1.423116e+003,-1.824414e+001
1.424080e+003,-1.950214e+001
1.425044e+003,-1.602399e+001
1.426009e+003,-1.287250e+001
1.426973e+003,-1.280688e+001
1.427937e+003,-1.385791e+001
1.428901e+003,-1.298376e+001
1.429865e+003,-1.023218e+001
1.430830e+003,-8.397461e+000
1.431794e+003,-9.486145e+000
1.432758e+003,-1.248608e+001
1.433722e+003,-1.506104e+001
1.434687e+003,-1.681989e+001
1.435651e+003,-1.599854e+001
1.436615e+003,-1.173645e+001
1.437579e+003,-8.776367e+000
1.438544e+003,-7.722168e+000
1.439508e+003,-7.545776e+000
1.440472e+003,-7.505493e+000
1.441436e+003,-7.363220e+000
1.442401e+003,-7.329163e+000
1.443365e+003,-7.500244e+000
1.444329e+003,-7.157471e+000
1.445293e+003,-5.394897e+000
1.446257e+003,-3.373901e+000
1.447222e+003,-3.915894e+000
1.448186e+003,-6.550476e+000
1.449150e+003,-8.426147e+000
1.450114e+003,-9.335815e+000
1.451079e+003,-9.908020e+000
1.452043e+003,-9.885925e+000
1.453007e+003,-9.585999e+000
1.453971e+003,-1.013812e+001
1.454936e+003,-1.142584e+001
1.455900e+003,-1.112579e+001
1.456864e+003,-8.081726e+000
1.457828e+003,-5.049988e+000
1.458792e+003,-3.641296e+000
1.459757e+003,-3.415588e+000
1.460721e+003,-4.483093e+000
1.461685e+003,-6.312378e+000
1.462649e+003,-7.742554e+000
1.463614e+003,-8.358032e+000
1.464578e+003,-8.844849e+000
1.465542e+003,-9.972168e+000
1.466506e+003,-1.161951e+001
1.467471e+003,-1.344543e+001
1.468435e+003,-1.574829e+001
1.469399e+003,-1.441821e+001
1.470363e+003,-5.154236e+000
1.471328e+003,9.490967e-001
1.472292e+003,-2.396667e+000
1.473256e+003,-6.729126e+000
1.474220e+003,-4.108643e+000
1.475184e+003,2.639771e+000
1.476149e+003,6.155701e+000
1.477113e+003,4.079895e+000
1.478077e+003,5.748291e-001
1.479041e+003,-3.564453e-002
1.480006e+003,1.622314e+000
1.480970e+003,2.694458e+000
1.481934e+003,2.477478e+000
1.482898e+003,2.929993e+000
1.483863e+003,4.897949e+000
1.484827e+003,6.092712e+000
1.485791e+003,5.357361e+000
1.486755e+003,4.726868e+000
1.487719e+003,5.491211e+000
1.488684e+003,7.611450e+000
1.489648e+003,1.157306e+001
1.490612e+003,1.758209e+001
1.491576e+003,2.260468e+001
1.492541e+003,2.344324e+001
1.493505e+003,2.247058e+001
1.494469e+003,2.538037e+001
1.495433e+003,3.107782e+001
1.496398e+003,3.549683e+001
1.497362e+003,3.833173e+001
1.498326e+003,4.148206e+001
1.499290e+003,4.560461e+001
1.500255e+003,5.067517e+001
1.501219e+003,5.688062e+001
1.502183e+003,6.387994e+001
1.503147e+003,7.000012e+001
1.504111e+003,7.433923e+001
1.505076e+003,8.059979e+001
1.506040e+003,9.176080e+001
1.507004e+003,1.052040e+002
1.507968e+003,1.179845e+002
1.508933e+003,1.309175e+002
1.509897e+003,1.457704e+002
1.510861e+003,1.634304e+002
1.511825e+003,1.835395e+002
1.512790e+003,2.055684e+002
1.513754e+003,2.290586e+002
1.514718e+003,2.545322e+002
1.515682e+003,2.816016e+002
1.516646e+003,3.057534e+002
1.517611e+003,3.269010e+002
1.518575e+003,3.456696e+002
1.519539e+003,3.638389e+002
1.520503e+003,3.787904e+002
1.521468e+003,3.879249e+002
1.522432e+003,3.931331e+002
1.523396e+003,3.984324e+002
1.524360e+003,4.030997e+002
1.525325e+003,4.013958e+002
1.526289e+003,3.896261e+002
1.527253e+003,3.719203e+002
1.528217e+003,3.555451e+002
1.529182e+003,3.408787e+002
1.530146e+003,3.221409e+002
1.531110e+003,2.967446e+002
1.532074e+003,2.712842e+002
1.533039e+003,2.458381e+002
1.534003e+003,2.192305e+002
1.534967e+003,1.901870e+002
1.535931e+003,1.617744e+002
1.536896e+003,1.366198e+002
1.537860e+003,1.154055e+002
1.538824e+003,9.790314e+001
1.539788e+003,8.372766e+001
1.540752e+003,7.232556e+001
1.541717e+003,6.338525e+001
1.542681e+003,5.675409e+001
1.543645e+003,4.993359e+001
1.544609e+003,4.241187e+001
1.545573e+003,3.735333e+001
1.546538e+003,3.483960e+001
1.547502e+003,3.343121e+001
1.548466e+003,3.333789e+001
1.549430e+003,3.451959e+001
1.550395e+003,3.694055e+001
1.551359e+003,4.007794e+001
1.552323e+003,4.386017e+001
1.553287e+003,4.805713e+001
1.554252e+003,4.963788e+001
1.555216e+003,4.555981e+001
1.556180e+003,3.789191e+001
1.557144e+003,3.105121e+001
1.558109e+003,2.526593e+001
1.559073e+003,2.095209e+001
1.560037e+003,1.790802e+001
1.561001e+003,1.552332e+001
1.561966e+003,1.407361e+001
1.562930e+003,1.381134e+001
1.563894e+003,1.527759e+001
1.564858e+003,1.753418e+001
1.565823e+003,1.834912e+001
1.566787e+003,1.735870e+001
1.567751e+003,1.699402e+001
1.568715e+003,1.895282e+001
1.569679e+003,2.159552e+001
1.570644e+003,2.273596e+001
1.571608e+003,2.250177e+001
1.572572e+003,2.207306e+001
1.573536e+003,2.173004e+001
1.574500e+003,2.145953e+001
1.575465e+003,2.053699e+001
1.576429e+003,2.050195e+001
1.577393e+003,2.355688e+001
1.578357e+003,2.770135e+001
1.579322e+003,2.869867e+001
1.580286e+003,2.671423e+001
1.581250e+003,2.645978e+001
1.582214e+003,2.983319e+001
1.583179e+003,3.340057e+001
1.584143e+003,3.469470e+001
1.585107e+003,3.431036e+001
1.586071e+003,3.272986e+001
1.587036e+003,3.113043e+001
1.588000e+003,3.233441e+001
1.588964e+003,3.685785e+001
1.589928e+003,4.082721e+001
1.590893e+003,4.188354e+001
1.591857e+003,4.090588e+001
1.592821e+003,3.818085e+001
1.593785e+003,3.441437e+001
1.594750e+003,3.352832e+001
1.595714e+003,3.616968e+001
1.596678e+003,3.937079e+001
1.597642e+003,4.216339e+001
1.598606e+003,4.497040e+001
1.599571e+003,4.941321e+001
1.600535e+003,5.359552e+001
1.601499e+003,5.400555e+001
1.602463e+003,5.120844e+001
1.603427e+003,4.955304e+001
1.604392e+003,5.087256e+001
1.605356e+003,5.342096e+001
1.606320e+003,5.629541e+001
1.607284e+003,5.879486e+001
1.608249e+003,5.824268e+001
1.609213e+003,5.449805e+001
1.610177e+003,5.238965e+001
1.611141e+003,5.337842e+001
1.612106e+003,5.440204e+001
1.613070e+003,5.376343e+001
1.614034e+003,5.273578e+001
1.614998e+003,5.172845e+001
1.615963e+003,5.121106e+001
1.616927e+003,5.240723e+001
1.617891e+003,5.499323e+001
1.618855e+003,5.588336e+001
1.619820e+003,5.267004e+001
1.620784e+003,4.865857e+001
1.621748e+003,5.009473e+001
1.622712e+003,5.631989e+001
1.623677e+003,5.947742e+001
1.624641e+003,5.894110e+001
1.625605e+003,5.903088e+001
1.626569e+003,6.015137e+001
1.627533e+003,6.082861e+001
1.628498e+003,6.157495e+001
1.629462e+003,6.146997e+001
1.630426e+003,5.815784e+001
1.631390e+003,5.355243e+001
1.632354e+003,5.209833e+001
1.633319e+003,5.463849e+001
1.634283e+003,5.810089e+001
1.635247e+003,6.027753e+001
1.636211e+003,6.163306e+001
1.637176e+003,6.353265e+001
1.638140e+003,6.600354e+001
1.639104e+003,6.662079e+001
1.640068e+003,6.469025e+001
1.641033e+003,6.255536e+001
1.641997e+003,6.076154e+001
1.642961e+003,5.931616e+001
1.643925e+003,5.719122e+001
1.644890e+003,5.607477e+001
1.645854e+003,5.872760e+001
1.646818e+003,6.352588e+001
1.647782e+003,6.624219e+001
1.648747e+003,6.558459e+001
1.649711e+003,6.366473e+001
1.650675e+003,6.225525e+001
1.651639e+003,6.143842e+001
1.652604e+003,6.129114e+001
1.653568e+003,6.152655e+001
1.654532e+003,5.956335e+001
1.655496e+003,5.418738e+001
1.656460e+003,5.061884e+001
1.657425e+003,5.209296e+001
1.658389e+003,5.367126e+001
1.659353e+003,5.202869e+001
1.660317e+003,4.954120e+001
1.661281e+003,4.887811e+001
1.662246e+003,4.954938e+001
1.663210e+003,4.941608e+001
1.664174e+003,4.797028e+001
1.665138e+003,4.737158e+001
1.666103e+003,4.999158e+001
1.667067e+003,5.322955e+001
1.668031e+003,5.097986e+001
1.668995e+003,4.391827e+001
1.669960e+003,4.105688e+001
1.670924e+003,4.428650e+001
1.671888e+003,4.683600e+001
1.672852e+003,4.601489e+001
1.673817e+003,4.448816e+001
1.674781e+003,4.392310e+001
1.675745e+003,4.354889e+001
1.676709e+003,4.219836e+001
1.677674e+003,4.026123e+001
1.678638e+003,3.935944e+001
1.679602e+003,3.999445e+001
1.680566e+003,4.038550e+001
1.681531e+003,3.953809e+001
1.682495e+003,3.762091e+001
1.683459e+003,3.335272e+001
1.684423e+003,2.735803e+001
1.685387e+003,2.583893e+001
1.686352e+003,3.020673e+001
1.687316e+003,3.282239e+001
1.688280e+003,3.018500e+001
1.689244e+003,2.724005e+001
1.690208e+003,2.758710e+001
1.691173e+003,2.941486e+001
1.692137e+003,3.188074e+001
1.693101e+003,3.452789e+001
1.694065e+003,3.504840e+001
1.695030e+003,3.246454e+001
1.695994e+003,2.975763e+001
1.696958e+003,2.918195e+001
1.697922e+003,2.931830e+001
1.698887e+003,2.844446e+001
1.699851e+003,2.690338e+001
1.700815e+003,2.528113e+001
1.701779e+003,2.348102e+001
1.702744e+003,2.183862e+001
1.703708e+003,2.068823e+001
1.704672e+003,2.053638e+001
1.705636e+003,2.172705e+001
1.706601e+003,2.312402e+001
1.707565e+003,2.377545e+001
1.708529e+003,2.398761e+001
1.709493e+003,2.382581e+001
1.710458e+003,2.323267e+001
1.711422e+003,2.231201e+001
1.712386e+003,2.103503e+001
1.713350e+003,2.010797e+001
1.714314e+003,1.999231e+001
1.715279e+003,1.997900e+001
1.716243e+003,1.915997e+001
1.717207e+003,1.764990e+001
1.718171e+003,1.601776e+001
1.719135e+003,1.450183e+001
1.720100e+003,1.360126e+001
1.721064e+003,1.357892e+001
1.722028e+003,1.404065e+001
1.722992e+003,1.501978e+001
1.723957e+003,1.661438e+001
1.724921e+003,1.715820e+001
1.725885e+003,1.589880e+001
1.726849e+003,1.453253e+001
1.727814e+003,1.350616e+001
1.728778e+003,1.349414e+001
1.729742e+003,1.603705e+001
1.730706e+003,1.833716e+001
1.731671e+003,1.628937e+001
1.732635e+003,1.167505e+001
1.733599e+003,9.541565e+000
1.734563e+003,1.079047e+001
1.735528e+003,1.213031e+001
1.736492e+003,1.166101e+001
1.737456e+003,1.122144e+001
1.738420e+003,1.322229e+001
1.739385e+003,1.620105e+001
1.740349e+003,1.553729e+001
1.741313e+003,1.008319e+001
1.742277e+003,8.233704e+000
1.743241e+003,1.419830e+001
1.744206e+003,1.753345e+001
1.745170e+003,1.502185e+001
1.746134e+003,1.141156e+001
1.747098e+003,7.903381e+000
1.748063e+003,5.704895e+000
1.749027e+003,7.178101e+000
1.749991e+003,1.086090e+001
1.750955e+003,1.265314e+001
1.751919e+003,1.122327e+001
1.752884e+003,8.708679e+000
1.753848e+003,6.863159e+000
1.754812e+003,5.418335e+000
1.755776e+003,4.023926e+000
1.756741e+003,3.015747e+000
1.757705e+003,3.430603e+000
1.758669e+003,5.523621e+000
1.759633e+003,7.475830e+000
1.760598e+003,9.857300e+000
1.761562e+003,1.038123e+001
1.762526e+003,6.652893e+000
1.763490e+003,3.302551e+000
1.764455e+003,4.257263e+000
1.765419e+003,7.523132e+000
1.766383e+003,9.392761e+000
1.767347e+003,9.486084e+000
1.768312e+003,1.020111e+001
1.769276e+003,1.259479e+001
1.770240e+003,1.484314e+001
1.771204e+003,1.578949e+001
1.772168e+003,1.561212e+001
1.773133e+003,1.313202e+001
1.774097e+003,8.748291e+000
1.775061e+003,7.038635e+000
1.776025e+003,8.473511e+000
1.776990e+003,9.548645e+000
1.777954e+003,9.223694e+000
1.778918e+003,9.257141e+000
1.779882e+003,1.131653e+001
1.780846e+003,1.345081e+001
1.781811e+003,1.312799e+001
1.782775e+003,1.111774e+001
1.783739e+003,9.497925e+000
1.784703e+003,8.608948e+000
1.785668e+003,8.920288e+000
1.786632e+003,1.119977e+001
1.787596e+003,1.309900e+001
1.788560e+003,1.292596e+001
1.789525e+003,1.225439e+001
1.790489e+003,1.320496e+001
1.791453e+003,1.496265e+001
1.792417e+003,1.504211e+001
1.793382e+003,1.306140e+001
1.794346e+003,1.063300e+001
1.795310e+003,8.492493e+000
1.796274e+003,6.852295e+000
1.797239e+003,6.200073e+000
1.798203e+003,6.711609e+000
1.799167e+003,7.633301e+000
1.800131e+003,8.269714e+000
1.801095e+003,9.021729e+000
1.802060e+003,1.126727e+001
1.803024e+003,1.278815e+001
1.803988e+003,1.270569e+001
1.804952e+003,1.217633e+001
1.805917e+003,1.096521e+001
1.806881e+003,1.020673e+001
1.807845e+003,1.161462e+001
1.808809e+003,1.434863e+001
1.809773e+003,1.635834e+001
1.810738e+003,1.725800e+001
1.811702e+003,1.841284e+001
1.812666e+003,2.061475e+001
1.813630e+003,2.260895e+001
1.814595e+003,2.267261e+001
1.815559e+003,2.107520e+001
1.816523e+003,1.903265e+001
1.817487e+003,1.647614e+001
1.818452e+003,1.556537e+001
1.819416e+003,1.762567e+001
1.820380e+003,1.867139e+001
1.821344e+003,1.629895e+001
1.822309e+003,1.383472e+001
1.823273e+003,1.405798e+001
1.824237e+003,1.499805e+001
1.825201e+003,1.343079e+001
1.826166e+003,1.078412e+001
1.827130e+003,1.229224e+001
1.828094e+003,1.851367e+001
1.829058e+003,2.159796e+001
1.830022e+003,1.645557e+001
1.830987e+003,1.065930e+001
1.831951e+003,1.124957e+001
1.832915e+003,1.443933e+001
1.833879e+003,1.440576e+001
1.834844e+003,1.214374e+001
1.835808e+003,1.148358e+001
1.836772e+003,1.300372e+001
1.837736e+003,1.518274e+001
1.838700e+003,1.723724e+001
1.839665e+003,1.863843e+001
1.840629e+003,1.907422e+001
1.841593e+003,1.864471e+001
1.842557e+003,1.708032e+001
1.843522e+003,1.439575e+001
1.844486e+003,1.304132e+001
1.845450e+003,1.400854e+001
1.846414e+003,1.533429e+001
1.847379e+003,1.703864e+001
1.848343e+003,1.790070e+001
1.849307e+003,1.701392e+001
1.850271e+003,1.614264e+001
1.851236e+003,1.698334e+001
1.852200e+003,1.870410e+001
1.853164e+003,1.964716e+001
1.854128e+003,1.953687e+001
1.855093e+003,1.928906e+001
1.856057e+003,1.957129e+001
1.857021e+003,2.028467e+001
1.857985e+003,2.122986e+001
1.858949e+003,2.194934e+001
1.859914e+003,2.119110e+001
1.860878e+003,1.962677e+001
1.861842e+003,2.126697e+001
1.862806e+003,2.612933e+001
1.863771e+003,2.808929e+001
1.864735e+003,2.536469e+001
1.865699e+003,2.250391e+001
1.866663e+003,2.148071e+001
1.867627e+003,2.155927e+001
1.868592e+003,2.224091e+001
1.869556e+003,2.283496e+001
1.870520e+003,2.217133e+001
1.871484e+003,2.058496e+001
1.872449e+003,2.097955e+001
1.873413e+003,2.551440e+001
1.874377e+003,2.877063e+001
1.875341e+003,2.722705e+001
1.876306e+003,2.486609e+001
1.877270e+003,2.253473e+001
1.878234e+003,2.132166e+001
1.879198e+003,2.383582e+001
1.880163e+003,2.778058e+001
1.881127e+003,2.878119e+001
1.882091e+003,2.678778e+001
1.883055e+003,2.419452e+001
1.884020e+003,2.229730e+001
1.884984e+003,2.267719e+001
1.885948e+003,2.693982e+001
1.886912e+003,3.234650e+001
1.887876e+003,3.321967e+001
1.888841e+003,3.002625e+001
1.889805e+003,2.791913e+001
1.890769e+003,2.694312e+001
1.891733e+003,2.692920e+001
1.892698e+003,2.814508e+001
1.893662e+003,2.896350e+001
1.894626e+003,2.901215e+001
1.895590e+003,2.853064e+001
1.896554e+003,2.722742e+001
1.897519e+003,2.617047e+001
1.898483e+003,2.626935e+001
1.899447e+003,2.720380e+001
1.900411e+003,2.912445e+001
1.901376e+003,3.231482e+001
1.902340e+003,3.406873e+001
1.903304e+003,3.236438e+001
1.904268e+003,3.043872e+001
1.905233e+003,2.994879e+001
1.906197e+003,3.074243e+001
1.907161e+003,3.415009e+001
1.908125e+003,3.810889e+001
1.909090e+003,3.784668e+001
1.910054e+003,3.400714e+001
1.911018e+003,3.175629e+001
1.911982e+003,3.293304e+001
1.912947e+003,3.533331e+001
1.913911e+003,3.724225e+001
1.914875e+003,3.863501e+001
1.915839e+003,3.931964e+001
1.916803e+003,3.914319e+001
1.917768e+003,3.869977e+001
1.918732e+003,3.823700e+001
1.919696e+003,3.733179e+001
1.920660e+003,3.549835e+001
1.921625e+003,3.532263e+001
1.922589e+003,3.845502e+001
1.923553e+003,4.105835e+001
1.924517e+003,3.997357e+001
1.925481e+003,3.860132e+001
1.926446e+003,4.124170e+001
1.927410e+003,4.530011e+001
1.928374e+003,4.444550e+001
1.929338e+003,3.865076e+001
1.930303e+003,3.598553e+001
1.931267e+003,4.007587e+001
1.932231e+003,4.390106e+001
1.933195e+003,4.314117e+001
1.934160e+003,4.166693e+001
1.935124e+003,4.311200e+001
1.936088e+003,4.458362e+001
1.937052e+003,4.238898e+001
1.938017e+003,3.786981e+001
1.938981e+003,3.318634e+001
1.939945e+003,2.954010e+001
1.940909e+003,2.944751e+001
1.941874e+003,3.363293e+001
1.942838e+003,3.856989e+001
1.943802e+003,4.134369e+001
1.944766e+003,4.277472e+001
1.945730e+003,4.369208e+001
1.946695e+003,4.393744e+001
1.947659e+003,4.415686e+001
1.948623e+003,4.425726e+001
1.949587e+003,4.448462e+001
1.950552e+003,4.529175e+001
1.951516e+003,4.518207e+001
1.952480e+003,4.319592e+001
1.953444e+003,4.106348e+001
1.954408e+003,3.922675e+001
1.955373e+003,3.822931e+001
1.956337e+003,3.982465e+001
1.957301e+003,4.356836e+001
1.958265e+003,4.693945e+001
1.959230e+003,5.006201e+001
1.960194e+003,5.158655e+001
1.961158e+003,4.911908e+001
1.962122e+003,4.724182e+001
1.963087e+003,4.776715e+001
1.964051e+003,4.858691e+001
1.965015e+003,4.925897e+001
1.965979e+003,4.961761e+001
1.966944e+003,4.865649e+001
1.967908e+003,4.707526e+001
1.968872e+003,4.648901e+001
1.969836e+003,4.706738e+001
1.970801e+003,4.783789e+001
1.971765e+003,4.839917e+001
1.972729e+003,4.893365e+001
1.973693e+003,4.947888e+001
1.974657e+003,5.030835e+001
1.975622e+003,5.201398e+001
1.976586e+003,5.402551e+001
1.977550e+003,5.524872e+001
1.978514e+003,5.581860e+001
1.979479e+003,5.592102e+001
1.980443e+003,5.553192e+001
1.981407e+003,5.493207e+001
1.982371e+003,5.434729e+001
1.983335e+003,5.377271e+001
1.984300e+003,5.287817e+001
1.985264e+003,5.242963e+001
1.986228e+003,5.412268e+001
1.987192e+003,5.719666e+001
1.988157e+003,5.750732e+001
1.989121e+003,5.406476e+001
1.990085e+003,5.387817e+001
1.991049e+003,6.002869e+001
1.992014e+003,6.359961e+001
1.992978e+003,6.102875e+001
1.993942e+003,5.876691e+001
1.994906e+003,6.018945e+001
1.995871e+003,6.152313e+001
1.996835e+003,5.862891e+001
1.997799e+003,5.493567e+001
1.998763e+003,5.597241e+001
1.999728e+003,6.077673e+001
