5.003444e+002,1.795588e+002
5.013087e+002,1.743223e+002
5.022729e+002,1.681638e+002
5.032371e+002,1.629252e+002
5.042014e+002,1.612585e+002
5.051656e+002,1.627856e+002
5.061298e+002,1.649036e+002
5.070941e+002,1.651008e+002
5.080583e+002,1.625811e+002
5.090225e+002,1.597561e+002
5.099868e+002,1.562444e+002
5.109510e+002,1.528531e+002
5.119152e+002,1.501388e+002
5.128795e+002,1.482233e+002
5.138437e+002,1.463945e+002
5.148079e+002,1.449091e+002
5.157722e+002,1.434104e+002
5.167364e+002,1.410836e+002
5.177006e+002,1.378755e+002
5.186649e+002,1.346827e+002
5.196291e+002,1.338564e+002
5.205933e+002,1.345537e+002
5.215576e+002,1.345847e+002
5.225218e+002,1.331519e+002
5.234860e+002,1.305527e+002
5.244503e+002,1.281906e+002
5.254145e+002,1.273096e+002
5.263787e+002,1.257836e+002
5.273430e+002,1.228857e+002
5.283072e+002,1.198312e+002
5.292714e+002,1.183092e+002
5.302357e+002,1.188224e+002
5.311999e+002,1.169712e+002
5.321641e+002,1.107683e+002
5.331284e+002,1.052852e+002
5.340926e+002,1.052809e+002
5.350568e+002,1.125280e+002
5.360211e+002,1.182949e+002
5.369853e+002,1.149393e+002
5.379495e+002,1.079830e+002
5.389138e+002,1.005105e+002
5.398780e+002,9.397742e+001
5.408422e+002,8.831470e+001
5.418065e+002,8.341504e+001
5.427707e+002,7.938599e+001
5.437349e+002,7.833313e+001
5.446992e+002,8.166443e+001
5.456634e+002,8.762256e+001
5.466276e+002,9.028931e+001
5.475919e+002,8.644165e+001
5.485561e+002,8.349072e+001
5.495203e+002,8.134937e+001
5.504846e+002,7.973633e+001
5.514488e+002,7.887769e+001
5.524130e+002,8.032922e+001
5.533773e+002,8.031226e+001
5.543415e+002,7.532825e+001
5.553057e+002,6.904504e+001
5.562700e+002,6.560535e+001
5.572342e+002,6.739001e+001
5.581984e+002,7.106616e+001
5.591627e+002,6.847815e+001
5.601269e+002,6.239709e+001
5.610911e+002,5.712769e+001
5.620554e+002,5.460498e+001
5.630196e+002,5.434534e+001
5.639838e+002,5.486938e+001
5.649481e+002,5.717590e+001
5.659123e+002,5.890308e+001
5.668765e+002,6.070874e+001
5.678408e+002,6.276501e+001
5.688050e+002,6.430933e+001
5.697692e+002,6.401147e+001
5.707335e+002,6.204358e+001
5.716977e+002,5.868445e+001
5.726619e+002,5.440967e+001
5.736262e+002,4.926367e+001
5.745904e+002,4.296777e+001
5.755546e+002,3.799146e+001
5.765189e+002,3.788037e+001
5.774831e+002,4.023743e+001
5.784473e+002,4.197632e+001
5.794116e+002,4.132678e+001
5.803758e+002,3.904773e+001
5.813400e+002,3.820068e+001
5.823043e+002,3.813306e+001
5.832685e+002,3.759424e+001
5.842327e+002,3.732605e+001
5.851970e+002,3.756287e+001
5.861612e+002,3.650684e+001
5.871254e+002,2.972083e+001
5.880897e+002,2.520142e+001
5.890539e+002,2.497302e+001
5.900181e+002,2.750488e+001
5.909824e+002,3.056250e+001
5.919466e+002,3.349695e+001
5.929108e+002,3.562329e+001
5.938751e+002,3.675183e+001
5.948393e+002,3.676733e+001
5.958035e+002,3.530933e+001
5.967678e+002,3.225549e+001
5.977320e+002,2.824341e+001
5.986962e+002,2.564526e+001
5.996605e+002,2.339026e+001
6.006247e+002,2.182385e+001
6.015889e+002,2.168127e+001
6.025532e+002,2.290015e+001
6.035174e+002,2.317847e+001
6.044816e+002,2.073523e+001
6.054459e+002,1.957813e+001
6.064101e+002,2.139148e+001
6.073743e+002,2.462756e+001
6.083386e+002,2.647693e+001
6.093028e+002,2.515588e+001
6.102670e+002,2.323889e+001
6.112313e+002,2.261414e+001
6.121955e+002,2.261938e+001
6.131597e+002,2.243481e+001
6.141240e+002,2.146399e+001
6.150882e+002,1.972778e+001
6.160524e+002,1.721033e+001
6.170167e+002,1.443286e+001
6.179809e+002,1.317615e+001
6.189451e+002,1.439331e+001
6.199094e+002,1.724304e+001
6.208736e+002,1.800317e+001
6.218378e+002,1.484448e+001
6.228021e+002,1.319189e+001
6.237663e+002,1.527014e+001
6.247305e+002,1.893909e+001
6.256948e+002,1.995508e+001
6.266590e+002,1.450024e+001
6.276232e+002,9.457886e+000
6.285875e+002,1.073376e+001
6.295517e+002,1.472461e+001
6.305159e+002,1.750671e+001
6.314802e+002,1.671924e+001
6.324444e+002,1.336047e+001
6.334086e+002,1.037512e+001
6.343729e+002,8.347168e+000
6.353371e+002,7.936401e+000
6.363013e+002,9.452148e+000
6.372656e+002,1.201086e+001
6.382298e+002,1.311267e+001
6.391940e+002,1.221143e+001
6.401583e+002,9.561523e+000
6.411225e+002,4.736816e+000
6.420867e+002,-4.614258e-002
6.430510e+002,-2.642822e+000
6.440152e+002,-2.694092e+000
6.449794e+002,-2.532837e+000
6.459437e+002,-3.160400e+000
6.469079e+002,-4.202759e+000
6.478721e+002,-5.229980e+000
6.488364e+002,-5.913208e+000
6.498006e+002,-6.151978e+000
6.507648e+002,-6.262451e+000
6.517291e+002,-6.289673e+000
6.526933e+002,-5.399170e+000
6.536575e+002,-3.394653e+000
6.546218e+002,-1.348633e+000
6.555860e+002,-1.361816e+000
6.565502e+002,-5.114258e+000
6.575145e+002,-7.642944e+000
6.584787e+002,-8.532349e+000
6.594429e+002,-8.612427e+000
6.604072e+002,-8.551025e+000
6.613714e+002,-8.457275e+000
6.623356e+002,-7.612549e+000
6.632999e+002,-4.804321e+000
6.642641e+002,-2.859253e+000
6.652283e+002,-2.854492e+000
6.661926e+002,-4.506836e+000
6.671568e+002,-7.102905e+000
6.681210e+002,-1.125061e+001
6.690853e+002,-1.507690e+001
6.700495e+002,-1.239575e+001
6.710137e+002,-3.561890e+000
6.719780e+002,5.224731e+000
6.729422e+002,7.038696e+000
6.739064e+002,-1.888428e-001
6.748707e+002,-3.906372e+000
6.758349e+002,-2.404663e+000
6.767991e+002,-7.944336e-001
6.777634e+002,-7.674561e-001
6.787276e+002,-1.659058e+000
6.796918e+002,-1.411011e+000
6.806561e+002,1.475708e+000
6.816203e+002,3.315918e+000
6.825845e+002,1.772095e+000
6.835488e+002,-1.546875e+000
6.845130e+002,-3.698120e+000
6.854772e+002,-2.218750e+000
6.864415e+002,1.369385e+000
6.874057e+002,2.456665e+000
6.883699e+002,1.010986e+000
6.893342e+002,-1.649170e+000
6.902984e+002,-4.714966e+000
6.912626e+002,-7.741821e+000
6.922269e+002,-9.228516e+000
6.931911e+002,-6.344971e+000
6.941553e+002,-3.664063e+000
6.951196e+002,-2.927368e+000
6.960838e+002,-3.380859e+000
6.970480e+002,-3.243896e+000
6.980123e+002,-1.639404e+000
6.989765e+002,3.299561e-001
6.999407e+002,3.275635e+000
7.009050e+002,5.376221e+000
7.018692e+002,4.201050e+000
7.028334e+002,-6.453857e-001
7.037977e+002,-6.197144e+000
7.047619e+002,-6.896851e+000
7.057261e+002,-4.061157e+000
7.066904e+002,-1.357056e+000
7.076546e+002,5.892334e-001
7.086188e+002,2.298096e+000
7.095831e+002,4.650024e+000
7.105473e+002,7.978271e+000
7.115115e+002,9.341675e+000
7.124758e+002,8.604980e+000
7.134400e+002,6.103149e+000
7.144042e+002,8.345947e-001
7.153685e+002,-6.669556e+000
7.163327e+002,-1.084229e+001
7.172969e+002,-3.916382e+000
7.182612e+002,2.309204e+000
7.192254e+002,1.274780e+000
7.201896e+002,-4.659546e+000
7.211539e+002,-9.566284e+000
7.221181e+002,-8.311768e+000
7.230823e+002,-3.160889e+000
7.240466e+002,5.319824e-001
7.250108e+002,3.273071e+000
7.259750e+002,3.310547e+000
7.269393e+002,-1.691772e+000
7.279035e+002,-1.139343e+001
7.288677e+002,-1.669214e+001
7.298320e+002,-1.150195e+001
7.307962e+002,-6.201172e+000
7.317604e+002,-1.123535e+000
7.327247e+002,3.796753e+000
7.336889e+002,8.314941e+000
7.346531e+002,1.158521e+001
7.356174e+002,1.221582e+001
7.365816e+002,1.023279e+001
7.375458e+002,7.849243e+000
7.385101e+002,6.540527e+000
7.394743e+002,6.672607e+000
7.404385e+002,7.547485e+000
7.414028e+002,8.066895e+000
7.423670e+002,6.629517e+000
7.433312e+002,2.997559e+000
7.442955e+002,-2.032349e+000
7.452597e+002,-5.826294e+000
7.462239e+002,-5.676147e+000
7.471882e+002,-7.382813e-001
7.481524e+002,3.099365e+000
7.491166e+002,3.475830e+000
7.500809e+002,3.546021e+000
7.510451e+002,4.986938e+000
7.520093e+002,7.278809e+000
7.529736e+002,8.509888e+000
7.539378e+002,8.808838e+000
7.549020e+002,7.924316e+000
7.558663e+002,4.009399e+000
7.568306e+002,-6.251221e-001
7.577948e+002,-3.010498e+000
7.587590e+002,-1.643677e+000
7.597233e+002,1.945801e+000
7.606875e+002,5.573853e+000
7.616517e+002,9.626953e+000
7.626160e+002,1.135303e+001
7.635802e+002,9.035889e+000
7.645444e+002,5.331543e+000
7.655087e+002,5.978638e+000
7.664729e+002,1.387817e+001
7.674371e+002,1.932373e+001
7.684014e+002,2.083301e+001
7.693656e+002,2.087976e+001
7.703298e+002,2.130151e+001
7.712941e+002,2.232153e+001
7.722583e+002,2.230493e+001
7.732225e+002,1.880566e+001
7.741868e+002,1.482861e+001
7.751510e+002,1.260876e+001
7.761152e+002,1.205322e+001
7.770795e+002,1.221411e+001
7.780437e+002,1.215918e+001
7.790079e+002,1.183972e+001
7.799722e+002,1.322217e+001
7.809364e+002,1.669336e+001
7.819006e+002,1.855835e+001
7.828649e+002,1.660608e+001
7.838291e+002,1.267993e+001
7.847933e+002,1.193066e+001
7.857576e+002,1.573999e+001
7.867218e+002,1.860242e+001
7.876860e+002,2.091553e+001
7.886503e+002,2.248889e+001
7.896145e+002,2.293823e+001
7.905787e+002,2.222302e+001
7.915430e+002,2.096301e+001
7.925072e+002,1.810950e+001
7.934714e+002,1.491260e+001
7.944357e+002,1.427161e+001
7.953999e+002,1.641248e+001
7.963641e+002,1.923230e+001
7.973284e+002,2.006152e+001
7.982926e+002,1.874072e+001
7.992568e+002,1.856714e+001
8.002211e+002,1.852612e+001
8.011853e+002,1.767896e+001
8.021495e+002,1.659973e+001
8.031138e+002,1.646240e+001
8.040780e+002,1.841455e+001
8.050422e+002,2.377698e+001
8.060065e+002,2.697119e+001
8.069707e+002,2.363269e+001
8.079349e+002,1.824280e+001
8.088992e+002,1.620227e+001
8.098634e+002,1.936938e+001
8.108276e+002,2.361743e+001
8.117919e+002,2.108752e+001
8.127561e+002,1.421387e+001
8.137203e+002,1.093225e+001
8.146846e+002,1.285681e+001
8.156488e+002,1.656812e+001
8.166130e+002,1.717322e+001
8.175773e+002,1.347412e+001
8.185415e+002,1.271033e+001
8.195057e+002,1.458618e+001
8.204700e+002,1.765820e+001
8.214342e+002,2.254761e+001
8.223984e+002,2.831091e+001
8.233627e+002,3.274402e+001
8.243269e+002,3.547791e+001
8.252911e+002,3.641345e+001
8.262554e+002,3.460803e+001
8.272196e+002,3.189368e+001
8.281838e+002,3.023303e+001
8.291481e+002,3.020349e+001
8.301123e+002,3.059680e+001
8.310765e+002,2.926929e+001
8.320408e+002,2.612842e+001
8.330050e+002,2.321094e+001
8.339692e+002,2.061475e+001
8.349335e+002,1.890552e+001
8.358977e+002,1.912061e+001
8.368619e+002,2.192542e+001
8.378262e+002,2.492822e+001
8.387904e+002,2.717542e+001
8.397546e+002,2.942188e+001
8.407189e+002,3.323218e+001
8.416831e+002,3.698096e+001
8.426473e+002,3.717688e+001
8.436116e+002,3.143103e+001
8.445758e+002,2.600317e+001
8.455400e+002,2.807690e+001
8.465043e+002,3.237561e+001
8.474685e+002,3.347400e+001
8.484327e+002,3.075354e+001
8.493970e+002,2.811243e+001
8.503612e+002,3.136035e+001
8.513254e+002,4.163745e+001
8.522897e+002,4.675647e+001
8.532539e+002,4.358557e+001
8.542181e+002,3.910437e+001
8.551824e+002,3.794885e+001
8.561466e+002,4.052698e+001
8.571108e+002,4.414441e+001
8.580751e+002,4.615649e+001
8.590393e+002,4.840002e+001
8.600035e+002,5.236401e+001
8.609678e+002,5.764978e+001
8.619320e+002,6.410022e+001
8.628962e+002,7.135828e+001
8.638605e+002,7.807751e+001
8.648247e+002,8.221545e+001
8.657889e+002,8.405884e+001
8.667532e+002,8.420410e+001
8.677174e+002,8.272083e+001
8.686816e+002,8.052478e+001
8.696459e+002,7.877454e+001
8.706101e+002,7.792236e+001
8.715743e+002,7.725903e+001
8.725386e+002,7.584351e+001
8.735028e+002,7.589734e+001
8.744670e+002,7.799451e+001
8.754313e+002,8.088269e+001
8.763955e+002,8.278149e+001
8.773597e+002,8.316052e+001
8.783240e+002,8.391455e+001
8.792882e+002,8.581567e+001
8.802524e+002,8.838110e+001
8.812167e+002,9.204321e+001
8.821809e+002,9.641760e+001
8.831451e+002,1.000176e+002
8.841094e+002,1.008706e+002
8.850736e+002,9.971802e+001
8.860378e+002,1.018258e+002
8.870021e+002,1.078594e+002
8.879663e+002,1.128340e+002
8.889305e+002,1.126292e+002
8.898948e+002,1.082792e+002
8.908590e+002,1.063776e+002
8.918232e+002,1.091261e+002
8.927875e+002,1.129470e+002
8.937517e+002,1.176190e+002
8.947159e+002,1.225466e+002
8.956802e+002,1.274880e+002
8.966444e+002,1.316320e+002
8.976086e+002,1.330211e+002
8.985729e+002,1.286893e+002
8.995371e+002,1.229113e+002
9.005013e+002,1.222145e+002
9.014656e+002,1.263870e+002
9.024298e+002,1.320466e+002
9.033940e+002,1.362946e+002
9.043583e+002,1.387303e+002
9.053225e+002,1.409036e+002
9.062867e+002,1.422297e+002
9.072510e+002,1.429026e+002
9.082152e+002,1.445449e+002
9.091794e+002,1.461099e+002
9.101437e+002,1.451273e+002
9.111079e+002,1.410625e+002
9.120721e+002,1.399469e+002
9.130364e+002,1.503962e+002
9.140006e+002,1.590710e+002
9.149648e+002,1.564415e+002
9.159291e+002,1.468907e+002
9.168933e+002,1.398544e+002
9.178575e+002,1.415627e+002
9.188218e+002,1.487000e+002
9.197860e+002,1.514856e+002
9.207502e+002,1.496656e+002
9.217145e+002,1.453553e+002
9.226787e+002,1.375778e+002
9.236429e+002,1.304382e+002
9.246072e+002,1.299868e+002
9.255714e+002,1.375674e+002
9.265356e+002,1.416609e+002
9.274999e+002,1.382242e+002
9.284641e+002,1.327542e+002
9.294283e+002,1.258640e+002
9.303926e+002,1.191096e+002
9.313568e+002,1.146951e+002
9.323210e+002,1.138385e+002
9.332853e+002,1.138302e+002
9.342495e+002,1.093013e+002
9.352137e+002,1.027144e+002
9.361780e+002,9.840002e+001
9.371422e+002,9.784570e+001
9.381064e+002,1.003955e+002
9.390707e+002,1.048665e+002
9.400349e+002,1.111970e+002
9.409991e+002,1.145397e+002
9.419634e+002,1.130127e+002
9.429276e+002,1.109982e+002
9.438918e+002,1.100377e+002
9.448561e+002,1.094614e+002
9.458203e+002,1.074374e+002
9.467845e+002,1.030247e+002
9.477488e+002,1.006002e+002
9.487130e+002,1.060250e+002
9.496772e+002,1.126252e+002
9.506415e+002,1.151143e+002
9.516057e+002,1.132756e+002
9.525699e+002,1.097714e+002
9.535342e+002,1.070939e+002
9.544984e+002,1.048088e+002
9.554626e+002,1.011993e+002
9.564269e+002,9.619250e+001
9.573911e+002,9.471753e+001
9.583553e+002,1.008890e+002
9.593196e+002,1.096971e+002
9.602838e+002,1.124637e+002
9.612480e+002,1.070719e+002
9.622123e+002,1.020812e+002
9.631765e+002,9.919263e+001
9.641407e+002,9.846875e+001
9.651050e+002,1.018302e+002
9.660692e+002,1.067017e+002
9.670334e+002,1.085583e+002
9.679977e+002,1.049454e+002
9.689619e+002,9.904431e+001
9.699261e+002,9.492786e+001
9.708904e+002,9.223950e+001
9.718546e+002,9.293542e+001
9.728188e+002,9.746082e+001
9.737831e+002,1.040964e+002
9.747473e+002,1.113250e+002
9.757115e+002,1.197308e+002
9.766758e+002,1.268706e+002
9.776400e+002,1.336385e+002
9.786042e+002,1.392589e+002
9.795685e+002,1.448875e+002
9.805327e+002,1.475865e+002
9.814969e+002,1.429358e+002
9.824612e+002,1.298851e+002
9.834254e+002,1.156146e+002
9.843896e+002,1.051877e+002
9.853539e+002,9.727332e+001
9.863181e+002,9.146179e+001
9.872823e+002,8.690991e+001
9.882466e+002,8.209131e+001
9.892108e+002,7.631726e+001
9.901750e+002,7.119849e+001
9.911393e+002,7.163318e+001
9.921035e+002,8.013904e+001
9.930677e+002,8.633960e+001
9.940320e+002,8.875842e+001
9.949962e+002,9.100977e+001
9.959604e+002,9.675269e+001
9.969247e+002,1.062272e+002
9.978889e+002,1.155919e+002
9.988531e+002,1.223074e+002
9.998174e+002,1.270210e+002
1.000782e+003,1.309492e+002
1.001746e+003,1.342932e+002
1.002710e+003,1.364640e+002
1.003674e+003,1.373278e+002
1.004639e+003,1.380774e+002
1.005603e+003,1.410436e+002
1.006567e+003,1.462308e+002
1.007531e+003,1.495020e+002
1.008495e+003,1.507748e+002
1.009460e+003,1.507893e+002
1.010424e+003,1.497959e+002
1.011388e+003,1.481587e+002
1.012352e+003,1.468021e+002
1.013317e+003,1.461761e+002
1.014281e+003,1.440530e+002
1.015245e+003,1.387006e+002
1.016209e+003,1.322072e+002
1.017174e+003,1.273229e+002
1.018138e+003,1.233820e+002
1.019102e+003,1.164409e+002
1.020066e+003,1.029767e+002
1.021031e+003,8.641406e+001
1.021995e+003,7.519507e+001
1.022959e+003,6.766296e+001
1.023923e+003,6.142310e+001
1.024887e+003,5.603687e+001
1.025852e+003,5.068042e+001
1.026816e+003,4.372974e+001
1.027780e+003,3.469836e+001
1.028744e+003,2.915247e+001
1.029709e+003,3.062988e+001
1.030673e+003,3.161108e+001
1.031637e+003,2.986169e+001
1.032601e+003,2.585095e+001
1.033566e+003,1.954102e+001
1.034530e+003,1.133606e+001
1.035494e+003,5.831543e+000
1.036458e+003,9.826904e+000
1.037422e+003,1.833521e+001
1.038387e+003,2.358765e+001
1.039351e+003,2.510742e+001
1.040315e+003,2.433972e+001
1.041279e+003,2.230139e+001
1.042244e+003,1.971692e+001
1.043208e+003,1.880640e+001
1.044172e+003,1.977087e+001
1.045136e+003,2.084998e+001
1.046101e+003,2.319885e+001
1.047065e+003,2.515588e+001
1.048029e+003,2.546631e+001
1.048993e+003,2.409595e+001
1.049958e+003,2.149084e+001
1.050922e+003,1.732349e+001
1.051886e+003,1.461450e+001
1.052850e+003,1.729578e+001
1.053814e+003,2.239307e+001
1.054779e+003,2.643079e+001
1.055743e+003,2.841113e+001
1.056707e+003,2.895325e+001
1.057671e+003,2.879919e+001
1.058636e+003,2.780078e+001
1.059600e+003,2.664453e+001
1.060564e+003,2.459021e+001
1.061528e+003,2.518884e+001
1.062493e+003,3.131946e+001
1.063457e+003,3.743774e+001
1.064421e+003,3.696313e+001
1.065385e+003,2.960059e+001
1.066349e+003,2.294409e+001
1.067314e+003,2.071912e+001
1.068278e+003,2.071045e+001
1.069242e+003,2.231665e+001
1.070206e+003,2.484583e+001
1.071171e+003,2.712659e+001
1.072135e+003,2.834070e+001
1.073099e+003,2.835327e+001
1.074063e+003,2.739673e+001
1.075028e+003,2.557898e+001
1.075992e+003,2.521301e+001
1.076956e+003,2.713843e+001
1.077920e+003,2.774915e+001
1.078885e+003,2.504578e+001
1.079849e+003,2.135925e+001
1.080813e+003,2.059521e+001
1.081777e+003,2.365686e+001
1.082741e+003,2.807483e+001
1.083706e+003,3.469727e+001
1.084670e+003,3.903992e+001
1.085634e+003,3.786523e+001
1.086598e+003,3.249060e+001
1.087563e+003,2.506116e+001
1.088527e+003,1.744861e+001
1.089491e+003,1.182922e+001
1.090455e+003,1.190491e+001
1.091420e+003,1.791016e+001
1.092384e+003,2.145837e+001
1.093348e+003,2.188745e+001
1.094312e+003,2.020801e+001
1.095276e+003,1.582983e+001
1.096241e+003,1.064514e+001
1.097205e+003,9.972290e+000
1.098169e+003,1.607703e+001
1.099133e+003,2.024536e+001
1.100098e+003,1.747144e+001
1.101062e+003,1.413013e+001
1.102026e+003,1.401599e+001
1.102990e+003,1.684314e+001
1.103955e+003,2.089600e+001
1.104919e+003,2.494434e+001
1.105883e+003,2.808521e+001
1.106847e+003,2.834412e+001
1.107812e+003,2.559021e+001
1.108776e+003,2.491992e+001
1.109740e+003,2.763464e+001
1.110704e+003,3.020300e+001
1.111668e+003,3.004626e+001
1.112633e+003,2.837354e+001
1.113597e+003,2.872546e+001
1.114561e+003,3.176978e+001
1.115525e+003,3.466956e+001
1.116490e+003,3.642480e+001
1.117454e+003,3.769885e+001
1.118418e+003,3.969922e+001
1.119382e+003,4.232312e+001
1.120347e+003,4.410864e+001
1.121311e+003,4.362195e+001
1.122275e+003,4.129517e+001
1.123239e+003,3.939893e+001
1.124203e+003,3.899719e+001
1.125168e+003,4.134790e+001
1.126132e+003,4.746277e+001
1.127096e+003,5.456567e+001
1.128060e+003,6.053955e+001
1.129025e+003,6.524707e+001
1.129989e+003,6.898669e+001
1.130953e+003,7.093860e+001
1.131917e+003,7.309351e+001
1.132882e+003,7.671423e+001
1.133846e+003,8.056494e+001
1.134810e+003,8.329785e+001
1.135774e+003,8.579651e+001
1.136739e+003,9.006763e+001
1.137703e+003,9.716626e+001
1.138667e+003,1.058998e+002
1.139631e+003,1.143884e+002
1.140595e+003,1.226835e+002
1.141560e+003,1.321215e+002
1.142524e+003,1.427985e+002
1.143488e+003,1.565371e+002
1.144452e+003,1.749221e+002
1.145417e+003,1.971102e+002
1.146381e+003,2.197906e+002
1.147345e+003,2.415667e+002
1.148309e+003,2.668909e+002
1.149274e+003,2.989561e+002
1.150238e+003,3.330448e+002
1.151202e+003,3.686809e+002
1.152166e+003,4.047987e+002
1.153130e+003,4.404951e+002
1.154095e+003,4.744513e+002
1.155059e+003,5.037787e+002
1.156023e+003,5.265750e+002
1.156987e+003,5.414559e+002
1.157952e+003,5.424663e+002
1.158916e+003,5.295901e+002
1.159880e+003,5.116459e+002
1.160844e+003,4.917478e+002
1.161809e+003,4.678594e+002
1.162773e+003,4.361995e+002
1.163737e+003,3.944823e+002
1.164701e+003,3.557487e+002
1.165666e+003,3.255535e+002
1.166630e+003,2.976809e+002
1.167594e+003,2.682985e+002
1.168558e+003,2.403533e+002
1.169522e+003,2.179872e+002
1.170487e+003,2.025024e+002
1.171451e+003,1.926361e+002
1.172415e+003,1.871127e+002
1.173379e+003,1.853962e+002
1.174344e+003,1.864425e+002
1.175308e+003,1.908380e+002
1.176272e+003,1.929081e+002
1.177236e+003,1.907936e+002
1.178201e+003,1.859801e+002
1.179165e+003,1.795162e+002
1.180129e+003,1.708585e+002
1.181093e+003,1.611776e+002
1.182057e+003,1.494717e+002
1.183022e+003,1.394388e+002
1.183986e+003,1.333423e+002
1.184950e+003,1.287726e+002
1.185914e+003,1.223186e+002
1.186879e+003,1.149034e+002
1.187843e+003,1.117773e+002
1.188807e+003,1.171464e+002
1.189771e+003,1.273541e+002
1.190736e+003,1.321132e+002
1.191700e+003,1.307208e+002
1.192664e+003,1.299006e+002
1.193628e+003,1.313207e+002
1.194593e+003,1.328285e+002
1.195557e+003,1.334275e+002
1.196521e+003,1.326761e+002
1.197485e+003,1.290449e+002
1.198449e+003,1.216969e+002
1.199414e+003,1.137930e+002
1.200378e+003,1.062932e+002
1.201342e+003,9.925146e+001
1.202306e+003,9.227600e+001
1.203271e+003,8.547437e+001
1.204235e+003,7.935437e+001
1.205199e+003,7.427808e+001
1.206163e+003,7.004541e+001
1.207128e+003,6.616626e+001
1.208092e+003,6.272375e+001
1.209056e+003,5.974377e+001
1.210020e+003,5.879236e+001
1.210984e+003,5.539087e+001
1.211949e+003,4.621619e+001
1.212913e+003,3.487000e+001
1.213877e+003,2.688599e+001
1.214841e+003,2.264355e+001
1.215806e+003,1.631128e+001
1.216770e+003,3.427856e+000
1.217734e+003,-8.892090e+000
1.218698e+003,-1.600586e+001
1.219663e+003,-2.030908e+001
1.220627e+003,-2.445386e+001
1.221591e+003,-2.896643e+001
1.222555e+003,-3.285889e+001
1.223520e+003,-3.508032e+001
1.224484e+003,-3.573132e+001
1.225448e+003,-3.654456e+001
1.226412e+003,-3.785608e+001
1.227376e+003,-3.889709e+001
1.228341e+003,-4.023621e+001
1.229305e+003,-4.112549e+001
1.230269e+003,-4.052759e+001
1.231233e+003,-3.943604e+001
1.232198e+003,-4.014526e+001
1.233162e+003,-4.312244e+001
1.234126e+003,-4.453174e+001
1.235090e+003,-4.008362e+001
1.236055e+003,-3.508704e+001
1.237019e+003,-3.580176e+001
1.237983e+003,-4.071179e+001
1.238947e+003,-4.530933e+001
1.239911e+003,-4.737952e+001
1.240876e+003,-4.697339e+001
1.241840e+003,-4.401892e+001
1.242804e+003,-3.819763e+001
1.243768e+003,-3.503833e+001
1.244733e+003,-3.789722e+001
1.245697e+003,-3.898010e+001
1.246661e+003,-3.736121e+001
1.247625e+003,-3.525806e+001
1.248590e+003,-3.348499e+001
1.249554e+003,-3.198010e+001
1.250518e+003,-3.112134e+001
1.251482e+003,-3.150378e+001
1.252447e+003,-3.204187e+001
1.253411e+003,-3.043518e+001
1.254375e+003,-2.758362e+001
1.255339e+003,-2.637122e+001
1.256303e+003,-2.653540e+001
1.257268e+003,-2.549719e+001
1.258232e+003,-2.223523e+001
1.259196e+003,-1.779321e+001
1.260160e+003,-1.272522e+001
1.261125e+003,-6.015137e+000
1.262089e+003,-1.750854e+000
1.263053e+003,-4.868408e+000
1.264017e+003,-6.022339e+000
1.264982e+003,-1.042358e+000
1.265946e+003,5.852905e+000
1.266910e+003,1.147034e+001
1.267874e+003,1.491150e+001
1.268839e+003,1.621484e+001
1.269803e+003,1.540894e+001
1.270767e+003,1.299634e+001
1.271731e+003,9.566162e+000
1.272695e+003,5.527466e+000
1.273660e+003,3.322998e+000
1.274624e+003,2.790527e+000
1.275588e+003,2.024170e+000
1.276552e+003,1.632568e+000
1.277517e+003,7.341309e-001
1.278481e+003,-4.081177e+000
1.279445e+003,-1.363086e+001
1.280409e+003,-2.075537e+001
1.281374e+003,-2.160852e+001
1.282338e+003,-2.126624e+001
1.283302e+003,-2.244641e+001
1.284266e+003,-2.410925e+001
1.285230e+003,-2.468140e+001
1.286195e+003,-2.430945e+001
1.287159e+003,-2.457642e+001
1.288123e+003,-2.653870e+001
1.289087e+003,-2.925525e+001
1.290052e+003,-3.101904e+001
1.291016e+003,-3.217529e+001
1.291980e+003,-3.266614e+001
1.292944e+003,-3.186072e+001
1.293909e+003,-3.230750e+001
1.294873e+003,-3.590332e+001
1.295837e+003,-3.986792e+001
1.296801e+003,-3.964087e+001
1.297766e+003,-3.506604e+001
1.298730e+003,-3.233813e+001
1.299694e+003,-3.592834e+001
1.300658e+003,-4.121851e+001
1.301622e+003,-4.323975e+001
1.302587e+003,-4.286121e+001
1.303551e+003,-4.124072e+001
1.304515e+003,-3.851306e+001
1.305479e+003,-3.504333e+001
1.306444e+003,-3.125378e+001
1.307408e+003,-2.768042e+001
1.308372e+003,-2.521667e+001
1.309336e+003,-2.370618e+001
1.310301e+003,-2.403992e+001
1.311265e+003,-2.719189e+001
1.312229e+003,-3.030164e+001
1.313193e+003,-3.348999e+001
1.314157e+003,-3.585364e+001
1.315122e+003,-3.605676e+001
1.316086e+003,-3.457556e+001
1.317050e+003,-3.339539e+001
1.318014e+003,-3.356348e+001
1.318979e+003,-3.429529e+001
1.319943e+003,-3.469116e+001
1.320907e+003,-3.451062e+001
1.321871e+003,-3.418921e+001
1.322836e+003,-3.468933e+001
1.323800e+003,-3.448303e+001
1.324764e+003,-3.180920e+001
1.325728e+003,-2.817627e+001
1.326693e+003,-2.622461e+001
1.327657e+003,-2.635474e+001
1.328621e+003,-2.853955e+001
1.329585e+003,-3.365479e+001
1.330549e+003,-3.593262e+001
1.331514e+003,-3.214063e+001
1.332478e+003,-2.729578e+001
1.333442e+003,-2.585657e+001
1.334406e+003,-2.732349e+001
1.335371e+003,-2.860193e+001
1.336335e+003,-2.782166e+001
1.337299e+003,-2.590686e+001
1.338263e+003,-2.484949e+001
1.339228e+003,-2.483105e+001
1.340192e+003,-2.367053e+001
1.341156e+003,-1.885303e+001
1.342120e+003,-1.668726e+001
1.343084e+003,-2.073401e+001
1.344049e+003,-2.641809e+001
1.345013e+003,-3.010071e+001
1.345977e+003,-3.127686e+001
1.346941e+003,-3.008118e+001
1.347906e+003,-2.644678e+001
1.348870e+003,-2.324146e+001
1.349834e+003,-2.372412e+001
1.350798e+003,-2.643030e+001
1.351763e+003,-2.812830e+001
1.352727e+003,-2.865027e+001
1.353691e+003,-2.777942e+001
1.354655e+003,-2.486023e+001
1.355620e+003,-2.226904e+001
1.356584e+003,-2.309583e+001
1.357548e+003,-2.675195e+001
1.358512e+003,-2.993591e+001
1.359476e+003,-3.395203e+001
1.360441e+003,-3.584204e+001
1.361405e+003,-3.175671e+001
1.362369e+003,-2.814124e+001
1.363333e+003,-2.857813e+001
1.364298e+003,-3.121655e+001
1.365262e+003,-3.350513e+001
1.366226e+003,-3.455579e+001
1.367190e+003,-3.468884e+001
1.368155e+003,-3.419592e+001
1.369119e+003,-3.298230e+001
1.370083e+003,-3.047449e+001
1.371047e+003,-2.557458e+001
1.372011e+003,-2.299097e+001
1.372976e+003,-2.544629e+001
1.373940e+003,-2.779248e+001
1.374904e+003,-2.753467e+001
1.375868e+003,-2.602100e+001
1.376833e+003,-2.526001e+001
1.377797e+003,-2.544226e+001
1.378761e+003,-2.516418e+001
1.379725e+003,-2.341919e+001
1.380690e+003,-2.185425e+001
1.381654e+003,-2.367322e+001
1.382618e+003,-2.568872e+001
1.383582e+003,-2.248865e+001
1.384547e+003,-1.459900e+001
1.385511e+003,-7.680420e+000
1.386475e+003,-4.680786e+000
1.387439e+003,-4.619507e+000
1.388403e+003,-6.509766e+000
1.389368e+003,-1.040442e+001
1.390332e+003,-1.337463e+001
1.391296e+003,-1.473792e+001
1.392260e+003,-1.554993e+001
1.393225e+003,-1.682935e+001
1.394189e+003,-1.719836e+001
1.395153e+003,-1.497363e+001
1.396117e+003,-1.165576e+001
1.397082e+003,-9.116333e+000
1.398046e+003,-7.986572e+000
1.399010e+003,-8.656006e+000
1.399974e+003,-1.198633e+001
1.400938e+003,-1.683081e+001
1.401903e+003,-1.739185e+001
1.402867e+003,-1.059277e+001
1.403831e+003,-5.526855e+000
1.404795e+003,-2.738159e+000
1.405760e+003,-2.298096e+000
1.406724e+003,-7.791382e+000
1.407688e+003,-1.518359e+001
1.408652e+003,-1.823621e+001
1.409617e+003,-1.661255e+001
1.410581e+003,-1.491223e+001
1.411545e+003,-1.507654e+001
1.412509e+003,-1.496570e+001
1.413474e+003,-1.233948e+001
1.414438e+003,-9.269043e+000
1.415402e+003,-8.048828e+000
1.416366e+003,-8.035889e+000
1.417330e+003,-7.981934e+000
1.418295e+003,-7.367920e+000
1.419259e+003,-6.635742e+000
1.420223e+003,-6.779419e+000
1.421187e+003,-7.947021e+000
1.422152e+003,-8.902710e+000
1.423116e+003,-9.387207e+000
1.424080e+003,-8.141602e+000
1.425044e+003,-3.558228e+000
1.426009e+003,2.727051e-001
1.426973e+003,1.447632e+000
1.427937e+003,9.855957e-001
1.428901e+003,-4.650879e-001
1.429865e+003,-1.818726e+000
1.430830e+003,-8.045654e-001
1.431794e+003,3.707031e+000
1.432758e+003,8.855347e+000
1.433722e+003,9.534790e+000
1.434687e+003,6.095215e+000
1.435651e+003,5.490479e+000
1.436615e+003,6.133667e+000
1.437579e+003,7.876343e+000
1.438544e+003,1.206323e+001
1.439508e+003,1.651746e+001
1.440472e+003,2.118188e+001
1.441436e+003,2.533459e+001
1.442401e+003,2.708264e+001
1.443365e+003,2.596533e+001
1.444329e+003,2.361157e+001
1.445293e+003,2.104663e+001
1.446257e+003,1.921106e+001
1.447222e+003,2.022681e+001
1.448186e+003,2.334460e+001
1.449150e+003,2.492615e+001
1.450114e+003,2.438220e+001
1.451079e+003,2.262268e+001
1.452043e+003,2.025781e+001
1.453007e+003,1.765125e+001
1.453971e+003,1.460449e+001
1.454936e+003,1.100989e+001
1.455900e+003,7.360229e+000
1.456864e+003,3.081299e+000
1.457828e+003,2.371094e+000
1.458792e+003,1.147888e+001
1.459757e+003,2.096350e+001
1.460721e+003,2.257031e+001
1.461685e+003,1.876892e+001
1.462649e+003,1.497803e+001
1.463614e+003,1.303418e+001
1.464578e+003,1.217444e+001
1.465542e+003,1.156689e+001
1.466506e+003,1.102734e+001
1.467471e+003,1.060596e+001
1.468435e+003,1.076697e+001
1.469399e+003,1.227136e+001
1.470363e+003,1.512463e+001
1.471328e+003,1.793567e+001
1.472292e+003,2.052148e+001
1.473256e+003,2.166614e+001
1.474220e+003,2.111426e+001
1.475184e+003,1.965723e+001
1.476149e+003,1.716296e+001
1.477113e+003,1.386169e+001
1.478077e+003,1.242603e+001
1.479041e+003,1.606934e+001
1.480006e+003,2.329895e+001
1.480970e+003,2.782874e+001
1.481934e+003,2.836230e+001
1.482898e+003,2.869910e+001
1.483863e+003,2.918958e+001
1.484827e+003,2.874805e+001
1.485791e+003,2.474670e+001
1.486755e+003,2.273389e+001
1.487719e+003,2.982849e+001
1.488684e+003,4.230444e+001
1.489648e+003,4.986023e+001
1.490612e+003,4.960168e+001
1.491576e+003,4.788330e+001
1.492541e+003,4.899670e+001
1.493505e+003,5.272510e+001
1.494469e+003,6.013513e+001
1.495433e+003,6.978503e+001
1.496398e+003,7.634570e+001
1.497362e+003,7.895081e+001
1.498326e+003,8.257288e+001
1.499290e+003,8.907385e+001
1.500255e+003,9.830481e+001
1.501219e+003,1.110360e+002
1.502183e+003,1.262953e+002
1.503147e+003,1.388228e+002
1.504111e+003,1.462581e+002
1.505076e+003,1.572787e+002
1.506040e+003,1.788210e+002
1.507004e+003,2.046556e+002
1.507968e+003,2.279189e+002
1.508933e+003,2.505427e+002
1.509897e+003,2.765784e+002
1.510861e+003,3.077291e+002
1.511825e+003,3.430732e+002
1.512790e+003,3.813270e+002
1.513754e+003,4.224343e+002
1.514718e+003,4.681753e+002
1.515682e+003,5.178917e+002
1.516646e+003,5.661798e+002
1.517611e+003,6.146204e+002
1.518575e+003,6.585953e+002
1.519539e+003,6.976356e+002
1.520503e+003,7.321227e+002
1.521468e+003,7.638551e+002
1.522432e+003,7.896458e+002
1.523396e+003,8.058872e+002
1.524360e+003,8.115897e+002
1.525325e+003,8.071444e+002
1.526289e+003,7.929786e+002
1.527253e+003,7.714741e+002
1.528217e+003,7.466700e+002
1.529182e+003,7.191500e+002
1.530146e+003,6.842454e+002
1.531110e+003,6.389364e+002
1.532074e+003,5.902358e+002
1.533039e+003,5.364004e+002
1.534003e+003,4.795737e+002
1.534967e+003,4.201332e+002
1.535931e+003,3.612715e+002
1.536896e+003,3.035802e+002
1.537860e+003,2.496631e+002
1.538824e+003,2.042993e+002
1.539788e+003,1.695898e+002
1.540752e+003,1.435957e+002
1.541717e+003,1.245444e+002
1.542681e+003,1.118940e+002
1.543645e+003,9.949219e+001
1.544609e+003,8.637671e+001
1.545573e+003,7.826086e+001
1.546538e+003,7.776880e+001
1.547502e+003,7.682300e+001
1.548466e+003,7.191150e+001
1.549430e+003,6.725171e+001
1.550395e+003,6.758435e+001
1.551359e+003,7.122815e+001
1.552323e+003,7.335071e+001
1.553287e+003,7.227356e+001
1.554252e+003,6.885461e+001
1.555216e+003,6.338953e+001
1.556180e+003,5.701282e+001
1.557144e+003,5.270630e+001
1.558109e+003,5.080444e+001
1.559073e+003,4.760522e+001
1.560037e+003,4.120068e+001
1.561001e+003,3.537451e+001
1.561966e+003,3.183948e+001
1.562930e+003,3.061975e+001
1.563894e+003,3.213293e+001
1.564858e+003,3.507141e+001
1.565823e+003,3.678516e+001
1.566787e+003,3.672900e+001
1.567751e+003,3.631299e+001
1.568715e+003,3.623853e+001
1.569679e+003,3.729199e+001
1.570644e+003,4.191101e+001
1.571608e+003,4.723621e+001
1.572572e+003,4.519849e+001
1.573536e+003,3.576526e+001
1.574500e+003,2.932690e+001
1.575465e+003,2.982336e+001
1.576429e+003,3.290454e+001
1.577393e+003,3.507654e+001
1.578357e+003,3.701965e+001
1.579322e+003,4.124585e+001
1.580286e+003,4.777380e+001
1.581250e+003,5.256677e+001
1.582214e+003,5.427661e+001
1.583179e+003,5.439502e+001
1.584143e+003,5.290991e+001
1.585107e+003,5.072900e+001
1.586071e+003,5.011145e+001
1.587036e+003,5.107996e+001
1.588000e+003,5.133777e+001
1.588964e+003,4.984314e+001
1.589928e+003,4.898486e+001
1.590893e+003,5.076343e+001
1.591857e+003,5.388318e+001
1.592821e+003,5.642993e+001
1.593785e+003,5.867529e+001
1.594750e+003,6.165027e+001
1.595714e+003,6.531641e+001
1.596678e+003,6.893652e+001
1.597642e+003,7.289172e+001
1.598606e+003,7.584961e+001
1.599571e+003,7.603333e+001
1.600535e+003,7.548938e+001
1.601499e+003,7.689917e+001
1.602463e+003,7.993713e+001
1.603427e+003,8.263379e+001
1.604392e+003,8.432068e+001
1.605356e+003,8.490015e+001
1.606320e+003,8.418115e+001
1.607284e+003,8.238501e+001
1.608249e+003,7.993286e+001
1.609213e+003,7.682495e+001
1.610177e+003,7.300549e+001
1.611141e+003,6.718921e+001
1.612106e+003,6.389966e+001
1.613070e+003,6.745447e+001
1.614034e+003,7.234302e+001
1.614998e+003,7.616150e+001
1.615963e+003,7.798071e+001
1.616927e+003,7.496472e+001
1.617891e+003,6.757666e+001
1.618855e+003,6.187549e+001
1.619820e+003,6.134326e+001
1.620784e+003,6.280518e+001
1.621748e+003,6.262292e+001
1.622712e+003,6.208118e+001
1.623677e+003,6.478137e+001
1.624641e+003,7.186914e+001
1.625605e+003,7.587988e+001
1.626569e+003,7.217090e+001
1.627533e+003,6.712708e+001
1.628498e+003,6.267749e+001
1.629462e+003,6.064771e+001
1.630426e+003,6.440198e+001
1.631390e+003,7.105457e+001
1.632354e+003,7.430652e+001
1.633319e+003,7.279285e+001
1.634283e+003,7.042712e+001
1.635247e+003,6.992004e+001
1.636211e+003,7.039441e+001
1.637176e+003,7.066162e+001
1.638140e+003,7.100464e+001
1.639104e+003,7.167322e+001
1.640068e+003,7.246667e+001
1.641033e+003,7.328027e+001
1.641997e+003,7.471326e+001
1.642961e+003,7.588574e+001
1.643925e+003,7.672559e+001
1.644890e+003,7.674731e+001
1.645854e+003,7.443481e+001
1.646818e+003,7.086560e+001
1.647782e+003,6.909387e+001
1.648747e+003,6.991309e+001
1.649711e+003,7.113574e+001
1.650675e+003,7.120520e+001
1.651639e+003,7.116467e+001
1.652604e+003,7.280444e+001
1.653568e+003,7.569202e+001
1.654532e+003,7.649780e+001
1.655496e+003,7.436707e+001
1.656460e+003,7.269788e+001
1.657425e+003,7.357227e+001
1.658389e+003,7.407300e+001
1.659353e+003,7.205664e+001
1.660317e+003,6.923193e+001
1.661281e+003,6.764844e+001
1.662246e+003,6.669739e+001
1.663210e+003,6.434338e+001
1.664174e+003,6.016833e+001
1.665138e+003,5.593726e+001
1.666103e+003,5.257471e+001
1.667067e+003,5.019202e+001
1.668031e+003,5.011438e+001
1.668995e+003,5.220630e+001
1.669960e+003,5.193896e+001
1.670924e+003,4.834741e+001
1.671888e+003,4.590112e+001
1.672852e+003,4.614478e+001
1.673817e+003,4.695923e+001
1.674781e+003,4.731396e+001
1.675745e+003,4.717139e+001
1.676709e+003,4.624023e+001
1.677674e+003,4.473718e+001
1.678638e+003,4.330872e+001
1.679602e+003,4.218005e+001
1.680566e+003,4.116235e+001
1.681531e+003,4.062024e+001
1.682495e+003,4.019092e+001
1.683459e+003,3.821582e+001
1.684423e+003,3.477283e+001
1.685387e+003,3.271509e+001
1.686352e+003,3.269519e+001
1.687316e+003,3.229675e+001
1.688280e+003,3.019165e+001
1.689244e+003,2.853638e+001
1.690208e+003,2.977209e+001
1.691173e+003,3.141394e+001
1.692137e+003,3.072156e+001
1.693101e+003,2.868555e+001
1.694065e+003,2.758899e+001
1.695030e+003,2.751770e+001
1.695994e+003,2.686511e+001
1.696958e+003,2.448779e+001
1.697922e+003,2.185168e+001
1.698887e+003,2.090723e+001
1.699851e+003,2.131128e+001
1.700815e+003,2.166052e+001
1.701779e+003,2.155066e+001
1.702744e+003,2.087390e+001
1.703708e+003,2.025012e+001
1.704672e+003,1.897266e+001
1.705636e+003,1.462476e+001
1.706601e+003,9.704102e+000
1.707565e+003,9.514160e+000
1.708529e+003,1.298132e+001
1.709493e+003,1.571802e+001
1.710458e+003,1.717114e+001
1.711422e+003,1.753625e+001
1.712386e+003,1.663025e+001
1.713350e+003,1.588074e+001
1.714314e+003,1.580420e+001
1.715279e+003,1.594470e+001
1.716243e+003,1.623230e+001
1.717207e+003,1.661462e+001
1.718171e+003,1.683948e+001
1.719135e+003,1.696057e+001
1.720100e+003,1.623425e+001
1.721064e+003,1.362634e+001
1.722028e+003,1.063257e+001
1.722992e+003,1.016321e+001
1.723957e+003,1.219897e+001
1.724921e+003,1.330347e+001
1.725885e+003,1.254553e+001
1.726849e+003,1.078467e+001
1.727814e+003,8.185425e+000
1.728778e+003,6.640991e+000
1.729742e+003,7.323486e+000
1.730706e+003,8.685425e+000
1.731671e+003,8.791260e+000
1.732635e+003,7.480103e+000
1.733599e+003,5.607056e+000
1.734563e+003,4.120972e+000
1.735528e+003,4.024902e+000
1.736492e+003,5.588135e+000
1.737456e+003,8.114990e+000
1.738420e+003,1.111597e+001
1.739385e+003,1.330811e+001
1.740349e+003,1.138293e+001
1.741313e+003,4.640015e+000
1.742277e+003,-5.117188e-001
1.743241e+003,-3.859619e+000
1.744206e+003,-5.192383e+000
1.745170e+003,-3.595703e+000
1.746134e+003,-1.575562e+000
1.747098e+003,-2.778320e-001
1.748063e+003,4.409180e-001
1.749027e+003,6.727295e-001
1.749991e+003,7.933350e-001
1.750955e+003,1.502319e+000
1.751919e+003,2.799316e+000
1.752884e+003,3.779175e+000
1.753848e+003,3.701782e+000
1.754812e+003,2.508057e+000
1.755776e+003,3.840332e-001
1.756741e+003,-2.163086e+000
1.757705e+003,-4.669434e+000
1.758669e+003,-8.311890e+000
1.759633e+003,-9.730225e+000
1.760598e+003,-7.284912e+000
1.761562e+003,-5.259644e+000
1.762526e+003,-4.338623e+000
1.763490e+003,-3.832642e+000
1.764455e+003,-3.876709e+000
1.765419e+003,-3.519165e+000
1.766383e+003,-1.062134e+000
1.767347e+003,2.778931e+000
1.768312e+003,4.875244e+000
1.769276e+003,3.574463e+000
1.770240e+003,1.218262e+000
1.771204e+003,1.046265e+000
1.772168e+003,2.409058e+000
1.773133e+003,2.463745e+000
1.774097e+003,1.361084e+000
1.775061e+003,7.092285e-001
1.776025e+003,8.178711e-003
1.776990e+003,7.890625e-001
1.777954e+003,5.802734e+000
1.778918e+003,9.232056e+000
1.779882e+003,4.066528e+000
1.780846e+003,-3.844116e+000
1.781811e+003,-5.258423e+000
1.782775e+003,-2.066040e+000
1.783739e+003,-1.761719e+000
1.784703e+003,-5.696411e+000
1.785668e+003,-6.527710e+000
1.786632e+003,1.250977e+000
1.787596e+003,8.342529e+000
1.788560e+003,7.917236e+000
1.789525e+003,4.195313e+000
1.790489e+003,1.876465e+000
1.791453e+003,6.499023e-001
1.792417e+003,-1.330933e+000
1.793382e+003,-4.216064e+000
1.794346e+003,-5.735229e+000
1.795310e+003,-4.681763e+000
1.796274e+003,-3.005737e+000
1.797239e+003,-2.590210e+000
1.798203e+003,-2.448975e+000
1.799167e+003,-1.635010e+000
1.800131e+003,-1.360962e+000
1.801095e+003,-2.099609e-002
1.802060e+003,6.647705e+000
1.803024e+003,9.627563e+000
1.803988e+003,4.474121e+000
1.804952e+003,-9.052734e-001
1.805917e+003,-3.722168e+000
1.806881e+003,-4.206543e+000
1.807845e+003,-1.387817e+000
1.808809e+003,3.166260e+000
1.809773e+003,6.845947e+000
1.810738e+003,8.788574e+000
1.811702e+003,9.041748e+000
1.812666e+003,7.635254e+000
1.813630e+003,5.646240e+000
1.814595e+003,4.397095e+000
1.815559e+003,3.802734e+000
1.816523e+003,4.557251e+000
1.817487e+003,7.042969e+000
1.818452e+003,7.957031e+000
1.819416e+003,7.147217e+000
1.820380e+003,6.203003e+000
1.821344e+003,3.808960e+000
1.822309e+003,2.760742e+000
1.823273e+003,7.631714e+000
1.824237e+003,1.308350e+001
1.825201e+003,1.176428e+001
1.826166e+003,6.264893e+000
1.827130e+003,5.248779e+000
1.828094e+003,9.826782e+000
1.829058e+003,1.136707e+001
1.830022e+003,4.472168e+000
1.830987e+003,-2.837402e+000
1.831951e+003,-3.713623e+000
1.832915e+003,-1.115356e+000
1.833879e+003,1.696533e+000
1.834844e+003,3.982910e+000
1.835808e+003,3.326904e+000
1.836772e+003,4.614258e-002
1.837736e+003,-1.143799e-001
1.838700e+003,5.215454e+000
1.839665e+003,1.068604e+001
1.840629e+003,1.168677e+001
1.841593e+003,9.824829e+000
1.842557e+003,7.888062e+000
1.843522e+003,5.856689e+000
1.844486e+003,4.288086e+000
1.845450e+003,3.025513e+000
1.846414e+003,4.023438e+000
1.847379e+003,9.256470e+000
1.848343e+003,1.218188e+001
1.849307e+003,9.725952e+000
1.850271e+003,6.178223e+000
1.851236e+003,3.918945e+000
1.852200e+003,3.528442e+000
1.853164e+003,5.708862e+000
1.854128e+003,8.962891e+000
1.855093e+003,1.025085e+001
1.856057e+003,9.052612e+000
1.857021e+003,7.961914e+000
1.857985e+003,9.011963e+000
1.858949e+003,1.019482e+001
1.859914e+003,7.067505e+000
1.860878e+003,1.117310e+000
1.861842e+003,8.974609e-001
1.862806e+003,6.447632e+000
1.863771e+003,8.640991e+000
1.864735e+003,4.724854e+000
1.865699e+003,2.223145e+000
1.866663e+003,5.453735e+000
1.867627e+003,1.009631e+001
1.868592e+003,1.268262e+001
1.869556e+003,1.290503e+001
1.870520e+003,1.037671e+001
1.871484e+003,5.613647e+000
1.872449e+003,2.430664e+000
1.873413e+003,2.686279e+000
1.874377e+003,4.856323e+000
1.875341e+003,7.892090e+000
1.876306e+003,1.086597e+001
1.877270e+003,1.380139e+001
1.878234e+003,1.562817e+001
1.879198e+003,1.469678e+001
1.880163e+003,1.253967e+001
1.881127e+003,1.212170e+001
1.882091e+003,1.355347e+001
1.883055e+003,1.479224e+001
1.884020e+003,1.491479e+001
1.884984e+003,1.466650e+001
1.885948e+003,1.477759e+001
1.886912e+003,1.473828e+001
1.887876e+003,1.330652e+001
1.888841e+003,1.081213e+001
1.889805e+003,1.097949e+001
1.890769e+003,1.450464e+001
1.891733e+003,1.691406e+001
1.892698e+003,1.705688e+001
1.893662e+003,1.681665e+001
1.894626e+003,1.716650e+001
1.895590e+003,1.725769e+001
1.896554e+003,1.686877e+001
1.897519e+003,1.621619e+001
1.898483e+003,1.447021e+001
1.899447e+003,1.183862e+001
1.900411e+003,1.051208e+001
1.901376e+003,1.106934e+001
1.902340e+003,1.256677e+001
1.903304e+003,1.619983e+001
1.904268e+003,1.803149e+001
1.905233e+003,1.376001e+001
1.906197e+003,8.747803e+000
1.907161e+003,8.186401e+000
1.908125e+003,1.135938e+001
1.909090e+003,1.803003e+001
1.910054e+003,2.573511e+001
1.911018e+003,2.746252e+001
1.911982e+003,2.194836e+001
1.912947e+003,1.691321e+001
1.913911e+003,1.786072e+001
1.914875e+003,2.197888e+001
1.915839e+003,2.492700e+001
1.916803e+003,2.632544e+001
1.917768e+003,2.609790e+001
1.918732e+003,2.421338e+001
1.919696e+003,2.363440e+001
1.920660e+003,2.577600e+001
1.921625e+003,2.600659e+001
1.922589e+003,2.034973e+001
1.923553e+003,1.670007e+001
1.924517e+003,2.244092e+001
1.925481e+003,2.927185e+001
1.926446e+003,2.925378e+001
1.927410e+003,2.534985e+001
1.928374e+003,2.294092e+001
1.929338e+003,2.223083e+001
1.930303e+003,2.312158e+001
1.931267e+003,2.753528e+001
1.932231e+003,3.001196e+001
1.933195e+003,2.387268e+001
1.934160e+003,1.873657e+001
1.935124e+003,2.481592e+001
1.936088e+003,3.296338e+001
1.937052e+003,3.138318e+001
1.938017e+003,2.362329e+001
1.938981e+003,1.801953e+001
1.939945e+003,1.644373e+001
1.940909e+003,1.822668e+001
1.941874e+003,2.245398e+001
1.942838e+003,2.551160e+001
1.943802e+003,2.437683e+001
1.944766e+003,2.181665e+001
1.945730e+003,2.236780e+001
1.946695e+003,2.530603e+001
1.947659e+003,2.789270e+001
1.948623e+003,3.005005e+001
1.949587e+003,3.107886e+001
1.950552e+003,3.085364e+001
1.951516e+003,3.101550e+001
1.952480e+003,3.253955e+001
1.953444e+003,3.357202e+001
1.954408e+003,3.252881e+001
1.955373e+003,2.989612e+001
1.956337e+003,2.564221e+001
1.957301e+003,2.149023e+001
1.958265e+003,2.234351e+001
1.959230e+003,2.919495e+001
1.960194e+003,3.404297e+001
1.961158e+003,3.380994e+001
1.962122e+003,3.271765e+001
1.963087e+003,3.140198e+001
1.964051e+003,3.030908e+001
1.965015e+003,2.984351e+001
1.965979e+003,3.058948e+001
1.966944e+003,3.405811e+001
1.967908e+003,3.768738e+001
1.968872e+003,3.615198e+001
1.969836e+003,3.054822e+001
1.970801e+003,2.846680e+001
1.971765e+003,3.295764e+001
1.972729e+003,3.821997e+001
1.973693e+003,3.912476e+001
1.974657e+003,3.862842e+001
1.975622e+003,4.175220e+001
1.976586e+003,4.638855e+001
1.977550e+003,4.725183e+001
1.978514e+003,4.491980e+001
1.979479e+003,4.172327e+001
1.980443e+003,3.808691e+001
1.981407e+003,3.639001e+001
1.982371e+003,3.779456e+001
1.983335e+003,4.017285e+001
1.984300e+003,4.173523e+001
1.985264e+003,4.237244e+001
1.986228e+003,4.209839e+001
1.987192e+003,4.127759e+001
1.988157e+003,4.207141e+001
1.989121e+003,4.549475e+001
1.990085e+003,4.628235e+001
1.991049e+003,4.300659e+001
1.992014e+003,4.060242e+001
1.992978e+003,3.833093e+001
1.993942e+003,3.823608e+001
1.994906e+003,4.396631e+001
1.995871e+003,4.912109e+001
1.996835e+003,4.781213e+001
1.997799e+003,4.401343e+001
1.998763e+003,4.314758e+001
1.999728e+003,4.497327e+001
