5.003444e+002,2.048811e+002
5.013087e+002,2.017769e+002
5.022729e+002,1.984979e+002
5.032371e+002,1.956878e+002
5.042014e+002,1.927780e+002
5.051656e+002,1.899860e+002
5.061298e+002,1.879315e+002
5.070941e+002,1.871135e+002
5.080583e+002,1.875252e+002
5.090225e+002,1.873021e+002
5.099868e+002,1.874265e+002
5.109510e+002,1.861954e+002
5.119152e+002,1.815394e+002
5.128795e+002,1.730896e+002
5.138437e+002,1.676457e+002
5.148079e+002,1.718154e+002
5.157722e+002,1.758206e+002
5.167364e+002,1.747602e+002
5.177006e+002,1.683652e+002
5.186649e+002,1.606583e+002
5.196291e+002,1.566627e+002
5.205933e+002,1.553325e+002
5.215576e+002,1.552677e+002
5.225218e+002,1.555519e+002
5.234860e+002,1.551331e+002
5.244503e+002,1.526990e+002
5.254145e+002,1.482512e+002
5.263787e+002,1.446123e+002
5.273430e+002,1.414883e+002
5.283072e+002,1.393364e+002
5.292714e+002,1.391214e+002
5.302357e+002,1.423041e+002
5.311999e+002,1.420001e+002
5.321641e+002,1.361486e+002
5.331284e+002,1.294980e+002
5.340926e+002,1.253875e+002
5.350568e+002,1.248129e+002
5.360211e+002,1.251003e+002
5.369853e+002,1.257325e+002
5.379495e+002,1.260375e+002
5.389138e+002,1.245584e+002
5.398780e+002,1.209267e+002
5.408422e+002,1.164138e+002
5.418065e+002,1.151824e+002
5.427707e+002,1.167061e+002
5.437349e+002,1.174919e+002
5.446992e+002,1.165403e+002
5.456634e+002,1.141332e+002
5.466276e+002,1.114511e+002
5.475919e+002,1.080516e+002
5.485561e+002,1.054476e+002
5.495203e+002,1.034102e+002
5.504846e+002,1.018181e+002
5.514488e+002,1.010368e+002
5.524130e+002,1.024298e+002
5.533773e+002,1.026455e+002
5.543415e+002,9.918048e+001
5.553057e+002,9.439197e+001
5.562700e+002,9.050769e+001
5.572342e+002,8.881366e+001
5.581984e+002,8.838257e+001
5.591627e+002,8.768805e+001
5.601269e+002,8.706598e+001
5.610911e+002,8.644659e+001
5.620554e+002,8.563562e+001
5.630196e+002,8.440790e+001
5.639838e+002,8.264905e+001
5.649481e+002,8.036353e+001
5.659123e+002,7.763342e+001
5.668765e+002,7.462592e+001
5.678408e+002,7.191779e+001
5.688050e+002,7.034668e+001
5.697692e+002,7.033820e+001
5.707335e+002,6.944513e+001
5.716977e+002,6.604047e+001
5.726619e+002,6.208057e+001
5.736262e+002,6.052319e+001
5.745904e+002,6.385516e+001
5.755546e+002,6.879541e+001
5.765189e+002,7.009058e+001
5.774831e+002,6.829669e+001
5.784473e+002,6.439191e+001
5.794116e+002,5.930292e+001
5.803758e+002,5.363611e+001
5.813400e+002,5.094788e+001
5.823043e+002,5.106268e+001
5.832685e+002,5.125214e+001
5.842327e+002,5.148065e+001
5.851970e+002,5.196881e+001
5.861612e+002,5.180835e+001
5.871254e+002,4.765668e+001
5.880897e+002,4.578705e+001
5.890539e+002,4.927820e+001
5.900181e+002,5.519135e+001
5.909824e+002,5.872144e+001
5.919466e+002,5.655725e+001
5.929108e+002,5.217065e+001
5.938751e+002,4.899463e+001
5.948393e+002,4.679797e+001
5.958035e+002,4.531714e+001
5.967678e+002,4.442328e+001
5.977320e+002,4.436279e+001
5.986962e+002,4.603748e+001
5.996605e+002,4.903088e+001
6.006247e+002,5.068689e+001
6.015889e+002,4.944080e+001
6.025532e+002,4.555768e+001
6.035174e+002,4.208630e+001
6.044816e+002,3.767316e+001
6.054459e+002,3.561584e+001
6.064101e+002,3.826178e+001
6.073743e+002,4.326556e+001
6.083386e+002,4.655066e+001
6.093028e+002,4.580084e+001
6.102670e+002,4.347113e+001
6.112313e+002,4.106982e+001
6.121955e+002,3.874280e+001
6.131597e+002,3.651648e+001
6.141240e+002,3.441052e+001
6.150882e+002,3.255499e+001
6.160524e+002,3.178101e+001
6.170167e+002,3.214893e+001
6.179809e+002,3.390247e+001
6.189451e+002,3.754694e+001
6.199094e+002,4.232733e+001
6.208736e+002,4.435181e+001
6.218378e+002,4.189270e+001
6.228021e+002,3.945605e+001
6.237663e+002,3.710394e+001
6.247305e+002,3.524719e+001
6.256948e+002,3.454065e+001
6.266590e+002,3.570135e+001
6.276232e+002,3.555664e+001
6.285875e+002,3.206812e+001
6.295517e+002,2.749261e+001
6.305159e+002,2.376276e+001
6.314802e+002,2.184479e+001
6.324444e+002,2.117523e+001
6.334086e+002,2.137939e+001
6.343729e+002,2.259222e+001
6.353371e+002,2.459583e+001
6.363013e+002,2.750427e+001
6.372656e+002,3.044232e+001
6.382298e+002,3.065179e+001
6.391940e+002,2.424457e+001
6.401583e+002,1.971338e+001
6.411225e+002,1.876459e+001
6.420867e+002,1.996466e+001
6.430510e+002,2.147900e+001
6.440152e+002,2.269562e+001
6.449794e+002,2.283960e+001
6.459437e+002,2.150891e+001
6.469079e+002,1.930920e+001
6.478721e+002,1.648206e+001
6.488364e+002,1.339594e+001
6.498006e+002,1.072778e+001
6.507648e+002,9.458191e+000
6.517291e+002,9.183594e+000
6.526933e+002,9.415466e+000
6.536575e+002,1.003540e+001
6.546218e+002,1.114917e+001
6.555860e+002,1.310693e+001
6.565502e+002,1.697510e+001
6.575145e+002,1.902411e+001
6.584787e+002,1.910889e+001
6.594429e+002,1.787921e+001
6.604072e+002,1.555951e+001
6.613714e+002,1.207745e+001
6.623356e+002,8.569519e+000
6.632999e+002,3.871704e+000
6.642641e+002,5.413818e-002
6.652283e+002,-8.512573e-001
6.661926e+002,1.074707e+000
6.671568e+002,4.132568e+000
6.681210e+002,6.301086e+000
6.690853e+002,7.432861e+000
6.700495e+002,8.115173e+000
6.710137e+002,8.379639e+000
6.719780e+002,8.119202e+000
6.729422e+002,7.067932e+000
6.739064e+002,4.813599e+000
6.748707e+002,3.167419e+000
6.758349e+002,1.656555e+000
6.767991e+002,8.412476e-001
6.777634e+002,2.243103e+000
6.787276e+002,5.676697e+000
6.796918e+002,7.666077e+000
6.806561e+002,3.750488e+000
6.816203e+002,7.416382e-001
6.825845e+002,2.078247e+000
6.835488e+002,6.014954e+000
6.845130e+002,9.554565e+000
6.854772e+002,1.056244e+001
6.864415e+002,1.040051e+001
6.874057e+002,1.176642e+001
6.883699e+002,1.352472e+001
6.893342e+002,1.370081e+001
6.902984e+002,1.117505e+001
6.912626e+002,6.710449e+000
6.922269e+002,4.517212e+000
6.931911e+002,8.279663e+000
6.941553e+002,1.071753e+001
6.951196e+002,9.752625e+000
6.960838e+002,6.797729e+000
6.970480e+002,4.248474e+000
6.980123e+002,2.459534e+000
6.989765e+002,2.327698e+000
6.999407e+002,4.637634e+000
7.009050e+002,7.760132e+000
7.018692e+002,1.126880e+001
7.028334e+002,1.449622e+001
7.037977e+002,1.558588e+001
7.047619e+002,9.516968e+000
7.057261e+002,4.758911e-001
7.066904e+002,-2.900879e+000
7.076546e+002,7.395630e-001
7.086188e+002,6.846008e+000
7.095831e+002,7.966553e+000
7.105473e+002,8.742065e-001
7.115115e+002,-1.684814e+000
7.124758e+002,2.698975e+000
7.134400e+002,7.868103e+000
7.144042e+002,1.078687e+001
7.153685e+002,1.143420e+001
7.163327e+002,1.092603e+001
7.172969e+002,8.176331e+000
7.182612e+002,5.876587e+000
7.192254e+002,5.169617e+000
7.201896e+002,5.550964e+000
7.211539e+002,5.879578e+000
7.221181e+002,5.216309e+000
7.230823e+002,4.217346e+000
7.240466e+002,4.984009e+000
7.250108e+002,7.445923e+000
7.259750e+002,9.753357e+000
7.269393e+002,1.036444e+001
7.279035e+002,8.985291e+000
7.288677e+002,7.480225e+000
7.298320e+002,7.062988e+000
7.307962e+002,7.049622e+000
7.317604e+002,7.388367e+000
7.327247e+002,8.238586e+000
7.336889e+002,9.693420e+000
7.346531e+002,1.146716e+001
7.356174e+002,1.162738e+001
7.365816e+002,9.905701e+000
7.375458e+002,7.671631e+000
7.385101e+002,5.344543e+000
7.394743e+002,3.335754e+000
7.404385e+002,2.342590e+000
7.414028e+002,3.664856e+000
7.423670e+002,5.766602e+000
7.433312e+002,6.093994e+000
7.442955e+002,5.127686e+000
7.452597e+002,4.103210e+000
7.462239e+002,3.997620e+000
7.471882e+002,4.746521e+000
7.481524e+002,5.746155e+000
7.491166e+002,5.669434e+000
7.500809e+002,5.850220e+000
7.510451e+002,7.760132e+000
7.520093e+002,1.056451e+001
7.529736e+002,1.126648e+001
7.539378e+002,7.635742e+000
7.549020e+002,4.108032e+000
7.558663e+002,2.846802e+000
7.568306e+002,3.482605e+000
7.577948e+002,5.886169e+000
7.587590e+002,9.629700e+000
7.597233e+002,1.328522e+001
7.606875e+002,1.278345e+001
7.616517e+002,9.062317e+000
7.626160e+002,6.786316e+000
7.635802e+002,7.621094e+000
7.645444e+002,1.023590e+001
7.655087e+002,1.156696e+001
7.664729e+002,1.010553e+001
7.674371e+002,1.042938e+001
7.684014e+002,1.426520e+001
7.693656e+002,1.821143e+001
7.703298e+002,1.970886e+001
7.712941e+002,1.877264e+001
7.722583e+002,1.854510e+001
7.732225e+002,2.297186e+001
7.741868e+002,2.728363e+001
7.751510e+002,2.743781e+001
7.761152e+002,2.425726e+001
7.770795e+002,1.990625e+001
7.780437e+002,1.618890e+001
7.790079e+002,1.316699e+001
7.799722e+002,1.363306e+001
7.809364e+002,1.820105e+001
7.819006e+002,2.055786e+001
7.828649e+002,1.651239e+001
7.838291e+002,8.854553e+000
7.847933e+002,6.406982e+000
7.857576e+002,1.221326e+001
7.867218e+002,1.741229e+001
7.876860e+002,2.202283e+001
7.886503e+002,2.533691e+001
7.896145e+002,2.623926e+001
7.905787e+002,2.463959e+001
7.915430e+002,2.258325e+001
7.925072e+002,2.160498e+001
7.934714e+002,2.093597e+001
7.944357e+002,2.032996e+001
7.953999e+002,2.012561e+001
7.963641e+002,2.083093e+001
7.973284e+002,2.290302e+001
7.982926e+002,2.649695e+001
7.992568e+002,2.838721e+001
8.002211e+002,2.757092e+001
8.011853e+002,2.518640e+001
8.021495e+002,2.132233e+001
8.031138e+002,1.746307e+001
8.040780e+002,1.700439e+001
8.050422e+002,2.289368e+001
8.060065e+002,2.674976e+001
8.069707e+002,2.291461e+001
8.079349e+002,1.717914e+001
8.088992e+002,1.601740e+001
8.098634e+002,2.161072e+001
8.108276e+002,2.954559e+001
8.117919e+002,3.354987e+001
8.127561e+002,3.388000e+001
8.137203e+002,3.258911e+001
8.146846e+002,3.046704e+001
8.156488e+002,2.781116e+001
8.166130e+002,2.441327e+001
8.175773e+002,1.963184e+001
8.185415e+002,1.713788e+001
8.195057e+002,1.756445e+001
8.204700e+002,1.805634e+001
8.214342e+002,1.768280e+001
8.223984e+002,1.668817e+001
8.233627e+002,1.577533e+001
8.243269e+002,1.509161e+001
8.252911e+002,1.520349e+001
8.262554e+002,1.698419e+001
8.272196e+002,1.907257e+001
8.281838e+002,1.975769e+001
8.291481e+002,1.856665e+001
8.301123e+002,1.663831e+001
8.310765e+002,1.572540e+001
8.320408e+002,1.595569e+001
8.330050e+002,1.872003e+001
8.339692e+002,2.529529e+001
8.349335e+002,3.110645e+001
8.358977e+002,3.041931e+001
8.368619e+002,2.206976e+001
8.378262e+002,1.810364e+001
8.387904e+002,2.227448e+001
8.397546e+002,2.611780e+001
8.407189e+002,2.722742e+001
8.416831e+002,2.679877e+001
8.426473e+002,2.752112e+001
8.436116e+002,3.099304e+001
8.445758e+002,3.442181e+001
8.455400e+002,3.377173e+001
8.465043e+002,3.090399e+001
8.474685e+002,2.799139e+001
8.484327e+002,2.627618e+001
8.493970e+002,2.635071e+001
8.503612e+002,2.868195e+001
8.513254e+002,3.356287e+001
8.522897e+002,3.704938e+001
8.532539e+002,3.845276e+001
8.542181e+002,3.892914e+001
8.551824e+002,3.887946e+001
8.561466e+002,3.906720e+001
8.571108e+002,4.201355e+001
8.580751e+002,5.028632e+001
8.590393e+002,5.604797e+001
8.600035e+002,5.584131e+001
8.609678e+002,5.333197e+001
8.619320e+002,5.247485e+001
8.628962e+002,5.481195e+001
8.638605e+002,5.858582e+001
8.648247e+002,6.157373e+001
8.657889e+002,6.387268e+001
8.667532e+002,6.586707e+001
8.677174e+002,6.759509e+001
8.686816e+002,6.917084e+001
8.696459e+002,7.099097e+001
8.706101e+002,7.354938e+001
8.715743e+002,7.452252e+001
8.725386e+002,7.080957e+001
8.735028e+002,6.964294e+001
8.744670e+002,7.458765e+001
8.754313e+002,8.218646e+001
8.763955e+002,8.598309e+001
8.773597e+002,8.313165e+001
8.783240e+002,8.002136e+001
8.792882e+002,8.100140e+001
8.802524e+002,8.358051e+001
8.812167e+002,8.643817e+001
8.821809e+002,8.885425e+001
8.831451e+002,8.994183e+001
8.841094e+002,8.832062e+001
8.850736e+002,8.479083e+001
8.860378e+002,8.739697e+001
8.870021e+002,9.747339e+001
8.879663e+002,1.069147e+002
8.889305e+002,1.106417e+002
8.898948e+002,1.095421e+002
8.908590e+002,1.087902e+002
8.918232e+002,1.083481e+002
8.927875e+002,1.099998e+002
8.937517e+002,1.161860e+002
8.947159e+002,1.228798e+002
8.956802e+002,1.260895e+002
8.966444e+002,1.249567e+002
8.976086e+002,1.223422e+002
8.985729e+002,1.213090e+002
8.995371e+002,1.215512e+002
9.005013e+002,1.214446e+002
9.014656e+002,1.214364e+002
9.024298e+002,1.230504e+002
9.033940e+002,1.274064e+002
9.043583e+002,1.334492e+002
9.053225e+002,1.359761e+002
9.062867e+002,1.299374e+002
9.072510e+002,1.260866e+002
9.082152e+002,1.269526e+002
9.091794e+002,1.297413e+002
9.101437e+002,1.313717e+002
9.111079e+002,1.312898e+002
9.120721e+002,1.319313e+002
9.130364e+002,1.363458e+002
9.140006e+002,1.394935e+002
9.149648e+002,1.377889e+002
9.159291e+002,1.331891e+002
9.168933e+002,1.294460e+002
9.178575e+002,1.289545e+002
9.188218e+002,1.305446e+002
9.197860e+002,1.312822e+002
9.207502e+002,1.309505e+002
9.217145e+002,1.301442e+002
9.226787e+002,1.299947e+002
9.236429e+002,1.296718e+002
9.246072e+002,1.270034e+002
9.255714e+002,1.207786e+002
9.265356e+002,1.165375e+002
9.274999e+002,1.170383e+002
9.284641e+002,1.171898e+002
9.294283e+002,1.150769e+002
9.303926e+002,1.117838e+002
9.313568e+002,1.096722e+002
9.323210e+002,1.100299e+002
9.332853e+002,1.105399e+002
9.342495e+002,1.060325e+002
9.352137e+002,9.933215e+001
9.361780e+002,9.566071e+001
9.371422e+002,9.646368e+001
9.381064e+002,9.890582e+001
9.390707e+002,9.839136e+001
9.400349e+002,9.334662e+001
9.409991e+002,9.259680e+001
9.419634e+002,1.006205e+002
9.429276e+002,1.063548e+002
9.438918e+002,1.059253e+002
9.448561e+002,1.019255e+002
9.458203e+002,9.867072e+001
9.467845e+002,9.743640e+001
9.477488e+002,9.729230e+001
9.487130e+002,9.876257e+001
9.496772e+002,9.992719e+001
9.506415e+002,9.899493e+001
9.516057e+002,9.604022e+001
9.525699e+002,9.211652e+001
9.535342e+002,8.812030e+001
9.544984e+002,8.407733e+001
9.554626e+002,8.229126e+001
9.564269e+002,8.381488e+001
9.573911e+002,8.540631e+001
9.583553e+002,8.583545e+001
9.593196e+002,8.570178e+001
9.602838e+002,8.632239e+001
9.612480e+002,8.809595e+001
9.622123e+002,8.833313e+001
9.631765e+002,8.536371e+001
9.641407e+002,8.198175e+001
9.651050e+002,7.896149e+001
9.660692e+002,7.628619e+001
9.670334e+002,7.384570e+001
9.679977e+002,7.184381e+001
9.689619e+002,7.063812e+001
9.699261e+002,6.956445e+001
9.708904e+002,6.870294e+001
9.718546e+002,7.004852e+001
9.728188e+002,7.394666e+001
9.737831e+002,7.969232e+001
9.747473e+002,8.739288e+001
9.757115e+002,9.819305e+001
9.766758e+002,1.055118e+002
9.776400e+002,1.087134e+002
9.786042e+002,1.100157e+002
9.795685e+002,1.088118e+002
9.805327e+002,1.057163e+002
9.814969e+002,1.021612e+002
9.824612e+002,9.896039e+001
9.834254e+002,9.435522e+001
9.843896e+002,8.372058e+001
9.853539e+002,7.149414e+001
9.863181e+002,6.206909e+001
9.872823e+002,5.566534e+001
9.882466e+002,5.200287e+001
9.892108e+002,5.144952e+001
9.901750e+002,5.409454e+001
9.911393e+002,5.579340e+001
9.921035e+002,5.403992e+001
9.930677e+002,5.268164e+001
9.940320e+002,5.167010e+001
9.949962e+002,5.218689e+001
9.959604e+002,5.642670e+001
9.969247e+002,6.431641e+001
9.978889e+002,7.047211e+001
9.988531e+002,7.002655e+001
9.998174e+002,6.856146e+001
1.000782e+003,7.017212e+001
1.001746e+003,7.364624e+001
1.002710e+003,7.690295e+001
1.003674e+003,7.888196e+001
1.004639e+003,7.997278e+001
1.005603e+003,8.096735e+001
1.006567e+003,8.166718e+001
1.007531e+003,8.052966e+001
1.008495e+003,7.678186e+001
1.009460e+003,7.301288e+001
1.010424e+003,7.128101e+001
1.011388e+003,7.105548e+001
1.012352e+003,6.962604e+001
1.013317e+003,6.564526e+001
1.014281e+003,6.193262e+001
1.015245e+003,6.006268e+001
1.016209e+003,5.773297e+001
1.017174e+003,5.283191e+001
1.018138e+003,4.584155e+001
1.019102e+003,3.909631e+001
1.020066e+003,3.455511e+001
1.021031e+003,3.207324e+001
1.021995e+003,3.116675e+001
1.022959e+003,3.098322e+001
1.023923e+003,2.895685e+001
1.024887e+003,2.360895e+001
1.025852e+003,1.695178e+001
1.026816e+003,1.235608e+001
1.027780e+003,1.052808e+001
1.028744e+003,9.204590e+000
1.029709e+003,8.129578e+000
1.030673e+003,7.430603e+000
1.031637e+003,7.324280e+000
1.032601e+003,7.266785e+000
1.033566e+003,6.696411e+000
1.034530e+003,5.551880e+000
1.035494e+003,4.261963e+000
1.036458e+003,2.634827e+000
1.037422e+003,1.244629e+000
1.038387e+003,1.421204e+000
1.039351e+003,2.943970e+000
1.040315e+003,4.577759e+000
1.041279e+003,5.594727e+000
1.042244e+003,6.273132e+000
1.043208e+003,7.031189e+000
1.044172e+003,7.253052e+000
1.045136e+003,7.724609e+000
1.046101e+003,9.699646e+000
1.047065e+003,1.116162e+001
1.048029e+003,9.955017e+000
1.048993e+003,6.759277e+000
1.049958e+003,4.887756e+000
1.050922e+003,6.671326e+000
1.051886e+003,8.943848e+000
1.052850e+003,7.031067e+000
1.053814e+003,4.052795e+000
1.054779e+003,4.836853e+000
1.055743e+003,9.924316e+000
1.056707e+003,1.529480e+001
1.057671e+003,1.603918e+001
1.058636e+003,1.202704e+001
1.059600e+003,9.821289e+000
1.060564e+003,1.127100e+001
1.061528e+003,1.288123e+001
1.062493e+003,1.446143e+001
1.063457e+003,1.496100e+001
1.064421e+003,1.293317e+001
1.065385e+003,8.494568e+000
1.066349e+003,4.778137e+000
1.067314e+003,2.991882e+000
1.068278e+003,3.083435e+000
1.069242e+003,6.561218e+000
1.070206e+003,1.139862e+001
1.071171e+003,1.406012e+001
1.072135e+003,1.301624e+001
1.073099e+003,9.910950e+000
1.074063e+003,7.768433e+000
1.075028e+003,6.776306e+000
1.075992e+003,7.561035e+000
1.076956e+003,1.131030e+001
1.077920e+003,1.382605e+001
1.078885e+003,1.317828e+001
1.079849e+003,1.107355e+001
1.080813e+003,1.039148e+001
1.081777e+003,1.177063e+001
1.082741e+003,1.353625e+001
1.083706e+003,1.511469e+001
1.084670e+003,1.565735e+001
1.085634e+003,1.421014e+001
1.086598e+003,1.141467e+001
1.087563e+003,8.477661e+000
1.088527e+003,6.332153e+000
1.089491e+003,5.243347e+000
1.090455e+003,5.181213e+000
1.091420e+003,5.927124e+000
1.092384e+003,6.148315e+000
1.093348e+003,5.746460e+000
1.094312e+003,4.378052e+000
1.095276e+003,1.121399e+000
1.096241e+003,-2.701721e+000
1.097205e+003,-3.321289e+000
1.098169e+003,8.544312e-001
1.099133e+003,3.805664e+000
1.100098e+003,1.952026e+000
1.101062e+003,-1.129150e-001
1.102026e+003,1.033142e+000
1.102990e+003,4.425598e+000
1.103955e+003,7.000061e+000
1.104919e+003,6.807312e+000
1.105883e+003,4.801392e+000
1.106847e+003,3.117676e+000
1.107812e+003,1.720032e+000
1.108776e+003,4.738159e-001
1.109740e+003,-7.484741e-001
1.110704e+003,-1.557678e+000
1.111668e+003,-1.354248e+000
1.112633e+003,2.728271e-002
1.113597e+003,2.363953e+000
1.114561e+003,6.283447e+000
1.115525e+003,8.671021e+000
1.116490e+003,7.429443e+000
1.117454e+003,5.555664e+000
1.118418e+003,4.726868e+000
1.119382e+003,5.491760e+000
1.120347e+003,8.086792e+000
1.121311e+003,1.229395e+001
1.122275e+003,1.628467e+001
1.123239e+003,1.720795e+001
1.124203e+003,1.586914e+001
1.125168e+003,1.586761e+001
1.126132e+003,1.822443e+001
1.127096e+003,2.029590e+001
1.128060e+003,1.873669e+001
1.129025e+003,1.460889e+001
1.129989e+003,1.414966e+001
1.130953e+003,1.960278e+001
1.131917e+003,2.410974e+001
1.132882e+003,2.559198e+001
1.133846e+003,2.633667e+001
1.134810e+003,2.702472e+001
1.135774e+003,2.831183e+001
1.136739e+003,3.110211e+001
1.137703e+003,3.584009e+001
1.138667e+003,4.159198e+001
1.139631e+003,4.696167e+001
1.140595e+003,5.187720e+001
1.141560e+003,5.651099e+001
1.142524e+003,6.053381e+001
1.143488e+003,6.677350e+001
1.144452e+003,7.711206e+001
1.145417e+003,9.103040e+001
1.146381e+003,1.071145e+002
1.147345e+003,1.264280e+002
1.148309e+003,1.444150e+002
1.149274e+003,1.580397e+002
1.150238e+003,1.725689e+002
1.151202e+003,1.927144e+002
1.152166e+003,2.157615e+002
1.153130e+003,2.366883e+002
1.154095e+003,2.526096e+002
1.155059e+003,2.634204e+002
1.156023e+003,2.697349e+002
1.156987e+003,2.713174e+002
1.157952e+003,2.681353e+002
1.158916e+003,2.610415e+002
1.159880e+003,2.497359e+002
1.160844e+003,2.313794e+002
1.161809e+003,2.079559e+002
1.162773e+003,1.848413e+002
1.163737e+003,1.617570e+002
1.164701e+003,1.405898e+002
1.165666e+003,1.216182e+002
1.166630e+003,1.056444e+002
1.167594e+003,9.382239e+001
1.168558e+003,8.475391e+001
1.169522e+003,7.669458e+001
1.170487e+003,6.912360e+001
1.171451e+003,6.323395e+001
1.172415e+003,6.058411e+001
1.173379e+003,6.019110e+001
1.174344e+003,5.707843e+001
1.175308e+003,5.122827e+001
1.176272e+003,4.637274e+001
1.177236e+003,4.418494e+001
1.178201e+003,4.348169e+001
1.179165e+003,4.300220e+001
1.180129e+003,4.246661e+001
1.181093e+003,3.977838e+001
1.182057e+003,3.192975e+001
1.183022e+003,2.627820e+001
1.183986e+003,2.691083e+001
1.184950e+003,2.982263e+001
1.185914e+003,3.116791e+001
1.186879e+003,3.076727e+001
1.187843e+003,3.126001e+001
1.188807e+003,3.473016e+001
1.189771e+003,3.949811e+001
1.190736e+003,4.070526e+001
1.191700e+003,3.783246e+001
1.192664e+003,3.628168e+001
1.193628e+003,3.843750e+001
1.194593e+003,4.001337e+001
1.195557e+003,3.756891e+001
1.196521e+003,3.191187e+001
1.197485e+003,2.582428e+001
1.198449e+003,1.933490e+001
1.199414e+003,1.392157e+001
1.200378e+003,1.036743e+001
1.201342e+003,8.046143e+000
1.202306e+003,7.156738e+000
1.203271e+003,6.888733e+000
1.204235e+003,5.956665e+000
1.205199e+003,3.838013e+000
1.206163e+003,1.277710e+000
1.207128e+003,-5.375977e-001
1.208092e+003,-1.492249e+000
1.209056e+003,-3.671082e+000
1.210020e+003,-7.555908e+000
1.210984e+003,-1.138391e+001
1.211949e+003,-1.459393e+001
1.212913e+003,-1.770746e+001
1.213877e+003,-2.128650e+001
1.214841e+003,-2.524561e+001
1.215806e+003,-2.904327e+001
1.216770e+003,-3.262396e+001
1.217734e+003,-3.594135e+001
1.218698e+003,-3.964935e+001
1.219663e+003,-4.310498e+001
1.220627e+003,-4.502881e+001
1.221591e+003,-4.551434e+001
1.222555e+003,-4.617938e+001
1.223520e+003,-4.847711e+001
1.224484e+003,-5.182672e+001
1.225448e+003,-5.423792e+001
1.226412e+003,-5.563470e+001
1.227376e+003,-5.624933e+001
1.228341e+003,-5.507391e+001
1.229305e+003,-5.454047e+001
1.230269e+003,-5.677026e+001
1.231233e+003,-6.040131e+001
1.232198e+003,-6.253436e+001
1.233162e+003,-6.223987e+001
1.234126e+003,-6.057684e+001
1.235090e+003,-5.747015e+001
1.236055e+003,-5.468982e+001
1.237019e+003,-5.449146e+001
1.237983e+003,-5.616119e+001
1.238947e+003,-5.721466e+001
1.239911e+003,-5.644397e+001
1.240876e+003,-5.541168e+001
1.241840e+003,-5.704388e+001
1.242804e+003,-6.166003e+001
1.243768e+003,-6.271228e+001
1.244733e+003,-5.634674e+001
1.245697e+003,-5.131677e+001
1.246661e+003,-4.878217e+001
1.247625e+003,-4.802246e+001
1.248590e+003,-4.899969e+001
1.249554e+003,-5.073260e+001
1.250518e+003,-5.144397e+001
1.251482e+003,-5.050885e+001
1.252447e+003,-4.903644e+001
1.253411e+003,-4.770331e+001
1.254375e+003,-4.650604e+001
1.255339e+003,-4.574866e+001
1.256303e+003,-4.528033e+001
1.257268e+003,-4.514508e+001
1.258232e+003,-4.601025e+001
1.259196e+003,-4.725952e+001
1.260160e+003,-4.697754e+001
1.261125e+003,-4.464203e+001
1.262089e+003,-4.184637e+001
1.263053e+003,-3.861353e+001
1.264017e+003,-3.585602e+001
1.264982e+003,-3.338123e+001
1.265946e+003,-3.146545e+001
1.266910e+003,-3.054858e+001
1.267874e+003,-3.046698e+001
1.268839e+003,-3.049451e+001
1.269803e+003,-3.012311e+001
1.270767e+003,-2.982324e+001
1.271731e+003,-3.061194e+001
1.272695e+003,-3.227228e+001
1.273660e+003,-3.328436e+001
1.274624e+003,-3.399146e+001
1.275588e+003,-3.467365e+001
1.276552e+003,-3.464972e+001
1.277517e+003,-3.438574e+001
1.278481e+003,-3.558606e+001
1.279445e+003,-3.863782e+001
1.280409e+003,-4.063214e+001
1.281374e+003,-3.959796e+001
1.282338e+003,-3.856702e+001
1.283302e+003,-3.914264e+001
1.284266e+003,-4.064734e+001
1.285230e+003,-4.264636e+001
1.286195e+003,-4.480078e+001
1.287159e+003,-4.646362e+001
1.288123e+003,-4.693939e+001
1.289087e+003,-4.624829e+001
1.290052e+003,-4.504205e+001
1.291016e+003,-4.274414e+001
1.291980e+003,-4.348181e+001
1.292944e+003,-5.149738e+001
1.293909e+003,-5.748419e+001
1.294873e+003,-5.611169e+001
1.295837e+003,-5.107306e+001
1.296801e+003,-4.728387e+001
1.297766e+003,-4.550446e+001
1.298730e+003,-4.465381e+001
1.299694e+003,-4.477533e+001
1.300658e+003,-4.509674e+001
1.301622e+003,-4.389697e+001
1.302587e+003,-4.228851e+001
1.303551e+003,-4.252081e+001
1.304515e+003,-4.472601e+001
1.305479e+003,-4.709344e+001
1.306444e+003,-4.849188e+001
1.307408e+003,-4.907861e+001
1.308372e+003,-4.876978e+001
1.309336e+003,-4.743756e+001
1.310301e+003,-4.566589e+001
1.311265e+003,-4.095831e+001
1.312229e+003,-3.852972e+001
1.313193e+003,-4.204388e+001
1.314157e+003,-4.736542e+001
1.315122e+003,-5.005872e+001
1.316086e+003,-4.989087e+001
1.317050e+003,-4.972241e+001
1.318014e+003,-5.131989e+001
1.318979e+003,-5.313409e+001
1.319943e+003,-5.251184e+001
1.320907e+003,-4.950488e+001
1.321871e+003,-4.646033e+001
1.322836e+003,-4.374805e+001
1.323800e+003,-4.172205e+001
1.324764e+003,-4.001703e+001
1.325728e+003,-3.924536e+001
1.326693e+003,-4.163403e+001
1.327657e+003,-4.751941e+001
1.328621e+003,-5.046973e+001
1.329585e+003,-4.538293e+001
1.330549e+003,-4.082990e+001
1.331514e+003,-4.402277e+001
1.332478e+003,-4.916437e+001
1.333442e+003,-5.012897e+001
1.334406e+003,-4.703070e+001
1.335371e+003,-4.354034e+001
1.336335e+003,-4.195453e+001
1.337299e+003,-4.173157e+001
1.338263e+003,-4.209082e+001
1.339228e+003,-4.324292e+001
1.340192e+003,-4.278864e+001
1.341156e+003,-3.983789e+001
1.342120e+003,-3.675079e+001
1.343084e+003,-3.277802e+001
1.344049e+003,-3.040582e+001
1.345013e+003,-3.277411e+001
1.345977e+003,-3.797046e+001
1.346941e+003,-4.046979e+001
1.347906e+003,-3.822174e+001
1.348870e+003,-3.484985e+001
1.349834e+003,-3.348956e+001
1.350798e+003,-3.368225e+001
1.351763e+003,-3.425232e+001
1.352727e+003,-3.497247e+001
1.353691e+003,-3.507532e+001
1.354655e+003,-3.408459e+001
1.355620e+003,-3.291620e+001
1.356584e+003,-3.243976e+001
1.357548e+003,-3.254224e+001
1.358512e+003,-3.340350e+001
1.359476e+003,-3.574554e+001
1.360441e+003,-3.828552e+001
1.361405e+003,-4.147058e+001
1.362369e+003,-4.355139e+001
1.363333e+003,-4.301337e+001
1.364298e+003,-4.110107e+001
1.365262e+003,-3.934668e+001
1.366226e+003,-3.828809e+001
1.367190e+003,-3.789014e+001
1.368155e+003,-3.815277e+001
1.369119e+003,-3.864349e+001
1.370083e+003,-3.787921e+001
1.371047e+003,-3.526477e+001
1.372011e+003,-3.297479e+001
1.372976e+003,-3.133673e+001
1.373940e+003,-3.037189e+001
1.374904e+003,-2.980090e+001
1.375868e+003,-2.976416e+001
1.376833e+003,-3.123859e+001
1.377797e+003,-3.394495e+001
1.378761e+003,-3.524469e+001
1.379725e+003,-3.369684e+001
1.380690e+003,-3.113501e+001
1.381654e+003,-2.864429e+001
1.382618e+003,-2.656250e+001
1.383582e+003,-2.574274e+001
1.384547e+003,-2.605865e+001
1.385511e+003,-2.628839e+001
1.386475e+003,-2.585504e+001
1.387439e+003,-2.556165e+001
1.388403e+003,-2.700909e+001
1.389368e+003,-3.022388e+001
1.390332e+003,-3.136969e+001
1.391296e+003,-2.870392e+001
1.392260e+003,-2.677234e+001
1.393225e+003,-2.803815e+001
1.394189e+003,-2.890082e+001
1.395153e+003,-2.620227e+001
1.396117e+003,-2.219781e+001
1.397082e+003,-2.069299e+001
1.398046e+003,-2.238226e+001
1.399010e+003,-2.479376e+001
1.399974e+003,-2.591272e+001
1.400938e+003,-2.637451e+001
1.401903e+003,-2.699573e+001
1.402867e+003,-2.703156e+001
1.403831e+003,-2.570612e+001
1.404795e+003,-2.202679e+001
1.405760e+003,-1.931256e+001
1.406724e+003,-1.999994e+001
1.407688e+003,-2.259106e+001
1.408652e+003,-2.490015e+001
1.409617e+003,-2.630280e+001
1.410581e+003,-2.709216e+001
1.411545e+003,-2.743866e+001
1.412509e+003,-2.696570e+001
1.413474e+003,-2.484406e+001
1.414438e+003,-2.259735e+001
1.415402e+003,-2.215845e+001
1.416366e+003,-2.301483e+001
1.417330e+003,-2.382684e+001
1.418295e+003,-2.423584e+001
1.419259e+003,-2.379553e+001
1.420223e+003,-2.181799e+001
1.421187e+003,-1.881213e+001
1.422152e+003,-1.646411e+001
1.423116e+003,-1.438440e+001
1.424080e+003,-1.294360e+001
1.425044e+003,-1.349152e+001
1.426009e+003,-1.414703e+001
1.426973e+003,-1.455182e+001
1.427937e+003,-1.442004e+001
1.428901e+003,-1.287268e+001
1.429865e+003,-1.014154e+001
1.430830e+003,-7.799988e+000
1.431794e+003,-7.046509e+000
1.432758e+003,-7.279968e+000
1.433722e+003,-6.834778e+000
1.434687e+003,-5.100098e+000
1.435651e+003,-3.248169e+000
1.436615e+003,-2.414612e+000
1.437579e+003,-2.359558e+000
1.438544e+003,-3.176758e+000
1.439508e+003,-4.305054e+000
1.440472e+003,-5.249878e+000
1.441436e+003,-5.796631e+000
1.442401e+003,-6.087158e+000
1.443365e+003,-6.225464e+000
1.444329e+003,-5.743225e+000
1.445293e+003,-4.047913e+000
1.446257e+003,-1.731812e+000
1.447222e+003,5.999756e-002
1.448186e+003,1.247681e+000
1.449150e+003,1.377625e+000
1.450114e+003,7.690430e-003
1.451079e+003,-1.322205e+000
1.452043e+003,-1.398254e+000
1.453007e+003,-7.866821e-001
1.453971e+003,-3.137207e-001
1.454936e+003,-2.182617e-001
1.455900e+003,-1.106079e+000
1.456864e+003,-3.273499e+000
1.457828e+003,-5.114014e+000
1.458792e+003,-6.238831e+000
1.459757e+003,-6.620239e+000
1.460721e+003,-5.225830e+000
1.461685e+003,-3.318420e+000
1.462649e+003,-3.845520e+000
1.463614e+003,-7.131592e+000
1.464578e+003,-9.670837e+000
1.465542e+003,-8.319458e+000
1.466506e+003,-4.588501e+000
1.467471e+003,-2.557129e+000
1.468435e+003,-2.243774e+000
1.469399e+003,-1.230469e+000
1.470363e+003,1.138489e+000
1.471328e+003,2.463013e+000
1.472292e+003,1.033325e+000
1.473256e+003,-1.194763e+000
1.474220e+003,-2.341064e+000
1.475184e+003,-2.460632e+000
1.476149e+003,-2.750183e+000
1.477113e+003,-3.682495e+000
1.478077e+003,-4.178894e+000
1.479041e+003,-2.845215e+000
1.480006e+003,-1.729126e-001
1.480970e+003,1.289307e+000
1.481934e+003,3.661499e-001
1.482898e+003,1.642944e+000
1.483863e+003,7.705261e+000
1.484827e+003,1.189612e+001
1.485791e+003,1.149652e+001
1.486755e+003,9.981934e+000
1.487719e+003,9.837646e+000
1.488684e+003,1.100848e+001
1.489648e+003,1.326678e+001
1.490612e+003,1.663684e+001
1.491576e+003,1.950568e+001
1.492541e+003,1.991492e+001
1.493505e+003,1.957886e+001
1.494469e+003,2.279279e+001
1.495433e+003,2.856091e+001
1.496398e+003,3.344043e+001
1.497362e+003,3.721088e+001
1.498326e+003,4.159888e+001
1.499290e+003,4.765118e+001
1.500255e+003,5.456476e+001
1.501219e+003,6.144830e+001
1.502183e+003,6.804248e+001
1.503147e+003,7.318085e+001
1.504111e+003,7.592365e+001
1.505076e+003,8.077710e+001
1.506040e+003,9.118787e+001
1.507004e+003,1.042894e+002
1.507968e+003,1.166483e+002
1.508933e+003,1.293848e+002
1.509897e+003,1.456660e+002
1.510861e+003,1.663754e+002
1.511825e+003,1.872011e+002
1.512790e+003,2.037384e+002
1.513754e+003,2.197669e+002
1.514718e+003,2.449818e+002
1.515682e+003,2.789409e+002
1.516646e+003,3.061628e+002
1.517611e+003,3.242303e+002
1.518575e+003,3.397212e+002
1.519539e+003,3.551726e+002
1.520503e+003,3.688356e+002
1.521468e+003,3.799359e+002
1.522432e+003,3.881418e+002
1.523396e+003,3.941100e+002
1.524360e+003,3.970413e+002
1.525325e+003,3.940093e+002
1.526289e+003,3.831805e+002
1.527253e+003,3.672302e+002
1.528217e+003,3.505758e+002
1.529182e+003,3.335351e+002
1.530146e+003,3.152092e+002
1.531110e+003,2.961182e+002
1.532074e+003,2.739078e+002
1.533039e+003,2.456178e+002
1.534003e+003,2.161768e+002
1.534967e+003,1.876458e+002
1.535931e+003,1.607129e+002
1.536896e+003,1.348894e+002
1.537860e+003,1.110325e+002
1.538824e+003,9.080811e+001
1.539788e+003,7.496320e+001
1.540752e+003,6.386298e+001
1.541717e+003,5.868701e+001
1.542681e+003,5.839697e+001
1.543645e+003,5.493903e+001
1.544609e+003,4.653284e+001
1.545573e+003,4.061578e+001
1.546538e+003,3.702515e+001
1.547502e+003,3.489471e+001
1.548466e+003,3.455725e+001
1.549430e+003,3.599597e+001
1.550395e+003,3.998962e+001
1.551359e+003,4.513794e+001
1.552323e+003,4.830701e+001
1.553287e+003,4.848822e+001
1.554252e+003,4.726904e+001
1.555216e+003,4.603168e+001
1.556180e+003,4.413562e+001
1.557144e+003,3.985138e+001
1.558109e+003,3.323907e+001
1.559073e+003,2.689001e+001
1.560037e+003,1.903870e+001
1.561001e+003,1.409668e+001
1.561966e+003,1.614722e+001
1.562930e+003,2.026929e+001
1.563894e+003,2.133716e+001
1.564858e+003,2.048071e+001
1.565823e+003,2.212451e+001
1.566787e+003,2.676709e+001
1.567751e+003,2.818890e+001
1.568715e+003,2.178503e+001
1.569679e+003,1.467969e+001
1.570644e+003,1.681213e+001
1.571608e+003,2.460608e+001
1.572572e+003,2.795221e+001
1.573536e+003,2.672284e+001
1.574500e+003,2.638605e+001
1.575465e+003,2.930786e+001
1.576429e+003,3.236700e+001
1.577393e+003,3.230536e+001
1.578357e+003,3.067767e+001
1.579322e+003,3.091797e+001
1.580286e+003,3.326971e+001
1.581250e+003,3.599152e+001
1.582214e+003,3.884259e+001
1.583179e+003,4.081232e+001
1.584143e+003,4.033051e+001
1.585107e+003,3.886902e+001
1.586071e+003,3.925519e+001
1.587036e+003,4.115076e+001
1.588000e+003,4.192542e+001
1.588964e+003,4.064362e+001
1.589928e+003,3.952332e+001
1.590893e+003,4.035583e+001
1.591857e+003,4.200201e+001
1.592821e+003,4.234253e+001
1.593785e+003,4.190558e+001
1.594750e+003,4.373712e+001
1.595714e+003,4.847479e+001
1.596678e+003,5.253699e+001
1.597642e+003,5.461652e+001
1.598606e+003,5.548370e+001
1.599571e+003,5.516852e+001
1.600535e+003,5.470264e+001
1.601499e+003,5.505847e+001
1.602463e+003,5.632568e+001
1.603427e+003,5.920068e+001
1.604392e+003,6.434497e+001
1.605356e+003,6.843799e+001
1.606320e+003,6.735510e+001
1.607284e+003,6.292670e+001
1.608249e+003,6.022467e+001
1.609213e+003,5.930762e+001
1.610177e+003,5.870410e+001
1.611141e+003,5.788379e+001
1.612106e+003,5.812646e+001
1.613070e+003,6.173517e+001
1.614034e+003,6.499402e+001
1.614998e+003,6.478314e+001
1.615963e+003,6.255432e+001
1.616927e+003,6.023175e+001
1.617891e+003,5.839111e+001
1.618855e+003,5.786676e+001
1.619820e+003,5.897095e+001
1.620784e+003,6.129730e+001
1.621748e+003,6.650824e+001
1.622712e+003,7.395514e+001
1.623677e+003,7.468292e+001
1.624641e+003,6.681329e+001
1.625605e+003,6.366412e+001
1.626569e+003,7.106775e+001
1.627533e+003,7.648547e+001
1.628498e+003,7.201453e+001
1.629462e+003,6.561664e+001
1.630426e+003,6.415228e+001
1.631390e+003,6.594611e+001
1.632354e+003,6.593390e+001
1.633319e+003,6.310699e+001
1.634283e+003,6.162415e+001
1.635247e+003,6.495563e+001
1.636211e+003,6.990125e+001
1.637176e+003,7.036060e+001
1.638140e+003,6.690344e+001
1.639104e+003,6.586121e+001
1.640068e+003,6.782153e+001
1.641033e+003,6.992145e+001
1.641997e+003,7.238135e+001
1.642961e+003,7.392133e+001
1.643925e+003,7.341565e+001
1.644890e+003,7.212659e+001
1.645854e+003,7.095911e+001
1.646818e+003,7.002417e+001
1.647782e+003,6.938287e+001
1.648747e+003,6.899969e+001
1.649711e+003,6.873431e+001
1.650675e+003,6.875159e+001
1.651639e+003,6.895990e+001
1.652604e+003,6.859070e+001
1.653568e+003,6.746313e+001
1.654532e+003,6.640247e+001
1.655496e+003,6.537274e+001
1.656460e+003,6.476019e+001
1.657425e+003,6.543561e+001
1.658389e+003,6.583978e+001
1.659353e+003,6.563513e+001
1.660317e+003,6.434564e+001
1.661281e+003,5.983777e+001
1.662246e+003,5.380450e+001
1.663210e+003,5.178564e+001
1.664174e+003,5.556763e+001
1.665138e+003,6.016040e+001
1.666103e+003,6.136646e+001
1.667067e+003,6.014398e+001
1.668031e+003,5.836877e+001
1.668995e+003,5.619043e+001
1.669960e+003,5.432489e+001
1.670924e+003,5.295520e+001
1.671888e+003,5.174628e+001
1.672852e+003,4.959766e+001
1.673817e+003,4.865002e+001
1.674781e+003,5.207831e+001
1.675745e+003,5.593481e+001
1.676709e+003,5.517639e+001
1.677674e+003,5.092834e+001
1.678638e+003,4.777051e+001
1.679602e+003,4.714130e+001
1.680566e+003,4.674341e+001
1.681531e+003,4.463977e+001
1.682495e+003,4.243811e+001
1.683459e+003,4.330182e+001
1.684423e+003,4.625299e+001
1.685387e+003,4.585028e+001
1.686352e+003,4.120239e+001
1.687316e+003,3.770129e+001
1.688280e+003,3.726257e+001
1.689244e+003,3.792883e+001
1.690208e+003,3.842169e+001
1.691173e+003,3.897723e+001
1.692137e+003,4.068115e+001
1.693101e+003,4.307092e+001
1.694065e+003,4.349390e+001
1.695030e+003,4.089978e+001
1.695994e+003,3.828156e+001
1.696958e+003,3.800262e+001
1.697922e+003,3.840918e+001
1.698887e+003,3.745697e+001
1.699851e+003,3.557629e+001
1.700815e+003,3.342810e+001
1.701779e+003,3.095471e+001
1.702744e+003,2.972144e+001
1.703708e+003,3.097235e+001
1.704672e+003,3.217157e+001
1.705636e+003,3.050757e+001
1.706601e+003,2.775641e+001
1.707565e+003,2.749915e+001
1.708529e+003,2.912421e+001
1.709493e+003,3.000952e+001
1.710458e+003,2.981653e+001
1.711422e+003,2.871478e+001
1.712386e+003,2.653760e+001
1.713350e+003,2.433246e+001
1.714314e+003,2.221265e+001
1.715279e+003,2.034222e+001
1.716243e+003,1.924323e+001
1.717207e+003,1.901575e+001
1.718171e+003,2.020184e+001
1.719135e+003,2.302234e+001
1.720100e+003,2.442023e+001
1.721064e+003,2.181708e+001
1.722028e+003,1.778156e+001
1.722992e+003,1.621991e+001
1.723957e+003,1.712091e+001
1.724921e+003,1.835687e+001
1.725885e+003,1.948071e+001
1.726849e+003,1.989612e+001
1.727814e+003,2.058826e+001
1.728778e+003,2.042328e+001
1.729742e+003,1.723889e+001
1.730706e+003,1.422437e+001
1.731671e+003,1.459448e+001
1.732635e+003,1.688190e+001
1.733599e+003,1.889575e+001
1.734563e+003,2.022797e+001
1.735528e+003,2.005334e+001
1.736492e+003,1.779657e+001
1.737456e+003,1.560968e+001
1.738420e+003,1.617188e+001
1.739385e+003,1.832733e+001
1.740349e+003,1.882928e+001
1.741313e+003,1.756061e+001
1.742277e+003,1.656366e+001
1.743241e+003,1.602826e+001
1.744206e+003,1.601776e+001
1.745170e+003,1.735779e+001
1.746134e+003,1.790393e+001
1.747098e+003,1.555695e+001
1.748063e+003,1.240985e+001
1.749027e+003,1.075586e+001
1.749991e+003,1.071222e+001
1.750955e+003,1.179871e+001
1.751919e+003,1.344220e+001
1.752884e+003,1.419250e+001
1.753848e+003,1.283209e+001
1.754812e+003,1.017108e+001
1.755776e+003,7.939758e+000
1.756741e+003,6.460388e+000
1.757705e+003,6.471802e+000
1.758669e+003,8.152039e+000
1.759633e+003,9.998657e+000
1.760598e+003,1.256573e+001
1.761562e+003,1.368610e+001
1.762526e+003,1.196362e+001
1.763490e+003,1.004724e+001
1.764455e+003,9.858276e+000
1.765419e+003,1.079059e+001
1.766383e+003,1.178961e+001
1.767347e+003,1.233624e+001
1.768312e+003,1.165302e+001
1.769276e+003,9.224609e+000
1.770240e+003,7.640442e+000
1.771204e+003,1.095074e+001
1.772168e+003,1.671619e+001
1.773133e+003,1.827844e+001
1.774097e+003,1.605627e+001
1.775061e+003,1.436108e+001
1.776025e+003,1.329004e+001
1.776990e+003,1.237848e+001
1.777954e+003,1.194257e+001
1.778918e+003,1.174915e+001
1.779882e+003,1.101617e+001
1.780846e+003,1.027960e+001
1.781811e+003,1.096393e+001
1.782775e+003,1.263348e+001
1.783739e+003,1.362616e+001
1.784703e+003,1.383459e+001
1.785668e+003,1.330292e+001
1.786632e+003,1.030017e+001
1.787596e+003,8.052795e+000
1.788560e+003,1.044159e+001
1.789525e+003,1.483777e+001
1.790489e+003,1.727106e+001
1.791453e+003,1.776831e+001
1.792417e+003,1.796637e+001
1.793382e+003,1.821344e+001
1.794346e+003,1.760516e+001
1.795310e+003,1.554199e+001
1.796274e+003,1.314459e+001
1.797239e+003,1.184406e+001
1.798203e+003,1.184802e+001
1.799167e+003,1.257996e+001
1.800131e+003,1.347198e+001
1.801095e+003,1.399377e+001
1.802060e+003,1.428308e+001
1.803024e+003,1.535950e+001
1.803988e+003,1.870941e+001
1.804952e+003,2.066028e+001
1.805917e+003,1.773712e+001
1.806881e+003,1.403204e+001
1.807845e+003,1.436127e+001
1.808809e+003,1.726788e+001
1.809773e+003,1.863831e+001
1.810738e+003,1.769250e+001
1.811702e+003,1.678229e+001
1.812666e+003,1.734888e+001
1.813630e+003,1.855713e+001
1.814595e+003,1.935608e+001
1.815559e+003,1.967841e+001
1.816523e+003,1.967413e+001
1.817487e+003,1.944592e+001
1.818452e+003,1.857178e+001
1.819416e+003,1.681793e+001
1.820380e+003,1.603314e+001
1.821344e+003,1.685706e+001
1.822309e+003,1.786481e+001
1.823273e+003,1.885846e+001
1.824237e+003,1.962213e+001
1.825201e+003,1.902142e+001
1.826166e+003,1.782758e+001
1.827130e+003,1.886401e+001
1.828094e+003,2.237164e+001
1.829058e+003,2.397400e+001
1.830022e+003,2.101520e+001
1.830987e+003,1.741052e+001
1.831951e+003,1.574603e+001
1.832915e+003,1.588263e+001
1.833879e+003,1.887488e+001
1.834844e+003,2.325848e+001
1.835808e+003,2.469885e+001
1.836772e+003,2.272540e+001
1.837736e+003,1.934558e+001
1.838700e+003,1.515887e+001
1.839665e+003,1.247498e+001
1.840629e+003,1.388385e+001
1.841593e+003,1.752106e+001
1.842557e+003,1.922510e+001
1.843522e+003,1.900110e+001
1.844486e+003,1.872223e+001
1.845450e+003,1.820923e+001
1.846414e+003,1.890363e+001
1.847379e+003,2.139148e+001
1.848343e+003,2.312610e+001
1.849307e+003,2.365088e+001
1.850271e+003,2.327814e+001
1.851236e+003,2.166571e+001
1.852200e+003,2.002118e+001
1.853164e+003,1.948560e+001
1.854128e+003,1.982239e+001
1.855093e+003,2.075391e+001
1.856057e+003,2.227277e+001
1.857021e+003,2.326831e+001
1.857985e+003,2.255164e+001
1.858949e+003,2.092261e+001
1.859914e+003,1.927393e+001
1.860878e+003,1.807031e+001
1.861842e+003,2.024951e+001
1.862806e+003,2.583179e+001
1.863771e+003,2.834418e+001
1.864735e+003,2.589893e+001
1.865699e+003,2.345386e+001
1.866663e+003,2.341266e+001
1.867627e+003,2.413324e+001
1.868592e+003,2.364874e+001
1.869556e+003,2.265540e+001
1.870520e+003,2.345300e+001
1.871484e+003,2.561139e+001
1.872449e+003,2.642737e+001
1.873413e+003,2.628967e+001
1.874377e+003,2.624573e+001
1.875341e+003,2.430621e+001
1.876306e+003,2.377411e+001
1.877270e+003,2.806812e+001
1.878234e+003,3.289203e+001
1.879198e+003,3.397620e+001
1.880163e+003,3.252155e+001
1.881127e+003,3.100122e+001
1.882091e+003,3.001190e+001
1.883055e+003,2.909564e+001
1.884020e+003,2.808093e+001
1.884984e+003,2.770776e+001
1.885948e+003,2.871790e+001
1.886912e+003,3.011926e+001
1.887876e+003,2.981335e+001
1.888841e+003,2.804492e+001
1.889805e+003,2.736072e+001
1.890769e+003,2.782111e+001
1.891733e+003,2.912207e+001
1.892698e+003,3.133289e+001
1.893662e+003,3.353033e+001
1.894626e+003,3.619525e+001
1.895590e+003,3.794348e+001
1.896554e+003,3.752435e+001
1.897519e+003,3.625830e+001
1.898483e+003,3.513934e+001
1.899447e+003,3.401373e+001
1.900411e+003,3.291272e+001
1.901376e+003,3.190619e+001
1.902340e+003,3.212628e+001
1.903304e+003,3.496844e+001
1.904268e+003,3.746954e+001
1.905233e+003,3.866217e+001
1.906197e+003,3.813159e+001
1.907161e+003,3.283850e+001
1.908125e+003,2.697815e+001
1.909090e+003,2.950940e+001
1.910054e+003,3.852637e+001
1.911018e+003,4.341870e+001
1.911982e+003,4.116010e+001
1.912947e+003,3.835785e+001
1.913911e+003,3.977124e+001
1.914875e+003,4.268561e+001
1.915839e+003,4.273596e+001
1.916803e+003,4.027942e+001
1.917768e+003,3.828546e+001
1.918732e+003,3.684576e+001
1.919696e+003,3.689404e+001
1.920660e+003,3.904919e+001
1.921625e+003,4.166406e+001
1.922589e+003,4.534674e+001
1.923553e+003,4.739545e+001
1.924517e+003,4.557813e+001
1.925481e+003,4.228369e+001
1.926446e+003,3.829401e+001
1.927410e+003,3.487018e+001
1.928374e+003,3.485541e+001
1.929338e+003,3.792407e+001
1.930303e+003,3.986926e+001
1.931267e+003,3.970105e+001
1.932231e+003,3.988727e+001
1.933195e+003,4.162299e+001
1.934160e+003,4.324280e+001
1.935124e+003,4.331146e+001
1.936088e+003,4.256592e+001
1.937052e+003,4.243030e+001
1.938017e+003,4.264612e+001
1.938981e+003,4.152399e+001
1.939945e+003,3.930750e+001
1.940909e+003,3.874652e+001
1.941874e+003,4.082703e+001
1.942838e+003,4.280951e+001
1.943802e+003,4.235876e+001
1.944766e+003,4.136749e+001
1.945730e+003,4.330707e+001
1.946695e+003,4.739899e+001
1.947659e+003,4.877808e+001
1.948623e+003,4.702496e+001
1.949587e+003,4.642426e+001
1.950552e+003,4.778387e+001
1.951516e+003,4.977698e+001
1.952480e+003,5.288959e+001
1.953444e+003,5.444269e+001
1.954408e+003,5.121460e+001
1.955373e+003,4.631244e+001
1.956337e+003,4.450366e+001
1.957301e+003,4.536542e+001
1.958265e+003,4.634399e+001
1.959230e+003,4.752460e+001
1.960194e+003,4.801044e+001
1.961158e+003,4.586133e+001
1.962122e+003,4.464734e+001
1.963087e+003,4.594086e+001
1.964051e+003,4.778119e+001
1.965015e+003,4.987250e+001
1.965979e+003,5.187079e+001
1.966944e+003,5.283899e+001
1.967908e+003,5.317188e+001
1.968872e+003,5.416150e+001
1.969836e+003,5.580322e+001
1.970801e+003,5.679846e+001
1.971765e+003,5.666064e+001
1.972729e+003,5.637872e+001
1.973693e+003,5.696558e+001
1.974657e+003,5.722357e+001
1.975622e+003,5.382861e+001
1.976586e+003,4.899286e+001
1.977550e+003,5.022748e+001
1.978514e+003,5.642694e+001
1.979479e+003,5.991052e+001
1.980443e+003,5.952338e+001
1.981407e+003,5.746301e+001
1.982371e+003,5.448962e+001
1.983335e+003,5.384503e+001
1.984300e+003,5.818335e+001
1.985264e+003,6.393860e+001
1.986228e+003,6.591754e+001
1.987192e+003,6.460297e+001
1.988157e+003,6.233691e+001
1.989121e+003,5.862817e+001
1.990085e+003,5.741467e+001
1.991049e+003,6.120624e+001
1.992014e+003,6.279797e+001
1.992978e+003,5.854596e+001
1.993942e+003,5.542560e+001
1.994906e+003,5.704175e+001
1.995871e+003,5.937958e+001
1.996835e+003,5.968402e+001
1.997799e+003,5.895819e+001
1.998763e+003,5.827295e+001
1.999728e+003,5.774811e+001
