5.003444e+002,3.426218e+002
5.013087e+002,3.435150e+002
5.022729e+002,3.407994e+002
5.032371e+002,3.346823e+002
5.042014e+002,3.297793e+002
5.051656e+002,3.263851e+002
5.061298e+002,3.242062e+002
5.070941e+002,3.230469e+002
5.080583e+002,3.232844e+002
5.090225e+002,3.220350e+002
5.099868e+002,3.186591e+002
5.109510e+002,3.141251e+002
5.119152e+002,3.089048e+002
5.128795e+002,3.032479e+002
5.138437e+002,2.980369e+002
5.148079e+002,2.930834e+002
5.157722e+002,2.893428e+002
5.167364e+002,2.891130e+002
5.177006e+002,2.926648e+002
5.186649e+002,2.974346e+002
5.196291e+002,2.941971e+002
5.205933e+002,2.841561e+002
5.215576e+002,2.774603e+002
5.225218e+002,2.769436e+002
5.234860e+002,2.804093e+002
5.244503e+002,2.807898e+002
5.254145e+002,2.760270e+002
5.263787e+002,2.727070e+002
5.273430e+002,2.723191e+002
5.283072e+002,2.733346e+002
5.292714e+002,2.729540e+002
5.302357e+002,2.686255e+002
5.311999e+002,2.631760e+002
5.321641e+002,2.584966e+002
5.331284e+002,2.552483e+002
5.340926e+002,2.542942e+002
5.350568e+002,2.560734e+002
5.360211e+002,2.583397e+002
5.369853e+002,2.554740e+002
5.379495e+002,2.492186e+002
5.389138e+002,2.433098e+002
5.398780e+002,2.400435e+002
5.408422e+002,2.393989e+002
5.418065e+002,2.390399e+002
5.427707e+002,2.388170e+002
5.437349e+002,2.386799e+002
5.446992e+002,2.390050e+002
5.456634e+002,2.394736e+002
5.466276e+002,2.385824e+002
5.475919e+002,2.347915e+002
5.485561e+002,2.307802e+002
5.495203e+002,2.266554e+002
5.504846e+002,2.225018e+002
5.514488e+002,2.186689e+002
5.524130e+002,2.161157e+002
5.533773e+002,2.143917e+002
5.543415e+002,2.114685e+002
5.553057e+002,2.076528e+002
5.562700e+002,2.040295e+002
5.572342e+002,2.016583e+002
5.581984e+002,2.003141e+002
5.591627e+002,1.994392e+002
5.601269e+002,2.003882e+002
5.610911e+002,2.013553e+002
5.620554e+002,2.009304e+002
5.630196e+002,1.986405e+002
5.639838e+002,1.954470e+002
5.649481e+002,1.908527e+002
5.659123e+002,1.863511e+002
5.668765e+002,1.827363e+002
5.678408e+002,1.806177e+002
5.688050e+002,1.804884e+002
5.697692e+002,1.834254e+002
5.707335e+002,1.854591e+002
5.716977e+002,1.832913e+002
5.726619e+002,1.782385e+002
5.736262e+002,1.738151e+002
5.745904e+002,1.743711e+002
5.755546e+002,1.802236e+002
5.765189e+002,1.821902e+002
5.774831e+002,1.784337e+002
5.784473e+002,1.732087e+002
5.794116e+002,1.712306e+002
5.803758e+002,1.744905e+002
5.813400e+002,1.757220e+002
5.823043e+002,1.720835e+002
5.832685e+002,1.674905e+002
5.842327e+002,1.640145e+002
5.851970e+002,1.624829e+002
5.861612e+002,1.625815e+002
5.871254e+002,1.645217e+002
5.880897e+002,1.663208e+002
5.890539e+002,1.670521e+002
5.900181e+002,1.665226e+002
5.909824e+002,1.649059e+002
5.919466e+002,1.624758e+002
5.929108e+002,1.593868e+002
5.938751e+002,1.564861e+002
5.948393e+002,1.538958e+002
5.958035e+002,1.515269e+002
5.967678e+002,1.490618e+002
5.977320e+002,1.460189e+002
5.986962e+002,1.457972e+002
5.996605e+002,1.483087e+002
6.006247e+002,1.511748e+002
6.015889e+002,1.541006e+002
6.025532e+002,1.569641e+002
6.035174e+002,1.576226e+002
6.044816e+002,1.514043e+002
6.054459e+002,1.451600e+002
6.064101e+002,1.423057e+002
6.073743e+002,1.426799e+002
6.083386e+002,1.441110e+002
6.093028e+002,1.442355e+002
6.102670e+002,1.434951e+002
6.112313e+002,1.423640e+002
6.121955e+002,1.406720e+002
6.131597e+002,1.397106e+002
6.141240e+002,1.413491e+002
6.150882e+002,1.469351e+002
6.160524e+002,1.490500e+002
6.170167e+002,1.462715e+002
6.179809e+002,1.433151e+002
6.189451e+002,1.425688e+002
6.199094e+002,1.437590e+002
6.208736e+002,1.438164e+002
6.218378e+002,1.404514e+002
6.228021e+002,1.379276e+002
6.237663e+002,1.381313e+002
6.247305e+002,1.406600e+002
6.256948e+002,1.441042e+002
6.266590e+002,1.474672e+002
6.276232e+002,1.489211e+002
6.285875e+002,1.454585e+002
6.295517e+002,1.383218e+002
6.305159e+002,1.324962e+002
6.314802e+002,1.329055e+002
6.324444e+002,1.405464e+002
6.334086e+002,1.412417e+002
6.343729e+002,1.314833e+002
6.353371e+002,1.228135e+002
6.363013e+002,1.202600e+002
6.372656e+002,1.229969e+002
6.382298e+002,1.253049e+002
6.391940e+002,1.254821e+002
6.401583e+002,1.243872e+002
6.411225e+002,1.224525e+002
6.420867e+002,1.204978e+002
6.430510e+002,1.189937e+002
6.440152e+002,1.176589e+002
6.449794e+002,1.161967e+002
6.459437e+002,1.156609e+002
6.469079e+002,1.157467e+002
6.478721e+002,1.158945e+002
6.488364e+002,1.159698e+002
6.498006e+002,1.162219e+002
6.507648e+002,1.135504e+002
6.517291e+002,1.040353e+002
6.526933e+002,9.746948e+001
6.536575e+002,9.745886e+001
6.546218e+002,1.022933e+002
6.555860e+002,1.065592e+002
6.565502e+002,1.090823e+002
6.575145e+002,1.107366e+002
6.584787e+002,1.118005e+002
6.594429e+002,1.124424e+002
6.604072e+002,1.128408e+002
6.613714e+002,1.130654e+002
6.623356e+002,1.126385e+002
6.632999e+002,1.097538e+002
6.642641e+002,1.056943e+002
6.652283e+002,1.034280e+002
6.661926e+002,1.045245e+002
6.671568e+002,1.079989e+002
6.681210e+002,1.086021e+002
6.690853e+002,1.036078e+002
6.700495e+002,9.976074e+001
6.710137e+002,9.721790e+001
6.719780e+002,9.620862e+001
6.729422e+002,9.732898e+001
6.739064e+002,1.015940e+002
6.748707e+002,1.045142e+002
6.758349e+002,1.052518e+002
6.767991e+002,1.043372e+002
6.777634e+002,1.016825e+002
6.787276e+002,9.798181e+001
6.796918e+002,9.551990e+001
6.806561e+002,9.753333e+001
6.816203e+002,1.007389e+002
6.825845e+002,1.017013e+002
6.835488e+002,1.002406e+002
6.845130e+002,9.830176e+001
6.854772e+002,9.895215e+001
6.864415e+002,1.037449e+002
6.874057e+002,1.072072e+002
6.883699e+002,1.078856e+002
6.893342e+002,1.067201e+002
6.902984e+002,1.040073e+002
6.912626e+002,9.991077e+001
6.922269e+002,9.711047e+001
6.931911e+002,9.896692e+001
6.941553e+002,1.010997e+002
6.951196e+002,1.003060e+002
6.960838e+002,9.738220e+001
6.970480e+002,9.574158e+001
6.980123e+002,9.908557e+001
6.989765e+002,1.047878e+002
6.999407e+002,1.078529e+002
7.009050e+002,1.084948e+002
7.018692e+002,1.073555e+002
7.028334e+002,1.048615e+002
7.037977e+002,1.010713e+002
7.047619e+002,9.836316e+001
7.057261e+002,9.771667e+001
7.066904e+002,9.791980e+001
7.076546e+002,9.959741e+001
7.086188e+002,1.018600e+002
7.095831e+002,1.020234e+002
7.105473e+002,9.689490e+001
7.115115e+002,9.384387e+001
7.124758e+002,9.599951e+001
7.134400e+002,1.000977e+002
7.144042e+002,1.036698e+002
7.153685e+002,1.057926e+002
7.163327e+002,1.069771e+002
7.172969e+002,1.073362e+002
7.182612e+002,1.073616e+002
7.192254e+002,1.072948e+002
7.201896e+002,1.067961e+002
7.211539e+002,1.052723e+002
7.221181e+002,1.021168e+002
7.230823e+002,9.678955e+001
7.240466e+002,9.315161e+001
7.250108e+002,9.183948e+001
7.259750e+002,9.248218e+001
7.269393e+002,9.450732e+001
7.279035e+002,9.718298e+001
7.288677e+002,9.922559e+001
7.298320e+002,1.035392e+002
7.307962e+002,1.066841e+002
7.317604e+002,1.055394e+002
7.327247e+002,1.016964e+002
7.336889e+002,9.880310e+001
7.346531e+002,9.952612e+001
7.356174e+002,1.009941e+002
7.365816e+002,1.001476e+002
7.375458e+002,9.894141e+001
7.385101e+002,9.948120e+001
7.394743e+002,1.030763e+002
7.404385e+002,1.089633e+002
7.414028e+002,1.115513e+002
7.423670e+002,1.040814e+002
7.433312e+002,9.848706e+001
7.442955e+002,9.885449e+001
7.452597e+002,1.024690e+002
7.462239e+002,1.043024e+002
7.471882e+002,1.020309e+002
7.481524e+002,1.003989e+002
7.491166e+002,1.007263e+002
7.500809e+002,1.016505e+002
7.510451e+002,1.030045e+002
7.520093e+002,1.044731e+002
7.529736e+002,1.053351e+002
7.539378e+002,1.049189e+002
7.549020e+002,1.041370e+002
7.558663e+002,1.023008e+002
7.568306e+002,9.906934e+001
7.577948e+002,9.718201e+001
7.587590e+002,1.002382e+002
7.597233e+002,1.093779e+002
7.606875e+002,1.124409e+002
7.616517e+002,1.049939e+002
7.626160e+002,9.911926e+001
7.635802e+002,1.004698e+002
7.645444e+002,1.070463e+002
7.655087e+002,1.116636e+002
7.664729e+002,1.097607e+002
7.674371e+002,1.076158e+002
7.684014e+002,1.098761e+002
7.693656e+002,1.138640e+002
7.703298e+002,1.163984e+002
7.712941e+002,1.159218e+002
7.722583e+002,1.135668e+002
7.732225e+002,1.109756e+002
7.741868e+002,1.081798e+002
7.751510e+002,1.078762e+002
7.761152e+002,1.114500e+002
7.770795e+002,1.168772e+002
7.780437e+002,1.207388e+002
7.790079e+002,1.226475e+002
7.799722e+002,1.219803e+002
7.809364e+002,1.169440e+002
7.819006e+002,1.120500e+002
7.828649e+002,1.101281e+002
7.838291e+002,1.114087e+002
7.847933e+002,1.140167e+002
7.857576e+002,1.171929e+002
7.867218e+002,1.188795e+002
7.876860e+002,1.184142e+002
7.886503e+002,1.167065e+002
7.896145e+002,1.145265e+002
7.905787e+002,1.122924e+002
7.915430e+002,1.101310e+002
7.925072e+002,1.085464e+002
7.934714e+002,1.058600e+002
7.944357e+002,1.048159e+002
7.953999e+002,1.092542e+002
7.963641e+002,1.164064e+002
7.973284e+002,1.190653e+002
7.982926e+002,1.140801e+002
7.992568e+002,1.110513e+002
8.002211e+002,1.111174e+002
8.011853e+002,1.117250e+002
8.021495e+002,1.128916e+002
8.031138e+002,1.150917e+002
8.040780e+002,1.178207e+002
8.050422e+002,1.188595e+002
8.060065e+002,1.186705e+002
8.069707e+002,1.199944e+002
8.079349e+002,1.223036e+002
8.088992e+002,1.231798e+002
8.098634e+002,1.206812e+002
8.108276e+002,1.155179e+002
8.117919e+002,1.130062e+002
8.127561e+002,1.132369e+002
8.137203e+002,1.126189e+002
8.146846e+002,1.111359e+002
8.156488e+002,1.098188e+002
8.166130e+002,1.095460e+002
8.175773e+002,1.100690e+002
8.185415e+002,1.119755e+002
8.195057e+002,1.166476e+002
8.204700e+002,1.206399e+002
8.214342e+002,1.212369e+002
8.223984e+002,1.183820e+002
8.233627e+002,1.142316e+002
8.243269e+002,1.106649e+002
8.252911e+002,1.085929e+002
8.262554e+002,1.092318e+002
8.272196e+002,1.123806e+002
8.281838e+002,1.161348e+002
8.291481e+002,1.192897e+002
8.301123e+002,1.217438e+002
8.310765e+002,1.218287e+002
8.320408e+002,1.158308e+002
8.330050e+002,1.113945e+002
8.339692e+002,1.106969e+002
8.349335e+002,1.117628e+002
8.358977e+002,1.117953e+002
8.368619e+002,1.099772e+002
8.378262e+002,1.095212e+002
8.387904e+002,1.139034e+002
8.397546e+002,1.185408e+002
8.407189e+002,1.198239e+002
8.416831e+002,1.179930e+002
8.426473e+002,1.160461e+002
8.436116e+002,1.173513e+002
8.445758e+002,1.218068e+002
8.455400e+002,1.258389e+002
8.465043e+002,1.286646e+002
8.474685e+002,1.289929e+002
8.484327e+002,1.261540e+002
8.493970e+002,1.216072e+002
8.503612e+002,1.191439e+002
8.513254e+002,1.182720e+002
8.522897e+002,1.194109e+002
8.532539e+002,1.236632e+002
8.542181e+002,1.286916e+002
8.551824e+002,1.331655e+002
8.561466e+002,1.370715e+002
8.571108e+002,1.408656e+002
8.580751e+002,1.428730e+002
8.590393e+002,1.435148e+002
8.600035e+002,1.459802e+002
8.609678e+002,1.504849e+002
8.619320e+002,1.540529e+002
8.628962e+002,1.532424e+002
8.638605e+002,1.480385e+002
8.648247e+002,1.493432e+002
8.657889e+002,1.633276e+002
8.667532e+002,1.732413e+002
8.677174e+002,1.736934e+002
8.686816e+002,1.689008e+002
8.696459e+002,1.656033e+002
8.706101e+002,1.653578e+002
8.715743e+002,1.671309e+002
8.725386e+002,1.719478e+002
8.735028e+002,1.768428e+002
8.744670e+002,1.785169e+002
8.754313e+002,1.771797e+002
8.763955e+002,1.764955e+002
8.773597e+002,1.810656e+002
8.783240e+002,1.892365e+002
8.792882e+002,1.910205e+002
8.802524e+002,1.864415e+002
8.812167e+002,1.823483e+002
8.821809e+002,1.826875e+002
8.831451e+002,1.866002e+002
8.841094e+002,1.901373e+002
8.850736e+002,1.949584e+002
8.860378e+002,1.980483e+002
8.870021e+002,1.964866e+002
8.879663e+002,1.946508e+002
8.889305e+002,1.959513e+002
8.898948e+002,2.005421e+002
8.908590e+002,2.056339e+002
8.918232e+002,2.105972e+002
8.927875e+002,2.148476e+002
8.937517e+002,2.161362e+002
8.947159e+002,2.156162e+002
8.956802e+002,2.163688e+002
8.966444e+002,2.201729e+002
8.976086e+002,2.254767e+002
8.985729e+002,2.279504e+002
8.995371e+002,2.282731e+002
9.005013e+002,2.277961e+002
9.014656e+002,2.258323e+002
9.024298e+002,2.244964e+002
9.033940e+002,2.257380e+002
9.043583e+002,2.292151e+002
9.053225e+002,2.324167e+002
9.062867e+002,2.343085e+002
9.072510e+002,2.352002e+002
9.082152e+002,2.357072e+002
9.091794e+002,2.364859e+002
9.101437e+002,2.376687e+002
9.111079e+002,2.390042e+002
9.120721e+002,2.406622e+002
9.130364e+002,2.450547e+002
9.140006e+002,2.502742e+002
9.149648e+002,2.505591e+002
9.159291e+002,2.445200e+002
9.168933e+002,2.367567e+002
9.178575e+002,2.332417e+002
9.188218e+002,2.343697e+002
9.197860e+002,2.351711e+002
9.207502e+002,2.363756e+002
9.217145e+002,2.358600e+002
9.226787e+002,2.328127e+002
9.236429e+002,2.286719e+002
9.246072e+002,2.253949e+002
9.255714e+002,2.233705e+002
9.265356e+002,2.215214e+002
9.274999e+002,2.187217e+002
9.284641e+002,2.154523e+002
9.294283e+002,2.126711e+002
9.303926e+002,2.109712e+002
9.313568e+002,2.102869e+002
9.323210e+002,2.101102e+002
9.332853e+002,2.101893e+002
9.342495e+002,2.079861e+002
9.352137e+002,2.024002e+002
9.361780e+002,1.967457e+002
9.371422e+002,1.919510e+002
9.381064e+002,1.888238e+002
9.390707e+002,1.886252e+002
9.400349e+002,1.919954e+002
9.409991e+002,1.944495e+002
9.419634e+002,1.931245e+002
9.429276e+002,1.909606e+002
9.438918e+002,1.905355e+002
9.448561e+002,1.918464e+002
9.458203e+002,1.929336e+002
9.467845e+002,1.918622e+002
9.477488e+002,1.894191e+002
9.487130e+002,1.885421e+002
9.496772e+002,1.890323e+002
9.506415e+002,1.896355e+002
9.516057e+002,1.897778e+002
9.525699e+002,1.894873e+002
9.535342e+002,1.887363e+002
9.544984e+002,1.865316e+002
9.554626e+002,1.855034e+002
9.564269e+002,1.896528e+002
9.573911e+002,1.929858e+002
9.583553e+002,1.903297e+002
9.593196e+002,1.837372e+002
9.602838e+002,1.800015e+002
9.612480e+002,1.837145e+002
9.622123e+002,1.894725e+002
9.631765e+002,1.889735e+002
9.641407e+002,1.849053e+002
9.651050e+002,1.816232e+002
9.660692e+002,1.803688e+002
9.670334e+002,1.799501e+002
9.679977e+002,1.788278e+002
9.689619e+002,1.775283e+002
9.699261e+002,1.777606e+002
9.708904e+002,1.758483e+002
9.718546e+002,1.779739e+002
9.728188e+002,1.876063e+002
9.737831e+002,2.017650e+002
9.747473e+002,2.158363e+002
9.757115e+002,2.293765e+002
9.766758e+002,2.406132e+002
9.776400e+002,2.485800e+002
9.786042e+002,2.541733e+002
9.795685e+002,2.588113e+002
9.805327e+002,2.609257e+002
9.814969e+002,2.561289e+002
9.824612e+002,2.407181e+002
9.834254e+002,2.177597e+002
9.843896e+002,2.002445e+002
9.853539e+002,1.864713e+002
9.863181e+002,1.758989e+002
9.872823e+002,1.690662e+002
9.882466e+002,1.645035e+002
9.892108e+002,1.611937e+002
9.901750e+002,1.602083e+002
9.911393e+002,1.605271e+002
9.921035e+002,1.591843e+002
9.930677e+002,1.586618e+002
9.940320e+002,1.616039e+002
9.949962e+002,1.672266e+002
9.959604e+002,1.738469e+002
9.969247e+002,1.803029e+002
9.978889e+002,1.860513e+002
9.988531e+002,1.895393e+002
9.998174e+002,1.903483e+002
1.000782e+003,1.910830e+002
1.001746e+003,1.927731e+002
1.002710e+003,1.948271e+002
1.003674e+003,1.963815e+002
1.004639e+003,1.974045e+002
1.005603e+003,1.988730e+002
1.006567e+003,2.011209e+002
1.007531e+003,2.026307e+002
1.008495e+003,2.039219e+002
1.009460e+003,2.041415e+002
1.010424e+003,2.019026e+002
1.011388e+003,1.975228e+002
1.012352e+003,1.937582e+002
1.013317e+003,1.929065e+002
1.014281e+003,1.932092e+002
1.015245e+003,1.924553e+002
1.016209e+003,1.901099e+002
1.017174e+003,1.853544e+002
1.018138e+003,1.779497e+002
1.019102e+003,1.690173e+002
1.020066e+003,1.610085e+002
1.021031e+003,1.555443e+002
1.021995e+003,1.490433e+002
1.022959e+003,1.387928e+002
1.023923e+003,1.288547e+002
1.024887e+003,1.213875e+002
1.025852e+003,1.156660e+002
1.026816e+003,1.095220e+002
1.027780e+003,1.021503e+002
1.028744e+003,9.616669e+001
1.029709e+003,9.468970e+001
1.030673e+003,9.455005e+001
1.031637e+003,9.214325e+001
1.032601e+003,8.725134e+001
1.033566e+003,8.275598e+001
1.034530e+003,8.192755e+001
1.035494e+003,8.492224e+001
1.036458e+003,8.736316e+001
1.037422e+003,8.811102e+001
1.038387e+003,8.888068e+001
1.039351e+003,8.974463e+001
1.040315e+003,9.067334e+001
1.041279e+003,9.196649e+001
1.042244e+003,9.383936e+001
1.043208e+003,9.559631e+001
1.044172e+003,9.675665e+001
1.045136e+003,9.689063e+001
1.046101e+003,9.526636e+001
1.047065e+003,9.314984e+001
1.048029e+003,9.260980e+001
1.048993e+003,9.412488e+001
1.049958e+003,9.559241e+001
1.050922e+003,9.360297e+001
1.051886e+003,8.839514e+001
1.052850e+003,8.767224e+001
1.053814e+003,9.354706e+001
1.054779e+003,9.863293e+001
1.055743e+003,9.759570e+001
1.056707e+003,9.300641e+001
1.057671e+003,9.256366e+001
1.058636e+003,9.898816e+001
1.059600e+003,1.029692e+002
1.060564e+003,9.991327e+001
1.061528e+003,9.607532e+001
1.062493e+003,9.450134e+001
1.063457e+003,9.428229e+001
1.064421e+003,9.292908e+001
1.065385e+003,8.918909e+001
1.066349e+003,8.485748e+001
1.067314e+003,8.363812e+001
1.068278e+003,8.557227e+001
1.069242e+003,8.733411e+001
1.070206e+003,8.845636e+001
1.071171e+003,8.984802e+001
1.072135e+003,9.236267e+001
1.073099e+003,9.549884e+001
1.074063e+003,9.718457e+001
1.075028e+003,9.685522e+001
1.075992e+003,9.623224e+001
1.076956e+003,9.564301e+001
1.077920e+003,9.435022e+001
1.078885e+003,9.175671e+001
1.079849e+003,8.864569e+001
1.080813e+003,8.670984e+001
1.081777e+003,8.709119e+001
1.082741e+003,8.904523e+001
1.083706e+003,9.121228e+001
1.084670e+003,9.249536e+001
1.085634e+003,9.030670e+001
1.086598e+003,8.300909e+001
1.087563e+003,7.528760e+001
1.088527e+003,7.448596e+001
1.089491e+003,8.213251e+001
1.090455e+003,8.695996e+001
1.091420e+003,8.475623e+001
1.092384e+003,8.267108e+001
1.093348e+003,8.203040e+001
1.094312e+003,8.162073e+001
1.095276e+003,7.978601e+001
1.096241e+003,7.714032e+001
1.097205e+003,7.721960e+001
1.098169e+003,8.353723e+001
1.099133e+003,9.137286e+001
1.100098e+003,9.169434e+001
1.101062e+003,8.682300e+001
1.102026e+003,8.299078e+001
1.102990e+003,8.243359e+001
1.103955e+003,8.384436e+001
1.104919e+003,8.546118e+001
1.105883e+003,8.729755e+001
1.106847e+003,8.752502e+001
1.107812e+003,8.390222e+001
1.108776e+003,8.096344e+001
1.109740e+003,7.893689e+001
1.110704e+003,7.850293e+001
1.111668e+003,8.150397e+001
1.112633e+003,8.807898e+001
1.113597e+003,9.488977e+001
1.114561e+003,9.871082e+001
1.115525e+003,1.001422e+002
1.116490e+003,1.019694e+002
1.117454e+003,1.042736e+002
1.118418e+003,1.062321e+002
1.119382e+003,1.078264e+002
1.120347e+003,1.088639e+002
1.121311e+003,1.075970e+002
1.122275e+003,1.016404e+002
1.123239e+003,9.901941e+001
1.124203e+003,1.046844e+002
1.125168e+003,1.097033e+002
1.126132e+003,1.110604e+002
1.127096e+003,1.117863e+002
1.128060e+003,1.157986e+002
1.129025e+003,1.231550e+002
1.129989e+003,1.293202e+002
1.130953e+003,1.306464e+002
1.131917e+003,1.292147e+002
1.132882e+003,1.283802e+002
1.133846e+003,1.283457e+002
1.134810e+003,1.290390e+002
1.135774e+003,1.304480e+002
1.136739e+003,1.333099e+002
1.137703e+003,1.385416e+002
1.138667e+003,1.458964e+002
1.139631e+003,1.553994e+002
1.140595e+003,1.702665e+002
1.141560e+003,1.829016e+002
1.142524e+003,1.883268e+002
1.143488e+003,1.943513e+002
1.144452e+003,2.089521e+002
1.145417e+003,2.325708e+002
1.146381e+003,2.589020e+002
1.147345e+003,2.843516e+002
1.148309e+003,3.095078e+002
1.149274e+003,3.363341e+002
1.150238e+003,3.646514e+002
1.151202e+003,3.940707e+002
1.152166e+003,4.248041e+002
1.153130e+003,4.552878e+002
1.154095e+003,4.836407e+002
1.155059e+003,5.087335e+002
1.156023e+003,5.241962e+002
1.156987e+003,5.298074e+002
1.157952e+003,5.275719e+002
1.158916e+003,5.176759e+002
1.159880e+003,5.021335e+002
1.160844e+003,4.793471e+002
1.161809e+003,4.500186e+002
1.162773e+003,4.187766e+002
1.163737e+003,3.881512e+002
1.164701e+003,3.580378e+002
1.165666e+003,3.259745e+002
1.166630e+003,2.949044e+002
1.167594e+003,2.703944e+002
1.168558e+003,2.532672e+002
1.169522e+003,2.403843e+002
1.170487e+003,2.290245e+002
1.171451e+003,2.194619e+002
1.172415e+003,2.127256e+002
1.173379e+003,2.088677e+002
1.174344e+003,2.070432e+002
1.175308e+003,2.091152e+002
1.176272e+003,2.115704e+002
1.177236e+003,2.143585e+002
1.178201e+003,2.157545e+002
1.179165e+003,2.116788e+002
1.180129e+003,1.999647e+002
1.181093e+003,1.861547e+002
1.182057e+003,1.767238e+002
1.183022e+003,1.708438e+002
1.183986e+003,1.661775e+002
1.184950e+003,1.626313e+002
1.185914e+003,1.594957e+002
1.186879e+003,1.560841e+002
1.187843e+003,1.534631e+002
1.188807e+003,1.543619e+002
1.189771e+003,1.597593e+002
1.190736e+003,1.630945e+002
1.191700e+003,1.627645e+002
1.192664e+003,1.615257e+002
1.193628e+003,1.601219e+002
1.194593e+003,1.588523e+002
1.195557e+003,1.584261e+002
1.196521e+003,1.584233e+002
1.197485e+003,1.564060e+002
1.198449e+003,1.501002e+002
1.199414e+003,1.412642e+002
1.200378e+003,1.335310e+002
1.201342e+003,1.266952e+002
1.202306e+003,1.204992e+002
1.203271e+003,1.144429e+002
1.204235e+003,1.092670e+002
1.205199e+003,1.071861e+002
1.206163e+003,1.081133e+002
1.207128e+003,1.050542e+002
1.208092e+003,9.439240e+001
1.209056e+003,8.538080e+001
1.210020e+003,8.178699e+001
1.210984e+003,7.902515e+001
1.211949e+003,7.382294e+001
1.212913e+003,6.630701e+001
1.213877e+003,5.825537e+001
1.214841e+003,5.081085e+001
1.215806e+003,4.408105e+001
1.216770e+003,3.778522e+001
1.217734e+003,3.189069e+001
1.218698e+003,2.626385e+001
1.219663e+003,2.017218e+001
1.220627e+003,1.527045e+001
1.221591e+003,1.372906e+001
1.222555e+003,1.370886e+001
1.223520e+003,1.089771e+001
1.224484e+003,4.736267e+000
1.225448e+003,6.934814e-001
1.226412e+003,1.546204e+000
1.227376e+003,3.463806e+000
1.228341e+003,5.860413e+000
1.229305e+003,7.477783e+000
1.230269e+003,6.424377e+000
1.231233e+003,2.842041e+000
1.232198e+003,-7.131348e-001
1.233162e+003,-1.519592e+000
1.234126e+003,2.271729e-001
1.235090e+003,1.507568e+000
1.236055e+003,1.361145e+000
1.237019e+003,8.406372e-001
1.237983e+003,-4.644775e-001
1.238947e+003,-1.841431e+000
1.239911e+003,-2.458496e+000
1.240876e+003,-2.262024e+000
1.241840e+003,-1.615356e+000
1.242804e+003,-3.845825e-001
1.243768e+003,7.086792e-001
1.244733e+003,9.165649e-001
1.245697e+003,7.716675e-001
1.246661e+003,7.324219e-004
1.247625e+003,-1.126526e+000
1.248590e+003,-1.544556e+000
1.249554e+003,-4.539795e-001
1.250518e+003,1.729309e+000
1.251482e+003,3.619141e+000
1.252447e+003,4.451477e+000
1.253411e+003,4.986084e+000
1.254375e+003,5.534363e+000
1.255339e+003,7.109314e+000
1.256303e+003,1.014441e+001
1.257268e+003,1.426587e+001
1.258232e+003,1.988586e+001
1.259196e+003,2.571796e+001
1.260160e+003,2.790424e+001
1.261125e+003,2.425140e+001
1.262089e+003,2.165509e+001
1.263053e+003,2.931012e+001
1.264017e+003,3.995410e+001
1.264982e+003,4.505127e+001
1.265946e+003,4.488177e+001
1.266910e+003,4.406299e+001
1.267874e+003,4.518341e+001
1.268839e+003,4.684540e+001
1.269803e+003,4.626154e+001
1.270767e+003,4.312976e+001
1.271731e+003,4.038245e+001
1.272695e+003,3.852002e+001
1.273660e+003,3.664044e+001
1.274624e+003,3.435938e+001
1.275588e+003,3.102893e+001
1.276552e+003,2.538129e+001
1.277517e+003,1.885077e+001
1.278481e+003,1.550464e+001
1.279445e+003,1.768158e+001
1.280409e+003,2.159052e+001
1.281374e+003,2.140369e+001
1.282338e+003,1.808380e+001
1.283302e+003,1.510944e+001
1.284266e+003,1.238397e+001
1.285230e+003,1.047339e+001
1.286195e+003,1.030634e+001
1.287159e+003,1.083771e+001
1.288123e+003,1.038098e+001
1.289087e+003,9.395752e+000
1.290052e+003,7.617065e+000
1.291016e+003,3.539978e+000
1.291980e+003,-5.195923e-001
1.292944e+003,-4.330566e+000
1.293909e+003,-7.686768e+000
1.294873e+003,-1.017847e+001
1.295837e+003,-1.127423e+001
1.296801e+003,-1.006250e+001
1.297766e+003,-6.152954e+000
1.298730e+003,-1.289368e+000
1.299694e+003,4.163208e-001
1.300658e+003,-2.245850e+000
1.301622e+003,-3.879761e+000
1.302587e+003,-4.052734e+000
1.303551e+003,-3.058594e+000
1.304515e+003,5.698242e-001
1.305479e+003,4.776062e+000
1.306444e+003,6.293701e+000
1.307408e+003,4.800842e+000
1.308372e+003,2.787964e+000
1.309336e+003,6.663208e-001
1.310301e+003,-1.203613e-001
1.311265e+003,4.744690e+000
1.312229e+003,1.035248e+001
1.313193e+003,8.904968e+000
1.314157e+003,7.043457e-001
1.315122e+003,-6.941833e+000
1.316086e+003,-9.206726e+000
1.317050e+003,-8.152405e+000
1.318014e+003,-7.844604e+000
1.318979e+003,-7.770630e+000
1.319943e+003,-6.917725e+000
1.320907e+003,-4.616577e+000
1.321871e+003,-2.443115e+000
1.322836e+003,-1.561523e+000
1.323800e+003,-1.089478e+000
1.324764e+003,8.489990e-002
1.325728e+003,1.708191e+000
1.326693e+003,2.709595e+000
1.327657e+003,2.545227e+000
1.328621e+003,1.166748e+000
1.329585e+003,-1.912476e+000
1.330549e+003,-4.860901e+000
1.331514e+003,-4.015259e+000
1.332478e+003,-2.705688e-001
1.333442e+003,2.708923e+000
1.334406e+003,4.086853e+000
1.335371e+003,4.286987e+000
1.336335e+003,2.823425e+000
1.337299e+003,7.104492e-002
1.338263e+003,1.549683e-001
1.339228e+003,5.488220e+000
1.340192e+003,1.023193e+001
1.341156e+003,1.137085e+001
1.342120e+003,1.116644e+001
1.343084e+003,1.069769e+001
1.344049e+003,9.857300e+000
1.345013e+003,8.614563e+000
1.345977e+003,7.393555e+000
1.346941e+003,6.621887e+000
1.347906e+003,6.250305e+000
1.348870e+003,6.005920e+000
1.349834e+003,5.597900e+000
1.350798e+003,3.988831e+000
1.351763e+003,3.174683e+000
1.352727e+003,4.036377e+000
1.353691e+003,4.968506e+000
1.354655e+003,4.840698e+000
1.355620e+003,4.389954e+000
1.356584e+003,5.260132e+000
1.357548e+003,7.839111e+000
1.358512e+003,1.038965e+001
1.359476e+003,1.144495e+001
1.360441e+003,1.106195e+001
1.361405e+003,9.905701e+000
1.362369e+003,8.261963e+000
1.363333e+003,6.014954e+000
1.364298e+003,3.088257e+000
1.365262e+003,1.370422e+000
1.366226e+003,3.073730e+000
1.367190e+003,6.778015e+000
1.368155e+003,8.119385e+000
1.369119e+003,6.680359e+000
1.370083e+003,5.558960e+000
1.371047e+003,6.031677e+000
1.372011e+003,6.360779e+000
1.372976e+003,4.997986e+000
1.373940e+003,3.102661e+000
1.374904e+003,1.470886e+000
1.375868e+003,9.122925e-001
1.376833e+003,3.155457e+000
1.377797e+003,8.881226e+000
1.378761e+003,1.484406e+001
1.379725e+003,1.519165e+001
1.380690e+003,9.628601e+000
1.381654e+003,8.564270e+000
1.382618e+003,1.527960e+001
1.383582e+003,2.074438e+001
1.384547e+003,2.300201e+001
1.385511e+003,2.403314e+001
1.386475e+003,2.527789e+001
1.387439e+003,2.625854e+001
1.388403e+003,2.540704e+001
1.389368e+003,2.220349e+001
1.390332e+003,1.907977e+001
1.391296e+003,1.828796e+001
1.392260e+003,1.874420e+001
1.393225e+003,1.800366e+001
1.394189e+003,1.617932e+001
1.395153e+003,1.485602e+001
1.396117e+003,1.477661e+001
1.397082e+003,1.499255e+001
1.398046e+003,1.448724e+001
1.399010e+003,1.354578e+001
1.399974e+003,1.279590e+001
1.400938e+003,1.149097e+001
1.401903e+003,1.064874e+001
1.402867e+003,1.283063e+001
1.403831e+003,1.579382e+001
1.404795e+003,1.862714e+001
1.405760e+003,2.031519e+001
1.406724e+003,1.857068e+001
1.407688e+003,1.410663e+001
1.408652e+003,1.097009e+001
1.409617e+003,1.208148e+001
1.410581e+003,1.544006e+001
1.411545e+003,1.639282e+001
1.412509e+003,1.472119e+001
1.413474e+003,1.511829e+001
1.414438e+003,1.866809e+001
1.415402e+003,1.989453e+001
1.416366e+003,1.809692e+001
1.417330e+003,1.580835e+001
1.418295e+003,1.369049e+001
1.419259e+003,1.241663e+001
1.420223e+003,1.327881e+001
1.421187e+003,1.615472e+001
1.422152e+003,1.879919e+001
1.423116e+003,2.002631e+001
1.424080e+003,2.131262e+001
1.425044e+003,2.436096e+001
1.426009e+003,2.763373e+001
1.426973e+003,2.932861e+001
1.427937e+003,2.956366e+001
1.428901e+003,2.903778e+001
1.429865e+003,2.775574e+001
1.430830e+003,2.634204e+001
1.431794e+003,2.522961e+001
1.432758e+003,2.437213e+001
1.433722e+003,2.616071e+001
1.434687e+003,3.314673e+001
1.435651e+003,4.022711e+001
1.436615e+003,4.355518e+001
1.437579e+003,4.442847e+001
1.438544e+003,4.350610e+001
1.439508e+003,4.204230e+001
1.440472e+003,4.200153e+001
1.441436e+003,4.398676e+001
1.442401e+003,4.630188e+001
1.443365e+003,4.691431e+001
1.444329e+003,4.565375e+001
1.445293e+003,4.312451e+001
1.446257e+003,3.810583e+001
1.447222e+003,3.642035e+001
1.448186e+003,4.059570e+001
1.449150e+003,4.385315e+001
1.450114e+003,4.477258e+001
1.451079e+003,4.368231e+001
1.452043e+003,3.993738e+001
1.453007e+003,3.512012e+001
1.453971e+003,3.229120e+001
1.454936e+003,3.253516e+001
1.455900e+003,3.454047e+001
1.456864e+003,3.749084e+001
1.457828e+003,4.116046e+001
1.458792e+003,4.284631e+001
1.459757e+003,4.184607e+001
1.460721e+003,3.974347e+001
1.461685e+003,3.534717e+001
1.462649e+003,3.175635e+001
1.463614e+003,3.146179e+001
1.464578e+003,3.297723e+001
1.465542e+003,3.446027e+001
1.466506e+003,3.527960e+001
1.467471e+003,3.312238e+001
1.468435e+003,2.641772e+001
1.469399e+003,2.107574e+001
1.470363e+003,2.244543e+001
1.471328e+003,2.667139e+001
1.472292e+003,2.967261e+001
1.473256e+003,3.141925e+001
1.474220e+003,3.331561e+001
1.475184e+003,3.655194e+001
1.476149e+003,4.024219e+001
1.477113e+003,4.324158e+001
1.478077e+003,4.497284e+001
1.479041e+003,4.383093e+001
1.480006e+003,3.910272e+001
1.480970e+003,3.800525e+001
1.481934e+003,4.418188e+001
1.482898e+003,4.998956e+001
1.483863e+003,5.242389e+001
1.484827e+003,5.293365e+001
1.485791e+003,5.221692e+001
1.486755e+003,5.139130e+001
1.487719e+003,5.180322e+001
1.488684e+003,5.380951e+001
1.489648e+003,5.732935e+001
1.490612e+003,6.318164e+001
1.491576e+003,7.127795e+001
1.492541e+003,7.663037e+001
1.493505e+003,7.561072e+001
1.494469e+003,7.848419e+001
1.495433e+003,8.795935e+001
1.496398e+003,9.619775e+001
1.497362e+003,1.005538e+002
1.498326e+003,1.041868e+002
1.499290e+003,1.092247e+002
1.500255e+003,1.161749e+002
1.501219e+003,1.249835e+002
1.502183e+003,1.354727e+002
1.503147e+003,1.475303e+002
1.504111e+003,1.613939e+002
1.505076e+003,1.769161e+002
1.506040e+003,1.926282e+002
1.507004e+003,2.074308e+002
1.507968e+003,2.260513e+002
1.508933e+003,2.491736e+002
1.509897e+003,2.755066e+002
1.510861e+003,3.063375e+002
1.511825e+003,3.405238e+002
1.512790e+003,3.760320e+002
1.513754e+003,4.123381e+002
1.514718e+003,4.510423e+002
1.515682e+003,4.924897e+002
1.516646e+003,5.336058e+002
1.517611e+003,5.727747e+002
1.518575e+003,6.099056e+002
1.519539e+003,6.450786e+002
1.520503e+003,6.780458e+002
1.521468e+003,7.053707e+002
1.522432e+003,7.264120e+002
1.523396e+003,7.378710e+002
1.524360e+003,7.351714e+002
1.525325e+003,7.234158e+002
1.526289e+003,7.106967e+002
1.527253e+003,6.965200e+002
1.528217e+003,6.748010e+002
1.529182e+003,6.443147e+002
1.530146e+003,6.096714e+002
1.531110e+003,5.727003e+002
1.532074e+003,5.311223e+002
1.533039e+003,4.814133e+002
1.534003e+003,4.260746e+002
1.534967e+003,3.698259e+002
1.535931e+003,3.150117e+002
1.536896e+003,2.661246e+002
1.537860e+003,2.256243e+002
1.538824e+003,1.929910e+002
1.539788e+003,1.683436e+002
1.540752e+003,1.506375e+002
1.541717e+003,1.336702e+002
1.542681e+003,1.170226e+002
1.543645e+003,1.039848e+002
1.544609e+003,9.811328e+001
1.545573e+003,9.382983e+001
1.546538e+003,8.609680e+001
1.547502e+003,7.907764e+001
1.548466e+003,8.023163e+001
1.549430e+003,8.827893e+001
1.550395e+003,9.471320e+001
1.551359e+003,9.488153e+001
1.552323e+003,9.199329e+001
1.553287e+003,9.086444e+001
1.554252e+003,9.080255e+001
1.555216e+003,8.604633e+001
1.556180e+003,7.349097e+001
1.557144e+003,6.574854e+001
1.558109e+003,6.939258e+001
1.559073e+003,7.117212e+001
1.560037e+003,6.473938e+001
1.561001e+003,5.643933e+001
1.561966e+003,5.198254e+001
1.562930e+003,5.146033e+001
1.563894e+003,5.243579e+001
1.564858e+003,5.348840e+001
1.565823e+003,5.485956e+001
1.566787e+003,5.717102e+001
1.567751e+003,5.954462e+001
1.568715e+003,5.880219e+001
1.569679e+003,5.391089e+001
1.570644e+003,5.251447e+001
1.571608e+003,5.774799e+001
1.572572e+003,6.105347e+001
1.573536e+003,6.099585e+001
1.574500e+003,6.012189e+001
1.575465e+003,5.886835e+001
1.576429e+003,5.807483e+001
1.577393e+003,5.881891e+001
1.578357e+003,6.098499e+001
1.579322e+003,6.396783e+001
1.580286e+003,6.763885e+001
1.581250e+003,7.128467e+001
1.582214e+003,7.321912e+001
1.583179e+003,7.325385e+001
1.584143e+003,7.284552e+001
1.585107e+003,7.071222e+001
1.586071e+003,7.048810e+001
1.587036e+003,7.534460e+001
1.588000e+003,7.991217e+001
1.588964e+003,8.093018e+001
1.589928e+003,8.043597e+001
1.590893e+003,8.086627e+001
1.591857e+003,8.215881e+001
1.592821e+003,8.286194e+001
1.593785e+003,8.261017e+001
1.594750e+003,8.279218e+001
1.595714e+003,8.435632e+001
1.596678e+003,8.693909e+001
1.597642e+003,9.072906e+001
1.598606e+003,9.601563e+001
1.599571e+003,9.931049e+001
1.600535e+003,1.000334e+002
1.601499e+003,1.008043e+002
1.602463e+003,1.024534e+002
1.603427e+003,1.036702e+002
1.604392e+003,1.034481e+002
1.605356e+003,1.022917e+002
1.606320e+003,1.005122e+002
1.607284e+003,9.862299e+001
1.608249e+003,9.878925e+001
1.609213e+003,1.022308e+002
1.610177e+003,1.055378e+002
1.611141e+003,1.046815e+002
1.612106e+003,1.010906e+002
1.613070e+003,9.963074e+001
1.614034e+003,1.002547e+002
1.614998e+003,1.000718e+002
1.615963e+003,9.851294e+001
1.616927e+003,9.700842e+001
1.617891e+003,9.493085e+001
1.618855e+003,9.373425e+001
1.619820e+003,9.636066e+001
1.620784e+003,1.004100e+002
1.621748e+003,9.963531e+001
1.622712e+003,9.389026e+001
1.623677e+003,9.076813e+001
1.624641e+003,9.475854e+001
1.625605e+003,1.009329e+002
1.626569e+003,1.022528e+002
1.627533e+003,9.932483e+001
1.628498e+003,9.909912e+001
1.629462e+003,1.027807e+002
1.630426e+003,1.045118e+002
1.631390e+003,1.015380e+002
1.632354e+003,9.842902e+001
1.633319e+003,9.799408e+001
1.634283e+003,9.828271e+001
1.635247e+003,9.596027e+001
1.636211e+003,9.194135e+001
1.637176e+003,9.084540e+001
1.638140e+003,9.410516e+001
1.639104e+003,9.823962e+001
1.640068e+003,1.010581e+002
1.641033e+003,1.024014e+002
1.641997e+003,1.016071e+002
1.642961e+003,9.946478e+001
1.643925e+003,9.982684e+001
1.644890e+003,1.035319e+002
1.645854e+003,1.057698e+002
1.646818e+003,1.024183e+002
1.647782e+003,9.981171e+001
1.648747e+003,1.045438e+002
1.649711e+003,1.111221e+002
1.650675e+003,1.108123e+002
1.651639e+003,1.046732e+002
1.652604e+003,9.932733e+001
1.653568e+003,9.653912e+001
1.654532e+003,9.651807e+001
1.655496e+003,1.006127e+002
1.656460e+003,1.054910e+002
1.657425e+003,1.052227e+002
1.658389e+003,1.006336e+002
1.659353e+003,9.624316e+001
1.660317e+003,9.165106e+001
1.661281e+003,8.813733e+001
1.662246e+003,8.676849e+001
1.663210e+003,8.550616e+001
1.664174e+003,8.286597e+001
1.665138e+003,8.000806e+001
1.666103e+003,7.818799e+001
1.667067e+003,7.736951e+001
1.668031e+003,7.773212e+001
1.668995e+003,7.944177e+001
1.669960e+003,8.047260e+001
1.670924e+003,7.913196e+001
1.671888e+003,7.650092e+001
1.672852e+003,7.399652e+001
1.673817e+003,7.131622e+001
1.674781e+003,6.853174e+001
1.675745e+003,6.514307e+001
1.676709e+003,6.364520e+001
1.677674e+003,6.701569e+001
1.678638e+003,6.924994e+001
1.679602e+003,6.585693e+001
1.680566e+003,6.015179e+001
1.681531e+003,5.610297e+001
1.682495e+003,5.421637e+001
1.683459e+003,5.406689e+001
1.684423e+003,5.502930e+001
1.685387e+003,5.461072e+001
1.686352e+003,5.094757e+001
1.687316e+003,4.650598e+001
1.688280e+003,4.532068e+001
1.689244e+003,4.704175e+001
1.690208e+003,4.778314e+001
1.691173e+003,4.741504e+001
1.692137e+003,4.623859e+001
1.693101e+003,4.310248e+001
1.694065e+003,4.175244e+001
1.695030e+003,4.463269e+001
1.695994e+003,4.828064e+001
1.696958e+003,5.008368e+001
1.697922e+003,4.997021e+001
1.698887e+003,4.816724e+001
1.699851e+003,4.488275e+001
1.700815e+003,4.067444e+001
1.701779e+003,3.596399e+001
1.702744e+003,3.161725e+001
1.703708e+003,2.904999e+001
1.704672e+003,2.840564e+001
1.705636e+003,2.831311e+001
1.706601e+003,2.826660e+001
1.707565e+003,2.775897e+001
1.708529e+003,2.654810e+001
1.709493e+003,2.602576e+001
1.710458e+003,2.787830e+001
1.711422e+003,2.924445e+001
1.712386e+003,2.788953e+001
1.713350e+003,2.498358e+001
1.714314e+003,2.106512e+001
1.715279e+003,1.694037e+001
1.716243e+003,1.569055e+001
1.717207e+003,1.923480e+001
1.718171e+003,2.445984e+001
1.719135e+003,2.700433e+001
1.720100e+003,2.701941e+001
1.721064e+003,2.557129e+001
1.722028e+003,2.187488e+001
1.722992e+003,1.924023e+001
1.723957e+003,1.879865e+001
1.724921e+003,1.890564e+001
1.725885e+003,1.864886e+001
1.726849e+003,1.786957e+001
1.727814e+003,1.748645e+001
1.728778e+003,1.745392e+001
1.729742e+003,1.680469e+001
1.730706e+003,1.548004e+001
1.731671e+003,1.414026e+001
1.732635e+003,1.286542e+001
1.733599e+003,1.172913e+001
1.734563e+003,1.164783e+001
1.735528e+003,1.258405e+001
1.736492e+003,1.273944e+001
1.737456e+003,1.184937e+001
1.738420e+003,1.101520e+001
1.739385e+003,9.490417e+000
1.740349e+003,8.604370e+000
1.741313e+003,1.029272e+001
1.742277e+003,1.114197e+001
1.743241e+003,9.083069e+000
1.744206e+003,6.267639e+000
1.745170e+003,3.308350e+000
1.746134e+003,9.823608e-001
1.747098e+003,1.568909e+000
1.748063e+003,5.085571e+000
1.749027e+003,7.708008e+000
1.749991e+003,7.237061e+000
1.750955e+003,5.888245e+000
1.751919e+003,6.374146e+000
1.752884e+003,7.429138e+000
1.753848e+003,5.390747e+000
1.754812e+003,5.039673e-001
1.755776e+003,-1.828125e+000
1.756741e+003,2.776489e-001
1.757705e+003,2.397827e+000
1.758669e+003,1.911987e+000
1.759633e+003,2.161865e-001
1.760598e+003,-1.803711e+000
1.761562e+003,-3.765442e+000
1.762526e+003,-3.714905e+000
1.763490e+003,-1.482971e+000
1.764455e+003,-6.332397e-001
1.765419e+003,-2.677490e+000
1.766383e+003,-3.568176e+000
1.767347e+003,-6.525269e-001
1.768312e+003,2.544556e+000
1.769276e+003,2.491272e+000
1.770240e+003,2.703857e-001
1.771204e+003,-1.251343e+000
1.772168e+003,-1.454163e+000
1.773133e+003,-2.033569e+000
1.774097e+003,-3.752991e+000
1.775061e+003,-3.930481e+000
1.776025e+003,-6.402588e-002
1.776990e+003,4.330017e+000
1.777954e+003,3.068909e+000
1.778918e+003,-2.733154e+000
1.779882e+003,-5.165527e+000
1.780846e+003,-3.497559e+000
1.781811e+003,-2.625549e+000
1.782775e+003,-2.652527e+000
1.783739e+003,-2.379456e+000
1.784703e+003,-7.176514e-001
1.785668e+003,6.455688e-001
1.786632e+003,-8.673096e-001
1.787596e+003,-3.496277e+000
1.788560e+003,-3.597595e+000
1.789525e+003,-9.341431e-001
1.790489e+003,1.708130e+000
1.791453e+003,2.868591e+000
1.792417e+003,4.061035e+000
1.793382e+003,6.962280e+000
1.794346e+003,9.768066e+000
1.795310e+003,7.619385e+000
1.796274e+003,2.387695e-001
1.797239e+003,-3.003174e+000
1.798203e+003,-1.149292e-001
1.799167e+003,2.724426e+000
1.800131e+003,3.920227e+000
1.801095e+003,3.506348e+000
1.802060e+003,1.616943e+000
1.803024e+003,-2.896118e-001
1.803988e+003,-2.075989e+000
1.804952e+003,-3.412842e+000
1.805917e+003,-2.948975e+000
1.806881e+003,-8.432007e-001
1.807845e+003,4.907227e-001
1.808809e+003,-9.552002e-002
1.809773e+003,-2.770996e-002
1.810738e+003,4.584412e+000
1.811702e+003,1.005005e+001
1.812666e+003,8.893005e+000
1.813630e+003,3.043335e+000
1.814595e+003,2.853394e-001
1.815559e+003,1.349609e+000
1.816523e+003,2.580139e+000
1.817487e+003,2.989624e+000
1.818452e+003,2.285645e+000
1.819416e+003,-3.352661e-001
1.820380e+003,-2.988281e+000
1.821344e+003,-2.433716e+000
1.822309e+003,5.895996e-001
1.823273e+003,2.208313e+000
1.824237e+003,2.731873e+000
1.825201e+003,2.785889e+000
1.826166e+003,1.058899e+000
1.827130e+003,2.064819e-001
1.828094e+003,2.358704e+000
1.829058e+003,4.173645e+000
1.830022e+003,2.657715e+000
1.830987e+003,-4.322510e-001
1.831951e+003,-2.183411e+000
1.832915e+003,-2.631348e+000
1.833879e+003,-4.171082e+000
1.834844e+003,-7.378784e+000
1.835808e+003,-9.208130e+000
1.836772e+003,-6.958313e+000
1.837736e+003,-2.667419e+000
1.838700e+003,-5.910645e-001
1.839665e+003,-7.974854e-001
1.840629e+003,-5.776978e-001
1.841593e+003,2.771606e-001
1.842557e+003,1.488037e+000
1.843522e+003,4.081909e+000
1.844486e+003,5.195557e+000
1.845450e+003,2.352234e+000
1.846414e+003,-8.764648e-002
1.847379e+003,9.468384e-001
1.848343e+003,2.383057e+000
1.849307e+003,3.277588e-002
1.850271e+003,-4.622986e+000
1.851236e+003,-6.459656e+000
1.852200e+003,-4.021606e+000
1.853164e+003,-8.509521e-001
1.854128e+003,9.270630e-001
1.855093e+003,1.241333e+000
1.856057e+003,6.392822e-001
1.857021e+003,-6.159058e-001
1.857985e+003,-3.730347e+000
1.858949e+003,-7.686951e+000
1.859914e+003,-7.669861e+000
1.860878e+003,-2.943665e+000
1.861842e+003,7.789917e-001
1.862806e+003,3.295288e-001
1.863771e+003,-1.681458e+000
1.864735e+003,-2.692688e+000
1.865699e+003,-2.801270e+000
1.866663e+003,-1.497437e+000
1.867627e+003,2.010254e+000
1.868592e+003,4.005676e+000
1.869556e+003,1.294617e+000
1.870520e+003,-3.106689e-002
1.871484e+003,2.681396e+000
1.872449e+003,3.792297e+000
1.873413e+003,1.051208e+000
1.874377e+003,-1.237244e+000
1.875341e+003,-9.761963e-001
1.876306e+003,5.563354e-001
1.877270e+003,2.054260e+000
1.878234e+003,3.118042e+000
1.879198e+003,3.681213e+000
1.880163e+003,3.915894e+000
1.881127e+003,4.340942e+000
1.882091e+003,5.504272e+000
1.883055e+003,6.873169e+000
1.884020e+003,7.330872e+000
1.884984e+003,7.162048e+000
1.885948e+003,7.797241e+000
1.886912e+003,9.090271e+000
1.887876e+003,8.840393e+000
1.888841e+003,6.534729e+000
1.889805e+003,5.130615e+000
1.890769e+003,6.175720e+000
1.891733e+003,7.648254e+000
1.892698e+003,7.276978e+000
1.893662e+003,5.928223e+000
1.894626e+003,6.902649e+000
1.895590e+003,1.039276e+001
1.896554e+003,9.690796e+000
1.897519e+003,1.788086e+000
1.898483e+003,-1.460022e+000
1.899447e+003,3.963196e+000
1.900411e+003,9.016724e+000
1.901376e+003,1.127563e+001
1.902340e+003,1.177008e+001
1.903304e+003,9.949036e+000
1.904268e+003,7.623291e+000
1.905233e+003,7.780640e+000
1.906197e+003,9.864014e+000
1.907161e+003,1.062128e+001
1.908125e+003,9.290222e+000
1.909090e+003,8.768982e+000
1.910054e+003,1.093665e+001
1.911018e+003,1.375568e+001
1.911982e+003,1.504767e+001
1.912947e+003,1.547571e+001
1.913911e+003,1.588849e+001
1.914875e+003,1.630286e+001
1.915839e+003,1.775690e+001
1.916803e+003,2.019739e+001
1.917768e+003,2.037390e+001
1.918732e+003,1.698956e+001
1.919696e+003,1.361920e+001
1.920660e+003,1.241766e+001
1.921625e+003,1.329120e+001
1.922589e+003,1.632935e+001
1.923553e+003,2.060522e+001
1.924517e+003,2.362158e+001
1.925481e+003,2.593732e+001
1.926446e+003,2.598450e+001
1.927410e+003,2.014014e+001
1.928374e+003,1.730103e+001
1.929338e+003,2.270074e+001
1.930303e+003,2.665918e+001
1.931267e+003,2.299438e+001
1.932231e+003,1.766699e+001
1.933195e+003,1.562860e+001
1.934160e+003,1.603229e+001
1.935124e+003,1.699500e+001
1.936088e+003,1.765607e+001
1.937052e+003,1.747601e+001
1.938017e+003,1.666998e+001
1.938981e+003,1.604095e+001
1.939945e+003,1.550983e+001
1.940909e+003,1.564227e+001
1.941874e+003,1.933118e+001
1.942838e+003,2.418811e+001
1.943802e+003,2.123248e+001
1.944766e+003,1.199780e+001
1.945730e+003,9.559631e+000
1.946695e+003,1.606061e+001
1.947659e+003,2.153705e+001
1.948623e+003,2.155377e+001
1.949587e+003,1.947308e+001
1.950552e+003,1.814844e+001
1.951516e+003,1.797357e+001
1.952480e+003,1.950995e+001
1.953444e+003,2.227783e+001
1.954408e+003,2.185968e+001
1.955373e+003,1.523572e+001
1.956337e+003,1.225598e+001
1.957301e+003,1.694647e+001
1.958265e+003,2.070477e+001
1.959230e+003,2.218994e+001
1.960194e+003,2.251764e+001
1.961158e+003,2.030457e+001
1.962122e+003,1.765942e+001
1.963087e+003,1.704639e+001
1.964051e+003,1.819019e+001
1.965015e+003,2.008905e+001
1.965979e+003,2.259802e+001
1.966944e+003,2.564734e+001
1.967908e+003,2.904254e+001
1.968872e+003,3.115887e+001
1.969836e+003,3.074353e+001
1.970801e+003,2.884003e+001
1.971765e+003,2.504834e+001
1.972729e+003,2.173541e+001
1.973693e+003,2.398431e+001
1.974657e+003,2.970477e+001
1.975622e+003,3.200433e+001
1.976586e+003,3.001691e+001
1.977550e+003,2.820789e+001
1.978514e+003,2.864703e+001
1.979479e+003,2.924341e+001
1.980443e+003,2.805688e+001
1.981407e+003,2.649921e+001
1.982371e+003,2.748480e+001
1.983335e+003,3.062799e+001
1.984300e+003,3.125555e+001
1.985264e+003,2.847321e+001
1.986228e+003,2.740570e+001
1.987192e+003,2.891699e+001
1.988157e+003,2.984467e+001
1.989121e+003,2.940723e+001
1.990085e+003,2.875037e+001
1.991049e+003,2.795770e+001
1.992014e+003,2.808801e+001
1.992978e+003,3.116455e+001
1.993942e+003,3.531079e+001
1.994906e+003,3.641101e+001
1.995871e+003,3.452069e+001
1.996835e+003,3.236737e+001
1.997799e+003,2.964325e+001
1.998763e+003,2.898584e+001
1.999728e+003,3.214801e+001
