5.003444e+002,1.921382e+002
5.013087e+002,1.911754e+002
5.022729e+002,1.864741e+002
5.032371e+002,1.803160e+002
5.042014e+002,1.779197e+002
5.051656e+002,1.788462e+002
5.061298e+002,1.801473e+002
5.070941e+002,1.788885e+002
5.080583e+002,1.738992e+002
5.090225e+002,1.707052e+002
5.099868e+002,1.697231e+002
5.109510e+002,1.693657e+002
5.119152e+002,1.691582e+002
5.128795e+002,1.691595e+002
5.138437e+002,1.687784e+002
5.148079e+002,1.684760e+002
5.157722e+002,1.675427e+002
5.167364e+002,1.651560e+002
5.177006e+002,1.611844e+002
5.186649e+002,1.562030e+002
5.196291e+002,1.506648e+002
5.205933e+002,1.462355e+002
5.215576e+002,1.442837e+002
5.225218e+002,1.441345e+002
5.234860e+002,1.439567e+002
5.244503e+002,1.411060e+002
5.254145e+002,1.352976e+002
5.263787e+002,1.325153e+002
5.273430e+002,1.347938e+002
5.283072e+002,1.387144e+002
5.292714e+002,1.391292e+002
5.302357e+002,1.329449e+002
5.311999e+002,1.273790e+002
5.321641e+002,1.245215e+002
5.331284e+002,1.231840e+002
5.340926e+002,1.222330e+002
5.350568e+002,1.209144e+002
5.360211e+002,1.190634e+002
5.369853e+002,1.178174e+002
5.379495e+002,1.167454e+002
5.389138e+002,1.149545e+002
5.398780e+002,1.120885e+002
5.408422e+002,1.086565e+002
5.418065e+002,1.064930e+002
5.427707e+002,1.053823e+002
5.437349e+002,1.037889e+002
5.446992e+002,1.010598e+002
5.456634e+002,9.753516e+001
5.466276e+002,9.465381e+001
5.475919e+002,9.320581e+001
5.485561e+002,9.212720e+001
5.495203e+002,9.213562e+001
5.504846e+002,9.168408e+001
5.514488e+002,8.823901e+001
5.524130e+002,7.922546e+001
5.533773e+002,7.225562e+001
5.543415e+002,7.178345e+001
5.553057e+002,7.447559e+001
5.562700e+002,7.721631e+001
5.572342e+002,7.798291e+001
5.581984e+002,7.708362e+001
5.591627e+002,7.562488e+001
5.601269e+002,7.409277e+001
5.610911e+002,7.232434e+001
5.620554e+002,6.994861e+001
5.630196e+002,6.693335e+001
5.639838e+002,6.547229e+001
5.649481e+002,6.736072e+001
5.659123e+002,6.826941e+001
5.668765e+002,6.797693e+001
5.678408e+002,6.713525e+001
5.688050e+002,6.651978e+001
5.697692e+002,6.562500e+001
5.707335e+002,6.367285e+001
5.716977e+002,6.047864e+001
5.726619e+002,5.670764e+001
5.736262e+002,5.305371e+001
5.745904e+002,4.997888e+001
5.755546e+002,4.793726e+001
5.765189e+002,4.650378e+001
5.774831e+002,4.540076e+001
5.784473e+002,4.552026e+001
5.794116e+002,4.772998e+001
5.803758e+002,5.206482e+001
5.813400e+002,5.282617e+001
5.823043e+002,4.834998e+001
5.832685e+002,4.334448e+001
5.842327e+002,3.973108e+001
5.851970e+002,3.780164e+001
5.861612e+002,3.664832e+001
5.871254e+002,3.541345e+001
5.880897e+002,3.497937e+001
5.890539e+002,3.590918e+001
5.900181e+002,3.730774e+001
5.909824e+002,3.793005e+001
5.919466e+002,3.709070e+001
5.929108e+002,3.566211e+001
5.938751e+002,3.499866e+001
5.948393e+002,3.443298e+001
5.958035e+002,3.260803e+001
5.967678e+002,2.867065e+001
5.977320e+002,2.354761e+001
5.986962e+002,2.280603e+001
5.996605e+002,2.538147e+001
6.006247e+002,2.888550e+001
6.015889e+002,3.360974e+001
6.025532e+002,3.931116e+001
6.035174e+002,4.148853e+001
6.044816e+002,3.623657e+001
6.054459e+002,3.156824e+001
6.064101e+002,2.881201e+001
6.073743e+002,2.729065e+001
6.083386e+002,2.544409e+001
6.093028e+002,2.205786e+001
6.102670e+002,1.963879e+001
6.112313e+002,2.041260e+001
6.121955e+002,2.273889e+001
6.131597e+002,2.433154e+001
6.141240e+002,2.363440e+001
6.150882e+002,2.143347e+001
6.160524e+002,2.207813e+001
6.170167e+002,2.535071e+001
6.179809e+002,2.803821e+001
6.189451e+002,2.817261e+001
6.199094e+002,2.581116e+001
6.208736e+002,2.381702e+001
6.218378e+002,2.390784e+001
6.228021e+002,2.373682e+001
6.237663e+002,2.341309e+001
6.247305e+002,2.283948e+001
6.256948e+002,2.157507e+001
6.266590e+002,1.873059e+001
6.276232e+002,1.511743e+001
6.285875e+002,1.084705e+001
6.295517e+002,7.380005e+000
6.305159e+002,6.367310e+000
6.314802e+002,8.421387e+000
6.324444e+002,1.193567e+001
6.334086e+002,1.388208e+001
6.343729e+002,1.498242e+001
6.353371e+002,1.474597e+001
6.363013e+002,1.235889e+001
6.372656e+002,8.815308e+000
6.382298e+002,8.361084e+000
6.391940e+002,1.707874e+001
6.401583e+002,2.007666e+001
6.411225e+002,1.398572e+001
6.420867e+002,5.104248e+000
6.430510e+002,6.933594e-001
6.440152e+002,3.266724e+000
6.449794e+002,5.747559e+000
6.459437e+002,3.959961e+000
6.469079e+002,9.785156e-001
6.478721e+002,-3.913574e-001
6.488364e+002,7.922363e-001
6.498006e+002,2.745850e+000
6.507648e+002,1.045044e+000
6.517291e+002,-2.644043e+000
6.526933e+002,-3.067261e+000
6.536575e+002,9.160156e-001
6.546218e+002,6.488892e+000
6.555860e+002,8.187744e+000
6.565502e+002,3.270142e+000
6.575145e+002,-1.854248e-001
6.584787e+002,-2.288940e+000
6.594429e+002,-3.007080e+000
6.604072e+002,-1.863892e+000
6.613714e+002,1.434814e+000
6.623356e+002,4.640381e+000
6.632999e+002,8.136230e+000
6.642641e+002,9.263916e+000
6.652283e+002,5.323486e+000
6.661926e+002,-2.364380e+000
6.671568e+002,-9.497925e+000
6.681210e+002,-1.105115e+001
6.690853e+002,-8.767090e+000
6.700495e+002,-7.149536e+000
6.710137e+002,-6.265503e+000
6.719780e+002,-5.483398e+000
6.729422e+002,-4.141479e+000
6.739064e+002,-2.208618e+000
6.748707e+002,-1.452393e+000
6.758349e+002,-2.862671e+000
6.767991e+002,-4.216309e+000
6.777634e+002,-3.663452e+000
6.787276e+002,-1.141357e+000
6.796918e+002,8.643799e-001
6.806561e+002,-3.532715e-001
6.816203e+002,-1.478882e+000
6.825845e+002,-1.012573e+000
6.835488e+002,4.434814e-001
6.845130e+002,2.052368e+000
6.854772e+002,3.431641e+000
6.864415e+002,4.409790e+000
6.874057e+002,3.098999e+000
6.883699e+002,-2.486572e-001
6.893342e+002,-3.521362e+000
6.902984e+002,-5.408813e+000
6.912626e+002,-5.782593e+000
6.922269e+002,-5.089355e+000
6.931911e+002,-1.232300e+000
6.941553e+002,2.656494e+000
6.951196e+002,6.062256e+000
6.960838e+002,8.401001e+000
6.970480e+002,9.143311e+000
6.980123e+002,8.087402e+000
6.989765e+002,6.386841e+000
6.999407e+002,4.225220e+000
7.009050e+002,1.828613e+000
7.018692e+002,-1.006958e+000
7.028334e+002,-4.228638e+000
7.037977e+002,-7.071289e+000
7.047619e+002,-7.276123e+000
7.057261e+002,-5.707397e+000
7.066904e+002,-5.476563e+000
7.076546e+002,-7.107422e+000
7.086188e+002,-8.853760e+000
7.095831e+002,-7.897827e+000
7.105473e+002,-3.504150e+000
7.115115e+002,4.849854e-001
7.124758e+002,5.729614e+000
7.134400e+002,8.759277e+000
7.144042e+002,6.240356e+000
7.153685e+002,-1.416016e+000
7.163327e+002,-6.757080e+000
7.172969e+002,-2.688477e+000
7.182612e+002,1.168335e+000
7.192254e+002,-3.850098e-001
7.201896e+002,-5.575684e+000
7.211539e+002,-9.941284e+000
7.221181e+002,-9.679565e+000
7.230823e+002,-6.102783e+000
7.240466e+002,-2.507080e+000
7.250108e+002,1.444824e+000
7.259750e+002,4.839233e+000
7.269393e+002,6.618286e+000
7.279035e+002,6.251709e+000
7.288677e+002,4.690308e+000
7.298320e+002,2.692749e+000
7.307962e+002,9.923096e-001
7.317604e+002,-9.471436e-001
7.327247e+002,-2.187500e+000
7.336889e+002,-1.548096e+000
7.346531e+002,1.052979e+000
7.356174e+002,2.317749e+000
7.365816e+002,2.211182e+000
7.375458e+002,1.235718e+000
7.385101e+002,-1.233765e+000
7.394743e+002,-4.826904e+000
7.404385e+002,-7.757080e+000
7.414028e+002,-7.162842e+000
7.423670e+002,-4.922363e+000
7.433312e+002,-4.477295e+000
7.442955e+002,-5.264526e+000
7.452597e+002,-5.542358e+000
7.462239e+002,-3.564941e+000
7.471882e+002,1.206177e+000
7.481524e+002,4.563110e+000
7.491166e+002,5.009277e+000
7.500809e+002,4.286011e+000
7.510451e+002,2.681274e+000
7.520093e+002,4.570313e-001
7.529736e+002,-1.859253e+000
7.539378e+002,-3.922974e+000
7.549020e+002,-4.378174e+000
7.558663e+002,-1.543701e+000
7.568306e+002,2.657959e+000
7.577948e+002,5.193970e+000
7.587590e+002,4.148804e+000
7.597233e+002,7.308350e-001
7.606875e+002,1.364746e-001
7.616517e+002,2.402832e+000
7.626160e+002,3.882568e+000
7.635802e+002,3.364868e+000
7.645444e+002,2.167114e+000
7.655087e+002,3.028687e+000
7.664729e+002,7.148804e+000
7.674371e+002,1.032397e+001
7.684014e+002,1.233948e+001
7.693656e+002,1.338806e+001
7.703298e+002,1.332483e+001
7.712941e+002,1.238684e+001
7.722583e+002,1.163086e+001
7.732225e+002,1.160693e+001
7.741868e+002,1.228174e+001
7.751510e+002,1.429834e+001
7.761152e+002,1.703845e+001
7.770795e+002,1.894934e+001
7.780437e+002,1.855566e+001
7.790079e+002,1.608459e+001
7.799722e+002,1.532922e+001
7.809364e+002,1.661658e+001
7.819006e+002,1.664966e+001
7.828649e+002,1.326746e+001
7.838291e+002,8.261597e+000
7.847933e+002,6.754883e+000
7.857576e+002,1.000549e+001
7.867218e+002,1.337659e+001
7.876860e+002,1.813647e+001
7.886503e+002,2.237451e+001
7.896145e+002,2.398682e+001
7.905787e+002,2.260864e+001
7.915430e+002,2.082068e+001
7.925072e+002,2.142212e+001
7.934714e+002,2.194995e+001
7.944357e+002,1.982324e+001
7.953999e+002,1.573926e+001
7.963641e+002,1.239648e+001
7.973284e+002,1.265320e+001
7.982926e+002,1.681335e+001
7.992568e+002,1.911792e+001
8.002211e+002,1.763477e+001
8.011853e+002,1.537708e+001
8.021495e+002,1.496387e+001
8.031138e+002,1.645715e+001
8.040780e+002,1.689136e+001
8.050422e+002,1.260254e+001
8.060065e+002,1.078601e+001
8.069707e+002,1.468921e+001
8.079349e+002,2.046582e+001
8.088992e+002,2.518176e+001
8.098634e+002,2.782275e+001
8.108276e+002,2.888049e+001
8.117919e+002,2.790381e+001
8.127561e+002,2.452869e+001
8.137203e+002,1.930396e+001
8.146846e+002,1.307227e+001
8.156488e+002,8.699951e+000
8.166130e+002,9.694214e+000
8.175773e+002,1.733728e+001
8.185415e+002,2.148767e+001
8.195057e+002,1.897681e+001
8.204700e+002,1.643713e+001
8.214342e+002,1.666614e+001
8.223984e+002,1.857520e+001
8.233627e+002,1.883057e+001
8.243269e+002,1.540503e+001
8.252911e+002,1.255676e+001
8.262554e+002,1.241699e+001
8.272196e+002,1.394751e+001
8.281838e+002,1.685144e+001
8.291481e+002,2.050037e+001
8.301123e+002,2.321033e+001
8.310765e+002,2.138367e+001
8.320408e+002,1.539099e+001
8.330050e+002,1.254956e+001
8.339692e+002,1.397717e+001
8.349335e+002,1.679907e+001
8.358977e+002,1.829822e+001
8.368619e+002,1.856372e+001
8.378262e+002,1.957996e+001
8.387904e+002,2.168652e+001
8.397546e+002,2.320642e+001
8.407189e+002,2.344202e+001
8.416831e+002,2.299780e+001
8.426473e+002,2.287952e+001
8.436116e+002,2.356946e+001
8.445758e+002,2.498462e+001
8.455400e+002,2.671936e+001
8.465043e+002,2.791052e+001
8.474685e+002,2.818286e+001
8.484327e+002,2.801086e+001
8.493970e+002,2.845630e+001
8.503612e+002,3.061621e+001
8.513254e+002,3.470447e+001
8.522897e+002,3.629626e+001
8.532539e+002,3.372461e+001
8.542181e+002,3.037793e+001
8.551824e+002,2.797192e+001
8.561466e+002,2.730603e+001
8.571108e+002,3.010876e+001
8.580751e+002,3.724268e+001
8.590393e+002,4.445544e+001
8.600035e+002,5.326941e+001
8.609678e+002,6.106299e+001
8.619320e+002,6.389624e+001
8.628962e+002,6.048181e+001
8.638605e+002,5.527405e+001
8.648247e+002,5.526624e+001
8.657889e+002,5.846802e+001
8.667532e+002,6.109497e+001
8.677174e+002,6.265271e+001
8.686816e+002,6.380225e+001
8.696459e+002,6.533459e+001
8.706101e+002,6.748132e+001
8.715743e+002,7.083972e+001
8.725386e+002,7.843616e+001
8.735028e+002,8.350964e+001
8.744670e+002,8.139221e+001
8.754313e+002,7.537634e+001
8.763955e+002,7.227759e+001
8.773597e+002,7.497925e+001
8.783240e+002,7.976758e+001
8.792882e+002,8.540552e+001
8.802524e+002,9.015039e+001
8.812167e+002,9.212573e+001
8.821809e+002,9.127612e+001
8.831451e+002,8.908167e+001
8.841094e+002,8.745825e+001
8.850736e+002,8.695862e+001
8.860378e+002,8.796448e+001
8.870021e+002,8.983899e+001
8.879663e+002,9.344226e+001
8.889305e+002,1.002368e+002
8.898948e+002,1.091323e+002
8.908590e+002,1.154034e+002
8.918232e+002,1.185509e+002
8.927875e+002,1.200875e+002
8.937517e+002,1.189896e+002
8.947159e+002,1.176718e+002
8.956802e+002,1.176338e+002
8.966444e+002,1.189250e+002
8.976086e+002,1.207557e+002
8.985729e+002,1.234779e+002
8.995371e+002,1.265801e+002
9.005013e+002,1.286732e+002
9.014656e+002,1.299967e+002
9.024298e+002,1.304884e+002
9.033940e+002,1.295406e+002
9.043583e+002,1.270439e+002
9.053225e+002,1.260852e+002
9.062867e+002,1.275035e+002
9.072510e+002,1.286375e+002
9.082152e+002,1.300736e+002
9.091794e+002,1.321735e+002
9.101437e+002,1.356028e+002
9.111079e+002,1.404268e+002
9.120721e+002,1.441279e+002
9.130364e+002,1.434990e+002
9.140006e+002,1.415497e+002
9.149648e+002,1.404686e+002
9.159291e+002,1.403177e+002
9.168933e+002,1.399347e+002
9.178575e+002,1.382415e+002
9.188218e+002,1.356265e+002
9.197860e+002,1.348602e+002
9.207502e+002,1.357554e+002
9.217145e+002,1.349471e+002
9.226787e+002,1.317092e+002
9.236429e+002,1.280892e+002
9.246072e+002,1.264594e+002
9.255714e+002,1.268224e+002
9.265356e+002,1.265848e+002
9.274999e+002,1.252871e+002
9.284641e+002,1.228276e+002
9.294283e+002,1.190388e+002
9.303926e+002,1.145431e+002
9.313568e+002,1.095790e+002
9.323210e+002,1.040522e+002
9.332853e+002,9.972034e+001
9.342495e+002,1.015848e+002
9.352137e+002,1.060182e+002
9.361780e+002,1.081838e+002
9.371422e+002,1.074663e+002
9.381064e+002,1.052198e+002
9.390707e+002,1.024155e+002
9.400349e+002,9.805530e+001
9.409991e+002,9.545593e+001
9.419634e+002,9.621301e+001
9.429276e+002,9.612634e+001
9.438918e+002,9.264771e+001
9.448561e+002,8.834924e+001
9.458203e+002,8.839917e+001
9.467845e+002,9.539612e+001
9.477488e+002,1.018296e+002
9.487130e+002,1.006495e+002
9.496772e+002,9.728552e+001
9.506415e+002,9.555261e+001
9.516057e+002,9.586731e+001
9.525699e+002,9.681335e+001
9.535342e+002,9.693103e+001
9.544984e+002,9.607434e+001
9.554626e+002,9.516101e+001
9.564269e+002,9.539600e+001
9.573911e+002,9.472668e+001
9.583553e+002,9.087915e+001
9.593196e+002,8.617041e+001
9.602838e+002,8.497754e+001
9.612480e+002,8.833679e+001
9.622123e+002,9.058008e+001
9.631765e+002,9.018555e+001
9.641407e+002,8.869373e+001
9.651050e+002,8.596240e+001
9.660692e+002,8.235242e+001
9.670334e+002,7.848901e+001
9.679977e+002,7.506152e+001
9.689619e+002,7.295203e+001
9.699261e+002,7.231628e+001
9.708904e+002,7.306396e+001
9.718546e+002,7.818408e+001
9.728188e+002,8.885291e+001
9.737831e+002,1.008635e+002
9.747473e+002,1.084504e+002
9.757115e+002,1.105226e+002
9.766758e+002,1.152865e+002
9.776400e+002,1.284021e+002
9.786042e+002,1.383442e+002
9.795685e+002,1.429056e+002
9.805327e+002,1.415736e+002
9.814969e+002,1.326696e+002
9.824612e+002,1.159609e+002
9.834254e+002,9.955615e+001
9.843896e+002,9.127563e+001
9.853539e+002,8.665894e+001
9.863181e+002,8.201904e+001
9.872823e+002,7.643311e+001
9.882466e+002,6.920679e+001
9.892108e+002,6.013953e+001
9.901750e+002,5.107263e+001
9.911393e+002,5.000513e+001
9.921035e+002,6.272852e+001
9.930677e+002,7.096802e+001
9.940320e+002,7.188269e+001
9.949962e+002,7.093945e+001
9.959604e+002,7.271118e+001
9.969247e+002,7.767419e+001
9.978889e+002,8.418188e+001
9.988531e+002,9.261963e+001
9.998174e+002,9.908142e+001
1.000782e+003,1.010813e+002
1.001746e+003,1.008187e+002
1.002710e+003,1.012832e+002
1.003674e+003,1.036478e+002
1.004639e+003,1.066013e+002
1.005603e+003,1.079459e+002
1.006567e+003,1.072572e+002
1.007531e+003,1.053517e+002
1.008495e+003,1.017200e+002
1.009460e+003,9.816089e+001
1.010424e+003,9.550525e+001
1.011388e+003,9.398828e+001
1.012352e+003,9.447314e+001
1.013317e+003,9.879407e+001
1.014281e+003,1.006853e+002
1.015245e+003,9.771753e+001
1.016209e+003,9.217639e+001
1.017174e+003,8.456873e+001
1.018138e+003,7.615771e+001
1.019102e+003,6.963586e+001
1.020066e+003,6.774646e+001
1.021031e+003,6.828284e+001
1.021995e+003,6.291516e+001
1.022959e+003,5.237048e+001
1.023923e+003,4.248352e+001
1.024887e+003,3.486292e+001
1.025852e+003,2.898120e+001
1.026816e+003,2.425940e+001
1.027780e+003,2.114148e+001
1.028744e+003,1.934387e+001
1.029709e+003,1.975745e+001
1.030673e+003,2.014795e+001
1.031637e+003,1.950867e+001
1.032601e+003,1.823828e+001
1.033566e+003,1.755151e+001
1.034530e+003,1.797797e+001
1.035494e+003,1.779596e+001
1.036458e+003,1.336371e+001
1.037422e+003,7.740967e+000
1.038387e+003,6.941406e+000
1.039351e+003,1.053101e+001
1.040315e+003,1.388293e+001
1.041279e+003,1.355573e+001
1.042244e+003,1.088434e+001
1.043208e+003,1.144550e+001
1.044172e+003,1.752856e+001
1.045136e+003,2.185742e+001
1.046101e+003,2.433374e+001
1.047065e+003,2.567590e+001
1.048029e+003,2.547504e+001
1.048993e+003,2.418805e+001
1.049958e+003,2.382758e+001
1.050922e+003,2.623181e+001
1.051886e+003,2.847827e+001
1.052850e+003,2.654089e+001
1.053814e+003,2.293750e+001
1.054779e+003,2.086505e+001
1.055743e+003,2.091156e+001
1.056707e+003,2.181427e+001
1.057671e+003,2.218884e+001
1.058636e+003,2.191528e+001
1.059600e+003,1.982739e+001
1.060564e+003,1.397229e+001
1.061528e+003,1.065741e+001
1.062493e+003,1.154474e+001
1.063457e+003,1.373944e+001
1.064421e+003,1.436743e+001
1.065385e+003,1.335645e+001
1.066349e+003,1.294653e+001
1.067314e+003,1.479797e+001
1.068278e+003,1.706073e+001
1.069242e+003,1.879156e+001
1.070206e+003,2.018671e+001
1.071171e+003,2.159033e+001
1.072135e+003,2.278406e+001
1.073099e+003,2.259338e+001
1.074063e+003,1.925427e+001
1.075028e+003,1.244379e+001
1.075992e+003,1.033160e+001
1.076956e+003,1.551373e+001
1.077920e+003,1.922974e+001
1.078885e+003,1.776624e+001
1.079849e+003,1.373694e+001
1.080813e+003,1.162085e+001
1.081777e+003,1.239044e+001
1.082741e+003,1.348199e+001
1.083706e+003,1.310724e+001
1.084670e+003,1.196802e+001
1.085634e+003,9.632568e+000
1.086598e+003,6.990234e+000
1.087563e+003,6.092590e+000
1.088527e+003,8.159851e+000
1.089491e+003,1.167389e+001
1.090455e+003,1.272003e+001
1.091420e+003,1.049683e+001
1.092384e+003,9.471069e+000
1.093348e+003,1.017230e+001
1.094312e+003,1.023541e+001
1.095276e+003,7.908081e+000
1.096241e+003,4.578247e+000
1.097205e+003,3.776672e+000
1.098169e+003,6.458862e+000
1.099133e+003,8.752930e+000
1.100098e+003,1.003589e+001
1.101062e+003,1.029681e+001
1.102026e+003,8.520691e+000
1.102990e+003,5.846863e+000
1.103955e+003,4.569458e+000
1.104919e+003,5.944824e+000
1.105883e+003,8.628967e+000
1.106847e+003,1.013574e+001
1.107812e+003,1.032135e+001
1.108776e+003,1.021515e+001
1.109740e+003,9.319092e+000
1.110704e+003,9.274841e+000
1.111668e+003,1.260968e+001
1.112633e+003,1.862561e+001
1.113597e+003,2.258350e+001
1.114561e+003,2.306067e+001
1.115525e+003,2.254291e+001
1.116490e+003,2.097406e+001
1.117454e+003,1.947278e+001
1.118418e+003,1.899207e+001
1.119382e+003,1.983472e+001
1.120347e+003,2.210278e+001
1.121311e+003,2.539294e+001
1.122275e+003,2.761957e+001
1.123239e+003,2.512555e+001
1.124203e+003,1.923108e+001
1.125168e+003,1.740405e+001
1.126132e+003,2.120459e+001
1.127096e+003,2.692249e+001
1.128060e+003,3.241150e+001
1.129025e+003,3.720660e+001
1.129989e+003,3.958185e+001
1.130953e+003,3.752063e+001
1.131917e+003,3.682532e+001
1.132882e+003,3.885449e+001
1.133846e+003,4.307849e+001
1.134810e+003,5.100110e+001
1.135774e+003,6.073126e+001
1.136739e+003,6.813617e+001
1.137703e+003,7.089600e+001
1.138667e+003,7.165417e+001
1.139631e+003,7.479114e+001
1.140595e+003,8.031250e+001
1.141560e+003,8.764233e+001
1.142524e+003,9.708978e+001
1.143488e+003,1.088682e+002
1.144452e+003,1.224884e+002
1.145417e+003,1.383253e+002
1.146381e+003,1.580344e+002
1.147345e+003,1.824063e+002
1.148309e+003,2.082671e+002
1.149274e+003,2.383425e+002
1.150238e+003,2.666376e+002
1.151202e+003,2.890331e+002
1.152166e+003,3.081359e+002
1.153130e+003,3.294467e+002
1.154095e+003,3.547104e+002
1.155059e+003,3.785597e+002
1.156023e+003,3.952943e+002
1.156987e+003,4.039186e+002
1.157952e+003,4.008770e+002
1.158916e+003,3.856523e+002
1.159880e+003,3.684330e+002
1.160844e+003,3.544727e+002
1.161809e+003,3.401945e+002
1.162773e+003,3.185103e+002
1.163737e+003,2.877537e+002
1.164701e+003,2.573345e+002
1.165666e+003,2.279121e+002
1.166630e+003,2.019438e+002
1.167594e+003,1.798723e+002
1.168558e+003,1.619269e+002
1.169522e+003,1.487632e+002
1.170487e+003,1.403260e+002
1.171451e+003,1.357863e+002
1.172415e+003,1.344281e+002
1.173379e+003,1.355596e+002
1.174344e+003,1.370020e+002
1.175308e+003,1.392997e+002
1.176272e+003,1.388591e+002
1.177236e+003,1.334993e+002
1.178201e+003,1.260078e+002
1.179165e+003,1.196230e+002
1.180129e+003,1.139349e+002
1.181093e+003,1.067749e+002
1.182057e+003,9.645093e+001
1.183022e+003,8.708466e+001
1.183986e+003,7.882001e+001
1.184950e+003,7.307715e+001
1.185914e+003,7.239478e+001
1.186879e+003,7.607397e+001
1.187843e+003,8.047266e+001
1.188807e+003,8.245923e+001
1.189771e+003,8.281293e+001
1.190736e+003,8.484064e+001
1.191700e+003,8.884851e+001
1.192664e+003,9.032007e+001
1.193628e+003,8.782458e+001
1.194593e+003,8.478711e+001
1.195557e+003,8.445496e+001
1.196521e+003,8.541241e+001
1.197485e+003,8.232648e+001
1.198449e+003,7.298596e+001
1.199414e+003,6.446997e+001
1.200378e+003,6.172241e+001
1.201342e+003,5.936377e+001
1.202306e+003,5.310358e+001
1.203271e+003,4.432977e+001
1.204235e+003,3.686676e+001
1.205199e+003,3.265527e+001
1.206163e+003,3.010364e+001
1.207128e+003,2.645209e+001
1.208092e+003,2.169476e+001
1.209056e+003,1.688391e+001
1.210020e+003,1.205804e+001
1.210984e+003,7.212830e+000
1.211949e+003,2.615967e+000
1.212913e+003,-2.414612e+000
1.213877e+003,-8.984985e+000
1.214841e+003,-1.693445e+001
1.215806e+003,-2.378607e+001
1.216770e+003,-2.818359e+001
1.217734e+003,-3.213690e+001
1.218698e+003,-3.862378e+001
1.219663e+003,-4.514185e+001
1.220627e+003,-4.788635e+001
1.221591e+003,-4.671625e+001
1.222555e+003,-4.476398e+001
1.223520e+003,-4.479584e+001
1.224484e+003,-4.647314e+001
1.225448e+003,-4.920557e+001
1.226412e+003,-5.469623e+001
1.227376e+003,-5.741461e+001
1.228341e+003,-5.580096e+001
1.229305e+003,-5.363593e+001
1.230269e+003,-5.231531e+001
1.231233e+003,-5.213043e+001
1.232198e+003,-5.367438e+001
1.233162e+003,-5.699481e+001
1.234126e+003,-5.965295e+001
1.235090e+003,-5.985272e+001
1.236055e+003,-5.922467e+001
1.237019e+003,-5.940253e+001
1.237983e+003,-6.032465e+001
1.238947e+003,-6.158563e+001
1.239911e+003,-6.274982e+001
1.240876e+003,-6.256342e+001
1.241840e+003,-5.882477e+001
1.242804e+003,-5.106927e+001
1.243768e+003,-4.774188e+001
1.244733e+003,-5.511047e+001
1.245697e+003,-5.856970e+001
1.246661e+003,-5.446063e+001
1.247625e+003,-4.934448e+001
1.248590e+003,-4.818927e+001
1.249554e+003,-4.984467e+001
1.250518e+003,-4.977820e+001
1.251482e+003,-4.604620e+001
1.252447e+003,-4.228027e+001
1.253411e+003,-4.320398e+001
1.254375e+003,-4.627039e+001
1.255339e+003,-4.657855e+001
1.256303e+003,-4.373175e+001
1.257268e+003,-3.930322e+001
1.258232e+003,-3.398669e+001
1.259196e+003,-2.906580e+001
1.260160e+003,-2.689514e+001
1.261125e+003,-2.781219e+001
1.262089e+003,-2.663068e+001
1.263053e+003,-2.181598e+001
1.264017e+003,-1.698987e+001
1.264982e+003,-1.193115e+001
1.265946e+003,-7.631897e+000
1.266910e+003,-4.793762e+000
1.267874e+003,-3.588013e+000
1.268839e+003,-4.095154e+000
1.269803e+003,-6.363220e+000
1.270767e+003,-9.690979e+000
1.271731e+003,-1.262964e+001
1.272695e+003,-1.503577e+001
1.273660e+003,-1.845056e+001
1.274624e+003,-2.396124e+001
1.275588e+003,-2.977283e+001
1.276552e+003,-3.533307e+001
1.277517e+003,-3.954053e+001
1.278481e+003,-4.025452e+001
1.279445e+003,-3.721729e+001
1.280409e+003,-3.512091e+001
1.281374e+003,-3.606848e+001
1.282338e+003,-3.734192e+001
1.283302e+003,-3.718506e+001
1.284266e+003,-3.687579e+001
1.285230e+003,-3.823938e+001
1.286195e+003,-4.125952e+001
1.287159e+003,-4.402979e+001
1.288123e+003,-4.476910e+001
1.289087e+003,-4.422565e+001
1.290052e+003,-4.568402e+001
1.291016e+003,-5.045599e+001
1.291980e+003,-5.392670e+001
1.292944e+003,-5.725922e+001
1.293909e+003,-5.882550e+001
1.294873e+003,-5.599005e+001
1.295837e+003,-5.140448e+001
1.296801e+003,-4.897662e+001
1.297766e+003,-4.915149e+001
1.298730e+003,-4.970667e+001
1.299694e+003,-4.980731e+001
1.300658e+003,-5.002295e+001
1.301622e+003,-5.100140e+001
1.302587e+003,-5.208160e+001
1.303551e+003,-5.237128e+001
1.304515e+003,-5.158130e+001
1.305479e+003,-5.009290e+001
1.306444e+003,-4.837079e+001
1.307408e+003,-4.668787e+001
1.308372e+003,-4.512494e+001
1.309336e+003,-4.320404e+001
1.310301e+003,-4.307489e+001
1.311265e+003,-4.589966e+001
1.312229e+003,-4.862787e+001
1.313193e+003,-5.029517e+001
1.314157e+003,-5.169220e+001
1.315122e+003,-5.469012e+001
1.316086e+003,-5.872656e+001
1.317050e+003,-6.036176e+001
1.318014e+003,-5.701428e+001
1.318979e+003,-5.075757e+001
1.319943e+003,-4.464471e+001
1.320907e+003,-3.891693e+001
1.321871e+003,-3.706927e+001
1.322836e+003,-4.107135e+001
1.323800e+003,-4.463745e+001
1.324764e+003,-4.362323e+001
1.325728e+003,-4.033917e+001
1.326693e+003,-3.889014e+001
1.327657e+003,-3.967145e+001
1.328621e+003,-4.097937e+001
1.329585e+003,-4.167145e+001
1.330549e+003,-4.133466e+001
1.331514e+003,-4.063318e+001
1.332478e+003,-4.028699e+001
1.333442e+003,-4.103278e+001
1.334406e+003,-4.219196e+001
1.335371e+003,-4.183075e+001
1.336335e+003,-3.888855e+001
1.337299e+003,-3.524835e+001
1.338263e+003,-3.481311e+001
1.339228e+003,-3.815393e+001
1.340192e+003,-3.909039e+001
1.341156e+003,-3.586481e+001
1.342120e+003,-3.305188e+001
1.343084e+003,-3.138684e+001
1.344049e+003,-3.111450e+001
1.345013e+003,-3.238947e+001
1.345977e+003,-3.456854e+001
1.346941e+003,-3.685278e+001
1.347906e+003,-3.908130e+001
1.348870e+003,-4.025262e+001
1.349834e+003,-3.900061e+001
1.350798e+003,-3.679266e+001
1.351763e+003,-3.595129e+001
1.352727e+003,-3.621265e+001
1.353691e+003,-3.671344e+001
1.354655e+003,-3.714832e+001
1.355620e+003,-3.747681e+001
1.356584e+003,-3.774640e+001
1.357548e+003,-3.773541e+001
1.358512e+003,-3.667896e+001
1.359476e+003,-3.453021e+001
1.360441e+003,-3.304572e+001
1.361405e+003,-3.235785e+001
1.362369e+003,-3.223578e+001
1.363333e+003,-3.263074e+001
1.364298e+003,-3.345404e+001
1.365262e+003,-3.503040e+001
1.366226e+003,-3.708350e+001
1.367190e+003,-3.817194e+001
1.368155e+003,-3.696893e+001
1.369119e+003,-3.447137e+001
1.370083e+003,-3.383862e+001
1.371047e+003,-3.567871e+001
1.372011e+003,-3.559552e+001
1.372976e+003,-3.231354e+001
1.373940e+003,-2.991498e+001
1.374904e+003,-3.001678e+001
1.375868e+003,-3.131915e+001
1.376833e+003,-3.318787e+001
1.377797e+003,-3.518494e+001
1.378761e+003,-3.455310e+001
1.379725e+003,-2.902618e+001
1.380690e+003,-2.366559e+001
1.381654e+003,-2.518640e+001
1.382618e+003,-2.919934e+001
1.383582e+003,-2.953180e+001
1.384547e+003,-2.623456e+001
1.385511e+003,-2.296271e+001
1.386475e+003,-2.173309e+001
1.387439e+003,-2.152191e+001
1.388403e+003,-2.059186e+001
1.389368e+003,-1.899719e+001
1.390332e+003,-1.804352e+001
1.391296e+003,-1.749835e+001
1.392260e+003,-1.752032e+001
1.393225e+003,-1.780646e+001
1.394189e+003,-1.913831e+001
1.395153e+003,-2.395343e+001
1.396117e+003,-2.921539e+001
1.397082e+003,-2.967706e+001
1.398046e+003,-2.451508e+001
1.399010e+003,-1.793494e+001
1.399974e+003,-1.398840e+001
1.400938e+003,-1.321698e+001
1.401903e+003,-1.621954e+001
1.402867e+003,-2.351837e+001
1.403831e+003,-2.598376e+001
1.404795e+003,-2.087946e+001
1.405760e+003,-1.610065e+001
1.406724e+003,-1.531055e+001
1.407688e+003,-1.717285e+001
1.408652e+003,-1.990051e+001
1.409617e+003,-2.242883e+001
1.410581e+003,-2.319519e+001
1.411545e+003,-2.133832e+001
1.412509e+003,-1.902307e+001
1.413474e+003,-1.875116e+001
1.414438e+003,-1.991626e+001
1.415402e+003,-2.070227e+001
1.416366e+003,-2.066882e+001
1.417330e+003,-1.982104e+001
1.418295e+003,-1.795026e+001
1.419259e+003,-1.600854e+001
1.420223e+003,-1.527704e+001
1.421187e+003,-1.595032e+001
1.422152e+003,-1.767047e+001
1.423116e+003,-2.064008e+001
1.424080e+003,-2.215094e+001
1.425044e+003,-2.241473e+001
1.426009e+003,-2.085480e+001
1.426973e+003,-1.465979e+001
1.427937e+003,-8.052307e+000
1.428901e+003,-6.699829e+000
1.429865e+003,-1.001135e+001
1.430830e+003,-1.260419e+001
1.431794e+003,-1.113989e+001
1.432758e+003,-7.792847e+000
1.433722e+003,-6.346985e+000
1.434687e+003,-6.402222e+000
1.435651e+003,-4.087097e+000
1.436615e+003,1.123596e+000
1.437579e+003,4.628967e+000
1.438544e+003,6.362366e+000
1.439508e+003,6.371948e+000
1.440472e+003,3.597961e+000
1.441436e+003,1.342773e-001
1.442401e+003,-2.494507e-001
1.443365e+003,2.910889e+000
1.444329e+003,6.067322e+000
1.445293e+003,6.883667e+000
1.446257e+003,6.043640e+000
1.447222e+003,3.709045e+000
1.448186e+003,3.217163e-001
1.449150e+003,-9.497070e-001
1.450114e+003,4.314575e-001
1.451079e+003,2.131409e+000
1.452043e+003,4.442261e+000
1.453007e+003,6.040771e+000
1.453971e+003,3.746826e+000
1.454936e+003,-1.956360e+000
1.455900e+003,-5.877136e+000
1.456864e+003,-6.678650e+000
1.457828e+003,-5.613098e+000
1.458792e+003,-2.118713e+000
1.459757e+003,1.210205e+000
1.460721e+003,2.266602e+000
1.461685e+003,1.537964e+000
1.462649e+003,1.053467e-001
1.463614e+003,-1.446045e+000
1.464578e+003,-2.634827e+000
1.465542e+003,-3.175659e+000
1.466506e+003,-3.439697e+000
1.467471e+003,-4.090637e+000
1.468435e+003,-4.879700e+000
1.469399e+003,-4.513977e+000
1.470363e+003,-3.725708e+000
1.471328e+003,-1.689392e+000
1.472292e+003,3.037292e+000
1.473256e+003,6.884644e+000
1.474220e+003,8.100403e+000
1.475184e+003,7.296387e+000
1.476149e+003,4.386047e+000
1.477113e+003,-1.086426e-001
1.478077e+003,-2.613220e+000
1.479041e+003,8.981323e-001
1.480006e+003,8.309143e+000
1.480970e+003,1.140155e+001
1.481934e+003,8.114929e+000
1.482898e+003,6.974731e+000
1.483863e+003,9.877625e+000
1.484827e+003,1.179486e+001
1.485791e+003,1.002405e+001
1.486755e+003,8.731995e+000
1.487719e+003,1.197083e+001
1.488684e+003,1.840948e+001
1.489648e+003,2.452917e+001
1.490612e+003,2.939111e+001
1.491576e+003,3.356500e+001
1.492541e+003,3.728833e+001
1.493505e+003,4.041321e+001
1.494469e+003,4.192670e+001
1.495433e+003,4.184692e+001
1.496398e+003,4.395447e+001
1.497362e+003,4.953351e+001
1.498326e+003,5.723688e+001
1.499290e+003,6.717426e+001
1.500255e+003,7.809375e+001
1.501219e+003,8.824634e+001
1.502183e+003,9.752930e+001
1.503147e+003,1.060370e+002
1.504111e+003,1.132566e+002
1.505076e+003,1.224298e+002
1.506040e+003,1.357831e+002
1.507004e+003,1.519526e+002
1.507968e+003,1.679829e+002
1.508933e+003,1.858623e+002
1.509897e+003,2.112278e+002
1.510861e+003,2.453623e+002
1.511825e+003,2.801718e+002
1.512790e+003,3.086827e+002
1.513754e+003,3.352395e+002
1.514718e+003,3.694764e+002
1.515682e+003,4.108521e+002
1.516646e+003,4.523411e+002
1.517611e+003,4.974083e+002
1.518575e+003,5.343971e+002
1.519539e+003,5.559345e+002
1.520503e+003,5.734136e+002
1.521468e+003,5.941340e+002
1.522432e+003,6.132117e+002
1.523396e+003,6.240031e+002
1.524360e+003,6.252937e+002
1.525325e+003,6.196194e+002
1.526289e+003,6.088007e+002
1.527253e+003,5.932383e+002
1.528217e+003,5.735115e+002
1.529182e+003,5.500719e+002
1.530146e+003,5.200367e+002
1.531110e+003,4.808527e+002
1.532074e+003,4.384487e+002
1.533039e+003,3.899433e+002
1.534003e+003,3.404913e+002
1.534967e+003,2.910933e+002
1.535931e+003,2.448790e+002
1.536896e+003,2.038292e+002
1.537860e+003,1.690365e+002
1.538824e+003,1.421308e+002
1.539788e+003,1.233699e+002
1.540752e+003,1.088925e+002
1.541717e+003,9.393506e+001
1.542681e+003,7.934717e+001
1.543645e+003,6.859955e+001
1.544609e+003,6.311511e+001
1.545573e+003,5.972504e+001
1.546538e+003,5.928442e+001
1.547502e+003,5.829138e+001
1.548466e+003,5.562750e+001
1.549430e+003,5.298199e+001
1.550395e+003,5.142773e+001
1.551359e+003,5.085852e+001
1.552323e+003,5.167871e+001
1.553287e+003,5.386554e+001
1.554252e+003,5.464691e+001
1.555216e+003,5.139557e+001
1.556180e+003,4.536401e+001
1.557144e+003,3.887653e+001
1.558109e+003,3.215186e+001
1.559073e+003,2.843964e+001
1.560037e+003,2.844824e+001
1.561001e+003,2.850171e+001
1.561966e+003,2.804340e+001
1.562930e+003,2.788025e+001
1.563894e+003,2.837872e+001
1.564858e+003,2.922455e+001
1.565823e+003,3.023584e+001
1.566787e+003,3.122858e+001
1.567751e+003,3.079352e+001
1.568715e+003,2.763141e+001
1.569679e+003,2.496069e+001
1.570644e+003,2.780005e+001
1.571608e+003,3.347278e+001
1.572572e+003,3.457190e+001
1.573536e+003,3.108728e+001
1.574500e+003,2.931451e+001
1.575465e+003,3.170612e+001
1.576429e+003,3.534479e+001
1.577393e+003,3.806665e+001
1.578357e+003,3.999017e+001
1.579322e+003,4.156000e+001
1.580286e+003,4.301160e+001
1.581250e+003,4.526947e+001
1.582214e+003,4.930194e+001
1.583179e+003,5.139264e+001
1.584143e+003,4.647961e+001
1.585107e+003,3.970184e+001
1.586071e+003,3.885364e+001
1.587036e+003,4.287799e+001
1.588000e+003,4.703064e+001
1.588964e+003,5.000256e+001
1.589928e+003,5.211139e+001
1.590893e+003,5.365173e+001
1.591857e+003,5.453375e+001
1.592821e+003,5.416486e+001
1.593785e+003,5.298230e+001
1.594750e+003,5.278827e+001
1.595714e+003,5.342566e+001
1.596678e+003,5.616663e+001
1.597642e+003,6.332678e+001
1.598606e+003,7.021246e+001
1.599571e+003,7.287714e+001
1.600535e+003,7.353491e+001
1.601499e+003,7.474207e+001
1.602463e+003,7.646423e+001
1.603427e+003,7.782440e+001
1.604392e+003,7.861340e+001
1.605356e+003,7.810907e+001
1.606320e+003,7.385541e+001
1.607284e+003,6.833984e+001
1.608249e+003,7.050452e+001
1.609213e+003,8.078821e+001
1.610177e+003,8.384521e+001
1.611141e+003,7.387933e+001
1.612106e+003,6.480017e+001
1.613070e+003,6.411737e+001
1.614034e+003,6.600726e+001
1.614998e+003,6.714380e+001
1.615963e+003,6.767993e+001
1.616927e+003,6.767480e+001
1.617891e+003,6.731683e+001
1.618855e+003,6.807367e+001
1.619820e+003,7.089240e+001
1.620784e+003,7.328369e+001
1.621748e+003,7.207745e+001
1.622712e+003,6.856268e+001
1.623677e+003,6.615570e+001
1.624641e+003,6.463702e+001
1.625605e+003,6.636932e+001
1.626569e+003,7.376917e+001
1.627533e+003,7.876410e+001
1.628498e+003,7.568933e+001
1.629462e+003,7.137604e+001
1.630426e+003,7.181470e+001
1.631390e+003,7.536530e+001
1.632354e+003,7.776447e+001
1.633319e+003,7.791266e+001
1.634283e+003,7.743445e+001
1.635247e+003,7.740973e+001
1.636211e+003,7.751276e+001
1.637176e+003,7.726733e+001
1.638140e+003,7.695435e+001
1.639104e+003,7.795691e+001
1.640068e+003,8.103345e+001
1.641033e+003,8.158722e+001
1.641997e+003,7.618536e+001
1.642961e+003,7.183582e+001
1.643925e+003,7.286511e+001
1.644890e+003,7.569653e+001
1.645854e+003,7.670685e+001
1.646818e+003,7.628638e+001
1.647782e+003,7.670935e+001
1.648747e+003,7.856360e+001
1.649711e+003,8.009558e+001
1.650675e+003,7.998138e+001
1.651639e+003,7.934503e+001
1.652604e+003,8.063342e+001
1.653568e+003,8.340161e+001
1.654532e+003,8.175757e+001
1.655496e+003,7.373090e+001
1.656460e+003,6.736951e+001
1.657425e+003,6.610272e+001
1.658389e+003,6.589752e+001
1.659353e+003,6.453412e+001
1.660317e+003,6.294519e+001
1.661281e+003,6.234961e+001
1.662246e+003,6.226514e+001
1.663210e+003,6.126556e+001
1.664174e+003,5.907916e+001
1.665138e+003,5.696838e+001
1.666103e+003,5.586426e+001
1.667067e+003,5.508136e+001
1.668031e+003,5.351849e+001
1.668995e+003,5.134601e+001
1.669960e+003,4.908899e+001
1.670924e+003,4.663177e+001
1.671888e+003,4.539435e+001
1.672852e+003,4.622345e+001
1.673817e+003,4.727197e+001
1.674781e+003,4.710510e+001
1.675745e+003,4.663916e+001
1.676709e+003,4.724231e+001
1.677674e+003,4.840192e+001
1.678638e+003,4.831232e+001
1.679602e+003,4.643268e+001
1.680566e+003,4.379614e+001
1.681531e+003,4.096204e+001
1.682495e+003,3.877759e+001
1.683459e+003,3.901392e+001
1.684423e+003,4.074841e+001
1.685387e+003,3.925183e+001
1.686352e+003,3.375311e+001
1.687316e+003,2.927460e+001
1.688280e+003,2.739392e+001
1.689244e+003,2.686200e+001
1.690208e+003,2.726135e+001
1.691173e+003,2.797333e+001
1.692137e+003,2.881494e+001
1.693101e+003,2.988055e+001
1.694065e+003,3.045447e+001
1.695030e+003,2.994214e+001
1.695994e+003,2.898450e+001
1.696958e+003,2.761865e+001
1.697922e+003,2.695386e+001
1.698887e+003,2.966962e+001
1.699851e+003,3.413214e+001
1.700815e+003,3.405377e+001
1.701779e+003,2.883856e+001
1.702744e+003,2.560205e+001
1.703708e+003,2.762799e+001
1.704672e+003,2.987744e+001
1.705636e+003,2.767444e+001
1.706601e+003,2.345801e+001
1.707565e+003,2.136902e+001
1.708529e+003,2.128503e+001
1.709493e+003,2.265356e+001
1.710458e+003,2.580798e+001
1.711422e+003,2.591583e+001
1.712386e+003,1.822693e+001
1.713350e+003,1.084637e+001
1.714314e+003,1.072589e+001
1.715279e+003,1.401367e+001
1.716243e+003,1.440228e+001
1.717207e+003,1.225177e+001
1.718171e+003,1.221149e+001
1.719135e+003,1.565717e+001
1.720100e+003,1.805896e+001
1.721064e+003,1.582306e+001
1.722028e+003,1.211230e+001
1.722992e+003,1.236041e+001
1.723957e+003,1.590820e+001
1.724921e+003,1.597253e+001
1.725885e+003,1.112000e+001
1.726849e+003,7.306702e+000
1.727814e+003,7.035645e+000
1.728778e+003,7.449707e+000
1.729742e+003,6.687012e+000
1.730706e+003,6.311584e+000
1.731671e+003,8.475403e+000
1.732635e+003,1.118195e+001
1.733599e+003,1.101318e+001
1.734563e+003,8.038818e+000
1.735528e+003,4.218933e+000
1.736492e+003,3.989868e-001
1.737456e+003,-1.641724e+000
1.738420e+003,5.174561e-001
1.739385e+003,5.187256e+000
1.740349e+003,7.441589e+000
1.741313e+003,7.215759e+000
1.742277e+003,6.536438e+000
1.743241e+003,6.297485e+000
1.744206e+003,5.001709e+000
1.745170e+003,3.193359e-001
1.746134e+003,-3.465820e+000
1.747098e+003,-3.617188e+000
1.748063e+003,-1.965210e+000
1.749027e+003,-3.152466e-001
1.749991e+003,1.082458e+000
1.750955e+003,2.735840e+000
1.751919e+003,4.551514e+000
1.752884e+003,5.348999e+000
1.753848e+003,4.135620e+000
1.754812e+003,1.572388e+000
1.755776e+003,-8.889771e-001
1.756741e+003,-2.831116e+000
1.757705e+003,-2.724609e+000
1.758669e+003,4.163208e-001
1.759633e+003,1.604187e+000
1.760598e+003,-2.191650e+000
1.761562e+003,-4.985291e+000
1.762526e+003,-3.150513e+000
1.763490e+003,-8.071899e-001
1.764455e+003,-1.678772e+000
1.765419e+003,-3.475586e+000
1.766383e+003,-2.057861e+000
1.767347e+003,2.187012e+000
1.768312e+003,5.198853e+000
1.769276e+003,4.938171e+000
1.770240e+003,3.367310e+000
1.771204e+003,3.144958e+000
1.772168e+003,3.761597e+000
1.773133e+003,3.074524e+000
1.774097e+003,1.154114e+000
1.775061e+003,-1.652344e+000
1.776025e+003,-6.227783e+000
1.776990e+003,-7.791748e+000
1.777954e+003,-2.584412e+000
1.778918e+003,2.587341e+000
1.779882e+003,1.639160e+000
1.780846e+003,-1.978149e+000
1.781811e+003,-3.697571e+000
1.782775e+003,-3.530151e+000
1.783739e+003,-1.242371e+000
1.784703e+003,3.703674e+000
1.785668e+003,6.600220e+000
1.786632e+003,4.066895e+000
1.787596e+003,-2.329712e-001
1.788560e+003,-4.080688e+000
1.789525e+003,-6.617737e+000
1.790489e+003,-6.933777e+000
1.791453e+003,-5.652954e+000
1.792417e+003,-3.948242e+000
1.793382e+003,-2.138977e+000
1.794346e+003,-6.235962e-001
1.795310e+003,3.113403e-001
1.796274e+003,1.193604e+000
1.797239e+003,3.085938e+000
1.798203e+003,5.757263e+000
1.799167e+003,6.678467e+000
1.800131e+003,4.576294e+000
1.801095e+003,3.103455e+000
1.802060e+003,2.864136e+000
1.803024e+003,3.912720e+000
1.803988e+003,7.744019e+000
1.804952e+003,1.041095e+001
1.805917e+003,8.952698e+000
1.806881e+003,6.335205e+000
1.807845e+003,5.522278e+000
1.808809e+003,6.361389e+000
1.809773e+003,8.164795e+000
1.810738e+003,1.017413e+001
1.811702e+003,1.034265e+001
1.812666e+003,7.427002e+000
1.813630e+003,4.060364e+000
1.814595e+003,3.927917e+000
1.815559e+003,6.013184e+000
1.816523e+003,6.630615e+000
1.817487e+003,5.734619e+000
1.818452e+003,5.150146e+000
1.819416e+003,5.699402e+000
1.820380e+003,5.515930e+000
1.821344e+003,2.223267e+000
1.822309e+003,-1.178589e-001
1.823273e+003,2.621643e+000
1.824237e+003,6.669861e+000
1.825201e+003,7.698364e+000
1.826166e+003,6.497314e+000
1.827130e+003,5.853943e+000
1.828094e+003,6.116150e+000
1.829058e+003,6.447693e+000
1.830022e+003,6.425476e+000
1.830987e+003,7.150635e+000
1.831951e+003,1.064124e+001
1.832915e+003,1.464325e+001
1.833879e+003,1.589502e+001
1.834844e+003,1.473083e+001
1.835808e+003,1.218201e+001
1.836772e+003,8.750061e+000
1.837736e+003,6.004028e+000
1.838700e+003,4.438416e+000
1.839665e+003,3.349854e+000
1.840629e+003,2.192932e+000
1.841593e+003,1.678650e+000
1.842557e+003,3.238647e+000
1.843522e+003,6.804443e+000
1.844486e+003,8.878479e+000
1.845450e+003,9.152222e+000
1.846414e+003,9.551086e+000
1.847379e+003,8.997314e+000
1.848343e+003,8.629700e+000
1.849307e+003,9.626831e+000
1.850271e+003,1.053229e+001
1.851236e+003,1.013068e+001
1.852200e+003,9.489197e+000
1.853164e+003,1.004437e+001
1.854128e+003,1.108264e+001
1.855093e+003,1.065454e+001
1.856057e+003,8.551270e+000
1.857021e+003,6.843384e+000
1.857985e+003,7.109070e+000
1.858949e+003,8.015442e+000
1.859914e+003,6.772400e+000
1.860878e+003,4.269653e+000
1.861842e+003,5.438660e+000
1.862806e+003,1.025995e+001
1.863771e+003,1.387280e+001
1.864735e+003,1.525299e+001
1.865699e+003,1.558380e+001
1.866663e+003,1.541125e+001
1.867627e+003,1.506110e+001
1.868592e+003,1.435834e+001
1.869556e+003,1.313721e+001
1.870520e+003,1.163354e+001
1.871484e+003,9.925903e+000
1.872449e+003,8.805359e+000
1.873413e+003,9.358459e+000
1.874377e+003,1.140942e+001
1.875341e+003,1.447925e+001
1.876306e+003,1.749194e+001
1.877270e+003,2.077771e+001
1.878234e+003,2.264355e+001
1.879198e+003,2.035114e+001
1.880163e+003,1.619012e+001
1.881127e+003,1.448120e+001
1.882091e+003,1.548700e+001
1.883055e+003,1.678143e+001
1.884020e+003,1.719733e+001
1.884984e+003,1.708331e+001
1.885948e+003,1.680591e+001
1.886912e+003,1.585474e+001
1.887876e+003,1.258801e+001
1.888841e+003,7.632507e+000
1.889805e+003,9.327087e+000
1.890769e+003,1.969012e+001
1.891733e+003,2.560608e+001
1.892698e+003,2.400702e+001
1.893662e+003,2.155341e+001
1.894626e+003,2.000464e+001
1.895590e+003,1.916864e+001
1.896554e+003,1.934900e+001
1.897519e+003,2.027435e+001
1.898483e+003,2.175037e+001
1.899447e+003,2.301184e+001
1.900411e+003,2.251721e+001
1.901376e+003,2.003711e+001
1.902340e+003,1.826208e+001
1.903304e+003,1.805457e+001
1.904268e+003,1.884497e+001
1.905233e+003,2.193231e+001
1.906197e+003,2.462598e+001
1.907161e+003,2.298480e+001
1.908125e+003,1.967084e+001
1.909090e+003,2.030774e+001
1.910054e+003,2.377539e+001
1.911018e+003,2.299481e+001
1.911982e+003,1.662085e+001
1.912947e+003,1.302240e+001
1.913911e+003,1.822479e+001
1.914875e+003,2.638306e+001
1.915839e+003,2.806653e+001
1.916803e+003,2.456812e+001
1.917768e+003,2.458075e+001
1.918732e+003,2.941010e+001
1.919696e+003,3.073090e+001
1.920660e+003,2.655188e+001
1.921625e+003,2.512421e+001
1.922589e+003,3.004797e+001
1.923553e+003,3.442633e+001
1.924517e+003,3.381628e+001
1.925481e+003,3.193176e+001
1.926446e+003,3.178729e+001
1.927410e+003,3.286780e+001
1.928374e+003,3.423657e+001
1.929338e+003,3.545630e+001
1.930303e+003,3.540527e+001
1.931267e+003,3.370184e+001
1.932231e+003,3.316681e+001
1.933195e+003,3.599823e+001
1.934160e+003,3.839667e+001
1.935124e+003,3.716180e+001
1.936088e+003,3.404395e+001
1.937052e+003,3.075214e+001
1.938017e+003,2.831415e+001
1.938981e+003,2.847992e+001
1.939945e+003,3.071252e+001
1.940909e+003,3.182422e+001
1.941874e+003,3.036646e+001
1.942838e+003,2.835620e+001
1.943802e+003,2.800604e+001
1.944766e+003,2.899994e+001
1.945730e+003,2.998450e+001
1.946695e+003,3.064166e+001
1.947659e+003,3.071997e+001
1.948623e+003,3.008917e+001
1.949587e+003,2.886469e+001
1.950552e+003,2.676605e+001
1.951516e+003,2.631104e+001
1.952480e+003,2.889496e+001
1.953444e+003,3.212799e+001
1.954408e+003,3.507526e+001
1.955373e+003,3.651636e+001
1.956337e+003,3.379645e+001
1.957301e+003,2.902130e+001
1.958265e+003,2.854089e+001
1.959230e+003,3.314563e+001
1.960194e+003,3.694666e+001
1.961158e+003,3.871222e+001
1.962122e+003,3.884808e+001
1.963087e+003,3.575726e+001
1.964051e+003,3.334015e+001
1.965015e+003,3.525098e+001
1.965979e+003,3.844464e+001
1.966944e+003,3.942542e+001
1.967908e+003,3.858325e+001
1.968872e+003,3.757172e+001
1.969836e+003,3.685602e+001
1.970801e+003,3.609271e+001
1.971765e+003,3.518951e+001
1.972729e+003,3.450922e+001
1.973693e+003,3.414777e+001
1.974657e+003,3.463135e+001
1.975622e+003,3.736920e+001
1.976586e+003,4.106860e+001
1.977550e+003,4.195190e+001
1.978514e+003,4.092267e+001
1.979479e+003,4.340283e+001
1.980443e+003,4.977222e+001
1.981407e+003,5.389313e+001
1.982371e+003,5.359979e+001
1.983335e+003,5.189954e+001
1.984300e+003,5.064093e+001
1.985264e+003,4.970618e+001
1.986228e+003,4.941345e+001
1.987192e+003,4.932776e+001
1.988157e+003,4.700525e+001
1.989121e+003,4.155145e+001
1.990085e+003,3.951440e+001
1.991049e+003,4.314471e+001
1.992014e+003,4.614008e+001
1.992978e+003,4.768182e+001
1.993942e+003,4.810699e+001
1.994906e+003,4.676355e+001
1.995871e+003,4.518616e+001
1.996835e+003,4.399274e+001
1.997799e+003,4.385199e+001
1.998763e+003,4.614557e+001
1.999728e+003,4.995905e+001
