5.003444e+002,2.127131e+002
5.013087e+002,2.134282e+002
5.022729e+002,2.091577e+002
5.032371e+002,2.022867e+002
5.042014e+002,1.984099e+002
5.051656e+002,1.972942e+002
5.061298e+002,1.974452e+002
5.070941e+002,1.975002e+002
5.080583e+002,1.972408e+002
5.090225e+002,1.956024e+002
5.099868e+002,1.925356e+002
5.109510e+002,1.886398e+002
5.119152e+002,1.837516e+002
5.128795e+002,1.778073e+002
5.138437e+002,1.730892e+002
5.148079e+002,1.715630e+002
5.157722e+002,1.706420e+002
5.167364e+002,1.686886e+002
5.177006e+002,1.655834e+002
5.186649e+002,1.628782e+002
5.196291e+002,1.645403e+002
5.205933e+002,1.676906e+002
5.215576e+002,1.675314e+002
5.225218e+002,1.633339e+002
5.234860e+002,1.570583e+002
5.244503e+002,1.529344e+002
5.254145e+002,1.527417e+002
5.263787e+002,1.519932e+002
5.273430e+002,1.498745e+002
5.283072e+002,1.477429e+002
5.292714e+002,1.477303e+002
5.302357e+002,1.514065e+002
5.311999e+002,1.511622e+002
5.321641e+002,1.443436e+002
5.331284e+002,1.369210e+002
5.340926e+002,1.339617e+002
5.350568e+002,1.372990e+002
5.360211e+002,1.396995e+002
5.369853e+002,1.337554e+002
5.379495e+002,1.256470e+002
5.389138e+002,1.199386e+002
5.398780e+002,1.183320e+002
5.408422e+002,1.193250e+002
5.418065e+002,1.197041e+002
5.427707e+002,1.194271e+002
5.437349e+002,1.173557e+002
5.446992e+002,1.122306e+002
5.456634e+002,1.054751e+002
5.466276e+002,1.024373e+002
5.475919e+002,1.097003e+002
5.485561e+002,1.130620e+002
5.495203e+002,1.093243e+002
5.504846e+002,1.017656e+002
5.514488e+002,9.504395e+001
5.524130e+002,9.060510e+001
5.533773e+002,8.880249e+001
5.543415e+002,9.161621e+001
5.553057e+002,9.549707e+001
5.562700e+002,9.608081e+001
5.572342e+002,9.065674e+001
5.581984e+002,8.262280e+001
5.591627e+002,8.156506e+001
5.601269e+002,8.515430e+001
5.610911e+002,8.795569e+001
5.620554e+002,8.693982e+001
5.630196e+002,8.235498e+001
5.639838e+002,7.870703e+001
5.649481e+002,7.690454e+001
5.659123e+002,7.478906e+001
5.668765e+002,7.213660e+001
5.678408e+002,6.979028e+001
5.688050e+002,6.926575e+001
5.697692e+002,7.179822e+001
5.707335e+002,7.294360e+001
5.716977e+002,7.152100e+001
5.726619e+002,6.848804e+001
5.736262e+002,6.499573e+001
5.745904e+002,6.177405e+001
5.755546e+002,5.918652e+001
5.765189e+002,5.632275e+001
5.774831e+002,5.346948e+001
5.784473e+002,5.265967e+001
5.794116e+002,5.552161e+001
5.803758e+002,6.183801e+001
5.813400e+002,6.272095e+001
5.823043e+002,5.555518e+001
5.832685e+002,4.908240e+001
5.842327e+002,4.721899e+001
5.851970e+002,4.970007e+001
5.861612e+002,5.211047e+001
5.871254e+002,5.417883e+001
5.880897e+002,5.474670e+001
5.890539e+002,5.207446e+001
5.900181e+002,4.767065e+001
5.909824e+002,4.420996e+001
5.919466e+002,4.384314e+001
5.929108e+002,4.457666e+001
5.938751e+002,4.459863e+001
5.948393e+002,4.382495e+001
5.958035e+002,4.182837e+001
5.967678e+002,3.842651e+001
5.977320e+002,3.433423e+001
5.986962e+002,3.368896e+001
5.996605e+002,3.575708e+001
6.006247e+002,3.736511e+001
6.015889e+002,3.665491e+001
6.025532e+002,3.394275e+001
6.035174e+002,3.282349e+001
6.044816e+002,3.566333e+001
6.054459e+002,3.787634e+001
6.064101e+002,3.907532e+001
6.073743e+002,3.909326e+001
6.083386e+002,3.768665e+001
6.093028e+002,3.419800e+001
6.102670e+002,3.065479e+001
6.112313e+002,2.806653e+001
6.121955e+002,2.637903e+001
6.131597e+002,2.568347e+001
6.141240e+002,2.599292e+001
6.150882e+002,2.688135e+001
6.160524e+002,2.663147e+001
6.170167e+002,2.575171e+001
6.179809e+002,2.578955e+001
6.189451e+002,2.745544e+001
6.199094e+002,3.013208e+001
6.208736e+002,3.133740e+001
6.218378e+002,3.065430e+001
6.228021e+002,3.012012e+001
6.237663e+002,2.974805e+001
6.247305e+002,2.987085e+001
6.256948e+002,3.093469e+001
6.266590e+002,3.323438e+001
6.276232e+002,3.460950e+001
6.285875e+002,3.457886e+001
6.295517e+002,3.372253e+001
6.305159e+002,3.228076e+001
6.314802e+002,3.024805e+001
6.324444e+002,2.750403e+001
6.334086e+002,2.363684e+001
6.343729e+002,1.972351e+001
6.353371e+002,1.840076e+001
6.363013e+002,2.101709e+001
6.372656e+002,2.578650e+001
6.382298e+002,2.676428e+001
6.391940e+002,1.893848e+001
6.401583e+002,1.320410e+001
6.411225e+002,1.183252e+001
6.420867e+002,1.276929e+001
6.430510e+002,1.317847e+001
6.440152e+002,1.173865e+001
6.449794e+002,9.617188e+000
6.459437e+002,6.440186e+000
6.469079e+002,3.679810e+000
6.478721e+002,3.555176e+000
6.488364e+002,6.475342e+000
6.498006e+002,9.793213e+000
6.507648e+002,7.159790e+000
6.517291e+002,9.982910e-001
6.526933e+002,-1.869507e+000
6.536575e+002,-6.213379e-002
6.546218e+002,3.910278e+000
6.555860e+002,5.193848e+000
6.565502e+002,1.711304e+000
6.575145e+002,-3.492432e-001
6.584787e+002,-4.229736e-001
6.594429e+002,3.417969e-001
6.604072e+002,1.430664e+000
6.613714e+002,2.922241e+000
6.623356e+002,3.542114e+000
6.632999e+002,5.644531e-001
6.642641e+002,-2.394897e+000
6.652283e+002,-2.067383e+000
6.661926e+002,1.243896e+000
6.671568e+002,4.128174e+000
6.681210e+002,1.379517e+000
6.690853e+002,-4.467041e+000
6.700495e+002,-5.661011e+000
6.710137e+002,-2.236694e+000
6.719780e+002,2.601685e+000
6.729422e+002,5.485474e+000
6.739064e+002,5.938232e+000
6.748707e+002,5.545288e+000
6.758349e+002,4.838013e+000
6.767991e+002,2.794189e+000
6.777634e+002,-2.092041e+000
6.787276e+002,-8.662964e+000
6.796918e+002,-1.149493e+001
6.806561e+002,-5.329529e+000
6.816203e+002,4.030762e-001
6.825845e+002,2.049316e+000
6.835488e+002,7.835693e-001
6.845130e+002,-1.161377e+000
6.854772e+002,-2.133545e+000
6.864415e+002,-1.889282e+000
6.874057e+002,-1.595459e+000
6.883699e+002,-1.386841e+000
6.893342e+002,1.026733e+000
6.902984e+002,7.494751e+000
6.912626e+002,1.688452e+001
6.922269e+002,2.011035e+001
6.931911e+002,1.224280e+001
6.941553e+002,6.500488e+000
6.951196e+002,4.074707e+000
6.960838e+002,3.168945e+000
6.970480e+002,1.026001e+000
6.980123e+002,-3.923401e+000
6.989765e+002,-6.425171e+000
6.999407e+002,-3.331909e+000
7.009050e+002,1.473511e+000
7.018692e+002,5.241943e+000
7.028334e+002,6.815979e+000
7.037977e+002,6.751221e+000
7.047619e+002,5.632324e+000
7.057261e+002,4.333557e+000
7.066904e+002,3.913574e+000
7.076546e+002,4.500000e+000
7.086188e+002,5.202698e+000
7.095831e+002,4.493408e+000
7.105473e+002,1.164246e+000
7.115115e+002,-6.795044e-001
7.124758e+002,3.121338e-001
7.134400e+002,7.847290e-001
7.144042e+002,-2.217651e+000
7.153685e+002,-8.353638e+000
7.163327e+002,-1.150128e+001
7.172969e+002,-4.922791e+000
7.182612e+002,1.889465e+000
7.192254e+002,5.274048e+000
7.201896e+002,5.440063e+000
7.211539e+002,3.716431e+000
7.221181e+002,1.005493e+000
7.230823e+002,-1.838196e+000
7.240466e+002,-2.365967e+000
7.250108e+002,-6.372681e-001
7.259750e+002,1.537048e+000
7.269393e+002,2.658569e+000
7.279035e+002,2.216919e+000
7.288677e+002,1.011963e+000
7.298320e+002,-7.868652e-001
7.307962e+002,-1.121765e+000
7.317604e+002,1.160767e+000
7.327247e+002,4.733643e+000
7.336889e+002,7.431641e+000
7.346531e+002,7.894897e+000
7.356174e+002,6.391907e+000
7.365816e+002,3.437927e+000
7.375458e+002,7.658691e-001
7.385101e+002,-4.150391e-001
7.394743e+002,1.730347e-001
7.404385e+002,1.946228e+000
7.414028e+002,4.180359e+000
7.423670e+002,5.405945e+000
7.433312e+002,4.653381e+000
7.442955e+002,2.588867e+000
7.452597e+002,7.102661e-001
7.462239e+002,1.997681e-001
7.471882e+002,9.810791e-001
7.481524e+002,2.409485e+000
7.491166e+002,4.453918e+000
7.500809e+002,5.408325e+000
7.510451e+002,4.428528e+000
7.520093e+002,1.835938e+000
7.529736e+002,-1.259277e+000
7.539378e+002,-4.542908e+000
7.549020e+002,-6.221130e+000
7.558663e+002,-4.891541e+000
7.568306e+002,-1.853821e+000
7.577948e+002,1.141479e+000
7.587590e+002,2.812744e+000
7.597233e+002,3.086914e+000
7.606875e+002,2.598755e+000
7.616517e+002,1.877808e+000
7.626160e+002,1.878540e+000
7.635802e+002,3.267212e+000
7.645444e+002,5.340027e+000
7.655087e+002,6.325623e+000
7.664729e+002,5.046814e+000
7.674371e+002,4.892822e+000
7.684014e+002,5.850586e+000
7.693656e+002,7.785706e+000
7.703298e+002,1.160382e+001
7.712941e+002,1.704724e+001
7.722583e+002,2.124506e+001
7.732225e+002,2.089551e+001
7.741868e+002,1.940894e+001
7.751510e+002,1.964349e+001
7.761152e+002,2.116296e+001
7.770795e+002,2.203333e+001
7.780437e+002,2.043927e+001
7.790079e+002,1.680212e+001
7.799722e+002,1.693341e+001
7.809364e+002,2.119159e+001
7.819006e+002,2.429187e+001
7.828649e+002,2.400879e+001
7.838291e+002,2.164178e+001
7.847933e+002,2.063135e+001
7.857576e+002,2.135034e+001
7.867218e+002,2.119086e+001
7.876860e+002,2.055762e+001
7.886503e+002,1.953198e+001
7.896145e+002,1.733911e+001
7.905787e+002,1.405725e+001
7.915430e+002,1.219861e+001
7.925072e+002,1.532080e+001
7.934714e+002,1.995068e+001
7.944357e+002,2.362000e+001
7.953999e+002,2.620099e+001
7.963641e+002,2.762213e+001
7.973284e+002,2.748804e+001
7.982926e+002,2.566467e+001
7.992568e+002,2.512299e+001
8.002211e+002,2.582446e+001
8.011853e+002,2.495532e+001
8.021495e+002,2.098505e+001
8.031138e+002,1.607495e+001
8.040780e+002,1.562866e+001
8.050422e+002,2.289240e+001
8.060065e+002,2.928943e+001
8.069707e+002,3.200891e+001
8.079349e+002,3.200433e+001
8.088992e+002,2.963074e+001
8.098634e+002,2.567175e+001
8.108276e+002,2.253107e+001
8.117919e+002,2.472083e+001
8.127561e+002,2.827319e+001
8.137203e+002,2.602228e+001
8.146846e+002,1.792737e+001
8.156488e+002,9.776428e+000
8.166130e+002,8.469666e+000
8.175773e+002,1.526587e+001
8.185415e+002,2.041138e+001
8.195057e+002,2.366064e+001
8.204700e+002,2.492072e+001
8.214342e+002,2.248944e+001
8.223984e+002,1.806641e+001
8.233627e+002,1.641101e+001
8.243269e+002,2.116028e+001
8.252911e+002,2.524182e+001
8.262554e+002,2.333051e+001
8.272196e+002,1.938690e+001
8.281838e+002,1.771442e+001
8.291481e+002,1.964978e+001
8.301123e+002,2.267395e+001
8.310765e+002,2.213000e+001
8.320408e+002,1.824615e+001
8.330050e+002,1.647931e+001
8.339692e+002,1.756897e+001
8.349335e+002,1.984332e+001
8.358977e+002,2.245642e+001
8.368619e+002,2.615656e+001
8.378262e+002,2.714563e+001
8.387904e+002,2.099481e+001
8.397546e+002,1.618268e+001
8.407189e+002,1.552991e+001
8.416831e+002,1.756451e+001
8.426473e+002,1.918481e+001
8.436116e+002,1.878625e+001
8.445758e+002,1.921436e+001
8.455400e+002,2.387817e+001
8.465043e+002,2.957281e+001
8.474685e+002,3.382800e+001
8.484327e+002,3.621936e+001
8.493970e+002,3.724225e+001
8.503612e+002,3.685663e+001
8.513254e+002,3.435437e+001
8.522897e+002,3.389771e+001
8.532539e+002,3.617694e+001
8.542181e+002,3.853857e+001
8.551824e+002,3.969983e+001
8.561466e+002,4.048578e+001
8.571108e+002,4.311902e+001
8.580751e+002,4.821277e+001
8.590393e+002,5.203864e+001
8.600035e+002,5.326855e+001
8.609678e+002,5.377112e+001
8.619320e+002,5.584344e+001
8.628962e+002,6.020435e+001
8.638605e+002,6.479480e+001
8.648247e+002,6.637408e+001
8.657889e+002,6.578650e+001
8.667532e+002,6.476746e+001
8.677174e+002,6.354694e+001
8.686816e+002,6.270203e+001
8.696459e+002,6.302246e+001
8.706101e+002,6.487787e+001
8.715743e+002,6.760571e+001
8.725386e+002,7.235925e+001
8.735028e+002,7.657684e+001
8.744670e+002,7.813074e+001
8.754313e+002,7.822205e+001
8.763955e+002,8.001300e+001
8.773597e+002,8.544196e+001
8.783240e+002,9.064465e+001
8.792882e+002,9.231714e+001
8.802524e+002,9.236578e+001
8.812167e+002,9.202271e+001
8.821809e+002,9.187854e+001
8.831451e+002,9.229254e+001
8.841094e+002,9.383801e+001
8.850736e+002,9.697253e+001
8.860378e+002,1.009507e+002
8.870021e+002,1.054662e+002
8.879663e+002,1.103256e+002
8.889305e+002,1.166924e+002
8.898948e+002,1.233700e+002
8.908590e+002,1.244712e+002
8.918232e+002,1.143776e+002
8.927875e+002,1.084883e+002
8.937517e+002,1.126320e+002
8.947159e+002,1.198824e+002
8.956802e+002,1.238679e+002
8.966444e+002,1.231115e+002
8.976086e+002,1.215937e+002
8.985729e+002,1.243198e+002
8.995371e+002,1.291233e+002
9.005013e+002,1.309965e+002
9.014656e+002,1.307146e+002
9.024298e+002,1.315983e+002
9.033940e+002,1.359855e+002
9.043583e+002,1.427513e+002
9.053225e+002,1.466627e+002
9.062867e+002,1.447728e+002
9.072510e+002,1.426741e+002
9.082152e+002,1.407972e+002
9.091794e+002,1.398937e+002
9.101437e+002,1.406242e+002
9.111079e+002,1.430417e+002
9.120721e+002,1.461263e+002
9.130364e+002,1.503124e+002
9.140006e+002,1.529524e+002
9.149648e+002,1.519032e+002
9.159291e+002,1.489217e+002
9.168933e+002,1.472627e+002
9.178575e+002,1.488901e+002
9.188218e+002,1.520716e+002
9.197860e+002,1.516462e+002
9.207502e+002,1.473186e+002
9.217145e+002,1.426558e+002
9.226787e+002,1.388207e+002
9.236429e+002,1.358463e+002
9.246072e+002,1.332632e+002
9.255714e+002,1.305865e+002
9.265356e+002,1.284249e+002
9.274999e+002,1.269590e+002
9.284641e+002,1.254152e+002
9.294283e+002,1.240813e+002
9.303926e+002,1.228065e+002
9.313568e+002,1.210484e+002
9.323210e+002,1.184266e+002
9.332853e+002,1.156851e+002
9.342495e+002,1.146708e+002
9.352137e+002,1.140951e+002
9.361780e+002,1.122018e+002
9.371422e+002,1.090657e+002
9.381064e+002,1.062136e+002
9.390707e+002,1.053015e+002
9.400349e+002,1.062272e+002
9.409991e+002,1.054557e+002
9.419634e+002,1.010327e+002
9.429276e+002,9.735016e+001
9.438918e+002,9.580286e+001
9.448561e+002,9.585974e+001
9.458203e+002,9.683600e+001
9.467845e+002,9.897168e+001
9.477488e+002,1.008593e+002
9.487130e+002,1.010700e+002
9.496772e+002,1.006018e+002
9.506415e+002,9.985291e+001
9.516057e+002,9.909552e+001
9.525699e+002,9.879980e+001
9.535342e+002,9.937988e+001
9.544984e+002,1.003736e+002
9.554626e+002,9.939966e+001
9.564269e+002,9.664673e+001
9.573911e+002,9.540619e+001
9.583553e+002,9.746552e+001
9.593196e+002,1.007811e+002
9.602838e+002,1.020298e+002
9.612480e+002,1.005204e+002
9.622123e+002,9.840955e+001
9.631765e+002,9.759778e+001
9.641407e+002,9.550470e+001
9.651050e+002,8.921887e+001
9.660692e+002,8.044006e+001
9.670334e+002,7.257013e+001
9.679977e+002,6.796326e+001
9.689619e+002,6.720044e+001
9.699261e+002,7.222321e+001
9.708904e+002,8.097571e+001
9.718546e+002,8.947375e+001
9.728188e+002,9.655475e+001
9.737831e+002,1.034852e+002
9.747473e+002,1.128204e+002
9.757115e+002,1.257348e+002
9.766758e+002,1.356705e+002
9.776400e+002,1.437365e+002
9.786042e+002,1.484297e+002
9.795685e+002,1.483680e+002
9.805327e+002,1.442146e+002
9.814969e+002,1.367220e+002
9.824612e+002,1.265038e+002
9.834254e+002,1.156537e+002
9.843896e+002,1.044171e+002
9.853539e+002,9.363898e+001
9.863181e+002,8.423792e+001
9.872823e+002,7.611047e+001
9.882466e+002,6.952081e+001
9.892108e+002,6.529419e+001
9.901750e+002,6.400452e+001
9.911393e+002,6.439716e+001
9.921035e+002,6.655493e+001
9.930677e+002,6.709583e+001
9.940320e+002,6.424994e+001
9.949962e+002,6.211377e+001
9.959604e+002,6.529053e+001
9.969247e+002,7.393256e+001
9.978889e+002,8.209436e+001
9.988531e+002,8.622449e+001
9.998174e+002,8.828876e+001
1.000782e+003,8.965283e+001
1.001746e+003,9.084814e+001
1.002710e+003,9.239886e+001
1.003674e+003,9.434094e+001
1.004639e+003,9.595862e+001
1.005603e+003,9.606049e+001
1.006567e+003,9.424170e+001
1.007531e+003,9.108008e+001
1.008495e+003,8.518365e+001
1.009460e+003,8.085925e+001
1.010424e+003,8.193457e+001
1.011388e+003,8.709259e+001
1.012352e+003,9.048492e+001
1.013317e+003,9.076929e+001
1.014281e+003,8.973962e+001
1.015245e+003,8.877338e+001
1.016209e+003,8.596057e+001
1.017174e+003,7.914465e+001
1.018138e+003,6.913361e+001
1.019102e+003,5.895062e+001
1.020066e+003,5.112555e+001
1.021031e+003,4.540369e+001
1.021995e+003,3.995911e+001
1.022959e+003,3.432806e+001
1.023923e+003,2.970105e+001
1.024887e+003,2.649176e+001
1.025852e+003,2.416479e+001
1.026816e+003,2.243762e+001
1.027780e+003,2.215906e+001
1.028744e+003,2.047821e+001
1.029709e+003,1.516431e+001
1.030673e+003,1.055157e+001
1.031637e+003,7.429932e+000
1.032601e+003,5.655701e+000
1.033566e+003,5.528137e+000
1.034530e+003,7.220093e+000
1.035494e+003,9.170105e+000
1.036458e+003,8.854858e+000
1.037422e+003,7.775208e+000
1.038387e+003,8.991211e+000
1.039351e+003,1.222870e+001
1.040315e+003,1.523206e+001
1.041279e+003,1.651703e+001
1.042244e+003,1.660040e+001
1.043208e+003,1.689709e+001
1.044172e+003,1.681879e+001
1.045136e+003,1.692078e+001
1.046101e+003,1.792328e+001
1.047065e+003,1.892578e+001
1.048029e+003,1.877100e+001
1.048993e+003,1.778833e+001
1.049958e+003,1.814093e+001
1.050922e+003,2.205396e+001
1.051886e+003,2.532581e+001
1.052850e+003,2.215527e+001
1.053814e+003,1.636005e+001
1.054779e+003,1.260297e+001
1.055743e+003,1.188873e+001
1.056707e+003,1.282147e+001
1.057671e+003,1.387775e+001
1.058636e+003,1.495215e+001
1.059600e+003,1.434052e+001
1.060564e+003,1.062494e+001
1.061528e+003,8.708191e+000
1.062493e+003,9.132202e+000
1.063457e+003,1.070947e+001
1.064421e+003,1.316821e+001
1.065385e+003,1.659198e+001
1.066349e+003,1.878540e+001
1.067314e+003,1.841791e+001
1.068278e+003,1.662689e+001
1.069242e+003,1.281110e+001
1.070206e+003,8.994873e+000
1.071171e+003,8.671143e+000
1.072135e+003,1.269580e+001
1.073099e+003,1.769031e+001
1.074063e+003,1.829755e+001
1.075028e+003,1.420416e+001
1.075992e+003,1.180426e+001
1.076956e+003,1.114624e+001
1.077920e+003,1.081482e+001
1.078885e+003,1.152252e+001
1.079849e+003,1.252399e+001
1.080813e+003,1.148059e+001
1.081777e+003,7.490540e+000
1.082741e+003,5.257080e+000
1.083706e+003,8.711731e+000
1.084670e+003,1.219617e+001
1.085634e+003,1.282074e+001
1.086598e+003,1.100159e+001
1.087563e+003,7.819153e+000
1.088527e+003,4.316406e+000
1.089491e+003,1.861633e+000
1.090455e+003,2.621155e+000
1.091420e+003,6.617676e+000
1.092384e+003,9.154968e+000
1.093348e+003,9.964111e+000
1.094312e+003,9.138306e+000
1.095276e+003,5.831848e+000
1.096241e+003,1.583252e+000
1.097205e+003,5.661621e-001
1.098169e+003,4.105774e+000
1.099133e+003,7.203674e+000
1.100098e+003,8.598816e+000
1.101062e+003,8.943237e+000
1.102026e+003,7.677551e+000
1.102990e+003,5.834778e+000
1.103955e+003,5.583313e+000
1.104919e+003,8.081360e+000
1.105883e+003,1.130194e+001
1.106847e+003,1.065454e+001
1.107812e+003,6.071838e+000
1.108776e+003,5.251831e+000
1.109740e+003,1.022186e+001
1.110704e+003,1.544183e+001
1.111668e+003,1.746240e+001
1.112633e+003,1.708899e+001
1.113597e+003,1.593561e+001
1.114561e+003,1.243591e+001
1.115525e+003,1.123022e+001
1.116490e+003,1.613354e+001
1.117454e+003,2.107404e+001
1.118418e+003,2.216895e+001
1.119382e+003,2.042462e+001
1.120347e+003,1.848730e+001
1.121311e+003,1.758325e+001
1.122275e+003,1.760406e+001
1.123239e+003,2.065662e+001
1.124203e+003,2.684290e+001
1.125168e+003,2.905109e+001
1.126132e+003,2.542944e+001
1.127096e+003,2.172296e+001
1.128060e+003,2.178571e+001
1.129025e+003,2.497290e+001
1.129989e+003,2.949463e+001
1.130953e+003,3.642505e+001
1.131917e+003,4.135956e+001
1.132882e+003,4.206158e+001
1.133846e+003,4.222699e+001
1.134810e+003,4.380206e+001
1.135774e+003,4.687354e+001
1.136739e+003,5.077380e+001
1.137703e+003,5.507196e+001
1.138667e+003,5.978448e+001
1.139631e+003,6.508496e+001
1.140595e+003,7.091498e+001
1.141560e+003,7.716943e+001
1.142524e+003,8.374945e+001
1.143488e+003,9.263373e+001
1.144452e+003,1.051489e+002
1.145417e+003,1.208433e+002
1.146381e+003,1.382989e+002
1.147345e+003,1.577701e+002
1.148309e+003,1.777258e+002
1.149274e+003,1.981274e+002
1.150238e+003,2.190553e+002
1.151202e+003,2.420503e+002
1.152166e+003,2.657554e+002
1.153130e+003,2.876937e+002
1.154095e+003,3.062080e+002
1.155059e+003,3.211345e+002
1.156023e+003,3.339189e+002
1.156987e+003,3.434395e+002
1.157952e+003,3.428345e+002
1.158916e+003,3.318641e+002
1.159880e+003,3.183075e+002
1.160844e+003,3.055693e+002
1.161809e+003,2.914162e+002
1.162773e+003,2.716940e+002
1.163737e+003,2.450767e+002
1.164701e+003,2.191501e+002
1.165666e+003,1.952661e+002
1.166630e+003,1.737981e+002
1.167594e+003,1.541086e+002
1.168558e+003,1.371669e+002
1.169522e+003,1.241339e+002
1.170487e+003,1.154587e+002
1.171451e+003,1.115735e+002
1.172415e+003,1.134683e+002
1.173379e+003,1.196389e+002
1.174344e+003,1.234905e+002
1.175308e+003,1.256075e+002
1.176272e+003,1.240838e+002
1.177236e+003,1.163406e+002
1.178201e+003,1.065070e+002
1.179165e+003,9.985693e+001
1.180129e+003,9.603931e+001
1.181093e+003,9.029791e+001
1.182057e+003,7.979932e+001
1.183022e+003,7.064532e+001
1.183986e+003,6.482971e+001
1.184950e+003,6.145355e+001
1.185914e+003,6.040588e+001
1.186879e+003,6.114331e+001
1.187843e+003,6.230402e+001
1.188807e+003,6.261029e+001
1.189771e+003,6.252368e+001
1.190736e+003,6.448596e+001
1.191700e+003,6.886963e+001
1.192664e+003,7.046631e+001
1.193628e+003,6.797113e+001
1.194593e+003,6.437262e+001
1.195557e+003,6.132104e+001
1.196521e+003,5.868182e+001
1.197485e+003,5.647064e+001
1.198449e+003,5.523322e+001
1.199414e+003,5.300037e+001
1.200378e+003,4.843408e+001
1.201342e+003,4.308752e+001
1.202306e+003,3.680023e+001
1.203271e+003,3.038477e+001
1.204235e+003,2.565320e+001
1.205199e+003,2.341992e+001
1.206163e+003,2.205212e+001
1.207128e+003,1.858667e+001
1.208092e+003,1.291156e+001
1.209056e+003,9.166504e+000
1.210020e+003,9.942505e+000
1.210984e+003,7.441345e+000
1.211949e+003,-4.229370e+000
1.212913e+003,-1.832300e+001
1.213877e+003,-2.521063e+001
1.214841e+003,-2.433600e+001
1.215806e+003,-2.412524e+001
1.216770e+003,-2.860638e+001
1.217734e+003,-3.350250e+001
1.218698e+003,-3.567438e+001
1.219663e+003,-3.695972e+001
1.220627e+003,-3.960229e+001
1.221591e+003,-4.386987e+001
1.222555e+003,-4.869006e+001
1.223520e+003,-5.306207e+001
1.224484e+003,-5.640320e+001
1.225448e+003,-5.678851e+001
1.226412e+003,-5.168439e+001
1.227376e+003,-4.964874e+001
1.228341e+003,-5.306598e+001
1.229305e+003,-5.706653e+001
1.230269e+003,-5.984448e+001
1.231233e+003,-6.115973e+001
1.232198e+003,-5.973944e+001
1.233162e+003,-5.480109e+001
1.234126e+003,-5.139191e+001
1.235090e+003,-5.544543e+001
1.236055e+003,-6.126672e+001
1.237019e+003,-6.196106e+001
1.237983e+003,-5.934698e+001
1.238947e+003,-5.851086e+001
1.239911e+003,-6.133527e+001
1.240876e+003,-6.494879e+001
1.241840e+003,-6.506732e+001
1.242804e+003,-6.135205e+001
1.243768e+003,-5.989917e+001
1.244733e+003,-6.576843e+001
1.245697e+003,-6.690399e+001
1.246661e+003,-5.853357e+001
1.247625e+003,-4.945850e+001
1.248590e+003,-4.637854e+001
1.249554e+003,-4.794623e+001
1.250518e+003,-4.859668e+001
1.251482e+003,-4.596838e+001
1.252447e+003,-4.327386e+001
1.253411e+003,-4.501361e+001
1.254375e+003,-4.839307e+001
1.255339e+003,-4.726404e+001
1.256303e+003,-4.138757e+001
1.257268e+003,-3.587958e+001
1.258232e+003,-3.422235e+001
1.259196e+003,-3.491614e+001
1.260160e+003,-3.410919e+001
1.261125e+003,-3.105548e+001
1.262089e+003,-2.860974e+001
1.263053e+003,-2.886237e+001
1.264017e+003,-2.835016e+001
1.264982e+003,-2.589215e+001
1.265946e+003,-2.225519e+001
1.266910e+003,-1.681726e+001
1.267874e+003,-1.086737e+001
1.268839e+003,-7.776550e+000
1.269803e+003,-9.783630e+000
1.270767e+003,-1.513959e+001
1.271731e+003,-2.113348e+001
1.272695e+003,-2.737189e+001
1.273660e+003,-3.095166e+001
1.274624e+003,-3.132642e+001
1.275588e+003,-3.223840e+001
1.276552e+003,-3.584784e+001
1.277517e+003,-4.046136e+001
1.278481e+003,-4.357977e+001
1.279445e+003,-4.519739e+001
1.280409e+003,-4.555493e+001
1.281374e+003,-4.302039e+001
1.282338e+003,-4.141553e+001
1.283302e+003,-4.431604e+001
1.284266e+003,-4.827600e+001
1.285230e+003,-4.836853e+001
1.286195e+003,-4.490143e+001
1.287159e+003,-4.315863e+001
1.288123e+003,-4.732867e+001
1.289087e+003,-5.444348e+001
1.290052e+003,-5.611896e+001
1.291016e+003,-5.060315e+001
1.291980e+003,-4.689246e+001
1.292944e+003,-4.608997e+001
1.293909e+003,-4.623572e+001
1.294873e+003,-4.598480e+001
1.295837e+003,-4.590009e+001
1.296801e+003,-4.761365e+001
1.297766e+003,-5.105939e+001
1.298730e+003,-5.313702e+001
1.299694e+003,-5.197491e+001
1.300658e+003,-4.994904e+001
1.301622e+003,-4.870593e+001
1.302587e+003,-4.838977e+001
1.303551e+003,-5.027979e+001
1.304515e+003,-5.412543e+001
1.305479e+003,-5.693481e+001
1.306444e+003,-5.653955e+001
1.307408e+003,-5.364240e+001
1.308372e+003,-4.959607e+001
1.309336e+003,-4.336401e+001
1.310301e+003,-3.937360e+001
1.311265e+003,-3.746674e+001
1.312229e+003,-3.772852e+001
1.313193e+003,-4.252777e+001
1.314157e+003,-4.820325e+001
1.315122e+003,-5.057465e+001
1.316086e+003,-4.976935e+001
1.317050e+003,-4.947607e+001
1.318014e+003,-5.203082e+001
1.318979e+003,-5.508130e+001
1.319943e+003,-5.440918e+001
1.320907e+003,-5.024609e+001
1.321871e+003,-4.704993e+001
1.322836e+003,-4.582605e+001
1.323800e+003,-4.459143e+001
1.324764e+003,-4.162189e+001
1.325728e+003,-3.816107e+001
1.326693e+003,-3.645233e+001
1.327657e+003,-3.680383e+001
1.328621e+003,-3.867834e+001
1.329585e+003,-4.253528e+001
1.330549e+003,-4.441168e+001
1.331514e+003,-4.198621e+001
1.332478e+003,-3.898242e+001
1.333442e+003,-3.888593e+001
1.334406e+003,-4.116736e+001
1.335371e+003,-4.304980e+001
1.336335e+003,-4.286273e+001
1.337299e+003,-4.154816e+001
1.338263e+003,-4.108380e+001
1.339228e+003,-4.166248e+001
1.340192e+003,-4.105927e+001
1.341156e+003,-3.823840e+001
1.342120e+003,-3.588110e+001
1.343084e+003,-3.498212e+001
1.344049e+003,-3.489728e+001
1.345013e+003,-3.457404e+001
1.345977e+003,-3.402148e+001
1.346941e+003,-3.419800e+001
1.347906e+003,-3.552509e+001
1.348870e+003,-3.710748e+001
1.349834e+003,-3.840192e+001
1.350798e+003,-3.955609e+001
1.351763e+003,-4.050916e+001
1.352727e+003,-4.114136e+001
1.353691e+003,-4.147314e+001
1.354655e+003,-4.150964e+001
1.355620e+003,-4.106622e+001
1.356584e+003,-3.935144e+001
1.357548e+003,-3.651868e+001
1.358512e+003,-3.544214e+001
1.359476e+003,-3.750824e+001
1.360441e+003,-3.945642e+001
1.361405e+003,-4.013147e+001
1.362369e+003,-4.039899e+001
1.363333e+003,-4.083038e+001
1.364298e+003,-4.100690e+001
1.365262e+003,-4.000781e+001
1.366226e+003,-3.785840e+001
1.367190e+003,-3.562555e+001
1.368155e+003,-3.423279e+001
1.369119e+003,-3.384259e+001
1.370083e+003,-3.504083e+001
1.371047e+003,-3.837000e+001
1.372011e+003,-3.990344e+001
1.372976e+003,-3.983807e+001
1.373940e+003,-3.877258e+001
1.374904e+003,-3.601184e+001
1.375868e+003,-3.258484e+001
1.376833e+003,-2.966858e+001
1.377797e+003,-2.759631e+001
1.378761e+003,-2.685712e+001
1.379725e+003,-2.795087e+001
1.380690e+003,-2.908325e+001
1.381654e+003,-2.782233e+001
1.382618e+003,-2.554712e+001
1.383582e+003,-2.434222e+001
1.384547e+003,-2.419257e+001
1.385511e+003,-2.384320e+001
1.386475e+003,-2.275635e+001
1.387439e+003,-2.160449e+001
1.388403e+003,-2.129572e+001
1.389368e+003,-2.187335e+001
1.390332e+003,-2.286047e+001
1.391296e+003,-2.510681e+001
1.392260e+003,-2.532629e+001
1.393225e+003,-2.055945e+001
1.394189e+003,-1.638245e+001
1.395153e+003,-1.652002e+001
1.396117e+003,-1.908643e+001
1.397082e+003,-2.106891e+001
1.398046e+003,-2.137183e+001
1.399010e+003,-2.036194e+001
1.399974e+003,-1.853082e+001
1.400938e+003,-1.729614e+001
1.401903e+003,-2.010870e+001
1.402867e+003,-2.775079e+001
1.403831e+003,-3.021112e+001
1.404795e+003,-2.486157e+001
1.405760e+003,-1.925787e+001
1.406724e+003,-1.581537e+001
1.407688e+003,-1.502124e+001
1.408652e+003,-1.784589e+001
1.409617e+003,-2.286066e+001
1.410581e+003,-2.543835e+001
1.411545e+003,-2.357416e+001
1.412509e+003,-1.993085e+001
1.413474e+003,-1.610712e+001
1.414438e+003,-1.353790e+001
1.415402e+003,-1.420703e+001
1.416366e+003,-1.728387e+001
1.417330e+003,-1.999298e+001
1.418295e+003,-2.136981e+001
1.419259e+003,-2.156293e+001
1.420223e+003,-2.036267e+001
1.421187e+003,-1.840051e+001
1.422152e+003,-1.821716e+001
1.423116e+003,-2.017560e+001
1.424080e+003,-2.124567e+001
1.425044e+003,-2.067834e+001
1.426009e+003,-1.981958e+001
1.426973e+003,-1.961694e+001
1.427937e+003,-1.921710e+001
1.428901e+003,-1.689355e+001
1.429865e+003,-1.285284e+001
1.430830e+003,-9.363770e+000
1.431794e+003,-8.097412e+000
1.432758e+003,-8.019897e+000
1.433722e+003,-6.511414e+000
1.434687e+003,-2.786499e+000
1.435651e+003,7.138672e-001
1.436615e+003,2.748169e+000
1.437579e+003,3.418091e+000
1.438544e+003,2.129211e+000
1.439508e+003,4.808350e-001
1.440472e+003,-7.718506e-001
1.441436e+003,-9.396362e-001
1.442401e+003,1.216553e+000
1.443365e+003,5.541565e+000
1.444329e+003,9.568298e+000
1.445293e+003,1.202026e+001
1.446257e+003,1.215015e+001
1.447222e+003,6.101135e+000
1.448186e+003,-4.416687e+000
1.449150e+003,-8.522522e+000
1.450114e+003,-3.799133e+000
1.451079e+003,5.801392e-001
1.452043e+003,-2.253418e-001
1.453007e+003,-3.241150e+000
1.453971e+003,-4.989685e+000
1.454936e+003,-5.687561e+000
1.455900e+003,-6.113159e+000
1.456864e+003,-6.143433e+000
1.457828e+003,-6.074890e+000
1.458792e+003,-6.617737e+000
1.459757e+003,-7.200134e+000
1.460721e+003,-7.208374e+000
1.461685e+003,-6.913391e+000
1.462649e+003,-7.073792e+000
1.463614e+003,-7.577271e+000
1.464578e+003,-6.749817e+000
1.465542e+003,-2.811035e+000
1.466506e+003,2.329285e+000
1.467471e+003,2.960327e+000
1.468435e+003,-1.818909e+000
1.469399e+003,-3.979858e+000
1.470363e+003,-2.683472e+000
1.471328e+003,-2.630005e-001
1.472292e+003,4.155701e+000
1.473256e+003,7.318054e+000
1.474220e+003,7.082031e+000
1.475184e+003,4.744873e+000
1.476149e+003,1.793274e+000
1.477113e+003,-1.008728e+000
1.478077e+003,-2.100769e+000
1.479041e+003,4.927368e-001
1.480006e+003,5.706055e+000
1.480970e+003,9.075256e+000
1.481934e+003,9.832397e+000
1.482898e+003,9.780273e+000
1.483863e+003,7.915710e+000
1.484827e+003,6.547546e+000
1.485791e+003,6.128357e+000
1.486755e+003,7.320435e+000
1.487719e+003,1.143121e+001
1.488684e+003,1.706598e+001
1.489648e+003,2.096582e+001
1.490612e+003,2.235095e+001
1.491576e+003,2.375214e+001
1.492541e+003,2.721613e+001
1.493505e+003,3.147986e+001
1.494469e+003,3.303326e+001
1.495433e+003,3.217706e+001
1.496398e+003,3.424731e+001
1.497362e+003,4.097662e+001
1.498326e+003,4.944159e+001
1.499290e+003,5.950317e+001
1.500255e+003,6.931519e+001
1.501219e+003,7.517267e+001
1.502183e+003,7.786792e+001
1.503147e+003,8.276001e+001
1.504111e+003,9.092462e+001
1.505076e+003,1.018272e+002
1.506040e+003,1.160511e+002
1.507004e+003,1.322931e+002
1.507968e+003,1.490449e+002
1.508933e+003,1.666635e+002
1.509897e+003,1.855741e+002
1.510861e+003,2.066421e+002
1.511825e+003,2.316448e+002
1.512790e+003,2.617289e+002
1.513754e+003,2.951676e+002
1.514718e+003,3.302156e+002
1.515682e+003,3.663991e+002
1.516646e+003,4.001654e+002
1.517611e+003,4.319155e+002
1.518575e+003,4.608754e+002
1.519539e+003,4.897817e+002
1.520503e+003,5.136482e+002
1.521468e+003,5.281808e+002
1.522432e+003,5.363564e+002
1.523396e+003,5.433705e+002
1.524360e+003,5.490025e+002
1.525325e+003,5.483871e+002
1.526289e+003,5.384189e+002
1.527253e+003,5.212759e+002
1.528217e+003,5.003075e+002
1.529182e+003,4.758767e+002
1.530146e+003,4.494249e+002
1.531110e+003,4.218503e+002
1.532074e+003,3.893862e+002
1.533039e+003,3.479575e+002
1.534003e+003,3.047050e+002
1.534967e+003,2.617737e+002
1.535931e+003,2.212262e+002
1.536896e+003,1.834998e+002
1.537860e+003,1.499519e+002
1.538824e+003,1.232483e+002
1.539788e+003,1.044001e+002
1.540752e+003,9.124200e+001
1.541717e+003,8.153894e+001
1.542681e+003,7.499969e+001
1.543645e+003,6.805151e+001
1.544609e+003,6.023010e+001
1.545573e+003,5.464618e+001
1.546538e+003,5.083667e+001
1.547502e+003,4.846576e+001
1.548466e+003,4.910504e+001
1.549430e+003,5.091040e+001
1.550395e+003,5.122217e+001
1.551359e+003,5.048267e+001
1.552323e+003,5.194702e+001
1.553287e+003,5.651141e+001
1.554252e+003,5.941827e+001
1.555216e+003,5.625812e+001
1.556180e+003,4.903503e+001
1.557144e+003,4.178375e+001
1.558109e+003,3.472510e+001
1.559073e+003,3.030865e+001
1.560037e+003,2.958344e+001
1.561001e+003,2.793414e+001
1.561966e+003,2.261902e+001
1.562930e+003,1.809906e+001
1.563894e+003,1.912897e+001
1.564858e+003,2.350732e+001
1.565823e+003,2.571051e+001
1.566787e+003,2.470703e+001
1.567751e+003,2.382446e+001
1.568715e+003,2.516522e+001
1.569679e+003,2.718829e+001
1.570644e+003,2.716943e+001
1.571608e+003,2.605933e+001
1.572572e+003,2.779730e+001
1.573536e+003,3.284204e+001
1.574500e+003,3.763690e+001
1.575465e+003,4.121771e+001
1.576429e+003,4.353802e+001
1.577393e+003,4.414252e+001
1.578357e+003,4.329712e+001
1.579322e+003,4.103418e+001
1.580286e+003,3.782233e+001
1.581250e+003,3.749567e+001
1.582214e+003,4.206659e+001
1.583179e+003,4.638226e+001
1.584143e+003,4.534717e+001
1.585107e+003,4.273218e+001
1.586071e+003,4.515918e+001
1.587036e+003,5.116205e+001
1.588000e+003,5.402362e+001
1.588964e+003,5.175586e+001
1.589928e+003,4.999170e+001
1.590893e+003,5.343622e+001
1.591857e+003,5.867389e+001
1.592821e+003,6.052100e+001
1.593785e+003,5.955469e+001
1.594750e+003,5.828217e+001
1.595714e+003,5.646521e+001
1.596678e+003,5.652460e+001
1.597642e+003,6.036786e+001
1.598606e+003,6.514960e+001
1.599571e+003,6.936694e+001
1.600535e+003,7.294519e+001
1.601499e+003,7.527802e+001
1.602463e+003,7.651147e+001
1.603427e+003,7.800720e+001
1.604392e+003,8.045947e+001
1.605356e+003,8.251392e+001
1.606320e+003,8.226184e+001
1.607284e+003,8.077356e+001
1.608249e+003,8.153638e+001
1.609213e+003,8.467639e+001
1.610177e+003,8.598956e+001
1.611141e+003,8.438513e+001
1.612106e+003,8.195416e+001
1.613070e+003,7.810333e+001
1.614034e+003,7.519525e+001
1.614998e+003,7.549536e+001
1.615963e+003,7.777472e+001
1.616927e+003,7.981238e+001
1.617891e+003,8.118158e+001
1.618855e+003,8.307678e+001
1.619820e+003,8.639240e+001
1.620784e+003,8.819592e+001
1.621748e+003,8.333466e+001
1.622712e+003,7.406689e+001
1.623677e+003,7.122772e+001
1.624641e+003,7.594373e+001
1.625605e+003,8.138855e+001
1.626569e+003,8.647272e+001
1.627533e+003,8.918292e+001
1.628498e+003,8.772437e+001
1.629462e+003,8.541345e+001
1.630426e+003,8.485577e+001
1.631390e+003,8.551917e+001
1.632354e+003,8.574908e+001
1.633319e+003,8.518500e+001
1.634283e+003,8.527142e+001
1.635247e+003,8.734247e+001
1.636211e+003,8.955896e+001
1.637176e+003,8.790179e+001
1.638140e+003,8.302216e+001
1.639104e+003,8.261389e+001
1.640068e+003,8.854755e+001
1.641033e+003,9.161786e+001
1.641997e+003,8.768903e+001
1.642961e+003,8.357593e+001
1.643925e+003,8.222327e+001
1.644890e+003,8.256195e+001
1.645854e+003,8.401727e+001
1.646818e+003,8.599744e+001
1.647782e+003,8.767914e+001
1.648747e+003,8.873474e+001
1.649711e+003,8.906482e+001
1.650675e+003,8.866498e+001
1.651639e+003,8.823376e+001
1.652604e+003,8.933191e+001
1.653568e+003,9.156506e+001
1.654532e+003,8.985309e+001
1.655496e+003,8.232831e+001
1.656460e+003,7.669196e+001
1.657425e+003,7.600378e+001
1.658389e+003,7.693683e+001
1.659353e+003,7.917432e+001
1.660317e+003,8.078998e+001
1.661281e+003,7.905658e+001
1.662246e+003,7.476624e+001
1.663210e+003,7.054779e+001
1.664174e+003,6.751520e+001
1.665138e+003,6.677045e+001
1.666103e+003,7.015472e+001
1.667067e+003,7.432312e+001
1.668031e+003,7.161890e+001
1.668995e+003,6.281433e+001
1.669960e+003,5.799786e+001
1.670924e+003,5.901666e+001
1.671888e+003,5.970721e+001
1.672852e+003,5.736810e+001
1.673817e+003,5.496460e+001
1.674781e+003,5.463849e+001
1.675745e+003,5.496777e+001
1.676709e+003,5.442548e+001
1.677674e+003,5.309845e+001
1.678638e+003,5.162701e+001
1.679602e+003,5.023615e+001
1.680566e+003,4.903149e+001
1.681531e+003,4.807941e+001
1.682495e+003,4.794537e+001
1.683459e+003,5.013464e+001
1.684423e+003,5.367389e+001
1.685387e+003,5.324561e+001
1.686352e+003,4.791974e+001
1.687316e+003,4.364172e+001
1.688280e+003,4.246002e+001
1.689244e+003,4.239734e+001
1.690208e+003,4.272754e+001
1.691173e+003,4.269635e+001
1.692137e+003,4.113751e+001
1.693101e+003,3.894208e+001
1.694065e+003,3.823871e+001
1.695030e+003,3.923676e+001
1.695994e+003,3.990967e+001
1.696958e+003,3.906384e+001
1.697922e+003,3.764838e+001
1.698887e+003,3.681189e+001
1.699851e+003,3.647937e+001
1.700815e+003,3.604572e+001
1.701779e+003,3.527332e+001
1.702744e+003,3.445740e+001
1.703708e+003,3.410571e+001
1.704672e+003,3.398090e+001
1.705636e+003,3.334100e+001
1.706601e+003,3.225708e+001
1.707565e+003,3.170392e+001
1.708529e+003,3.166333e+001
1.709493e+003,3.111829e+001
1.710458e+003,2.986719e+001
1.711422e+003,2.828882e+001
1.712386e+003,2.610547e+001
1.713350e+003,2.480920e+001
1.714314e+003,2.562665e+001
1.715279e+003,2.733630e+001
1.716243e+003,2.862390e+001
1.717207e+003,2.928040e+001
1.718171e+003,2.868475e+001
1.719135e+003,2.676038e+001
1.720100e+003,2.508435e+001
1.721064e+003,2.473853e+001
1.722028e+003,2.440973e+001
1.722992e+003,2.221741e+001
1.723957e+003,1.910083e+001
1.724921e+003,1.822803e+001
1.725885e+003,1.930133e+001
1.726849e+003,1.979895e+001
1.727814e+003,2.058411e+001
1.728778e+003,2.053168e+001
1.729742e+003,1.806824e+001
1.730706e+003,1.523608e+001
1.731671e+003,1.331201e+001
1.732635e+003,1.209790e+001
1.733599e+003,1.215912e+001
1.734563e+003,1.356506e+001
1.735528e+003,1.453058e+001
1.736492e+003,1.393781e+001
1.737456e+003,1.290594e+001
1.738420e+003,1.282635e+001
1.739385e+003,1.294263e+001
1.740349e+003,1.148535e+001
1.741313e+003,8.024109e+000
1.742277e+003,6.724915e+000
1.743241e+003,9.746887e+000
1.744206e+003,1.204144e+001
1.745170e+003,1.245459e+001
1.746134e+003,1.218390e+001
1.747098e+003,1.118878e+001
1.748063e+003,1.032886e+001
1.749027e+003,1.135870e+001
1.749991e+003,1.331384e+001
1.750955e+003,1.280176e+001
1.751919e+003,9.094849e+000
1.752884e+003,6.018372e+000
1.753848e+003,6.787659e+000
1.754812e+003,8.898743e+000
1.755776e+003,7.138123e+000
1.756741e+003,2.086121e+000
1.757705e+003,2.284363e+000
1.758669e+003,1.014465e+001
1.759633e+003,1.519623e+001
1.760598e+003,1.423938e+001
1.761562e+003,1.282208e+001
1.762526e+003,1.337921e+001
1.763490e+003,1.400281e+001
1.764455e+003,1.312085e+001
1.765419e+003,1.159613e+001
1.766383e+003,1.041736e+001
1.767347e+003,9.712280e+000
1.768312e+003,9.850830e+000
1.769276e+003,1.092981e+001
1.770240e+003,1.138373e+001
1.771204e+003,9.720276e+000
1.772168e+003,7.322388e+000
1.773133e+003,6.625549e+000
1.774097e+003,7.439575e+000
1.775061e+003,8.018066e+000
1.776025e+003,7.769531e+000
1.776990e+003,7.426636e+000
1.777954e+003,7.521667e+000
1.778918e+003,8.273132e+000
1.779882e+003,1.009625e+001
1.780846e+003,1.172229e+001
1.781811e+003,1.140155e+001
1.782775e+003,9.944092e+000
1.783739e+003,1.003040e+001
1.784703e+003,1.236957e+001
1.785668e+003,1.382764e+001
1.786632e+003,1.165070e+001
1.787596e+003,9.209595e+000
1.788560e+003,1.042810e+001
1.789525e+003,1.286029e+001
1.790489e+003,1.156207e+001
1.791453e+003,7.831604e+000
1.792417e+003,7.317688e+000
1.793382e+003,1.097919e+001
1.794346e+003,1.518713e+001
1.795310e+003,1.812811e+001
1.796274e+003,1.880365e+001
1.797239e+003,1.590570e+001
1.798203e+003,1.121564e+001
1.799167e+003,8.959473e+000
1.800131e+003,8.687256e+000
1.801095e+003,8.306030e+000
1.802060e+003,7.434387e+000
1.803024e+003,8.570129e+000
1.803988e+003,1.413672e+001
1.804952e+003,1.851233e+001
1.805917e+003,1.871362e+001
1.806881e+003,1.670239e+001
1.807845e+003,1.328119e+001
1.808809e+003,1.013647e+001
1.809773e+003,1.025116e+001
1.810738e+003,1.360083e+001
1.811702e+003,1.653033e+001
1.812666e+003,1.672955e+001
1.813630e+003,1.591577e+001
1.814595e+003,1.647345e+001
1.815559e+003,1.775616e+001
1.816523e+003,1.737708e+001
1.817487e+003,1.522723e+001
1.818452e+003,1.373859e+001
1.819416e+003,1.341107e+001
1.820380e+003,1.374768e+001
1.821344e+003,1.492065e+001
1.822309e+003,1.549731e+001
1.823273e+003,1.416956e+001
1.824237e+003,1.278784e+001
1.825201e+003,1.311328e+001
1.826166e+003,1.461536e+001
1.827130e+003,1.586096e+001
1.828094e+003,1.648102e+001
1.829058e+003,1.756488e+001
1.830022e+003,2.056842e+001
1.830987e+003,2.281812e+001
1.831951e+003,2.166095e+001
1.832915e+003,1.874402e+001
1.833879e+003,1.573193e+001
1.834844e+003,1.311676e+001
1.835808e+003,1.221039e+001
1.836772e+003,1.308063e+001
1.837736e+003,1.397241e+001
1.838700e+003,1.394843e+001
1.839665e+003,1.356183e+001
1.840629e+003,1.346735e+001
1.841593e+003,1.361481e+001
1.842557e+003,1.358191e+001
1.843522e+003,1.335547e+001
1.844486e+003,1.345752e+001
1.845450e+003,1.457599e+001
1.846414e+003,1.566309e+001
1.847379e+003,1.601056e+001
1.848343e+003,1.602643e+001
1.849307e+003,1.617096e+001
1.850271e+003,1.610883e+001
1.851236e+003,1.543286e+001
1.852200e+003,1.486285e+001
1.853164e+003,1.490411e+001
1.854128e+003,1.531757e+001
1.855093e+003,1.607275e+001
1.856057e+003,1.739758e+001
1.857021e+003,1.886676e+001
1.857985e+003,1.994189e+001
1.858949e+003,2.057648e+001
1.859914e+003,2.092206e+001
1.860878e+003,2.100378e+001
1.861842e+003,1.987195e+001
1.862806e+003,1.732806e+001
1.863771e+003,1.705292e+001
1.864735e+003,2.011536e+001
1.865699e+003,2.246368e+001
1.866663e+003,2.211493e+001
1.867627e+003,2.166528e+001
1.868592e+003,2.332257e+001
1.869556e+003,2.573138e+001
1.870520e+003,2.784222e+001
1.871484e+003,2.922626e+001
1.872449e+003,2.629480e+001
1.873413e+003,1.750037e+001
1.874377e+003,1.333386e+001
1.875341e+003,1.935193e+001
1.876306e+003,2.548267e+001
1.877270e+003,2.601709e+001
1.878234e+003,2.420551e+001
1.879198e+003,2.272729e+001
1.880163e+003,2.207031e+001
1.881127e+003,2.283783e+001
1.882091e+003,2.470306e+001
1.883055e+003,2.647430e+001
1.884020e+003,2.748108e+001
1.884984e+003,2.696692e+001
1.885948e+003,2.417120e+001
1.886912e+003,2.079138e+001
1.887876e+003,2.040509e+001
1.888841e+003,2.279407e+001
1.889805e+003,2.473926e+001
1.890769e+003,2.607874e+001
1.891733e+003,2.806561e+001
1.892698e+003,3.155902e+001
1.893662e+003,3.303247e+001
1.894626e+003,2.938690e+001
1.895590e+003,2.615717e+001
1.896554e+003,2.802258e+001
1.897519e+003,3.213892e+001
1.898483e+003,3.542828e+001
1.899447e+003,3.738464e+001
1.900411e+003,3.784290e+001
1.901376e+003,3.683063e+001
1.902340e+003,3.574469e+001
1.903304e+003,3.506445e+001
1.904268e+003,3.434747e+001
1.905233e+003,3.303760e+001
1.906197e+003,3.211951e+001
1.907161e+003,3.292584e+001
1.908125e+003,3.486652e+001
1.909090e+003,3.682410e+001
1.910054e+003,3.822168e+001
1.911018e+003,3.847571e+001
1.911982e+003,3.771783e+001
1.912947e+003,3.705481e+001
1.913911e+003,3.718652e+001
1.914875e+003,3.796252e+001
1.915839e+003,3.910187e+001
1.916803e+003,4.017432e+001
1.917768e+003,4.043011e+001
1.918732e+003,4.000641e+001
1.919696e+003,3.955505e+001
1.920660e+003,3.904852e+001
1.921625e+003,3.930029e+001
1.922589e+003,4.040906e+001
1.923553e+003,4.188708e+001
1.924517e+003,4.428625e+001
1.925481e+003,4.632190e+001
1.926446e+003,4.685126e+001
1.927410e+003,4.624677e+001
1.928374e+003,4.468536e+001
1.929338e+003,4.218066e+001
1.930303e+003,4.067938e+001
1.931267e+003,4.122571e+001
1.932231e+003,4.287170e+001
1.933195e+003,4.601672e+001
1.934160e+003,4.832556e+001
1.935124e+003,4.775946e+001
1.936088e+003,4.545868e+001
1.937052e+003,4.201581e+001
1.938017e+003,3.898468e+001
1.938981e+003,3.927502e+001
1.939945e+003,4.264441e+001
1.940909e+003,4.632867e+001
1.941874e+003,4.876971e+001
1.942838e+003,4.927783e+001
1.943802e+003,4.744568e+001
1.944766e+003,4.460278e+001
1.945730e+003,4.235333e+001
1.946695e+003,4.059351e+001
1.947659e+003,4.116510e+001
1.948623e+003,4.434644e+001
1.949587e+003,4.521936e+001
1.950552e+003,4.260718e+001
1.951516e+003,4.127747e+001
1.952480e+003,4.301495e+001
1.953444e+003,4.597968e+001
1.954408e+003,4.997809e+001
1.955373e+003,5.296796e+001
1.956337e+003,5.163135e+001
1.957301e+003,4.766486e+001
1.958265e+003,4.559540e+001
1.959230e+003,4.569836e+001
1.960194e+003,4.670227e+001
1.961158e+003,4.810876e+001
1.962122e+003,4.963239e+001
1.963087e+003,5.245831e+001
1.964051e+003,5.404993e+001
1.965015e+003,5.202039e+001
1.965979e+003,4.958484e+001
1.966944e+003,4.984631e+001
1.967908e+003,5.159442e+001
1.968872e+003,5.234619e+001
1.969836e+003,5.198962e+001
1.970801e+003,5.236127e+001
1.971765e+003,5.416205e+001
1.972729e+003,5.509290e+001
1.973693e+003,5.267950e+001
1.974657e+003,4.979749e+001
1.975622e+003,5.101886e+001
1.976586e+003,5.480902e+001
1.977550e+003,5.784918e+001
1.978514e+003,6.009863e+001
1.979479e+003,6.111456e+001
1.980443e+003,6.080316e+001
1.981407e+003,5.986639e+001
1.982371e+003,5.863995e+001
1.983335e+003,5.844873e+001
1.984300e+003,6.030524e+001
1.985264e+003,6.226288e+001
1.986228e+003,6.143701e+001
1.987192e+003,5.847455e+001
1.988157e+003,5.680005e+001
1.989121e+003,5.677728e+001
1.990085e+003,5.698041e+001
1.991049e+003,5.752997e+001
1.992014e+003,5.851294e+001
1.992978e+003,6.041266e+001
1.993942e+003,6.166577e+001
1.994906e+003,6.048419e+001
1.995871e+003,5.978619e+001
1.996835e+003,6.339105e+001
1.997799e+003,6.808215e+001
1.998763e+003,6.799396e+001
1.999728e+003,6.399066e+001
