5.003444e+002,2.379736e+002
5.013087e+002,2.338044e+002
5.022729e+002,2.311411e+002
5.032371e+002,2.326722e+002
5.042014e+002,2.318624e+002
5.051656e+002,2.283486e+002
5.061298e+002,2.232423e+002
5.070941e+002,2.165993e+002
5.080583e+002,2.055074e+002
5.090225e+002,1.998492e+002
5.099868e+002,2.049930e+002
5.109510e+002,2.120201e+002
5.119152e+002,2.143023e+002
5.128795e+002,2.092244e+002
5.138437e+002,2.023376e+002
5.148079e+002,1.997615e+002
5.157722e+002,1.988199e+002
5.167364e+002,1.972880e+002
5.177006e+002,1.940908e+002
5.186649e+002,1.895418e+002
5.196291e+002,1.853625e+002
5.205933e+002,1.825164e+002
5.215576e+002,1.806694e+002
5.225218e+002,1.790287e+002
5.234860e+002,1.770943e+002
5.244503e+002,1.750490e+002
5.254145e+002,1.747260e+002
5.263787e+002,1.742471e+002
5.273430e+002,1.729539e+002
5.283072e+002,1.713810e+002
5.292714e+002,1.706029e+002
5.302357e+002,1.716561e+002
5.311999e+002,1.708141e+002
5.321641e+002,1.658512e+002
5.331284e+002,1.592520e+002
5.340926e+002,1.539117e+002
5.350568e+002,1.518178e+002
5.360211e+002,1.510547e+002
5.369853e+002,1.464888e+002
5.379495e+002,1.395654e+002
5.389138e+002,1.338104e+002
5.398780e+002,1.314706e+002
5.408422e+002,1.325704e+002
5.418065e+002,1.339614e+002
5.427707e+002,1.365577e+002
5.437349e+002,1.380837e+002
5.446992e+002,1.371931e+002
5.456634e+002,1.342000e+002
5.466276e+002,1.315018e+002
5.475919e+002,1.312477e+002
5.485561e+002,1.305846e+002
5.495203e+002,1.274577e+002
5.504846e+002,1.227229e+002
5.514488e+002,1.189303e+002
5.524130e+002,1.195802e+002
5.533773e+002,1.217288e+002
5.543415e+002,1.184441e+002
5.553057e+002,1.110784e+002
5.562700e+002,1.042980e+002
5.572342e+002,1.030495e+002
5.581984e+002,1.079124e+002
5.591627e+002,1.097483e+002
5.601269e+002,1.086330e+002
5.610911e+002,1.064859e+002
5.620554e+002,1.040105e+002
5.630196e+002,1.008746e+002
5.639838e+002,9.716864e+001
5.649481e+002,9.172015e+001
5.659123e+002,8.709790e+001
5.668765e+002,8.538086e+001
5.678408e+002,8.650031e+001
5.688050e+002,8.822186e+001
5.697692e+002,8.748523e+001
5.707335e+002,8.524573e+001
5.716977e+002,8.357562e+001
5.726619e+002,8.278693e+001
5.736262e+002,8.222070e+001
5.745904e+002,8.062158e+001
5.755546e+002,7.793414e+001
5.765189e+002,7.695599e+001
5.774831e+002,7.799902e+001
5.784473e+002,7.851575e+001
5.794116e+002,7.583966e+001
5.803758e+002,6.889899e+001
5.813400e+002,6.492761e+001
5.823043e+002,6.572949e+001
5.832685e+002,6.624042e+001
5.842327e+002,6.378619e+001
5.851970e+002,5.874866e+001
5.861612e+002,5.524097e+001
5.871254e+002,5.696008e+001
5.880897e+002,6.010455e+001
5.890539e+002,6.345160e+001
5.900181e+002,6.629413e+001
5.909824e+002,6.801996e+001
5.919466e+002,6.784467e+001
5.929108e+002,6.576447e+001
5.938751e+002,6.339423e+001
5.948393e+002,6.082288e+001
5.958035e+002,5.806165e+001
5.967678e+002,5.492236e+001
5.977320e+002,5.098480e+001
5.986962e+002,4.910785e+001
5.996605e+002,4.822882e+001
6.006247e+002,4.835278e+001
6.015889e+002,5.054187e+001
6.025532e+002,5.481146e+001
6.035174e+002,5.763940e+001
6.044816e+002,5.553815e+001
6.054459e+002,5.230438e+001
6.064101e+002,4.918884e+001
6.073743e+002,4.647626e+001
6.083386e+002,4.384070e+001
6.093028e+002,4.074371e+001
6.102670e+002,3.815601e+001
6.112313e+002,3.814056e+001
6.121955e+002,4.059241e+001
6.131597e+002,4.382361e+001
6.141240e+002,4.601379e+001
6.150882e+002,4.690588e+001
6.160524e+002,4.719537e+001
6.170167e+002,4.664734e+001
6.179809e+002,4.654578e+001
6.189451e+002,4.774652e+001
6.199094e+002,4.991577e+001
6.208736e+002,5.066248e+001
6.218378e+002,4.816742e+001
6.228021e+002,4.582715e+001
6.237663e+002,4.511707e+001
6.247305e+002,4.569659e+001
6.256948e+002,4.618439e+001
6.266590e+002,4.502979e+001
6.276232e+002,4.212152e+001
6.285875e+002,3.880084e+001
6.295517e+002,3.550317e+001
6.305159e+002,3.272986e+001
6.314802e+002,3.065961e+001
6.324444e+002,2.882996e+001
6.334086e+002,2.836591e+001
6.343729e+002,3.149420e+001
6.353371e+002,3.438354e+001
6.363013e+002,3.488556e+001
6.372656e+002,3.307495e+001
6.382298e+002,3.152582e+001
6.391940e+002,3.301501e+001
6.401583e+002,3.254523e+001
6.411225e+002,2.711975e+001
6.420867e+002,1.957581e+001
6.430510e+002,1.439496e+001
6.440152e+002,1.484454e+001
6.449794e+002,1.844812e+001
6.459437e+002,2.239600e+001
6.469079e+002,2.601636e+001
6.478721e+002,2.709088e+001
6.488364e+002,2.408325e+001
6.498006e+002,1.759619e+001
6.507648e+002,1.309833e+001
6.517291e+002,1.023157e+001
6.526933e+002,8.758667e+000
6.536575e+002,9.239502e+000
6.546218e+002,1.110999e+001
6.555860e+002,1.262579e+001
6.565502e+002,1.338562e+001
6.575145e+002,1.354272e+001
6.584787e+002,1.302356e+001
6.594429e+002,1.221783e+001
6.604072e+002,1.148291e+001
6.613714e+002,1.096649e+001
6.623356e+002,1.049207e+001
6.632999e+002,9.931946e+000
6.642641e+002,8.938110e+000
6.652283e+002,7.074219e+000
6.661926e+002,4.509216e+000
6.671568e+002,2.279114e+000
6.681210e+002,2.924194e+000
6.690853e+002,8.440369e+000
6.700495e+002,1.088544e+001
6.710137e+002,6.687561e+000
6.719780e+002,5.665283e-001
6.729422e+002,-5.328369e-002
6.739064e+002,8.272766e+000
6.748707e+002,1.426129e+001
6.758349e+002,1.487762e+001
6.767991e+002,1.275647e+001
6.777634e+002,9.018250e+000
6.787276e+002,4.722290e+000
6.796918e+002,1.711182e+000
6.806561e+002,2.036926e+000
6.816203e+002,3.992554e+000
6.825845e+002,6.926025e+000
6.835488e+002,1.056696e+001
6.845130e+002,1.401923e+001
6.854772e+002,1.591486e+001
6.864415e+002,1.648798e+001
6.874057e+002,1.652289e+001
6.883699e+002,1.389850e+001
6.893342e+002,1.102954e+001
6.902984e+002,1.011243e+001
6.912626e+002,1.158527e+001
6.922269e+002,1.267206e+001
6.931911e+002,1.367676e+001
6.941553e+002,1.436383e+001
6.951196e+002,1.318658e+001
6.960838e+002,1.069366e+001
6.970480e+002,8.912781e+000
6.980123e+002,1.012848e+001
6.989765e+002,1.288702e+001
6.999407e+002,1.380579e+001
7.009050e+002,1.326190e+001
7.018692e+002,1.253510e+001
7.028334e+002,1.256335e+001
7.037977e+002,1.320074e+001
7.047619e+002,1.357678e+001
7.057261e+002,1.479486e+001
7.066904e+002,1.532202e+001
7.076546e+002,1.430371e+001
7.086188e+002,1.232343e+001
7.095831e+002,1.087823e+001
7.105473e+002,1.021130e+001
7.115115e+002,9.333557e+000
7.124758e+002,7.160278e+000
7.134400e+002,4.959839e+000
7.144042e+002,4.610413e+000
7.153685e+002,6.879395e+000
7.163327e+002,9.641724e+000
7.172969e+002,8.134094e+000
7.182612e+002,5.324951e+000
7.192254e+002,5.558716e+000
7.201896e+002,9.362610e+000
7.211539e+002,1.375079e+001
7.221181e+002,1.354840e+001
7.230823e+002,6.714600e+000
7.240466e+002,2.835266e+000
7.250108e+002,3.615906e+000
7.259750e+002,6.306702e+000
7.269393e+002,8.684265e+000
7.279035e+002,1.000031e+001
7.288677e+002,1.050049e+001
7.298320e+002,1.063428e+001
7.307962e+002,1.190820e+001
7.317604e+002,1.615424e+001
7.327247e+002,2.183234e+001
7.336889e+002,2.530640e+001
7.346531e+002,2.281226e+001
7.356174e+002,1.564087e+001
7.365816e+002,1.023730e+001
7.375458e+002,7.298523e+000
7.385101e+002,5.406982e+000
7.394743e+002,3.340271e+000
7.404385e+002,1.276489e+000
7.414028e+002,2.166321e+000
7.423670e+002,8.886658e+000
7.433312e+002,1.186560e+001
7.442955e+002,9.297729e+000
7.452597e+002,4.632263e+000
7.462239e+002,2.326111e+000
7.471882e+002,3.626160e+000
7.481524e+002,5.452454e+000
7.491166e+002,4.692749e+000
7.500809e+002,3.703735e+000
7.510451e+002,5.374939e+000
7.520093e+002,9.890686e+000
7.529736e+002,1.415967e+001
7.539378e+002,1.365491e+001
7.549020e+002,1.048645e+001
7.558663e+002,9.456360e+000
7.568306e+002,1.072736e+001
7.577948e+002,1.272876e+001
7.587590e+002,1.331061e+001
7.597233e+002,1.122247e+001
7.606875e+002,1.101056e+001
7.616517e+002,1.693927e+001
7.626160e+002,2.054871e+001
7.635802e+002,1.654083e+001
7.645444e+002,7.768066e+000
7.655087e+002,3.189514e+000
7.664729e+002,8.153381e+000
7.674371e+002,1.516382e+001
7.684014e+002,2.103174e+001
7.693656e+002,2.519299e+001
7.703298e+002,2.679987e+001
7.712941e+002,2.567242e+001
7.722583e+002,2.312018e+001
7.732225e+002,2.195563e+001
7.741868e+002,2.185120e+001
7.751510e+002,2.168213e+001
7.761152e+002,2.138837e+001
7.770795e+002,2.110022e+001
7.780437e+002,2.061249e+001
7.790079e+002,1.884204e+001
7.799722e+002,1.859454e+001
7.809364e+002,2.102490e+001
7.819006e+002,2.372211e+001
7.828649e+002,2.631915e+001
7.838291e+002,2.862695e+001
7.847933e+002,2.946802e+001
7.857576e+002,2.586450e+001
7.867218e+002,2.171796e+001
7.876860e+002,2.203149e+001
7.886503e+002,2.533099e+001
7.896145e+002,2.762299e+001
7.905787e+002,2.594806e+001
7.915430e+002,2.159039e+001
7.925072e+002,2.153253e+001
7.934714e+002,2.523669e+001
7.944357e+002,2.778595e+001
7.953999e+002,2.871802e+001
7.963641e+002,2.873572e+001
7.973284e+002,2.826465e+001
7.982926e+002,2.649988e+001
7.992568e+002,2.576135e+001
8.002211e+002,2.607562e+001
8.011853e+002,2.599957e+001
8.021495e+002,2.511682e+001
8.031138e+002,2.431110e+001
8.040780e+002,2.538861e+001
8.050422e+002,2.966577e+001
8.060065e+002,3.442749e+001
8.069707e+002,3.780872e+001
8.079349e+002,3.960193e+001
8.088992e+002,3.924756e+001
8.098634e+002,3.635095e+001
8.108276e+002,3.144000e+001
8.117919e+002,2.792474e+001
8.127561e+002,2.502527e+001
8.137203e+002,2.222467e+001
8.146846e+002,2.009222e+001
8.156488e+002,1.912854e+001
8.166130e+002,1.976563e+001
8.175773e+002,2.252454e+001
8.185415e+002,2.496021e+001
8.195057e+002,2.491577e+001
8.204700e+002,2.442029e+001
8.214342e+002,2.582043e+001
8.223984e+002,2.893683e+001
8.233627e+002,3.078656e+001
8.243269e+002,2.730621e+001
8.252911e+002,2.083704e+001
8.262554e+002,1.850647e+001
8.272196e+002,2.010431e+001
8.281838e+002,2.300842e+001
8.291481e+002,2.525433e+001
8.301123e+002,2.680939e+001
8.310765e+002,2.854590e+001
8.320408e+002,3.188672e+001
8.330050e+002,3.297028e+001
8.339692e+002,3.014166e+001
8.349335e+002,2.561969e+001
8.358977e+002,2.226202e+001
8.368619e+002,2.105615e+001
8.378262e+002,2.122412e+001
8.387904e+002,2.194373e+001
8.397546e+002,2.290973e+001
8.407189e+002,2.466370e+001
8.416831e+002,2.708063e+001
8.426473e+002,2.919769e+001
8.436116e+002,2.964575e+001
8.445758e+002,2.865045e+001
8.455400e+002,2.849280e+001
8.465043e+002,2.814398e+001
8.474685e+002,2.781519e+001
8.484327e+002,2.916528e+001
8.493970e+002,3.233704e+001
8.503612e+002,3.372668e+001
8.513254e+002,2.970013e+001
8.522897e+002,2.820856e+001
8.532539e+002,3.271790e+001
8.542181e+002,3.845917e+001
8.551824e+002,4.074310e+001
8.561466e+002,3.898206e+001
8.571108e+002,3.838782e+001
8.580751e+002,4.454346e+001
8.590393e+002,5.251843e+001
8.600035e+002,5.808612e+001
8.609678e+002,6.140289e+001
8.619320e+002,6.325018e+001
8.628962e+002,6.401727e+001
8.638605e+002,6.360571e+001
8.648247e+002,6.394482e+001
8.657889e+002,6.555707e+001
8.667532e+002,6.673846e+001
8.677174e+002,6.685492e+001
8.686816e+002,6.640900e+001
8.696459e+002,6.614508e+001
8.706101e+002,6.617712e+001
8.715743e+002,6.794257e+001
8.725386e+002,7.266766e+001
8.735028e+002,7.839648e+001
8.744670e+002,8.435419e+001
8.754313e+002,8.957623e+001
8.763955e+002,9.279004e+001
8.773597e+002,9.275769e+001
8.783240e+002,9.085205e+001
8.792882e+002,9.095441e+001
8.802524e+002,9.256433e+001
8.812167e+002,9.485828e+001
8.821809e+002,9.810706e+001
8.831451e+002,1.016876e+002
8.841094e+002,1.022966e+002
8.850736e+002,9.670294e+001
8.860378e+002,9.515192e+001
8.870021e+002,1.005435e+002
8.879663e+002,1.076365e+002
8.889305e+002,1.124753e+002
8.898948e+002,1.143379e+002
8.908590e+002,1.151136e+002
8.918232e+002,1.159420e+002
8.927875e+002,1.177574e+002
8.937517e+002,1.210584e+002
8.947159e+002,1.254286e+002
8.956802e+002,1.302029e+002
8.966444e+002,1.346404e+002
8.976086e+002,1.379095e+002
8.985729e+002,1.383980e+002
8.995371e+002,1.360311e+002
9.005013e+002,1.343405e+002
9.014656e+002,1.335853e+002
9.024298e+002,1.343201e+002
9.033940e+002,1.375743e+002
9.043583e+002,1.432650e+002
9.053225e+002,1.464099e+002
9.062867e+002,1.400435e+002
9.072510e+002,1.349725e+002
9.082152e+002,1.385870e+002
9.091794e+002,1.474095e+002
9.101437e+002,1.535696e+002
9.111079e+002,1.518402e+002
9.120721e+002,1.464238e+002
9.130364e+002,1.490642e+002
9.140006e+002,1.564957e+002
9.149648e+002,1.582059e+002
9.159291e+002,1.512423e+002
9.168933e+002,1.421764e+002
9.178575e+002,1.409322e+002
9.188218e+002,1.503688e+002
9.197860e+002,1.540463e+002
9.207502e+002,1.464293e+002
9.217145e+002,1.393234e+002
9.226787e+002,1.379873e+002
9.236429e+002,1.406863e+002
9.246072e+002,1.430736e+002
9.255714e+002,1.430533e+002
9.265356e+002,1.412032e+002
9.274999e+002,1.370249e+002
9.284641e+002,1.320867e+002
9.294283e+002,1.286370e+002
9.303926e+002,1.273785e+002
9.313568e+002,1.272535e+002
9.323210e+002,1.264878e+002
9.332853e+002,1.247651e+002
9.342495e+002,1.214474e+002
9.352137e+002,1.151204e+002
9.361780e+002,1.096067e+002
9.371422e+002,1.071590e+002
9.381064e+002,1.069917e+002
9.390707e+002,1.063793e+002
9.400349e+002,1.036431e+002
9.409991e+002,1.018543e+002
9.419634e+002,1.044274e+002
9.429276e+002,1.066642e+002
9.438918e+002,1.042668e+002
9.448561e+002,9.811914e+001
9.458203e+002,9.299323e+001
9.467845e+002,9.341302e+001
9.477488e+002,9.797034e+001
9.487130e+002,1.005033e+002
9.496772e+002,1.011857e+002
9.506415e+002,1.009348e+002
9.516057e+002,9.967218e+001
9.525699e+002,9.776666e+001
9.535342e+002,9.614532e+001
9.544984e+002,9.466516e+001
9.554626e+002,9.296204e+001
9.564269e+002,9.169629e+001
9.573911e+002,9.108887e+001
9.583553e+002,9.140472e+001
9.593196e+002,9.204700e+001
9.602838e+002,9.185791e+001
9.612480e+002,9.005042e+001
9.622123e+002,8.765784e+001
9.631765e+002,8.593884e+001
9.641407e+002,8.461639e+001
9.651050e+002,8.333105e+001
9.660692e+002,8.190247e+001
9.670334e+002,8.070947e+001
9.679977e+002,8.065631e+001
9.689619e+002,8.256116e+001
9.699261e+002,8.558398e+001
9.708904e+002,8.887476e+001
9.718546e+002,9.277759e+001
9.728188e+002,9.579388e+001
9.737831e+002,9.945728e+001
9.747473e+002,1.080016e+002
9.757115e+002,1.242286e+002
9.766758e+002,1.398392e+002
9.776400e+002,1.514458e+002
9.786042e+002,1.586857e+002
9.795685e+002,1.597350e+002
9.805327e+002,1.546732e+002
9.814969e+002,1.449033e+002
9.824612e+002,1.322682e+002
9.834254e+002,1.182020e+002
9.843896e+002,1.058942e+002
9.853539e+002,9.402118e+001
9.863181e+002,8.290167e+001
9.872823e+002,7.180939e+001
9.882466e+002,6.150684e+001
9.892108e+002,5.361926e+001
9.901750e+002,4.898065e+001
9.911393e+002,4.732043e+001
9.921035e+002,4.887823e+001
9.930677e+002,5.075818e+001
9.940320e+002,5.286432e+001
9.949962e+002,5.543097e+001
9.959604e+002,5.868848e+001
9.969247e+002,6.256598e+001
9.978889e+002,6.646283e+001
9.988531e+002,6.915796e+001
9.998174e+002,7.007910e+001
1.000782e+003,6.998138e+001
1.001746e+003,6.932794e+001
1.002710e+003,6.899835e+001
1.003674e+003,7.001245e+001
1.004639e+003,7.235107e+001
1.005603e+003,7.339880e+001
1.006567e+003,7.259088e+001
1.007531e+003,7.035376e+001
1.008495e+003,6.559528e+001
1.009460e+003,6.047064e+001
1.010424e+003,5.698450e+001
1.011388e+003,5.554102e+001
1.012352e+003,5.513678e+001
1.013317e+003,5.508752e+001
1.014281e+003,5.481464e+001
1.015245e+003,5.375269e+001
1.016209e+003,5.165192e+001
1.017174e+003,4.856641e+001
1.018138e+003,4.474963e+001
1.019102e+003,4.038647e+001
1.020066e+003,3.537372e+001
1.021031e+003,2.917487e+001
1.021995e+003,2.548572e+001
1.022959e+003,2.430103e+001
1.023923e+003,2.356396e+001
1.024887e+003,2.316833e+001
1.025852e+003,2.230908e+001
1.026816e+003,1.900433e+001
1.027780e+003,1.203278e+001
1.028744e+003,5.762085e+000
1.029709e+003,3.957520e+000
1.030673e+003,4.296936e+000
1.031637e+003,5.024109e+000
1.032601e+003,5.527771e+000
1.033566e+003,5.893738e+000
1.034530e+003,6.503845e+000
1.035494e+003,7.647583e+000
1.036458e+003,7.759155e+000
1.037422e+003,5.338013e+000
1.038387e+003,3.529602e+000
1.039351e+003,3.001038e+000
1.040315e+003,2.927429e+000
1.041279e+003,2.522888e+000
1.042244e+003,1.893921e+000
1.043208e+003,1.739624e+000
1.044172e+003,1.919373e+000
1.045136e+003,2.494507e+000
1.046101e+003,4.307373e+000
1.047065e+003,6.539063e+000
1.048029e+003,7.900757e+000
1.048993e+003,7.874817e+000
1.049958e+003,7.064087e+000
1.050922e+003,6.510437e+000
1.051886e+003,6.458923e+000
1.052850e+003,6.927979e+000
1.053814e+003,8.575012e+000
1.054779e+003,9.497437e+000
1.055743e+003,7.057129e+000
1.056707e+003,3.044128e+000
1.057671e+003,3.117859e+000
1.058636e+003,9.757324e+000
1.059600e+003,1.411584e+001
1.060564e+003,1.201495e+001
1.061528e+003,8.886902e+000
1.062493e+003,6.608887e+000
1.063457e+003,5.293640e+000
1.064421e+003,4.903198e+000
1.065385e+003,5.584229e+000
1.066349e+003,6.878967e+000
1.067314e+003,7.760315e+000
1.068278e+003,8.423645e+000
1.069242e+003,8.540405e+000
1.070206e+003,7.753967e+000
1.071171e+003,7.242737e+000
1.072135e+003,8.072449e+000
1.073099e+003,9.818359e+000
1.074063e+003,1.065497e+001
1.075028e+003,1.063306e+001
1.075992e+003,9.688049e+000
1.076956e+003,6.311646e+000
1.077920e+003,2.823669e+000
1.078885e+003,1.644043e+000
1.079849e+003,2.861267e+000
1.080813e+003,4.519104e+000
1.081777e+003,4.907715e+000
1.082741e+003,5.282959e+000
1.083706e+003,9.847656e+000
1.084670e+003,1.642395e+001
1.085634e+003,1.836340e+001
1.086598e+003,1.320190e+001
1.087563e+003,5.507935e+000
1.088527e+003,1.061523e+000
1.089491e+003,6.084595e-001
1.090455e+003,1.897705e+000
1.091420e+003,7.038940e+000
1.092384e+003,9.754211e+000
1.093348e+003,6.716492e+000
1.094312e+003,2.025208e+000
1.095276e+003,-7.080078e-002
1.096241e+003,1.222229e+000
1.097205e+003,3.811035e+000
1.098169e+003,6.356689e+000
1.099133e+003,7.416138e+000
1.100098e+003,4.111694e+000
1.101062e+003,-1.905518e+000
1.102026e+003,-6.101013e+000
1.102990e+003,-6.827271e+000
1.103955e+003,-5.154785e+000
1.104919e+003,-2.214661e+000
1.105883e+003,2.415649e+000
1.106847e+003,4.650513e+000
1.107812e+003,2.158142e+000
1.108776e+003,-3.345947e-001
1.109740e+003,-2.056946e+000
1.110704e+003,-3.195129e+000
1.111668e+003,-3.943115e+000
1.112633e+003,-3.996582e+000
1.113597e+003,-2.426697e+000
1.114561e+003,1.952026e+000
1.115525e+003,6.181091e+000
1.116490e+003,5.419800e+000
1.117454e+003,1.564026e+000
1.118418e+003,-1.887817e-001
1.119382e+003,2.625244e+000
1.120347e+003,7.620728e+000
1.121311e+003,1.009937e+001
1.122275e+003,8.422119e+000
1.123239e+003,7.333313e+000
1.124203e+003,9.203552e+000
1.125168e+003,1.047723e+001
1.126132e+003,9.359192e+000
1.127096e+003,8.078308e+000
1.128060e+003,9.415161e+000
1.129025e+003,1.339673e+001
1.129989e+003,1.684540e+001
1.130953e+003,1.722345e+001
1.131917e+003,1.598322e+001
1.132882e+003,1.507880e+001
1.133846e+003,1.498834e+001
1.134810e+003,1.725403e+001
1.135774e+003,2.266724e+001
1.136739e+003,2.871411e+001
1.137703e+003,3.074615e+001
1.138667e+003,2.742010e+001
1.139631e+003,2.799652e+001
1.140595e+003,3.535931e+001
1.141560e+003,4.296368e+001
1.142524e+003,5.017450e+001
1.143488e+003,5.755542e+001
1.144452e+003,6.459625e+001
1.145417e+003,7.174377e+001
1.146381e+003,8.200623e+001
1.147345e+003,9.847650e+001
1.148309e+003,1.168066e+002
1.149274e+003,1.306814e+002
1.150238e+003,1.422830e+002
1.151202e+003,1.566567e+002
1.152166e+003,1.755852e+002
1.153130e+003,1.945291e+002
1.154095e+003,2.071505e+002
1.155059e+003,2.123318e+002
1.156023e+003,2.146179e+002
1.156987e+003,2.167759e+002
1.157952e+003,2.137793e+002
1.158916e+003,2.042677e+002
1.159880e+003,1.916793e+002
1.160844e+003,1.766912e+002
1.161809e+003,1.596587e+002
1.162773e+003,1.422933e+002
1.163737e+003,1.255061e+002
1.164701e+003,1.099387e+002
1.165666e+003,9.650134e+001
1.166630e+003,8.496021e+001
1.167594e+003,7.506329e+001
1.168558e+003,6.666656e+001
1.169522e+003,5.947852e+001
1.170487e+003,5.299701e+001
1.171451e+003,4.759552e+001
1.172415e+003,4.576422e+001
1.173379e+003,5.098999e+001
1.174344e+003,5.226666e+001
1.175308e+003,4.641901e+001
1.176272e+003,3.992175e+001
1.177236e+003,3.619580e+001
1.178201e+003,3.489099e+001
1.179165e+003,3.446423e+001
1.180129e+003,3.405597e+001
1.181093e+003,3.264404e+001
1.182057e+003,2.892834e+001
1.183022e+003,2.399170e+001
1.183986e+003,1.976581e+001
1.184950e+003,1.637823e+001
1.185914e+003,1.368604e+001
1.186879e+003,1.171411e+001
1.187843e+003,1.051349e+001
1.188807e+003,9.628113e+000
1.189771e+003,8.182495e+000
1.190736e+003,8.800842e+000
1.191700e+003,1.407672e+001
1.192664e+003,1.856781e+001
1.193628e+003,2.167188e+001
1.194593e+003,2.287488e+001
1.195557e+003,2.076923e+001
1.196521e+003,1.551862e+001
1.197485e+003,1.008667e+001
1.198449e+003,7.274902e+000
1.199414e+003,6.154724e+000
1.200378e+003,3.978699e+000
1.201342e+003,8.674316e-001
1.202306e+003,-2.544250e+000
1.203271e+003,-6.551514e+000
1.204235e+003,-1.025745e+001
1.205199e+003,-1.199829e+001
1.206163e+003,-1.178522e+001
1.207128e+003,-1.282074e+001
1.208092e+003,-1.544208e+001
1.209056e+003,-1.903760e+001
1.210020e+003,-2.466022e+001
1.210984e+003,-2.999438e+001
1.211949e+003,-3.287836e+001
1.212913e+003,-3.411108e+001
1.213877e+003,-3.609729e+001
1.214841e+003,-4.009906e+001
1.215806e+003,-4.496875e+001
1.216770e+003,-4.937195e+001
1.217734e+003,-5.323041e+001
1.218698e+003,-5.576343e+001
1.219663e+003,-5.683966e+001
1.220627e+003,-5.820673e+001
1.221591e+003,-6.155884e+001
1.222555e+003,-6.539185e+001
1.223520e+003,-6.599664e+001
1.224484e+003,-6.235406e+001
1.225448e+003,-6.001556e+001
1.226412e+003,-6.225806e+001
1.227376e+003,-6.454065e+001
1.228341e+003,-6.463934e+001
1.229305e+003,-6.400250e+001
1.230269e+003,-6.451904e+001
1.231233e+003,-6.651270e+001
1.232198e+003,-6.888672e+001
1.233162e+003,-7.045770e+001
1.234126e+003,-7.088953e+001
1.235090e+003,-7.018921e+001
1.236055e+003,-6.878448e+001
1.237019e+003,-6.748370e+001
1.237983e+003,-6.550110e+001
1.238947e+003,-6.469421e+001
1.239911e+003,-6.721124e+001
1.240876e+003,-7.151941e+001
1.241840e+003,-7.332031e+001
1.242804e+003,-7.135333e+001
1.243768e+003,-6.839124e+001
1.244733e+003,-6.465845e+001
1.245697e+003,-6.197253e+001
1.246661e+003,-6.309869e+001
1.247625e+003,-6.644983e+001
1.248590e+003,-6.799567e+001
1.249554e+003,-6.571075e+001
1.250518e+003,-6.132135e+001
1.251482e+003,-5.797046e+001
1.252447e+003,-5.623572e+001
1.253411e+003,-5.626929e+001
1.254375e+003,-5.990668e+001
1.255339e+003,-6.117242e+001
1.256303e+003,-5.752075e+001
1.257268e+003,-5.265930e+001
1.258232e+003,-5.010840e+001
1.259196e+003,-4.980585e+001
1.260160e+003,-4.929065e+001
1.261125e+003,-4.720679e+001
1.262089e+003,-4.459631e+001
1.263053e+003,-4.303729e+001
1.264017e+003,-4.226855e+001
1.264982e+003,-4.092554e+001
1.265946e+003,-3.899652e+001
1.266910e+003,-3.852014e+001
1.267874e+003,-4.113409e+001
1.268839e+003,-4.517749e+001
1.269803e+003,-4.628546e+001
1.270767e+003,-4.304010e+001
1.271731e+003,-4.217389e+001
1.272695e+003,-4.679736e+001
1.273660e+003,-4.988751e+001
1.274624e+003,-4.886090e+001
1.275588e+003,-4.753540e+001
1.276552e+003,-4.971130e+001
1.277517e+003,-5.458966e+001
1.278481e+003,-5.821625e+001
1.279445e+003,-5.841608e+001
1.280409e+003,-5.726892e+001
1.281374e+003,-5.801660e+001
1.282338e+003,-5.989862e+001
1.283302e+003,-6.008929e+001
1.284266e+003,-5.836920e+001
1.285230e+003,-5.632568e+001
1.286195e+003,-5.429578e+001
1.287159e+003,-5.288727e+001
1.288123e+003,-5.329010e+001
1.289087e+003,-5.529956e+001
1.290052e+003,-5.748242e+001
1.291016e+003,-6.096216e+001
1.291980e+003,-6.342480e+001
1.292944e+003,-6.360315e+001
1.293909e+003,-6.302484e+001
1.294873e+003,-6.312384e+001
1.295837e+003,-6.351062e+001
1.296801e+003,-6.222546e+001
1.297766e+003,-5.808563e+001
1.298730e+003,-5.336603e+001
1.299694e+003,-5.362897e+001
1.300658e+003,-6.052484e+001
1.301622e+003,-6.411639e+001
1.302587e+003,-6.191071e+001
1.303551e+003,-5.957477e+001
1.304515e+003,-5.909735e+001
1.305479e+003,-5.911255e+001
1.306444e+003,-5.774182e+001
1.307408e+003,-5.526093e+001
1.308372e+003,-5.458374e+001
1.309336e+003,-5.800739e+001
1.310301e+003,-6.106812e+001
1.311265e+003,-5.818042e+001
1.312229e+003,-5.318549e+001
1.313193e+003,-5.099561e+001
1.314157e+003,-5.201361e+001
1.315122e+003,-5.396796e+001
1.316086e+003,-5.553046e+001
1.317050e+003,-5.702063e+001
1.318014e+003,-5.859833e+001
1.318979e+003,-5.982178e+001
1.319943e+003,-6.002081e+001
1.320907e+003,-5.893988e+001
1.321871e+003,-5.717181e+001
1.322836e+003,-5.513519e+001
1.323800e+003,-5.286475e+001
1.324764e+003,-4.964832e+001
1.325728e+003,-4.613971e+001
1.326693e+003,-4.444055e+001
1.327657e+003,-4.567578e+001
1.328621e+003,-4.798102e+001
1.329585e+003,-4.881421e+001
1.330549e+003,-4.745538e+001
1.331514e+003,-4.484552e+001
1.332478e+003,-4.181110e+001
1.333442e+003,-4.006262e+001
1.334406e+003,-3.988190e+001
1.335371e+003,-4.093530e+001
1.336335e+003,-4.398053e+001
1.337299e+003,-4.858923e+001
1.338263e+003,-4.960370e+001
1.339228e+003,-4.393390e+001
1.340192e+003,-3.922632e+001
1.341156e+003,-3.975256e+001
1.342120e+003,-4.182501e+001
1.343084e+003,-4.343555e+001
1.344049e+003,-4.461340e+001
1.345013e+003,-4.567627e+001
1.345977e+003,-4.640594e+001
1.346941e+003,-4.619434e+001
1.347906e+003,-4.462433e+001
1.348870e+003,-4.203021e+001
1.349834e+003,-4.055560e+001
1.350798e+003,-4.124463e+001
1.351763e+003,-4.209271e+001
1.352727e+003,-4.356403e+001
1.353691e+003,-4.451984e+001
1.354655e+003,-4.382056e+001
1.355620e+003,-4.210596e+001
1.356584e+003,-4.045776e+001
1.357548e+003,-3.913806e+001
1.358512e+003,-3.862677e+001
1.359476e+003,-4.003510e+001
1.360441e+003,-4.211127e+001
1.361405e+003,-4.203687e+001
1.362369e+003,-4.038464e+001
1.363333e+003,-3.884100e+001
1.364298e+003,-3.759601e+001
1.365262e+003,-3.713623e+001
1.366226e+003,-3.853503e+001
1.367190e+003,-4.107642e+001
1.368155e+003,-4.213983e+001
1.369119e+003,-4.144116e+001
1.370083e+003,-4.031409e+001
1.371047e+003,-3.781329e+001
1.372011e+003,-3.618054e+001
1.372976e+003,-3.823328e+001
1.373940e+003,-4.067865e+001
1.374904e+003,-3.931927e+001
1.375868e+003,-3.466046e+001
1.376833e+003,-3.036517e+001
1.377797e+003,-2.886169e+001
1.378761e+003,-2.942932e+001
1.379725e+003,-3.061487e+001
1.380690e+003,-3.232959e+001
1.381654e+003,-3.403894e+001
1.382618e+003,-3.620398e+001
1.383582e+003,-3.710461e+001
1.384547e+003,-3.555090e+001
1.385511e+003,-3.354645e+001
1.386475e+003,-3.286145e+001
1.387439e+003,-3.332623e+001
1.388403e+003,-3.409393e+001
1.389368e+003,-3.495477e+001
1.390332e+003,-3.528925e+001
1.391296e+003,-3.437903e+001
1.392260e+003,-3.241760e+001
1.393225e+003,-2.947107e+001
1.394189e+003,-2.646954e+001
1.395153e+003,-2.592065e+001
1.396117e+003,-2.850775e+001
1.397082e+003,-3.105133e+001
1.398046e+003,-3.036786e+001
1.399010e+003,-2.740839e+001
1.399974e+003,-2.573315e+001
1.400938e+003,-2.589081e+001
1.401903e+003,-2.739691e+001
1.402867e+003,-3.073840e+001
1.403831e+003,-3.205157e+001
1.404795e+003,-2.954724e+001
1.405760e+003,-2.601465e+001
1.406724e+003,-2.428046e+001
1.407688e+003,-2.476788e+001
1.408652e+003,-2.598846e+001
1.409617e+003,-2.648383e+001
1.410581e+003,-2.617419e+001
1.411545e+003,-2.596375e+001
1.412509e+003,-2.603284e+001
1.413474e+003,-2.586957e+001
1.414438e+003,-2.601477e+001
1.415402e+003,-2.705109e+001
1.416366e+003,-2.950720e+001
1.417330e+003,-3.112872e+001
1.418295e+003,-2.967584e+001
1.419259e+003,-2.676251e+001
1.420223e+003,-2.614417e+001
1.421187e+003,-2.857648e+001
1.422152e+003,-3.013544e+001
1.423116e+003,-2.766064e+001
1.424080e+003,-2.278235e+001
1.425044e+003,-1.834491e+001
1.426009e+003,-1.516626e+001
1.426973e+003,-1.390613e+001
1.427937e+003,-1.439929e+001
1.428901e+003,-1.596405e+001
1.429865e+003,-1.879120e+001
1.430830e+003,-2.196191e+001
1.431794e+003,-2.452496e+001
1.432758e+003,-2.651501e+001
1.433722e+003,-2.594324e+001
1.434687e+003,-2.088428e+001
1.435651e+003,-1.503809e+001
1.436615e+003,-1.103473e+001
1.437579e+003,-8.436157e+000
1.438544e+003,-5.689697e+000
1.439508e+003,-3.561523e+000
1.440472e+003,-4.880737e+000
1.441436e+003,-9.764404e+000
1.442401e+003,-1.358179e+001
1.443365e+003,-1.183118e+001
1.444329e+003,-6.213501e+000
1.445293e+003,-2.793701e+000
1.446257e+003,-1.845093e+000
1.447222e+003,-1.400635e+000
1.448186e+003,-1.252258e+000
1.449150e+003,-2.309631e+000
1.450114e+003,-6.198120e+000
1.451079e+003,-1.035431e+001
1.452043e+003,-1.192188e+001
1.453007e+003,-1.135638e+001
1.453971e+003,-1.139569e+001
1.454936e+003,-1.324500e+001
1.455900e+003,-1.443158e+001
1.456864e+003,-1.147662e+001
1.457828e+003,-5.815125e+000
1.458792e+003,-5.696472e+000
1.459757e+003,-1.260602e+001
1.460721e+003,-1.615448e+001
1.461685e+003,-1.194818e+001
1.462649e+003,-7.878296e+000
1.463614e+003,-8.163757e+000
1.464578e+003,-1.077893e+001
1.465542e+003,-1.375153e+001
1.466506e+003,-1.662030e+001
1.467471e+003,-1.649298e+001
1.468435e+003,-1.086371e+001
1.469399e+003,-5.009583e+000
1.470363e+003,-5.750366e+000
1.471328e+003,-9.481689e+000
1.472292e+003,-1.003131e+001
1.473256e+003,-7.921326e+000
1.474220e+003,-6.890869e+000
1.475184e+003,-7.977844e+000
1.476149e+003,-9.253113e+000
1.477113e+003,-9.156860e+000
1.478077e+003,-8.269958e+000
1.479041e+003,-7.772644e+000
1.480006e+003,-7.509277e+000
1.480970e+003,-6.436096e+000
1.481934e+003,-4.308899e+000
1.482898e+003,-2.488159e+000
1.483863e+003,-1.557922e+000
1.484827e+003,-1.023376e+000
1.485791e+003,-4.635010e-001
1.486755e+003,4.824219e-001
1.487719e+003,2.058533e+000
1.488684e+003,4.111328e+000
1.489648e+003,6.312866e+000
1.490612e+003,8.785767e+000
1.491576e+003,1.185565e+001
1.492541e+003,1.465204e+001
1.493505e+003,1.615399e+001
1.494469e+003,1.846338e+001
1.495433e+003,2.202924e+001
1.496398e+003,2.469739e+001
1.497362e+003,2.538171e+001
1.498326e+003,2.635162e+001
1.499290e+003,2.933136e+001
1.500255e+003,3.437134e+001
1.501219e+003,4.099854e+001
1.502183e+003,4.877802e+001
1.503147e+003,5.681610e+001
1.504111e+003,6.422888e+001
1.505076e+003,7.160541e+001
1.506040e+003,8.095673e+001
1.507004e+003,9.260614e+001
1.507968e+003,1.039089e+002
1.508933e+003,1.132055e+002
1.509897e+003,1.243856e+002
1.510861e+003,1.405060e+002
1.511825e+003,1.593148e+002
1.512790e+003,1.772915e+002
1.513754e+003,1.944361e+002
1.514718e+003,2.141512e+002
1.515682e+003,2.375381e+002
1.516646e+003,2.602147e+002
1.517611e+003,2.788378e+002
1.518575e+003,2.949565e+002
1.519539e+003,3.121903e+002
1.520503e+003,3.297822e+002
1.521468e+003,3.419590e+002
1.522432e+003,3.467406e+002
1.523396e+003,3.472015e+002
1.524360e+003,3.452095e+002
1.525325e+003,3.398958e+002
1.526289e+003,3.292659e+002
1.527253e+003,3.141162e+002
1.528217e+003,2.990131e+002
1.529182e+003,2.857700e+002
1.530146e+003,2.703741e+002
1.531110e+003,2.479444e+002
1.532074e+003,2.242743e+002
1.533039e+003,2.067681e+002
1.534003e+003,1.909988e+002
1.534967e+003,1.683097e+002
1.535931e+003,1.386114e+002
1.536896e+003,1.113580e+002
1.537860e+003,9.232245e+001
1.538824e+003,7.927374e+001
1.539788e+003,6.936682e+001
1.540752e+003,6.183905e+001
1.541717e+003,5.275800e+001
1.542681e+003,4.109119e+001
1.543645e+003,3.225873e+001
1.544609e+003,2.902881e+001
1.545573e+003,2.824890e+001
1.546538e+003,2.889594e+001
1.547502e+003,3.015643e+001
1.548466e+003,3.163336e+001
1.549430e+003,3.360022e+001
1.550395e+003,3.660742e+001
1.551359e+003,4.069843e+001
1.552323e+003,4.478107e+001
1.553287e+003,4.797247e+001
1.554252e+003,4.975940e+001
1.555216e+003,4.553033e+001
1.556180e+003,3.156274e+001
1.557144e+003,2.268481e+001
1.558109e+003,2.457062e+001
1.559073e+003,2.627667e+001
1.560037e+003,2.390076e+001
1.561001e+003,2.025903e+001
1.561966e+003,1.788770e+001
1.562930e+003,1.734381e+001
1.563894e+003,1.818958e+001
1.564858e+003,1.984058e+001
1.565823e+003,2.197034e+001
1.566787e+003,2.457690e+001
1.567751e+003,2.715192e+001
1.568715e+003,2.785028e+001
1.569679e+003,2.634528e+001
1.570644e+003,2.559338e+001
1.571608e+003,2.551166e+001
1.572572e+003,2.561047e+001
1.573536e+003,2.652527e+001
1.574500e+003,2.761218e+001
1.575465e+003,2.800043e+001
1.576429e+003,2.821686e+001
1.577393e+003,2.913525e+001
1.578357e+003,3.069794e+001
1.579322e+003,3.246960e+001
1.580286e+003,3.438306e+001
1.581250e+003,3.581110e+001
1.582214e+003,3.502887e+001
1.583179e+003,3.228247e+001
1.584143e+003,3.302856e+001
1.585107e+003,3.999420e+001
1.586071e+003,4.360065e+001
1.587036e+003,4.276141e+001
1.588000e+003,4.126013e+001
1.588964e+003,3.844904e+001
1.589928e+003,3.662982e+001
1.590893e+003,3.917407e+001
1.591857e+003,4.499725e+001
1.592821e+003,5.078448e+001
1.593785e+003,5.521777e+001
1.594750e+003,5.792865e+001
1.595714e+003,5.825433e+001
1.596678e+003,5.692590e+001
1.597642e+003,5.588989e+001
1.598606e+003,5.529120e+001
1.599571e+003,5.627246e+001
1.600535e+003,6.021246e+001
1.601499e+003,6.335944e+001
1.602463e+003,6.404431e+001
1.603427e+003,6.424261e+001
1.604392e+003,6.595850e+001
1.605356e+003,6.797308e+001
1.606320e+003,6.776636e+001
1.607284e+003,6.540509e+001
1.608249e+003,6.307129e+001
1.609213e+003,6.174402e+001
1.610177e+003,6.221893e+001
1.611141e+003,6.609705e+001
1.612106e+003,7.187006e+001
1.613070e+003,7.360376e+001
1.614034e+003,7.106439e+001
1.614998e+003,6.977625e+001
1.615963e+003,7.121771e+001
1.616927e+003,7.285791e+001
1.617891e+003,7.316144e+001
1.618855e+003,7.322449e+001
1.619820e+003,7.457098e+001
1.620784e+003,7.619165e+001
1.621748e+003,7.570288e+001
1.622712e+003,7.341150e+001
1.623677e+003,7.280609e+001
1.624641e+003,7.581549e+001
1.625605e+003,8.002533e+001
1.626569e+003,8.211371e+001
1.627533e+003,8.191876e+001
1.628498e+003,8.180988e+001
1.629462e+003,8.241559e+001
1.630426e+003,8.276953e+001
1.631390e+003,8.229163e+001
1.632354e+003,8.212683e+001
1.633319e+003,8.334198e+001
1.634283e+003,8.462671e+001
1.635247e+003,8.410724e+001
1.636211e+003,8.204987e+001
1.637176e+003,7.986426e+001
1.638140e+003,7.810822e+001
1.639104e+003,7.762097e+001
1.640068e+003,7.926874e+001
1.641033e+003,8.115302e+001
1.641997e+003,7.962469e+001
1.642961e+003,7.600098e+001
1.643925e+003,7.742767e+001
1.644890e+003,8.540961e+001
1.645854e+003,9.085950e+001
1.646818e+003,8.960150e+001
1.647782e+003,8.650250e+001
1.648747e+003,8.405048e+001
1.649711e+003,8.218915e+001
1.650675e+003,8.124927e+001
1.651639e+003,8.116333e+001
1.652604e+003,8.061017e+001
1.653568e+003,7.892719e+001
1.654532e+003,7.741736e+001
1.655496e+003,7.721179e+001
1.656460e+003,7.781042e+001
1.657425e+003,7.912012e+001
1.658389e+003,8.092859e+001
1.659353e+003,7.938513e+001
1.660317e+003,7.279669e+001
1.661281e+003,6.868713e+001
1.662246e+003,7.164844e+001
1.663210e+003,7.455920e+001
1.664174e+003,7.287177e+001
1.665138e+003,6.847577e+001
1.666103e+003,6.258148e+001
1.667067e+003,5.633301e+001
1.668031e+003,5.378381e+001
1.668995e+003,5.634723e+001
1.669960e+003,5.981573e+001
1.670924e+003,6.099786e+001
1.671888e+003,6.100928e+001
1.672852e+003,6.169312e+001
1.673817e+003,6.265369e+001
1.674781e+003,6.187885e+001
1.675745e+003,5.860663e+001
1.676709e+003,5.643323e+001
1.677674e+003,5.778772e+001
1.678638e+003,5.825159e+001
1.679602e+003,5.435229e+001
1.680566e+003,4.884711e+001
1.681531e+003,4.501349e+001
1.682495e+003,4.327808e+001
1.683459e+003,4.324176e+001
1.684423e+003,4.440491e+001
1.685387e+003,4.524707e+001
1.686352e+003,4.484625e+001
1.687316e+003,4.380109e+001
1.688280e+003,4.264703e+001
1.689244e+003,4.125470e+001
1.690208e+003,4.036212e+001
1.691173e+003,4.019208e+001
1.692137e+003,3.956311e+001
1.693101e+003,3.744598e+001
1.694065e+003,3.689429e+001
1.695030e+003,4.063617e+001
1.695994e+003,4.450568e+001
1.696958e+003,4.415295e+001
1.697922e+003,4.077313e+001
1.698887e+003,3.764905e+001
1.699851e+003,3.570331e+001
1.700815e+003,3.400562e+001
1.701779e+003,3.195605e+001
1.702744e+003,2.994910e+001
1.703708e+003,2.860730e+001
1.704672e+003,2.812177e+001
1.705636e+003,2.813580e+001
1.706601e+003,2.828210e+001
1.707565e+003,2.799829e+001
1.708529e+003,2.678223e+001
1.709493e+003,2.649738e+001
1.710458e+003,2.935864e+001
1.711422e+003,3.164850e+001
1.712386e+003,3.001166e+001
1.713350e+003,2.639270e+001
1.714314e+003,2.347040e+001
1.715279e+003,2.171075e+001
1.716243e+003,2.096112e+001
1.717207e+003,2.129871e+001
1.718171e+003,2.135388e+001
1.719135e+003,1.885510e+001
1.720100e+003,1.451892e+001
1.721064e+003,1.249066e+001
1.722028e+003,1.307245e+001
1.722992e+003,1.457910e+001
1.723957e+003,1.924579e+001
1.724921e+003,2.233160e+001
1.725885e+003,2.163654e+001
1.726849e+003,1.953973e+001
1.727814e+003,1.708197e+001
1.728778e+003,1.542975e+001
1.729742e+003,1.580774e+001
1.730706e+003,1.729749e+001
1.731671e+003,1.748938e+001
1.732635e+003,1.532635e+001
1.733599e+003,1.228613e+001
1.734563e+003,1.022986e+001
1.735528e+003,9.596619e+000
1.736492e+003,1.036591e+001
1.737456e+003,1.234894e+001
1.738420e+003,1.348022e+001
1.739385e+003,1.315771e+001
1.740349e+003,1.217157e+001
1.741313e+003,1.009399e+001
1.742277e+003,9.100708e+000
1.743241e+003,1.159418e+001
1.744206e+003,1.467603e+001
1.745170e+003,1.545068e+001
1.746134e+003,1.446796e+001
1.747098e+003,1.346680e+001
1.748063e+003,1.280798e+001
1.749027e+003,1.197363e+001
1.749991e+003,1.054401e+001
1.750955e+003,9.861267e+000
1.751919e+003,1.233948e+001
1.752884e+003,1.609338e+001
1.753848e+003,1.609912e+001
1.754812e+003,1.249640e+001
1.755776e+003,9.230042e+000
1.756741e+003,7.325378e+000
1.757705e+003,6.516174e+000
1.758669e+003,6.358948e+000
1.759633e+003,6.881714e+000
1.760598e+003,8.732971e+000
1.761562e+003,1.098730e+001
1.762526e+003,1.200885e+001
1.763490e+003,1.222601e+001
1.764455e+003,1.356689e+001
1.765419e+003,1.750049e+001
1.766383e+003,2.014331e+001
1.767347e+003,1.811304e+001
1.768312e+003,1.460254e+001
1.769276e+003,1.210077e+001
1.770240e+003,1.032092e+001
1.771204e+003,9.758362e+000
1.772168e+003,1.019128e+001
1.773133e+003,8.372070e+000
1.774097e+003,3.093262e+000
1.775061e+003,-7.722168e-001
1.776025e+003,8.657227e-001
1.776990e+003,5.034241e+000
1.777954e+003,6.816101e+000
1.778918e+003,6.931885e+000
1.779882e+003,8.545105e+000
1.780846e+003,1.260199e+001
1.781811e+003,1.381390e+001
1.782775e+003,9.502869e+000
1.783739e+003,6.783020e+000
1.784703e+003,9.563721e+000
1.785668e+003,1.308466e+001
1.786632e+003,1.300464e+001
1.787596e+003,1.089838e+001
1.788560e+003,1.002045e+001
1.789525e+003,1.098669e+001
1.790489e+003,1.264874e+001
1.791453e+003,1.419678e+001
1.792417e+003,1.497314e+001
1.793382e+003,1.407916e+001
1.794346e+003,1.211011e+001
1.795310e+003,1.127972e+001
1.796274e+003,1.184344e+001
1.797239e+003,1.294598e+001
1.798203e+003,1.541327e+001
1.799167e+003,1.740906e+001
1.800131e+003,1.815503e+001
1.801095e+003,1.724121e+001
1.802060e+003,1.338861e+001
1.803024e+003,1.023560e+001
1.803988e+003,1.172723e+001
1.804952e+003,1.503638e+001
1.805917e+003,1.466595e+001
1.806881e+003,1.032617e+001
1.807845e+003,6.388123e+000
1.808809e+003,4.837158e+000
1.809773e+003,5.233032e+000
1.810738e+003,8.037964e+000
1.811702e+003,1.174817e+001
1.812666e+003,1.384137e+001
1.813630e+003,1.456219e+001
1.814595e+003,1.497815e+001
1.815559e+003,1.510614e+001
1.816523e+003,1.476819e+001
1.817487e+003,1.404401e+001
1.818452e+003,1.295642e+001
1.819416e+003,1.120538e+001
1.820380e+003,9.835510e+000
1.821344e+003,1.060297e+001
1.822309e+003,1.299384e+001
1.823273e+003,1.464777e+001
1.824237e+003,1.581299e+001
1.825201e+003,1.698108e+001
1.826166e+003,1.838129e+001
1.827130e+003,1.908557e+001
1.828094e+003,1.809216e+001
1.829058e+003,1.655432e+001
1.830022e+003,1.566925e+001
1.830987e+003,1.523962e+001
1.831951e+003,1.469647e+001
1.832915e+003,1.396112e+001
1.833879e+003,1.314349e+001
1.834844e+003,1.243933e+001
1.835808e+003,1.227478e+001
1.836772e+003,1.293390e+001
1.837736e+003,1.408954e+001
1.838700e+003,1.503265e+001
1.839665e+003,1.565283e+001
1.840629e+003,1.722705e+001
1.841593e+003,2.034296e+001
1.842557e+003,2.259277e+001
1.843522e+003,2.349750e+001
1.844486e+003,2.406281e+001
1.845450e+003,2.531989e+001
1.846414e+003,2.622784e+001
1.847379e+003,2.523352e+001
1.848343e+003,2.296783e+001
1.849307e+003,2.063531e+001
1.850271e+003,1.892615e+001
1.851236e+003,1.832111e+001
1.852200e+003,1.895654e+001
1.853164e+003,1.961536e+001
1.854128e+003,1.862329e+001
1.855093e+003,1.756061e+001
1.856057e+003,1.925500e+001
1.857021e+003,2.223547e+001
1.857985e+003,2.313434e+001
1.858949e+003,2.233954e+001
1.859914e+003,2.250830e+001
1.860878e+003,2.422235e+001
1.861842e+003,2.597919e+001
1.862806e+003,2.689026e+001
1.863771e+003,2.677441e+001
1.864735e+003,2.516321e+001
1.865699e+003,2.305194e+001
1.866663e+003,2.390808e+001
1.867627e+003,2.861438e+001
1.868592e+003,3.018799e+001
1.869556e+003,2.420154e+001
1.870520e+003,2.041394e+001
1.871484e+003,2.078778e+001
1.872449e+003,2.125726e+001
1.873413e+003,2.050409e+001
1.874377e+003,2.121594e+001
1.875341e+003,2.607104e+001
1.876306e+003,3.172296e+001
1.877270e+003,3.353070e+001
1.878234e+003,3.158392e+001
1.879198e+003,2.865839e+001
1.880163e+003,2.614435e+001
1.881127e+003,2.516638e+001
1.882091e+003,2.711658e+001
1.883055e+003,2.981104e+001
1.884020e+003,2.934515e+001
1.884984e+003,2.677295e+001
1.885948e+003,2.603882e+001
1.886912e+003,2.703253e+001
1.887876e+003,2.686426e+001
1.888841e+003,2.484265e+001
1.889805e+003,2.502289e+001
1.890769e+003,3.007892e+001
1.891733e+003,3.474121e+001
1.892698e+003,3.340918e+001
1.893662e+003,2.870135e+001
1.894626e+003,2.671075e+001
1.895590e+003,2.769440e+001
1.896554e+003,2.928625e+001
1.897519e+003,3.229535e+001
1.898483e+003,3.441876e+001
1.899447e+003,3.412701e+001
1.900411e+003,3.363525e+001
1.901376e+003,3.399988e+001
1.902340e+003,3.449536e+001
1.903304e+003,3.448462e+001
1.904268e+003,3.413934e+001
1.905233e+003,3.399615e+001
1.906197e+003,3.409802e+001
1.907161e+003,3.373029e+001
1.908125e+003,3.291077e+001
1.909090e+003,3.344727e+001
1.910054e+003,3.659192e+001
1.911018e+003,3.957910e+001
1.911982e+003,3.841833e+001
1.912947e+003,3.489124e+001
1.913911e+003,3.392914e+001
1.914875e+003,3.530035e+001
1.915839e+003,3.687848e+001
1.916803e+003,3.820764e+001
1.917768e+003,3.856726e+001
1.918732e+003,3.788470e+001
1.919696e+003,3.665076e+001
1.920660e+003,3.449713e+001
1.921625e+003,3.340198e+001
1.922589e+003,3.663293e+001
1.923553e+003,4.273663e+001
1.924517e+003,4.592615e+001
1.925481e+003,4.604688e+001
1.926446e+003,4.624921e+001
1.927410e+003,4.633057e+001
1.928374e+003,4.685468e+001
1.929338e+003,4.854834e+001
1.930303e+003,4.952106e+001
1.931267e+003,4.941309e+001
1.932231e+003,4.851501e+001
1.933195e+003,4.559985e+001
1.934160e+003,4.203595e+001
1.935124e+003,4.063062e+001
1.936088e+003,4.140637e+001
1.937052e+003,4.230420e+001
1.938017e+003,4.273810e+001
1.938981e+003,4.379517e+001
1.939945e+003,4.640784e+001
1.940909e+003,4.897363e+001
1.941874e+003,4.881396e+001
1.942838e+003,4.655579e+001
1.943802e+003,4.443890e+001
1.944766e+003,4.294318e+001
1.945730e+003,4.203198e+001
1.946695e+003,4.142169e+001
1.947659e+003,4.288226e+001
1.948623e+003,4.762170e+001
1.949587e+003,5.187201e+001
1.950552e+003,5.251709e+001
1.951516e+003,5.075482e+001
1.952480e+003,4.785242e+001
1.953444e+003,4.394226e+001
1.954408e+003,4.318634e+001
1.955373e+003,4.717657e+001
1.956337e+003,4.916119e+001
1.957301e+003,4.784174e+001
1.958265e+003,4.784058e+001
1.959230e+003,5.166473e+001
1.960194e+003,5.493915e+001
1.961158e+003,5.411731e+001
1.962122e+003,5.187250e+001
1.963087e+003,5.119867e+001
1.964051e+003,5.177142e+001
1.965015e+003,5.221136e+001
1.965979e+003,5.244720e+001
1.966944e+003,5.311389e+001
1.967908e+003,5.428552e+001
1.968872e+003,5.488330e+001
1.969836e+003,5.325787e+001
1.970801e+003,5.181165e+001
1.971765e+003,5.402948e+001
1.972729e+003,5.777905e+001
1.973693e+003,5.943073e+001
1.974657e+003,5.917975e+001
1.975622e+003,5.802332e+001
1.976586e+003,5.648499e+001
1.977550e+003,5.626434e+001
1.978514e+003,5.807599e+001
1.979479e+003,5.991620e+001
1.980443e+003,5.997327e+001
1.981407e+003,5.878046e+001
1.982371e+003,5.718433e+001
1.983335e+003,5.554211e+001
1.984300e+003,5.539886e+001
1.985264e+003,5.657794e+001
1.986228e+003,5.864789e+001
1.987192e+003,6.203168e+001
1.988157e+003,6.476764e+001
1.989121e+003,6.691376e+001
1.990085e+003,6.754944e+001
1.991049e+003,6.512946e+001
1.992014e+003,6.234485e+001
1.992978e+003,6.227118e+001
1.993942e+003,6.365228e+001
1.994906e+003,6.385944e+001
1.995871e+003,6.292444e+001
1.996835e+003,6.236249e+001
1.997799e+003,6.248218e+001
1.998763e+003,6.337958e+001
1.999728e+003,6.539148e+001
