5.003444e+002,2.030060e+002
5.013087e+002,2.013715e+002
5.022729e+002,2.044156e+002
5.032371e+002,2.101868e+002
5.042014e+002,2.090952e+002
5.051656e+002,2.023475e+002
5.061298e+002,1.944371e+002
5.070941e+002,1.890259e+002
5.080583e+002,1.858497e+002
5.090225e+002,1.850494e+002
5.099868e+002,1.887435e+002
5.109510e+002,1.917910e+002
5.119152e+002,1.913273e+002
5.128795e+002,1.870923e+002
5.138437e+002,1.828019e+002
5.148079e+002,1.799617e+002
5.157722e+002,1.774802e+002
5.167364e+002,1.744524e+002
5.177006e+002,1.707327e+002
5.186649e+002,1.670063e+002
5.196291e+002,1.647020e+002
5.205933e+002,1.641221e+002
5.215576e+002,1.652067e+002
5.225218e+002,1.670657e+002
5.234860e+002,1.681161e+002
5.244503e+002,1.662462e+002
5.254145e+002,1.613149e+002
5.263787e+002,1.571071e+002
5.273430e+002,1.530739e+002
5.283072e+002,1.500920e+002
5.292714e+002,1.495665e+002
5.302357e+002,1.525879e+002
5.311999e+002,1.532937e+002
5.321641e+002,1.515543e+002
5.331284e+002,1.490065e+002
5.340926e+002,1.463657e+002
5.350568e+002,1.434949e+002
5.360211e+002,1.400601e+002
5.369853e+002,1.368959e+002
5.379495e+002,1.339094e+002
5.389138e+002,1.304608e+002
5.398780e+002,1.263018e+002
5.408422e+002,1.218898e+002
5.418065e+002,1.187052e+002
5.427707e+002,1.166578e+002
5.437349e+002,1.157671e+002
5.446992e+002,1.163003e+002
5.456634e+002,1.176479e+002
5.466276e+002,1.179323e+002
5.475919e+002,1.169840e+002
5.485561e+002,1.154572e+002
5.495203e+002,1.127313e+002
5.504846e+002,1.090978e+002
5.514488e+002,1.050668e+002
5.524130e+002,1.007455e+002
5.533773e+002,9.741309e+001
5.543415e+002,9.577649e+001
5.553057e+002,9.512476e+001
5.562700e+002,9.478125e+001
5.572342e+002,9.422632e+001
5.581984e+002,9.323914e+001
5.591627e+002,9.174170e+001
5.601269e+002,9.027441e+001
5.610911e+002,8.908545e+001
5.620554e+002,8.812292e+001
5.630196e+002,8.704785e+001
5.639838e+002,8.518555e+001
5.649481e+002,8.160510e+001
5.659123e+002,7.866968e+001
5.668765e+002,7.817358e+001
5.678408e+002,7.959155e+001
5.688050e+002,8.026086e+001
5.697692e+002,7.767249e+001
5.707335e+002,7.464478e+001
5.716977e+002,7.256836e+001
5.726619e+002,7.098767e+001
5.736262e+002,6.897522e+001
5.745904e+002,6.579248e+001
5.755546e+002,6.315588e+001
5.765189e+002,6.404504e+001
5.774831e+002,6.617725e+001
5.784473e+002,6.592969e+001
5.794116e+002,6.115833e+001
5.803758e+002,5.294714e+001
5.813400e+002,4.980994e+001
5.823043e+002,5.194543e+001
5.832685e+002,5.398584e+001
5.842327e+002,5.501526e+001
5.851970e+002,5.551208e+001
5.861612e+002,5.573975e+001
5.871254e+002,5.455383e+001
5.880897e+002,5.331360e+001
5.890539e+002,5.236499e+001
5.900181e+002,5.113684e+001
5.909824e+002,4.850317e+001
5.919466e+002,4.309521e+001
5.929108e+002,3.843518e+001
5.938751e+002,3.828906e+001
5.948393e+002,4.091211e+001
5.958035e+002,4.396765e+001
5.967678e+002,4.582483e+001
5.977320e+002,4.683582e+001
5.986962e+002,4.771021e+001
5.996605e+002,4.785791e+001
6.006247e+002,4.698169e+001
6.015889e+002,4.428967e+001
6.025532e+002,4.009058e+001
6.035174e+002,3.768896e+001
6.044816e+002,3.953809e+001
6.054459e+002,4.091797e+001
6.064101e+002,4.108594e+001
6.073743e+002,4.027478e+001
6.083386e+002,3.910657e+001
6.093028e+002,3.794739e+001
6.102670e+002,3.676697e+001
6.112313e+002,3.505676e+001
6.121955e+002,3.326868e+001
6.131597e+002,3.183496e+001
6.141240e+002,3.105444e+001
6.150882e+002,3.097900e+001
6.160524e+002,3.316858e+001
6.170167e+002,3.750684e+001
6.179809e+002,4.076746e+001
6.189451e+002,4.104785e+001
6.199094e+002,3.833752e+001
6.208736e+002,3.501868e+001
6.218378e+002,2.990686e+001
6.228021e+002,2.706860e+001
6.237663e+002,2.811304e+001
6.247305e+002,3.155176e+001
6.256948e+002,3.498108e+001
6.266590e+002,3.749097e+001
6.276232e+002,3.808826e+001
6.285875e+002,3.695264e+001
6.295517e+002,3.482776e+001
6.305159e+002,3.179236e+001
6.314802e+002,2.783630e+001
6.324444e+002,2.348596e+001
6.334086e+002,2.170093e+001
6.343729e+002,2.205945e+001
6.353371e+002,2.200012e+001
6.363013e+002,2.033972e+001
6.372656e+002,1.747937e+001
6.382298e+002,1.542175e+001
6.391940e+002,1.524341e+001
6.401583e+002,1.397314e+001
6.411225e+002,1.143201e+001
6.420867e+002,9.185059e+000
6.430510e+002,9.027588e+000
6.440152e+002,1.177295e+001
6.449794e+002,1.299207e+001
6.459437e+002,9.403687e+000
6.469079e+002,4.473755e+000
6.478721e+002,8.239746e-001
6.488364e+002,-4.071045e-001
6.498006e+002,9.399414e-002
6.507648e+002,1.307129e+000
6.517291e+002,2.776245e+000
6.526933e+002,3.618164e+000
6.536575e+002,3.556274e+000
6.546218e+002,3.604736e+000
6.555860e+002,6.041748e+000
6.565502e+002,1.404724e+001
6.575145e+002,1.675354e+001
6.584787e+002,1.031201e+001
6.594429e+002,2.491455e+000
6.604072e+002,-2.152100e-001
6.613714e+002,3.574463e+000
6.623356e+002,7.260498e+000
6.632999e+002,7.237793e+000
6.642641e+002,5.892090e+000
6.652283e+002,4.646729e+000
6.661926e+002,3.977173e+000
6.671568e+002,3.438232e+000
6.681210e+002,1.840332e+000
6.690853e+002,-1.319580e-001
6.700495e+002,1.448975e-001
6.710137e+002,2.614868e+000
6.719780e+002,5.523071e+000
6.729422e+002,6.892700e+000
6.739064e+002,6.086670e+000
6.748707e+002,6.052734e+000
6.758349e+002,8.018799e+000
6.767991e+002,8.899048e+000
6.777634e+002,6.846436e+000
6.787276e+002,2.865112e+000
6.796918e+002,1.442505e+000
6.806561e+002,6.240234e+000
6.816203e+002,1.055127e+001
6.825845e+002,1.208569e+001
6.835488e+002,1.133484e+001
6.845130e+002,9.085938e+000
6.854772e+002,5.775146e+000
6.864415e+002,3.124756e+000
6.874057e+002,4.656128e+000
6.883699e+002,8.333008e+000
6.893342e+002,1.054553e+001
6.902984e+002,9.390015e+000
6.912626e+002,5.570190e+000
6.922269e+002,2.629395e+000
6.931911e+002,1.834717e+000
6.941553e+002,2.052368e+000
6.951196e+002,2.189209e+000
6.960838e+002,2.536255e+000
6.970480e+002,4.475586e+000
6.980123e+002,9.781128e+000
6.989765e+002,1.365417e+001
6.999407e+002,1.346216e+001
7.009050e+002,1.170935e+001
7.018692e+002,1.025159e+001
7.028334e+002,9.670044e+000
7.037977e+002,9.007690e+000
7.047619e+002,6.750000e+000
7.057261e+002,4.135986e+000
7.066904e+002,2.896362e+000
7.076546e+002,3.271362e+000
7.086188e+002,4.226196e+000
7.095831e+002,3.982056e+000
7.105473e+002,1.142090e+000
7.115115e+002,7.333984e-001
7.124758e+002,4.498901e+000
7.134400e+002,8.046509e+000
7.144042e+002,9.111206e+000
7.153685e+002,7.816895e+000
7.163327e+002,5.717407e+000
7.172969e+002,1.673218e+000
7.182612e+002,-1.165894e+000
7.192254e+002,-7.673340e-001
7.201896e+002,1.550415e+000
7.211539e+002,3.062378e+000
7.221181e+002,1.427734e+000
7.230823e+002,-1.759766e+000
7.240466e+002,-1.837402e+000
7.250108e+002,9.688721e-001
7.259750e+002,4.041992e+000
7.269393e+002,5.317627e+000
7.279035e+002,4.394043e+000
7.288677e+002,3.325562e+000
7.298320e+002,4.923462e+000
7.307962e+002,5.292114e+000
7.317604e+002,2.024536e+000
7.327247e+002,-1.611816e+000
7.336889e+002,-7.208252e-001
7.346531e+002,6.754883e+000
7.356174e+002,1.185620e+001
7.365816e+002,1.001135e+001
7.375458e+002,6.207886e+000
7.385101e+002,3.547119e+000
7.394743e+002,3.108398e+000
7.404385e+002,4.177368e+000
7.414028e+002,5.633423e+000
7.423670e+002,6.328247e+000
7.433312e+002,7.067871e+000
7.442955e+002,8.941528e+000
7.452597e+002,1.110437e+001
7.462239e+002,1.181201e+001
7.471882e+002,9.944702e+000
7.481524e+002,1.029895e+001
7.491166e+002,1.401929e+001
7.500809e+002,1.645422e+001
7.510451e+002,1.574780e+001
7.520093e+002,1.231396e+001
7.529736e+002,7.857056e+000
7.539378e+002,2.557007e+000
7.549020e+002,-8.435059e-001
7.558663e+002,-6.101074e-001
7.568306e+002,1.995850e+000
7.577948e+002,5.447388e+000
7.587590e+002,8.518188e+000
7.597233e+002,1.067029e+001
7.606875e+002,1.139795e+001
7.616517e+002,1.129297e+001
7.626160e+002,1.066724e+001
7.635802e+002,9.341431e+000
7.645444e+002,8.056274e+000
7.655087e+002,8.271240e+000
7.664729e+002,1.050610e+001
7.674371e+002,1.280481e+001
7.684014e+002,1.570386e+001
7.693656e+002,1.791296e+001
7.703298e+002,1.854749e+001
7.712941e+002,1.767322e+001
7.722583e+002,1.637341e+001
7.732225e+002,1.514917e+001
7.741868e+002,1.396265e+001
7.751510e+002,1.233459e+001
7.761152e+002,1.076538e+001
7.770795e+002,1.026599e+001
7.780437e+002,1.166101e+001
7.790079e+002,1.454065e+001
7.799722e+002,1.712817e+001
7.809364e+002,1.947327e+001
7.819006e+002,2.132471e+001
7.828649e+002,2.337305e+001
7.838291e+002,2.552551e+001
7.847933e+002,2.637366e+001
7.857576e+002,2.457959e+001
7.867218e+002,2.147913e+001
7.876860e+002,1.595227e+001
7.886503e+002,1.154321e+001
7.896145e+002,1.220398e+001
7.905787e+002,1.852075e+001
7.915430e+002,2.512146e+001
7.925072e+002,2.442261e+001
7.934714e+002,2.080017e+001
7.944357e+002,1.994141e+001
7.953999e+002,2.240967e+001
7.963641e+002,2.586975e+001
7.973284e+002,2.745923e+001
7.982926e+002,2.703857e+001
7.992568e+002,2.738354e+001
8.002211e+002,2.798730e+001
8.011853e+002,2.722620e+001
8.021495e+002,2.533838e+001
8.031138e+002,2.336011e+001
8.040780e+002,2.195239e+001
8.050422e+002,1.958545e+001
8.060065e+002,1.883289e+001
8.069707e+002,2.098645e+001
8.079349e+002,2.383862e+001
8.088992e+002,2.597705e+001
8.098634e+002,2.696985e+001
8.108276e+002,2.671863e+001
8.117919e+002,2.305261e+001
8.127561e+002,1.720337e+001
8.137203e+002,1.428357e+001
8.146846e+002,1.547681e+001
8.156488e+002,1.815222e+001
8.166130e+002,1.848792e+001
8.175773e+002,1.551160e+001
8.185415e+002,1.506091e+001
8.195057e+002,1.821277e+001
8.204700e+002,2.086060e+001
8.214342e+002,2.157520e+001
8.223984e+002,2.077490e+001
8.233627e+002,1.968054e+001
8.243269e+002,1.868433e+001
8.252911e+002,1.800171e+001
8.262554e+002,1.662256e+001
8.272196e+002,1.594604e+001
8.281838e+002,1.859888e+001
8.291481e+002,2.474268e+001
8.301123e+002,3.052173e+001
8.310765e+002,2.815161e+001
8.320408e+002,1.843079e+001
8.330050e+002,1.458704e+001
8.339692e+002,1.871765e+001
8.349335e+002,2.487964e+001
8.358977e+002,2.715039e+001
8.368619e+002,2.525305e+001
8.378262e+002,2.430359e+001
8.387904e+002,2.453271e+001
8.397546e+002,2.461194e+001
8.407189e+002,2.365076e+001
8.416831e+002,2.258167e+001
8.426473e+002,2.336804e+001
8.436116e+002,2.739990e+001
8.445758e+002,3.167944e+001
8.455400e+002,3.151416e+001
8.465043e+002,2.918848e+001
8.474685e+002,2.828992e+001
8.484327e+002,3.013806e+001
8.493970e+002,3.329712e+001
8.503612e+002,3.455786e+001
8.513254e+002,3.323193e+001
8.522897e+002,3.227673e+001
8.532539e+002,3.026868e+001
8.542181e+002,2.949670e+001
8.551824e+002,3.274060e+001
8.561466e+002,4.008618e+001
8.571108e+002,4.714526e+001
8.580751e+002,5.176221e+001
8.590393e+002,5.427820e+001
8.600035e+002,5.426343e+001
8.609678e+002,5.373206e+001
8.619320e+002,5.498755e+001
8.628962e+002,5.875110e+001
8.638605e+002,6.298645e+001
8.648247e+002,6.438098e+001
8.657889e+002,6.396448e+001
8.667532e+002,6.429431e+001
8.677174e+002,6.569263e+001
8.686816e+002,6.719080e+001
8.696459e+002,6.762708e+001
8.706101e+002,6.693298e+001
8.715743e+002,6.836047e+001
8.725386e+002,7.412390e+001
8.735028e+002,7.912817e+001
8.744670e+002,8.093201e+001
8.754313e+002,8.048547e+001
8.763955e+002,8.007910e+001
8.773597e+002,8.052148e+001
8.783240e+002,8.215698e+001
8.792882e+002,8.580884e+001
8.802524e+002,8.967261e+001
8.812167e+002,9.198779e+001
8.821809e+002,9.266968e+001
8.831451e+002,9.335693e+001
8.841094e+002,9.643567e+001
8.850736e+002,1.020912e+002
8.860378e+002,1.045328e+002
8.870021e+002,1.024106e+002
8.879663e+002,1.008428e+002
8.889305e+002,1.026039e+002
8.898948e+002,1.069498e+002
8.908590e+002,1.111189e+002
8.918232e+002,1.156873e+002
8.927875e+002,1.199058e+002
8.937517e+002,1.239636e+002
8.947159e+002,1.274795e+002
8.956802e+002,1.293802e+002
8.966444e+002,1.293529e+002
8.976086e+002,1.285653e+002
8.985729e+002,1.284436e+002
8.995371e+002,1.295769e+002
9.005013e+002,1.323052e+002
9.014656e+002,1.366121e+002
9.024298e+002,1.413375e+002
9.033940e+002,1.452874e+002
9.043583e+002,1.479435e+002
9.053225e+002,1.492800e+002
9.062867e+002,1.475929e+002
9.072510e+002,1.457432e+002
9.082152e+002,1.443079e+002
9.091794e+002,1.438386e+002
9.101437e+002,1.450548e+002
9.111079e+002,1.480269e+002
9.120721e+002,1.506287e+002
9.130364e+002,1.507461e+002
9.140006e+002,1.496426e+002
9.149648e+002,1.482540e+002
9.159291e+002,1.471096e+002
9.168933e+002,1.461609e+002
9.178575e+002,1.451012e+002
9.188218e+002,1.439895e+002
9.197860e+002,1.445348e+002
9.207502e+002,1.465464e+002
9.217145e+002,1.469417e+002
9.226787e+002,1.460094e+002
9.236429e+002,1.439442e+002
9.246072e+002,1.396013e+002
9.255714e+002,1.315367e+002
9.265356e+002,1.262289e+002
9.274999e+002,1.265664e+002
9.284641e+002,1.272526e+002
9.294283e+002,1.272195e+002
9.303926e+002,1.265608e+002
9.313568e+002,1.256805e+002
9.323210e+002,1.247354e+002
9.332853e+002,1.234902e+002
9.342495e+002,1.216656e+002
9.352137e+002,1.191215e+002
9.361780e+002,1.162671e+002
9.371422e+002,1.136213e+002
9.381064e+002,1.103333e+002
9.390707e+002,1.040024e+002
9.400349e+002,9.245459e+001
9.409991e+002,8.833252e+001
9.419634e+002,9.823315e+001
9.429276e+002,1.057225e+002
9.438918e+002,1.055150e+002
9.448561e+002,1.007990e+002
9.458203e+002,9.688440e+001
9.467845e+002,9.527466e+001
9.477488e+002,9.524207e+001
9.487130e+002,9.706274e+001
9.496772e+002,9.932874e+001
9.506415e+002,1.011494e+002
9.516057e+002,1.023180e+002
9.525699e+002,1.028550e+002
9.535342e+002,1.027037e+002
9.544984e+002,1.016648e+002
9.554626e+002,1.000660e+002
9.564269e+002,9.879077e+001
9.573911e+002,9.754602e+001
9.583553e+002,9.545178e+001
9.593196e+002,9.329846e+001
9.602838e+002,9.272205e+001
9.612480e+002,9.407117e+001
9.622123e+002,9.483350e+001
9.631765e+002,9.426709e+001
9.641407e+002,9.343689e+001
9.651050e+002,9.308484e+001
9.660692e+002,9.238672e+001
9.670334e+002,8.955066e+001
9.679977e+002,8.372083e+001
9.689619e+002,7.772986e+001
9.699261e+002,7.677808e+001
9.708904e+002,7.923425e+001
9.718546e+002,8.273401e+001
9.728188e+002,8.653455e+001
9.737831e+002,9.112524e+001
9.747473e+002,9.770605e+001
9.757115e+002,1.069536e+002
9.766758e+002,1.157117e+002
9.776400e+002,1.265870e+002
9.786042e+002,1.348179e+002
9.795685e+002,1.394235e+002
9.805327e+002,1.396923e+002
9.814969e+002,1.344827e+002
9.824612e+002,1.237816e+002
9.834254e+002,1.116885e+002
9.843896e+002,9.943433e+001
9.853539e+002,8.854016e+001
9.863181e+002,8.199329e+001
9.872823e+002,7.881104e+001
9.882466e+002,7.532385e+001
9.892108e+002,6.898462e+001
9.901750e+002,6.127246e+001
9.911393e+002,5.718884e+001
9.921035e+002,5.636731e+001
9.930677e+002,5.683008e+001
9.940320e+002,6.061328e+001
9.949962e+002,6.527148e+001
9.959604e+002,6.804993e+001
9.969247e+002,6.900171e+001
9.978889e+002,7.165637e+001
9.988531e+002,7.910669e+001
9.998174e+002,8.494714e+001
1.000782e+003,8.510913e+001
1.001746e+003,8.235803e+001
1.002710e+003,8.010376e+001
1.003674e+003,7.995862e+001
1.004639e+003,8.167456e+001
1.005603e+003,8.515527e+001
1.006567e+003,9.039368e+001
1.007531e+003,9.293933e+001
1.008495e+003,9.217932e+001
1.009460e+003,9.041699e+001
1.010424e+003,8.903967e+001
1.011388e+003,8.801563e+001
1.012352e+003,8.643713e+001
1.013317e+003,8.280237e+001
1.014281e+003,8.084534e+001
1.015245e+003,8.421069e+001
1.016209e+003,8.664185e+001
1.017174e+003,8.336987e+001
1.018138e+003,7.465234e+001
1.019102e+003,6.390723e+001
1.020066e+003,5.373767e+001
1.021031e+003,4.494287e+001
1.021995e+003,3.884534e+001
1.022959e+003,3.446179e+001
1.023923e+003,3.142151e+001
1.024887e+003,3.011951e+001
1.025852e+003,2.894641e+001
1.026816e+003,2.491382e+001
1.027780e+003,1.716687e+001
1.028744e+003,1.292236e+001
1.029709e+003,1.727246e+001
1.030673e+003,1.954285e+001
1.031637e+003,1.426465e+001
1.032601e+003,5.580078e+000
1.033566e+003,-2.805176e-001
1.034530e+003,-9.886475e-001
1.035494e+003,4.600830e-001
1.036458e+003,4.353027e-001
1.037422e+003,3.020020e-001
1.038387e+003,3.376953e+000
1.039351e+003,9.127075e+000
1.040315e+003,1.354175e+001
1.041279e+003,1.365540e+001
1.042244e+003,1.068591e+001
1.043208e+003,9.468994e+000
1.044172e+003,1.064551e+001
1.045136e+003,1.143774e+001
1.046101e+003,1.183923e+001
1.047065e+003,1.237415e+001
1.048029e+003,1.352869e+001
1.048993e+003,1.488757e+001
1.049958e+003,1.530334e+001
1.050922e+003,1.421289e+001
1.051886e+003,1.313379e+001
1.052850e+003,1.398608e+001
1.053814e+003,1.539001e+001
1.054779e+003,1.529846e+001
1.055743e+003,1.331592e+001
1.056707e+003,1.070801e+001
1.057671e+003,8.941650e+000
1.058636e+003,7.900757e+000
1.059600e+003,8.661865e+000
1.060564e+003,1.542639e+001
1.061528e+003,1.932629e+001
1.062493e+003,1.582947e+001
1.063457e+003,9.974121e+000
1.064421e+003,8.021973e+000
1.065385e+003,1.085022e+001
1.066349e+003,1.356763e+001
1.067314e+003,1.352563e+001
1.068278e+003,1.290002e+001
1.069242e+003,1.328088e+001
1.070206e+003,1.446863e+001
1.071171e+003,1.588464e+001
1.072135e+003,1.698584e+001
1.073099e+003,1.744177e+001
1.074063e+003,1.714355e+001
1.075028e+003,1.625366e+001
1.075992e+003,1.518274e+001
1.076956e+003,1.269641e+001
1.077920e+003,1.107214e+001
1.078885e+003,1.352954e+001
1.079849e+003,1.736462e+001
1.080813e+003,1.593384e+001
1.081777e+003,6.938843e+000
1.082741e+003,1.148560e+000
1.083706e+003,7.451416e+000
1.084670e+003,1.438074e+001
1.085634e+003,1.660217e+001
1.086598e+003,1.433813e+001
1.087563e+003,8.407715e+000
1.088527e+003,7.934570e-003
1.089491e+003,-7.619263e+000
1.090455e+003,-8.719055e+000
1.091420e+003,-2.863892e+000
1.092384e+003,3.051758e+000
1.093348e+003,9.607910e+000
1.094312e+003,1.441956e+001
1.095276e+003,1.625342e+001
1.096241e+003,1.597766e+001
1.097205e+003,1.519910e+001
1.098169e+003,1.392249e+001
1.099133e+003,1.121741e+001
1.100098e+003,5.192993e+000
1.101062e+003,-3.087158e-001
1.102026e+003,-2.856445e+000
1.102990e+003,-2.746582e+000
1.103955e+003,-1.291748e+000
1.104919e+003,5.545654e-001
1.105883e+003,2.334717e+000
1.106847e+003,3.334106e+000
1.107812e+003,3.441895e+000
1.108776e+003,3.679565e+000
1.109740e+003,3.962280e+000
1.110704e+003,4.663940e+000
1.111668e+003,6.982788e+000
1.112633e+003,1.072742e+001
1.113597e+003,1.355371e+001
1.114561e+003,1.511389e+001
1.115525e+003,1.476355e+001
1.116490e+003,9.465576e+000
1.117454e+003,4.985840e+000
1.118418e+003,6.788940e+000
1.119382e+003,1.322241e+001
1.120347e+003,1.834045e+001
1.121311e+003,1.806287e+001
1.122275e+003,1.474438e+001
1.123239e+003,1.495911e+001
1.124203e+003,1.900195e+001
1.125168e+003,2.074072e+001
1.126132e+003,1.890051e+001
1.127096e+003,1.740552e+001
1.128060e+003,1.917676e+001
1.129025e+003,2.340088e+001
1.129989e+003,2.736304e+001
1.130953e+003,3.129395e+001
1.131917e+003,3.331580e+001
1.132882e+003,3.126965e+001
1.133846e+003,2.956860e+001
1.134810e+003,3.105286e+001
1.135774e+003,3.524097e+001
1.136739e+003,4.035132e+001
1.137703e+003,4.529773e+001
1.138667e+003,4.994446e+001
1.139631e+003,5.380518e+001
1.140595e+003,5.712805e+001
1.141560e+003,6.251587e+001
1.142524e+003,7.042761e+001
1.143488e+003,8.085266e+001
1.144452e+003,9.375970e+001
1.145417e+003,1.089636e+002
1.146381e+003,1.261249e+002
1.147345e+003,1.458331e+002
1.148309e+003,1.652754e+002
1.149274e+003,1.831400e+002
1.150238e+003,2.017762e+002
1.151202e+003,2.226552e+002
1.152166e+003,2.457181e+002
1.153130e+003,2.718395e+002
1.154095e+003,3.003210e+002
1.155059e+003,3.248647e+002
1.156023e+003,3.369068e+002
1.156987e+003,3.373073e+002
1.157952e+003,3.360259e+002
1.158916e+003,3.344263e+002
1.159880e+003,3.299429e+002
1.160844e+003,3.199225e+002
1.161809e+003,3.045501e+002
1.162773e+003,2.858849e+002
1.163737e+003,2.640144e+002
1.164701e+003,2.388636e+002
1.165666e+003,2.051474e+002
1.166630e+003,1.744368e+002
1.167594e+003,1.504268e+002
1.168558e+003,1.321606e+002
1.169522e+003,1.185325e+002
1.170487e+003,1.087975e+002
1.171451e+003,1.023718e+002
1.172415e+003,9.874719e+001
1.173379e+003,9.733423e+001
1.174344e+003,9.584808e+001
1.175308e+003,9.446179e+001
1.176272e+003,9.327832e+001
1.177236e+003,9.309149e+001
1.178201e+003,9.291614e+001
1.179165e+003,9.126514e+001
1.180129e+003,8.773322e+001
1.181093e+003,8.235376e+001
1.182057e+003,7.359290e+001
1.183022e+003,6.586896e+001
1.183986e+003,6.055920e+001
1.184950e+003,5.714185e+001
1.185914e+003,5.546857e+001
1.186879e+003,5.537036e+001
1.187843e+003,5.679700e+001
1.188807e+003,5.961310e+001
1.189771e+003,6.256323e+001
1.190736e+003,6.208618e+001
1.191700e+003,5.762970e+001
1.192664e+003,5.493921e+001
1.193628e+003,5.594165e+001
1.194593e+003,5.760101e+001
1.195557e+003,5.822803e+001
1.196521e+003,5.760815e+001
1.197485e+003,5.497699e+001
1.198449e+003,4.968542e+001
1.199414e+003,4.439612e+001
1.200378e+003,4.067767e+001
1.201342e+003,3.711853e+001
1.202306e+003,3.190063e+001
1.203271e+003,2.596539e+001
1.204235e+003,2.195215e+001
1.205199e+003,2.105884e+001
1.206163e+003,2.119110e+001
1.207128e+003,1.860278e+001
1.208092e+003,1.315259e+001
1.209056e+003,9.349365e+000
1.210020e+003,9.056335e+000
1.210984e+003,6.617737e+000
1.211949e+003,-1.508972e+000
1.212913e+003,-1.169421e+001
1.213877e+003,-1.896729e+001
1.214841e+003,-2.290161e+001
1.215806e+003,-2.662378e+001
1.216770e+003,-3.174274e+001
1.217734e+003,-3.650989e+001
1.218698e+003,-3.985382e+001
1.219663e+003,-4.259796e+001
1.220627e+003,-4.561578e+001
1.221591e+003,-4.904187e+001
1.222555e+003,-5.259326e+001
1.223520e+003,-5.595020e+001
1.224484e+003,-5.871790e+001
1.225448e+003,-6.001483e+001
1.226412e+003,-5.912506e+001
1.227376e+003,-5.851971e+001
1.228341e+003,-5.775610e+001
1.229305e+003,-5.810040e+001
1.230269e+003,-6.179108e+001
1.231233e+003,-6.671216e+001
1.232198e+003,-6.786182e+001
1.233162e+003,-6.352985e+001
1.234126e+003,-5.890881e+001
1.235090e+003,-5.797937e+001
1.236055e+003,-5.911108e+001
1.237019e+003,-6.077563e+001
1.237983e+003,-6.290936e+001
1.238947e+003,-6.522467e+001
1.239911e+003,-6.735162e+001
1.240876e+003,-6.900269e+001
1.241840e+003,-7.011737e+001
1.242804e+003,-7.072333e+001
1.243768e+003,-6.983258e+001
1.244733e+003,-6.563715e+001
1.245697e+003,-6.225000e+001
1.246661e+003,-6.138062e+001
1.247625e+003,-6.107971e+001
1.248590e+003,-5.895605e+001
1.249554e+003,-5.546906e+001
1.250518e+003,-5.355072e+001
1.251482e+003,-5.494318e+001
1.252447e+003,-5.692371e+001
1.253411e+003,-5.523724e+001
1.254375e+003,-5.151379e+001
1.255339e+003,-5.016614e+001
1.256303e+003,-5.101746e+001
1.257268e+003,-5.058148e+001
1.258232e+003,-4.704834e+001
1.259196e+003,-4.204523e+001
1.260160e+003,-3.790204e+001
1.261125e+003,-3.423993e+001
1.262089e+003,-3.110052e+001
1.263053e+003,-2.893359e+001
1.264017e+003,-2.785236e+001
1.264982e+003,-2.905908e+001
1.265946e+003,-3.011017e+001
1.266910e+003,-2.787122e+001
1.267874e+003,-2.309888e+001
1.268839e+003,-1.950580e+001
1.269803e+003,-1.953314e+001
1.270767e+003,-2.175226e+001
1.271731e+003,-2.337122e+001
1.272695e+003,-2.427515e+001
1.273660e+003,-2.670917e+001
1.274624e+003,-3.226379e+001
1.275588e+003,-3.736768e+001
1.276552e+003,-3.883661e+001
1.277517e+003,-3.826501e+001
1.278481e+003,-3.947839e+001
1.279445e+003,-4.300842e+001
1.280409e+003,-4.585205e+001
1.281374e+003,-4.641241e+001
1.282338e+003,-4.675391e+001
1.283302e+003,-4.786780e+001
1.284266e+003,-4.953583e+001
1.285230e+003,-5.182135e+001
1.286195e+003,-5.448639e+001
1.287159e+003,-5.654993e+001
1.288123e+003,-5.698798e+001
1.289087e+003,-5.632697e+001
1.290052e+003,-5.719684e+001
1.291016e+003,-6.090961e+001
1.291980e+003,-6.269415e+001
1.292944e+003,-6.254413e+001
1.293909e+003,-6.156390e+001
1.294873e+003,-5.889703e+001
1.295837e+003,-5.560034e+001
1.296801e+003,-5.265564e+001
1.297766e+003,-5.044739e+001
1.298730e+003,-5.142072e+001
1.299694e+003,-5.918597e+001
1.300658e+003,-6.701880e+001
1.301622e+003,-6.571710e+001
1.302587e+003,-5.982648e+001
1.303551e+003,-5.675726e+001
1.304515e+003,-5.752490e+001
1.305479e+003,-5.852167e+001
1.306444e+003,-5.712506e+001
1.307408e+003,-5.414496e+001
1.308372e+003,-5.141925e+001
1.309336e+003,-4.854480e+001
1.310301e+003,-4.737091e+001
1.311265e+003,-4.880005e+001
1.312229e+003,-5.033142e+001
1.313193e+003,-5.180646e+001
1.314157e+003,-5.287408e+001
1.315122e+003,-5.338190e+001
1.316086e+003,-5.333301e+001
1.317050e+003,-5.211005e+001
1.318014e+003,-4.889520e+001
1.318979e+003,-4.587195e+001
1.319943e+003,-4.842218e+001
1.320907e+003,-5.531274e+001
1.321871e+003,-5.713733e+001
1.322836e+003,-5.297174e+001
1.323800e+003,-4.806335e+001
1.324764e+003,-4.435437e+001
1.325728e+003,-4.185382e+001
1.326693e+003,-4.070947e+001
1.327657e+003,-4.118323e+001
1.328621e+003,-4.392517e+001
1.329585e+003,-5.052740e+001
1.330549e+003,-5.423029e+001
1.331514e+003,-5.133099e+001
1.332478e+003,-4.663416e+001
1.333442e+003,-4.373901e+001
1.334406e+003,-4.291315e+001
1.335371e+003,-4.328149e+001
1.336335e+003,-4.427356e+001
1.337299e+003,-4.560229e+001
1.338263e+003,-4.697260e+001
1.339228e+003,-4.852380e+001
1.340192e+003,-4.856281e+001
1.341156e+003,-4.530548e+001
1.342120e+003,-4.330505e+001
1.343084e+003,-4.541357e+001
1.344049e+003,-4.788959e+001
1.345013e+003,-4.622913e+001
1.345977e+003,-4.162708e+001
1.346941e+003,-3.958856e+001
1.347906e+003,-4.231348e+001
1.348870e+003,-4.471191e+001
1.349834e+003,-4.081958e+001
1.350798e+003,-3.497626e+001
1.351763e+003,-3.544537e+001
1.352727e+003,-4.112994e+001
1.353691e+003,-4.624982e+001
1.354655e+003,-4.882104e+001
1.355620e+003,-4.962347e+001
1.356584e+003,-4.926727e+001
1.357548e+003,-4.767310e+001
1.358512e+003,-4.522296e+001
1.359476e+003,-4.138928e+001
1.360441e+003,-3.981635e+001
1.361405e+003,-4.347400e+001
1.362369e+003,-4.681262e+001
1.363333e+003,-4.708160e+001
1.364298e+003,-4.529150e+001
1.365262e+003,-4.250043e+001
1.366226e+003,-3.948914e+001
1.367190e+003,-3.757703e+001
1.368155e+003,-3.797815e+001
1.369119e+003,-3.983337e+001
1.370083e+003,-4.031659e+001
1.371047e+003,-3.874915e+001
1.372011e+003,-3.750391e+001
1.372976e+003,-3.727643e+001
1.373940e+003,-3.748425e+001
1.374904e+003,-3.817712e+001
1.375868e+003,-3.859906e+001
1.376833e+003,-3.780414e+001
1.377797e+003,-3.598291e+001
1.378761e+003,-3.414233e+001
1.379725e+003,-3.236969e+001
1.380690e+003,-3.132520e+001
1.381654e+003,-3.259045e+001
1.382618e+003,-3.436206e+001
1.383582e+003,-3.409412e+001
1.384547e+003,-3.183783e+001
1.385511e+003,-2.921429e+001
1.386475e+003,-2.713745e+001
1.387439e+003,-2.553546e+001
1.388403e+003,-2.406360e+001
1.389368e+003,-2.277600e+001
1.390332e+003,-2.253198e+001
1.391296e+003,-2.385901e+001
1.392260e+003,-2.452765e+001
1.393225e+003,-2.372162e+001
1.394189e+003,-2.278003e+001
1.395153e+003,-2.268848e+001
1.396117e+003,-2.283185e+001
1.397082e+003,-2.168982e+001
1.398046e+003,-1.912964e+001
1.399010e+003,-1.705688e+001
1.399974e+003,-1.753046e+001
1.400938e+003,-2.037701e+001
1.401903e+003,-2.355981e+001
1.402867e+003,-2.601508e+001
1.403831e+003,-2.728839e+001
1.404795e+003,-2.868793e+001
1.405760e+003,-2.849048e+001
1.406724e+003,-2.566351e+001
1.407688e+003,-2.285529e+001
1.408652e+003,-2.230432e+001
1.409617e+003,-2.344080e+001
1.410581e+003,-2.461127e+001
1.411545e+003,-2.523328e+001
1.412509e+003,-2.552460e+001
1.413474e+003,-2.602069e+001
1.414438e+003,-2.691473e+001
1.415402e+003,-2.762994e+001
1.416366e+003,-2.772968e+001
1.417330e+003,-2.712665e+001
1.418295e+003,-2.572723e+001
1.419259e+003,-2.379010e+001
1.420223e+003,-2.141766e+001
1.421187e+003,-1.916119e+001
1.422152e+003,-1.888953e+001
1.423116e+003,-2.097772e+001
1.424080e+003,-2.207056e+001
1.425044e+003,-2.139319e+001
1.426009e+003,-2.033948e+001
1.426973e+003,-1.937793e+001
1.427937e+003,-1.844928e+001
1.428901e+003,-1.715796e+001
1.429865e+003,-1.539130e+001
1.430830e+003,-1.349933e+001
1.431794e+003,-1.194171e+001
1.432758e+003,-1.097906e+001
1.433722e+003,-1.061774e+001
1.434687e+003,-1.031616e+001
1.435651e+003,-8.052856e+000
1.436615e+003,-3.336060e+000
1.437579e+003,-7.637939e-001
1.438544e+003,-1.851196e+000
1.439508e+003,-3.614746e+000
1.440472e+003,-3.950256e+000
1.441436e+003,-2.909119e+000
1.442401e+003,-8.055420e-001
1.443365e+003,1.833984e+000
1.444329e+003,2.834290e+000
1.445293e+003,3.799438e-001
1.446257e+003,-3.393250e+000
1.447222e+003,-4.518982e+000
1.448186e+003,-3.619019e+000
1.449150e+003,-3.651306e+000
1.450114e+003,-5.213196e+000
1.451079e+003,-6.961548e+000
1.452043e+003,-8.465149e+000
1.453007e+003,-8.940491e+000
1.453971e+003,-6.747437e+000
1.454936e+003,-2.662231e+000
1.455900e+003,-1.364807e+000
1.456864e+003,-4.544495e+000
1.457828e+003,-7.067993e+000
1.458792e+003,-5.577881e+000
1.459757e+003,-3.195129e+000
1.460721e+003,-2.280579e+000
1.461685e+003,-2.467407e+000
1.462649e+003,-2.374512e+000
1.463614e+003,-1.566467e+000
1.464578e+003,-1.564575e+000
1.465542e+003,-4.251770e+000
1.466506e+003,-8.367859e+000
1.467471e+003,-9.336731e+000
1.468435e+003,-5.838684e+000
1.469399e+003,-2.971863e+000
1.470363e+003,-2.364685e+000
1.471328e+003,-1.681946e+000
1.472292e+003,-3.499756e-001
1.473256e+003,2.108765e-001
1.474220e+003,-1.342041e+000
1.475184e+003,-3.245178e+000
1.476149e+003,-2.159973e+000
1.477113e+003,2.170288e+000
1.478077e+003,5.900696e+000
1.479041e+003,5.650024e+000
1.480006e+003,2.991882e+000
1.480970e+003,2.113586e+000
1.481934e+003,3.043152e+000
1.482898e+003,3.435730e+000
1.483863e+003,2.278137e+000
1.484827e+003,1.834473e+000
1.485791e+003,3.193665e+000
1.486755e+003,5.910950e+000
1.487719e+003,9.902344e+000
1.488684e+003,1.428223e+001
1.489648e+003,1.734235e+001
1.490612e+003,1.883661e+001
1.491576e+003,2.079907e+001
1.492541e+003,2.473877e+001
1.493505e+003,2.983521e+001
1.494469e+003,3.471063e+001
1.495433e+003,3.883521e+001
1.496398e+003,4.196625e+001
1.497362e+003,4.440393e+001
1.498326e+003,4.750165e+001
1.499290e+003,5.154150e+001
1.500255e+003,5.674438e+001
1.501219e+003,6.330579e+001
1.502183e+003,7.104730e+001
1.503147e+003,8.010950e+001
1.504111e+003,9.093518e+001
1.505076e+003,1.006800e+002
1.506040e+003,1.045613e+002
1.507004e+003,1.103737e+002
1.507968e+003,1.277676e+002
1.508933e+003,1.519591e+002
1.509897e+003,1.726342e+002
1.510861e+003,1.887414e+002
1.511825e+003,2.072283e+002
1.512790e+003,2.323462e+002
1.513754e+003,2.621030e+002
1.514718e+003,2.940669e+002
1.515682e+003,3.277612e+002
1.516646e+003,3.614299e+002
1.517611e+003,3.966807e+002
1.518575e+003,4.291177e+002
1.519539e+003,4.590390e+002
1.520503e+003,4.850341e+002
1.521468e+003,5.070647e+002
1.522432e+003,5.237979e+002
1.523396e+003,5.332889e+002
1.524360e+003,5.355575e+002
1.525325e+003,5.328132e+002
1.526289e+003,5.266514e+002
1.527253e+003,5.162086e+002
1.528217e+003,4.994526e+002
1.529182e+003,4.767379e+002
1.530146e+003,4.517739e+002
1.531110e+003,4.245939e+002
1.532074e+003,3.939589e+002
1.533039e+003,3.580106e+002
1.534003e+003,3.188661e+002
1.534967e+003,2.750035e+002
1.535931e+003,2.321858e+002
1.536896e+003,1.963976e+002
1.537860e+003,1.677949e+002
1.538824e+003,1.424926e+002
1.539788e+003,1.182857e+002
1.540752e+003,9.711536e+001
1.541717e+003,8.191296e+001
1.542681e+003,7.235406e+001
1.543645e+003,6.428894e+001
1.544609e+003,5.844550e+001
1.545573e+003,5.389282e+001
1.546538e+003,4.965753e+001
1.547502e+003,4.645148e+001
1.548466e+003,4.566583e+001
1.549430e+003,4.641504e+001
1.550395e+003,4.785162e+001
1.551359e+003,4.928857e+001
1.552323e+003,4.988483e+001
1.553287e+003,4.945422e+001
1.554252e+003,4.882788e+001
1.555216e+003,4.889160e+001
1.556180e+003,4.858228e+001
1.557144e+003,4.537738e+001
1.558109e+003,3.934186e+001
1.559073e+003,3.215143e+001
1.560037e+003,2.065143e+001
1.561001e+003,1.317755e+001
1.561966e+003,1.580603e+001
1.562930e+003,2.180341e+001
1.563894e+003,2.514600e+001
1.564858e+003,2.618878e+001
1.565823e+003,2.663538e+001
1.566787e+003,2.686139e+001
1.567751e+003,2.783234e+001
1.568715e+003,3.068811e+001
1.569679e+003,3.337610e+001
1.570644e+003,3.276154e+001
1.571608e+003,2.946283e+001
1.572572e+003,2.557758e+001
1.573536e+003,2.141205e+001
1.574500e+003,2.089801e+001
1.575465e+003,2.696204e+001
1.576429e+003,3.404871e+001
1.577393e+003,3.770001e+001
1.578357e+003,3.887939e+001
1.579322e+003,3.960132e+001
1.580286e+003,4.021844e+001
1.581250e+003,4.097760e+001
1.582214e+003,4.202557e+001
1.583179e+003,4.287799e+001
1.584143e+003,4.294250e+001
1.585107e+003,4.227380e+001
1.586071e+003,4.135773e+001
1.587036e+003,4.087103e+001
1.588000e+003,4.112524e+001
1.588964e+003,4.180042e+001
1.589928e+003,4.323511e+001
1.590893e+003,4.643524e+001
1.591857e+003,4.995166e+001
1.592821e+003,5.099255e+001
1.593785e+003,5.029303e+001
1.594750e+003,5.204956e+001
1.595714e+003,5.706384e+001
1.596678e+003,6.092896e+001
1.597642e+003,6.112750e+001
1.598606e+003,6.090735e+001
1.599571e+003,6.315460e+001
1.600535e+003,6.669586e+001
1.601499e+003,7.014642e+001
1.602463e+003,7.316760e+001
1.603427e+003,7.581433e+001
1.604392e+003,7.830487e+001
1.605356e+003,7.928613e+001
1.606320e+003,7.615979e+001
1.607284e+003,7.091852e+001
1.608249e+003,6.959436e+001
1.609213e+003,7.234814e+001
1.610177e+003,7.433197e+001
1.611141e+003,7.457996e+001
1.612106e+003,7.449231e+001
1.613070e+003,7.484100e+001
1.614034e+003,7.487097e+001
1.614998e+003,7.332874e+001
1.615963e+003,7.142023e+001
1.616927e+003,7.156006e+001
1.617891e+003,7.364014e+001
1.618855e+003,7.454095e+001
1.619820e+003,7.199255e+001
1.620784e+003,6.802295e+001
1.621748e+003,6.646332e+001
1.622712e+003,6.756586e+001
1.623677e+003,6.851245e+001
1.624641e+003,6.922864e+001
1.625605e+003,7.053601e+001
1.626569e+003,7.199329e+001
1.627533e+003,7.249164e+001
1.628498e+003,7.112451e+001
1.629462e+003,7.010229e+001
1.630426e+003,7.190936e+001
1.631390e+003,7.515167e+001
1.632354e+003,7.632349e+001
1.633319e+003,7.479462e+001
1.634283e+003,7.382489e+001
1.635247e+003,7.593152e+001
1.636211e+003,7.931396e+001
1.637176e+003,8.121625e+001
1.638140e+003,8.189221e+001
1.639104e+003,8.170288e+001
1.640068e+003,8.018768e+001
1.641033e+003,7.861072e+001
1.641997e+003,7.695227e+001
1.642961e+003,7.631256e+001
1.643925e+003,7.809521e+001
1.644890e+003,8.025745e+001
1.645854e+003,8.021002e+001
1.646818e+003,7.871838e+001
1.647782e+003,7.820435e+001
1.648747e+003,7.941193e+001
1.649711e+003,8.190332e+001
1.650675e+003,8.611475e+001
1.651639e+003,9.064606e+001
1.652604e+003,9.173889e+001
1.653568e+003,8.923206e+001
1.654532e+003,8.580377e+001
1.655496e+003,8.082996e+001
1.656460e+003,7.782361e+001
1.657425e+003,8.036664e+001
1.658389e+003,8.202112e+001
1.659353e+003,7.733704e+001
1.660317e+003,7.145422e+001
1.661281e+003,7.068451e+001
1.662246e+003,7.347406e+001
1.663210e+003,7.389532e+001
1.664174e+003,7.024945e+001
1.665138e+003,6.649890e+001
1.666103e+003,6.611926e+001
1.667067e+003,6.689722e+001
1.668031e+003,6.374109e+001
1.668995e+003,5.726257e+001
1.669960e+003,5.527460e+001
1.670924e+003,5.990033e+001
1.671888e+003,6.290326e+001
1.672852e+003,6.070575e+001
1.673817e+003,5.723224e+001
1.674781e+003,5.428455e+001
1.675745e+003,5.188232e+001
1.676709e+003,4.987280e+001
1.677674e+003,4.840576e+001
1.678638e+003,4.816290e+001
1.679602e+003,4.935590e+001
1.680566e+003,5.062427e+001
1.681531e+003,5.143195e+001
1.682495e+003,5.164758e+001
1.683459e+003,4.998468e+001
1.684423e+003,4.662714e+001
1.685387e+003,4.466071e+001
1.686352e+003,4.465527e+001
1.687316e+003,4.495642e+001
1.688280e+003,4.509613e+001
1.689244e+003,4.527399e+001
1.690208e+003,4.605103e+001
1.691173e+003,4.638220e+001
1.692137e+003,4.467523e+001
1.693101e+003,4.203485e+001
1.694065e+003,4.126367e+001
1.695030e+003,4.270209e+001
1.695994e+003,4.346967e+001
1.696958e+003,4.213367e+001
1.697922e+003,3.933148e+001
1.698887e+003,3.416016e+001
1.699851e+003,2.853577e+001
1.700815e+003,2.940430e+001
1.701779e+003,3.688800e+001
1.702744e+003,4.045282e+001
1.703708e+003,3.636169e+001
1.704672e+003,3.180408e+001
1.705636e+003,3.179346e+001
1.706601e+003,3.300891e+001
1.707565e+003,3.073694e+001
1.708529e+003,2.654700e+001
1.709493e+003,2.452209e+001
1.710458e+003,2.526355e+001
1.711422e+003,2.611731e+001
1.712386e+003,2.686194e+001
1.713350e+003,2.705310e+001
1.714314e+003,2.530121e+001
1.715279e+003,2.249091e+001
1.716243e+003,2.008527e+001
1.717207e+003,1.849792e+001
1.718171e+003,1.885883e+001
1.719135e+003,2.156940e+001
1.720100e+003,2.448883e+001
1.721064e+003,2.631696e+001
1.722028e+003,2.650684e+001
1.722992e+003,2.417328e+001
1.723957e+003,2.032953e+001
1.724921e+003,1.808539e+001
1.725885e+003,1.682098e+001
1.726849e+003,1.567505e+001
1.727814e+003,1.526520e+001
1.728778e+003,1.565106e+001
1.729742e+003,1.759406e+001
1.730706e+003,1.934784e+001
1.731671e+003,1.799567e+001
1.732635e+003,1.468713e+001
1.733599e+003,1.343561e+001
1.734563e+003,1.494885e+001
1.735528e+003,1.589215e+001
1.736492e+003,1.429736e+001
1.737456e+003,1.208112e+001
1.738420e+003,1.152783e+001
1.739385e+003,1.183972e+001
1.740349e+003,1.141101e+001
1.741313e+003,1.033179e+001
1.742277e+003,9.811523e+000
1.743241e+003,1.071509e+001
1.744206e+003,1.153900e+001
1.745170e+003,1.190283e+001
1.746134e+003,1.187524e+001
1.747098e+003,1.161115e+001
1.748063e+003,1.082245e+001
1.749027e+003,8.539185e+000
1.749991e+003,5.683716e+000
1.750955e+003,4.561646e+000
1.751919e+003,5.681030e+000
1.752884e+003,7.146667e+000
1.753848e+003,7.383911e+000
1.754812e+003,7.028259e+000
1.755776e+003,7.789612e+000
1.756741e+003,9.995239e+000
1.757705e+003,1.097046e+001
1.758669e+003,9.316528e+000
1.759633e+003,9.503479e+000
1.760598e+003,1.427979e+001
1.761562e+003,1.685455e+001
1.762526e+003,1.484015e+001
1.763490e+003,1.128967e+001
1.764455e+003,6.652954e+000
1.765419e+003,2.917419e+000
1.766383e+003,3.345154e+000
1.767347e+003,7.189880e+000
1.768312e+003,9.994385e+000
1.769276e+003,9.524658e+000
1.770240e+003,7.921570e+000
1.771204e+003,7.928589e+000
1.772168e+003,9.231323e+000
1.773133e+003,1.019824e+001
1.774097e+003,1.083386e+001
1.775061e+003,1.118689e+001
1.776025e+003,1.065656e+001
1.776990e+003,1.111310e+001
1.777954e+003,1.473804e+001
1.778918e+003,1.755640e+001
1.779882e+003,1.559650e+001
1.780846e+003,1.120105e+001
1.781811e+003,7.451172e+000
1.782775e+003,4.604004e+000
1.783739e+003,2.807373e+000
1.784703e+003,2.084167e+000
1.785668e+003,4.268555e+000
1.786632e+003,1.248981e+001
1.787596e+003,1.954401e+001
1.788560e+003,2.001288e+001
1.789525e+003,1.745801e+001
1.790489e+003,1.545380e+001
1.791453e+003,1.419519e+001
1.792417e+003,1.409814e+001
1.793382e+003,1.507452e+001
1.794346e+003,1.524274e+001
1.795310e+003,1.347058e+001
1.796274e+003,1.128186e+001
1.797239e+003,1.071991e+001
1.798203e+003,1.177582e+001
1.799167e+003,1.274353e+001
1.800131e+003,1.273438e+001
1.801095e+003,1.211890e+001
1.802060e+003,1.073096e+001
1.803024e+003,1.083453e+001
1.803988e+003,1.392072e+001
1.804952e+003,1.631873e+001
1.805917e+003,1.516608e+001
1.806881e+003,1.341614e+001
1.807845e+003,1.524994e+001
1.808809e+003,1.883948e+001
1.809773e+003,1.914264e+001
1.810738e+003,1.565741e+001
1.811702e+003,1.288574e+001
1.812666e+003,1.358020e+001
1.813630e+003,1.557843e+001
1.814595e+003,1.606470e+001
1.815559e+003,1.518988e+001
1.816523e+003,1.388568e+001
1.817487e+003,1.215021e+001
1.818452e+003,1.141718e+001
1.819416e+003,1.253723e+001
1.820380e+003,1.358478e+001
1.821344e+003,1.289282e+001
1.822309e+003,1.273798e+001
1.823273e+003,1.637122e+001
1.824237e+003,2.033075e+001
1.825201e+003,1.994672e+001
1.826166e+003,1.668939e+001
1.827130e+003,1.512854e+001
1.828094e+003,1.588464e+001
1.829058e+003,1.686346e+001
1.830022e+003,1.758331e+001
1.830987e+003,1.794244e+001
1.831951e+003,1.794995e+001
1.832915e+003,1.749469e+001
1.833879e+003,1.551056e+001
1.834844e+003,1.300012e+001
1.835808e+003,1.335480e+001
1.836772e+003,1.685480e+001
1.837736e+003,2.060284e+001
1.838700e+003,2.319788e+001
1.839665e+003,2.354932e+001
1.840629e+003,2.038257e+001
1.841593e+003,1.588739e+001
1.842557e+003,1.442480e+001
1.843522e+003,1.592682e+001
1.844486e+003,1.704486e+001
1.845450e+003,1.713373e+001
1.846414e+003,1.929755e+001
1.847379e+003,2.538672e+001
1.848343e+003,2.946002e+001
1.849307e+003,2.948297e+001
1.850271e+003,2.776044e+001
1.851236e+003,2.526611e+001
1.852200e+003,2.301282e+001
1.853164e+003,2.153088e+001
1.854128e+003,2.051593e+001
1.855093e+003,1.995831e+001
1.856057e+003,2.011810e+001
1.857021e+003,2.031293e+001
1.857985e+003,1.966278e+001
1.858949e+003,1.871204e+001
1.859914e+003,1.827289e+001
1.860878e+003,1.861072e+001
1.861842e+003,2.088971e+001
1.862806e+003,2.501208e+001
1.863771e+003,2.854749e+001
1.864735e+003,3.118512e+001
1.865699e+003,3.183325e+001
1.866663e+003,2.975494e+001
1.867627e+003,2.682739e+001
1.868592e+003,2.346149e+001
1.869556e+003,2.026270e+001
1.870520e+003,1.926129e+001
1.871484e+003,2.017059e+001
1.872449e+003,2.164484e+001
1.873413e+003,2.514825e+001
1.874377e+003,2.822229e+001
1.875341e+003,2.843384e+001
1.876306e+003,2.806244e+001
1.877270e+003,2.749628e+001
1.878234e+003,2.738464e+001
1.879198e+003,2.937775e+001
1.880163e+003,3.214569e+001
1.881127e+003,3.332428e+001
1.882091e+003,3.273810e+001
1.883055e+003,3.122284e+001
1.884020e+003,2.924298e+001
1.884984e+003,2.738934e+001
1.885948e+003,2.619171e+001
1.886912e+003,2.594507e+001
1.887876e+003,2.770728e+001
1.888841e+003,3.116650e+001
1.889805e+003,3.121600e+001
1.890769e+003,2.673175e+001
1.891733e+003,2.507172e+001
1.892698e+003,2.763373e+001
1.893662e+003,3.050342e+001
1.894626e+003,3.360669e+001
1.895590e+003,3.533173e+001
1.896554e+003,3.373419e+001
1.897519e+003,3.123657e+001
1.898483e+003,3.006647e+001
1.899447e+003,2.983710e+001
1.900411e+003,3.025287e+001
1.901376e+003,3.148077e+001
1.902340e+003,3.252905e+001
1.903304e+003,3.318860e+001
1.904268e+003,3.314764e+001
1.905233e+003,3.130774e+001
1.906197e+003,2.987262e+001
1.907161e+003,3.182275e+001
1.908125e+003,3.567810e+001
1.909090e+003,3.852795e+001
1.910054e+003,3.975507e+001
1.911018e+003,3.975647e+001
1.911982e+003,3.907697e+001
1.912947e+003,3.879291e+001
1.913911e+003,3.956396e+001
1.914875e+003,4.085419e+001
1.915839e+003,4.167889e+001
1.916803e+003,4.183752e+001
1.917768e+003,4.216205e+001
1.918732e+003,4.310260e+001
1.919696e+003,4.313971e+001
1.920660e+003,4.161267e+001
1.921625e+003,4.198389e+001
1.922589e+003,4.676715e+001
1.923553e+003,5.005566e+001
1.924517e+003,4.690613e+001
1.925481e+003,4.266284e+001
1.926446e+003,4.152069e+001
1.927410e+003,4.291394e+001
1.928374e+003,4.642426e+001
1.929338e+003,5.131213e+001
1.930303e+003,5.329230e+001
1.931267e+003,5.116547e+001
1.932231e+003,4.879364e+001
1.933195e+003,4.692993e+001
1.934160e+003,4.554590e+001
1.935124e+003,4.445929e+001
1.936088e+003,4.371246e+001
1.937052e+003,4.384253e+001
1.938017e+003,4.492413e+001
1.938981e+003,4.731744e+001
1.939945e+003,5.026099e+001
1.940909e+003,5.090515e+001
1.941874e+003,4.805206e+001
1.942838e+003,4.408142e+001
1.943802e+003,4.142712e+001
1.944766e+003,4.100806e+001
1.945730e+003,4.443268e+001
1.946695e+003,5.067242e+001
1.947659e+003,5.355768e+001
1.948623e+003,5.271729e+001
1.949587e+003,5.152460e+001
1.950552e+003,5.066895e+001
1.951516e+003,4.886505e+001
1.952480e+003,4.462042e+001
1.953444e+003,4.152417e+001
1.954408e+003,4.199005e+001
1.955373e+003,4.452271e+001
1.956337e+003,4.874219e+001
1.957301e+003,5.410852e+001
1.958265e+003,5.690271e+001
1.959230e+003,5.679663e+001
1.960194e+003,5.672400e+001
1.961158e+003,5.599951e+001
1.962122e+003,5.548309e+001
1.963087e+003,5.630646e+001
1.964051e+003,5.653320e+001
1.965015e+003,5.437360e+001
1.965979e+003,5.251544e+001
1.966944e+003,5.375024e+001
1.967908e+003,5.651288e+001
1.968872e+003,5.825134e+001
1.969836e+003,5.853815e+001
1.970801e+003,5.778674e+001
1.971765e+003,5.633624e+001
1.972729e+003,5.539142e+001
1.973693e+003,5.605188e+001
1.974657e+003,5.735010e+001
1.975622e+003,5.750781e+001
1.976586e+003,5.697015e+001
1.977550e+003,5.729846e+001
1.978514e+003,5.869702e+001
1.979479e+003,6.185583e+001
1.980443e+003,6.652087e+001
1.981407e+003,6.871606e+001
1.982371e+003,6.706982e+001
1.983335e+003,6.393713e+001
1.984300e+003,6.045935e+001
1.985264e+003,5.796881e+001
1.986228e+003,5.917450e+001
1.987192e+003,6.309741e+001
1.988157e+003,6.456726e+001
1.989121e+003,6.293555e+001
1.990085e+003,6.319843e+001
1.991049e+003,6.712555e+001
1.992014e+003,6.989301e+001
1.992978e+003,6.985107e+001
1.993942e+003,6.953046e+001
1.994906e+003,7.007886e+001
1.995871e+003,7.040942e+001
1.996835e+003,6.936304e+001
1.997799e+003,6.810022e+001
1.998763e+003,6.808447e+001
1.999728e+003,6.903131e+001
