5.003444e+002,3.908817e+001
5.013087e+002,3.821857e+001
5.022729e+002,3.933499e+001
5.032371e+002,4.177649e+001
5.042014e+002,4.254938e+001
5.051656e+002,4.191678e+001
5.061298e+002,4.075369e+001
5.070941e+002,3.975867e+001
5.080583e+002,3.884839e+001
5.090225e+002,3.806693e+001
5.099868e+002,3.774716e+001
5.109510e+002,3.717636e+001
5.119152e+002,3.550873e+001
5.128795e+002,3.259097e+001
5.138437e+002,3.116074e+001
5.148079e+002,3.396313e+001
5.157722e+002,3.685544e+001
5.167364e+002,3.822516e+001
5.177006e+002,3.774472e+001
5.186649e+002,3.610168e+001
5.196291e+002,3.325049e+001
5.205933e+002,3.065677e+001
5.215576e+002,3.007996e+001
5.225218e+002,3.138483e+001
5.234860e+002,3.331961e+001
5.244503e+002,3.381458e+001
5.254145e+002,3.251608e+001
5.263787e+002,3.187265e+001
5.273430e+002,3.238437e+001
5.283072e+002,3.321329e+001
5.292714e+002,3.316245e+001
5.302357e+002,3.171826e+001
5.311999e+002,2.975098e+001
5.321641e+002,2.679053e+001
5.331284e+002,2.424191e+001
5.340926e+002,2.327896e+001
5.350568e+002,2.432089e+001
5.360211e+002,2.576413e+001
5.369853e+002,2.677194e+001
5.379495e+002,2.742053e+001
5.389138e+002,2.769476e+001
5.398780e+002,2.753687e+001
5.408422e+002,2.680200e+001
5.418065e+002,2.464618e+001
5.427707e+002,2.136868e+001
5.437349e+002,1.927362e+001
5.446992e+002,1.903613e+001
5.456634e+002,2.030524e+001
5.466276e+002,2.194647e+001
5.475919e+002,2.553592e+001
5.485561e+002,2.748108e+001
5.495203e+002,2.661871e+001
5.504846e+002,2.426010e+001
5.514488e+002,2.229727e+001
5.524130e+002,2.150861e+001
5.533773e+002,2.116345e+001
5.543415e+002,2.125339e+001
5.553057e+002,2.128711e+001
5.562700e+002,2.062918e+001
5.572342e+002,1.887436e+001
5.581984e+002,1.654117e+001
5.591627e+002,1.468777e+001
5.601269e+002,1.340549e+001
5.610911e+002,1.296011e+001
5.620554e+002,1.347681e+001
5.630196e+002,1.480130e+001
5.639838e+002,1.615631e+001
5.649481e+002,1.877573e+001
5.659123e+002,1.970026e+001
5.668765e+002,1.762616e+001
5.678408e+002,1.367352e+001
5.688050e+002,1.068964e+001
5.697692e+002,8.975098e+000
5.707335e+002,8.565552e+000
5.716977e+002,1.070593e+001
5.726619e+002,1.376172e+001
5.736262e+002,1.559097e+001
5.745904e+002,1.463779e+001
5.755546e+002,1.247787e+001
5.765189e+002,1.118958e+001
5.774831e+002,1.052377e+001
5.784473e+002,1.042108e+001
5.794116e+002,1.090802e+001
5.803758e+002,1.201956e+001
5.813400e+002,1.282458e+001
5.823043e+002,1.355252e+001
5.832685e+002,1.303363e+001
5.842327e+002,9.957153e+000
5.851970e+002,5.041290e+000
5.861612e+002,2.324097e+000
5.871254e+002,4.119049e+000
5.880897e+002,6.187103e+000
5.890539e+002,8.053192e+000
5.900181e+002,9.508453e+000
5.909824e+002,1.043381e+001
5.919466e+002,1.068286e+001
5.929108e+002,1.065375e+001
5.938751e+002,1.091550e+001
5.948393e+002,1.123981e+001
5.958035e+002,1.125183e+001
5.967678e+002,1.070691e+001
5.977320e+002,9.774261e+000
5.986962e+002,9.317230e+000
5.996605e+002,9.182556e+000
6.006247e+002,8.806641e+000
6.015889e+002,7.805023e+000
6.025532e+002,6.258331e+000
6.035174e+002,5.054596e+000
6.044816e+002,4.628937e+000
6.054459e+002,4.161011e+000
6.064101e+002,3.041046e+000
6.073743e+002,1.866272e+000
6.083386e+002,1.871063e+000
6.093028e+002,4.292053e+000
6.102670e+002,6.951813e+000
6.112313e+002,8.034882e+000
6.121955e+002,8.237335e+000
6.131597e+002,8.633911e+000
6.141240e+002,9.926971e+000
6.150882e+002,1.157349e+001
6.160524e+002,1.086768e+001
6.170167e+002,8.323669e+000
6.179809e+002,6.171143e+000
6.189451e+002,5.319824e+000
6.199094e+002,5.576904e+000
6.208736e+002,6.036072e+000
6.218378e+002,8.064148e+000
6.228021e+002,8.953522e+000
6.237663e+002,7.479980e+000
6.247305e+002,5.024170e+000
6.256948e+002,3.912170e+000
6.266590e+002,5.568909e+000
6.276232e+002,7.028046e+000
6.285875e+002,6.236389e+000
6.295517e+002,4.676941e+000
6.305159e+002,3.987823e+000
6.314802e+002,4.967285e+000
6.324444e+002,6.620514e+000
6.334086e+002,5.990021e+000
6.343729e+002,3.975739e+000
6.353371e+002,2.645477e+000
6.363013e+002,2.749786e+000
6.372656e+002,3.872009e+000
6.382298e+002,4.659210e+000
6.391940e+002,4.675934e+000
6.401583e+002,4.781250e+000
6.411225e+002,5.765411e+000
6.420867e+002,6.792908e+000
6.430510e+002,6.545929e+000
6.440152e+002,4.113190e+000
6.449794e+002,1.742157e+000
6.459437e+002,6.515503e-001
6.469079e+002,5.899048e-002
6.478721e+002,-5.247498e-001
6.488364e+002,-1.267426e+000
6.498006e+002,-1.991119e+000
6.507648e+002,-2.558899e+000
6.517291e+002,-2.948608e+000
6.526933e+002,-3.014038e+000
6.536575e+002,-2.746918e+000
6.546218e+002,-1.971649e+000
6.555860e+002,-2.018738e-001
6.565502e+002,3.953735e+000
6.575145e+002,5.767303e+000
6.584787e+002,3.896057e+000
6.594429e+002,1.126617e+000
6.604072e+002,-3.637695e-001
6.613714e+002,-1.737061e-001
6.623356e+002,1.061707e-001
6.632999e+002,-2.019958e-001
6.642641e+002,-8.788452e-001
6.652283e+002,-2.067017e+000
6.661926e+002,-3.451721e+000
6.671568e+002,-4.337891e+000
6.681210e+002,-3.830475e+000
6.690853e+002,-2.394165e+000
6.700495e+002,-1.087158e+000
6.710137e+002,4.016113e-002
6.719780e+002,7.269287e-001
6.729422e+002,6.146240e-001
6.739064e+002,-5.837402e-001
6.748707e+002,-1.193115e+000
6.758349e+002,-5.355530e-001
6.767991e+002,-2.891541e-001
6.777634e+002,-1.688751e+000
6.787276e+002,-4.258240e+000
6.796918e+002,-5.220734e+000
6.806561e+002,-2.014984e+000
6.816203e+002,1.086945e+000
6.825845e+002,2.543823e+000
6.835488e+002,2.739075e+000
6.845130e+002,2.673035e+000
6.854772e+002,3.190643e+000
6.864415e+002,3.491730e+000
6.874057e+002,5.405273e-001
6.883699e+002,-4.437592e+000
6.893342e+002,-7.583282e+000
6.902984e+002,-6.560272e+000
6.912626e+002,-2.024078e+000
6.922269e+002,1.150146e+000
6.931911e+002,3.206146e+000
6.941553e+002,3.881500e+000
6.951196e+002,1.492096e+000
6.960838e+002,-2.033905e+000
6.970480e+002,-3.263702e+000
6.980123e+002,-3.774414e-001
6.989765e+002,2.218170e+000
6.999407e+002,2.578644e+000
7.009050e+002,2.007568e+000
7.018692e+002,1.381531e+000
7.028334e+002,1.043274e+000
7.037977e+002,7.729187e-001
7.047619e+002,2.702942e-001
7.057261e+002,-2.278137e-001
7.066904e+002,-5.104980e-001
7.076546e+002,-5.502014e-001
7.086188e+002,-2.855530e-001
7.095831e+002,4.573364e-001
7.105473e+002,2.068024e+000
7.115115e+002,2.506195e+000
7.124758e+002,8.811951e-001
7.134400e+002,-8.732910e-001
7.144042e+002,-1.486755e+000
7.153685e+002,-8.693237e-001
7.163327e+002,-1.705322e-001
7.172969e+002,5.515747e-001
7.182612e+002,8.207092e-001
7.192254e+002,1.586914e-002
7.201896e+002,-1.476624e+000
7.211539e+002,-2.891052e+000
7.221181e+002,-3.585785e+000
7.230823e+002,-3.702057e+000
7.240466e+002,-3.789856e+000
7.250108e+002,-3.687439e+000
7.259750e+002,-3.023651e+000
7.269393e+002,-1.591278e+000
7.279035e+002,2.803650e-001
7.288677e+002,1.137238e+000
7.298320e+002,5.485535e-001
7.307962e+002,2.548218e-002
7.317604e+002,-7.431946e-001
7.327247e+002,-1.198975e+000
7.336889e+002,-3.807068e-001
7.346531e+002,2.300629e+000
7.356174e+002,4.062988e+000
7.365816e+002,3.525177e+000
7.375458e+002,2.082825e+000
7.385101e+002,3.061523e-001
7.394743e+002,-1.388275e+000
7.404385e+002,-2.516052e+000
7.414028e+002,-2.201202e+000
7.423670e+002,-9.914246e-001
7.433312e+002,-9.307861e-002
7.442955e+002,6.905823e-001
7.452597e+002,1.075714e+000
7.462239e+002,3.581238e-001
7.471882e+002,-2.144409e+000
7.481524e+002,-2.981079e+000
7.491166e+002,-1.101807e+000
7.500809e+002,4.955139e-001
7.510451e+002,4.145508e-001
7.520093e+002,-9.313049e-001
7.529736e+002,-1.694580e+000
7.539378e+002,-5.792236e-002
7.549020e+002,1.182617e+000
7.558663e+002,-7.064514e-001
7.568306e+002,-3.774780e+000
7.577948e+002,-5.195618e+000
7.587590e+002,-3.398102e+000
7.597233e+002,2.324829e-001
7.606875e+002,1.948334e+000
7.616517e+002,2.073029e+000
7.626160e+002,1.864105e+000
7.635802e+002,1.663879e+000
7.645444e+002,1.305267e+000
7.655087e+002,1.111755e-001
7.664729e+002,-3.441986e+000
7.674371e+002,-4.310120e+000
7.684014e+002,7.931519e-002
7.693656e+002,4.624756e+000
7.703298e+002,5.843445e+000
7.712941e+002,3.513153e+000
7.722583e+002,6.955566e-001
7.732225e+002,-9.501953e-001
7.741868e+002,-1.622925e+000
7.751510e+002,-1.089478e+000
7.761152e+002,2.773743e-001
7.770795e+002,1.705231e+000
7.780437e+002,2.492828e+000
7.790079e+002,2.686584e+000
7.799722e+002,3.359619e+000
7.809364e+002,4.857422e+000
7.819006e+002,4.953827e+000
7.828649e+002,1.588074e+000
7.838291e+002,-3.728882e+000
7.847933e+002,-5.985748e+000
7.857576e+002,-3.064056e+000
7.867218e+002,-6.728210e-001
7.876860e+002,-1.649780e-001
7.886503e+002,-4.760742e-003
7.896145e+002,1.395599e+000
7.905787e+002,4.332458e+000
7.915430e+002,7.051086e+000
7.925072e+002,6.990295e+000
7.934714e+002,5.765289e+000
7.944357e+002,5.453766e+000
7.953999e+002,6.158783e+000
7.963641e+002,6.730255e+000
7.973284e+002,5.753418e+000
7.982926e+002,3.068176e+000
7.992568e+002,2.131378e+000
8.002211e+002,3.071777e+000
8.011853e+002,4.241791e+000
8.021495e+002,5.920135e+000
8.031138e+002,7.867828e+000
8.040780e+002,8.358917e+000
8.050422e+002,5.439941e+000
8.060065e+002,3.299408e+000
8.069707e+002,3.481903e+000
8.079349e+002,4.665863e+000
8.088992e+002,5.681732e+000
8.098634e+002,6.147430e+000
8.108276e+002,6.616150e+000
8.117919e+002,8.228302e+000
8.127561e+002,9.833069e+000
8.137203e+002,9.037872e+000
8.146846e+002,5.813110e+000
8.156488e+002,2.796478e+000
8.166130e+002,3.431671e+000
8.175773e+002,8.847717e+000
8.185415e+002,1.071695e+001
8.195057e+002,6.489716e+000
8.204700e+002,2.318085e+000
8.214342e+002,-1.934814e-002
8.223984e+002,-7.228699e-001
8.233627e+002,-5.425720e-001
8.243269e+002,5.777283e-001
8.252911e+002,2.176392e+000
8.262554e+002,4.530304e+000
8.272196e+002,6.756622e+000
8.281838e+002,7.573059e+000
8.291481e+002,6.730225e+000
8.301123e+002,5.557587e+000
8.310765e+002,6.687012e+000
8.320408e+002,9.731354e+000
8.330050e+002,1.055786e+001
8.339692e+002,8.577454e+000
8.349335e+002,5.671661e+000
8.358977e+002,3.595428e+000
8.368619e+002,2.439423e+000
8.378262e+002,2.066101e+000
8.387904e+002,3.721710e+000
8.397546e+002,4.449097e+000
8.407189e+002,2.299896e+000
8.416831e+002,-9.551086e-001
8.426473e+002,-1.946442e+000
8.436116e+002,1.275940e+000
8.445758e+002,5.209717e+000
8.455400e+002,5.782379e+000
8.465043e+002,4.755890e+000
8.474685e+002,4.128357e+000
8.484327e+002,4.616577e+000
8.493970e+002,5.814911e+000
8.503612e+002,6.893036e+000
8.513254e+002,7.820984e+000
8.522897e+002,7.939911e+000
8.532539e+002,6.693634e+000
8.542181e+002,5.279236e+000
8.551824e+002,4.303955e+000
8.561466e+002,3.954590e+000
8.571108e+002,4.594421e+000
8.580751e+002,6.552673e+000
8.590393e+002,8.516327e+000
8.600035e+002,1.066702e+001
8.609678e+002,1.255493e+001
8.619320e+002,1.351553e+001
8.628962e+002,1.332425e+001
8.638605e+002,1.269937e+001
8.648247e+002,1.254761e+001
8.657889e+002,1.284854e+001
8.667532e+002,1.382294e+001
8.677174e+002,1.549362e+001
8.686816e+002,1.724307e+001
8.696459e+002,1.846451e+001
8.706101e+002,1.925336e+001
8.715743e+002,1.929559e+001
8.725386e+002,1.739676e+001
8.735028e+002,1.635379e+001
8.744670e+002,1.770004e+001
8.754313e+002,1.996310e+001
8.763955e+002,2.002701e+001
8.773597e+002,1.605167e+001
8.783240e+002,1.308502e+001
8.792882e+002,1.619272e+001
8.802524e+002,2.078378e+001
8.812167e+002,2.269016e+001
8.821809e+002,2.130838e+001
8.831451e+002,1.906326e+001
8.841094e+002,1.917743e+001
8.850736e+002,2.161392e+001
8.860378e+002,2.227600e+001
8.870021e+002,2.051367e+001
8.879663e+002,1.914603e+001
8.889305e+002,2.014282e+001
8.898948e+002,2.288168e+001
8.908590e+002,2.432867e+001
8.918232e+002,2.354385e+001
8.927875e+002,2.288950e+001
8.937517e+002,2.283969e+001
8.947159e+002,2.313583e+001
8.956802e+002,2.340915e+001
8.966444e+002,2.353696e+001
8.976086e+002,2.377844e+001
8.985729e+002,2.453992e+001
8.995371e+002,2.582681e+001
9.005013e+002,2.764119e+001
9.014656e+002,2.987140e+001
9.024298e+002,3.183243e+001
9.033940e+002,3.291692e+001
9.043583e+002,3.305037e+001
9.053225e+002,3.262601e+001
9.062867e+002,3.073404e+001
9.072510e+002,2.924590e+001
9.082152e+002,2.856354e+001
9.091794e+002,2.841403e+001
9.101437e+002,2.841228e+001
9.111079e+002,2.847893e+001
9.120721e+002,2.907230e+001
9.130364e+002,3.139020e+001
9.140006e+002,3.322240e+001
9.149648e+002,3.294733e+001
9.159291e+002,3.137292e+001
9.168933e+002,3.013719e+001
9.178575e+002,3.031740e+001
9.188218e+002,3.144403e+001
9.197860e+002,3.243219e+001
9.207502e+002,3.329268e+001
9.217145e+002,3.258939e+001
9.226787e+002,2.912039e+001
9.236429e+002,2.519316e+001
9.246072e+002,2.405592e+001
9.255714e+002,2.621310e+001
9.265356e+002,2.786279e+001
9.274999e+002,2.846709e+001
9.284641e+002,2.825064e+001
9.294283e+002,2.684808e+001
9.303926e+002,2.487975e+001
9.313568e+002,2.329243e+001
9.323210e+002,2.257095e+001
9.332853e+002,2.221033e+001
9.342495e+002,2.133073e+001
9.352137e+002,2.024615e+001
9.361780e+002,1.965839e+001
9.371422e+002,1.981996e+001
9.381064e+002,2.039174e+001
9.390707e+002,2.078253e+001
9.400349e+002,2.079916e+001
9.409991e+002,2.087755e+001
9.419634e+002,2.082175e+001
9.429276e+002,2.098401e+001
9.438918e+002,2.157320e+001
9.448561e+002,2.246217e+001
9.458203e+002,2.369156e+001
9.467845e+002,2.555737e+001
9.477488e+002,2.658916e+001
9.487130e+002,2.407819e+001
9.496772e+002,2.134619e+001
9.506415e+002,2.171251e+001
9.516057e+002,2.478041e+001
9.525699e+002,2.736920e+001
9.535342e+002,2.629642e+001
9.544984e+002,2.217278e+001
9.554626e+002,2.119492e+001
9.564269e+002,2.432910e+001
9.573911e+002,2.641695e+001
9.583553e+002,2.533006e+001
9.593196e+002,2.265393e+001
9.602838e+002,2.107086e+001
9.612480e+002,2.097792e+001
9.622123e+002,2.048315e+001
9.631765e+002,1.829065e+001
9.641407e+002,1.642241e+001
9.651050e+002,1.584285e+001
9.660692e+002,1.625772e+001
9.670334e+002,1.697476e+001
9.679977e+002,1.765099e+001
9.689619e+002,1.848492e+001
9.699261e+002,1.994513e+001
9.708904e+002,2.158281e+001
9.718546e+002,2.200179e+001
9.728188e+002,2.052884e+001
9.737831e+002,1.902026e+001
9.747473e+002,2.036308e+001
9.757115e+002,2.539749e+001
9.766758e+002,2.899585e+001
9.776400e+002,3.008040e+001
9.786042e+002,3.128471e+001
9.795685e+002,3.379019e+001
9.805327e+002,3.628424e+001
9.814969e+002,3.691182e+001
9.824612e+002,3.514157e+001
9.834254e+002,3.277026e+001
9.843896e+002,3.151540e+001
9.853539e+002,3.029756e+001
9.863181e+002,2.762341e+001
9.872823e+002,2.364499e+001
9.882466e+002,1.983873e+001
9.892108e+002,1.761810e+001
9.901750e+002,1.697443e+001
9.911393e+002,1.645448e+001
9.921035e+002,1.550487e+001
9.930677e+002,1.479019e+001
9.940320e+002,1.462408e+001
9.949962e+002,1.477522e+001
9.959604e+002,1.480936e+001
9.969247e+002,1.477838e+001
9.978889e+002,1.577162e+001
9.988531e+002,1.896461e+001
9.998174e+002,2.209070e+001
1.000782e+003,2.423813e+001
1.001746e+003,2.550450e+001
1.002710e+003,2.584616e+001
1.003674e+003,2.534213e+001
1.004639e+003,2.446544e+001
1.005603e+003,2.401326e+001
1.006567e+003,2.398819e+001
1.007531e+003,2.471796e+001
1.008495e+003,2.664333e+001
1.009460e+003,2.846625e+001
1.010424e+003,2.949863e+001
1.011388e+003,2.986998e+001
1.012352e+003,2.992979e+001
1.013317e+003,2.959216e+001
1.014281e+003,2.896228e+001
1.015245e+003,2.795531e+001
1.016209e+003,2.671695e+001
1.017174e+003,2.546567e+001
1.018138e+003,2.417189e+001
1.019102e+003,2.262926e+001
1.020066e+003,2.072250e+001
1.021031e+003,1.848459e+001
1.021995e+003,1.523854e+001
1.022959e+003,1.113928e+001
1.023923e+003,8.213440e+000
1.024887e+003,7.341843e+000
1.025852e+003,7.488556e+000
1.026816e+003,7.005432e+000
1.027780e+003,5.737610e+000
1.028744e+003,5.126358e+000
1.029709e+003,5.938110e+000
1.030673e+003,6.576599e+000
1.031637e+003,6.563858e+000
1.032601e+003,6.007538e+000
1.033566e+003,5.039581e+000
1.034530e+003,3.770615e+000
1.035494e+003,2.627945e+000
1.036458e+003,1.956787e+000
1.037422e+003,1.710571e+000
1.038387e+003,1.934296e+000
1.039351e+003,2.541702e+000
1.040315e+003,3.209656e+000
1.041279e+003,3.759842e+000
1.042244e+003,4.261856e+000
1.043208e+003,4.754868e+000
1.044172e+003,4.942596e+000
1.045136e+003,5.368134e+000
1.046101e+003,6.993378e+000
1.047065e+003,8.067657e+000
1.048029e+003,6.692657e+000
1.048993e+003,3.590942e+000
1.049958e+003,1.848648e+000
1.050922e+003,3.444885e+000
1.051886e+003,5.636902e+000
1.052850e+003,5.212479e+000
1.053814e+003,3.757233e+000
1.054779e+003,3.453644e+000
1.055743e+003,4.655258e+000
1.056707e+003,5.974747e+000
1.057671e+003,5.694427e+000
1.058636e+003,3.771530e+000
1.059600e+003,3.016678e+000
1.060564e+003,4.662994e+000
1.061528e+003,5.976807e+000
1.062493e+003,6.245148e+000
1.063457e+003,5.980621e+000
1.064421e+003,5.857758e+000
1.065385e+003,6.006454e+000
1.066349e+003,5.923889e+000
1.067314e+003,4.818298e+000
1.068278e+003,4.106171e+000
1.069242e+003,5.611053e+000
1.070206e+003,7.950714e+000
1.071171e+003,8.664551e+000
1.072135e+003,6.786423e+000
1.073099e+003,3.661087e+000
1.074063e+003,1.615265e+000
1.075028e+003,7.624207e-001
1.075992e+003,9.029236e-001
1.076956e+003,2.856537e+000
1.077920e+003,4.057297e+000
1.078885e+003,3.064133e+000
1.079849e+003,1.080231e+000
1.080813e+003,3.964844e-001
1.081777e+003,1.617508e+000
1.082741e+003,2.585052e+000
1.083706e+003,7.286835e-001
1.084670e+003,-6.431885e-001
1.085634e+003,1.039871e+000
1.086598e+003,4.550705e+000
1.087563e+003,7.533417e+000
1.088527e+003,8.672638e+000
1.089491e+003,8.366318e+000
1.090455e+003,7.013336e+000
1.091420e+003,4.354980e+000
1.092384e+003,2.446472e+000
1.093348e+003,9.598999e-001
1.094312e+003,5.260773e-001
1.095276e+003,2.567352e+000
1.096241e+003,6.080536e+000
1.097205e+003,7.525436e+000
1.098169e+003,5.681778e+000
1.099133e+003,3.802841e+000
1.100098e+003,2.946518e+000
1.101062e+003,2.712067e+000
1.102026e+003,3.129822e+000
1.102990e+003,3.958710e+000
1.103955e+003,4.950195e+000
1.104919e+003,5.901978e+000
1.105883e+003,6.309250e+000
1.106847e+003,4.796387e+000
1.107812e+003,1.361496e+000
1.108776e+003,-2.404785e-002
1.109740e+003,1.611557e+000
1.110704e+003,3.627060e+000
1.111668e+003,4.038162e+000
1.112633e+003,3.382126e+000
1.113597e+003,3.712021e+000
1.114561e+003,5.564926e+000
1.115525e+003,7.313538e+000
1.116490e+003,8.993591e+000
1.117454e+003,9.904572e+000
1.118418e+003,9.031219e+000
1.119382e+003,7.181580e+000
1.120347e+003,6.209274e+000
1.121311e+003,7.132477e+000
1.122275e+003,8.705276e+000
1.123239e+003,8.656616e+000
1.124203e+003,7.308701e+000
1.125168e+003,6.714203e+000
1.126132e+003,7.260345e+000
1.127096e+003,8.051865e+000
1.128060e+003,8.311249e+000
1.129025e+003,8.128326e+000
1.129989e+003,8.132553e+000
1.130953e+003,8.230392e+000
1.131917e+003,8.715942e+000
1.132882e+003,1.000017e+001
1.133846e+003,1.141811e+001
1.134810e+003,1.248795e+001
1.135774e+003,1.337912e+001
1.136739e+003,1.460640e+001
1.137703e+003,1.644043e+001
1.138667e+003,1.848669e+001
1.139631e+003,2.010674e+001
1.140595e+003,2.128972e+001
1.141560e+003,2.225873e+001
1.142524e+003,2.280981e+001
1.143488e+003,2.431532e+001
1.144452e+003,2.823376e+001
1.145417e+003,3.381674e+001
1.146381e+003,3.811467e+001
1.147345e+003,4.008598e+001
1.148309e+003,4.326871e+001
1.149274e+003,4.941974e+001
1.150238e+003,5.611662e+001
1.151202e+003,6.213220e+001
1.152166e+003,6.789948e+001
1.153130e+003,7.461729e+001
1.154095e+003,8.262263e+001
1.155059e+003,9.045502e+001
1.156023e+003,9.644873e+001
1.156987e+003,1.004461e+002
1.157952e+003,1.021266e+002
1.158916e+003,1.014019e+002
1.159880e+003,1.004785e+002
1.160844e+003,1.017883e+002
1.161809e+003,1.028230e+002
1.162773e+003,9.709235e+001
1.163737e+003,8.237520e+001
1.164701e+003,7.102365e+001
1.165666e+003,7.123032e+001
1.166630e+003,7.024513e+001
1.167594e+003,6.123134e+001
1.168558e+003,4.903174e+001
1.169522e+003,4.055823e+001
1.170487e+003,3.787480e+001
1.171451e+003,3.783087e+001
1.172415e+003,3.709479e+001
1.173379e+003,3.566319e+001
1.174344e+003,3.332204e+001
1.175308e+003,2.988553e+001
1.176272e+003,2.825189e+001
1.177236e+003,3.123012e+001
1.178201e+003,3.512292e+001
1.179165e+003,3.457977e+001
1.180129e+003,2.944011e+001
1.181093e+003,2.519566e+001
1.182057e+003,2.291113e+001
1.183022e+003,2.199231e+001
1.183986e+003,2.321519e+001
1.184950e+003,2.481305e+001
1.185914e+003,2.529471e+001
1.186879e+003,2.444307e+001
1.187843e+003,2.242412e+001
1.188807e+003,1.925055e+001
1.189771e+003,1.605908e+001
1.190736e+003,1.698714e+001
1.191700e+003,2.260400e+001
1.192664e+003,2.626727e+001
1.193628e+003,2.677553e+001
1.194593e+003,2.624574e+001
1.195557e+003,2.618713e+001
1.196521e+003,2.626303e+001
1.197485e+003,2.508528e+001
1.198449e+003,2.185248e+001
1.199414e+003,1.935620e+001
1.200378e+003,1.970897e+001
1.201342e+003,2.045494e+001
1.202306e+003,1.988828e+001
1.203271e+003,1.842560e+001
1.204235e+003,1.757820e+001
1.205199e+003,1.799368e+001
1.206163e+003,1.833548e+001
1.207128e+003,1.614977e+001
1.208092e+003,1.124693e+001
1.209056e+003,8.799683e+000
1.210020e+003,1.017851e+001
1.210984e+003,1.084724e+001
1.211949e+003,9.029160e+000
1.212913e+003,6.054672e+000
1.213877e+003,3.592834e+000
1.214841e+003,1.801117e+000
1.215806e+003,9.347534e-002
1.216770e+003,-2.050430e+000
1.217734e+003,-3.721786e+000
1.218698e+003,-4.074631e+000
1.219663e+003,-3.938034e+000
1.220627e+003,-4.394699e+000
1.221591e+003,-5.540985e+000
1.222555e+003,-6.628891e+000
1.223520e+003,-6.941055e+000
1.224484e+003,-6.563095e+000
1.225448e+003,-6.146210e+000
1.226412e+003,-5.520401e+000
1.227376e+003,-5.370865e+000
1.228341e+003,-5.791687e+000
1.229305e+003,-6.644501e+000
1.230269e+003,-8.397827e+000
1.231233e+003,-1.039435e+001
1.232198e+003,-1.093712e+001
1.233162e+003,-9.423950e+000
1.234126e+003,-8.496292e+000
1.235090e+003,-1.124564e+001
1.236055e+003,-1.451051e+001
1.237019e+003,-1.464656e+001
1.237983e+003,-1.250542e+001
1.238947e+003,-1.013356e+001
1.239911e+003,-8.357422e+000
1.240876e+003,-7.673859e+000
1.241840e+003,-9.204620e+000
1.242804e+003,-1.316751e+001
1.243768e+003,-1.518616e+001
1.244733e+003,-1.344939e+001
1.245697e+003,-1.202243e+001
1.246661e+003,-1.114037e+001
1.247625e+003,-1.093602e+001
1.248590e+003,-1.224283e+001
1.249554e+003,-1.412968e+001
1.250518e+003,-1.389189e+001
1.251482e+003,-1.018529e+001
1.252447e+003,-6.155762e+000
1.253411e+003,-5.858215e+000
1.254375e+003,-7.635559e+000
1.255339e+003,-7.790054e+000
1.256303e+003,-6.200089e+000
1.257268e+003,-5.307251e+000
1.258232e+003,-7.010010e+000
1.259196e+003,-9.805038e+000
1.260160e+003,-1.018701e+001
1.261125e+003,-7.519653e+000
1.262089e+003,-5.705109e+000
1.263053e+003,-6.448273e+000
1.264017e+003,-6.668610e+000
1.264982e+003,-5.226501e+000
1.265946e+003,-3.162247e+000
1.266910e+003,-1.080338e+000
1.267874e+003,6.216431e-001
1.268839e+003,1.324280e+000
1.269803e+003,5.995331e-001
1.270767e+003,-7.686615e-001
1.271731e+003,-1.238464e+000
1.272695e+003,-7.707062e-001
1.273660e+003,-5.085297e-001
1.274624e+003,-6.517181e-001
1.275588e+003,-1.068008e+000
1.276552e+003,-1.541000e+000
1.277517e+003,-2.091263e+000
1.278481e+003,-2.898865e+000
1.279445e+003,-4.011398e+000
1.280409e+003,-5.445480e+000
1.281374e+003,-7.897766e+000
1.282338e+003,-9.642715e+000
1.283302e+003,-9.416992e+000
1.284266e+003,-8.336090e+000
1.285230e+003,-7.571060e+000
1.286195e+003,-7.373062e+000
1.287159e+003,-7.325638e+000
1.288123e+003,-7.039169e+000
1.289087e+003,-6.614044e+000
1.290052e+003,-6.597610e+000
1.291016e+003,-7.232437e+000
1.291980e+003,-7.775024e+000
1.292944e+003,-8.105469e+000
1.293909e+003,-8.711594e+000
1.294873e+003,-1.019580e+001
1.295837e+003,-1.164784e+001
1.296801e+003,-1.152673e+001
1.297766e+003,-9.782837e+000
1.298730e+003,-8.462799e+000
1.299694e+003,-8.855072e+000
1.300658e+003,-9.853622e+000
1.301622e+003,-1.027914e+001
1.302587e+003,-1.031943e+001
1.303551e+003,-1.025807e+001
1.304515e+003,-1.012247e+001
1.305479e+003,-9.882935e+000
1.306444e+003,-9.512161e+000
1.307408e+003,-9.207443e+000
1.308372e+003,-9.598343e+000
1.309336e+003,-1.116917e+001
1.310301e+003,-1.195003e+001
1.311265e+003,-1.144939e+001
1.312229e+003,-1.052432e+001
1.313193e+003,-8.790726e+000
1.314157e+003,-7.217758e+000
1.315122e+003,-6.971954e+000
1.316086e+003,-8.019455e+000
1.317050e+003,-9.259918e+000
1.318014e+003,-9.913101e+000
1.318979e+003,-1.046556e+001
1.319943e+003,-1.239154e+001
1.320907e+003,-1.519446e+001
1.321871e+003,-1.503662e+001
1.322836e+003,-1.106749e+001
1.323800e+003,-7.192627e+000
1.324764e+003,-5.687042e+000
1.325728e+003,-5.403610e+000
1.326693e+003,-3.966324e+000
1.327657e+003,-1.329514e+000
1.328621e+003,-1.167252e+000
1.329585e+003,-5.956665e+000
1.330549e+003,-1.015620e+001
1.331514e+003,-1.143005e+001
1.332478e+003,-1.102158e+001
1.333442e+003,-9.202179e+000
1.334406e+003,-6.667694e+000
1.335371e+003,-4.808044e+000
1.336335e+003,-4.478775e+000
1.337299e+003,-5.427704e+000
1.338263e+003,-7.360123e+000
1.339228e+003,-1.054942e+001
1.340192e+003,-1.207932e+001
1.341156e+003,-1.127849e+001
1.342120e+003,-9.964310e+000
1.343084e+003,-7.509247e+000
1.344049e+003,-5.614685e+000
1.345013e+003,-6.204193e+000
1.345977e+003,-8.394363e+000
1.346941e+003,-9.479416e+000
1.347906e+003,-8.469574e+000
1.348870e+003,-6.725647e+000
1.349834e+003,-5.082184e+000
1.350798e+003,-3.971054e+000
1.351763e+003,-3.947571e+000
1.352727e+003,-4.902985e+000
1.353691e+003,-6.597488e+000
1.354655e+003,-9.289337e+000
1.355620e+003,-1.144453e+001
1.356584e+003,-1.068318e+001
1.357548e+003,-7.400665e+000
1.358512e+003,-5.587982e+000
1.359476e+003,-5.959045e+000
1.360441e+003,-6.679489e+000
1.361405e+003,-7.542908e+000
1.362369e+003,-8.235214e+000
1.363333e+003,-8.152710e+000
1.364298e+003,-8.006943e+000
1.365262e+003,-9.413422e+000
1.366226e+003,-1.221567e+001
1.367190e+003,-1.376143e+001
1.368155e+003,-1.163867e+001
1.369119e+003,-7.182236e+000
1.370083e+003,-4.583054e+000
1.371047e+003,-4.240494e+000
1.372011e+003,-4.040329e+000
1.372976e+003,-3.806000e+000
1.373940e+003,-4.184525e+000
1.374904e+003,-6.101120e+000
1.375868e+003,-8.215515e+000
1.376833e+003,-8.633438e+000
1.377797e+003,-7.454086e+000
1.378761e+003,-6.551224e+000
1.379725e+003,-6.760178e+000
1.380690e+003,-7.194687e+000
1.381654e+003,-6.687805e+000
1.382618e+003,-5.923767e+000
1.383582e+003,-6.337387e+000
1.384547e+003,-7.691666e+000
1.385511e+003,-7.670044e+000
1.386475e+003,-4.784882e+000
1.387439e+003,-1.311859e+000
1.388403e+003,-8.830109e-001
1.389368e+003,-3.501617e+000
1.390332e+003,-6.027618e+000
1.391296e+003,-9.097214e+000
1.392260e+003,-1.037683e+001
1.393225e+003,-8.268265e+000
1.394189e+003,-5.684143e+000
1.395153e+003,-3.453003e+000
1.396117e+003,-2.191940e+000
1.397082e+003,-3.292587e+000
1.398046e+003,-6.440369e+000
1.399010e+003,-8.576706e+000
1.399974e+003,-6.881454e+000
1.400938e+003,-3.080856e+000
1.401903e+003,-2.382614e+000
1.402867e+003,-5.629562e+000
1.403831e+003,-6.902191e+000
1.404795e+003,-4.995239e+000
1.405760e+003,-3.143570e+000
1.406724e+003,-2.539993e+000
1.407688e+003,-2.896561e+000
1.408652e+003,-4.070648e+000
1.409617e+003,-5.607513e+000
1.410581e+003,-6.153458e+000
1.411545e+003,-5.055069e+000
1.412509e+003,-3.525848e+000
1.413474e+003,-2.705307e+000
1.414438e+003,-2.426285e+000
1.415402e+003,-2.020279e+000
1.416366e+003,-1.494446e+000
1.417330e+003,-1.702423e+000
1.418295e+003,-3.181824e+000
1.419259e+003,-4.709076e+000
1.420223e+003,-4.767746e+000
1.421187e+003,-3.678604e+000
1.422152e+003,-3.000244e+000
1.423116e+003,-2.713058e+000
1.424080e+003,-2.575272e+000
1.425044e+003,-3.155518e+000
1.426009e+003,-3.414642e+000
1.426973e+003,-2.414093e+000
1.427937e+003,-1.164642e+000
1.428901e+003,-1.097015e+000
1.429865e+003,-2.031342e+000
1.430830e+003,-2.429855e+000
1.431794e+003,-1.346664e+000
1.432758e+003,3.023682e-001
1.433722e+003,8.282471e-001
1.434687e+003,2.946930e-001
1.435651e+003,1.609344e-001
1.436615e+003,2.157593e-001
1.437579e+003,1.769714e-001
1.438544e+003,2.641907e-001
1.439508e+003,1.147919e-001
1.440472e+003,-9.629059e-001
1.441436e+003,-2.147797e+000
1.442401e+003,-1.744476e+000
1.443365e+003,4.537506e-001
1.444329e+003,2.627716e+000
1.445293e+003,3.543427e+000
1.446257e+003,3.512833e+000
1.447222e+003,2.555618e+000
1.448186e+003,9.686127e-001
1.449150e+003,7.266998e-001
1.450114e+003,2.316315e+000
1.451079e+003,3.773117e+000
1.452043e+003,4.257050e+000
1.453007e+003,4.105118e+000
1.453971e+003,3.432251e+000
1.454936e+003,2.316208e+000
1.455900e+003,1.602020e+000
1.456864e+003,1.519638e+000
1.457828e+003,1.901184e+000
1.458792e+003,3.307556e+000
1.459757e+003,4.378326e+000
1.460721e+003,3.707504e+000
1.461685e+003,1.929901e+000
1.462649e+003,2.102814e-001
1.463614e+003,-1.001266e+000
1.464578e+003,-1.319672e+000
1.465542e+003,-2.133942e-001
1.466506e+003,1.503723e+000
1.467471e+003,1.262985e+000
1.468435e+003,-1.492752e+000
1.469399e+003,-2.689270e+000
1.470363e+003,-1.081635e+000
1.471328e+003,3.829041e-001
1.472292e+003,1.121933e+000
1.473256e+003,1.216888e+000
1.474220e+003,4.172821e-001
1.475184e+003,-5.820160e-001
1.476149e+003,-6.744843e-001
1.477113e+003,3.536530e-001
1.478077e+003,1.772034e+000
1.479041e+003,2.997284e+000
1.480006e+003,3.929169e+000
1.480970e+003,3.862823e+000
1.481934e+003,2.116043e+000
1.482898e+003,1.809402e+000
1.483863e+003,4.899277e+000
1.484827e+003,6.468796e+000
1.485791e+003,3.550766e+000
1.486755e+003,2.275238e-001
1.487719e+003,6.265717e-001
1.488684e+003,3.668274e+000
1.489648e+003,5.567581e+000
1.490612e+003,5.211212e+000
1.491576e+003,5.123337e+000
1.492541e+003,7.560089e+000
1.493505e+003,1.111815e+001
1.494469e+003,1.281169e+001
1.495433e+003,1.275807e+001
1.496398e+003,1.199469e+001
1.497362e+003,1.040640e+001
1.498326e+003,9.502594e+000
1.499290e+003,1.003996e+001
1.500255e+003,1.167880e+001
1.501219e+003,1.411470e+001
1.502183e+003,1.721834e+001
1.503147e+003,2.072479e+001
1.504111e+003,2.475441e+001
1.505076e+003,2.819331e+001
1.506040e+003,2.962363e+001
1.507004e+003,3.107062e+001
1.507968e+003,3.486653e+001
1.508933e+003,4.006570e+001
1.509897e+003,4.438010e+001
1.510861e+003,4.766521e+001
1.511825e+003,5.249739e+001
1.512790e+003,6.097089e+001
1.513754e+003,7.113016e+001
1.514718e+003,7.885686e+001
1.515682e+003,8.406296e+001
1.516646e+003,9.247327e+001
1.517611e+003,1.069130e+002
1.518575e+003,1.191096e+002
1.519539e+003,1.248738e+002
1.520503e+003,1.296568e+002
1.521468e+003,1.365788e+002
1.522432e+003,1.440447e+002
1.523396e+003,1.499311e+002
1.524360e+003,1.536960e+002
1.525325e+003,1.560264e+002
1.526289e+003,1.573921e+002
1.527253e+003,1.568770e+002
1.528217e+003,1.524871e+002
1.529182e+003,1.442669e+002
1.530146e+003,1.372615e+002
1.531110e+003,1.336566e+002
1.532074e+003,1.268283e+002
1.533039e+003,1.136764e+002
1.534003e+003,1.001082e+002
1.534967e+003,8.846178e+001
1.535931e+003,7.847873e+001
1.536896e+003,7.038303e+001
1.537860e+003,6.334839e+001
1.538824e+003,5.474323e+001
1.539788e+003,4.337027e+001
1.540752e+003,3.235693e+001
1.541717e+003,2.583871e+001
1.542681e+003,2.339035e+001
1.543645e+003,2.165733e+001
1.544609e+003,2.136269e+001
1.545573e+003,2.024831e+001
1.546538e+003,1.742757e+001
1.547502e+003,1.462189e+001
1.548466e+003,1.228564e+001
1.549430e+003,1.070088e+001
1.550395e+003,1.036948e+001
1.551359e+003,1.081972e+001
1.552323e+003,1.070738e+001
1.553287e+003,9.659439e+000
1.554252e+003,9.245880e+000
1.555216e+003,1.106271e+001
1.556180e+003,1.376909e+001
1.557144e+003,1.407253e+001
1.558109e+003,1.191425e+001
1.559073e+003,1.057187e+001
1.560037e+003,1.052306e+001
1.561001e+003,1.001726e+001
1.561966e+003,8.074921e+000
1.562930e+003,6.143143e+000
1.563894e+003,5.479523e+000
1.564858e+003,5.750168e+000
1.565823e+003,6.204498e+000
1.566787e+003,6.648895e+000
1.567751e+003,6.949768e+000
1.568715e+003,7.046463e+000
1.569679e+003,7.081726e+000
1.570644e+003,7.161896e+000
1.571608e+003,7.201599e+000
1.572572e+003,7.080444e+000
1.573536e+003,6.859467e+000
1.574500e+003,7.208847e+000
1.575465e+003,8.764862e+000
1.576429e+003,1.019563e+001
1.577393e+003,1.006516e+001
1.578357e+003,9.127060e+000
1.579322e+003,9.190506e+000
1.580286e+003,1.028088e+001
1.581250e+003,1.025838e+001
1.582214e+003,7.901016e+000
1.583179e+003,6.502533e+000
1.584143e+003,9.307419e+000
1.585107e+003,1.355016e+001
1.586071e+003,1.616112e+001
1.587036e+003,1.728943e+001
1.588000e+003,1.669159e+001
1.588964e+003,1.412914e+001
1.589928e+003,1.130577e+001
1.590893e+003,8.840134e+000
1.591857e+003,7.286880e+000
1.592821e+003,7.999725e+000
1.593785e+003,1.055940e+001
1.594750e+003,1.238696e+001
1.595714e+003,1.306195e+001
1.596678e+003,1.333353e+001
1.597642e+003,1.331525e+001
1.598606e+003,1.328377e+001
1.599571e+003,1.342281e+001
1.600535e+003,1.377379e+001
1.601499e+003,1.465425e+001
1.602463e+003,1.580905e+001
1.603427e+003,1.597865e+001
1.604392e+003,1.451299e+001
1.605356e+003,1.314977e+001
1.606320e+003,1.390482e+001
1.607284e+003,1.604718e+001
1.608249e+003,1.757889e+001
1.609213e+003,1.848790e+001
1.610177e+003,1.893170e+001
1.611141e+003,1.888896e+001
1.612106e+003,1.850792e+001
1.613070e+003,1.737811e+001
1.614034e+003,1.635161e+001
1.614998e+003,1.629027e+001
1.615963e+003,1.667790e+001
1.616927e+003,1.658298e+001
1.617891e+003,1.585330e+001
1.618855e+003,1.478654e+001
1.619820e+003,1.337682e+001
1.620784e+003,1.227162e+001
1.621748e+003,1.296104e+001
1.622712e+003,1.522008e+001
1.623677e+003,1.666667e+001
1.624641e+003,1.729248e+001
1.625605e+003,1.702895e+001
1.626569e+003,1.457974e+001
1.627533e+003,1.277946e+001
1.628498e+003,1.369431e+001
1.629462e+003,1.545007e+001
1.630426e+003,1.665680e+001
1.631390e+003,1.731810e+001
1.632354e+003,1.782150e+001
1.633319e+003,1.823570e+001
1.634283e+003,1.817850e+001
1.635247e+003,1.723213e+001
1.636211e+003,1.599864e+001
1.637176e+003,1.570496e+001
1.638140e+003,1.633228e+001
1.639104e+003,1.674025e+001
1.640068e+003,1.676974e+001
1.641033e+003,1.683531e+001
1.641997e+003,1.684485e+001
1.642961e+003,1.732309e+001
1.643925e+003,1.940486e+001
1.644890e+003,2.132341e+001
1.645854e+003,2.081105e+001
1.646818e+003,1.866948e+001
1.647782e+003,1.743283e+001
1.648747e+003,1.781642e+001
1.649711e+003,1.816295e+001
1.650675e+003,1.699263e+001
1.651639e+003,1.538091e+001
1.652604e+003,1.586792e+001
1.653568e+003,1.825699e+001
1.654532e+003,1.838203e+001
1.655496e+003,1.504785e+001
1.656460e+003,1.303790e+001
1.657425e+003,1.484987e+001
1.658389e+003,1.684607e+001
1.659353e+003,1.703465e+001
1.660317e+003,1.639690e+001
1.661281e+003,1.586549e+001
1.662246e+003,1.544685e+001
1.663210e+003,1.485464e+001
1.664174e+003,1.403786e+001
1.665138e+003,1.324026e+001
1.666103e+003,1.266333e+001
1.667067e+003,1.207921e+001
1.668031e+003,1.071683e+001
1.668995e+003,8.759460e+000
1.669960e+003,8.834549e+000
1.670924e+003,1.191061e+001
1.671888e+003,1.375253e+001
1.672852e+003,1.198003e+001
1.673817e+003,1.010594e+001
1.674781e+003,1.065166e+001
1.675745e+003,1.202374e+001
1.676709e+003,1.258440e+001
1.677674e+003,1.238069e+001
1.678638e+003,1.205750e+001
1.679602e+003,1.181889e+001
1.680566e+003,1.150452e+001
1.681531e+003,1.113699e+001
1.682495e+003,1.057460e+001
1.683459e+003,9.129181e+000
1.684423e+003,6.995209e+000
1.685387e+003,6.118378e+000
1.686352e+003,6.960327e+000
1.687316e+003,6.846283e+000
1.688280e+003,4.086288e+000
1.689244e+003,1.744278e+000
1.690208e+003,2.557098e+000
1.691173e+003,4.632645e+000
1.692137e+003,6.390366e+000
1.693101e+003,7.746460e+000
1.694065e+003,8.367981e+000
1.695030e+003,8.034393e+000
1.695994e+003,7.768250e+000
1.696958e+003,8.570190e+000
1.697922e+003,9.426117e+000
1.698887e+003,8.945557e+000
1.699851e+003,7.531036e+000
1.700815e+003,6.188843e+000
1.701779e+003,4.973236e+000
1.702744e+003,4.045120e+000
1.703708e+003,3.506805e+000
1.704672e+003,3.582748e+000
1.705636e+003,4.512497e+000
1.706601e+003,5.769913e+000
1.707565e+003,7.453171e+000
1.708529e+003,9.034271e+000
1.709493e+003,7.975830e+000
1.710458e+003,3.614182e+000
1.711422e+003,1.690674e-002
1.712386e+003,-1.506165e+000
1.713350e+003,-1.100983e+000
1.714314e+003,2.786377e+000
1.715279e+003,7.384277e+000
1.716243e+003,7.404556e+000
1.717207e+003,3.571457e+000
1.718171e+003,1.289124e+000
1.719135e+003,2.075806e+000
1.720100e+003,2.955444e+000
1.721064e+003,1.829651e+000
1.722028e+003,8.604431e-002
1.722992e+003,1.220703e-003
1.723957e+003,1.238647e+000
1.724921e+003,1.033340e+000
1.725885e+003,-1.146591e+000
1.726849e+003,-2.481354e+000
1.727814e+003,-1.975662e+000
1.728778e+003,-9.224243e-001
1.729742e+003,3.894501e-001
1.730706e+003,1.689880e+000
1.731671e+003,2.909058e+000
1.732635e+003,3.646423e+000
1.733599e+003,3.452377e+000
1.734563e+003,2.338928e+000
1.735528e+003,-6.695557e-002
1.736492e+003,-3.998215e+000
1.737456e+003,-6.744980e+000
1.738420e+003,-4.772263e+000
1.739385e+003,1.541443e-001
1.740349e+003,1.757706e+000
1.741313e+003,-6.547852e-001
1.742277e+003,-2.488464e+000
1.743241e+003,-3.732651e+000
1.744206e+003,-4.297424e+000
1.745170e+003,-3.860092e+000
1.746134e+003,-3.205429e+000
1.747098e+003,-2.972961e+000
1.748063e+003,-2.621323e+000
1.749027e+003,-9.314880e-001
1.749991e+003,1.401810e+000
1.750955e+003,2.146957e+000
1.751919e+003,7.808533e-001
1.752884e+003,-5.559235e-001
1.753848e+003,-7.374573e-002
1.754812e+003,1.093887e+000
1.755776e+003,5.865326e-001
1.756741e+003,-1.410599e+000
1.757705e+003,-1.606064e+000
1.758669e+003,1.013718e+000
1.759633e+003,2.164932e+000
1.760598e+003,-2.191315e-001
1.761562e+003,-1.902054e+000
1.762526e+003,-7.977753e-001
1.763490e+003,7.641754e-001
1.764455e+003,1.402176e+000
1.765419e+003,1.278671e+000
1.766383e+003,6.850586e-001
1.767347e+003,-2.941589e-001
1.768312e+003,-1.762344e+000
1.769276e+003,-3.832520e+000
1.770240e+003,-5.052765e+000
1.771204e+003,-3.304413e+000
1.772168e+003,7.098389e-002
1.773133e+003,1.945099e+000
1.774097e+003,2.374374e+000
1.775061e+003,1.615402e+000
1.776025e+003,-6.966248e-001
1.776990e+003,-2.055511e+000
1.777954e+003,-1.127151e+000
1.778918e+003,1.747589e-001
1.779882e+003,5.166473e-001
1.780846e+003,2.191772e-001
1.781811e+003,-1.689911e-001
1.782775e+003,-6.645660e-001
1.783739e+003,-1.586868e+000
1.784703e+003,-3.037964e+000
1.785668e+003,-3.824203e+000
1.786632e+003,-3.418137e+000
1.787596e+003,-2.505081e+000
1.788560e+003,-9.106140e-001
1.789525e+003,6.871185e-001
1.790489e+003,1.251770e+000
1.791453e+003,7.716827e-001
1.792417e+003,-7.906952e-001
1.793382e+003,-3.206909e+000
1.794346e+003,-4.657272e+000
1.795310e+003,-4.136642e+000
1.796274e+003,-3.124100e+000
1.797239e+003,-3.321548e+000
1.798203e+003,-4.036652e+000
1.799167e+003,-3.307373e+000
1.800131e+003,-9.145508e-001
1.801095e+003,-5.682373e-002
1.802060e+003,-2.004898e+000
1.803024e+003,-2.898087e+000
1.803988e+003,-1.438919e+000
1.804952e+003,-1.503754e-001
1.805917e+003,-6.566315e-001
1.806881e+003,-1.547775e+000
1.807845e+003,-1.151138e+000
1.808809e+003,5.702209e-002
1.809773e+003,7.628174e-001
1.810738e+003,6.657257e-001
1.811702e+003,3.592529e-001
1.812666e+003,2.040863e-001
1.813630e+003,-1.152191e-001
1.814595e+003,-1.165771e+000
1.815559e+003,-2.574875e+000
1.816523e+003,-2.315323e+000
1.817487e+003,-6.834412e-002
1.818452e+003,2.339020e-001
1.819416e+003,-2.719269e+000
1.820380e+003,-3.916214e+000
1.821344e+003,-1.888885e-001
1.822309e+003,2.797729e+000
1.823273e+003,5.613708e-001
1.824237e+003,-2.933350e+000
1.825201e+003,-3.587036e+000
1.826166e+003,-2.239899e+000
1.827130e+003,-1.643890e+000
1.828094e+003,-2.295395e+000
1.829058e+003,-2.590454e+000
1.830022e+003,-1.553360e+000
1.830987e+003,-2.421875e-001
1.831951e+003,8.346863e-001
1.832915e+003,1.392853e+000
1.833879e+003,5.045319e-001
1.834844e+003,-1.200363e+000
1.835808e+003,-1.821304e+000
1.836772e+003,-1.080521e+000
1.837736e+003,4.155273e-001
1.838700e+003,2.406937e+000
1.839665e+003,3.665024e+000
1.840629e+003,2.917404e+000
1.841593e+003,1.319412e+000
1.842557e+003,1.360733e+000
1.843522e+003,3.001419e+000
1.844486e+003,3.510849e+000
1.845450e+003,2.153824e+000
1.846414e+003,1.329758e+000
1.847379e+003,1.502167e+000
1.848343e+003,1.220993e+000
1.849307e+003,-8.679047e-001
1.850271e+003,-2.463684e+000
1.851236e+003,-5.962830e-001
1.852200e+003,2.067841e+000
1.853164e+003,7.735443e-001
1.854128e+003,-3.598297e+000
1.855093e+003,-6.084457e+000
1.856057e+003,-4.778381e+000
1.857021e+003,-1.857605e+000
1.857985e+003,1.060669e+000
1.858949e+003,3.257172e+000
1.859914e+003,2.926865e+000
1.860878e+003,7.370758e-001
1.861842e+003,6.691742e-001
1.862806e+003,2.778534e+000
1.863771e+003,3.581253e+000
1.864735e+003,2.181213e+000
1.865699e+003,7.351837e-001
1.866663e+003,2.242737e-001
1.867627e+003,2.053833e-002
1.868592e+003,-8.886719e-001
1.869556e+003,-1.751251e+000
1.870520e+003,-5.111237e-001
1.871484e+003,2.380249e+000
1.872449e+003,3.918503e+000
1.873413e+003,3.842209e+000
1.874377e+003,3.544067e+000
1.875341e+003,2.662079e+000
1.876306e+003,2.103851e+000
1.877270e+003,2.904907e+000
1.878234e+003,3.694962e+000
1.879198e+003,2.768600e+000
1.880163e+003,1.023819e+000
1.881127e+003,8.638000e-002
1.882091e+003,2.561493e-001
1.883055e+003,1.494476e+000
1.884020e+003,3.554123e+000
1.884984e+003,4.834778e+000
1.885948e+003,3.845749e+000
1.886912e+003,1.769196e+000
1.887876e+003,9.625244e-001
1.888841e+003,1.349548e+000
1.889805e+003,2.008316e+000
1.890769e+003,3.105637e+000
1.891733e+003,3.480545e+000
1.892698e+003,2.452515e+000
1.893662e+003,1.938309e+000
1.894626e+003,3.416138e+000
1.895590e+003,4.574554e+000
1.896554e+003,2.933640e+000
1.897519e+003,8.382874e-001
1.898483e+003,1.458481e+000
1.899447e+003,3.924072e+000
1.900411e+003,5.197571e+000
1.901376e+003,4.780624e+000
1.902340e+003,4.039047e+000
1.903304e+003,3.121552e+000
1.904268e+003,2.533722e+000
1.905233e+003,2.760544e+000
1.906197e+003,3.373428e+000
1.907161e+003,4.298462e+000
1.908125e+003,5.137589e+000
1.909090e+003,4.878494e+000
1.910054e+003,3.739868e+000
1.911018e+003,3.175095e+000
1.911982e+003,3.644363e+000
1.912947e+003,4.133896e+000
1.913911e+003,3.868866e+000
1.914875e+003,3.251297e+000
1.915839e+003,2.839584e+000
1.916803e+003,2.577240e+000
1.917768e+003,2.641617e+000
1.918732e+003,3.195877e+000
1.919696e+003,3.401840e+000
1.920660e+003,2.955048e+000
1.921625e+003,3.225525e+000
1.922589e+003,5.022003e+000
1.923553e+003,6.599319e+000
1.924517e+003,6.828445e+000
1.925481e+003,6.649185e+000
1.926446e+003,7.397232e+000
1.927410e+003,8.154343e+000
1.928374e+003,6.408127e+000
1.929338e+003,2.277176e+000
1.930303e+003,-8.305359e-002
1.931267e+003,8.792572e-001
1.932231e+003,2.473618e+000
1.933195e+003,4.132660e+000
1.934160e+003,5.050751e+000
1.935124e+003,3.809189e+000
1.936088e+003,2.107864e+000
1.937052e+003,2.271790e+000
1.938017e+003,3.763748e+000
1.938981e+003,5.115265e+000
1.939945e+003,5.889175e+000
1.940909e+003,6.071808e+000
1.941874e+003,5.657059e+000
1.942838e+003,4.685562e+000
1.943802e+003,3.213486e+000
1.944766e+003,1.900650e+000
1.945730e+003,1.961426e+000
1.946695e+003,3.151764e+000
1.947659e+003,4.055649e+000
1.948623e+003,4.634766e+000
1.949587e+003,5.174637e+000
1.950552e+003,5.931000e+000
1.951516e+003,5.830231e+000
1.952480e+003,3.895874e+000
1.953444e+003,2.330444e+000
1.954408e+003,2.694321e+000
1.955373e+003,4.120804e+000
1.956337e+003,6.049683e+000
1.957301e+003,8.200851e+000
1.958265e+003,9.135178e+000
1.959230e+003,8.704025e+000
1.960194e+003,8.156464e+000
1.961158e+003,6.986908e+000
1.962122e+003,6.402069e+000
1.963087e+003,7.416000e+000
1.964051e+003,8.295303e+000
1.965015e+003,7.795868e+000
1.965979e+003,7.094101e+000
1.966944e+003,7.772507e+000
1.967908e+003,8.836700e+000
1.968872e+003,7.922043e+000
1.969836e+003,5.339600e+000
1.970801e+003,3.995987e+000
1.971765e+003,5.055252e+000
1.972729e+003,6.392166e+000
1.973693e+003,6.108765e+000
1.974657e+003,5.390549e+000
1.975622e+003,6.395935e+000
1.976586e+003,8.161514e+000
1.977550e+003,7.521545e+000
1.978514e+003,5.169189e+000
1.979479e+003,5.720428e+000
1.980443e+003,9.577606e+000
1.981407e+003,1.173273e+001
1.982371e+003,1.031012e+001
1.983335e+003,7.947586e+000
1.984300e+003,6.404465e+000
1.985264e+003,5.727585e+000
1.986228e+003,6.223114e+000
1.987192e+003,7.555450e+000
1.988157e+003,7.929794e+000
1.989121e+003,7.044281e+000
1.990085e+003,6.996399e+000
1.991049e+003,8.417313e+000
1.992014e+003,9.529694e+000
1.992978e+003,1.066968e+001
1.993942e+003,1.059145e+001
1.994906e+003,7.239151e+000
1.995871e+003,4.211319e+000
1.996835e+003,4.552505e+000
1.997799e+003,6.717087e+000
1.998763e+003,8.810349e+000
1.999728e+003,1.037476e+001
