5.003444e+002,1.597885e+002
5.013087e+002,1.592260e+002
5.022729e+002,1.571604e+002
5.032371e+002,1.543494e+002
5.042014e+002,1.503188e+002
5.051656e+002,1.455233e+002
5.061298e+002,1.416143e+002
5.070941e+002,1.400122e+002
5.080583e+002,1.408662e+002
5.090225e+002,1.408441e+002
5.099868e+002,1.407356e+002
5.109510e+002,1.392987e+002
5.119152e+002,1.349487e+002
5.128795e+002,1.274160e+002
5.138437e+002,1.221339e+002
5.148079e+002,1.227852e+002
5.157722e+002,1.247046e+002
5.167364e+002,1.267310e+002
5.177006e+002,1.278976e+002
5.186649e+002,1.271658e+002
5.196291e+002,1.228398e+002
5.205933e+002,1.175897e+002
5.215576e+002,1.122487e+002
5.225218e+002,1.068931e+002
5.234860e+002,1.029283e+002
5.244503e+002,1.038927e+002
5.254145e+002,1.130021e+002
5.263787e+002,1.175624e+002
5.273430e+002,1.155878e+002
5.283072e+002,1.104819e+002
5.292714e+002,1.063636e+002
5.302357e+002,1.022870e+002
5.311999e+002,9.910193e+001
5.321641e+002,9.870264e+001
5.331284e+002,9.938525e+001
5.340926e+002,9.957690e+001
5.350568e+002,9.831689e+001
5.360211e+002,9.581311e+001
5.369853e+002,9.348914e+001
5.379495e+002,9.103564e+001
5.389138e+002,8.729346e+001
5.398780e+002,8.195203e+001
5.408422e+002,7.606445e+001
5.418065e+002,7.288257e+001
5.427707e+002,7.212268e+001
5.437349e+002,7.287402e+001
5.446992e+002,7.551453e+001
5.456634e+002,7.894019e+001
5.466276e+002,7.950464e+001
5.475919e+002,7.414685e+001
5.485561e+002,6.999634e+001
5.495203e+002,6.736768e+001
5.504846e+002,6.547644e+001
5.514488e+002,6.346777e+001
5.524130e+002,6.141089e+001
5.533773e+002,5.965930e+001
5.543415e+002,5.855823e+001
5.553057e+002,5.769531e+001
5.562700e+002,5.646497e+001
5.572342e+002,5.439941e+001
5.581984e+002,5.176001e+001
5.591627e+002,4.927344e+001
5.601269e+002,4.753320e+001
5.610911e+002,4.767395e+001
5.620554e+002,5.031360e+001
5.630196e+002,5.449280e+001
5.639838e+002,5.386853e+001
5.649481e+002,4.345117e+001
5.659123e+002,3.559558e+001
5.668765e+002,3.460547e+001
5.678408e+002,3.868970e+001
5.688050e+002,4.152100e+001
5.697692e+002,3.910168e+001
5.707335e+002,3.645935e+001
5.716977e+002,3.600781e+001
5.726619e+002,3.656506e+001
5.736262e+002,3.593835e+001
5.745904e+002,3.228125e+001
5.755546e+002,2.925708e+001
5.765189e+002,3.359631e+001
5.774831e+002,4.119189e+001
5.784473e+002,4.553955e+001
5.794116e+002,4.253369e+001
5.803758e+002,3.339026e+001
5.813400e+002,2.724341e+001
5.823043e+002,2.305664e+001
5.832685e+002,2.023083e+001
5.842327e+002,1.995447e+001
5.851970e+002,2.226819e+001
5.861612e+002,2.438342e+001
5.871254e+002,2.452148e+001
5.880897e+002,2.500159e+001
5.890539e+002,2.690710e+001
5.900181e+002,2.891785e+001
5.909824e+002,2.891895e+001
5.919466e+002,2.530884e+001
5.929108e+002,2.053528e+001
5.938751e+002,1.646155e+001
5.948393e+002,1.337061e+001
5.958035e+002,1.194629e+001
5.967678e+002,1.276147e+001
5.977320e+002,1.582361e+001
5.986962e+002,1.983960e+001
5.996605e+002,2.432385e+001
6.006247e+002,2.681409e+001
6.015889e+002,2.538782e+001
6.025532e+002,2.046289e+001
6.035174e+002,1.704028e+001
6.044816e+002,1.679578e+001
6.054459e+002,1.666821e+001
6.064101e+002,1.646643e+001
6.073743e+002,1.598376e+001
6.083386e+002,1.496069e+001
6.093028e+002,1.306714e+001
6.102670e+002,1.148010e+001
6.112313e+002,1.103125e+001
6.121955e+002,1.115942e+001
6.131597e+002,1.090637e+001
6.141240e+002,9.632446e+000
6.150882e+002,7.882935e+000
6.160524e+002,9.252319e+000
6.170167e+002,1.349585e+001
6.179809e+002,1.705164e+001
6.189451e+002,1.779944e+001
6.199094e+002,1.576135e+001
6.208736e+002,1.375122e+001
6.218378e+002,1.323755e+001
6.228021e+002,1.249841e+001
6.237663e+002,1.119641e+001
6.247305e+002,9.858765e+000
6.256948e+002,9.238159e+000
6.266590e+002,9.617310e+000
6.276232e+002,8.901489e+000
6.285875e+002,5.820068e+000
6.295517e+002,2.307373e+000
6.305159e+002,-1.956787e-001
6.314802e+002,-1.007202e+000
6.324444e+002,-4.121094e-001
6.334086e+002,3.683228e+000
6.343729e+002,1.028186e+001
6.353371e+002,1.459436e+001
6.363013e+002,1.462671e+001
6.372656e+002,1.100305e+001
6.382298e+002,6.459229e+000
6.391940e+002,-1.702026e+000
6.401583e+002,-7.504272e+000
6.411225e+002,-8.976929e+000
6.420867e+002,-7.643188e+000
6.430510e+002,-5.383667e+000
6.440152e+002,-2.671509e+000
6.449794e+002,-1.586060e+000
6.459437e+002,-4.221069e+000
6.469079e+002,-7.756104e+000
6.478721e+002,-9.704346e+000
6.488364e+002,-9.139404e+000
6.498006e+002,-7.329102e+000
6.507648e+002,-7.009399e+000
6.517291e+002,-7.671265e+000
6.526933e+002,-7.392822e+000
6.536575e+002,-5.811768e+000
6.546218e+002,-3.633911e+000
6.555860e+002,-2.067627e+000
6.565502e+002,-7.550049e-001
6.575145e+002,-1.572632e+000
6.584787e+002,-6.651367e+000
6.594429e+002,-1.177808e+001
6.604072e+002,-1.288501e+001
6.613714e+002,-8.891479e+000
6.623356e+002,-6.203247e+000
6.632999e+002,-1.119836e+001
6.642641e+002,-1.632434e+001
6.652283e+002,-1.596985e+001
6.661926e+002,-1.044409e+001
6.671568e+002,-4.807617e+000
6.681210e+002,-6.056152e+000
6.690853e+002,-1.169214e+001
6.700495e+002,-1.402185e+001
6.710137e+002,-1.290942e+001
6.719780e+002,-9.765991e+000
6.729422e+002,-5.877319e+000
6.739064e+002,-9.317627e-001
6.748707e+002,8.288574e-001
6.758349e+002,-2.567749e+000
6.767991e+002,-6.156494e+000
6.777634e+002,-7.635986e+000
6.787276e+002,-6.619019e+000
6.796918e+002,-3.881714e+000
6.806561e+002,2.752930e+000
6.816203e+002,6.831421e+000
6.825845e+002,3.930542e+000
6.835488e+002,-2.765625e+000
6.845130e+002,-7.965454e+000
6.854772e+002,-7.555908e+000
6.864415e+002,-3.327148e+000
6.874057e+002,8.642578e-002
6.883699e+002,2.006836e+000
6.893342e+002,1.981445e+000
6.902984e+002,-1.868896e-001
6.912626e+002,-3.916626e+000
6.922269e+002,-6.662598e+000
6.931911e+002,-6.828857e+000
6.941553e+002,-6.157715e+000
6.951196e+002,-5.657715e+000
6.960838e+002,-5.293335e+000
6.970480e+002,-4.444824e+000
6.980123e+002,-2.585693e+000
6.989765e+002,-2.072754e-001
6.999407e+002,3.926147e+000
7.009050e+002,7.207153e+000
7.018692e+002,6.383667e+000
7.028334e+002,8.957520e-001
7.037977e+002,-5.407349e+000
7.047619e+002,-4.862427e+000
7.057261e+002,-2.203369e-001
7.066904e+002,1.618774e+000
7.076546e+002,-4.844971e-001
7.086188e+002,-4.405396e+000
7.095831e+002,-6.876953e+000
7.105473e+002,-7.906250e+000
7.115115e+002,-8.335449e+000
7.124758e+002,-8.569336e+000
7.134400e+002,-8.415161e+000
7.144042e+002,-6.554565e+000
7.153685e+002,-2.878906e+000
7.163327e+002,-1.208984e+000
7.172969e+002,-5.952393e+000
7.182612e+002,-1.057166e+001
7.192254e+002,-1.359644e+001
7.201896e+002,-1.462378e+001
7.211539e+002,-1.285901e+001
7.221181e+002,-7.035767e+000
7.230823e+002,2.028809e-001
7.240466e+002,1.430908e+000
7.250108e+002,-1.507813e+000
7.259750e+002,-4.110229e+000
7.269393e+002,-4.389648e+000
7.279035e+002,-3.289795e+000
7.288677e+002,-2.824585e+000
7.298320e+002,-1.020264e+000
7.307962e+002,4.174805e-001
7.317604e+002,9.898682e-001
7.327247e+002,1.462036e+000
7.336889e+002,2.145996e+000
7.346531e+002,1.834229e+000
7.356174e+002,1.804199e+000
7.365816e+002,6.880249e+000
7.375458e+002,1.200415e+001
7.385101e+002,1.175342e+001
7.394743e+002,5.675415e+000
7.404385e+002,-9.383545e-001
7.414028e+002,4.969482e-001
7.423670e+002,6.588867e+000
7.433312e+002,7.289795e+000
7.442955e+002,2.626831e+000
7.452597e+002,-3.008667e+000
7.462239e+002,-5.454346e+000
7.471882e+002,-4.695313e+000
7.481524e+002,-1.747192e+000
7.491166e+002,5.156372e+000
7.500809e+002,9.896973e+000
7.510451e+002,9.597168e+000
7.520093e+002,5.144165e+000
7.529736e+002,-1.134033e-001
7.539378e+002,-5.417969e+000
7.549020e+002,-7.856201e+000
7.558663e+002,-4.620239e+000
7.568306e+002,1.504150e+000
7.577948e+002,6.553101e+000
7.587590e+002,7.948242e+000
7.597233e+002,6.669922e+000
7.606875e+002,7.198486e+000
7.616517e+002,9.742310e+000
7.626160e+002,1.140723e+001
7.635802e+002,1.122656e+001
7.645444e+002,1.033337e+001
7.655087e+002,1.118494e+001
7.664729e+002,1.546875e+001
7.674371e+002,1.711023e+001
7.684014e+002,1.447681e+001
7.693656e+002,1.067773e+001
7.703298e+002,7.443359e+000
7.712941e+002,5.210449e+000
7.722583e+002,3.668335e+000
7.732225e+002,2.190430e+000
7.741868e+002,1.803345e+000
7.751510e+002,3.854370e+000
7.761152e+002,7.730835e+000
7.770795e+002,1.203345e+001
7.780437e+002,1.545142e+001
7.790079e+002,1.772852e+001
7.799722e+002,1.798816e+001
7.809364e+002,1.627319e+001
7.819006e+002,1.394556e+001
7.828649e+002,1.166077e+001
7.838291e+002,9.853882e+000
7.847933e+002,8.723877e+000
7.857576e+002,6.885376e+000
7.867218e+002,6.272827e+000
7.876860e+002,9.328979e+000
7.886503e+002,1.334790e+001
7.896145e+002,1.575256e+001
7.905787e+002,1.596204e+001
7.915430e+002,1.631067e+001
7.925072e+002,2.044397e+001
7.934714e+002,2.398083e+001
7.944357e+002,2.140100e+001
7.953999e+002,1.387634e+001
7.963641e+002,7.214355e+000
7.973284e+002,7.807373e+000
7.982926e+002,1.626917e+001
7.992568e+002,2.070264e+001
8.002211e+002,1.830615e+001
8.011853e+002,1.481531e+001
8.021495e+002,1.355225e+001
8.031138e+002,1.481897e+001
8.040780e+002,1.655371e+001
8.050422e+002,1.779749e+001
8.060065e+002,1.825000e+001
8.069707e+002,1.600745e+001
8.079349e+002,1.327747e+001
8.088992e+002,1.329834e+001
8.098634e+002,1.711633e+001
8.108276e+002,2.152393e+001
8.117919e+002,2.058215e+001
8.127561e+002,1.552637e+001
8.137203e+002,1.098792e+001
8.146846e+002,8.267456e+000
8.156488e+002,7.180908e+000
8.166130e+002,6.970703e+000
8.175773e+002,7.295654e+000
8.185415e+002,9.524048e+000
8.195057e+002,1.433313e+001
8.204700e+002,1.851782e+001
8.214342e+002,2.121265e+001
8.223984e+002,2.249084e+001
8.233627e+002,2.251477e+001
8.243269e+002,2.077710e+001
8.252911e+002,1.949780e+001
8.262554e+002,1.988123e+001
8.272196e+002,2.111255e+001
8.281838e+002,2.248425e+001
8.291481e+002,2.359521e+001
8.301123e+002,2.428918e+001
8.310765e+002,2.413611e+001
8.320408e+002,2.308105e+001
8.330050e+002,2.280518e+001
8.339692e+002,2.374915e+001
8.349335e+002,2.496216e+001
8.358977e+002,2.579028e+001
8.368619e+002,2.663867e+001
8.378262e+002,2.713171e+001
8.387904e+002,2.575122e+001
8.397546e+002,2.461682e+001
8.407189e+002,2.409937e+001
8.416831e+002,2.435693e+001
8.426473e+002,2.563599e+001
8.436116e+002,2.826074e+001
8.445758e+002,3.156055e+001
8.455400e+002,3.543103e+001
8.465043e+002,3.781372e+001
8.474685e+002,3.591711e+001
8.484327e+002,3.018420e+001
8.493970e+002,2.466248e+001
8.503612e+002,2.536316e+001
8.513254e+002,3.324072e+001
8.522897e+002,3.934241e+001
8.532539e+002,4.337146e+001
8.542181e+002,4.543396e+001
8.551824e+002,4.579382e+001
8.561466e+002,4.533472e+001
8.571108e+002,4.561365e+001
8.580751e+002,4.429565e+001
8.590393e+002,4.391199e+001
8.600035e+002,4.736975e+001
8.609678e+002,5.228687e+001
8.619320e+002,5.541016e+001
8.628962e+002,5.547998e+001
8.638605e+002,5.502136e+001
8.648247e+002,5.857898e+001
8.657889e+002,6.420496e+001
8.667532e+002,6.828223e+001
8.677174e+002,7.031775e+001
8.686816e+002,7.066284e+001
8.696459e+002,6.957776e+001
8.706101e+002,6.705762e+001
8.715743e+002,6.611462e+001
8.725386e+002,6.532434e+001
8.735028e+002,6.776233e+001
8.744670e+002,7.611035e+001
8.754313e+002,8.681750e+001
8.763955e+002,9.400000e+001
8.773597e+002,9.568091e+001
8.783240e+002,9.528528e+001
8.792882e+002,9.295398e+001
8.802524e+002,9.085132e+001
8.812167e+002,9.187256e+001
8.821809e+002,9.599609e+001
8.831451e+002,1.004030e+002
8.841094e+002,1.014249e+002
8.850736e+002,9.979749e+001
8.860378e+002,1.015955e+002
8.870021e+002,1.075256e+002
8.879663e+002,1.124546e+002
8.889305e+002,1.121644e+002
8.898948e+002,1.077313e+002
8.908590e+002,1.060601e+002
8.918232e+002,1.105461e+002
8.927875e+002,1.141956e+002
8.937517e+002,1.142816e+002
8.947159e+002,1.139686e+002
8.956802e+002,1.156619e+002
8.966444e+002,1.194006e+002
8.976086e+002,1.233104e+002
8.985729e+002,1.269562e+002
8.995371e+002,1.296229e+002
9.005013e+002,1.285240e+002
9.014656e+002,1.248079e+002
9.024298e+002,1.226742e+002
9.033940e+002,1.250769e+002
9.043583e+002,1.307341e+002
9.053225e+002,1.337689e+002
9.062867e+002,1.309423e+002
9.072510e+002,1.284666e+002
9.082152e+002,1.273223e+002
9.091794e+002,1.275945e+002
9.101437e+002,1.295837e+002
9.111079e+002,1.332892e+002
9.120721e+002,1.366091e+002
9.130364e+002,1.373923e+002
9.140006e+002,1.368782e+002
9.149648e+002,1.357471e+002
9.159291e+002,1.348821e+002
9.168933e+002,1.353499e+002
9.178575e+002,1.375212e+002
9.188218e+002,1.399751e+002
9.197860e+002,1.384097e+002
9.207502e+002,1.323929e+002
9.217145e+002,1.276302e+002
9.226787e+002,1.270217e+002
9.236429e+002,1.280387e+002
9.246072e+002,1.262876e+002
9.255714e+002,1.204323e+002
9.265356e+002,1.160437e+002
9.274999e+002,1.142546e+002
9.284641e+002,1.132062e+002
9.294283e+002,1.137892e+002
9.303926e+002,1.148618e+002
9.313568e+002,1.140245e+002
9.323210e+002,1.098237e+002
9.332853e+002,1.049854e+002
9.342495e+002,1.055493e+002
9.352137e+002,1.079734e+002
9.361780e+002,1.069060e+002
9.371422e+002,1.017439e+002
9.381064e+002,9.562549e+001
9.390707e+002,9.190417e+001
9.400349e+002,8.984290e+001
9.409991e+002,9.028796e+001
9.419634e+002,9.616858e+001
9.429276e+002,1.001182e+002
9.438918e+002,9.938831e+001
9.448561e+002,9.607043e+001
9.458203e+002,9.338086e+001
9.467845e+002,9.214648e+001
9.477488e+002,9.297644e+001
9.487130e+002,9.895996e+001
9.496772e+002,1.049923e+002
9.506415e+002,1.065032e+002
9.516057e+002,1.036548e+002
9.525699e+002,9.955518e+001
9.535342e+002,9.714465e+001
9.544984e+002,9.588940e+001
9.554626e+002,9.325684e+001
9.564269e+002,8.947949e+001
9.573911e+002,8.795557e+001
9.583553e+002,9.037378e+001
9.593196e+002,9.480322e+001
9.602838e+002,9.854114e+001
9.612480e+002,1.015298e+002
9.622123e+002,1.024985e+002
9.631765e+002,9.962158e+001
9.641407e+002,9.666724e+001
9.651050e+002,9.554688e+001
9.660692e+002,9.525586e+001
9.670334e+002,9.394226e+001
9.679977e+002,9.085315e+001
9.689619e+002,8.695715e+001
9.699261e+002,8.101196e+001
9.708904e+002,7.410461e+001
9.718546e+002,7.228894e+001
9.728188e+002,7.705750e+001
9.737831e+002,8.528918e+001
9.747473e+002,9.362354e+001
9.757115e+002,1.024644e+002
9.766758e+002,1.104639e+002
9.776400e+002,1.211863e+002
9.786042e+002,1.278564e+002
9.795685e+002,1.270208e+002
9.805327e+002,1.209336e+002
9.814969e+002,1.123069e+002
9.824612e+002,1.024565e+002
9.834254e+002,9.380823e+001
9.843896e+002,8.836072e+001
9.853539e+002,8.447058e+001
9.863181e+002,8.096130e+001
9.872823e+002,7.722778e+001
9.882466e+002,7.294604e+001
9.892108e+002,6.844885e+001
9.901750e+002,6.496899e+001
9.911393e+002,6.489429e+001
9.921035e+002,6.861768e+001
9.930677e+002,7.149854e+001
9.940320e+002,7.383643e+001
9.949962e+002,7.627942e+001
9.959604e+002,7.880640e+001
9.969247e+002,8.167285e+001
9.978889e+002,8.684570e+001
9.988531e+002,9.591211e+001
9.998174e+002,1.047317e+002
1.000782e+003,1.122805e+002
1.001746e+003,1.185735e+002
1.002710e+003,1.237793e+002
1.003674e+003,1.277208e+002
1.004639e+003,1.292955e+002
1.005603e+003,1.260751e+002
1.006567e+003,1.172455e+002
1.007531e+003,1.139662e+002
1.008495e+003,1.186548e+002
1.009460e+003,1.239398e+002
1.010424e+003,1.262516e+002
1.011388e+003,1.259884e+002
1.012352e+003,1.237999e+002
1.013317e+003,1.183107e+002
1.014281e+003,1.128578e+002
1.015245e+003,1.082972e+002
1.016209e+003,1.036686e+002
1.017174e+003,9.934607e+001
1.018138e+003,9.468701e+001
1.019102e+003,8.736340e+001
1.020066e+003,7.509363e+001
1.021031e+003,6.116626e+001
1.021995e+003,5.456677e+001
1.022959e+003,5.317163e+001
1.023923e+003,5.133801e+001
1.024887e+003,4.700964e+001
1.025852e+003,4.149841e+001
1.026816e+003,3.704053e+001
1.027780e+003,3.419385e+001
1.028744e+003,3.235754e+001
1.029709e+003,3.392627e+001
1.030673e+003,3.333362e+001
1.031637e+003,2.600769e+001
1.032601e+003,1.628638e+001
1.033566e+003,1.084644e+001
1.034530e+003,1.212585e+001
1.035494e+003,1.574084e+001
1.036458e+003,1.710840e+001
1.037422e+003,1.698694e+001
1.038387e+003,1.666528e+001
1.039351e+003,1.614819e+001
1.040315e+003,1.594348e+001
1.041279e+003,1.676819e+001
1.042244e+003,1.855908e+001
1.043208e+003,1.960730e+001
1.044172e+003,1.840393e+001
1.045136e+003,1.768494e+001
1.046101e+003,1.771716e+001
1.047065e+003,1.862610e+001
1.048029e+003,2.107556e+001
1.048993e+003,2.426257e+001
1.049958e+003,2.601062e+001
1.050922e+003,2.539746e+001
1.051886e+003,2.397510e+001
1.052850e+003,2.256836e+001
1.053814e+003,2.148889e+001
1.054779e+003,2.147217e+001
1.055743e+003,2.240552e+001
1.056707e+003,2.311914e+001
1.057671e+003,2.218079e+001
1.058636e+003,1.943958e+001
1.059600e+003,1.777307e+001
1.060564e+003,1.759644e+001
1.061528e+003,1.947412e+001
1.062493e+003,2.449817e+001
1.063457e+003,2.970508e+001
1.064421e+003,3.254834e+001
1.065385e+003,3.297913e+001
1.066349e+003,3.141467e+001
1.067314e+003,2.562659e+001
1.068278e+003,2.093042e+001
1.069242e+003,2.272314e+001
1.070206e+003,2.781628e+001
1.071171e+003,3.054749e+001
1.072135e+003,2.841589e+001
1.073099e+003,2.383508e+001
1.074063e+003,2.136963e+001
1.075028e+003,2.149109e+001
1.075992e+003,2.167664e+001
1.076956e+003,2.195972e+001
1.077920e+003,2.120935e+001
1.078885e+003,1.875342e+001
1.079849e+003,1.599182e+001
1.080813e+003,1.541943e+001
1.081777e+003,1.795020e+001
1.082741e+003,2.004321e+001
1.083706e+003,1.701831e+001
1.084670e+003,1.425195e+001
1.085634e+003,1.640076e+001
1.086598e+003,2.089832e+001
1.087563e+003,2.221326e+001
1.088527e+003,1.778271e+001
1.089491e+003,1.125635e+001
1.090455e+003,8.782959e+000
1.091420e+003,1.038196e+001
1.092384e+003,1.267456e+001
1.093348e+003,1.608191e+001
1.094312e+003,1.846387e+001
1.095276e+003,1.881177e+001
1.096241e+003,1.797034e+001
1.097205e+003,1.743726e+001
1.098169e+003,1.734314e+001
1.099133e+003,1.607727e+001
1.100098e+003,1.147437e+001
1.101062e+003,7.625488e+000
1.102026e+003,7.658691e+000
1.102990e+003,1.068066e+001
1.103955e+003,1.371545e+001
1.104919e+003,1.485278e+001
1.105883e+003,1.540112e+001
1.106847e+003,1.925159e+001
1.107812e+003,2.619580e+001
1.108776e+003,2.800049e+001
1.109740e+003,2.251868e+001
1.110704e+003,1.565979e+001
1.111668e+003,1.103735e+001
1.112633e+003,9.164795e+000
1.113597e+003,1.112488e+001
1.114561e+003,1.859192e+001
1.115525e+003,2.492920e+001
1.116490e+003,2.787952e+001
1.117454e+003,2.924463e+001
1.118418e+003,3.019299e+001
1.119382e+003,3.132178e+001
1.120347e+003,3.241064e+001
1.121311e+003,3.281458e+001
1.122275e+003,3.259473e+001
1.123239e+003,3.410400e+001
1.124203e+003,3.782153e+001
1.125168e+003,3.900879e+001
1.126132e+003,3.624817e+001
1.127096e+003,3.430017e+001
1.128060e+003,3.705469e+001
1.129025e+003,4.327820e+001
1.129989e+003,4.807275e+001
1.130953e+003,5.008325e+001
1.131917e+003,5.236902e+001
1.132882e+003,5.643359e+001
1.133846e+003,6.088208e+001
1.134810e+003,6.475635e+001
1.135774e+003,6.840637e+001
1.136739e+003,7.256128e+001
1.137703e+003,7.759644e+001
1.138667e+003,8.362549e+001
1.139631e+003,9.121533e+001
1.140595e+003,1.001652e+002
1.141560e+003,1.092623e+002
1.142524e+003,1.183926e+002
1.143488e+003,1.298359e+002
1.144452e+003,1.452085e+002
1.145417e+003,1.638789e+002
1.146381e+003,1.837769e+002
1.147345e+003,2.049283e+002
1.148309e+003,2.263859e+002
1.149274e+003,2.455264e+002
1.150238e+003,2.679041e+002
1.151202e+003,2.993884e+002
1.152166e+003,3.362351e+002
1.153130e+003,3.723134e+002
1.154095e+003,4.037434e+002
1.155059e+003,4.281436e+002
1.156023e+003,4.430759e+002
1.156987e+003,4.485149e+002
1.157952e+003,4.476378e+002
1.158916e+003,4.415337e+002
1.159880e+003,4.308688e+002
1.160844e+003,4.137706e+002
1.161809e+003,3.906915e+002
1.162773e+003,3.642859e+002
1.163737e+003,3.341809e+002
1.164701e+003,3.029072e+002
1.165666e+003,2.686779e+002
1.166630e+003,2.368844e+002
1.167594e+003,2.073009e+002
1.168558e+003,1.821968e+002
1.169522e+003,1.652988e+002
1.170487e+003,1.570751e+002
1.171451e+003,1.537606e+002
1.172415e+003,1.513289e+002
1.173379e+003,1.495569e+002
1.174344e+003,1.487859e+002
1.175308e+003,1.494939e+002
1.176272e+003,1.483879e+002
1.177236e+003,1.436262e+002
1.178201e+003,1.375745e+002
1.179165e+003,1.331814e+002
1.180129e+003,1.299987e+002
1.181093e+003,1.244899e+002
1.182057e+003,1.139469e+002
1.183022e+003,1.046776e+002
1.183986e+003,9.969910e+001
1.184950e+003,9.652698e+001
1.185914e+003,9.193384e+001
1.186879e+003,8.659143e+001
1.187843e+003,8.505835e+001
1.188807e+003,9.099780e+001
1.189771e+003,1.008190e+002
1.190736e+003,1.039475e+002
1.191700e+003,9.936963e+001
1.192664e+003,9.787732e+001
1.193628e+003,1.032462e+002
1.194593e+003,1.089329e+002
1.195557e+003,1.110587e+002
1.196521e+003,1.095703e+002
1.197485e+003,1.037379e+002
1.198449e+003,9.175415e+001
1.199414e+003,8.121265e+001
1.200378e+003,7.654053e+001
1.201342e+003,7.361743e+001
1.202306e+003,7.009546e+001
1.203271e+003,6.587732e+001
1.204235e+003,6.195154e+001
1.205199e+003,5.883667e+001
1.206163e+003,5.568005e+001
1.207128e+003,5.078601e+001
1.208092e+003,4.409900e+001
1.209056e+003,3.847839e+001
1.210020e+003,3.517493e+001
1.210984e+003,3.045374e+001
1.211949e+003,2.209692e+001
1.212913e+003,1.217273e+001
1.213877e+003,3.477417e+000
1.214841e+003,-3.631348e+000
1.215806e+003,-1.031824e+001
1.216770e+003,-1.787170e+001
1.217734e+003,-2.395972e+001
1.218698e+003,-2.680908e+001
1.219663e+003,-2.822986e+001
1.220627e+003,-3.002307e+001
1.221591e+003,-3.267651e+001
1.222555e+003,-3.616296e+001
1.223520e+003,-4.041699e+001
1.224484e+003,-4.474280e+001
1.225448e+003,-4.698120e+001
1.226412e+003,-4.586707e+001
1.227376e+003,-4.571729e+001
1.228341e+003,-4.855908e+001
1.229305e+003,-5.048999e+001
1.230269e+003,-4.844116e+001
1.231233e+003,-4.431421e+001
1.232198e+003,-4.176855e+001
1.233162e+003,-4.149011e+001
1.234126e+003,-4.193542e+001
1.235090e+003,-4.256689e+001
1.236055e+003,-4.376660e+001
1.237019e+003,-4.676587e+001
1.237983e+003,-5.063904e+001
1.238947e+003,-5.210889e+001
1.239911e+003,-4.956665e+001
1.240876e+003,-4.563403e+001
1.241840e+003,-4.472986e+001
1.242804e+003,-4.710559e+001
1.243768e+003,-4.728149e+001
1.244733e+003,-4.286328e+001
1.245697e+003,-3.926184e+001
1.246661e+003,-3.741223e+001
1.247625e+003,-3.710962e+001
1.248590e+003,-3.854761e+001
1.249554e+003,-4.061658e+001
1.250518e+003,-4.153271e+001
1.251482e+003,-4.084229e+001
1.252447e+003,-3.888110e+001
1.253411e+003,-3.395215e+001
1.254375e+003,-2.817761e+001
1.255339e+003,-2.774988e+001
1.256303e+003,-3.232153e+001
1.257268e+003,-3.450500e+001
1.258232e+003,-2.987500e+001
1.259196e+003,-2.214563e+001
1.260160e+003,-1.806799e+001
1.261125e+003,-1.784753e+001
1.262089e+003,-1.683740e+001
1.263053e+003,-1.581628e+001
1.264017e+003,-1.343945e+001
1.264982e+003,-7.550781e+000
1.265946e+003,-1.087280e+000
1.266910e+003,3.664795e+000
1.267874e+003,6.214355e+000
1.268839e+003,6.947388e+000
1.269803e+003,6.131348e+000
1.270767e+003,3.920166e+000
1.271731e+003,2.752686e-001
1.272695e+003,-4.440430e+000
1.273660e+003,-7.877686e+000
1.274624e+003,-1.071875e+001
1.275588e+003,-1.282666e+001
1.276552e+003,-1.206323e+001
1.277517e+003,-1.035266e+001
1.278481e+003,-1.270227e+001
1.279445e+003,-1.993079e+001
1.280409e+003,-2.602002e+001
1.281374e+003,-2.918616e+001
1.282338e+003,-3.022473e+001
1.283302e+003,-2.804626e+001
1.284266e+003,-2.526819e+001
1.285230e+003,-2.498877e+001
1.286195e+003,-2.750012e+001
1.287159e+003,-3.088611e+001
1.288123e+003,-3.333972e+001
1.289087e+003,-3.460425e+001
1.290052e+003,-3.498352e+001
1.291016e+003,-3.477661e+001
1.291980e+003,-3.407312e+001
1.292944e+003,-3.176709e+001
1.293909e+003,-3.141736e+001
1.294873e+003,-3.567407e+001
1.295837e+003,-4.105688e+001
1.296801e+003,-4.225220e+001
1.297766e+003,-3.892188e+001
1.298730e+003,-3.679395e+001
1.299694e+003,-3.970959e+001
1.300658e+003,-4.427173e+001
1.301622e+003,-4.728223e+001
1.302587e+003,-4.860681e+001
1.303551e+003,-4.755334e+001
1.304515e+003,-4.406580e+001
1.305479e+003,-4.015186e+001
1.306444e+003,-3.763940e+001
1.307408e+003,-3.648108e+001
1.308372e+003,-3.561292e+001
1.309336e+003,-3.463708e+001
1.310301e+003,-3.539685e+001
1.311265e+003,-4.092493e+001
1.312229e+003,-4.385547e+001
1.313193e+003,-3.954834e+001
1.314157e+003,-3.346716e+001
1.315122e+003,-3.171375e+001
1.316086e+003,-3.472314e+001
1.317050e+003,-3.847522e+001
1.318014e+003,-4.009070e+001
1.318979e+003,-4.090234e+001
1.319943e+003,-4.457007e+001
1.320907e+003,-5.003577e+001
1.321871e+003,-5.048206e+001
1.322836e+003,-4.534033e+001
1.323800e+003,-3.894885e+001
1.324764e+003,-3.122864e+001
1.325728e+003,-2.465540e+001
1.326693e+003,-2.502454e+001
1.327657e+003,-3.292517e+001
1.328621e+003,-3.904700e+001
1.329585e+003,-3.911035e+001
1.330549e+003,-3.688245e+001
1.331514e+003,-3.541931e+001
1.332478e+003,-3.454858e+001
1.333442e+003,-3.358630e+001
1.334406e+003,-3.228296e+001
1.335371e+003,-3.049951e+001
1.336335e+003,-2.826013e+001
1.337299e+003,-2.687195e+001
1.338263e+003,-2.932593e+001
1.339228e+003,-3.643750e+001
1.340192e+003,-3.942798e+001
1.341156e+003,-3.631360e+001
1.342120e+003,-3.240332e+001
1.343084e+003,-2.601062e+001
1.344049e+003,-2.223962e+001
1.345013e+003,-2.804248e+001
1.345977e+003,-3.922473e+001
1.346941e+003,-4.277271e+001
1.347906e+003,-3.366028e+001
1.348870e+003,-2.321875e+001
1.349834e+003,-2.263403e+001
1.350798e+003,-2.749402e+001
1.351763e+003,-2.808264e+001
1.352727e+003,-2.498938e+001
1.353691e+003,-2.296240e+001
1.354655e+003,-2.378906e+001
1.355620e+003,-2.568762e+001
1.356584e+003,-2.649670e+001
1.357548e+003,-2.618994e+001
1.358512e+003,-2.616919e+001
1.359476e+003,-2.702979e+001
1.360441e+003,-2.873669e+001
1.361405e+003,-3.265674e+001
1.362369e+003,-3.531287e+001
1.363333e+003,-3.335400e+001
1.364298e+003,-2.978027e+001
1.365262e+003,-2.951428e+001
1.366226e+003,-3.310669e+001
1.367190e+003,-3.608154e+001
1.368155e+003,-3.438831e+001
1.369119e+003,-2.998975e+001
1.370083e+003,-2.915906e+001
1.371047e+003,-3.320813e+001
1.372011e+003,-3.372705e+001
1.372976e+003,-2.834619e+001
1.373940e+003,-2.398047e+001
1.374904e+003,-2.266333e+001
1.375868e+003,-2.355261e+001
1.376833e+003,-2.734521e+001
1.377797e+003,-3.322498e+001
1.378761e+003,-3.551111e+001
1.379725e+003,-3.073389e+001
1.380690e+003,-2.461902e+001
1.381654e+003,-2.263367e+001
1.382618e+003,-2.299683e+001
1.383582e+003,-2.434326e+001
1.384547e+003,-2.617163e+001
1.385511e+003,-2.642786e+001
1.386475e+003,-2.411743e+001
1.387439e+003,-2.057690e+001
1.388403e+003,-1.723792e+001
1.389368e+003,-1.416724e+001
1.390332e+003,-1.288745e+001
1.391296e+003,-1.383923e+001
1.392260e+003,-1.503870e+001
1.393225e+003,-1.677551e+001
1.394189e+003,-1.810693e+001
1.395153e+003,-1.854749e+001
1.396117e+003,-1.815771e+001
1.397082e+003,-1.633435e+001
1.398046e+003,-1.337585e+001
1.399010e+003,-1.170959e+001
1.399974e+003,-1.400793e+001
1.400938e+003,-1.911926e+001
1.401903e+003,-2.147717e+001
1.402867e+003,-1.874951e+001
1.403831e+003,-1.614001e+001
1.404795e+003,-1.521655e+001
1.405760e+003,-1.375012e+001
1.406724e+003,-1.040552e+001
1.407688e+003,-8.439575e+000
1.408652e+003,-1.179761e+001
1.409617e+003,-1.894031e+001
1.410581e+003,-2.399536e+001
1.411545e+003,-2.483203e+001
1.412509e+003,-2.215918e+001
1.413474e+003,-1.388721e+001
1.414438e+003,-5.299561e+000
1.415402e+003,-5.125977e+000
1.416366e+003,-1.170569e+001
1.417330e+003,-1.712708e+001
1.418295e+003,-1.845203e+001
1.419259e+003,-1.709912e+001
1.420223e+003,-1.368115e+001
1.421187e+003,-9.254150e+000
1.422152e+003,-8.931519e+000
1.423116e+003,-1.418140e+001
1.424080e+003,-1.681372e+001
1.425044e+003,-1.375378e+001
1.426009e+003,-9.598633e+000
1.426973e+003,-4.635254e+000
1.427937e+003,-6.166992e-001
1.428901e+003,1.962891e-001
1.429865e+003,-1.617676e+000
1.430830e+003,-3.483398e+000
1.431794e+003,-3.946411e+000
1.432758e+003,-3.823364e+000
1.433722e+003,-4.042969e+000
1.434687e+003,-3.905273e+000
1.435651e+003,-1.984131e+000
1.436615e+003,-4.272461e-003
1.437579e+003,2.395142e+000
1.438544e+003,6.719360e+000
1.439508e+003,1.048792e+001
1.440472e+003,1.251245e+001
1.441436e+003,1.335303e+001
1.442401e+003,1.365063e+001
1.443365e+003,1.343298e+001
1.444329e+003,1.252441e+001
1.445293e+003,1.077490e+001
1.446257e+003,9.077637e+000
1.447222e+003,8.962646e+000
1.448186e+003,1.007373e+001
1.449150e+003,1.120239e+001
1.450114e+003,1.241296e+001
1.451079e+003,1.216223e+001
1.452043e+003,9.476318e+000
1.453007e+003,5.812134e+000
1.453971e+003,1.964844e+000
1.454936e+003,-1.938110e+000
1.455900e+003,-3.005615e+000
1.456864e+003,5.634766e-001
1.457828e+003,3.865356e+000
1.458792e+003,2.312866e+000
1.459757e+003,1.947021e-001
1.460721e+003,2.217651e+000
1.461685e+003,6.081299e+000
1.462649e+003,6.616455e+000
1.463614e+003,2.953003e+000
1.464578e+003,-8.684082e-001
1.465542e+003,-1.471313e+000
1.466506e+003,-7.751465e-002
1.467471e+003,3.250732e-001
1.468435e+003,1.025391e-002
1.469399e+003,7.430420e-001
1.470363e+003,1.878662e+000
1.471328e+003,3.771118e+000
1.472292e+003,6.951538e+000
1.473256e+003,9.312500e+000
1.474220e+003,9.720703e+000
1.475184e+003,9.350708e+000
1.476149e+003,9.974121e+000
1.477113e+003,1.169788e+001
1.478077e+003,1.295215e+001
1.479041e+003,1.263635e+001
1.480006e+003,1.185193e+001
1.480970e+003,1.308838e+001
1.481934e+003,1.635876e+001
1.482898e+003,1.899011e+001
1.483863e+003,2.087744e+001
1.484827e+003,2.207153e+001
1.485791e+003,2.264624e+001
1.486755e+003,2.345667e+001
1.487719e+003,2.486047e+001
1.488684e+003,2.655737e+001
1.489648e+003,2.824622e+001
1.490612e+003,3.011829e+001
1.491576e+003,3.259204e+001
1.492541e+003,3.556628e+001
1.493505e+003,3.934216e+001
1.494469e+003,4.522864e+001
1.495433e+003,5.225464e+001
1.496398e+003,5.837097e+001
1.497362e+003,6.383997e+001
1.498326e+003,6.998596e+001
1.499290e+003,7.698950e+001
1.500255e+003,8.518433e+001
1.501219e+003,9.523584e+001
1.502183e+003,1.066720e+002
1.503147e+003,1.174530e+002
1.504111e+003,1.267147e+002
1.505076e+003,1.374587e+002
1.506040e+003,1.517981e+002
1.507004e+003,1.683788e+002
1.507968e+003,1.845852e+002
1.508933e+003,2.020715e+002
1.509897e+003,2.249248e+002
1.510861e+003,2.545397e+002
1.511825e+003,2.873436e+002
1.512790e+003,3.201169e+002
1.513754e+003,3.538713e+002
1.514718e+003,3.921195e+002
1.515682e+003,4.342700e+002
1.516646e+003,4.751875e+002
1.517611e+003,5.157344e+002
1.518575e+003,5.537511e+002
1.519539e+003,5.916267e+002
1.520503e+003,6.247906e+002
1.521468e+003,6.516945e+002
1.522432e+003,6.712964e+002
1.523396e+003,6.830990e+002
1.524360e+003,6.865168e+002
1.525325e+003,6.797006e+002
1.526289e+003,6.616046e+002
1.527253e+003,6.374792e+002
1.528217e+003,6.167787e+002
1.529182e+003,6.001145e+002
1.530146e+003,5.768297e+002
1.531110e+003,5.473160e+002
1.532074e+003,5.087496e+002
1.533039e+003,4.546292e+002
1.534003e+003,3.973855e+002
1.534967e+003,3.403882e+002
1.535931e+003,2.870734e+002
1.536896e+003,2.392349e+002
1.537860e+003,1.981096e+002
1.538824e+003,1.656553e+002
1.539788e+003,1.422549e+002
1.540752e+003,1.241129e+002
1.541717e+003,1.067535e+002
1.542681e+003,9.069446e+001
1.543645e+003,7.681970e+001
1.544609e+003,6.528320e+001
1.545573e+003,5.780835e+001
1.546538e+003,5.564661e+001
1.547502e+003,5.400403e+001
1.548466e+003,5.081787e+001
1.549430e+003,4.912463e+001
1.550395e+003,5.304675e+001
1.551359e+003,6.037122e+001
1.552323e+003,6.548157e+001
1.553287e+003,6.636853e+001
1.554252e+003,6.356299e+001
1.555216e+003,5.700793e+001
1.556180e+003,4.812354e+001
1.557144e+003,3.974060e+001
1.558109e+003,3.216785e+001
1.559073e+003,2.749280e+001
1.560037e+003,2.536230e+001
1.561001e+003,2.504163e+001
1.561966e+003,2.983228e+001
1.562930e+003,3.467480e+001
1.563894e+003,3.327234e+001
1.564858e+003,2.782007e+001
1.565823e+003,2.435034e+001
1.566787e+003,2.397522e+001
1.567751e+003,2.477979e+001
1.568715e+003,2.626807e+001
1.569679e+003,2.759973e+001
1.570644e+003,2.716760e+001
1.571608e+003,2.519031e+001
1.572572e+003,2.348157e+001
1.573536e+003,2.248254e+001
1.574500e+003,2.175159e+001
1.575465e+003,2.012805e+001
1.576429e+003,1.985742e+001
1.577393e+003,2.319043e+001
1.578357e+003,2.857068e+001
1.579322e+003,3.414111e+001
1.580286e+003,3.969629e+001
1.581250e+003,4.288879e+001
1.582214e+003,4.258948e+001
1.583179e+003,4.127734e+001
1.584143e+003,4.012585e+001
1.585107e+003,3.887646e+001
1.586071e+003,3.796228e+001
1.587036e+003,3.785254e+001
1.588000e+003,3.808398e+001
1.588964e+003,3.815417e+001
1.589928e+003,3.776831e+001
1.590893e+003,3.602612e+001
1.591857e+003,3.462439e+001
1.592821e+003,3.706909e+001
1.593785e+003,4.256055e+001
1.594750e+003,4.539404e+001
1.595714e+003,4.409668e+001
1.596678e+003,4.343213e+001
1.597642e+003,4.556299e+001
1.598606e+003,4.869519e+001
1.599571e+003,5.209607e+001
1.600535e+003,5.552808e+001
1.601499e+003,5.858447e+001
1.602463e+003,6.104236e+001
1.603427e+003,6.268469e+001
1.604392e+003,6.344458e+001
1.605356e+003,6.366797e+001
1.606320e+003,6.406543e+001
1.607284e+003,6.415015e+001
1.608249e+003,6.185229e+001
1.609213e+003,5.705798e+001
1.610177e+003,5.389502e+001
1.611141e+003,5.345325e+001
1.612106e+003,5.368945e+001
1.613070e+003,5.373999e+001
1.614034e+003,5.390686e+001
1.614998e+003,5.482703e+001
1.615963e+003,5.590259e+001
1.616927e+003,5.599670e+001
1.617891e+003,5.482483e+001
1.618855e+003,5.258691e+001
1.619820e+003,4.899402e+001
1.620784e+003,4.468481e+001
1.621748e+003,4.118945e+001
1.622712e+003,3.938855e+001
1.623677e+003,4.041602e+001
1.624641e+003,4.509473e+001
1.625605e+003,4.798315e+001
1.626569e+003,4.455603e+001
1.627533e+003,4.188855e+001
1.628498e+003,4.634241e+001
1.629462e+003,5.174268e+001
1.630426e+003,5.190234e+001
1.631390e+003,4.873438e+001
1.632354e+003,4.714136e+001
1.633319e+003,4.832935e+001
1.634283e+003,5.091187e+001
1.635247e+003,5.432031e+001
1.636211e+003,5.675000e+001
1.637176e+003,5.410083e+001
1.638140e+003,4.716235e+001
1.639104e+003,4.444104e+001
1.640068e+003,4.705774e+001
1.641033e+003,4.941724e+001
1.641997e+003,5.079260e+001
1.642961e+003,5.132080e+001
1.643925e+003,4.989148e+001
1.644890e+003,4.856519e+001
1.645854e+003,4.965356e+001
1.646818e+003,5.237671e+001
1.647782e+003,5.458594e+001
1.648747e+003,5.554712e+001
1.649711e+003,5.588428e+001
1.650675e+003,5.636365e+001
1.651639e+003,5.718994e+001
1.652604e+003,5.820886e+001
1.653568e+003,5.907983e+001
1.654532e+003,5.906909e+001
1.655496e+003,5.825439e+001
1.656460e+003,5.614270e+001
1.657425e+003,5.183081e+001
1.658389e+003,4.768481e+001
1.659353e+003,4.438721e+001
1.660317e+003,4.220300e+001
1.661281e+003,4.219873e+001
1.662246e+003,4.327917e+001
1.663210e+003,4.257715e+001
1.664174e+003,3.941699e+001
1.665138e+003,3.617932e+001
1.666103e+003,3.434229e+001
1.667067e+003,3.379529e+001
1.668031e+003,3.563245e+001
1.668995e+003,3.964026e+001
1.669960e+003,4.028833e+001
1.670924e+003,3.636914e+001
1.671888e+003,3.319788e+001
1.672852e+003,3.184900e+001
1.673817e+003,3.182813e+001
1.674781e+003,3.408899e+001
1.675745e+003,3.639099e+001
1.676709e+003,3.540405e+001
1.677674e+003,3.222803e+001
1.678638e+003,3.126831e+001
1.679602e+003,3.387085e+001
1.680566e+003,3.576721e+001
1.681531e+003,3.333643e+001
1.682495e+003,2.943738e+001
1.683459e+003,2.897900e+001
1.684423e+003,3.085205e+001
1.685387e+003,2.916333e+001
1.686352e+003,2.278748e+001
1.687316e+003,1.991895e+001
1.688280e+003,2.550256e+001
1.689244e+003,3.070996e+001
1.690208e+003,2.729443e+001
1.691173e+003,2.089294e+001
1.692137e+003,1.699426e+001
1.693101e+003,1.607397e+001
1.694065e+003,1.805945e+001
1.695030e+003,2.260681e+001
1.695994e+003,2.577820e+001
1.696958e+003,2.475452e+001
1.697922e+003,2.220581e+001
1.698887e+003,2.214197e+001
1.699851e+003,2.332520e+001
1.700815e+003,2.073206e+001
1.701779e+003,1.380969e+001
1.702744e+003,7.715210e+000
1.703708e+003,3.984497e+000
1.704672e+003,4.475708e+000
1.705636e+003,1.254968e+001
1.706601e+003,2.201440e+001
1.707565e+003,2.451880e+001
1.708529e+003,2.194006e+001
1.709493e+003,1.792053e+001
1.710458e+003,1.239917e+001
1.711422e+003,9.090942e+000
1.712386e+003,1.158777e+001
1.713350e+003,1.520874e+001
1.714314e+003,1.541992e+001
1.715279e+003,1.376282e+001
1.716243e+003,1.323914e+001
1.717207e+003,1.397607e+001
1.718171e+003,1.529419e+001
1.719135e+003,1.712134e+001
1.720100e+003,1.745569e+001
1.721064e+003,1.422510e+001
1.722028e+003,1.015259e+001
1.722992e+003,1.012561e+001
1.723957e+003,1.367188e+001
1.724921e+003,1.456714e+001
1.725885e+003,1.145728e+001
1.726849e+003,8.545288e+000
1.727814e+003,8.121460e+000
1.728778e+003,7.816284e+000
1.729742e+003,5.552612e+000
1.730706e+003,3.504395e+000
1.731671e+003,3.788940e+000
1.732635e+003,4.939209e+000
1.733599e+003,4.655029e+000
1.734563e+003,3.276245e+000
1.735528e+003,2.856689e+000
1.736492e+003,4.232910e+000
1.737456e+003,6.463989e+000
1.738420e+003,8.685425e+000
1.739385e+003,9.948608e+000
1.740349e+003,8.124146e+000
1.741313e+003,2.543457e+000
1.742277e+003,-6.003418e-001
1.743241e+003,1.597900e-001
1.744206e+003,1.745972e+000
1.745170e+003,4.887817e+000
1.746134e+003,6.913086e+000
1.747098e+003,5.291870e+000
1.748063e+003,2.472046e+000
1.749027e+003,1.519043e+000
1.749991e+003,2.159546e+000
1.750955e+003,2.382813e+000
1.751919e+003,1.352173e+000
1.752884e+003,-5.860596e-001
1.753848e+003,-3.177979e+000
1.754812e+003,-5.719482e+000
1.755776e+003,-6.313599e+000
1.756741e+003,-4.554688e+000
1.757705e+003,-2.617798e+000
1.758669e+003,-8.023682e-001
1.759633e+003,7.542725e-001
1.760598e+003,1.723389e+000
1.761562e+003,2.009399e+000
1.762526e+003,2.144653e+000
1.763490e+003,2.061523e+000
1.764455e+003,1.033813e+000
1.765419e+003,2.456055e-001
1.766383e+003,1.793335e+000
1.767347e+003,5.019531e+000
1.768312e+003,6.700073e+000
1.769276e+003,5.144653e+000
1.770240e+003,2.422607e+000
1.771204e+003,1.041138e+000
1.772168e+003,1.281738e+000
1.773133e+003,3.912476e+000
1.774097e+003,8.266479e+000
1.775061e+003,6.339600e+000
1.776025e+003,-4.590332e+000
1.776990e+003,-1.103284e+001
1.777954e+003,-6.220459e+000
1.778918e+003,7.872314e-001
1.779882e+003,3.921753e+000
1.780846e+003,4.204712e+000
1.781811e+003,2.735596e+000
1.782775e+003,4.189453e-001
1.783739e+003,-2.563477e-003
1.784703e+003,2.206909e+000
1.785668e+003,4.299072e+000
1.786632e+003,3.922241e+000
1.787596e+003,3.391602e+000
1.788560e+003,5.661743e+000
1.789525e+003,9.334595e+000
1.790489e+003,1.239453e+001
1.791453e+003,1.404993e+001
1.792417e+003,1.276709e+001
1.793382e+003,8.646484e+000
1.794346e+003,5.199463e+000
1.795310e+003,4.250732e+000
1.796274e+003,3.572754e+000
1.797239e+003,4.462891e-001
1.798203e+003,-2.579712e+000
1.799167e+003,1.486938e+000
1.800131e+003,1.386047e+001
1.801095e+003,1.729248e+001
1.802060e+003,4.936035e+000
1.803024e+003,-2.393677e+000
1.803988e+003,-5.812988e-001
1.804952e+003,3.219482e+000
1.805917e+003,6.480591e+000
1.806881e+003,9.344238e+000
1.807845e+003,1.333289e+001
1.808809e+003,1.720813e+001
1.809773e+003,1.781946e+001
1.810738e+003,1.499023e+001
1.811702e+003,1.190417e+001
1.812666e+003,1.050696e+001
1.813630e+003,9.608032e+000
1.814595e+003,7.297119e+000
1.815559e+003,4.409668e+000
1.816523e+003,5.884155e+000
1.817487e+003,1.252942e+001
1.818452e+003,1.553271e+001
1.819416e+003,1.357349e+001
1.820380e+003,1.218884e+001
1.821344e+003,1.312927e+001
1.822309e+003,1.350391e+001
1.823273e+003,1.146704e+001
1.824237e+003,8.960938e+000
1.825201e+003,6.915161e+000
1.826166e+003,5.714111e+000
1.827130e+003,6.874268e+000
1.828094e+003,1.036292e+001
1.829058e+003,1.311194e+001
1.830022e+003,1.395972e+001
1.830987e+003,1.394373e+001
1.831951e+003,1.426270e+001
1.832915e+003,1.401501e+001
1.833879e+003,1.097998e+001
1.834844e+003,6.291870e+000
1.835808e+003,3.248047e+000
1.836772e+003,2.500732e+000
1.837736e+003,3.829224e+000
1.838700e+003,6.987793e+000
1.839665e+003,9.440918e+000
1.840629e+003,8.836304e+000
1.841593e+003,7.110229e+000
1.842557e+003,8.095947e+000
1.843522e+003,1.171777e+001
1.844486e+003,1.439490e+001
1.845450e+003,1.705701e+001
1.846414e+003,1.822876e+001
1.847379e+003,1.632556e+001
1.848343e+003,1.331519e+001
1.849307e+003,8.555420e+000
1.850271e+003,4.761841e+000
1.851236e+003,4.637207e+000
1.852200e+003,6.660889e+000
1.853164e+003,8.621704e+000
1.854128e+003,9.392578e+000
1.855093e+003,8.263672e+000
1.856057e+003,5.684570e+000
1.857021e+003,3.800049e+000
1.857985e+003,4.164307e+000
1.858949e+003,5.538818e+000
1.859914e+003,5.662354e+000
1.860878e+003,5.160767e+000
1.861842e+003,7.007813e+000
1.862806e+003,1.108435e+001
1.863771e+003,1.508948e+001
1.864735e+003,1.863354e+001
1.865699e+003,2.107361e+001
1.866663e+003,2.218445e+001
1.867627e+003,2.303723e+001
1.868592e+003,2.460840e+001
1.869556e+003,2.548486e+001
1.870520e+003,2.339917e+001
1.871484e+003,1.884546e+001
1.872449e+003,1.558850e+001
1.873413e+003,1.571472e+001
1.874377e+003,1.655481e+001
1.875341e+003,1.505518e+001
1.876306e+003,1.438159e+001
1.877270e+003,1.690735e+001
1.878234e+003,2.010315e+001
1.879198e+003,2.208679e+001
1.880163e+003,2.286829e+001
1.881127e+003,2.186743e+001
1.882091e+003,2.016235e+001
1.883055e+003,2.192932e+001
1.884020e+003,2.826624e+001
1.884984e+003,3.310559e+001
1.885948e+003,3.089404e+001
1.886912e+003,2.472388e+001
1.887876e+003,2.053186e+001
1.888841e+003,1.835486e+001
1.889805e+003,1.852026e+001
1.890769e+003,2.173730e+001
1.891733e+003,2.332935e+001
1.892698e+003,2.160889e+001
1.893662e+003,2.024475e+001
1.894626e+003,2.058057e+001
1.895590e+003,2.188892e+001
1.896554e+003,2.464709e+001
1.897519e+003,2.793396e+001
1.898483e+003,3.046191e+001
1.899447e+003,3.168433e+001
1.900411e+003,3.135486e+001
1.901376e+003,2.953650e+001
1.902340e+003,2.780652e+001
1.903304e+003,2.686267e+001
1.904268e+003,2.575549e+001
1.905233e+003,2.315430e+001
1.906197e+003,2.122595e+001
1.907161e+003,2.312146e+001
1.908125e+003,2.709119e+001
1.909090e+003,2.971423e+001
1.910054e+003,3.028699e+001
1.911018e+003,2.939014e+001
1.911982e+003,2.768103e+001
1.912947e+003,2.597485e+001
1.913911e+003,2.470142e+001
1.914875e+003,2.479395e+001
1.915839e+003,2.776111e+001
1.916803e+003,3.247302e+001
1.917768e+003,3.534436e+001
1.918732e+003,3.663477e+001
1.919696e+003,3.678369e+001
1.920660e+003,3.556982e+001
1.921625e+003,3.483728e+001
1.922589e+003,3.483948e+001
1.923553e+003,3.485095e+001
1.924517e+003,3.409082e+001
1.925481e+003,3.369690e+001
1.926446e+003,3.520117e+001
1.927410e+003,3.764929e+001
1.928374e+003,3.870764e+001
1.929338e+003,3.808594e+001
1.930303e+003,3.850952e+001
1.931267e+003,4.231311e+001
1.932231e+003,4.457666e+001
1.933195e+003,4.030652e+001
1.934160e+003,3.582874e+001
1.935124e+003,3.649780e+001
1.936088e+003,3.865125e+001
1.937052e+003,3.826013e+001
1.938017e+003,3.624426e+001
1.938981e+003,3.505774e+001
1.939945e+003,3.480933e+001
1.940909e+003,3.324670e+001
1.941874e+003,2.953247e+001
1.942838e+003,2.727551e+001
1.943802e+003,3.045874e+001
1.944766e+003,3.625720e+001
1.945730e+003,3.767053e+001
1.946695e+003,3.504126e+001
1.947659e+003,3.450598e+001
1.948623e+003,3.622278e+001
1.949587e+003,3.625012e+001
1.950552e+003,3.356885e+001
1.951516e+003,3.327710e+001
1.952480e+003,3.895447e+001
1.953444e+003,4.316504e+001
1.954408e+003,3.885620e+001
1.955373e+003,3.142004e+001
1.956337e+003,2.829382e+001
1.957301e+003,2.949524e+001
1.958265e+003,3.432703e+001
1.959230e+003,4.375708e+001
1.960194e+003,4.884021e+001
1.961158e+003,4.367175e+001
1.962122e+003,3.942407e+001
1.963087e+003,3.996533e+001
1.964051e+003,4.119543e+001
1.965015e+003,4.078333e+001
1.965979e+003,4.090063e+001
1.966944e+003,4.479529e+001
1.967908e+003,4.952881e+001
1.968872e+003,4.942615e+001
1.969836e+003,4.483179e+001
1.970801e+003,4.081104e+001
1.971765e+003,3.964966e+001
1.972729e+003,4.034290e+001
1.973693e+003,4.230298e+001
1.974657e+003,4.464587e+001
1.975622e+003,4.573535e+001
1.976586e+003,4.591125e+001
1.977550e+003,4.671631e+001
1.978514e+003,4.826624e+001
1.979479e+003,5.038965e+001
1.980443e+003,5.278052e+001
1.981407e+003,5.270837e+001
1.982371e+003,4.921240e+001
1.983335e+003,4.618823e+001
1.984300e+003,4.629407e+001
1.985264e+003,4.793250e+001
1.986228e+003,4.928125e+001
1.987192e+003,5.004785e+001
1.988157e+003,4.853015e+001
1.989121e+003,4.389026e+001
1.990085e+003,4.258228e+001
1.991049e+003,4.738269e+001
1.992014e+003,5.053113e+001
1.992978e+003,5.016223e+001
1.993942e+003,4.869202e+001
1.994906e+003,4.492505e+001
1.995871e+003,4.245728e+001
1.996835e+003,4.546118e+001
1.997799e+003,5.087488e+001
1.998763e+003,5.378479e+001
1.999728e+003,5.418591e+001
