5.003444e+002,2.020909e+002
5.013087e+002,1.995518e+002
5.022729e+002,2.006072e+002
5.032371e+002,2.039297e+002
5.042014e+002,2.025248e+002
5.051656e+002,1.972211e+002
5.061298e+002,1.908253e+002
5.070941e+002,1.855497e+002
5.080583e+002,1.810472e+002
5.090225e+002,1.780698e+002
5.099868e+002,1.772958e+002
5.109510e+002,1.767448e+002
5.119152e+002,1.752823e+002
5.128795e+002,1.728176e+002
5.138437e+002,1.711188e+002
5.148079e+002,1.723172e+002
5.157722e+002,1.733213e+002
5.167364e+002,1.727348e+002
5.177006e+002,1.701609e+002
5.186649e+002,1.660419e+002
5.196291e+002,1.603033e+002
5.205933e+002,1.549868e+002
5.215576e+002,1.517864e+002
5.225218e+002,1.502629e+002
5.234860e+002,1.490667e+002
5.244503e+002,1.463644e+002
5.254145e+002,1.423377e+002
5.263787e+002,1.393971e+002
5.273430e+002,1.378297e+002
5.283072e+002,1.371335e+002
5.292714e+002,1.366310e+002
5.302357e+002,1.361357e+002
5.311999e+002,1.340564e+002
5.321641e+002,1.301846e+002
5.331284e+002,1.263832e+002
5.340926e+002,1.236390e+002
5.350568e+002,1.219969e+002
5.360211e+002,1.209371e+002
5.369853e+002,1.217300e+002
5.379495e+002,1.230178e+002
5.389138e+002,1.235219e+002
5.398780e+002,1.225960e+002
5.408422e+002,1.203642e+002
5.418065e+002,1.167922e+002
5.427707e+002,1.121634e+002
5.437349e+002,1.087303e+002
5.446992e+002,1.072399e+002
5.456634e+002,1.070826e+002
5.466276e+002,1.063265e+002
5.475919e+002,1.052248e+002
5.485561e+002,1.034574e+002
5.495203e+002,1.001040e+002
5.504846e+002,9.591644e+001
5.514488e+002,9.203918e+001
5.524130e+002,8.888129e+001
5.533773e+002,8.716028e+001
5.543415e+002,8.787091e+001
5.553057e+002,8.945679e+001
5.562700e+002,9.025488e+001
5.572342e+002,8.916919e+001
5.581984e+002,8.678912e+001
5.591627e+002,8.477924e+001
5.601269e+002,8.336115e+001
5.610911e+002,8.241730e+001
5.620554e+002,8.176007e+001
5.630196e+002,8.109021e+001
5.639838e+002,7.967084e+001
5.649481e+002,7.775116e+001
5.659123e+002,7.483649e+001
5.668765e+002,7.065851e+001
5.678408e+002,6.615558e+001
5.688050e+002,6.303998e+001
5.697692e+002,6.094391e+001
5.707335e+002,5.989392e+001
5.716977e+002,6.135516e+001
5.726619e+002,6.373633e+001
5.736262e+002,6.485168e+001
5.745904e+002,6.309503e+001
5.755546e+002,6.058002e+001
5.765189e+002,6.064941e+001
5.774831e+002,6.165173e+001
5.784473e+002,6.114850e+001
5.794116e+002,5.774176e+001
5.803758e+002,5.218372e+001
5.813400e+002,4.956769e+001
5.823043e+002,5.000049e+001
5.832685e+002,4.980200e+001
5.842327e+002,4.751459e+001
5.851970e+002,4.401483e+001
5.861612e+002,4.269592e+001
5.871254e+002,4.471039e+001
5.880897e+002,4.767407e+001
5.890539e+002,5.301898e+001
5.900181e+002,5.834717e+001
5.909824e+002,5.975287e+001
5.919466e+002,5.374274e+001
5.929108e+002,4.581537e+001
5.938751e+002,4.152679e+001
5.948393e+002,3.977594e+001
5.958035e+002,3.913751e+001
5.967678e+002,3.861450e+001
5.977320e+002,3.847711e+001
5.986962e+002,3.938879e+001
5.996605e+002,4.075623e+001
6.006247e+002,4.169177e+001
6.015889e+002,4.182922e+001
6.025532e+002,4.126685e+001
6.035174e+002,4.053473e+001
6.044816e+002,3.956378e+001
6.054459e+002,3.867499e+001
6.064101e+002,3.780774e+001
6.073743e+002,3.701141e+001
6.083386e+002,3.649261e+001
6.093028e+002,3.668896e+001
6.102670e+002,3.685077e+001
6.112313e+002,3.602362e+001
6.121955e+002,3.477106e+001
6.131597e+002,3.362848e+001
6.141240e+002,3.297693e+001
6.150882e+002,3.294305e+001
6.160524e+002,3.521747e+001
6.170167e+002,3.962128e+001
6.179809e+002,4.341516e+001
6.189451e+002,4.530682e+001
6.199094e+002,4.504901e+001
6.208736e+002,4.276337e+001
6.218378e+002,3.489825e+001
6.228021e+002,3.032605e+001
6.237663e+002,3.239331e+001
6.247305e+002,3.774713e+001
6.256948e+002,4.046375e+001
6.266590e+002,3.662604e+001
6.276232e+002,3.236182e+001
6.285875e+002,3.258228e+001
6.295517e+002,3.471307e+001
6.305159e+002,3.589923e+001
6.314802e+002,3.443701e+001
6.324444e+002,3.115839e+001
6.334086e+002,2.902283e+001
6.343729e+002,2.798737e+001
6.353371e+002,2.653925e+001
6.363013e+002,2.381714e+001
6.372656e+002,2.031616e+001
6.382298e+002,1.830701e+001
6.391940e+002,2.010962e+001
6.401583e+002,1.992767e+001
6.411225e+002,1.708331e+001
6.420867e+002,1.364923e+001
6.430510e+002,1.166101e+001
6.440152e+002,1.140558e+001
6.449794e+002,1.151349e+001
6.459437e+002,1.135846e+001
6.469079e+002,1.115631e+001
6.478721e+002,1.157983e+001
6.488364e+002,1.277533e+001
6.498006e+002,1.388660e+001
6.507648e+002,1.272162e+001
6.517291e+002,9.888123e+000
6.526933e+002,6.981323e+000
6.536575e+002,4.194275e+000
6.546218e+002,2.024902e+000
6.555860e+002,1.620300e+000
6.565502e+002,4.970825e+000
6.575145e+002,5.345947e+000
6.584787e+002,-1.645508e-001
6.594429e+002,-5.860962e+000
6.604072e+002,-6.412292e+000
6.613714e+002,-4.637451e-001
6.623356e+002,4.166870e+000
6.632999e+002,2.402161e+000
6.642641e+002,-1.085938e+000
6.652283e+002,-4.498108e+000
6.661926e+002,-6.846985e+000
6.671568e+002,-7.583618e+000
6.681210e+002,-5.870117e+000
6.690853e+002,-2.727295e+000
6.700495e+002,-6.188354e-001
6.710137e+002,5.080566e-001
6.719780e+002,1.865234e+000
6.729422e+002,4.912354e+000
6.739064e+002,1.023218e+001
6.748707e+002,1.218451e+001
6.758349e+002,9.026306e+000
6.767991e+002,5.389709e+000
6.777634e+002,3.507141e+000
6.787276e+002,3.568787e+000
6.796918e+002,4.080627e+000
6.806561e+002,3.627502e+000
6.816203e+002,3.619690e+000
6.825845e+002,5.080139e+000
6.835488e+002,7.301758e+000
6.845130e+002,9.285950e+000
6.854772e+002,1.043878e+001
6.864415e+002,1.104358e+001
6.874057e+002,1.094000e+001
6.883699e+002,9.787292e+000
6.893342e+002,7.713867e+000
6.902984e+002,4.832886e+000
6.912626e+002,1.574768e+000
6.922269e+002,-1.976318e-001
6.931911e+002,2.038757e+000
6.941553e+002,3.789856e+000
6.951196e+002,3.510376e+000
6.960838e+002,2.074829e+000
6.970480e+002,1.234070e+000
6.980123e+002,1.653809e+000
6.989765e+002,2.689636e+000
6.999407e+002,4.727478e+000
7.009050e+002,6.486816e+000
7.018692e+002,6.301575e+000
7.028334e+002,3.888000e+000
7.037977e+002,1.274170e+000
7.047619e+002,2.644775e+000
7.057261e+002,6.565552e+000
7.066904e+002,9.667419e+000
7.076546e+002,1.136322e+001
7.086188e+002,1.138385e+001
7.095831e+002,8.963867e+000
7.105473e+002,1.997009e+000
7.115115e+002,-1.254456e+000
7.124758e+002,1.126099e+000
7.134400e+002,4.143738e+000
7.144042e+002,4.949097e+000
7.153685e+002,3.633118e+000
7.163327e+002,2.766907e+000
7.172969e+002,5.035706e+000
7.182612e+002,6.623169e+000
7.192254e+002,4.642029e+000
7.201896e+002,5.031128e-001
7.211539e+002,-2.549988e+000
7.221181e+002,-1.636597e+000
7.230823e+002,1.765564e+000
7.240466e+002,3.627075e+000
7.250108e+002,4.624573e+000
7.259750e+002,5.563293e+000
7.269393e+002,6.459778e+000
7.279035e+002,6.790527e+000
7.288677e+002,6.546570e+000
7.298320e+002,7.560730e+000
7.307962e+002,7.650513e+000
7.317604e+002,5.298035e+000
7.327247e+002,2.602661e+000
7.336889e+002,2.579895e+000
7.346531e+002,6.286743e+000
7.356174e+002,8.348816e+000
7.365816e+002,5.796692e+000
7.375458e+002,2.486816e+000
7.385101e+002,1.408752e+000
7.394743e+002,3.170288e+000
7.404385e+002,5.898560e+000
7.414028e+002,6.562927e+000
7.423670e+002,4.577698e+000
7.433312e+002,2.603821e+000
7.442955e+002,1.565796e+000
7.452597e+002,1.222534e+000
7.462239e+002,5.792236e-001
7.471882e+002,-1.298340e+000
7.481524e+002,-1.419678e-001
7.491166e+002,5.433411e+000
7.500809e+002,1.041956e+001
7.510451e+002,1.391937e+001
7.520093e+002,1.543982e+001
7.529736e+002,1.365021e+001
7.539378e+002,5.762695e+000
7.549020e+002,-8.939209e-001
7.558663e+002,-1.323975e+000
7.568306e+002,1.856995e+000
7.577948e+002,5.036255e+000
7.587590e+002,5.849487e+000
7.597233e+002,4.865479e+000
7.606875e+002,4.717163e+000
7.616517e+002,5.655640e+000
7.626160e+002,6.914734e+000
7.635802e+002,8.660339e+000
7.645444e+002,1.049762e+001
7.655087e+002,1.122076e+001
7.664729e+002,9.363281e+000
7.674371e+002,9.395142e+000
7.684014e+002,1.276276e+001
7.693656e+002,1.653955e+001
7.703298e+002,1.930005e+001
7.712941e+002,2.079065e+001
7.722583e+002,2.111938e+001
7.732225e+002,1.931787e+001
7.741868e+002,1.722919e+001
7.751510e+002,1.591937e+001
7.761152e+002,1.562830e+001
7.770795e+002,1.667334e+001
7.780437e+002,1.929858e+001
7.790079e+002,2.299432e+001
7.799722e+002,2.434436e+001
7.809364e+002,2.333704e+001
7.819006e+002,2.191626e+001
7.828649e+002,2.141046e+001
7.838291e+002,2.158832e+001
7.847933e+002,2.062860e+001
7.857576e+002,1.635126e+001
7.867218e+002,1.307611e+001
7.876860e+002,1.184845e+001
7.886503e+002,1.245886e+001
7.896145e+002,1.534204e+001
7.905787e+002,2.033881e+001
7.915430e+002,2.543652e+001
7.925072e+002,2.839172e+001
7.934714e+002,2.922882e+001
7.944357e+002,2.803290e+001
7.953999e+002,2.545551e+001
7.963641e+002,2.256177e+001
7.973284e+002,2.026135e+001
7.982926e+002,1.851990e+001
7.992568e+002,1.892279e+001
8.002211e+002,2.164178e+001
8.011853e+002,2.330847e+001
8.021495e+002,2.369086e+001
8.031138e+002,2.349762e+001
8.040780e+002,2.280585e+001
8.050422e+002,1.990649e+001
8.060065e+002,1.785577e+001
8.069707e+002,1.676477e+001
8.079349e+002,1.672772e+001
8.088992e+002,1.883105e+001
8.098634e+002,2.329553e+001
8.108276e+002,2.798065e+001
8.117919e+002,2.927216e+001
8.127561e+002,2.729932e+001
8.137203e+002,2.347992e+001
8.146846e+002,1.859399e+001
8.156488e+002,1.435938e+001
8.166130e+002,1.261804e+001
8.175773e+002,1.368774e+001
8.185415e+002,1.447571e+001
8.195057e+002,1.346716e+001
8.204700e+002,1.310400e+001
8.214342e+002,1.467419e+001
8.223984e+002,1.754260e+001
8.233627e+002,2.004358e+001
8.243269e+002,2.187396e+001
8.252911e+002,2.311292e+001
8.262554e+002,2.358289e+001
8.272196e+002,2.369958e+001
8.281838e+002,2.385748e+001
8.291481e+002,2.416565e+001
8.301123e+002,2.437567e+001
8.310765e+002,2.400775e+001
8.320408e+002,2.298328e+001
8.330050e+002,2.227264e+001
8.339692e+002,2.217834e+001
8.349335e+002,2.205280e+001
8.358977e+002,2.085126e+001
8.368619e+002,1.834082e+001
8.378262e+002,1.871490e+001
8.387904e+002,2.542804e+001
8.397546e+002,3.033142e+001
8.407189e+002,3.028796e+001
8.416831e+002,2.744159e+001
8.426473e+002,2.568524e+001
8.436116e+002,2.687079e+001
8.445758e+002,2.931519e+001
8.455400e+002,3.095038e+001
8.465043e+002,3.177032e+001
8.474685e+002,3.248547e+001
8.484327e+002,3.362561e+001
8.493970e+002,3.506317e+001
8.503612e+002,3.592133e+001
8.513254e+002,3.581110e+001
8.522897e+002,3.617181e+001
8.532539e+002,3.668286e+001
8.542181e+002,3.732727e+001
8.551824e+002,3.859180e+001
8.561466e+002,4.094958e+001
8.571108e+002,4.429785e+001
8.580751e+002,4.848486e+001
8.590393e+002,5.120203e+001
8.600035e+002,5.125861e+001
8.609678e+002,5.066846e+001
8.619320e+002,5.136896e+001
8.628962e+002,5.411450e+001
8.638605e+002,5.838190e+001
8.648247e+002,6.469360e+001
8.657889e+002,7.145233e+001
8.667532e+002,7.516846e+001
8.677174e+002,7.537225e+001
8.686816e+002,7.394086e+001
8.696459e+002,7.286877e+001
8.706101e+002,7.226630e+001
8.715743e+002,7.348401e+001
8.725386e+002,7.814020e+001
8.735028e+002,8.248145e+001
8.744670e+002,8.523132e+001
8.754313e+002,8.638385e+001
8.763955e+002,8.629272e+001
8.773597e+002,8.490356e+001
8.783240e+002,8.390680e+001
8.792882e+002,8.385254e+001
8.802524e+002,8.463745e+001
8.812167e+002,8.743445e+001
8.821809e+002,9.166949e+001
8.831451e+002,9.435260e+001
8.841094e+002,9.124231e+001
8.850736e+002,8.335291e+001
8.860378e+002,8.402832e+001
8.870021e+002,9.484192e+001
8.879663e+002,1.059894e+002
8.889305e+002,1.124255e+002
8.898948e+002,1.145019e+002
8.908590e+002,1.144609e+002
8.918232e+002,1.105474e+002
8.927875e+002,1.085786e+002
8.937517e+002,1.106339e+002
8.947159e+002,1.142629e+002
8.956802e+002,1.169459e+002
8.966444e+002,1.179996e+002
8.976086e+002,1.191385e+002
8.985729e+002,1.231703e+002
8.995371e+002,1.284623e+002
9.005013e+002,1.317714e+002
9.014656e+002,1.333845e+002
9.024298e+002,1.339578e+002
9.033940e+002,1.334397e+002
9.043583e+002,1.318239e+002
9.053225e+002,1.323621e+002
9.062867e+002,1.382073e+002
9.072510e+002,1.413032e+002
9.082152e+002,1.397323e+002
9.091794e+002,1.376429e+002
9.101437e+002,1.397600e+002
9.111079e+002,1.468268e+002
9.120721e+002,1.526606e+002
9.130364e+002,1.518356e+002
9.140006e+002,1.491678e+002
9.149648e+002,1.474910e+002
9.159291e+002,1.469454e+002
9.168933e+002,1.464526e+002
9.178575e+002,1.450301e+002
9.188218e+002,1.429173e+002
9.197860e+002,1.421702e+002
9.207502e+002,1.426556e+002
9.217145e+002,1.412705e+002
9.226787e+002,1.368014e+002
9.236429e+002,1.320424e+002
9.246072e+002,1.310427e+002
9.255714e+002,1.346507e+002
9.265356e+002,1.353212e+002
9.274999e+002,1.288621e+002
9.284641e+002,1.220820e+002
9.294283e+002,1.170674e+002
9.303926e+002,1.138503e+002
9.313568e+002,1.118691e+002
9.323210e+002,1.108457e+002
9.332853e+002,1.102397e+002
9.342495e+002,1.099844e+002
9.352137e+002,1.092728e+002
9.361780e+002,1.063473e+002
9.371422e+002,1.012911e+002
9.381064e+002,9.703271e+001
9.390707e+002,9.730566e+001
9.400349e+002,1.025316e+002
9.409991e+002,1.057540e+002
9.419634e+002,1.069412e+002
9.429276e+002,1.062714e+002
9.438918e+002,1.028828e+002
9.448561e+002,9.814569e+001
9.458203e+002,9.391577e+001
9.467845e+002,9.056403e+001
9.477488e+002,8.921564e+001
9.487130e+002,9.272137e+001
9.496772e+002,9.689850e+001
9.506415e+002,9.832697e+001
9.516057e+002,9.694519e+001
9.525699e+002,9.451447e+001
9.535342e+002,9.264648e+001
9.544984e+002,9.124652e+001
9.554626e+002,9.167450e+001
9.564269e+002,9.524274e+001
9.573911e+002,9.778638e+001
9.583553e+002,9.750659e+001
9.593196e+002,9.554822e+001
9.602838e+002,9.357971e+001
9.612480e+002,9.130304e+001
9.622123e+002,8.983734e+001
9.631765e+002,9.119971e+001
9.641407e+002,9.209131e+001
9.651050e+002,9.043433e+001
9.660692e+002,8.676074e+001
9.670334e+002,8.254681e+001
9.679977e+002,7.893292e+001
9.689619e+002,7.674799e+001
9.699261e+002,7.666827e+001
9.708904e+002,7.830524e+001
9.718546e+002,8.308191e+001
9.728188e+002,9.159894e+001
9.737831e+002,1.013253e+002
9.747473e+002,1.088777e+002
9.757115e+002,1.136779e+002
9.766758e+002,1.204454e+002
9.776400e+002,1.356021e+002
9.786042e+002,1.457333e+002
9.795685e+002,1.461154e+002
9.805327e+002,1.394990e+002
9.814969e+002,1.292361e+002
9.824612e+002,1.167371e+002
9.834254e+002,1.042667e+002
9.843896e+002,9.243097e+001
9.853539e+002,8.191107e+001
9.863181e+002,7.392694e+001
9.872823e+002,6.810559e+001
9.882466e+002,6.340118e+001
9.892108e+002,5.938458e+001
9.901750e+002,5.694116e+001
9.911393e+002,5.794757e+001
9.921035e+002,6.406213e+001
9.930677e+002,6.835327e+001
9.940320e+002,6.995459e+001
9.949962e+002,7.107324e+001
9.959604e+002,7.365198e+001
9.969247e+002,7.790088e+001
9.978889e+002,8.263361e+001
9.988531e+002,8.697583e+001
9.998174e+002,9.057330e+001
1.000782e+003,9.480627e+001
1.001746e+003,9.849683e+001
1.002710e+003,9.918494e+001
1.003674e+003,9.604059e+001
1.004639e+003,9.121686e+001
1.005603e+003,8.853308e+001
1.006567e+003,8.805914e+001
1.007531e+003,8.759583e+001
1.008495e+003,8.733972e+001
1.009460e+003,8.688837e+001
1.010424e+003,8.630450e+001
1.011388e+003,8.556812e+001
1.012352e+003,8.406726e+001
1.013317e+003,8.109625e+001
1.014281e+003,7.798602e+001
1.015245e+003,7.525677e+001
1.016209e+003,7.207153e+001
1.017174e+003,6.745026e+001
1.018138e+003,6.186395e+001
1.019102e+003,5.723962e+001
1.020066e+003,5.553058e+001
1.021031e+003,5.526794e+001
1.021995e+003,5.050433e+001
1.022959e+003,4.181317e+001
1.023923e+003,3.423627e+001
1.024887e+003,2.959296e+001
1.025852e+003,2.627594e+001
1.026816e+003,2.166779e+001
1.027780e+003,1.550037e+001
1.028744e+003,1.110846e+001
1.029709e+003,8.367737e+000
1.030673e+003,7.623718e+000
1.031637e+003,1.079846e+001
1.032601e+003,1.504205e+001
1.033566e+003,1.635590e+001
1.034530e+003,1.355133e+001
1.035494e+003,9.991394e+000
1.036458e+003,8.877380e+000
1.037422e+003,9.397888e+000
1.038387e+003,1.048523e+001
1.039351e+003,1.190558e+001
1.040315e+003,1.349731e+001
1.041279e+003,1.542120e+001
1.042244e+003,1.760144e+001
1.043208e+003,1.865387e+001
1.044172e+003,1.718195e+001
1.045136e+003,1.596674e+001
1.046101e+003,1.565338e+001
1.047065e+003,1.547925e+001
1.048029e+003,1.461578e+001
1.048993e+003,1.321088e+001
1.049958e+003,1.247650e+001
1.050922e+003,1.355414e+001
1.051886e+003,1.475006e+001
1.052850e+003,1.303253e+001
1.053814e+003,1.076587e+001
1.054779e+003,1.170367e+001
1.055743e+003,1.622058e+001
1.056707e+003,2.111700e+001
1.057671e+003,2.255371e+001
1.058636e+003,2.041113e+001
1.059600e+003,1.839984e+001
1.060564e+003,1.639545e+001
1.061528e+003,1.582208e+001
1.062493e+003,1.723621e+001
1.063457e+003,1.907721e+001
1.064421e+003,2.008685e+001
1.065385e+003,2.028906e+001
1.066349e+003,1.997632e+001
1.067314e+003,1.902997e+001
1.068278e+003,1.793079e+001
1.069242e+003,1.722052e+001
1.070206e+003,1.677405e+001
1.071171e+003,1.560370e+001
1.072135e+003,1.340723e+001
1.073099e+003,1.192438e+001
1.074063e+003,1.471521e+001
1.075028e+003,2.263568e+001
1.075992e+003,2.567120e+001
1.076956e+003,2.129071e+001
1.077920e+003,1.654755e+001
1.078885e+003,1.454938e+001
1.079849e+003,1.429218e+001
1.080813e+003,1.315167e+001
1.081777e+003,1.031030e+001
1.082741e+003,9.634033e+000
1.083706e+003,1.657440e+001
1.084670e+003,2.225500e+001
1.085634e+003,2.035114e+001
1.086598e+003,1.353137e+001
1.087563e+003,7.556152e+000
1.088527e+003,5.894714e+000
1.089491e+003,7.312317e+000
1.090455e+003,8.858337e+000
1.091420e+003,1.018573e+001
1.092384e+003,1.179114e+001
1.093348e+003,1.383667e+001
1.094312e+003,1.521729e+001
1.095276e+003,1.615137e+001
1.096241e+003,1.645190e+001
1.097205e+003,1.396033e+001
1.098169e+003,6.124390e+000
1.099133e+003,1.189026e+000
1.100098e+003,4.532349e+000
1.101062e+003,9.741028e+000
1.102026e+003,1.408044e+001
1.102990e+003,1.681091e+001
1.103955e+003,1.725293e+001
1.104919e+003,1.498596e+001
1.105883e+003,1.162427e+001
1.106847e+003,1.105786e+001
1.107812e+003,1.328442e+001
1.108776e+003,1.424072e+001
1.109740e+003,1.307977e+001
1.110704e+003,1.206934e+001
1.111668e+003,1.363855e+001
1.112633e+003,1.733875e+001
1.113597e+003,1.969189e+001
1.114561e+003,1.886780e+001
1.115525e+003,1.940356e+001
1.116490e+003,2.532257e+001
1.117454e+003,3.032458e+001
1.118418e+003,2.927771e+001
1.119382e+003,2.429401e+001
1.120347e+003,2.108295e+001
1.121311e+003,2.277893e+001
1.122275e+003,2.632977e+001
1.123239e+003,2.632629e+001
1.124203e+003,2.380151e+001
1.125168e+003,2.487402e+001
1.126132e+003,3.161768e+001
1.127096e+003,3.809723e+001
1.128060e+003,3.855096e+001
1.129025e+003,3.436542e+001
1.129989e+003,3.304028e+001
1.130953e+003,3.595599e+001
1.131917e+003,3.933429e+001
1.132882e+003,4.323132e+001
1.133846e+003,4.655133e+001
1.134810e+003,4.796161e+001
1.135774e+003,4.836823e+001
1.136739e+003,4.970380e+001
1.137703e+003,5.302124e+001
1.138667e+003,5.758392e+001
1.139631e+003,6.214087e+001
1.140595e+003,6.684052e+001
1.141560e+003,7.315619e+001
1.142524e+003,8.135370e+001
1.143488e+003,9.177002e+001
1.144452e+003,1.047438e+002
1.145417e+003,1.199641e+002
1.146381e+003,1.361456e+002
1.147345e+003,1.525660e+002
1.148309e+003,1.715778e+002
1.149274e+003,1.959412e+002
1.150238e+003,2.210256e+002
1.151202e+003,2.467766e+002
1.152166e+003,2.713585e+002
1.153130e+003,2.920197e+002
1.154095e+003,3.070795e+002
1.155059e+003,3.167769e+002
1.156023e+003,3.224012e+002
1.156987e+003,3.234882e+002
1.157952e+003,3.181792e+002
1.158916e+003,3.069013e+002
1.159880e+003,2.922924e+002
1.160844e+003,2.734733e+002
1.161809e+003,2.513489e+002
1.162773e+003,2.293059e+002
1.163737e+003,2.074470e+002
1.164701e+003,1.854507e+002
1.165666e+003,1.609213e+002
1.166630e+003,1.394083e+002
1.167594e+003,1.228949e+002
1.168558e+003,1.106155e+002
1.169522e+003,1.018344e+002
1.170487e+003,9.603229e+001
1.171451e+003,9.270068e+001
1.172415e+003,9.132971e+001
1.173379e+003,9.159259e+001
1.174344e+003,9.305164e+001
1.175308e+003,9.618787e+001
1.176272e+003,9.685846e+001
1.177236e+003,9.275446e+001
1.178201e+003,8.658368e+001
1.179165e+003,8.114221e+001
1.180129e+003,7.609534e+001
1.181093e+003,7.168524e+001
1.182057e+003,6.846161e+001
1.183022e+003,6.567084e+001
1.183986e+003,6.336578e+001
1.184950e+003,6.112354e+001
1.185914e+003,5.787543e+001
1.186879e+003,5.427820e+001
1.187843e+003,5.289734e+001
1.188807e+003,5.576337e+001
1.189771e+003,6.101697e+001
1.190736e+003,6.366541e+001
1.191700e+003,6.346002e+001
1.192664e+003,6.218524e+001
1.193628e+003,5.918103e+001
1.194593e+003,5.671552e+001
1.195557e+003,5.781549e+001
1.196521e+003,6.070026e+001
1.197485e+003,5.863000e+001
1.198449e+003,4.900043e+001
1.199414e+003,3.978113e+001
1.200378e+003,3.472162e+001
1.201342e+003,3.118488e+001
1.202306e+003,2.752240e+001
1.203271e+003,2.387091e+001
1.204235e+003,2.146094e+001
1.205199e+003,2.080237e+001
1.206163e+003,2.049310e+001
1.207128e+003,1.801776e+001
1.208092e+003,1.328339e+001
1.209056e+003,8.932495e+000
1.210020e+003,5.134521e+000
1.210984e+003,1.377197e+000
1.211949e+003,-2.078796e+000
1.212913e+003,-6.016724e+000
1.213877e+003,-1.171338e+001
1.214841e+003,-1.905280e+001
1.215806e+003,-2.562323e+001
1.216770e+003,-3.085944e+001
1.217734e+003,-3.462817e+001
1.218698e+003,-3.652008e+001
1.219663e+003,-3.774573e+001
1.220627e+003,-3.973639e+001
1.221591e+003,-4.267706e+001
1.222555e+003,-4.589917e+001
1.223520e+003,-4.875220e+001
1.224484e+003,-5.092041e+001
1.225448e+003,-5.164911e+001
1.226412e+003,-5.013580e+001
1.227376e+003,-4.909607e+001
1.228341e+003,-4.840607e+001
1.229305e+003,-4.856519e+001
1.230269e+003,-5.056635e+001
1.231233e+003,-5.345551e+001
1.232198e+003,-5.512756e+001
1.233162e+003,-5.483270e+001
1.234126e+003,-5.392999e+001
1.235090e+003,-5.376813e+001
1.236055e+003,-5.358649e+001
1.237019e+003,-5.210864e+001
1.237983e+003,-5.001160e+001
1.238947e+003,-4.893347e+001
1.239911e+003,-4.935864e+001
1.240876e+003,-5.001300e+001
1.241840e+003,-4.901898e+001
1.242804e+003,-4.617249e+001
1.243768e+003,-4.500604e+001
1.244733e+003,-4.773553e+001
1.245697e+003,-4.920190e+001
1.246661e+003,-4.856470e+001
1.247625e+003,-4.766797e+001
1.248590e+003,-4.792401e+001
1.249554e+003,-4.869647e+001
1.250518e+003,-4.808362e+001
1.251482e+003,-4.530865e+001
1.252447e+003,-4.253473e+001
1.253411e+003,-4.236139e+001
1.254375e+003,-4.347357e+001
1.255339e+003,-4.355920e+001
1.256303e+003,-4.233722e+001
1.257268e+003,-4.005170e+001
1.258232e+003,-3.680396e+001
1.259196e+003,-3.352875e+001
1.260160e+003,-3.198920e+001
1.261125e+003,-3.249597e+001
1.262089e+003,-3.066620e+001
1.263053e+003,-2.323315e+001
1.264017e+003,-1.772638e+001
1.264982e+003,-1.655566e+001
1.265946e+003,-1.728528e+001
1.266910e+003,-1.781409e+001
1.267874e+003,-1.784375e+001
1.268839e+003,-1.807135e+001
1.269803e+003,-1.892645e+001
1.270767e+003,-2.028290e+001
1.271731e+003,-2.193011e+001
1.272695e+003,-2.369714e+001
1.273660e+003,-2.538049e+001
1.274624e+003,-2.745233e+001
1.275588e+003,-2.977130e+001
1.276552e+003,-3.218146e+001
1.277517e+003,-3.417322e+001
1.278481e+003,-3.497998e+001
1.279445e+003,-3.456238e+001
1.280409e+003,-3.469537e+001
1.281374e+003,-3.601587e+001
1.282338e+003,-3.784143e+001
1.283302e+003,-4.120581e+001
1.284266e+003,-4.409552e+001
1.285230e+003,-4.305548e+001
1.286195e+003,-3.874762e+001
1.287159e+003,-3.590417e+001
1.288123e+003,-3.828271e+001
1.289087e+003,-4.376532e+001
1.290052e+003,-4.656055e+001
1.291016e+003,-4.612482e+001
1.291980e+003,-4.576678e+001
1.292944e+003,-4.609796e+001
1.293909e+003,-4.636346e+001
1.294873e+003,-4.578223e+001
1.295837e+003,-4.467737e+001
1.296801e+003,-4.341962e+001
1.297766e+003,-4.215009e+001
1.298730e+003,-4.167261e+001
1.299694e+003,-4.298053e+001
1.300658e+003,-4.475336e+001
1.301622e+003,-4.585846e+001
1.302587e+003,-4.599689e+001
1.303551e+003,-4.396143e+001
1.304515e+003,-3.977271e+001
1.305479e+003,-3.659625e+001
1.306444e+003,-3.743274e+001
1.307408e+003,-4.108850e+001
1.308372e+003,-4.286444e+001
1.309336e+003,-4.189532e+001
1.310301e+003,-4.180194e+001
1.311265e+003,-4.392505e+001
1.312229e+003,-4.507587e+001
1.313193e+003,-4.380792e+001
1.314157e+003,-4.160419e+001
1.315122e+003,-3.983716e+001
1.316086e+003,-3.893817e+001
1.317050e+003,-3.889001e+001
1.318014e+003,-3.959143e+001
1.318979e+003,-4.034149e+001
1.319943e+003,-3.996844e+001
1.320907e+003,-3.850128e+001
1.321871e+003,-3.783423e+001
1.322836e+003,-3.885925e+001
1.323800e+003,-3.947150e+001
1.324764e+003,-3.759912e+001
1.325728e+003,-3.496588e+001
1.326693e+003,-3.532227e+001
1.327657e+003,-3.903186e+001
1.328621e+003,-4.092029e+001
1.329585e+003,-3.746814e+001
1.330549e+003,-3.360803e+001
1.331514e+003,-3.248468e+001
1.332478e+003,-3.322400e+001
1.333442e+003,-3.547552e+001
1.334406e+003,-3.831665e+001
1.335371e+003,-4.017462e+001
1.336335e+003,-4.011621e+001
1.337299e+003,-3.866852e+001
1.338263e+003,-3.690033e+001
1.339228e+003,-3.475946e+001
1.340192e+003,-3.260486e+001
1.341156e+003,-2.957043e+001
1.342120e+003,-2.779810e+001
1.343084e+003,-2.866437e+001
1.344049e+003,-3.058990e+001
1.345013e+003,-3.247552e+001
1.345977e+003,-3.376758e+001
1.346941e+003,-3.360181e+001
1.347906e+003,-3.160510e+001
1.348870e+003,-2.972906e+001
1.349834e+003,-3.001080e+001
1.350798e+003,-3.175665e+001
1.351763e+003,-3.346863e+001
1.352727e+003,-3.492444e+001
1.353691e+003,-3.538477e+001
1.354655e+003,-3.436200e+001
1.355620e+003,-3.287915e+001
1.356584e+003,-3.204895e+001
1.357548e+003,-3.169330e+001
1.358512e+003,-3.138605e+001
1.359476e+003,-3.188641e+001
1.360441e+003,-3.166003e+001
1.361405e+003,-2.813226e+001
1.362369e+003,-2.576300e+001
1.363333e+003,-2.745020e+001
1.364298e+003,-3.131421e+001
1.365262e+003,-3.517059e+001
1.366226e+003,-3.801123e+001
1.367190e+003,-3.918909e+001
1.368155e+003,-3.810126e+001
1.369119e+003,-3.535211e+001
1.370083e+003,-3.267786e+001
1.371047e+003,-2.963770e+001
1.372011e+003,-2.800861e+001
1.372976e+003,-2.991272e+001
1.373940e+003,-3.114832e+001
1.374904e+003,-2.950812e+001
1.375868e+003,-2.648126e+001
1.376833e+003,-2.387946e+001
1.377797e+003,-2.201062e+001
1.378761e+003,-2.052484e+001
1.379725e+003,-1.909827e+001
1.380690e+003,-1.825238e+001
1.381654e+003,-1.916699e+001
1.382618e+003,-2.053387e+001
1.383582e+003,-2.038470e+001
1.384547e+003,-1.883130e+001
1.385511e+003,-1.766919e+001
1.386475e+003,-1.806799e+001
1.387439e+003,-1.894519e+001
1.388403e+003,-1.819446e+001
1.389368e+003,-1.586359e+001
1.390332e+003,-1.526898e+001
1.391296e+003,-1.752997e+001
1.392260e+003,-1.893884e+001
1.393225e+003,-1.735541e+001
1.394189e+003,-1.633612e+001
1.395153e+003,-1.915961e+001
1.396117e+003,-2.331854e+001
1.397082e+003,-2.429828e+001
1.398046e+003,-2.128815e+001
1.399010e+003,-1.782666e+001
1.399974e+003,-1.736603e+001
1.400938e+003,-1.947699e+001
1.401903e+003,-2.181702e+001
1.402867e+003,-2.389130e+001
1.403831e+003,-2.347656e+001
1.404795e+003,-1.908606e+001
1.405760e+003,-1.523969e+001
1.406724e+003,-1.442938e+001
1.407688e+003,-1.551740e+001
1.408652e+003,-1.672168e+001
1.409617e+003,-1.745221e+001
1.410581e+003,-1.760571e+001
1.411545e+003,-1.696222e+001
1.412509e+003,-1.682257e+001
1.413474e+003,-1.973969e+001
1.414438e+003,-2.371448e+001
1.415402e+003,-2.471375e+001
1.416366e+003,-2.263806e+001
1.417330e+003,-1.882202e+001
1.418295e+003,-1.302435e+001
1.419259e+003,-8.468933e+000
1.420223e+003,-1.093646e+001
1.421187e+003,-1.894171e+001
1.422152e+003,-2.094061e+001
1.423116e+003,-1.399310e+001
1.424080e+003,-8.609985e+000
1.425044e+003,-9.911682e+000
1.426009e+003,-1.163940e+001
1.426973e+003,-1.112701e+001
1.427937e+003,-9.722107e+000
1.428901e+003,-9.510925e+000
1.429865e+003,-1.010681e+001
1.430830e+003,-8.737183e+000
1.431794e+003,-3.819397e+000
1.432758e+003,1.794739e+000
1.433722e+003,2.665283e+000
1.434687e+003,-1.280029e+000
1.435651e+003,-1.739868e+000
1.436615e+003,3.586853e+000
1.437579e+003,6.436157e+000
1.438544e+003,3.909790e+000
1.439508e+003,1.270020e+000
1.440472e+003,3.067749e+000
1.441436e+003,7.438660e+000
1.442401e+003,1.004950e+001
1.443365e+003,9.797974e+000
1.444329e+003,8.886902e+000
1.445293e+003,9.059387e+000
1.446257e+003,9.607605e+000
1.447222e+003,8.364868e+000
1.448186e+003,5.898071e+000
1.449150e+003,6.406372e+000
1.450114e+003,1.139136e+001
1.451079e+003,1.417059e+001
1.452043e+003,9.398376e+000
1.453007e+003,2.385986e+000
1.453971e+003,7.913818e-001
1.454936e+003,3.737061e+000
1.455900e+003,4.634827e+000
1.456864e+003,1.570313e+000
1.457828e+003,-9.446411e-001
1.458792e+003,4.061279e-001
1.459757e+003,2.249084e+000
1.460721e+003,1.657166e+000
1.461685e+003,-5.003052e-001
1.462649e+003,-2.640442e+000
1.463614e+003,-3.977112e+000
1.464578e+003,-3.152100e+000
1.465542e+003,1.397217e+000
1.466506e+003,7.761597e+000
1.467471e+003,1.047101e+001
1.468435e+003,9.079895e+000
1.469399e+003,8.503967e+000
1.470363e+003,8.802063e+000
1.471328e+003,9.316101e+000
1.472292e+003,9.853882e+000
1.473256e+003,9.882202e+000
1.474220e+003,9.593872e+000
1.475184e+003,9.156250e+000
1.476149e+003,8.190002e+000
1.477113e+003,6.541138e+000
1.478077e+003,4.888794e+000
1.479041e+003,4.165344e+000
1.480006e+003,4.676392e+000
1.480970e+003,6.777344e+000
1.481934e+003,1.058868e+001
1.482898e+003,1.385907e+001
1.483863e+003,1.735773e+001
1.484827e+003,1.913013e+001
1.485791e+003,1.691418e+001
1.486755e+003,1.487482e+001
1.487719e+003,1.714093e+001
1.488684e+003,2.240216e+001
1.489648e+003,2.693091e+001
1.490612e+003,2.968701e+001
1.491576e+003,3.168549e+001
1.492541e+003,3.328149e+001
1.493505e+003,3.499713e+001
1.494469e+003,3.810876e+001
1.495433e+003,4.210321e+001
1.496398e+003,4.667944e+001
1.497362e+003,5.247552e+001
1.498326e+003,5.871362e+001
1.499290e+003,6.498718e+001
1.500255e+003,7.133282e+001
1.501219e+003,7.726947e+001
1.502183e+003,8.297919e+001
1.503147e+003,8.991968e+001
1.504111e+003,9.827832e+001
1.505076e+003,1.085310e+002
1.506040e+003,1.212687e+002
1.507004e+003,1.360284e+002
1.507968e+003,1.519642e+002
1.508933e+003,1.694232e+002
1.509897e+003,1.896131e+002
1.510861e+003,2.131930e+002
1.511825e+003,2.381151e+002
1.512790e+003,2.623134e+002
1.513754e+003,2.868834e+002
1.514718e+003,3.156445e+002
1.515682e+003,3.481700e+002
1.516646e+003,3.763672e+002
1.517611e+003,3.992145e+002
1.518575e+003,4.198442e+002
1.519539e+003,4.410315e+002
1.520503e+003,4.591676e+002
1.521468e+003,4.728430e+002
1.522432e+003,4.815502e+002
1.523396e+003,4.852383e+002
1.524360e+003,4.835717e+002
1.525325e+003,4.753534e+002
1.526289e+003,4.599174e+002
1.527253e+003,4.397927e+002
1.528217e+003,4.191045e+002
1.529182e+003,3.981884e+002
1.530146e+003,3.760376e+002
1.531110e+003,3.540401e+002
1.532074e+003,3.271989e+002
1.533039e+003,2.902947e+002
1.534003e+003,2.531633e+002
1.534967e+003,2.207749e+002
1.535931e+003,1.915424e+002
1.536896e+003,1.623615e+002
1.537860e+003,1.339542e+002
1.538824e+003,1.091675e+002
1.539788e+003,8.940106e+001
1.540752e+003,7.488824e+001
1.541717e+003,6.646283e+001
1.542681e+003,6.345227e+001
1.543645e+003,6.013123e+001
1.544609e+003,5.661169e+001
1.545573e+003,5.355286e+001
1.546538e+003,4.932483e+001
1.547502e+003,4.657233e+001
1.548466e+003,4.722467e+001
1.549430e+003,4.996948e+001
1.550395e+003,5.421399e+001
1.551359e+003,5.871094e+001
1.552323e+003,6.130719e+001
1.553287e+003,6.129858e+001
1.554252e+003,5.940454e+001
1.555216e+003,5.614917e+001
1.556180e+003,5.149292e+001
1.557144e+003,4.465039e+001
1.558109e+003,3.572198e+001
1.559073e+003,3.036237e+001
1.560037e+003,3.001947e+001
1.561001e+003,2.922339e+001
1.561966e+003,2.544299e+001
1.562930e+003,2.215430e+001
1.563894e+003,2.261902e+001
1.564858e+003,2.563965e+001
1.565823e+003,2.862567e+001
1.566787e+003,3.092841e+001
1.567751e+003,3.217981e+001
1.568715e+003,3.201215e+001
1.569679e+003,3.168237e+001
1.570644e+003,3.302466e+001
1.571608e+003,3.492047e+001
1.572572e+003,3.434259e+001
1.573536e+003,3.136237e+001
1.574500e+003,3.034375e+001
1.575465e+003,3.366144e+001
1.576429e+003,3.753802e+001
1.577393e+003,3.870355e+001
1.578357e+003,3.814929e+001
1.579322e+003,3.775208e+001
1.580286e+003,3.785223e+001
1.581250e+003,3.930627e+001
1.582214e+003,4.284052e+001
1.583179e+003,4.593011e+001
1.584143e+003,4.585986e+001
1.585107e+003,4.471442e+001
1.586071e+003,4.636444e+001
1.587036e+003,5.007007e+001
1.588000e+003,5.181964e+001
1.588964e+003,5.033105e+001
1.589928e+003,4.930066e+001
1.590893e+003,5.217285e+001
1.591857e+003,5.603790e+001
1.592821e+003,5.563995e+001
1.593785e+003,5.208063e+001
1.594750e+003,5.173480e+001
1.595714e+003,5.568488e+001
1.596678e+003,5.970490e+001
1.597642e+003,6.263568e+001
1.598606e+003,6.442902e+001
1.599571e+003,6.493951e+001
1.600535e+003,6.470581e+001
1.601499e+003,6.368604e+001
1.602463e+003,6.223468e+001
1.603427e+003,6.220978e+001
1.604392e+003,6.448602e+001
1.605356e+003,6.761206e+001
1.606320e+003,7.104974e+001
1.607284e+003,7.394824e+001
1.608249e+003,7.292120e+001
1.609213e+003,6.777094e+001
1.610177e+003,6.549152e+001
1.611141e+003,6.873755e+001
1.612106e+003,7.117328e+001
1.613070e+003,6.843427e+001
1.614034e+003,6.486865e+001
1.614998e+003,6.318854e+001
1.615963e+003,6.306726e+001
1.616927e+003,6.353387e+001
1.617891e+003,6.443964e+001
1.618855e+003,6.688812e+001
1.619820e+003,7.178888e+001
1.620784e+003,7.603503e+001
1.621748e+003,7.464374e+001
1.622712e+003,6.938953e+001
1.623677e+003,6.870972e+001
1.624641e+003,7.364136e+001
1.625605e+003,7.766467e+001
1.626569e+003,7.842175e+001
1.627533e+003,7.778363e+001
1.628498e+003,7.684326e+001
1.629462e+003,7.570526e+001
1.630426e+003,7.381323e+001
1.631390e+003,7.175653e+001
1.632354e+003,7.092047e+001
1.633319e+003,7.153632e+001
1.634283e+003,7.264362e+001
1.635247e+003,7.356659e+001
1.636211e+003,7.422815e+001
1.637176e+003,7.443530e+001
1.638140e+003,7.443958e+001
1.639104e+003,7.610455e+001
1.640068e+003,8.042926e+001
1.641033e+003,8.190131e+001
1.641997e+003,7.636200e+001
1.642961e+003,7.209857e+001
1.643925e+003,7.462531e+001
1.644890e+003,7.904962e+001
1.645854e+003,8.079907e+001
1.646818e+003,8.006421e+001
1.647782e+003,7.842822e+001
1.648747e+003,7.649652e+001
1.649711e+003,7.516211e+001
1.650675e+003,7.555292e+001
1.651639e+003,7.685150e+001
1.652604e+003,7.652850e+001
1.653568e+003,7.449762e+001
1.654532e+003,7.450073e+001
1.655496e+003,7.785376e+001
1.656460e+003,7.914319e+001
1.657425e+003,7.505963e+001
1.658389e+003,7.127228e+001
1.659353e+003,7.181921e+001
1.660317e+003,7.340631e+001
1.661281e+003,7.185358e+001
1.662246e+003,6.805670e+001
1.663210e+003,6.611682e+001
1.664174e+003,6.742987e+001
1.665138e+003,6.910736e+001
1.666103e+003,6.872180e+001
1.667067e+003,6.661737e+001
1.668031e+003,6.312695e+001
1.668995e+003,5.854236e+001
1.669960e+003,5.583435e+001
1.670924e+003,5.575018e+001
1.671888e+003,5.567346e+001
1.672852e+003,5.386963e+001
1.673817e+003,5.287634e+001
1.674781e+003,5.591681e+001
1.675745e+003,5.931268e+001
1.676709e+003,5.860492e+001
1.677674e+003,5.459021e+001
1.678638e+003,5.027557e+001
1.679602e+003,4.665765e+001
1.680566e+003,4.478540e+001
1.681531e+003,4.646259e+001
1.682495e+003,4.950348e+001
1.683459e+003,4.958789e+001
1.684423e+003,4.701837e+001
1.685387e+003,4.501715e+001
1.686352e+003,4.403217e+001
1.687316e+003,4.314716e+001
1.688280e+003,4.178528e+001
1.689244e+003,4.095660e+001
1.690208e+003,4.197876e+001
1.691173e+003,4.336499e+001
1.692137e+003,4.390607e+001
1.693101e+003,4.376312e+001
1.694065e+003,4.260760e+001
1.695030e+003,3.999847e+001
1.695994e+003,3.762311e+001
1.696958e+003,3.686426e+001
1.697922e+003,3.683386e+001
1.698887e+003,3.654028e+001
1.699851e+003,3.612183e+001
1.700815e+003,3.582886e+001
1.701779e+003,3.550439e+001
1.702744e+003,3.410217e+001
1.703708e+003,3.111658e+001
1.704672e+003,2.937549e+001
1.705636e+003,3.139410e+001
1.706601e+003,3.436969e+001
1.707565e+003,3.462164e+001
1.708529e+003,3.305951e+001
1.709493e+003,3.166675e+001
1.710458e+003,3.063885e+001
1.711422e+003,2.952869e+001
1.712386e+003,2.801056e+001
1.713350e+003,2.704840e+001
1.714314e+003,2.785364e+001
1.715279e+003,2.884637e+001
1.716243e+003,2.717059e+001
1.717207e+003,2.334882e+001
1.718171e+003,2.057684e+001
1.719135e+003,1.981152e+001
1.720100e+003,1.997137e+001
1.721064e+003,2.040594e+001
1.722028e+003,2.078204e+001
1.722992e+003,2.101709e+001
1.723957e+003,2.134833e+001
1.724921e+003,2.111908e+001
1.725885e+003,1.967426e+001
1.726849e+003,1.823187e+001
1.727814e+003,1.751892e+001
1.728778e+003,1.733008e+001
1.729742e+003,1.750330e+001
1.730706e+003,1.798639e+001
1.731671e+003,1.868573e+001
1.732635e+003,1.905280e+001
1.733599e+003,1.882959e+001
1.734563e+003,1.823047e+001
1.735528e+003,1.707654e+001
1.736492e+003,1.512549e+001
1.737456e+003,1.319196e+001
1.738420e+003,1.221808e+001
1.739385e+003,1.190680e+001
1.740349e+003,1.226733e+001
1.741313e+003,1.402771e+001
1.742277e+003,1.396216e+001
1.743241e+003,1.069452e+001
1.744206e+003,8.423340e+000
1.745170e+003,6.961792e+000
1.746134e+003,7.090576e+000
1.747098e+003,1.074457e+001
1.748063e+003,1.503802e+001
1.749027e+003,1.662958e+001
1.749991e+003,1.593713e+001
1.750955e+003,1.500287e+001
1.751919e+003,1.461932e+001
1.752884e+003,1.474011e+001
1.753848e+003,1.535767e+001
1.754812e+003,1.561108e+001
1.755776e+003,1.371460e+001
1.756741e+003,1.007434e+001
1.757705e+003,8.898804e+000
1.758669e+003,1.060779e+001
1.759633e+003,1.284558e+001
1.760598e+003,1.705078e+001
1.761562e+003,1.878381e+001
1.762526e+003,1.502332e+001
1.763490e+003,1.078387e+001
1.764455e+003,9.767944e+000
1.765419e+003,1.063422e+001
1.766383e+003,1.099268e+001
1.767347e+003,1.024536e+001
1.768312e+003,8.433716e+000
1.769276e+003,5.436584e+000
1.770240e+003,3.378418e+000
1.771204e+003,5.690063e+000
1.772168e+003,1.025330e+001
1.773133e+003,1.101892e+001
1.774097e+003,8.461914e+000
1.775061e+003,7.684082e+000
1.776025e+003,9.097961e+000
1.776990e+003,1.046155e+001
1.777954e+003,1.173254e+001
1.778918e+003,1.229529e+001
1.779882e+003,1.046924e+001
1.780846e+003,8.072144e+000
1.781811e+003,8.346802e+000
1.782775e+003,1.047699e+001
1.783739e+003,1.128979e+001
1.784703e+003,1.030066e+001
1.785668e+003,9.815735e+000
1.786632e+003,1.036292e+001
1.787596e+003,1.147327e+001
1.788560e+003,1.420685e+001
1.789525e+003,1.714594e+001
1.790489e+003,1.724487e+001
1.791453e+003,1.527362e+001
1.792417e+003,1.473212e+001
1.793382e+003,1.622357e+001
1.794346e+003,1.734973e+001
1.795310e+003,1.681281e+001
1.796274e+003,1.501764e+001
1.797239e+003,1.236267e+001
1.798203e+003,9.766235e+000
1.799167e+003,9.040649e+000
1.800131e+003,9.854187e+000
1.801095e+003,1.023669e+001
1.802060e+003,1.057135e+001
1.803024e+003,1.114154e+001
1.803988e+003,1.080682e+001
1.804952e+003,1.169604e+001
1.805917e+003,1.709485e+001
1.806881e+003,2.225049e+001
1.807845e+003,2.161749e+001
1.808809e+003,1.741626e+001
1.809773e+003,1.484387e+001
1.810738e+003,1.504419e+001
1.811702e+003,1.552039e+001
1.812666e+003,1.469745e+001
1.813630e+003,1.412494e+001
1.814595e+003,1.622998e+001
1.815559e+003,1.980292e+001
1.816523e+003,1.967212e+001
1.817487e+003,1.538507e+001
1.818452e+003,1.364685e+001
1.819416e+003,1.619012e+001
1.820380e+003,1.799829e+001
1.821344e+003,1.669086e+001
1.822309e+003,1.515546e+001
1.823273e+003,1.589722e+001
1.824237e+003,1.707013e+001
1.825201e+003,1.556708e+001
1.826166e+003,1.283453e+001
1.827130e+003,1.390863e+001
1.828094e+003,1.936493e+001
1.829058e+003,2.246979e+001
1.830022e+003,1.908221e+001
1.830987e+003,1.501587e+001
1.831951e+003,1.539221e+001
1.832915e+003,1.779254e+001
1.833879e+003,1.883167e+001
1.834844e+003,1.875104e+001
1.835808e+003,1.878192e+001
1.836772e+003,1.918390e+001
1.837736e+003,1.986816e+001
1.838700e+003,2.067859e+001
1.839665e+003,2.084265e+001
1.840629e+003,1.970172e+001
1.841593e+003,1.782080e+001
1.842557e+003,1.586639e+001
1.843522e+003,1.385712e+001
1.844486e+003,1.452026e+001
1.845450e+003,2.104688e+001
1.846414e+003,2.484265e+001
1.847379e+003,2.338928e+001
1.848343e+003,2.162634e+001
1.849307e+003,2.107648e+001
1.850271e+003,2.097156e+001
1.851236e+003,2.101892e+001
1.852200e+003,2.122668e+001
1.853164e+003,2.150403e+001
1.854128e+003,2.143396e+001
1.855093e+003,2.062579e+001
1.856057e+003,1.923590e+001
1.857021e+003,1.754108e+001
1.857985e+003,1.536230e+001
1.858949e+003,1.391199e+001
1.859914e+003,1.627460e+001
1.860878e+003,2.156903e+001
1.861842e+003,2.399377e+001
1.862806e+003,2.332953e+001
1.863771e+003,2.335529e+001
1.864735e+003,2.473065e+001
1.865699e+003,2.599615e+001
1.866663e+003,2.687140e+001
1.867627e+003,2.732928e+001
1.868592e+003,2.676111e+001
1.869556e+003,2.552954e+001
1.870520e+003,2.508984e+001
1.871484e+003,2.519714e+001
1.872449e+003,2.407629e+001
1.873413e+003,2.151630e+001
1.874377e+003,2.140961e+001
1.875341e+003,2.641687e+001
1.876306e+003,3.059387e+001
1.877270e+003,2.988019e+001
1.878234e+003,2.744873e+001
1.879198e+003,2.636835e+001
1.880163e+003,2.634778e+001
1.881127e+003,2.621814e+001
1.882091e+003,2.598560e+001
1.883055e+003,2.669580e+001
1.884020e+003,2.861176e+001
1.884984e+003,3.022498e+001
1.885948e+003,3.016534e+001
1.886912e+003,2.922052e+001
1.887876e+003,2.897827e+001
1.888841e+003,2.942279e+001
1.889805e+003,3.012714e+001
1.890769e+003,3.137091e+001
1.891733e+003,3.113617e+001
1.892698e+003,2.783459e+001
1.893662e+003,2.587836e+001
1.894626e+003,2.740204e+001
1.895590e+003,3.010101e+001
1.896554e+003,3.341400e+001
1.897519e+003,3.660004e+001
1.898483e+003,3.839386e+001
1.899447e+003,3.877039e+001
1.900411e+003,3.865784e+001
1.901376e+003,3.830084e+001
1.902340e+003,3.773547e+001
1.903304e+003,3.687427e+001
1.904268e+003,3.583667e+001
1.905233e+003,3.445459e+001
1.906197e+003,3.339362e+001
1.907161e+003,3.345856e+001
1.908125e+003,3.441547e+001
1.909090e+003,3.581769e+001
1.910054e+003,3.718750e+001
1.911018e+003,3.773724e+001
1.911982e+003,3.747900e+001
1.912947e+003,3.771716e+001
1.913911e+003,3.932617e+001
1.914875e+003,4.090869e+001
1.915839e+003,4.006439e+001
1.916803e+003,3.715948e+001
1.917768e+003,3.512927e+001
1.918732e+003,3.410321e+001
1.919696e+003,3.467438e+001
1.920660e+003,3.780133e+001
1.921625e+003,4.032825e+001
1.922589e+003,4.120520e+001
1.923553e+003,4.153442e+001
1.924517e+003,4.116254e+001
1.925481e+003,4.122168e+001
1.926446e+003,4.415509e+001
1.927410e+003,4.772699e+001
1.928374e+003,4.643549e+001
1.929338e+003,4.030127e+001
1.930303e+003,3.675165e+001
1.931267e+003,3.893317e+001
1.932231e+003,4.112677e+001
1.933195e+003,3.919763e+001
1.934160e+003,3.757159e+001
1.935124e+003,4.095203e+001
1.936088e+003,4.508807e+001
1.937052e+003,4.418622e+001
1.938017e+003,4.042383e+001
1.938981e+003,3.915112e+001
1.939945e+003,4.094971e+001
1.940909e+003,4.314374e+001
1.941874e+003,4.431683e+001
1.942838e+003,4.441858e+001
1.943802e+003,4.357074e+001
1.944766e+003,4.298962e+001
1.945730e+003,4.497388e+001
1.946695e+003,4.872632e+001
1.947659e+003,4.891632e+001
1.948623e+003,4.502802e+001
1.949587e+003,4.274310e+001
1.950552e+003,4.334790e+001
1.951516e+003,4.327698e+001
1.952480e+003,4.068103e+001
1.953444e+003,3.855554e+001
1.954408e+003,3.921204e+001
1.955373e+003,4.088159e+001
1.956337e+003,4.122510e+001
1.957301e+003,4.110730e+001
1.958265e+003,4.283429e+001
1.959230e+003,4.684106e+001
1.960194e+003,4.968201e+001
1.961158e+003,4.968207e+001
1.962122e+003,4.928619e+001
1.963087e+003,4.882520e+001
1.964051e+003,4.863788e+001
1.965015e+003,4.886578e+001
1.965979e+003,5.007721e+001
1.966944e+003,5.396387e+001
1.967908e+003,5.812897e+001
1.968872e+003,5.762292e+001
1.969836e+003,5.319183e+001
1.970801e+003,5.105725e+001
1.971765e+003,5.375800e+001
1.972729e+003,5.718390e+001
1.973693e+003,5.786902e+001
1.974657e+003,5.726019e+001
1.975622e+003,5.720258e+001
1.976586e+003,5.745972e+001
1.977550e+003,5.779620e+001
1.978514e+003,5.828339e+001
1.979479e+003,5.864008e+001
1.980443e+003,5.879895e+001
1.981407e+003,5.964722e+001
1.982371e+003,6.169507e+001
1.983335e+003,6.344940e+001
1.984300e+003,6.355920e+001
1.985264e+003,6.279840e+001
1.986228e+003,6.262006e+001
1.987192e+003,6.273425e+001
1.988157e+003,6.154102e+001
1.989121e+003,5.853992e+001
1.990085e+003,5.755737e+001
1.991049e+003,6.001044e+001
1.992014e+003,6.197687e+001
1.992978e+003,6.238727e+001
1.993942e+003,6.273175e+001
1.994906e+003,6.373138e+001
1.995871e+003,6.465442e+001
1.996835e+003,6.517273e+001
1.997799e+003,6.535028e+001
1.998763e+003,6.453699e+001
1.999728e+003,6.314166e+001
