5.003444e+002,1.983867e+002
5.013087e+002,2.019552e+002
5.022729e+002,1.975398e+002
5.032371e+002,1.881716e+002
5.042014e+002,1.823699e+002
5.051656e+002,1.797915e+002
5.061298e+002,1.781484e+002
5.070941e+002,1.751245e+002
5.080583e+002,1.697134e+002
5.090225e+002,1.666809e+002
5.099868e+002,1.676885e+002
5.109510e+002,1.684899e+002
5.119152e+002,1.665157e+002
5.128795e+002,1.614979e+002
5.138437e+002,1.575802e+002
5.148079e+002,1.572457e+002
5.157722e+002,1.576409e+002
5.167364e+002,1.579268e+002
5.177006e+002,1.574667e+002
5.186649e+002,1.556904e+002
5.196291e+002,1.517177e+002
5.205933e+002,1.475078e+002
5.215576e+002,1.438716e+002
5.225218e+002,1.405775e+002
5.234860e+002,1.377959e+002
5.244503e+002,1.366490e+002
5.254145e+002,1.388723e+002
5.263787e+002,1.387659e+002
5.273430e+002,1.347578e+002
5.283072e+002,1.294973e+002
5.292714e+002,1.265549e+002
5.302357e+002,1.265996e+002
5.311999e+002,1.253893e+002
5.321641e+002,1.223516e+002
5.331284e+002,1.196569e+002
5.340926e+002,1.191011e+002
5.350568e+002,1.211604e+002
5.360211e+002,1.223400e+002
5.369853e+002,1.201340e+002
5.379495e+002,1.166467e+002
5.389138e+002,1.126439e+002
5.398780e+002,1.085863e+002
5.408422e+002,1.049246e+002
5.418065e+002,1.035923e+002
5.427707e+002,1.042434e+002
5.437349e+002,1.048231e+002
5.446992e+002,1.048683e+002
5.456634e+002,1.042466e+002
5.466276e+002,1.027288e+002
5.475919e+002,9.974988e+001
5.485561e+002,9.696973e+001
5.495203e+002,9.393689e+001
5.504846e+002,9.076721e+001
5.514488e+002,8.789209e+001
5.524130e+002,8.590894e+001
5.533773e+002,8.436353e+001
5.543415e+002,8.297754e+001
5.553057e+002,8.178760e+001
5.562700e+002,8.093640e+001
5.572342e+002,8.040308e+001
5.581984e+002,7.946350e+001
5.591627e+002,7.589819e+001
5.601269e+002,7.134290e+001
5.610911e+002,6.892505e+001
5.620554e+002,7.024963e+001
5.630196e+002,7.440039e+001
5.639838e+002,7.529895e+001
5.649481e+002,7.046619e+001
5.659123e+002,6.611621e+001
5.668765e+002,6.383472e+001
5.678408e+002,6.363110e+001
5.688050e+002,6.474670e+001
5.697692e+002,6.837769e+001
5.707335e+002,6.912732e+001
5.716977e+002,6.349109e+001
5.726619e+002,5.535413e+001
5.736262e+002,5.000818e+001
5.745904e+002,5.143567e+001
5.755546e+002,5.594397e+001
5.765189e+002,5.699890e+001
5.774831e+002,5.544275e+001
5.784473e+002,5.349219e+001
5.794116e+002,5.292261e+001
5.803758e+002,5.394165e+001
5.813400e+002,5.361694e+001
5.823043e+002,5.093616e+001
5.832685e+002,4.753882e+001
5.842327e+002,4.409827e+001
5.851970e+002,4.114343e+001
5.861612e+002,3.943701e+001
5.871254e+002,3.962292e+001
5.880897e+002,3.961560e+001
5.890539e+002,3.858118e+001
5.900181e+002,3.681470e+001
5.909824e+002,3.503540e+001
5.919466e+002,3.383325e+001
5.929108e+002,3.315332e+001
5.938751e+002,3.302856e+001
5.948393e+002,3.310559e+001
5.958035e+002,3.262134e+001
5.967678e+002,3.114648e+001
5.977320e+002,2.936462e+001
5.986962e+002,3.149866e+001
5.996605e+002,3.685388e+001
6.006247e+002,4.142371e+001
6.015889e+002,4.348010e+001
6.025532e+002,4.320630e+001
6.035174e+002,4.241272e+001
6.044816e+002,4.015674e+001
6.054459e+002,3.864063e+001
6.064101e+002,3.966638e+001
6.073743e+002,4.133887e+001
6.083386e+002,3.986572e+001
6.093028e+002,3.158423e+001
6.102670e+002,2.368030e+001
6.112313e+002,2.110681e+001
6.121955e+002,2.215234e+001
6.131597e+002,2.519263e+001
6.141240e+002,2.899792e+001
6.150882e+002,3.277673e+001
6.160524e+002,3.273303e+001
6.170167e+002,2.987158e+001
6.179809e+002,2.792517e+001
6.189451e+002,2.872156e+001
6.199094e+002,3.139990e+001
6.208736e+002,3.162317e+001
6.218378e+002,2.694727e+001
6.228021e+002,2.380908e+001
6.237663e+002,2.415942e+001
6.247305e+002,2.622900e+001
6.256948e+002,2.659155e+001
6.266590e+002,2.244067e+001
6.276232e+002,1.838623e+001
6.285875e+002,1.835815e+001
6.295517e+002,2.020728e+001
6.305159e+002,2.145422e+001
6.314802e+002,2.058984e+001
6.324444e+002,1.832825e+001
6.334086e+002,1.741833e+001
6.343729e+002,1.790417e+001
6.353371e+002,1.904272e+001
6.363013e+002,2.067371e+001
6.372656e+002,2.211279e+001
6.382298e+002,2.137219e+001
6.391940e+002,1.499048e+001
6.401583e+002,1.049463e+001
6.411225e+002,9.843628e+000
6.420867e+002,1.141406e+001
6.430510e+002,1.314880e+001
6.440152e+002,1.439392e+001
6.449794e+002,1.394348e+001
6.459437e+002,1.084888e+001
6.469079e+002,6.568115e+000
6.478721e+002,1.487183e+000
6.488364e+002,-3.669189e+000
6.498006e+002,-7.182373e+000
6.507648e+002,-4.857178e+000
6.517291e+002,8.801270e-001
6.526933e+002,4.471436e+000
6.536575e+002,4.769531e+000
6.546218e+002,3.322998e+000
6.555860e+002,3.188965e+000
6.565502e+002,5.389404e+000
6.575145e+002,6.533325e+000
6.584787e+002,6.564331e+000
6.594429e+002,5.858276e+000
6.604072e+002,4.523560e+000
6.613714e+002,2.515015e+000
6.623356e+002,6.458740e-001
6.632999e+002,-1.687012e+000
6.642641e+002,-3.741821e+000
6.652283e+002,-4.457153e+000
6.661926e+002,-3.697876e+000
6.671568e+002,-2.104858e+000
6.681210e+002,-5.618896e-001
6.690853e+002,5.625000e-001
6.700495e+002,1.023438e+000
6.710137e+002,9.061279e-001
6.719780e+002,8.992920e-001
6.729422e+002,1.683594e+000
6.739064e+002,3.215332e+000
6.748707e+002,4.464478e+000
6.758349e+002,6.391479e+000
6.767991e+002,6.857666e+000
6.777634e+002,4.551025e+000
6.787276e+002,3.446045e-001
6.796918e+002,-2.244751e+000
6.806561e+002,-1.975586e+000
6.816203e+002,-7.442627e-001
6.825845e+002,1.622192e+000
6.835488e+002,4.286133e+000
6.845130e+002,6.028687e+000
6.854772e+002,5.957153e+000
6.864415e+002,5.460938e+000
6.874057e+002,7.219971e+000
6.883699e+002,9.780396e+000
6.893342e+002,1.084497e+001
6.902984e+002,9.250000e+000
6.912626e+002,5.520386e+000
6.922269e+002,1.988159e+000
6.931911e+002,-4.569092e-001
6.941553e+002,-2.190430e+000
6.951196e+002,-4.811768e+000
6.960838e+002,-7.276611e+000
6.970480e+002,-6.992310e+000
6.980123e+002,-1.686035e+000
6.989765e+002,2.787842e+000
6.999407e+002,3.446045e+000
7.009050e+002,2.703125e+000
7.018692e+002,2.208130e+000
7.028334e+002,2.548950e+000
7.037977e+002,3.192749e+000
7.047619e+002,3.740845e+000
7.057261e+002,4.612427e+000
7.066904e+002,5.984009e+000
7.076546e+002,7.830322e+000
7.086188e+002,9.317993e+000
7.095831e+002,8.956665e+000
7.105473e+002,5.317871e+000
7.115115e+002,3.380493e+000
7.124758e+002,3.870605e+000
7.134400e+002,4.565796e+000
7.144042e+002,4.560181e+000
7.153685e+002,4.000488e+000
7.163327e+002,3.133545e+000
7.172969e+002,1.575317e+000
7.182612e+002,3.066406e-001
7.192254e+002,-6.295166e-001
7.201896e+002,-1.236694e+000
7.211539e+002,-1.375366e+000
7.221181e+002,-7.819824e-001
7.230823e+002,2.053223e-001
7.240466e+002,7.204590e-001
7.250108e+002,1.310791e+000
7.259750e+002,2.162231e+000
7.269393e+002,2.853149e+000
7.279035e+002,2.814453e+000
7.288677e+002,2.438477e+000
7.298320e+002,3.045898e+000
7.307962e+002,4.121582e+000
7.317604e+002,6.533325e+000
7.327247e+002,9.196411e+000
7.336889e+002,9.997925e+000
7.346531e+002,7.145142e+000
7.356174e+002,2.769897e+000
7.365816e+002,-2.542236e+000
7.375458e+002,-6.156738e+000
7.385101e+002,-5.023560e+000
7.394743e+002,8.753662e-001
7.404385e+002,8.020264e+000
7.414028e+002,1.078833e+001
7.423670e+002,8.730347e+000
7.433312e+002,6.352661e+000
7.442955e+002,4.716064e+000
7.452597e+002,4.583740e+000
7.462239e+002,6.686279e+000
7.471882e+002,1.158130e+001
7.481524e+002,1.497729e+001
7.491166e+002,1.543152e+001
7.500809e+002,1.463342e+001
7.510451e+002,1.306555e+001
7.520093e+002,1.081055e+001
7.529736e+002,7.846069e+000
7.539378e+002,4.231812e+000
7.549020e+002,1.411621e+000
7.558663e+002,-2.513428e-001
7.568306e+002,-7.412109e-001
7.577948e+002,-6.640625e-002
7.587590e+002,1.527832e+000
7.597233e+002,3.435669e+000
7.606875e+002,5.391602e+000
7.616517e+002,7.754395e+000
7.626160e+002,9.381836e+000
7.635802e+002,1.014673e+001
7.645444e+002,1.010327e+001
7.655087e+002,8.746704e+000
7.664729e+002,3.755981e+000
7.674371e+002,2.500366e+000
7.684014e+002,8.030396e+000
7.693656e+002,1.416980e+001
7.703298e+002,1.734045e+001
7.712941e+002,1.712170e+001
7.722583e+002,1.526965e+001
7.732225e+002,1.058679e+001
7.741868e+002,7.154297e+000
7.751510e+002,9.708374e+000
7.761152e+002,1.635962e+001
7.770795e+002,2.202380e+001
7.780437e+002,2.210205e+001
7.790079e+002,1.736670e+001
7.799722e+002,1.658606e+001
7.809364e+002,2.025183e+001
7.819006e+002,2.226941e+001
7.828649e+002,1.923804e+001
7.838291e+002,1.336597e+001
7.847933e+002,1.140527e+001
7.857576e+002,1.628381e+001
7.867218e+002,1.861658e+001
7.876860e+002,1.522241e+001
7.886503e+002,1.122607e+001
7.896145e+002,1.180798e+001
7.905787e+002,1.793335e+001
7.915430e+002,2.382495e+001
7.925072e+002,2.054700e+001
7.934714e+002,1.423999e+001
7.944357e+002,1.263147e+001
7.953999e+002,1.628723e+001
7.963641e+002,2.193323e+001
7.973284e+002,2.575757e+001
7.982926e+002,2.769006e+001
7.992568e+002,2.855042e+001
8.002211e+002,2.701282e+001
8.011853e+002,2.434119e+001
8.021495e+002,2.174817e+001
8.031138e+002,2.004797e+001
8.040780e+002,1.929980e+001
8.050422e+002,1.846680e+001
8.060065e+002,1.867078e+001
8.069707e+002,2.011462e+001
8.079349e+002,2.194263e+001
8.088992e+002,2.402283e+001
8.098634e+002,2.636499e+001
8.108276e+002,2.831885e+001
8.117919e+002,2.790283e+001
8.127561e+002,2.518933e+001
8.137203e+002,2.230042e+001
8.146846e+002,2.013037e+001
8.156488e+002,1.869385e+001
8.166130e+002,1.758508e+001
8.175773e+002,1.661597e+001
8.185415e+002,1.604919e+001
8.195057e+002,1.361670e+001
8.204700e+002,1.303174e+001
8.214342e+002,1.698840e+001
8.223984e+002,2.378052e+001
8.233627e+002,2.912036e+001
8.243269e+002,3.221851e+001
8.252911e+002,3.252625e+001
8.262554e+002,2.771802e+001
8.272196e+002,2.181335e+001
8.281838e+002,1.924829e+001
8.291481e+002,2.135889e+001
8.301123e+002,2.555042e+001
8.310765e+002,2.748511e+001
8.320408e+002,2.699963e+001
8.330050e+002,2.605542e+001
8.339692e+002,2.487671e+001
8.349335e+002,2.334351e+001
8.358977e+002,2.125110e+001
8.368619e+002,1.869604e+001
8.378262e+002,1.744092e+001
8.387904e+002,1.749817e+001
8.397546e+002,1.792273e+001
8.407189e+002,1.904736e+001
8.416831e+002,2.037354e+001
8.426473e+002,2.079456e+001
8.436116e+002,1.951697e+001
8.445758e+002,1.902344e+001
8.455400e+002,2.210669e+001
8.465043e+002,2.603583e+001
8.474685e+002,2.904797e+001
8.484327e+002,3.084448e+001
8.493970e+002,3.129449e+001
8.503612e+002,2.922882e+001
8.513254e+002,2.358862e+001
8.522897e+002,2.167072e+001
8.532539e+002,2.452386e+001
8.542181e+002,2.836353e+001
8.551824e+002,3.155835e+001
8.561466e+002,3.486603e+001
8.571108e+002,3.989099e+001
8.580751e+002,4.755847e+001
8.590393e+002,5.304645e+001
8.600035e+002,5.494702e+001
8.609678e+002,5.500549e+001
8.619320e+002,5.458624e+001
8.628962e+002,5.432245e+001
8.638605e+002,5.472290e+001
8.648247e+002,5.746149e+001
8.657889e+002,6.115228e+001
8.667532e+002,6.282312e+001
8.677174e+002,6.208740e+001
8.686816e+002,6.076886e+001
8.696459e+002,6.110376e+001
8.706101e+002,6.363989e+001
8.715743e+002,6.621930e+001
8.725386e+002,6.863611e+001
8.735028e+002,7.147546e+001
8.744670e+002,7.488934e+001
8.754313e+002,7.796210e+001
8.763955e+002,7.919617e+001
8.773597e+002,7.768909e+001
8.783240e+002,7.705011e+001
8.792882e+002,8.050952e+001
8.802524e+002,8.496912e+001
8.812167e+002,8.792133e+001
8.821809e+002,8.888354e+001
8.831451e+002,8.891638e+001
8.841094e+002,8.940936e+001
8.850736e+002,9.087885e+001
8.860378e+002,9.397278e+001
8.870021e+002,9.891937e+001
8.879663e+002,1.031852e+002
8.889305e+002,1.045667e+002
8.898948e+002,1.035461e+002
8.908590e+002,1.036308e+002
8.918232e+002,1.063337e+002
8.927875e+002,1.091406e+002
8.937517e+002,1.117383e+002
8.947159e+002,1.140964e+002
8.956802e+002,1.155903e+002
8.966444e+002,1.159398e+002
8.976086e+002,1.159307e+002
8.985729e+002,1.173398e+002
8.995371e+002,1.192527e+002
9.005013e+002,1.184095e+002
9.014656e+002,1.158528e+002
9.024298e+002,1.158672e+002
9.033940e+002,1.217457e+002
9.043583e+002,1.318318e+002
9.053225e+002,1.366879e+002
9.062867e+002,1.290901e+002
9.072510e+002,1.245518e+002
9.082152e+002,1.260574e+002
9.091794e+002,1.303742e+002
9.101437e+002,1.348240e+002
9.111079e+002,1.389493e+002
9.120721e+002,1.415632e+002
9.130364e+002,1.402715e+002
9.140006e+002,1.374330e+002
9.149648e+002,1.335662e+002
9.159291e+002,1.301902e+002
9.168933e+002,1.298605e+002
9.178575e+002,1.339751e+002
9.188218e+002,1.399484e+002
9.197860e+002,1.391077e+002
9.207502e+002,1.310317e+002
9.217145e+002,1.242835e+002
9.226787e+002,1.214002e+002
9.236429e+002,1.210215e+002
9.246072e+002,1.212067e+002
9.255714e+002,1.217645e+002
9.265356e+002,1.214250e+002
9.274999e+002,1.189457e+002
9.284641e+002,1.161419e+002
9.294283e+002,1.137448e+002
9.303926e+002,1.119099e+002
9.313568e+002,1.107800e+002
9.323210e+002,1.104577e+002
9.332853e+002,1.098510e+002
9.342495e+002,1.066993e+002
9.352137e+002,1.020327e+002
9.361780e+002,9.775134e+001
9.371422e+002,9.471399e+001
9.381064e+002,9.262689e+001
9.390707e+002,9.034229e+001
9.400349e+002,8.677368e+001
9.409991e+002,8.618988e+001
9.419634e+002,9.158826e+001
9.429276e+002,9.541333e+001
9.438918e+002,9.521893e+001
9.448561e+002,9.261469e+001
9.458203e+002,8.996167e+001
9.467845e+002,8.772083e+001
9.477488e+002,8.736298e+001
9.487130e+002,9.244714e+001
9.496772e+002,9.784192e+001
9.506415e+002,9.954486e+001
9.516057e+002,9.728760e+001
9.525699e+002,9.253528e+001
9.535342e+002,8.654474e+001
9.544984e+002,7.950092e+001
9.554626e+002,7.538147e+001
9.564269e+002,7.527509e+001
9.573911e+002,7.596906e+001
9.583553e+002,7.647473e+001
9.593196e+002,7.701025e+001
9.602838e+002,7.795746e+001
9.612480e+002,7.912976e+001
9.622123e+002,8.073523e+001
9.631765e+002,8.517609e+001
9.641407e+002,8.818774e+001
9.651050e+002,8.692944e+001
9.660692e+002,8.226764e+001
9.670334e+002,7.632916e+001
9.679977e+002,7.068469e+001
9.689619e+002,6.658063e+001
9.699261e+002,6.610016e+001
9.708904e+002,6.803235e+001
9.718546e+002,7.086902e+001
9.728188e+002,7.396918e+001
9.737831e+002,7.817371e+001
9.747473e+002,8.565088e+001
9.757115e+002,9.779230e+001
9.766758e+002,1.066653e+002
9.776400e+002,1.112917e+002
9.786042e+002,1.148152e+002
9.795685e+002,1.179417e+002
9.805327e+002,1.194800e+002
9.814969e+002,1.185822e+002
9.824612e+002,1.153591e+002
9.834254e+002,1.093612e+002
9.843896e+002,9.639063e+001
9.853539e+002,8.139642e+001
9.863181e+002,6.901501e+001
9.872823e+002,5.965247e+001
9.882466e+002,5.373920e+001
9.892108e+002,5.237646e+001
9.901750e+002,5.558459e+001
9.911393e+002,5.772723e+001
9.921035e+002,5.579718e+001
9.930677e+002,5.438696e+001
9.940320e+002,5.373657e+001
9.949962e+002,5.475140e+001
9.959604e+002,5.933337e+001
9.969247e+002,6.741724e+001
9.978889e+002,7.393011e+001
9.988531e+002,7.417859e+001
9.998174e+002,7.326147e+001
1.000782e+003,7.554108e+001
1.001746e+003,7.934033e+001
1.002710e+003,8.146985e+001
1.003674e+003,8.060229e+001
1.004639e+003,7.844867e+001
1.005603e+003,7.804919e+001
1.006567e+003,7.940857e+001
1.007531e+003,8.104376e+001
1.008495e+003,8.370215e+001
1.009460e+003,8.542126e+001
1.010424e+003,8.501556e+001
1.011388e+003,8.294177e+001
1.012352e+003,8.033093e+001
1.013317e+003,7.636945e+001
1.014281e+003,7.309564e+001
1.015245e+003,7.142297e+001
1.016209e+003,6.970898e+001
1.017174e+003,6.734088e+001
1.018138e+003,6.402283e+001
1.019102e+003,5.926660e+001
1.020066e+003,5.259479e+001
1.021031e+003,4.533008e+001
1.021995e+003,4.050659e+001
1.022959e+003,3.707318e+001
1.023923e+003,3.289111e+001
1.024887e+003,2.670874e+001
1.025852e+003,2.017200e+001
1.026816e+003,1.639087e+001
1.027780e+003,1.651208e+001
1.028744e+003,1.611798e+001
1.029709e+003,1.396564e+001
1.030673e+003,1.208728e+001
1.031637e+003,1.105109e+001
1.032601e+003,1.031427e+001
1.033566e+003,9.581970e+000
1.034530e+003,8.859497e+000
1.035494e+003,7.340332e+000
1.036458e+003,1.999939e+000
1.037422e+003,-3.726624e+000
1.038387e+003,-2.997681e+000
1.039351e+003,3.621033e+000
1.040315e+003,1.049658e+001
1.041279e+003,1.372491e+001
1.042244e+003,1.413281e+001
1.043208e+003,1.458630e+001
1.044172e+003,1.473602e+001
1.045136e+003,1.433118e+001
1.046101e+003,1.310431e+001
1.047065e+003,1.217145e+001
1.048029e+003,1.219269e+001
1.048993e+003,1.290588e+001
1.049958e+003,1.368994e+001
1.050922e+003,1.463013e+001
1.051886e+003,1.559338e+001
1.052850e+003,1.629950e+001
1.053814e+003,1.680322e+001
1.054779e+003,1.697205e+001
1.055743e+003,1.678876e+001
1.056707e+003,1.676990e+001
1.057671e+003,1.765698e+001
1.058636e+003,1.934485e+001
1.059600e+003,1.926349e+001
1.060564e+003,1.644525e+001
1.061528e+003,1.478558e+001
1.062493e+003,1.507526e+001
1.063457e+003,1.550177e+001
1.064421e+003,1.444073e+001
1.065385e+003,1.193927e+001
1.066349e+003,9.055237e+000
1.067314e+003,4.926758e+000
1.068278e+003,2.450684e+000
1.069242e+003,5.521301e+000
1.070206e+003,1.111426e+001
1.071171e+003,1.342303e+001
1.072135e+003,1.022729e+001
1.073099e+003,5.666382e+000
1.074063e+003,7.410828e+000
1.075028e+003,1.659174e+001
1.075992e+003,2.028076e+001
1.076956e+003,1.597546e+001
1.077920e+003,1.066309e+001
1.078885e+003,6.422791e+000
1.079849e+003,3.743591e+000
1.080813e+003,3.434448e+000
1.081777e+003,6.021790e+000
1.082741e+003,9.159363e+000
1.083706e+003,1.209003e+001
1.084670e+003,1.370569e+001
1.085634e+003,1.281464e+001
1.086598e+003,1.018494e+001
1.087563e+003,7.147034e+000
1.088527e+003,4.808228e+000
1.089491e+003,3.924927e+000
1.090455e+003,5.481384e+000
1.091420e+003,9.375366e+000
1.092384e+003,1.080060e+001
1.093348e+003,8.158325e+000
1.094312e+003,5.205261e+000
1.095276e+003,5.108887e+000
1.096241e+003,7.009583e+000
1.097205e+003,7.074768e+000
1.098169e+003,3.709778e+000
1.099133e+003,5.699463e-001
1.100098e+003,-9.944458e-001
1.101062e+003,-1.423889e+000
1.102026e+003,-3.518677e-001
1.102990e+003,1.645020e+000
1.103955e+003,3.262329e+000
1.104919e+003,3.621704e+000
1.105883e+003,3.389465e+000
1.106847e+003,4.474487e+000
1.107812e+003,6.787720e+000
1.108776e+003,7.734192e+000
1.109740e+003,6.505737e+000
1.110704e+003,5.384888e+000
1.111668e+003,7.085144e+000
1.112633e+003,1.104590e+001
1.113597e+003,1.312775e+001
1.114561e+003,1.183051e+001
1.115525e+003,1.010858e+001
1.116490e+003,8.165222e+000
1.117454e+003,6.697998e+000
1.118418e+003,6.228821e+000
1.119382e+003,7.247986e+000
1.120347e+003,1.053101e+001
1.121311e+003,1.610162e+001
1.122275e+003,2.122650e+001
1.123239e+003,2.110278e+001
1.124203e+003,1.693372e+001
1.125168e+003,1.568213e+001
1.126132e+003,1.885785e+001
1.127096e+003,2.278857e+001
1.128060e+003,2.484253e+001
1.129025e+003,2.496191e+001
1.129989e+003,2.312103e+001
1.130953e+003,1.649225e+001
1.131917e+003,1.404956e+001
1.132882e+003,2.220691e+001
1.133846e+003,3.116180e+001
1.134810e+003,3.432837e+001
1.135774e+003,3.335608e+001
1.136739e+003,3.327405e+001
1.137703e+003,3.690948e+001
1.138667e+003,4.318115e+001
1.139631e+003,5.080157e+001
1.140595e+003,5.953925e+001
1.141560e+003,6.832581e+001
1.142524e+003,7.750684e+001
1.143488e+003,8.692780e+001
1.144452e+003,9.517249e+001
1.145417e+003,1.033058e+002
1.146381e+003,1.158498e+002
1.147345e+003,1.346146e+002
1.148309e+003,1.526094e+002
1.149274e+003,1.658654e+002
1.150238e+003,1.807562e+002
1.151202e+003,2.021442e+002
1.152166e+003,2.277928e+002
1.153130e+003,2.538779e+002
1.154095e+003,2.777654e+002
1.155059e+003,2.969014e+002
1.156023e+003,3.083538e+002
1.156987e+003,3.123175e+002
1.157952e+003,3.124274e+002
1.158916e+003,3.096490e+002
1.159880e+003,3.038239e+002
1.160844e+003,2.939884e+002
1.161809e+003,2.794589e+002
1.162773e+003,2.592513e+002
1.163737e+003,2.318362e+002
1.164701e+003,2.060947e+002
1.165666e+003,1.854329e+002
1.166630e+003,1.664343e+002
1.167594e+003,1.470048e+002
1.168558e+003,1.287175e+002
1.169522e+003,1.136979e+002
1.170487e+003,1.026970e+002
1.171451e+003,9.559039e+001
1.172415e+003,9.252075e+001
1.173379e+003,9.253723e+001
1.174344e+003,9.105182e+001
1.175308e+003,8.805829e+001
1.176272e+003,8.644604e+001
1.177236e+003,8.971118e+001
1.178201e+003,9.321332e+001
1.179165e+003,8.967603e+001
1.180129e+003,7.860779e+001
1.181093e+003,6.876300e+001
1.182057e+003,6.207727e+001
1.183022e+003,5.731287e+001
1.183986e+003,5.398541e+001
1.184950e+003,5.211896e+001
1.185914e+003,5.237341e+001
1.186879e+003,5.444312e+001
1.187843e+003,5.731171e+001
1.188807e+003,6.006201e+001
1.189771e+003,6.174182e+001
1.190736e+003,5.942694e+001
1.191700e+003,5.243665e+001
1.192664e+003,4.818530e+001
1.193628e+003,4.891486e+001
1.194593e+003,5.104272e+001
1.195557e+003,5.265466e+001
1.196521e+003,5.346307e+001
1.197485e+003,5.272272e+001
1.198449e+003,5.037488e+001
1.199414e+003,4.657422e+001
1.200378e+003,3.948401e+001
1.201342e+003,3.278699e+001
1.202306e+003,2.891589e+001
1.203271e+003,2.700555e+001
1.204235e+003,2.523730e+001
1.205199e+003,2.272150e+001
1.206163e+003,1.961407e+001
1.207128e+003,1.593573e+001
1.208092e+003,1.168225e+001
1.209056e+003,8.573425e+000
1.210020e+003,7.422852e+000
1.210984e+003,5.677551e+000
1.211949e+003,3.319580e+000
1.212913e+003,-6.895142e-001
1.213877e+003,-8.467285e+000
1.214841e+003,-1.980090e+001
1.215806e+003,-2.962927e+001
1.216770e+003,-3.644141e+001
1.217734e+003,-4.065613e+001
1.218698e+003,-4.180878e+001
1.219663e+003,-4.198114e+001
1.220627e+003,-4.385236e+001
1.221591e+003,-4.764539e+001
1.222555e+003,-5.148529e+001
1.223520e+003,-5.354572e+001
1.224484e+003,-5.398041e+001
1.225448e+003,-5.452087e+001
1.226412e+003,-5.562665e+001
1.227376e+003,-5.598602e+001
1.228341e+003,-5.574854e+001
1.229305e+003,-5.498395e+001
1.230269e+003,-5.277142e+001
1.231233e+003,-5.037988e+001
1.232198e+003,-5.063190e+001
1.233162e+003,-5.419153e+001
1.234126e+003,-5.714197e+001
1.235090e+003,-5.660382e+001
1.236055e+003,-5.477985e+001
1.237019e+003,-5.369928e+001
1.237983e+003,-5.346240e+001
1.238947e+003,-5.361646e+001
1.239911e+003,-5.373932e+001
1.240876e+003,-5.415961e+001
1.241840e+003,-5.590479e+001
1.242804e+003,-5.914581e+001
1.243768e+003,-6.007599e+001
1.244733e+003,-5.604999e+001
1.245697e+003,-5.308313e+001
1.246661e+003,-5.335339e+001
1.247625e+003,-5.416498e+001
1.248590e+003,-5.287628e+001
1.249554e+003,-4.970404e+001
1.250518e+003,-4.668549e+001
1.251482e+003,-4.496204e+001
1.252447e+003,-4.428619e+001
1.253411e+003,-4.430347e+001
1.254375e+003,-4.446289e+001
1.255339e+003,-4.403070e+001
1.256303e+003,-4.277710e+001
1.257268e+003,-4.108722e+001
1.258232e+003,-3.946997e+001
1.259196e+003,-3.830371e+001
1.260160e+003,-3.795850e+001
1.261125e+003,-3.843817e+001
1.262089e+003,-3.696631e+001
1.263053e+003,-3.278253e+001
1.264017e+003,-2.801263e+001
1.264982e+003,-2.063751e+001
1.265946e+003,-1.436255e+001
1.266910e+003,-1.324982e+001
1.267874e+003,-1.677588e+001
1.268839e+003,-2.150513e+001
1.269803e+003,-2.517383e+001
1.270767e+003,-2.760162e+001
1.271731e+003,-2.805231e+001
1.272695e+003,-2.634979e+001
1.273660e+003,-2.492542e+001
1.274624e+003,-2.388037e+001
1.275588e+003,-2.508862e+001
1.276552e+003,-3.063147e+001
1.277517e+003,-3.781354e+001
1.278481e+003,-4.235950e+001
1.279445e+003,-4.415643e+001
1.280409e+003,-4.397614e+001
1.281374e+003,-4.036377e+001
1.282338e+003,-3.687244e+001
1.283302e+003,-3.512354e+001
1.284266e+003,-3.473718e+001
1.285230e+003,-3.518457e+001
1.286195e+003,-3.649646e+001
1.287159e+003,-3.946381e+001
1.288123e+003,-4.455658e+001
1.289087e+003,-5.008838e+001
1.290052e+003,-5.165051e+001
1.291016e+003,-4.788812e+001
1.291980e+003,-4.630243e+001
1.292944e+003,-4.956317e+001
1.293909e+003,-5.219055e+001
1.294873e+003,-5.056067e+001
1.295837e+003,-4.720984e+001
1.296801e+003,-4.635565e+001
1.297766e+003,-4.831519e+001
1.298730e+003,-4.897412e+001
1.299694e+003,-4.537506e+001
1.300658e+003,-4.195508e+001
1.301622e+003,-4.475537e+001
1.302587e+003,-5.012415e+001
1.303551e+003,-5.208002e+001
1.304515e+003,-4.965906e+001
1.305479e+003,-4.681659e+001
1.306444e+003,-4.718115e+001
1.307408e+003,-4.957379e+001
1.308372e+003,-4.893323e+001
1.309336e+003,-4.352197e+001
1.310301e+003,-4.060138e+001
1.311265e+003,-4.163898e+001
1.312229e+003,-4.323480e+001
1.313193e+003,-4.527057e+001
1.314157e+003,-4.704004e+001
1.315122e+003,-4.791241e+001
1.316086e+003,-4.796582e+001
1.317050e+003,-4.745044e+001
1.318014e+003,-4.623889e+001
1.318979e+003,-4.505609e+001
1.319943e+003,-4.602924e+001
1.320907e+003,-4.851251e+001
1.321871e+003,-4.842261e+001
1.322836e+003,-4.538422e+001
1.323800e+003,-4.278247e+001
1.324764e+003,-4.306549e+001
1.325728e+003,-4.437781e+001
1.326693e+003,-4.357208e+001
1.327657e+003,-4.078058e+001
1.328621e+003,-3.824799e+001
1.329585e+003,-3.453162e+001
1.330549e+003,-3.202448e+001
1.331514e+003,-3.477942e+001
1.332478e+003,-3.890186e+001
1.333442e+003,-3.997681e+001
1.334406e+003,-3.806818e+001
1.335371e+003,-3.582892e+001
1.336335e+003,-3.494861e+001
1.337299e+003,-3.533533e+001
1.338263e+003,-3.713898e+001
1.339228e+003,-4.069794e+001
1.340192e+003,-4.227258e+001
1.341156e+003,-4.172516e+001
1.342120e+003,-3.963220e+001
1.343084e+003,-3.305939e+001
1.344049e+003,-2.846985e+001
1.345013e+003,-3.342633e+001
1.345977e+003,-4.427057e+001
1.346941e+003,-4.966248e+001
1.347906e+003,-4.539154e+001
1.348870e+003,-3.844421e+001
1.349834e+003,-3.456305e+001
1.350798e+003,-3.315857e+001
1.351763e+003,-3.208960e+001
1.352727e+003,-3.138812e+001
1.353691e+003,-3.231604e+001
1.354655e+003,-3.573834e+001
1.355620e+003,-3.928070e+001
1.356584e+003,-3.972083e+001
1.357548e+003,-3.732013e+001
1.358512e+003,-3.586774e+001
1.359476e+003,-3.640839e+001
1.360441e+003,-3.710431e+001
1.361405e+003,-3.762976e+001
1.362369e+003,-3.755817e+001
1.363333e+003,-3.596631e+001
1.364298e+003,-3.393353e+001
1.365262e+003,-3.296179e+001
1.366226e+003,-3.335010e+001
1.367190e+003,-3.429974e+001
1.368155e+003,-3.511444e+001
1.369119e+003,-3.577979e+001
1.370083e+003,-3.619922e+001
1.371047e+003,-3.633093e+001
1.372011e+003,-3.502252e+001
1.372976e+003,-3.066888e+001
1.373940e+003,-2.806213e+001
1.374904e+003,-3.013324e+001
1.375868e+003,-3.373743e+001
1.376833e+003,-3.526208e+001
1.377797e+003,-3.454694e+001
1.378761e+003,-3.297589e+001
1.379725e+003,-3.081354e+001
1.380690e+003,-2.852185e+001
1.381654e+003,-2.611292e+001
1.382618e+003,-2.392017e+001
1.383582e+003,-2.281512e+001
1.384547e+003,-2.266510e+001
1.385511e+003,-2.218878e+001
1.386475e+003,-2.079907e+001
1.387439e+003,-1.940454e+001
1.388403e+003,-1.948669e+001
1.389368e+003,-2.108813e+001
1.390332e+003,-2.199402e+001
1.391296e+003,-2.168585e+001
1.392260e+003,-2.092493e+001
1.393225e+003,-2.017535e+001
1.394189e+003,-1.902350e+001
1.395153e+003,-1.582324e+001
1.396117e+003,-1.264294e+001
1.397082e+003,-1.301984e+001
1.398046e+003,-1.729205e+001
1.399010e+003,-2.242645e+001
1.399974e+003,-2.598376e+001
1.400938e+003,-2.832471e+001
1.401903e+003,-2.897675e+001
1.402867e+003,-2.640936e+001
1.403831e+003,-2.268799e+001
1.404795e+003,-1.625958e+001
1.405760e+003,-1.195660e+001
1.406724e+003,-1.372235e+001
1.407688e+003,-1.847394e+001
1.408652e+003,-2.202826e+001
1.409617e+003,-2.361298e+001
1.410581e+003,-2.442303e+001
1.411545e+003,-2.493030e+001
1.412509e+003,-2.483124e+001
1.413474e+003,-2.354987e+001
1.414438e+003,-2.246381e+001
1.415402e+003,-2.330444e+001
1.416366e+003,-2.533228e+001
1.417330e+003,-2.641107e+001
1.418295e+003,-2.578821e+001
1.419259e+003,-2.362164e+001
1.420223e+003,-1.955444e+001
1.421187e+003,-1.437164e+001
1.422152e+003,-1.137366e+001
1.423116e+003,-1.079279e+001
1.424080e+003,-1.002722e+001
1.425044e+003,-8.434814e+000
1.426009e+003,-7.465149e+000
1.426973e+003,-8.353882e+000
1.427937e+003,-9.872070e+000
1.428901e+003,-1.029077e+001
1.429865e+003,-9.376770e+000
1.430830e+003,-7.952820e+000
1.431794e+003,-6.825806e+000
1.432758e+003,-6.877380e+000
1.433722e+003,-9.576843e+000
1.434687e+003,-1.481665e+001
1.435651e+003,-1.495148e+001
1.436615e+003,-6.609192e+000
1.437579e+003,-1.458862e+000
1.438544e+003,-2.388916e+000
1.439508e+003,-4.448242e+000
1.440472e+003,-3.786316e+000
1.441436e+003,-1.395996e+000
1.442401e+003,-2.050171e-001
1.443365e+003,-9.912109e-001
1.444329e+003,-2.042053e+000
1.445293e+003,-1.993469e+000
1.446257e+003,-1.179199e+000
1.447222e+003,-7.058716e-001
1.448186e+003,-3.942871e-001
1.449150e+003,1.573669e+000
1.450114e+003,5.979675e+000
1.451079e+003,8.807068e+000
1.452043e+003,7.691650e+000
1.453007e+003,4.732544e+000
1.453971e+003,1.826660e+000
1.454936e+003,-9.955444e-001
1.455900e+003,-2.276062e+000
1.456864e+003,-1.102295e+000
1.457828e+003,4.075317e-001
1.458792e+003,6.860352e-001
1.459757e+003,4.983521e-001
1.460721e+003,1.003296e+000
1.461685e+003,1.405640e+000
1.462649e+003,-1.662598e-001
1.463614e+003,-3.818848e+000
1.464578e+003,-7.407227e+000
1.465542e+003,-9.383667e+000
1.466506e+003,-9.902100e+000
1.467471e+003,-8.564941e+000
1.468435e+003,-4.380371e+000
1.469399e+003,-4.687500e-001
1.470363e+003,3.343628e+000
1.471328e+003,5.071716e+000
1.472292e+003,2.152283e+000
1.473256e+003,-1.829834e+000
1.474220e+003,-4.656067e+000
1.475184e+003,-5.325256e+000
1.476149e+003,-2.120056e+000
1.477113e+003,4.242310e+000
1.478077e+003,8.561707e+000
1.479041e+003,6.011475e+000
1.480006e+003,-4.886475e-001
1.480970e+003,-2.162354e+000
1.481934e+003,1.792786e+000
1.482898e+003,5.271790e+000
1.483863e+003,7.987244e+000
1.484827e+003,1.044122e+001
1.485791e+003,1.391687e+001
1.486755e+003,1.698553e+001
1.487719e+003,1.704388e+001
1.488684e+003,1.519806e+001
1.489648e+003,1.521527e+001
1.490612e+003,1.850452e+001
1.491576e+003,2.327344e+001
1.492541e+003,2.828436e+001
1.493505e+003,3.281805e+001
1.494469e+003,3.460522e+001
1.495433e+003,3.378992e+001
1.496398e+003,3.468604e+001
1.497362e+003,3.876849e+001
1.498326e+003,4.406506e+001
1.499290e+003,4.918799e+001
1.500255e+003,5.503766e+001
1.501219e+003,6.317487e+001
1.502183e+003,7.304016e+001
1.503147e+003,8.194781e+001
1.504111e+003,8.906116e+001
1.505076e+003,9.637939e+001
1.506040e+003,1.039567e+002
1.507004e+003,1.137782e+002
1.507968e+003,1.279301e+002
1.508933e+003,1.454040e+002
1.509897e+003,1.645120e+002
1.510861e+003,1.855031e+002
1.511825e+003,2.083816e+002
1.512790e+003,2.326938e+002
1.513754e+003,2.580601e+002
1.514718e+003,2.845980e+002
1.515682e+003,3.118784e+002
1.516646e+003,3.395197e+002
1.517611e+003,3.688336e+002
1.518575e+003,3.967156e+002
1.519539e+003,4.236122e+002
1.520503e+003,4.482813e+002
1.521468e+003,4.725648e+002
1.522432e+003,4.924254e+002
1.523396e+003,5.019662e+002
1.524360e+003,5.010580e+002
1.525325e+003,4.943868e+002
1.526289e+003,4.852002e+002
1.527253e+003,4.738136e+002
1.528217e+003,4.608437e+002
1.529182e+003,4.467211e+002
1.530146e+003,4.267736e+002
1.531110e+003,3.984091e+002
1.532074e+003,3.679362e+002
1.533039e+003,3.345294e+002
1.534003e+003,2.987744e+002
1.534967e+003,2.601723e+002
1.535931e+003,2.218583e+002
1.536896e+003,1.852709e+002
1.537860e+003,1.522226e+002
1.538824e+003,1.259738e+002
1.539788e+003,1.077280e+002
1.540752e+003,9.415033e+001
1.541717e+003,8.137286e+001
1.542681e+003,6.962396e+001
1.543645e+003,5.838556e+001
1.544609e+003,4.680548e+001
1.545573e+003,3.981079e+001
1.546538e+003,3.823071e+001
1.547502e+003,3.853760e+001
1.548466e+003,4.151941e+001
1.549430e+003,4.537640e+001
1.550395e+003,4.765405e+001
1.551359e+003,4.861920e+001
1.552323e+003,5.119312e+001
1.553287e+003,5.612201e+001
1.554252e+003,5.808087e+001
1.555216e+003,5.178967e+001
1.556180e+003,4.076208e+001
1.557144e+003,3.266992e+001
1.558109e+003,2.789233e+001
1.559073e+003,2.609314e+001
1.560037e+003,2.823914e+001
1.561001e+003,2.968256e+001
1.561966e+003,2.979456e+001
1.562930e+003,2.910791e+001
1.563894e+003,2.695001e+001
1.564858e+003,2.403375e+001
1.565823e+003,2.231287e+001
1.566787e+003,2.209613e+001
1.567751e+003,2.251794e+001
1.568715e+003,2.329932e+001
1.569679e+003,2.461169e+001
1.570644e+003,2.701831e+001
1.571608e+003,2.943402e+001
1.572572e+003,2.934491e+001
1.573536e+003,2.692273e+001
1.574500e+003,2.570538e+001
1.575465e+003,2.707300e+001
1.576429e+003,2.921130e+001
1.577393e+003,3.041406e+001
1.578357e+003,3.115173e+001
1.579322e+003,3.274249e+001
1.580286e+003,3.538611e+001
1.581250e+003,3.872150e+001
1.582214e+003,4.314905e+001
1.583179e+003,4.623004e+001
1.584143e+003,4.492889e+001
1.585107e+003,4.186072e+001
1.586071e+003,4.169189e+001
1.587036e+003,4.377661e+001
1.588000e+003,4.383936e+001
1.588964e+003,4.039081e+001
1.589928e+003,3.821771e+001
1.590893e+003,4.198743e+001
1.591857e+003,4.753442e+001
1.592821e+003,4.806763e+001
1.593785e+003,4.461987e+001
1.594750e+003,4.250122e+001
1.595714e+003,4.204810e+001
1.596678e+003,4.350964e+001
1.597642e+003,4.836688e+001
1.598606e+003,5.327545e+001
1.599571e+003,5.494812e+001
1.600535e+003,5.575946e+001
1.601499e+003,5.933362e+001
1.602463e+003,6.502582e+001
1.603427e+003,6.860742e+001
1.604392e+003,6.822913e+001
1.605356e+003,6.687018e+001
1.606320e+003,6.809534e+001
1.607284e+003,7.055707e+001
1.608249e+003,6.973444e+001
1.609213e+003,6.547632e+001
1.610177e+003,6.294092e+001
1.611141e+003,6.349561e+001
1.612106e+003,6.454340e+001
1.613070e+003,6.458936e+001
1.614034e+003,6.483130e+001
1.614998e+003,6.663654e+001
1.615963e+003,6.908496e+001
1.616927e+003,7.065942e+001
1.617891e+003,7.092468e+001
1.618855e+003,6.955640e+001
1.619820e+003,6.584625e+001
1.620784e+003,6.153607e+001
1.621748e+003,6.001855e+001
1.622712e+003,6.156451e+001
1.623677e+003,6.407880e+001
1.624641e+003,6.800592e+001
1.625605e+003,7.041040e+001
1.626569e+003,6.833728e+001
1.627533e+003,6.604089e+001
1.628498e+003,6.678394e+001
1.629462e+003,6.826685e+001
1.630426e+003,6.742639e+001
1.631390e+003,6.579437e+001
1.632354e+003,6.809888e+001
1.633319e+003,7.481812e+001
1.634283e+003,7.953406e+001
1.635247e+003,7.697534e+001
1.636211e+003,7.104590e+001
1.637176e+003,6.922882e+001
1.638140e+003,7.141150e+001
1.639104e+003,7.249023e+001
1.640068e+003,7.215564e+001
1.641033e+003,7.030518e+001
1.641997e+003,6.474341e+001
1.642961e+003,6.129224e+001
1.643925e+003,6.434015e+001
1.644890e+003,6.932501e+001
1.645854e+003,7.199481e+001
1.646818e+003,7.247784e+001
1.647782e+003,7.237634e+001
1.648747e+003,7.220648e+001
1.649711e+003,7.180743e+001
1.650675e+003,7.114685e+001
1.651639e+003,7.091638e+001
1.652604e+003,7.287616e+001
1.653568e+003,7.655994e+001
1.654532e+003,7.524371e+001
1.655496e+003,6.659607e+001
1.656460e+003,6.017303e+001
1.657425e+003,6.008521e+001
1.658389e+003,6.138098e+001
1.659353e+003,6.219342e+001
1.660317e+003,6.220898e+001
1.661281e+003,6.019183e+001
1.662246e+003,5.701520e+001
1.663210e+003,5.588489e+001
1.664174e+003,5.789978e+001
1.665138e+003,5.970502e+001
1.666103e+003,5.808307e+001
1.667067e+003,5.441516e+001
1.668031e+003,5.125500e+001
1.668995e+003,4.882513e+001
1.669960e+003,4.916821e+001
1.670924e+003,5.367438e+001
1.671888e+003,5.610309e+001
1.672852e+003,5.241376e+001
1.673817e+003,4.874786e+001
1.674781e+003,5.047162e+001
1.675745e+003,5.310498e+001
1.676709e+003,5.064075e+001
1.677674e+003,4.465643e+001
1.678638e+003,4.153552e+001
1.679602e+003,4.325476e+001
1.680566e+003,4.521606e+001
1.681531e+003,4.401239e+001
1.682495e+003,4.138464e+001
1.683459e+003,3.950012e+001
1.684423e+003,3.811542e+001
1.685387e+003,3.740576e+001
1.686352e+003,3.754181e+001
1.687316e+003,3.863055e+001
1.688280e+003,4.176648e+001
1.689244e+003,4.383118e+001
1.690208e+003,4.183185e+001
1.691173e+003,3.769769e+001
1.692137e+003,3.197699e+001
1.693101e+003,2.644391e+001
1.694065e+003,2.591809e+001
1.695030e+003,3.135693e+001
1.695994e+003,3.670526e+001
1.696958e+003,3.890649e+001
1.697922e+003,3.878479e+001
1.698887e+003,3.646973e+001
1.699851e+003,3.294550e+001
1.700815e+003,3.103607e+001
1.701779e+003,3.073267e+001
1.702744e+003,2.961530e+001
1.703708e+003,2.701855e+001
1.704672e+003,2.529944e+001
1.705636e+003,2.619476e+001
1.706601e+003,2.759802e+001
1.707565e+003,2.699786e+001
1.708529e+003,2.524841e+001
1.709493e+003,2.394476e+001
1.710458e+003,2.321704e+001
1.711422e+003,2.270935e+001
1.712386e+003,2.313385e+001
1.713350e+003,2.342029e+001
1.714314e+003,2.186060e+001
1.715279e+003,1.925323e+001
1.716243e+003,1.698602e+001
1.717207e+003,1.540393e+001
1.718171e+003,1.535559e+001
1.719135e+003,1.716498e+001
1.720100e+003,1.894513e+001
1.721064e+003,1.934979e+001
1.722028e+003,1.862726e+001
1.722992e+003,1.715167e+001
1.723957e+003,1.566992e+001
1.724921e+003,1.602289e+001
1.725885e+003,1.792120e+001
1.726849e+003,1.841534e+001
1.727814e+003,1.719690e+001
1.728778e+003,1.597424e+001
1.729742e+003,1.445209e+001
1.730706e+003,1.384338e+001
1.731671e+003,1.593799e+001
1.732635e+003,1.880133e+001
1.733599e+003,1.930432e+001
1.734563e+003,1.749731e+001
1.735528e+003,1.527454e+001
1.736492e+003,1.343524e+001
1.737456e+003,1.194696e+001
1.738420e+003,1.067133e+001
1.739385e+003,9.709778e+000
1.740349e+003,1.100964e+001
1.741313e+003,1.596063e+001
1.742277e+003,1.775629e+001
1.743241e+003,1.456140e+001
1.744206e+003,1.206708e+001
1.745170e+003,1.140424e+001
1.746134e+003,1.062292e+001
1.747098e+003,7.174072e+000
1.748063e+003,4.030640e+000
1.749027e+003,5.991699e+000
1.749991e+003,1.132117e+001
1.750955e+003,1.464777e+001
1.751919e+003,1.390027e+001
1.752884e+003,9.747009e+000
1.753848e+003,2.603149e+000
1.754812e+003,-4.059937e+000
1.755776e+003,-2.184509e+000
1.756741e+003,8.223999e+000
1.757705e+003,1.408563e+001
1.758669e+003,1.387366e+001
1.759633e+003,1.243616e+001
1.760598e+003,8.322327e+000
1.761562e+003,5.102234e+000
1.762526e+003,5.059509e+000
1.763490e+003,5.823364e+000
1.764455e+003,5.241516e+000
1.765419e+003,4.686951e+000
1.766383e+003,7.048218e+000
1.767347e+003,1.157617e+001
1.768312e+003,1.408521e+001
1.769276e+003,1.247046e+001
1.770240e+003,8.659424e+000
1.771204e+003,4.160278e+000
1.772168e+003,6.696167e-001
1.773133e+003,2.003418e+000
1.774097e+003,7.547180e+000
1.775061e+003,1.117932e+001
1.776025e+003,1.170190e+001
1.776990e+003,1.148126e+001
1.777954e+003,1.165430e+001
1.778918e+003,1.197601e+001
1.779882e+003,1.200555e+001
1.780846e+003,1.144623e+001
1.781811e+003,9.629822e+000
1.782775e+003,7.459106e+000
1.783739e+003,8.134766e+000
1.784703e+003,1.260095e+001
1.785668e+003,1.581836e+001
1.786632e+003,1.475049e+001
1.787596e+003,1.201453e+001
1.788560e+003,9.075562e+000
1.789525e+003,7.100952e+000
1.790489e+003,7.232239e+000
1.791453e+003,9.008423e+000
1.792417e+003,1.225488e+001
1.793382e+003,1.652484e+001
1.794346e+003,1.819305e+001
1.795310e+003,1.508453e+001
1.796274e+003,1.104871e+001
1.797239e+003,1.083362e+001
1.798203e+003,1.369592e+001
1.799167e+003,1.569983e+001
1.800131e+003,1.596094e+001
1.801095e+003,1.497351e+001
1.802060e+003,1.185162e+001
1.803024e+003,1.074939e+001
1.803988e+003,1.324463e+001
1.804952e+003,1.574579e+001
1.805917e+003,1.728876e+001
1.806881e+003,1.737628e+001
1.807845e+003,1.496802e+001
1.808809e+003,1.137061e+001
1.809773e+003,8.437927e+000
1.810738e+003,6.919250e+000
1.811702e+003,7.412720e+000
1.812666e+003,1.019366e+001
1.813630e+003,1.379865e+001
1.814595e+003,1.636865e+001
1.815559e+003,1.786200e+001
1.816523e+003,1.862256e+001
1.817487e+003,1.877997e+001
1.818452e+003,1.772852e+001
1.819416e+003,1.498981e+001
1.820380e+003,1.361151e+001
1.821344e+003,1.444556e+001
1.822309e+003,1.589734e+001
1.823273e+003,1.787616e+001
1.824237e+003,1.996124e+001
1.825201e+003,2.176825e+001
1.826166e+003,2.288153e+001
1.827130e+003,2.242560e+001
1.828094e+003,2.013843e+001
1.829058e+003,1.730042e+001
1.830022e+003,1.433490e+001
1.830987e+003,1.216180e+001
1.831951e+003,1.204797e+001
1.832915e+003,1.283813e+001
1.833879e+003,1.289862e+001
1.834844e+003,1.232648e+001
1.835808e+003,1.134570e+001
1.836772e+003,1.024792e+001
1.837736e+003,1.066754e+001
1.838700e+003,1.318384e+001
1.839665e+003,1.533350e+001
1.840629e+003,1.496277e+001
1.841593e+003,1.323706e+001
1.842557e+003,1.211768e+001
1.843522e+003,1.159167e+001
1.844486e+003,1.247150e+001
1.845450e+003,1.680640e+001
1.846414e+003,1.966766e+001
1.847379e+003,1.968811e+001
1.848343e+003,1.865424e+001
1.849307e+003,1.619244e+001
1.850271e+003,1.428271e+001
1.851236e+003,1.459357e+001
1.852200e+003,1.655829e+001
1.853164e+003,1.944397e+001
1.854128e+003,2.216736e+001
1.855093e+003,2.349780e+001
1.856057e+003,2.336096e+001
1.857021e+003,2.234888e+001
1.857985e+003,2.061090e+001
1.858949e+003,1.847754e+001
1.859914e+003,1.626086e+001
1.860878e+003,1.436139e+001
1.861842e+003,1.468781e+001
1.862806e+003,1.715723e+001
1.863771e+003,1.913525e+001
1.864735e+003,1.999792e+001
1.865699e+003,2.031482e+001
1.866663e+003,2.030292e+001
1.867627e+003,2.068427e+001
1.868592e+003,2.198181e+001
1.869556e+003,2.334607e+001
1.870520e+003,2.436011e+001
1.871484e+003,2.478906e+001
1.872449e+003,2.278131e+001
1.873413e+003,1.798218e+001
1.874377e+003,1.635858e+001
1.875341e+003,1.999493e+001
1.876306e+003,2.454626e+001
1.877270e+003,2.890558e+001
1.878234e+003,3.172272e+001
1.879198e+003,3.101501e+001
1.880163e+003,2.842120e+001
1.881127e+003,2.670813e+001
1.882091e+003,2.639240e+001
1.883055e+003,2.708691e+001
1.884020e+003,2.834668e+001
1.884984e+003,2.852936e+001
1.885948e+003,2.609650e+001
1.886912e+003,2.268994e+001
1.887876e+003,2.184521e+001
1.888841e+003,2.330310e+001
1.889805e+003,2.277924e+001
1.890769e+003,1.925250e+001
1.891733e+003,1.969562e+001
1.892698e+003,2.674500e+001
1.893662e+003,3.208466e+001
1.894626e+003,3.255157e+001
1.895590e+003,3.126123e+001
1.896554e+003,2.966772e+001
1.897519e+003,2.846246e+001
1.898483e+003,2.809631e+001
1.899447e+003,2.817303e+001
1.900411e+003,2.857611e+001
1.901376e+003,2.946411e+001
1.902340e+003,3.039240e+001
1.903304e+003,3.128064e+001
1.904268e+003,3.186255e+001
1.905233e+003,3.195728e+001
1.906197e+003,3.201868e+001
1.907161e+003,3.260498e+001
1.908125e+003,3.363611e+001
1.909090e+003,3.465289e+001
1.910054e+003,3.531671e+001
1.911018e+003,3.570746e+001
1.911982e+003,3.598077e+001
1.912947e+003,3.532178e+001
1.913911e+003,3.299438e+001
1.914875e+003,3.152484e+001
1.915839e+003,3.512878e+001
1.916803e+003,4.194714e+001
1.917768e+003,4.382178e+001
1.918732e+003,4.008838e+001
1.919696e+003,3.772980e+001
1.920660e+003,3.708752e+001
1.921625e+003,3.816949e+001
1.922589e+003,4.333954e+001
1.923553e+003,4.579138e+001
1.924517e+003,3.764423e+001
1.925481e+003,2.917645e+001
1.926446e+003,3.067725e+001
1.927410e+003,3.795551e+001
1.928374e+003,4.311859e+001
1.929338e+003,4.518335e+001
1.930303e+003,4.470007e+001
1.931267e+003,4.135785e+001
1.932231e+003,3.908777e+001
1.933195e+003,3.972540e+001
1.934160e+003,4.097583e+001
1.935124e+003,4.157703e+001
1.936088e+003,4.127246e+001
1.937052e+003,3.921991e+001
1.938017e+003,3.701410e+001
1.938981e+003,3.849817e+001
1.939945e+003,4.304089e+001
1.940909e+003,4.496484e+001
1.941874e+003,4.184656e+001
1.942838e+003,3.787872e+001
1.943802e+003,3.727716e+001
1.944766e+003,3.933691e+001
1.945730e+003,4.222723e+001
1.946695e+003,4.535559e+001
1.947659e+003,4.606012e+001
1.948623e+003,4.403131e+001
1.949587e+003,4.145154e+001
1.950552e+003,3.801794e+001
1.951516e+003,3.760138e+001
1.952480e+003,4.365448e+001
1.953444e+003,4.814966e+001
1.954408e+003,4.301190e+001
1.955373e+003,3.517926e+001
1.956337e+003,3.623578e+001
1.957301e+003,4.360132e+001
1.958265e+003,4.579120e+001
1.959230e+003,4.164111e+001
1.960194e+003,4.081384e+001
1.961158e+003,4.757123e+001
1.962122e+003,5.178693e+001
1.963087e+003,4.963635e+001
1.964051e+003,4.602234e+001
1.965015e+003,4.251355e+001
1.965979e+003,4.079449e+001
1.966944e+003,4.289587e+001
1.967908e+003,4.684802e+001
1.968872e+003,4.992542e+001
1.969836e+003,5.145148e+001
1.970801e+003,5.118164e+001
1.971765e+003,4.923267e+001
1.972729e+003,4.768463e+001
1.973693e+003,4.839862e+001
1.974657e+003,4.998743e+001
1.975622e+003,5.014972e+001
1.976586e+003,4.933252e+001
1.977550e+003,4.904681e+001
1.978514e+003,4.952222e+001
1.979479e+003,5.126764e+001
1.980443e+003,5.412585e+001
1.981407e+003,5.580573e+001
1.982371e+003,5.555133e+001
1.983335e+003,5.590900e+001
1.984300e+003,5.885638e+001
1.985264e+003,6.146173e+001
1.986228e+003,5.917279e+001
1.987192e+003,5.320941e+001
1.988157e+003,5.005261e+001
1.989121e+003,5.049506e+001
1.990085e+003,5.057355e+001
1.991049e+003,4.991547e+001
1.992014e+003,5.016650e+001
1.992978e+003,5.238159e+001
1.993942e+003,5.385931e+001
1.994906e+003,5.253204e+001
1.995871e+003,5.136029e+001
1.996835e+003,5.299951e+001
1.997799e+003,5.616064e+001
1.998763e+003,5.882141e+001
1.999728e+003,6.067249e+001
