5.003444e+002,3.279631e+001
5.013087e+002,3.331169e+001
5.022729e+002,3.375737e+001
5.032371e+002,3.406505e+001
5.042014e+002,3.373257e+001
5.051656e+002,3.286169e+001
5.061298e+002,3.162659e+001
5.070941e+002,3.007957e+001
5.080583e+002,2.797740e+001
5.090225e+002,2.666327e+001
5.099868e+002,2.608037e+001
5.109510e+002,2.601370e+001
5.119152e+002,2.667346e+001
5.128795e+002,2.814291e+001
5.138437e+002,2.903964e+001
5.148079e+002,2.868138e+001
5.157722e+002,2.793149e+001
5.167364e+002,2.675185e+001
5.177006e+002,2.532234e+001
5.186649e+002,2.416718e+001
5.196291e+002,2.449292e+001
5.205933e+002,2.534090e+001
5.215576e+002,2.534105e+001
5.225218e+002,2.432156e+001
5.234860e+002,2.279956e+001
5.244503e+002,2.181372e+001
5.254145e+002,2.169894e+001
5.263787e+002,2.187039e+001
5.273430e+002,2.272495e+001
5.283072e+002,2.360590e+001
5.292714e+002,2.343375e+001
5.302357e+002,2.125598e+001
5.311999e+002,1.968068e+001
5.321641e+002,1.947673e+001
5.331284e+002,1.979573e+001
5.340926e+002,2.000829e+001
5.350568e+002,1.983308e+001
5.360211e+002,1.932068e+001
5.369853e+002,1.808028e+001
5.379495e+002,1.703876e+001
5.389138e+002,1.714890e+001
5.398780e+002,1.866083e+001
5.408422e+002,2.094554e+001
5.418065e+002,2.260738e+001
5.427707e+002,2.363219e+001
5.437349e+002,2.331284e+001
5.446992e+002,2.096878e+001
5.456634e+002,1.739760e+001
5.466276e+002,1.546492e+001
5.475919e+002,1.711534e+001
5.485561e+002,1.829330e+001
5.495203e+002,1.873465e+001
5.504846e+002,1.856035e+001
5.514488e+002,1.799284e+001
5.524130e+002,1.709245e+001
5.533773e+002,1.594864e+001
5.543415e+002,1.409651e+001
5.553057e+002,1.233141e+001
5.562700e+002,1.161909e+001
5.572342e+002,1.252130e+001
5.581984e+002,1.416745e+001
5.591627e+002,1.478558e+001
5.601269e+002,1.465417e+001
5.610911e+002,1.376070e+001
5.620554e+002,1.196539e+001
5.630196e+002,9.457596e+000
5.639838e+002,8.427841e+000
5.649481e+002,1.009480e+001
5.659123e+002,1.145993e+001
5.668765e+002,1.210414e+001
5.678408e+002,1.226563e+001
5.688050e+002,1.244945e+001
5.697692e+002,1.281210e+001
5.707335e+002,1.271606e+001
5.716977e+002,1.199825e+001
5.726619e+002,1.083855e+001
5.736262e+002,9.272934e+000
5.745904e+002,7.174271e+000
5.755546e+002,5.476013e+000
5.765189e+002,5.854996e+000
5.774831e+002,7.326828e+000
5.784473e+002,8.253326e+000
5.794116e+002,7.574112e+000
5.803758e+002,5.571640e+000
5.813400e+002,4.963562e+000
5.823043e+002,6.017654e+000
5.832685e+002,6.822311e+000
5.842327e+002,6.552124e+000
5.851970e+002,5.514130e+000
5.861612e+002,5.252441e+000
5.871254e+002,6.815491e+000
5.880897e+002,8.109665e+000
5.890539e+002,8.641251e+000
5.900181e+002,8.592117e+000
5.909824e+002,8.375443e+000
5.919466e+002,8.284042e+000
5.929108e+002,8.101776e+000
5.938751e+002,7.597412e+000
5.948393e+002,6.878738e+000
5.958035e+002,6.015656e+000
5.967678e+002,5.085297e+000
5.977320e+002,4.241531e+000
5.986962e+002,4.789154e+000
5.996605e+002,6.747589e+000
6.006247e+002,7.776062e+000
6.015889e+002,5.949402e+000
6.025532e+002,1.612198e+000
6.035174e+002,-3.570709e-001
6.044816e+002,3.590942e+000
6.054459e+002,6.237457e+000
6.064101e+002,5.634201e+000
6.073743e+002,3.166763e+000
6.083386e+002,1.552780e+000
6.093028e+002,2.551071e+000
6.102670e+002,4.048767e+000
6.112313e+002,4.476822e+000
6.121955e+002,4.192261e+000
6.131597e+002,3.584259e+000
6.141240e+002,2.929245e+000
6.150882e+002,2.285309e+000
6.160524e+002,2.025162e+000
6.170167e+002,2.132584e+000
6.179809e+002,2.325317e+000
6.189451e+002,2.475937e+000
6.199094e+002,2.511841e+000
6.208736e+002,2.279053e+000
6.218378e+002,1.469711e+000
6.228021e+002,9.742126e-001
6.237663e+002,1.070786e+000
6.247305e+002,1.512909e+000
6.256948e+002,1.898651e+000
6.266590e+002,2.075928e+000
6.276232e+002,1.866547e+000
6.285875e+002,1.033508e+000
6.295517e+002,1.016388e-001
6.305159e+002,-4.413300e-001
6.314802e+002,-3.554535e-001
6.324444e+002,1.552582e-001
6.334086e+002,1.039902e+000
6.343729e+002,2.170868e+000
6.353371e+002,2.693497e+000
6.363013e+002,2.133148e+000
6.372656e+002,8.936462e-001
6.382298e+002,5.470428e-001
6.391940e+002,2.760284e+000
6.401583e+002,3.523102e+000
6.411225e+002,1.866623e+000
6.420867e+002,-5.540161e-001
6.430510e+002,-1.873993e+000
6.440152e+002,-1.539673e+000
6.449794e+002,-7.147827e-001
6.459437e+002,2.714539e-001
6.469079e+002,1.193604e+000
6.478721e+002,2.104782e+000
6.488364e+002,2.938217e+000
6.498006e+002,3.263474e+000
6.507648e+002,1.383102e+000
6.517291e+002,-1.524857e+000
6.526933e+002,-1.884232e+000
6.536575e+002,1.135666e+000
6.546218e+002,5.239059e+000
6.555860e+002,5.880478e+000
6.565502e+002,2.580566e-001
6.575145e+002,-2.940186e+000
6.584787e+002,-2.343399e+000
6.594429e+002,-7.607727e-001
6.604072e+002,-5.740967e-001
6.613714e+002,-2.296448e+000
6.623356e+002,-3.271042e+000
6.632999e+002,-1.553223e+000
6.642641e+002,4.927368e-001
6.652283e+002,2.102448e+000
6.661926e+002,2.990799e+000
6.671568e+002,2.979279e+000
6.681210e+002,1.319107e+000
6.690853e+002,-1.069366e+000
6.700495e+002,-1.558182e+000
6.710137e+002,-1.890869e-001
6.719780e+002,1.676407e+000
6.729422e+002,2.596191e+000
6.739064e+002,2.341339e+000
6.748707e+002,2.153030e+000
6.758349e+002,2.175430e+000
6.767991e+002,2.043365e+000
6.777634e+002,1.883438e+000
6.787276e+002,1.670609e+000
6.796918e+002,7.754364e-001
6.806561e+002,-2.478638e+000
6.816203e+002,-5.036102e+000
6.825845e+002,-5.629456e+000
6.835488e+002,-4.731293e+000
6.845130e+002,-2.914581e+000
6.854772e+002,-4.014587e-001
6.864415e+002,1.919495e+000
6.874057e+002,1.492920e+000
6.883699e+002,-8.676910e-001
6.893342e+002,-2.885315e+000
6.902984e+002,-3.244064e+000
6.912626e+002,-2.167496e+000
6.922269e+002,-1.442307e+000
6.931911e+002,-1.428940e+000
6.941553e+002,-9.566956e-001
6.951196e+002,3.274384e-001
6.960838e+002,1.852570e+000
6.970480e+002,2.793625e+000
6.980123e+002,2.910309e+000
6.989765e+002,2.712570e+000
6.999407e+002,1.956131e+000
7.009050e+002,1.333282e+000
7.018692e+002,1.637192e+000
7.028334e+002,2.988098e+000
7.037977e+002,4.496826e+000
7.047619e+002,4.979645e+000
7.057261e+002,4.573837e+000
7.066904e+002,2.893127e+000
7.076546e+002,-1.247711e-001
7.086188e+002,-3.079849e+000
7.095831e+002,-3.609848e+000
7.105473e+002,-4.993591e-001
7.115115e+002,1.046982e+000
7.124758e+002,6.617737e-002
7.134400e+002,-1.236206e+000
7.144042e+002,-1.322189e+000
7.153685e+002,-1.327972e-001
7.163327e+002,5.714264e-001
7.172969e+002,-8.207092e-001
7.182612e+002,-2.100433e+000
7.192254e+002,-2.412094e+000
7.201896e+002,-1.931259e+000
7.211539e+002,-1.114319e+000
7.221181e+002,-2.596893e-001
7.230823e+002,4.563446e-001
7.240466e+002,7.574921e-001
7.250108e+002,7.396545e-001
7.259750e+002,1.276398e-001
7.269393e+002,-1.495148e+000
7.279035e+002,-3.992050e+000
7.288677e+002,-5.330688e+000
7.298320e+002,-3.963425e+000
7.307962e+002,-2.884354e+000
7.317604e+002,-2.946152e+000
7.327247e+002,-3.106064e+000
7.336889e+002,-1.613571e+000
7.346531e+002,2.545944e+000
7.356174e+002,5.656158e+000
7.365816e+002,5.226501e+000
7.375458e+002,3.815170e+000
7.385101e+002,3.542480e+000
7.394743e+002,4.783951e+000
7.404385e+002,5.974258e+000
7.414028e+002,4.315292e+000
7.423670e+002,3.906860e-001
7.433312e+002,-1.829514e+000
7.442955e+002,-1.869858e+000
7.452597e+002,-6.804504e-001
7.462239e+002,8.074951e-001
7.471882e+002,2.830307e+000
7.481524e+002,3.777298e+000
7.491166e+002,2.894318e+000
7.500809e+002,1.714462e+000
7.510451e+002,6.582031e-001
7.520093e+002,-2.233124e-001
7.529736e+002,-1.018112e+000
7.539378e+002,-1.908127e+000
7.549020e+002,-2.122192e+000
7.558663e+002,-6.476135e-001
7.568306e+002,1.472260e+000
7.577948e+002,2.632065e+000
7.587590e+002,1.895767e+000
7.597233e+002,6.921387e-002
7.606875e+002,-5.799866e-002
7.616517e+002,1.357605e+000
7.626160e+002,2.447128e+000
7.635802e+002,2.568695e+000
7.645444e+002,2.346649e+000
7.655087e+002,3.259232e+000
7.664729e+002,6.571762e+000
7.674371e+002,8.021912e+000
7.684014e+002,6.099762e+000
7.693656e+002,3.734634e+000
7.703298e+002,3.041748e+000
7.712941e+002,4.147156e+000
7.722583e+002,4.967697e+000
7.732225e+002,3.488525e+000
7.741868e+002,1.559677e+000
7.751510e+002,5.222321e-001
7.761152e+002,3.242340e-001
7.770795e+002,4.881287e-001
7.780437e+002,5.818024e-001
7.790079e+002,6.236572e-001
7.799722e+002,1.401688e+000
7.809364e+002,3.240433e+000
7.819006e+002,3.801361e+000
7.828649e+002,7.404785e-001
7.838291e+002,-4.243774e+000
7.847933e+002,-5.240341e+000
7.857576e+002,1.363312e+000
7.867218e+002,5.858826e+000
7.876860e+002,5.809082e+000
7.886503e+002,4.045654e+000
7.896145e+002,2.581528e+000
7.905787e+002,2.071426e+000
7.915430e+002,2.260529e+000
7.925072e+002,3.585281e+000
7.934714e+002,4.828079e+000
7.944357e+002,4.311859e+000
7.953999e+002,2.321121e+000
7.963641e+002,5.361328e-001
7.973284e+002,8.322601e-001
7.982926e+002,3.361511e+000
7.992568e+002,5.302048e+000
8.002211e+002,6.805130e+000
8.011853e+002,7.288559e+000
8.021495e+002,6.136108e+000
8.031138e+002,4.019455e+000
8.040780e+002,2.873398e+000
8.050422e+002,3.242813e+000
8.060065e+002,4.069824e+000
8.069707e+002,5.448364e+000
8.079349e+002,6.654419e+000
8.088992e+002,7.006927e+000
8.098634e+002,6.337479e+000
8.108276e+002,5.112701e+000
8.117919e+002,3.354385e+000
8.127561e+002,1.539276e+000
8.137203e+002,1.273956e+000
8.146846e+002,2.815430e+000
8.156488e+002,4.894730e+000
8.166130e+002,5.892014e+000
8.175773e+002,5.605347e+000
8.185415e+002,5.235886e+000
8.195057e+002,4.790924e+000
8.204700e+002,4.085114e+000
8.214342e+002,2.402573e+000
8.223984e+002,4.269867e-001
8.233627e+002,1.506805e-001
8.243269e+002,3.307343e+000
8.252911e+002,6.222168e+000
8.262554e+002,6.697815e+000
8.272196e+002,5.943710e+000
8.281838e+002,4.859879e+000
8.291481e+002,3.961044e+000
8.301123e+002,3.569183e+000
8.310765e+002,4.518692e+000
8.320408e+002,6.574463e+000
8.330050e+002,7.250931e+000
8.339692e+002,6.130661e+000
8.349335e+002,4.608154e+000
8.358977e+002,4.216736e+000
8.368619e+002,5.224350e+000
8.378262e+002,5.816681e+000
8.387904e+002,5.208939e+000
8.397546e+002,4.852264e+000
8.407189e+002,5.514786e+000
8.416831e+002,6.592102e+000
8.426473e+002,6.872559e+000
8.436116e+002,5.645721e+000
8.445758e+002,4.345200e+000
8.455400e+002,4.629608e+000
8.465043e+002,5.420212e+000
8.474685e+002,5.731873e+000
8.484327e+002,5.336029e+000
8.493970e+002,4.462997e+000
8.503612e+002,3.308762e+000
8.513254e+002,1.665817e+000
8.522897e+002,1.306198e+000
8.532539e+002,2.738037e+000
8.542181e+002,4.459869e+000
8.551824e+002,5.745712e+000
8.561466e+002,6.749176e+000
8.571108e+002,7.958282e+000
8.580751e+002,9.849594e+000
8.590393e+002,1.082382e+001
8.600035e+002,9.584290e+000
8.609678e+002,7.801590e+000
8.619320e+002,7.536911e+000
8.628962e+002,9.514832e+000
8.638605e+002,1.212917e+001
8.648247e+002,1.307343e+001
8.657889e+002,1.274818e+001
8.667532e+002,1.167729e+001
8.677174e+002,9.937363e+000
8.686816e+002,8.588196e+000
8.696459e+002,9.023178e+000
8.706101e+002,1.164435e+001
8.715743e+002,1.343999e+001
8.725386e+002,1.433827e+001
8.735028e+002,1.464716e+001
8.744670e+002,1.372688e+001
8.754313e+002,1.226953e+001
8.763955e+002,1.165900e+001
8.773597e+002,1.253363e+001
8.783240e+002,1.387209e+001
8.792882e+002,1.536816e+001
8.802524e+002,1.656400e+001
8.812167e+002,1.678740e+001
8.821809e+002,1.610902e+001
8.831451e+002,1.534471e+001
8.841094e+002,1.558728e+001
8.850736e+002,1.688258e+001
8.860378e+002,1.797017e+001
8.870021e+002,1.884291e+001
8.879663e+002,1.939285e+001
8.889305e+002,1.915114e+001
8.898948e+002,1.836186e+001
8.908590e+002,1.858844e+001
8.918232e+002,2.123997e+001
8.927875e+002,2.287483e+001
8.937517e+002,2.185869e+001
8.947159e+002,2.033072e+001
8.956802e+002,2.022119e+001
8.966444e+002,2.174641e+001
8.976086e+002,2.328278e+001
8.985729e+002,2.330115e+001
8.995371e+002,2.240297e+001
9.005013e+002,2.135371e+001
9.014656e+002,2.033612e+001
9.024298e+002,1.977640e+001
9.033940e+002,1.996573e+001
9.043583e+002,2.073723e+001
9.053225e+002,2.141589e+001
9.062867e+002,2.147173e+001
9.072510e+002,2.201218e+001
9.082152e+002,2.404233e+001
9.091794e+002,2.614909e+001
9.101437e+002,2.669528e+001
9.111079e+002,2.539465e+001
9.120721e+002,2.406367e+001
9.130364e+002,2.348460e+001
9.140006e+002,2.326530e+001
9.149648e+002,2.333429e+001
9.159291e+002,2.373053e+001
9.168933e+002,2.470990e+001
9.178575e+002,2.636729e+001
9.188218e+002,2.805171e+001
9.197860e+002,2.730379e+001
9.207502e+002,2.400732e+001
9.217145e+002,2.148071e+001
9.226787e+002,2.059470e+001
9.236429e+002,2.073706e+001
9.246072e+002,2.125737e+001
9.255714e+002,2.228514e+001
9.265356e+002,2.256430e+001
9.274999e+002,2.057425e+001
9.284641e+002,1.914616e+001
9.294283e+002,1.967633e+001
9.303926e+002,2.146706e+001
9.313568e+002,2.329192e+001
9.323210e+002,2.456023e+001
9.332853e+002,2.513744e+001
9.342495e+002,2.429245e+001
9.352137e+002,2.268198e+001
9.361780e+002,2.136737e+001
9.371422e+002,2.065355e+001
9.381064e+002,2.007396e+001
9.390707e+002,1.876634e+001
9.400349e+002,1.626465e+001
9.409991e+002,1.549561e+001
9.419634e+002,1.823740e+001
9.429276e+002,2.014038e+001
9.438918e+002,1.952695e+001
9.448561e+002,1.758284e+001
9.458203e+002,1.642149e+001
9.467845e+002,1.678551e+001
9.477488e+002,1.727075e+001
9.487130e+002,1.686395e+001
9.496772e+002,1.606232e+001
9.506415e+002,1.502324e+001
9.516057e+002,1.391068e+001
9.525699e+002,1.295757e+001
9.535342e+002,1.236037e+001
9.544984e+002,1.211736e+001
9.554626e+002,1.278503e+001
9.564269e+002,1.477165e+001
9.573911e+002,1.631021e+001
9.583553e+002,1.686009e+001
9.593196e+002,1.665561e+001
9.602838e+002,1.583731e+001
9.612480e+002,1.405461e+001
9.622123e+002,1.304701e+001
9.631765e+002,1.446117e+001
9.641407e+002,1.567378e+001
9.651050e+002,1.505083e+001
9.660692e+002,1.321001e+001
9.670334e+002,1.173584e+001
9.679977e+002,1.166803e+001
9.689619e+002,1.252872e+001
9.699261e+002,1.357500e+001
9.708904e+002,1.451042e+001
9.718546e+002,1.416862e+001
9.728188e+002,1.190573e+001
9.737831e+002,9.724503e+000
9.747473e+002,1.092126e+001
9.757115e+002,1.665126e+001
9.766758e+002,1.961021e+001
9.776400e+002,1.665669e+001
9.786042e+002,1.492458e+001
9.795685e+002,1.741821e+001
9.805327e+002,2.136601e+001
9.814969e+002,2.291637e+001
9.824612e+002,2.084738e+001
9.834254e+002,1.765460e+001
9.843896e+002,1.481317e+001
9.853539e+002,1.257521e+001
9.863181e+002,1.157939e+001
9.872823e+002,1.158266e+001
9.882466e+002,1.162627e+001
9.892108e+002,1.097911e+001
9.901750e+002,9.973053e+000
9.911393e+002,1.005640e+001
9.921035e+002,1.219669e+001
9.930677e+002,1.327615e+001
9.940320e+002,1.272293e+001
9.949962e+002,1.162434e+001
9.959604e+002,1.051306e+001
9.969247e+002,9.554047e+000
9.978889e+002,1.006444e+001
9.988531e+002,1.413136e+001
9.998174e+002,1.771814e+001
1.000782e+003,1.818549e+001
1.001746e+003,1.685703e+001
1.002710e+003,1.558890e+001
1.003674e+003,1.524536e+001
1.004639e+003,1.544366e+001
1.005603e+003,1.554492e+001
1.006567e+003,1.550008e+001
1.007531e+003,1.537402e+001
1.008495e+003,1.504141e+001
1.009460e+003,1.490283e+001
1.010424e+003,1.536748e+001
1.011388e+003,1.628714e+001
1.012352e+003,1.710370e+001
1.013317e+003,1.831358e+001
1.014281e+003,1.798465e+001
1.015245e+003,1.381810e+001
1.016209e+003,9.620956e+000
1.017174e+003,8.825760e+000
1.018138e+003,1.102524e+001
1.019102e+003,1.285341e+001
1.020066e+003,1.149263e+001
1.021031e+003,8.283005e+000
1.021995e+003,6.853485e+000
1.022959e+003,6.764587e+000
1.023923e+003,6.849838e+000
1.024887e+003,6.776672e+000
1.025852e+003,6.581345e+000
1.026816e+003,6.502090e+000
1.027780e+003,6.825806e+000
1.028744e+003,6.259613e+000
1.029709e+003,3.439941e+000
1.030673e+003,1.162537e+000
1.031637e+003,4.742584e-001
1.032601e+003,6.784210e-001
1.033566e+003,7.331543e-001
1.034530e+003,3.070526e-001
1.035494e+003,1.012878e-001
1.036458e+003,1.275681e+000
1.037422e+003,2.834854e+000
1.038387e+003,3.063766e+000
1.039351e+003,1.970520e+000
1.040315e+003,4.483795e-001
1.041279e+003,-9.180756e-001
1.042244e+003,-1.969193e+000
1.043208e+003,-2.033905e+000
1.044172e+003,-3.756256e-001
1.045136e+003,8.593140e-001
1.046101e+003,1.997086e+000
1.047065e+003,2.479324e+000
1.048029e+003,1.360016e+000
1.048993e+003,-8.570404e-001
1.049958e+003,-2.196259e+000
1.050922e+003,-1.371429e+000
1.051886e+003,-2.042999e-001
1.052850e+003,-1.235336e+000
1.053814e+003,-2.830170e+000
1.054779e+003,-2.490463e+000
1.055743e+003,1.015015e-001
1.056707e+003,2.993378e+000
1.057671e+003,3.827652e+000
1.058636e+003,2.569077e+000
1.059600e+003,1.543869e+000
1.060564e+003,6.226349e-001
1.061528e+003,3.363037e-001
1.062493e+003,1.654205e+000
1.063457e+003,2.882935e+000
1.064421e+003,1.475693e+000
1.065385e+003,-2.694016e+000
1.066349e+003,-5.164948e+000
1.067314e+003,-2.147430e+000
1.068278e+003,1.486374e+000
1.069242e+003,2.134567e+000
1.070206e+003,1.105392e+000
1.071171e+003,6.902466e-001
1.072135e+003,1.745239e+000
1.073099e+003,3.046494e+000
1.074063e+003,2.553070e+000
1.075028e+003,6.570435e-002
1.075992e+003,-1.297546e+000
1.076956e+003,-1.368729e+000
1.077920e+003,-1.031830e+000
1.078885e+003,-2.285309e-001
1.079849e+003,7.693787e-001
1.080813e+003,1.407608e+000
1.081777e+003,1.601044e+000
1.082741e+003,1.590561e+000
1.083706e+003,6.872559e-001
1.084670e+003,1.276703e-001
1.085634e+003,1.232574e+000
1.086598e+003,3.129166e+000
1.087563e+003,3.950912e+000
1.088527e+003,2.786713e+000
1.089491e+003,8.960114e-001
1.090455e+003,6.804504e-001
1.091420e+003,2.295334e+000
1.092384e+003,3.125061e+000
1.093348e+003,2.829346e+000
1.094312e+003,2.260773e+000
1.095276e+003,2.025650e+000
1.096241e+003,2.009689e+000
1.097205e+003,1.646927e+000
1.098169e+003,6.526184e-001
1.099133e+003,-2.791901e-001
1.100098e+003,-1.025467e+000
1.101062e+003,-1.430573e+000
1.102026e+003,-1.329315e+000
1.102990e+003,-7.891083e-001
1.103955e+003,2.083893e-001
1.104919e+003,1.628723e+000
1.105883e+003,2.811539e+000
1.106847e+003,2.159531e+000
1.107812e+003,-3.638611e-001
1.108776e+003,-1.808105e+000
1.109740e+003,-1.778336e+000
1.110704e+003,-1.234756e+000
1.111668e+003,-6.842804e-001
1.112633e+003,-6.269836e-002
1.113597e+003,7.263947e-001
1.114561e+003,1.922958e+000
1.115525e+003,2.517075e+000
1.116490e+003,1.778442e+000
1.117454e+003,8.111877e-001
1.118418e+003,2.043610e-001
1.119382e+003,1.111298e-001
1.120347e+003,5.762024e-001
1.121311e+003,1.547668e+000
1.122275e+003,2.509079e+000
1.123239e+003,2.521194e+000
1.124203e+003,1.808380e+000
1.125168e+003,1.708847e+000
1.126132e+003,2.399536e+000
1.127096e+003,3.578156e+000
1.128060e+003,5.456375e+000
1.129025e+003,7.659409e+000
1.129989e+003,8.351303e+000
1.130953e+003,6.509521e+000
1.131917e+003,5.104584e+000
1.132882e+003,5.058868e+000
1.133846e+003,5.571701e+000
1.134810e+003,6.154633e+000
1.135774e+003,6.898544e+000
1.136739e+003,8.370926e+000
1.137703e+003,1.085286e+001
1.138667e+003,1.340331e+001
1.139631e+003,1.426665e+001
1.140595e+003,1.357750e+001
1.141560e+003,1.301900e+001
1.142524e+003,1.246335e+001
1.143488e+003,1.303018e+001
1.144452e+003,1.589348e+001
1.145417e+003,2.046713e+001
1.146381e+003,2.466588e+001
1.147345e+003,2.840848e+001
1.148309e+003,3.170483e+001
1.149274e+003,3.409297e+001
1.150238e+003,3.665262e+001
1.151202e+003,3.988832e+001
1.152166e+003,4.382375e+001
1.153130e+003,4.869733e+001
1.154095e+003,5.438751e+001
1.155059e+003,5.945247e+001
1.156023e+003,6.193982e+001
1.156987e+003,6.195648e+001
1.157952e+003,6.141008e+001
1.158916e+003,6.062672e+001
1.159880e+003,5.862735e+001
1.160844e+003,5.365048e+001
1.161809e+003,4.713986e+001
1.162773e+003,4.310583e+001
1.163737e+003,4.247502e+001
1.164701e+003,4.021585e+001
1.165666e+003,3.274796e+001
1.166630e+003,2.596767e+001
1.167594e+003,2.214024e+001
1.168558e+003,2.026904e+001
1.169522e+003,1.904012e+001
1.170487e+003,1.789037e+001
1.171451e+003,1.687100e+001
1.172415e+003,1.603468e+001
1.173379e+003,1.531850e+001
1.174344e+003,1.432405e+001
1.175308e+003,1.296190e+001
1.176272e+003,1.256032e+001
1.177236e+003,1.473466e+001
1.178201e+003,1.723311e+001
1.179165e+003,1.666631e+001
1.180129e+003,1.292287e+001
1.181093e+003,1.007513e+001
1.182057e+003,9.497391e+000
1.183022e+003,9.232147e+000
1.183986e+003,8.569977e+000
1.184950e+003,7.818832e+000
1.185914e+003,7.061447e+000
1.186879e+003,6.538620e+000
1.187843e+003,6.862061e+000
1.188807e+003,8.532013e+000
1.189771e+003,1.093250e+001
1.190736e+003,1.231670e+001
1.191700e+003,1.257748e+001
1.192664e+003,1.268503e+001
1.193628e+003,1.307239e+001
1.194593e+003,1.297813e+001
1.195557e+003,1.125584e+001
1.196521e+003,8.544662e+000
1.197485e+003,7.428345e+000
1.198449e+003,8.994644e+000
1.199414e+003,9.971375e+000
1.200378e+003,7.936005e+000
1.201342e+003,5.698654e+000
1.202306e+003,5.338440e+000
1.203271e+003,6.089020e+000
1.204235e+003,5.828278e+000
1.205199e+003,3.654480e+000
1.206163e+003,1.108719e+000
1.207128e+003,8.350677e-001
1.208092e+003,3.003052e+000
1.209056e+003,4.109756e+000
1.210020e+003,4.227280e+000
1.210984e+003,3.448105e+000
1.211949e+003,1.045135e+000
1.212913e+003,-1.819443e+000
1.213877e+003,-3.476212e+000
1.214841e+003,-3.830322e+000
1.215806e+003,-4.376999e+000
1.216770e+003,-5.920868e+000
1.217734e+003,-7.473969e+000
1.218698e+003,-8.605881e+000
1.219663e+003,-9.298767e+000
1.220627e+003,-9.196030e+000
1.221591e+003,-8.485931e+000
1.222555e+003,-8.181183e+000
1.223520e+003,-9.238937e+000
1.224484e+003,-1.122359e+001
1.225448e+003,-1.222282e+001
1.226412e+003,-1.208934e+001
1.227376e+003,-1.111888e+001
1.228341e+003,-8.191040e+000
1.229305e+003,-5.768890e+000
1.230269e+003,-5.164352e+000
1.231233e+003,-6.031464e+000
1.232198e+003,-7.863800e+000
1.233162e+003,-1.057742e+001
1.234126e+003,-1.283560e+001
1.235090e+003,-1.387212e+001
1.236055e+003,-1.381813e+001
1.237019e+003,-1.200545e+001
1.237983e+003,-9.375488e+000
1.238947e+003,-8.525650e+000
1.239911e+003,-1.046815e+001
1.240876e+003,-1.309871e+001
1.241840e+003,-1.321188e+001
1.242804e+003,-1.061397e+001
1.243768e+003,-9.023544e+000
1.244733e+003,-9.617218e+000
1.245697e+003,-9.688736e+000
1.246661e+003,-8.980423e+000
1.247625e+003,-7.897888e+000
1.248590e+003,-6.128830e+000
1.249554e+003,-4.174774e+000
1.250518e+003,-3.491348e+000
1.251482e+003,-4.842072e+000
1.252447e+003,-7.038757e+000
1.253411e+003,-8.972778e+000
1.254375e+003,-1.044531e+001
1.255339e+003,-1.097517e+001
1.256303e+003,-1.055510e+001
1.257268e+003,-1.019858e+001
1.258232e+003,-1.082771e+001
1.259196e+003,-1.157529e+001
1.260160e+003,-1.013124e+001
1.261125e+003,-5.842163e+000
1.262089e+003,-3.021973e+000
1.263053e+003,-2.853622e+000
1.264017e+003,-3.565399e+000
1.264982e+003,-5.898331e+000
1.265946e+003,-8.004623e+000
1.266910e+003,-7.532181e+000
1.267874e+003,-5.053040e+000
1.268839e+003,-3.527084e+000
1.269803e+003,-4.929260e+000
1.270767e+003,-7.667465e+000
1.271731e+003,-8.718460e+000
1.272695e+003,-8.030807e+000
1.273660e+003,-7.210922e+000
1.274624e+003,-6.379654e+000
1.275588e+003,-5.548935e+000
1.276552e+003,-4.262909e+000
1.277517e+003,-3.037506e+000
1.278481e+003,-3.035217e+000
1.279445e+003,-4.407532e+000
1.280409e+003,-6.129547e+000
1.281374e+003,-8.681046e+000
1.282338e+003,-1.033797e+001
1.283302e+003,-9.485931e+000
1.284266e+003,-7.812592e+000
1.285230e+003,-7.241684e+000
1.286195e+003,-8.015305e+000
1.287159e+003,-9.134430e+000
1.288123e+003,-9.747116e+000
1.289087e+003,-9.977097e+000
1.290052e+003,-1.039777e+001
1.291016e+003,-1.142731e+001
1.291980e+003,-1.119460e+001
1.292944e+003,-8.485535e+000
1.293909e+003,-6.339249e+000
1.294873e+003,-6.124207e+000
1.295837e+003,-6.899780e+000
1.296801e+003,-7.406387e+000
1.297766e+003,-7.480011e+000
1.298730e+003,-7.775955e+000
1.299694e+003,-8.833450e+000
1.300658e+003,-9.996460e+000
1.301622e+003,-1.078044e+001
1.302587e+003,-1.103630e+001
1.303551e+003,-1.009172e+001
1.304515e+003,-7.986191e+000
1.305479e+003,-6.395905e+000
1.306444e+003,-6.847015e+000
1.307408e+003,-8.684448e+000
1.308372e+003,-9.541321e+000
1.309336e+003,-9.062119e+000
1.310301e+003,-8.703400e+000
1.311265e+003,-8.336639e+000
1.312229e+003,-8.256363e+000
1.313193e+003,-8.687195e+000
1.314157e+003,-9.396713e+000
1.315122e+003,-1.053645e+001
1.316086e+003,-1.179362e+001
1.317050e+003,-1.196812e+001
1.318014e+003,-1.013893e+001
1.318979e+003,-7.643661e+000
1.319943e+003,-7.061523e+000
1.320907e+003,-8.123886e+000
1.321871e+003,-8.381195e+000
1.322836e+003,-7.523651e+000
1.323800e+003,-7.020584e+000
1.324764e+003,-8.350800e+000
1.325728e+003,-1.013141e+001
1.326693e+003,-9.615952e+000
1.327657e+003,-6.726349e+000
1.328621e+003,-4.910568e+000
1.329585e+003,-5.504379e+000
1.330549e+003,-6.127365e+000
1.331514e+003,-5.124710e+000
1.332478e+003,-4.188232e+000
1.333442e+003,-5.363266e+000
1.334406e+003,-8.124222e+000
1.335371e+003,-1.020729e+001
1.336335e+003,-1.025548e+001
1.337299e+003,-9.181091e+000
1.338263e+003,-8.755432e+000
1.339228e+003,-9.103180e+000
1.340192e+003,-8.874878e+000
1.341156e+003,-7.499146e+000
1.342120e+003,-6.433640e+000
1.343084e+003,-5.910141e+000
1.344049e+003,-5.886002e+000
1.345013e+003,-6.745956e+000
1.345977e+003,-7.945099e+000
1.346941e+003,-7.815521e+000
1.347906e+003,-5.663330e+000
1.348870e+003,-3.760300e+000
1.349834e+003,-4.420074e+000
1.350798e+003,-6.653610e+000
1.351763e+003,-8.651001e+000
1.352727e+003,-1.029918e+001
1.353691e+003,-1.115804e+001
1.354655e+003,-1.101665e+001
1.355620e+003,-1.020299e+001
1.356584e+003,-8.697830e+000
1.357548e+003,-6.654358e+000
1.358512e+003,-5.875092e+000
1.359476e+003,-7.182999e+000
1.360441e+003,-8.031906e+000
1.361405e+003,-7.188736e+000
1.362369e+003,-6.303635e+000
1.363333e+003,-6.017441e+000
1.364298e+003,-6.268967e+000
1.365262e+003,-7.181610e+000
1.366226e+003,-8.521271e+000
1.367190e+003,-9.310928e+000
1.368155e+003,-8.657181e+000
1.369119e+003,-7.123108e+000
1.370083e+003,-6.474350e+000
1.371047e+003,-6.905197e+000
1.372011e+003,-7.335526e+000
1.372976e+003,-8.224731e+000
1.373940e+003,-8.686951e+000
1.374904e+003,-7.944901e+000
1.375868e+003,-6.822510e+000
1.376833e+003,-6.469589e+000
1.377797e+003,-6.904984e+000
1.378761e+003,-7.265381e+000
1.379725e+003,-7.190216e+000
1.380690e+003,-6.853409e+000
1.381654e+003,-6.025909e+000
1.382618e+003,-5.223785e+000
1.383582e+003,-5.564865e+000
1.384547e+003,-6.858109e+000
1.385511e+003,-7.334290e+000
1.386475e+003,-5.944077e+000
1.387439e+003,-4.019699e+000
1.388403e+003,-3.979568e+000
1.389368e+003,-5.820770e+000
1.390332e+003,-5.562302e+000
1.391296e+003,-9.740295e-001
1.392260e+003,1.464005e+000
1.393225e+003,-1.354965e+000
1.394189e+003,-4.712006e+000
1.395153e+003,-6.175064e+000
1.396117e+003,-6.287872e+000
1.397082e+003,-6.258636e+000
1.398046e+003,-6.414246e+000
1.399010e+003,-6.052399e+000
1.399974e+003,-4.515167e+000
1.400938e+003,-2.761963e+000
1.401903e+003,-3.782181e+000
1.402867e+003,-8.555603e+000
1.403831e+003,-1.067499e+001
1.404795e+003,-8.506744e+000
1.405760e+003,-6.236221e+000
1.406724e+003,-5.493225e+000
1.407688e+003,-5.511932e+000
1.408652e+003,-5.393982e+000
1.409617e+003,-4.925964e+000
1.410581e+003,-3.938904e+000
1.411545e+003,-2.225601e+000
1.412509e+003,-7.659607e-001
1.413474e+003,-8.683472e-001
1.414438e+003,-1.768036e+000
1.415402e+003,-1.774857e+000
1.416366e+003,-1.035110e+000
1.417330e+003,-1.288071e+000
1.418295e+003,-3.559616e+000
1.419259e+003,-5.704010e+000
1.420223e+003,-4.754883e+000
1.421187e+003,-1.378723e+000
1.422152e+003,4.869537e-001
1.423116e+003,5.374908e-001
1.424080e+003,1.089172e-001
1.425044e+003,-9.713440e-001
1.426009e+003,-2.081543e+000
1.426973e+003,-3.185303e+000
1.427937e+003,-4.047867e+000
1.428901e+003,-4.134323e+000
1.429865e+003,-3.605682e+000
1.430830e+003,-3.455246e+000
1.431794e+003,-4.352097e+000
1.432758e+003,-5.495590e+000
1.433722e+003,-5.172104e+000
1.434687e+003,-3.152344e+000
1.435651e+003,-1.115051e+000
1.436615e+003,1.576538e+000
1.437579e+003,2.784119e+000
1.438544e+003,1.041992e+000
1.439508e+003,-8.712921e-001
1.440472e+003,-1.051117e+000
1.441436e+003,4.304504e-002
1.442401e+003,1.563736e+000
1.443365e+003,3.098953e+000
1.444329e+003,3.566879e+000
1.445293e+003,1.893936e+000
1.446257e+003,-4.256439e-001
1.447222e+003,-2.612457e-001
1.448186e+003,1.833603e+000
1.449150e+003,2.892471e+000
1.450114e+003,2.494400e+000
1.451079e+003,1.664108e+000
1.452043e+003,7.225342e-001
1.453007e+003,-1.155548e-001
1.453971e+003,-5.593262e-001
1.454936e+003,-6.842957e-001
1.455900e+003,-9.113922e-001
1.456864e+003,-1.454803e+000
1.457828e+003,-1.487473e+000
1.458792e+003,1.556396e-001
1.459757e+003,1.779510e+000
1.460721e+003,1.879959e+000
1.461685e+003,9.285583e-001
1.462649e+003,-3.068542e-002
1.463614e+003,-6.722717e-001
1.464578e+003,-1.284882e+000
1.465542e+003,-2.191376e+000
1.466506e+003,-3.227875e+000
1.467471e+003,-3.874207e+000
1.468435e+003,-4.097214e+000
1.469399e+003,-3.649582e+000
1.470363e+003,-2.385834e+000
1.471328e+003,-7.726593e-001
1.472292e+003,1.935547e+000
1.473256e+003,3.984772e+000
1.474220e+003,3.779602e+000
1.475184e+003,2.248749e+000
1.476149e+003,1.154495e+000
1.477113e+003,1.056366e+000
1.478077e+003,1.256775e+000
1.479041e+003,1.145645e+000
1.480006e+003,9.796906e-001
1.480970e+003,1.511581e+000
1.481934e+003,3.096298e+000
1.482898e+003,3.410950e+000
1.483863e+003,1.106461e+000
1.484827e+003,-4.622040e-001
1.485791e+003,3.610535e-001
1.486755e+003,1.747513e+000
1.487719e+003,1.593491e+000
1.488684e+003,5.126953e-001
1.489648e+003,9.087830e-001
1.490612e+003,3.526611e+000
1.491576e+003,6.039825e+000
1.492541e+003,6.397995e+000
1.493505e+003,5.599716e+000
1.494469e+003,5.852661e+000
1.495433e+003,6.885513e+000
1.496398e+003,7.613358e+000
1.497362e+003,7.966949e+000
1.498326e+003,8.286392e+000
1.499290e+003,8.241623e+000
1.500255e+003,8.589020e+000
1.501219e+003,1.067233e+001
1.502183e+003,1.415866e+001
1.503147e+003,1.717445e+001
1.504111e+003,1.928696e+001
1.505076e+003,2.101764e+001
1.506040e+003,2.244302e+001
1.507004e+003,2.389017e+001
1.507968e+003,2.526381e+001
1.508933e+003,2.700342e+001
1.509897e+003,3.021291e+001
1.510861e+003,3.514256e+001
1.511825e+003,4.065546e+001
1.512790e+003,4.600293e+001
1.513754e+003,5.110542e+001
1.514718e+003,5.589409e+001
1.515682e+003,6.029680e+001
1.516646e+003,6.462842e+001
1.517611e+003,6.905060e+001
1.518575e+003,7.331874e+001
1.519539e+003,7.725189e+001
1.520503e+003,8.128242e+001
1.521468e+003,8.659428e+001
1.522432e+003,9.157294e+001
1.523396e+003,9.381422e+001
1.524360e+003,9.324733e+001
1.525325e+003,9.183563e+001
1.526289e+003,9.090234e+001
1.527253e+003,8.980977e+001
1.528217e+003,8.740694e+001
1.529182e+003,8.375812e+001
1.530146e+003,7.893974e+001
1.531110e+003,7.202660e+001
1.532074e+003,6.549120e+001
1.533039e+003,5.974606e+001
1.534003e+003,5.373692e+001
1.534967e+003,4.698500e+001
1.535931e+003,4.007390e+001
1.536896e+003,3.333234e+001
1.537860e+003,2.709483e+001
1.538824e+003,2.179140e+001
1.539788e+003,1.760905e+001
1.540752e+003,1.447241e+001
1.541717e+003,1.238068e+001
1.542681e+003,1.125484e+001
1.543645e+003,1.027988e+001
1.544609e+003,9.718063e+000
1.545573e+003,8.844101e+000
1.546538e+003,6.670151e+000
1.547502e+003,5.247345e+000
1.548466e+003,6.115082e+000
1.549430e+003,7.646042e+000
1.550395e+003,8.006470e+000
1.551359e+003,7.417526e+000
1.552323e+003,7.129303e+000
1.553287e+003,7.602417e+000
1.554252e+003,8.587082e+000
1.555216e+003,1.006142e+001
1.556180e+003,1.132707e+001
1.557144e+003,1.056706e+001
1.558109e+003,7.725250e+000
1.559073e+003,5.091705e+000
1.560037e+003,2.220932e+000
1.561001e+003,3.600769e-001
1.561966e+003,7.116547e-001
1.562930e+003,1.705200e+000
1.563894e+003,1.613739e+000
1.564858e+003,9.634399e-001
1.565823e+003,1.555374e+000
1.566787e+003,3.613647e+000
1.567751e+003,4.904449e+000
1.568715e+003,3.935516e+000
1.569679e+003,2.548340e+000
1.570644e+003,3.482712e+000
1.571608e+003,5.586639e+000
1.572572e+003,5.193451e+000
1.573536e+003,2.173187e+000
1.574500e+003,7.616425e-001
1.575465e+003,3.163803e+000
1.576429e+003,6.198181e+000
1.577393e+003,7.404175e+000
1.578357e+003,7.352173e+000
1.579322e+003,7.213638e+000
1.580286e+003,7.072235e+000
1.581250e+003,6.169464e+000
1.582214e+003,3.804794e+000
1.583179e+003,2.463257e+000
1.584143e+003,5.148254e+000
1.585107e+003,8.706421e+000
1.586071e+003,8.618713e+000
1.587036e+003,6.064850e+000
1.588000e+003,4.441467e+000
1.588964e+003,4.430206e+000
1.589928e+003,4.926346e+000
1.590893e+003,5.290405e+000
1.591857e+003,5.702179e+000
1.592821e+003,6.844742e+000
1.593785e+003,8.407883e+000
1.594750e+003,8.039993e+000
1.595714e+003,4.917084e+000
1.596678e+003,3.209488e+000
1.597642e+003,5.414520e+000
1.598606e+003,8.345444e+000
1.599571e+003,9.824265e+000
1.600535e+003,1.031085e+001
1.601499e+003,1.003780e+001
1.602463e+003,9.220139e+000
1.603427e+003,8.580582e+000
1.604392e+003,8.391708e+000
1.605356e+003,8.647949e+000
1.606320e+003,9.695068e+000
1.607284e+003,1.107660e+001
1.608249e+003,1.129504e+001
1.609213e+003,1.029842e+001
1.610177e+003,9.810455e+000
1.611141e+003,1.038571e+001
1.612106e+003,1.081123e+001
1.613070e+003,1.034105e+001
1.614034e+003,9.627914e+000
1.614998e+003,8.752441e+000
1.615963e+003,8.125565e+000
1.616927e+003,8.705719e+000
1.617891e+003,1.038376e+001
1.618855e+003,1.152603e+001
1.619820e+003,1.105836e+001
1.620784e+003,9.906052e+000
1.621748e+003,9.600708e+000
1.622712e+003,1.005029e+001
1.623677e+003,9.810532e+000
1.624641e+003,8.646881e+000
1.625605e+003,8.222977e+000
1.626569e+003,9.171906e+000
1.627533e+003,1.003348e+001
1.628498e+003,1.047931e+001
1.629462e+003,1.041014e+001
1.630426e+003,9.033936e+000
1.631390e+003,7.210739e+000
1.632354e+003,6.980179e+000
1.633319e+003,8.673981e+000
1.634283e+003,1.041649e+001
1.635247e+003,1.078856e+001
1.636211e+003,1.047087e+001
1.637176e+003,1.094455e+001
1.638140e+003,1.212605e+001
1.639104e+003,1.187741e+001
1.640068e+003,9.427597e+000
1.641033e+003,8.176056e+000
1.641997e+003,9.810242e+000
1.642961e+003,1.168820e+001
1.643925e+003,1.254138e+001
1.644890e+003,1.293739e+001
1.645854e+003,1.345575e+001
1.646818e+003,1.398489e+001
1.647782e+003,1.425110e+001
1.648747e+003,1.411156e+001
1.649711e+003,1.308327e+001
1.650675e+003,1.052817e+001
1.651639e+003,7.514420e+000
1.652604e+003,6.194489e+000
1.653568e+003,6.473740e+000
1.654532e+003,7.210297e+000
1.655496e+003,8.681229e+000
1.656460e+003,9.382797e+000
1.657425e+003,8.055450e+000
1.658389e+003,7.055511e+000
1.659353e+003,8.113358e+000
1.660317e+003,9.760132e+000
1.661281e+003,1.052571e+001
1.662246e+003,1.041161e+001
1.663210e+003,9.794479e+000
1.664174e+003,8.878860e+000
1.665138e+003,8.515274e+000
1.666103e+003,9.751343e+000
1.667067e+003,1.135452e+001
1.668031e+003,1.045938e+001
1.668995e+003,7.328094e+000
1.669960e+003,5.505096e+000
1.670924e+003,5.393814e+000
1.671888e+003,6.137299e+000
1.672852e+003,8.415833e+000
1.673817e+003,1.003398e+001
1.674781e+003,8.799942e+000
1.675745e+003,6.809509e+000
1.676709e+003,6.567337e+000
1.677674e+003,7.630661e+000
1.678638e+003,7.982330e+000
1.679602e+003,7.005234e+000
1.680566e+003,5.881439e+000
1.681531e+003,5.561905e+000
1.682495e+003,5.684250e+000
1.683459e+003,5.732956e+000
1.684423e+003,5.590958e+000
1.685387e+003,4.442825e+000
1.686352e+003,1.956741e+000
1.687316e+003,9.727936e-001
1.688280e+003,3.262054e+000
1.689244e+003,5.611572e+000
1.690208e+003,5.407928e+000
1.691173e+003,4.115417e+000
1.692137e+003,3.032806e+000
1.693101e+003,2.321350e+000
1.694065e+003,2.076477e+000
1.695030e+003,2.266983e+000
1.695994e+003,2.711609e+000
1.696958e+003,3.565109e+000
1.697922e+003,4.370346e+000
1.698887e+003,4.326828e+000
1.699851e+003,3.825348e+000
1.700815e+003,4.231445e+000
1.701779e+003,5.585159e+000
1.702744e+003,6.108978e+000
1.703708e+003,5.167450e+000
1.704672e+003,3.955750e+000
1.705636e+003,3.078247e+000
1.706601e+003,2.463272e+000
1.707565e+003,2.167694e+000
1.708529e+003,2.184341e+000
1.709493e+003,2.444092e+000
1.710458e+003,2.991913e+000
1.711422e+003,3.158859e+000
1.712386e+003,2.279648e+000
1.713350e+003,1.511978e+000
1.714314e+003,2.137115e+000
1.715279e+003,3.139175e+000
1.716243e+003,2.545242e+000
1.717207e+003,6.748657e-001
1.718171e+003,-3.250732e-001
1.719135e+003,1.523285e-001
1.720100e+003,1.259155e+000
1.721064e+003,2.584778e+000
1.722028e+003,3.723953e+000
1.722992e+003,4.125153e+000
1.723957e+003,3.952560e+000
1.724921e+003,3.786926e+000
1.725885e+003,3.596313e+000
1.726849e+003,2.847565e+000
1.727814e+003,8.935394e-001
1.728778e+003,-5.932617e-001
1.729742e+003,-8.991699e-001
1.730706e+003,-4.731903e-001
1.731671e+003,5.307007e-001
1.732635e+003,1.671066e+000
1.733599e+003,2.400620e+000
1.734563e+003,2.659576e+000
1.735528e+003,2.418671e+000
1.736492e+003,1.635559e+000
1.737456e+003,9.073334e-001
1.738420e+003,9.616699e-001
1.739385e+003,1.554565e+000
1.740349e+003,2.049164e+000
1.741313e+003,2.615067e+000
1.742277e+003,2.482422e+000
1.743241e+003,8.603363e-001
1.744206e+003,-5.775452e-002
1.745170e+003,7.786560e-001
1.746134e+003,1.404861e+000
1.747098e+003,2.422180e-001
1.748063e+003,-1.358917e+000
1.749027e+003,-1.576538e+000
1.749991e+003,-7.532196e-001
1.750955e+003,-5.022125e-001
1.751919e+003,-1.306793e+000
1.752884e+003,-2.127090e+000
1.753848e+003,-2.097992e+000
1.754812e+003,-1.653046e+000
1.755776e+003,-1.637009e+000
1.756741e+003,-1.965500e+000
1.757705e+003,-1.922287e+000
1.758669e+003,-1.557205e+000
1.759633e+003,-8.326721e-001
1.760598e+003,6.896362e-001
1.761562e+003,1.823730e+000
1.762526e+003,2.437119e+000
1.763490e+003,2.477844e+000
1.764455e+003,1.571060e+000
1.765419e+003,2.651215e-001
1.766383e+003,-8.301849e-001
1.767347e+003,-1.551376e+000
1.768312e+003,-1.651932e+000
1.769276e+003,-1.020248e+000
1.770240e+003,-4.498749e-001
1.771204e+003,-9.027557e-001
1.772168e+003,-1.653946e+000
1.773133e+003,-8.398895e-001
1.774097e+003,1.292542e+000
1.775061e+003,1.970612e+000
1.776025e+003,5.503998e-001
1.776990e+003,1.306305e-001
1.777954e+003,2.543060e+000
1.778918e+003,4.622391e+000
1.779882e+003,3.546555e+000
1.780846e+003,1.138321e+000
1.781811e+003,-1.346130e-001
1.782775e+003,-5.190582e-001
1.783739e+003,-9.901123e-001
1.784703e+003,-1.713013e+000
1.785668e+003,-1.879303e+000
1.786632e+003,-9.776306e-001
1.787596e+003,1.655884e-001
1.788560e+003,1.469849e+000
1.789525e+003,2.471024e+000
1.790489e+003,2.038925e+000
1.791453e+003,6.373749e-001
1.792417e+003,-2.722473e-001
1.793382e+003,-3.055573e-001
1.794346e+003,7.348633e-001
1.795310e+003,3.045868e+000
1.796274e+003,5.327759e+000
1.797239e+003,6.247986e+000
1.798203e+003,5.914703e+000
1.799167e+003,4.159500e+000
1.800131e+003,3.730621e-001
1.801095e+003,-1.796478e+000
1.802060e+003,-1.387833e+000
1.803024e+003,-7.792358e-001
1.803988e+003,1.313782e-001
1.804952e+003,6.938019e-001
1.805917e+003,4.989471e-001
1.806881e+003,-1.078186e-001
1.807845e+003,-1.138840e+000
1.808809e+003,-2.100174e+000
1.809773e+003,-1.943634e+000
1.810738e+003,-7.104492e-001
1.811702e+003,1.416931e-001
1.812666e+003,-2.903137e-001
1.813630e+003,-1.083023e+000
1.814595e+003,-9.714661e-001
1.815559e+003,-2.297821e-001
1.816523e+003,3.790283e-002
1.817487e+003,-2.298431e-001
1.818452e+003,4.115295e-002
1.819416e+003,1.494370e+000
1.820380e+003,1.885696e+000
1.821344e+003,-5.256500e-001
1.822309e+003,-2.664307e+000
1.823273e+003,-2.658264e+000
1.824237e+003,-1.480240e+000
1.825201e+003,6.179047e-001
1.826166e+003,2.878174e+000
1.827130e+003,3.332001e+000
1.828094e+003,1.674896e+000
1.829058e+003,1.225739e-001
1.830022e+003,-2.320099e-001
1.830987e+003,-1.544800e-001
1.831951e+003,-1.972504e-001
1.832915e+003,-2.485504e-001
1.833879e+003,-2.170868e-001
1.834844e+003,-4.928589e-002
1.835808e+003,5.082245e-001
1.836772e+003,1.432175e+000
1.837736e+003,2.219025e+000
1.838700e+003,2.629501e+000
1.839665e+003,2.381439e+000
1.840629e+003,1.072769e+000
1.841593e+003,-5.225372e-001
1.842557e+003,-7.135468e-001
1.843522e+003,4.687195e-001
1.844486e+003,8.861542e-001
1.845450e+003,-8.374023e-002
1.846414e+003,-4.403839e-001
1.847379e+003,3.171997e-001
1.848343e+003,7.610321e-001
1.849307e+003,5.509491e-001
1.850271e+003,-1.078644e-001
1.851236e+003,-1.827942e+000
1.852200e+003,-3.342758e+000
1.853164e+003,-2.571960e+000
1.854128e+003,-1.250153e-001
1.855093e+003,1.476196e+000
1.856057e+003,1.393005e+000
1.857021e+003,1.023773e+000
1.857985e+003,1.476288e+000
1.858949e+003,2.356934e+000
1.859914e+003,3.193314e+000
1.860878e+003,3.919907e+000
1.861842e+003,3.970154e+000
1.862806e+003,3.301575e+000
1.863771e+003,2.605331e+000
1.864735e+003,1.905258e+000
1.865699e+003,1.438690e+000
1.866663e+003,1.430710e+000
1.867627e+003,1.577820e+000
1.868592e+003,1.560181e+000
1.869556e+003,1.420349e+000
1.870520e+003,1.276718e+000
1.871484e+003,1.162949e+000
1.872449e+003,1.504837e+000
1.873413e+003,2.863831e+000
1.874377e+003,3.482925e+000
1.875341e+003,1.750748e+000
1.876306e+003,2.438202e-001
1.877270e+003,3.977356e-001
1.878234e+003,1.326950e+000
1.879198e+003,2.757675e+000
1.880163e+003,4.014740e+000
1.881127e+003,3.633102e+000
1.882091e+003,1.992294e+000
1.883055e+003,1.353363e+000
1.884020e+003,2.543152e+000
1.884984e+003,3.816177e+000
1.885948e+003,3.572556e+000
1.886912e+003,2.633698e+000
1.887876e+003,2.730011e+000
1.888841e+003,3.734528e+000
1.889805e+003,3.825989e+000
1.890769e+003,2.684494e+000
1.891733e+003,2.398605e+000
1.892698e+003,3.379700e+000
1.893662e+003,4.608124e+000
1.894626e+003,6.571518e+000
1.895590e+003,7.634445e+000
1.896554e+003,5.671631e+000
1.897519e+003,2.992661e+000
1.898483e+003,2.360031e+000
1.899447e+003,3.329865e+000
1.900411e+003,4.329788e+000
1.901376e+003,5.162994e+000
1.902340e+003,5.519012e+000
1.903304e+003,4.925491e+000
1.904268e+003,4.363678e+000
1.905233e+003,4.620697e+000
1.906197e+003,5.072052e+000
1.907161e+003,5.094345e+000
1.908125e+003,4.853134e+000
1.909090e+003,4.629044e+000
1.910054e+003,4.420776e+000
1.911018e+003,4.135574e+000
1.911982e+003,3.786957e+000
1.912947e+003,3.570221e+000
1.913911e+003,3.608734e+000
1.914875e+003,3.481918e+000
1.915839e+003,2.429077e+000
1.916803e+003,7.015228e-001
1.917768e+003,-2.315369e-001
1.918732e+003,-3.669434e-001
1.919696e+003,7.806854e-001
1.920660e+003,4.152344e+000
1.921625e+003,6.184875e+000
1.922589e+003,5.299545e+000
1.923553e+003,4.172165e+000
1.924517e+003,3.780350e+000
1.925481e+003,4.153473e+000
1.926446e+003,6.166779e+000
1.927410e+003,8.651566e+000
1.928374e+003,9.123474e+000
1.929338e+003,7.510773e+000
1.930303e+003,5.892242e+000
1.931267e+003,4.640442e+000
1.932231e+003,4.207443e+000
1.933195e+003,5.526993e+000
1.934160e+003,6.720413e+000
1.935124e+003,6.315720e+000
1.936088e+003,5.059128e+000
1.937052e+003,3.024231e+000
1.938017e+003,1.370163e+000
1.938981e+003,3.238876e+000
1.939945e+003,7.940842e+000
1.940909e+003,1.025058e+001
1.941874e+003,7.960129e+000
1.942838e+003,4.546661e+000
1.943802e+003,3.253525e+000
1.944766e+003,3.400772e+000
1.945730e+003,3.482651e+000
1.946695e+003,3.537872e+000
1.947659e+003,4.472717e+000
1.948623e+003,6.416779e+000
1.949587e+003,7.495758e+000
1.950552e+003,7.321732e+000
1.951516e+003,7.282959e+000
1.952480e+003,8.108902e+000
1.953444e+003,8.536179e+000
1.954408e+003,7.056198e+000
1.955373e+003,5.232117e+000
1.956337e+003,5.877777e+000
1.957301e+003,8.145416e+000
1.958265e+003,8.530563e+000
1.959230e+003,6.657791e+000
1.960194e+003,5.583130e+000
1.961158e+003,6.182724e+000
1.962122e+003,6.673309e+000
1.963087e+003,6.242096e+000
1.964051e+003,6.062225e+000
1.965015e+003,7.210037e+000
1.965979e+003,8.706802e+000
1.966944e+003,9.677795e+000
1.967908e+003,1.001361e+001
1.968872e+003,9.525894e+000
1.969836e+003,8.550140e+000
1.970801e+003,8.257965e+000
1.971765e+003,9.093765e+000
1.972729e+003,9.900253e+000
1.973693e+003,9.668579e+000
1.974657e+003,8.947815e+000
1.975622e+003,8.391159e+000
1.976586e+003,8.003464e+000
1.977550e+003,7.955475e+000
1.978514e+003,8.198639e+000
1.979479e+003,8.270264e+000
1.980443e+003,8.106949e+000
1.981407e+003,8.215912e+000
1.982371e+003,8.842728e+000
1.983335e+003,9.233276e+000
1.984300e+003,8.782761e+000
1.985264e+003,7.649872e+000
1.986228e+003,5.915955e+000
1.987192e+003,3.997681e+000
1.988157e+003,4.224136e+000
1.989121e+003,7.277588e+000
1.990085e+003,9.074875e+000
1.991049e+003,9.103943e+000
1.992014e+003,8.992142e+000
1.992978e+003,8.540741e+000
1.993942e+003,8.423859e+000
1.994906e+003,9.216919e+000
1.995871e+003,1.007182e+001
1.996835e+003,1.055656e+001
1.997799e+003,1.064201e+001
1.998763e+003,1.008946e+001
1.999728e+003,9.052826e+000
