5.003444e+002,2.278912e+002
5.013087e+002,2.314151e+002
5.022729e+002,2.259608e+002
5.032371e+002,2.150140e+002
5.042014e+002,2.089300e+002
5.051656e+002,2.071603e+002
5.061298e+002,2.066036e+002
5.070941e+002,2.042337e+002
5.080583e+002,1.989645e+002
5.090225e+002,1.963420e+002
5.099868e+002,1.981241e+002
5.109510e+002,1.997748e+002
5.119152e+002,1.987922e+002
5.128795e+002,1.949478e+002
5.138437e+002,1.914313e+002
5.148079e+002,1.900525e+002
5.157722e+002,1.888716e+002
5.167364e+002,1.865563e+002
5.177006e+002,1.830176e+002
5.186649e+002,1.794838e+002
5.196291e+002,1.784589e+002
5.205933e+002,1.789301e+002
5.215576e+002,1.790670e+002
5.225218e+002,1.781226e+002
5.234860e+002,1.759300e+002
5.244503e+002,1.727895e+002
5.254145e+002,1.691696e+002
5.263787e+002,1.658068e+002
5.273430e+002,1.626622e+002
5.283072e+002,1.597886e+002
5.292714e+002,1.571277e+002
5.302357e+002,1.540800e+002
5.311999e+002,1.505571e+002
5.321641e+002,1.465427e+002
5.331284e+002,1.434392e+002
5.340926e+002,1.422783e+002
5.350568e+002,1.432286e+002
5.360211e+002,1.442593e+002
5.369853e+002,1.454313e+002
5.379495e+002,1.459465e+002
5.389138e+002,1.441447e+002
5.398780e+002,1.395988e+002
5.408422e+002,1.337003e+002
5.418065e+002,1.306367e+002
5.427707e+002,1.300160e+002
5.437349e+002,1.294935e+002
5.446992e+002,1.284874e+002
5.456634e+002,1.270063e+002
5.466276e+002,1.252611e+002
5.475919e+002,1.222377e+002
5.485561e+002,1.208792e+002
5.495203e+002,1.226435e+002
5.504846e+002,1.251998e+002
5.514488e+002,1.253399e+002
5.524130e+002,1.215385e+002
5.533773e+002,1.169337e+002
5.543415e+002,1.125621e+002
5.553057e+002,1.087760e+002
5.562700e+002,1.060210e+002
5.572342e+002,1.044729e+002
5.581984e+002,1.033542e+002
5.591627e+002,1.010877e+002
5.601269e+002,9.842859e+001
5.610911e+002,9.614398e+001
5.620554e+002,9.445557e+001
5.630196e+002,9.311664e+001
5.639838e+002,9.192255e+001
5.649481e+002,9.169971e+001
5.659123e+002,9.051361e+001
5.668765e+002,8.799756e+001
5.678408e+002,8.503320e+001
5.688050e+002,8.324451e+001
5.697692e+002,8.279980e+001
5.707335e+002,8.221094e+001
5.716977e+002,8.197565e+001
5.726619e+002,8.148212e+001
5.736262e+002,7.973840e+001
5.745904e+002,7.591016e+001
5.755546e+002,7.180243e+001
5.765189e+002,6.943292e+001
5.774831e+002,6.804797e+001
5.784473e+002,6.731653e+001
5.794116e+002,6.724780e+001
5.803758e+002,6.808136e+001
5.813400e+002,6.805182e+001
5.823043e+002,6.631549e+001
5.832685e+002,6.406305e+001
5.842327e+002,6.171332e+001
5.851970e+002,5.977936e+001
5.861612e+002,5.931036e+001
5.871254e+002,6.180731e+001
5.880897e+002,6.352802e+001
5.890539e+002,6.322125e+001
5.900181e+002,6.145319e+001
5.909824e+002,5.932611e+001
5.919466e+002,5.746460e+001
5.929108e+002,5.621429e+001
5.938751e+002,5.625824e+001
5.948393e+002,5.680328e+001
5.958035e+002,5.674286e+001
5.967678e+002,5.533936e+001
5.977320e+002,5.293701e+001
5.986962e+002,4.978076e+001
5.996605e+002,4.498859e+001
6.006247e+002,4.150861e+001
6.015889e+002,4.166443e+001
6.025532e+002,4.516260e+001
6.035174e+002,4.661224e+001
6.044816e+002,4.323572e+001
6.054459e+002,4.087909e+001
6.064101e+002,4.089203e+001
6.073743e+002,4.234778e+001
6.083386e+002,4.350964e+001
6.093028e+002,4.351910e+001
6.102670e+002,4.333063e+001
6.112313e+002,4.394440e+001
6.121955e+002,4.465137e+001
6.131597e+002,4.411292e+001
6.141240e+002,4.146405e+001
6.150882e+002,3.770294e+001
6.160524e+002,3.829413e+001
6.170167e+002,4.268970e+001
6.179809e+002,4.651996e+001
6.189451e+002,4.714087e+001
6.199094e+002,4.489288e+001
6.208736e+002,4.440881e+001
6.218378e+002,5.130151e+001
6.228021e+002,5.440607e+001
6.237663e+002,5.002679e+001
6.247305e+002,4.213263e+001
6.256948e+002,3.704767e+001
6.266590e+002,3.760260e+001
6.276232e+002,3.906671e+001
6.285875e+002,3.979297e+001
6.295517e+002,3.973267e+001
6.305159e+002,3.817108e+001
6.314802e+002,3.471106e+001
6.324444e+002,3.028314e+001
6.334086e+002,2.869580e+001
6.343729e+002,2.935541e+001
6.353371e+002,2.956824e+001
6.363013e+002,2.817816e+001
6.372656e+002,2.553278e+001
6.382298e+002,2.330878e+001
6.391940e+002,2.142749e+001
6.401583e+002,1.982184e+001
6.411225e+002,1.930945e+001
6.420867e+002,1.972125e+001
6.430510e+002,2.058112e+001
6.440152e+002,2.150372e+001
6.449794e+002,2.186859e+001
6.459437e+002,2.137585e+001
6.469079e+002,2.038928e+001
6.478721e+002,1.918579e+001
6.488364e+002,1.803851e+001
6.498006e+002,1.725690e+001
6.507648e+002,1.755798e+001
6.517291e+002,1.815375e+001
6.526933e+002,1.697327e+001
6.536575e+002,1.343835e+001
6.546218e+002,9.510925e+000
6.555860e+002,9.213074e+000
6.565502e+002,1.592041e+001
6.575145e+002,1.866455e+001
6.584787e+002,1.518939e+001
6.594429e+002,1.022052e+001
6.604072e+002,7.333252e+000
6.613714e+002,7.145569e+000
6.623356e+002,7.622498e+000
6.632999e+002,7.804565e+000
6.642641e+002,7.709839e+000
6.652283e+002,7.396851e+000
6.661926e+002,7.299805e+000
6.671568e+002,8.303955e+000
6.681210e+002,1.196771e+001
6.690853e+002,1.622089e+001
6.700495e+002,1.605292e+001
6.710137e+002,1.167426e+001
6.719780e+002,6.759094e+000
6.729422e+002,5.126526e+000
6.739064e+002,7.213745e+000
6.748707e+002,9.209290e+000
6.758349e+002,1.218768e+001
6.767991e+002,1.373535e+001
6.777634e+002,1.224097e+001
6.787276e+002,8.588806e+000
6.796918e+002,6.832642e+000
6.806561e+002,9.064697e+000
6.816203e+002,1.202502e+001
6.825845e+002,1.565204e+001
6.835488e+002,1.891882e+001
6.845130e+002,2.030194e+001
6.854772e+002,1.860114e+001
6.864415e+002,1.560297e+001
6.874057e+002,1.443781e+001
6.883699e+002,1.415851e+001
6.893342e+002,1.397064e+001
6.902984e+002,1.367773e+001
6.912626e+002,1.325092e+001
6.922269e+002,1.139026e+001
6.931911e+002,5.637817e+000
6.941553e+002,3.374023e+000
6.951196e+002,7.057922e+000
6.960838e+002,1.304553e+001
6.970480e+002,1.575220e+001
6.980123e+002,1.305023e+001
6.989765e+002,1.016064e+001
6.999407e+002,8.552429e+000
7.009050e+002,8.002197e+000
7.018692e+002,9.192261e+000
7.028334e+002,1.183521e+001
7.037977e+002,1.362073e+001
7.047619e+002,9.387756e+000
7.057261e+002,2.791138e+000
7.066904e+002,1.334106e+000
7.076546e+002,6.179138e+000
7.086188e+002,1.323315e+001
7.095831e+002,1.584375e+001
7.105473e+002,1.142126e+001
7.115115e+002,9.785889e+000
7.124758e+002,1.319031e+001
7.134400e+002,1.624243e+001
7.144042e+002,1.538800e+001
7.153685e+002,1.078912e+001
7.163327e+002,7.012939e+000
7.172969e+002,7.133057e+000
7.182612e+002,7.742676e+000
7.192254e+002,7.100342e+000
7.201896e+002,5.606506e+000
7.211539e+002,4.647705e+000
7.221181e+002,5.539185e+000
7.230823e+002,7.413086e+000
7.240466e+002,8.033569e+000
7.250108e+002,7.988342e+000
7.259750e+002,7.720703e+000
7.269393e+002,7.022522e+000
7.279035e+002,5.416626e+000
7.288677e+002,3.234253e+000
7.298320e+002,2.882690e-001
7.307962e+002,-8.762207e-001
7.317604e+002,6.201782e-001
7.327247e+002,3.843201e+000
7.336889e+002,7.581726e+000
7.346531e+002,1.144659e+001
7.356174e+002,1.276166e+001
7.365816e+002,9.841003e+000
7.375458e+002,6.206238e+000
7.385101e+002,4.109131e+000
7.394743e+002,4.293335e+000
7.404385e+002,6.245911e+000
7.414028e+002,9.583191e+000
7.423670e+002,1.278333e+001
7.433312e+002,1.371387e+001
7.442955e+002,1.285309e+001
7.452597e+002,1.176135e+001
7.462239e+002,1.181696e+001
7.471882e+002,1.308740e+001
7.481524e+002,1.421381e+001
7.491166e+002,1.413239e+001
7.500809e+002,1.369922e+001
7.510451e+002,1.232300e+001
7.520093e+002,1.077472e+001
7.529736e+002,1.209467e+001
7.539378e+002,2.195276e+001
7.549020e+002,2.940564e+001
7.558663e+002,2.527045e+001
7.568306e+002,1.545361e+001
7.577948e+002,8.033386e+000
7.587590e+002,7.633606e+000
7.597233e+002,1.111731e+001
7.606875e+002,9.949890e+000
7.616517e+002,5.134766e+000
7.626160e+002,1.562256e+000
7.635802e+002,5.964966e-001
7.645444e+002,1.603088e+000
7.655087e+002,3.254272e+000
7.664729e+002,5.678833e+000
7.674371e+002,8.176941e+000
7.684014e+002,1.076086e+001
7.693656e+002,1.322894e+001
7.703298e+002,1.565588e+001
7.712941e+002,1.805469e+001
7.722583e+002,2.015479e+001
7.732225e+002,2.198615e+001
7.741868e+002,2.303052e+001
7.751510e+002,2.233435e+001
7.761152e+002,2.054913e+001
7.770795e+002,1.907874e+001
7.780437e+002,1.909979e+001
7.790079e+002,2.026477e+001
7.799722e+002,2.065741e+001
7.809364e+002,2.010480e+001
7.819006e+002,2.000934e+001
7.828649e+002,2.204175e+001
7.838291e+002,2.549738e+001
7.847933e+002,2.708752e+001
7.857576e+002,2.505170e+001
7.867218e+002,2.216724e+001
7.876860e+002,1.838068e+001
7.886503e+002,1.541455e+001
7.896145e+002,1.483051e+001
7.905787e+002,1.693109e+001
7.915430e+002,2.017847e+001
7.925072e+002,2.304260e+001
7.934714e+002,2.520941e+001
7.944357e+002,2.741705e+001
7.953999e+002,2.970392e+001
7.963641e+002,3.080328e+001
7.973284e+002,2.894745e+001
7.982926e+002,2.384686e+001
7.992568e+002,2.183746e+001
8.002211e+002,2.330237e+001
8.011853e+002,2.398999e+001
8.021495e+002,2.262866e+001
8.031138e+002,2.059955e+001
8.040780e+002,2.066162e+001
8.050422e+002,2.370612e+001
8.060065e+002,2.681293e+001
8.069707e+002,2.879614e+001
8.079349e+002,2.990533e+001
8.088992e+002,3.081927e+001
8.098634e+002,3.190607e+001
8.108276e+002,3.259448e+001
8.117919e+002,3.084949e+001
8.127561e+002,2.725226e+001
8.137203e+002,2.473187e+001
8.146846e+002,2.415808e+001
8.156488e+002,2.498853e+001
8.166130e+002,2.645459e+001
8.175773e+002,2.892029e+001
8.185415e+002,2.876532e+001
8.195057e+002,2.226520e+001
8.204700e+002,1.723315e+001
8.214342e+002,1.728473e+001
8.223984e+002,2.083417e+001
8.233627e+002,2.341705e+001
8.243269e+002,2.324060e+001
8.252911e+002,2.292694e+001
8.262554e+002,2.409302e+001
8.272196e+002,2.579126e+001
8.281838e+002,2.697870e+001
8.291481e+002,2.727252e+001
8.301123e+002,2.712262e+001
8.310765e+002,2.729083e+001
8.320408e+002,2.764136e+001
8.330050e+002,2.796552e+001
8.339692e+002,2.835950e+001
8.349335e+002,2.881982e+001
8.358977e+002,2.979315e+001
8.368619e+002,3.183063e+001
8.378262e+002,3.245911e+001
8.387904e+002,2.934424e+001
8.397546e+002,2.660748e+001
8.407189e+002,2.522943e+001
8.416831e+002,2.501660e+001
8.426473e+002,2.536670e+001
8.436116e+002,2.602142e+001
8.445758e+002,2.758539e+001
8.455400e+002,3.129785e+001
8.465043e+002,3.486658e+001
8.474685e+002,3.607458e+001
8.484327e+002,3.482672e+001
8.493970e+002,3.268719e+001
8.503612e+002,3.159052e+001
8.513254e+002,3.141077e+001
8.522897e+002,3.210889e+001
8.532539e+002,3.401208e+001
8.542181e+002,3.559625e+001
8.551824e+002,3.584692e+001
8.561466e+002,3.559711e+001
8.571108e+002,3.788672e+001
8.580751e+002,4.477643e+001
8.590393e+002,4.980713e+001
8.600035e+002,5.014307e+001
8.609678e+002,4.891547e+001
8.619320e+002,4.969183e+001
8.628962e+002,5.377692e+001
8.638605e+002,5.902942e+001
8.648247e+002,6.249902e+001
8.657889e+002,6.456085e+001
8.667532e+002,6.627423e+001
8.677174e+002,6.775928e+001
8.686816e+002,6.854608e+001
8.696459e+002,6.795782e+001
8.706101e+002,6.585010e+001
8.715743e+002,6.565265e+001
8.725386e+002,6.817487e+001
8.735028e+002,7.144324e+001
8.744670e+002,7.469788e+001
8.754313e+002,7.772400e+001
8.763955e+002,8.088898e+001
8.773597e+002,8.483624e+001
8.783240e+002,8.810773e+001
8.792882e+002,8.842255e+001
8.802524e+002,8.802301e+001
8.812167e+002,8.912567e+001
8.821809e+002,9.203448e+001
8.831451e+002,9.554095e+001
8.841094e+002,9.820093e+001
8.850736e+002,1.003476e+002
8.860378e+002,1.020446e+002
8.870021e+002,1.025192e+002
8.879663e+002,1.039717e+002
8.889305e+002,1.086229e+002
8.898948e+002,1.152977e+002
8.908590e+002,1.184542e+002
8.918232e+002,1.153090e+002
8.927875e+002,1.134550e+002
8.937517e+002,1.149834e+002
8.947159e+002,1.179551e+002
8.956802e+002,1.206472e+002
8.966444e+002,1.223052e+002
8.976086e+002,1.230844e+002
8.985729e+002,1.231758e+002
8.995371e+002,1.236303e+002
9.005013e+002,1.259221e+002
9.014656e+002,1.298990e+002
9.024298e+002,1.337882e+002
9.033940e+002,1.359573e+002
9.043583e+002,1.361257e+002
9.053225e+002,1.353729e+002
9.062867e+002,1.310579e+002
9.072510e+002,1.286559e+002
9.082152e+002,1.303694e+002
9.091794e+002,1.338406e+002
9.101437e+002,1.367511e+002
9.111079e+002,1.386834e+002
9.120721e+002,1.403041e+002
9.130364e+002,1.412930e+002
9.140006e+002,1.417221e+002
9.149648e+002,1.418879e+002
9.159291e+002,1.422380e+002
9.168933e+002,1.433762e+002
9.178575e+002,1.454368e+002
9.188218e+002,1.472589e+002
9.197860e+002,1.451887e+002
9.207502e+002,1.389184e+002
9.217145e+002,1.330333e+002
9.226787e+002,1.285538e+002
9.236429e+002,1.258589e+002
9.246072e+002,1.257360e+002
9.255714e+002,1.286540e+002
9.265356e+002,1.295137e+002
9.274999e+002,1.263807e+002
9.284641e+002,1.218385e+002
9.294283e+002,1.155515e+002
9.303926e+002,1.091323e+002
9.313568e+002,1.051123e+002
9.323210e+002,1.048719e+002
9.332853e+002,1.059092e+002
9.342495e+002,1.039022e+002
9.352137e+002,1.003950e+002
9.361780e+002,9.822491e+001
9.371422e+002,9.837152e+001
9.381064e+002,9.990027e+001
9.390707e+002,1.011768e+002
9.400349e+002,1.017390e+002
9.409991e+002,1.014792e+002
9.419634e+002,9.995355e+001
9.429276e+002,9.805011e+001
9.438918e+002,9.582098e+001
9.448561e+002,9.361212e+001
9.458203e+002,9.166510e+001
9.467845e+002,8.992346e+001
9.477488e+002,8.990131e+001
9.487130e+002,9.566382e+001
9.496772e+002,1.013076e+002
9.506415e+002,1.005993e+002
9.516057e+002,9.443872e+001
9.525699e+002,8.909442e+001
9.535342e+002,9.072620e+001
9.544984e+002,9.788214e+001
9.554626e+002,9.915283e+001
9.564269e+002,9.425641e+001
9.573911e+002,9.023773e+001
9.583553e+002,8.934961e+001
9.593196e+002,8.990173e+001
9.602838e+002,8.906342e+001
9.612480e+002,8.608679e+001
9.622123e+002,8.367810e+001
9.631765e+002,8.313556e+001
9.641407e+002,8.313580e+001
9.651050e+002,8.333905e+001
9.660692e+002,8.321936e+001
9.670334e+002,8.222266e+001
9.679977e+002,8.025928e+001
9.689619e+002,7.831567e+001
9.699261e+002,7.722839e+001
9.708904e+002,7.667535e+001
9.718546e+002,7.719958e+001
9.728188e+002,7.864764e+001
9.737831e+002,8.144397e+001
9.747473e+002,8.684570e+001
9.757115e+002,9.575171e+001
9.766758e+002,1.033149e+002
9.776400e+002,1.115005e+002
9.786042e+002,1.167591e+002
9.795685e+002,1.170007e+002
9.805327e+002,1.135721e+002
9.814969e+002,1.083121e+002
9.824612e+002,1.021416e+002
9.834254e+002,9.582990e+001
9.843896e+002,8.880652e+001
9.853539e+002,8.192731e+001
9.863181e+002,7.671875e+001
9.872823e+002,7.266101e+001
9.882466e+002,6.797650e+001
9.892108e+002,6.157001e+001
9.901750e+002,5.467731e+001
9.911393e+002,5.177252e+001
9.921035e+002,5.383978e+001
9.930677e+002,5.594373e+001
9.940320e+002,5.907520e+001
9.949962e+002,6.226776e+001
9.959604e+002,6.414520e+001
9.969247e+002,6.482025e+001
9.978889e+002,6.666907e+001
9.988531e+002,7.058344e+001
9.998174e+002,7.486304e+001
1.000782e+003,8.017212e+001
1.001746e+003,8.533191e+001
1.002710e+003,8.850677e+001
1.003674e+003,8.884918e+001
1.004639e+003,8.693573e+001
1.005603e+003,8.359680e+001
1.006567e+003,7.847223e+001
1.007531e+003,7.496625e+001
1.008495e+003,7.361920e+001
1.009460e+003,7.283087e+001
1.010424e+003,7.217841e+001
1.011388e+003,7.158289e+001
1.012352e+003,7.015460e+001
1.013317e+003,6.694525e+001
1.014281e+003,6.399927e+001
1.015245e+003,6.215308e+001
1.016209e+003,6.013184e+001
1.017174e+003,5.738501e+001
1.018138e+003,5.375562e+001
1.019102e+003,4.898724e+001
1.020066e+003,4.276086e+001
1.021031e+003,3.632739e+001
1.021995e+003,3.315277e+001
1.022959e+003,3.202863e+001
1.023923e+003,2.917078e+001
1.024887e+003,2.284784e+001
1.025852e+003,1.489691e+001
1.026816e+003,8.033325e+000
1.027780e+003,2.378052e+000
1.028744e+003,-9.166870e-001
1.029709e+003,-2.274780e-001
1.030673e+003,7.913208e-001
1.031637e+003,9.530640e-001
1.032601e+003,5.743408e-001
1.033566e+003,5.618286e-001
1.034530e+003,1.343506e+000
1.035494e+003,2.144043e+000
1.036458e+003,1.897827e+000
1.037422e+003,8.070679e-001
1.038387e+003,-1.371887e+000
1.039351e+003,-4.361206e+000
1.040315e+003,-5.326233e+000
1.041279e+003,-1.499451e+000
1.042244e+003,5.764282e+000
1.043208e+003,8.555176e+000
1.044172e+003,1.808960e+000
1.045136e+003,-1.721497e+000
1.046101e+003,5.736694e-001
1.047065e+003,4.036987e+000
1.048029e+003,5.943665e+000
1.048993e+003,6.159424e+000
1.049958e+003,5.659424e+000
1.050922e+003,4.815186e+000
1.051886e+003,4.399963e+000
1.052850e+003,4.945374e+000
1.053814e+003,6.249512e+000
1.054779e+003,8.643494e+000
1.055743e+003,1.183551e+001
1.056707e+003,1.424701e+001
1.057671e+003,1.393103e+001
1.058636e+003,1.077124e+001
1.059600e+003,8.354004e+000
1.060564e+003,7.965698e+000
1.061528e+003,7.564758e+000
1.062493e+003,5.191650e+000
1.063457e+003,2.918701e+000
1.064421e+003,4.298279e+000
1.065385e+003,9.760925e+000
1.066349e+003,1.364703e+001
1.067314e+003,1.209131e+001
1.068278e+003,9.225464e+000
1.069242e+003,7.735718e+000
1.070206e+003,7.373291e+000
1.071171e+003,7.350769e+000
1.072135e+003,7.143311e+000
1.073099e+003,6.777344e+000
1.074063e+003,6.649292e+000
1.075028e+003,6.941162e+000
1.075992e+003,7.739746e+000
1.076956e+003,9.551147e+000
1.077920e+003,1.024384e+001
1.078885e+003,9.001160e+000
1.079849e+003,6.786133e+000
1.080813e+003,4.817017e+000
1.081777e+003,3.178467e+000
1.082741e+003,2.639771e+000
1.083706e+003,4.199646e+000
1.084670e+003,5.547485e+000
1.085634e+003,5.149048e+000
1.086598e+003,3.599365e+000
1.087563e+003,2.575806e+000
1.088527e+003,3.129700e+000
1.089491e+003,4.374023e+000
1.090455e+003,3.770630e+000
1.091420e+003,6.968994e-001
1.092384e+003,-1.187927e+000
1.093348e+003,-1.907715e+000
1.094312e+003,-2.148010e+000
1.095276e+003,-1.585876e+000
1.096241e+003,-3.281250e-001
1.097205e+003,4.929810e-001
1.098169e+003,4.098511e-001
1.099133e+003,-1.990356e-001
1.100098e+003,-1.982178e+000
1.101062e+003,-3.078125e+000
1.102026e+003,-1.755737e+000
1.102990e+003,1.268311e+000
1.103955e+003,4.368347e+000
1.104919e+003,6.425842e+000
1.105883e+003,6.878296e+000
1.106847e+003,4.195129e+000
1.107812e+003,-1.693542e+000
1.108776e+003,-5.093201e+000
1.109740e+003,-5.070068e+000
1.110704e+003,-3.998901e+000
1.111668e+003,-3.423523e+000
1.112633e+003,-2.715637e+000
1.113597e+003,1.054688e-001
1.114561e+003,6.692627e+000
1.115525e+003,1.093103e+001
1.116490e+003,8.778564e+000
1.117454e+003,5.934875e+000
1.118418e+003,6.843628e+000
1.119382e+003,1.076416e+001
1.120347e+003,1.394177e+001
1.121311e+003,1.372662e+001
1.122275e+003,1.148566e+001
1.123239e+003,1.142706e+001
1.124203e+003,1.380676e+001
1.125168e+003,1.417822e+001
1.126132e+003,1.133630e+001
1.127096e+003,9.165833e+000
1.128060e+003,1.066254e+001
1.129025e+003,1.502136e+001
1.129989e+003,1.931744e+001
1.130953e+003,2.362170e+001
1.131917e+003,2.674133e+001
1.132882e+003,2.786591e+001
1.133846e+003,2.878168e+001
1.134810e+003,3.040143e+001
1.135774e+003,3.282782e+001
1.136739e+003,3.571674e+001
1.137703e+003,3.884473e+001
1.138667e+003,4.254858e+001
1.139631e+003,4.770300e+001
1.140595e+003,5.412091e+001
1.141560e+003,6.058228e+001
1.142524e+003,6.715875e+001
1.143488e+003,7.465674e+001
1.144452e+003,8.243170e+001
1.145417e+003,9.134521e+001
1.146381e+003,1.048712e+002
1.147345e+003,1.240609e+002
1.148309e+003,1.450357e+002
1.149274e+003,1.687037e+002
1.150238e+003,1.922958e+002
1.151202e+003,2.152470e+002
1.152166e+003,2.373126e+002
1.153130e+003,2.589711e+002
1.154095e+003,2.797307e+002
1.155059e+003,2.960498e+002
1.156023e+003,3.035249e+002
1.156987e+003,3.022766e+002
1.157952e+003,2.966725e+002
1.158916e+003,2.876277e+002
1.159880e+003,2.745797e+002
1.160844e+003,2.547135e+002
1.161809e+003,2.297930e+002
1.162773e+003,2.045875e+002
1.163737e+003,1.785318e+002
1.164701e+003,1.550821e+002
1.165666e+003,1.363766e+002
1.166630e+003,1.198987e+002
1.167594e+003,1.045904e+002
1.168558e+003,9.092584e+001
1.169522e+003,7.965845e+001
1.170487e+003,7.106274e+001
1.171451e+003,6.535468e+001
1.172415e+003,6.302429e+001
1.173379e+003,6.320483e+001
1.174344e+003,6.192688e+001
1.175308e+003,5.936481e+001
1.176272e+003,5.642877e+001
1.177236e+003,5.307507e+001
1.178201e+003,5.002649e+001
1.179165e+003,4.857611e+001
1.180129e+003,4.845349e+001
1.181093e+003,4.553870e+001
1.182057e+003,3.595630e+001
1.183022e+003,2.854913e+001
1.183986e+003,2.768829e+001
1.184950e+003,2.952673e+001
1.185914e+003,3.047546e+001
1.186879e+003,3.026758e+001
1.187843e+003,3.117175e+001
1.188807e+003,3.497070e+001
1.189771e+003,4.009296e+001
1.190736e+003,4.242999e+001
1.191700e+003,4.179865e+001
1.192664e+003,3.891260e+001
1.193628e+003,3.140948e+001
1.194593e+003,2.533545e+001
1.195557e+003,2.662054e+001
1.196521e+003,3.276282e+001
1.197485e+003,3.499591e+001
1.198449e+003,3.136896e+001
1.199414e+003,2.612421e+001
1.200378e+003,1.921704e+001
1.201342e+003,1.318250e+001
1.202306e+003,9.927124e+000
1.203271e+003,8.582275e+000
1.204235e+003,7.418091e+000
1.205199e+003,5.592102e+000
1.206163e+003,3.434814e+000
1.207128e+003,1.420471e+000
1.208092e+003,-3.737183e-001
1.209056e+003,-3.208130e+000
1.210020e+003,-7.309143e+000
1.210984e+003,-1.168201e+001
1.211949e+003,-1.610785e+001
1.212913e+003,-2.081348e+001
1.213877e+003,-2.624939e+001
1.214841e+003,-3.226886e+001
1.215806e+003,-3.725897e+001
1.216770e+003,-4.037695e+001
1.217734e+003,-4.281696e+001
1.218698e+003,-4.548969e+001
1.219663e+003,-4.839410e+001
1.220627e+003,-5.147662e+001
1.221591e+003,-5.467731e+001
1.222555e+003,-5.815997e+001
1.223520e+003,-6.208325e+001
1.224484e+003,-6.565411e+001
1.225448e+003,-6.578967e+001
1.226412e+003,-5.955090e+001
1.227376e+003,-5.677948e+001
1.228341e+003,-5.979901e+001
1.229305e+003,-6.380035e+001
1.230269e+003,-6.693530e+001
1.231233e+003,-6.904053e+001
1.232198e+003,-6.952722e+001
1.233162e+003,-6.795447e+001
1.234126e+003,-6.657135e+001
1.235090e+003,-6.751465e+001
1.236055e+003,-6.951904e+001
1.237019e+003,-7.129541e+001
1.237983e+003,-7.295721e+001
1.238947e+003,-7.499432e+001
1.239911e+003,-7.739618e+001
1.240876e+003,-7.849689e+001
1.241840e+003,-7.547668e+001
1.242804e+003,-6.788910e+001
1.243768e+003,-6.400891e+001
1.244733e+003,-6.873358e+001
1.245697e+003,-7.069910e+001
1.246661e+003,-6.701801e+001
1.247625e+003,-6.286932e+001
1.248590e+003,-6.179132e+001
1.249554e+003,-6.327374e+001
1.250518e+003,-6.568835e+001
1.251482e+003,-6.875708e+001
1.252447e+003,-7.033331e+001
1.253411e+003,-6.636493e+001
1.254375e+003,-5.908698e+001
1.255339e+003,-5.318384e+001
1.256303e+003,-4.877716e+001
1.257268e+003,-4.614642e+001
1.258232e+003,-4.635669e+001
1.259196e+003,-4.812109e+001
1.260160e+003,-4.805414e+001
1.261125e+003,-4.541522e+001
1.262089e+003,-4.334644e+001
1.263053e+003,-4.291205e+001
1.264017e+003,-4.295959e+001
1.264982e+003,-4.357813e+001
1.265946e+003,-4.400452e+001
1.266910e+003,-4.356152e+001
1.267874e+003,-4.224426e+001
1.268839e+003,-4.009583e+001
1.269803e+003,-3.708661e+001
1.270767e+003,-3.443884e+001
1.271731e+003,-3.469244e+001
1.272695e+003,-3.767957e+001
1.273660e+003,-4.070581e+001
1.274624e+003,-4.461163e+001
1.275588e+003,-4.776501e+001
1.276552e+003,-4.785938e+001
1.277517e+003,-4.655518e+001
1.278481e+003,-4.791553e+001
1.279445e+003,-5.254761e+001
1.280409e+003,-5.590668e+001
1.281374e+003,-5.544916e+001
1.282338e+003,-5.471155e+001
1.283302e+003,-5.636774e+001
1.284266e+003,-5.837512e+001
1.285230e+003,-5.784595e+001
1.286195e+003,-5.493109e+001
1.287159e+003,-5.234222e+001
1.288123e+003,-5.216003e+001
1.289087e+003,-5.341925e+001
1.290052e+003,-5.387952e+001
1.291016e+003,-5.348138e+001
1.291980e+003,-5.356708e+001
1.292944e+003,-5.427411e+001
1.293909e+003,-5.588239e+001
1.294873e+003,-5.909064e+001
1.295837e+003,-6.234668e+001
1.296801e+003,-6.339557e+001
1.297766e+003,-6.207709e+001
1.298730e+003,-6.065479e+001
1.299694e+003,-6.053436e+001
1.300658e+003,-6.089673e+001
1.301622e+003,-6.067542e+001
1.302587e+003,-6.001819e+001
1.303551e+003,-5.925720e+001
1.304515e+003,-5.834454e+001
1.305479e+003,-5.722119e+001
1.306444e+003,-5.599249e+001
1.307408e+003,-5.487695e+001
1.308372e+003,-5.410455e+001
1.309336e+003,-5.379492e+001
1.310301e+003,-5.356445e+001
1.311265e+003,-5.215576e+001
1.312229e+003,-5.192749e+001
1.313193e+003,-5.516937e+001
1.314157e+003,-5.904382e+001
1.315122e+003,-6.027667e+001
1.316086e+003,-5.895087e+001
1.317050e+003,-5.755310e+001
1.318014e+003,-5.749878e+001
1.318979e+003,-5.850122e+001
1.319943e+003,-6.112573e+001
1.320907e+003,-6.464838e+001
1.321871e+003,-6.425427e+001
1.322836e+003,-5.906165e+001
1.323800e+003,-5.419019e+001
1.324764e+003,-5.283234e+001
1.325728e+003,-5.308246e+001
1.326693e+003,-5.138397e+001
1.327657e+003,-4.778699e+001
1.328621e+003,-4.640991e+001
1.329585e+003,-4.864313e+001
1.330549e+003,-5.066968e+001
1.331514e+003,-5.147504e+001
1.332478e+003,-5.200000e+001
1.333442e+003,-5.286792e+001
1.334406e+003,-5.383496e+001
1.335371e+003,-5.412738e+001
1.336335e+003,-5.332849e+001
1.337299e+003,-5.218909e+001
1.338263e+003,-5.234229e+001
1.339228e+003,-5.404559e+001
1.340192e+003,-5.444189e+001
1.341156e+003,-5.292340e+001
1.342120e+003,-5.113708e+001
1.343084e+003,-4.882794e+001
1.344049e+003,-4.741760e+001
1.345013e+003,-4.892303e+001
1.345977e+003,-5.179852e+001
1.346941e+003,-5.135870e+001
1.347906e+003,-4.572778e+001
1.348870e+003,-4.027448e+001
1.349834e+003,-4.073401e+001
1.350798e+003,-4.434985e+001
1.351763e+003,-4.495258e+001
1.352727e+003,-4.300183e+001
1.353691e+003,-4.199005e+001
1.354655e+003,-4.319324e+001
1.355620e+003,-4.550299e+001
1.356584e+003,-4.809094e+001
1.357548e+003,-5.066833e+001
1.358512e+003,-5.148694e+001
1.359476e+003,-5.010547e+001
1.360441e+003,-4.924933e+001
1.361405e+003,-4.957849e+001
1.362369e+003,-5.020465e+001
1.363333e+003,-5.116882e+001
1.364298e+003,-5.190112e+001
1.365262e+003,-5.137097e+001
1.366226e+003,-4.960962e+001
1.367190e+003,-4.817267e+001
1.368155e+003,-4.849927e+001
1.369119e+003,-4.947223e+001
1.370083e+003,-4.724915e+001
1.371047e+003,-4.006396e+001
1.372011e+003,-3.666266e+001
1.372976e+003,-4.025067e+001
1.373940e+003,-4.399646e+001
1.374904e+003,-4.515002e+001
1.375868e+003,-4.493903e+001
1.376833e+003,-4.522797e+001
1.377797e+003,-4.609296e+001
1.378761e+003,-4.580414e+001
1.379725e+003,-4.307806e+001
1.380690e+003,-4.043976e+001
1.381654e+003,-4.131683e+001
1.382618e+003,-4.334174e+001
1.383582e+003,-4.351111e+001
1.384547e+003,-4.167834e+001
1.385511e+003,-3.827460e+001
1.386475e+003,-3.307898e+001
1.387439e+003,-2.854846e+001
1.388403e+003,-2.932715e+001
1.389368e+003,-3.542950e+001
1.390332e+003,-3.844159e+001
1.391296e+003,-3.585822e+001
1.392260e+003,-3.428406e+001
1.393225e+003,-3.641583e+001
1.394189e+003,-3.873462e+001
1.395153e+003,-3.931030e+001
1.396117e+003,-3.869067e+001
1.397082e+003,-3.786066e+001
1.398046e+003,-3.708936e+001
1.399010e+003,-3.598761e+001
1.399974e+003,-3.437628e+001
1.400938e+003,-3.326971e+001
1.401903e+003,-3.492737e+001
1.402867e+003,-3.970184e+001
1.403831e+003,-4.076324e+001
1.404795e+003,-3.564789e+001
1.405760e+003,-3.126862e+001
1.406724e+003,-3.103552e+001
1.407688e+003,-3.329047e+001
1.408652e+003,-3.614362e+001
1.409617e+003,-3.859247e+001
1.410581e+003,-3.889886e+001
1.411545e+003,-3.604150e+001
1.412509e+003,-3.280206e+001
1.413474e+003,-3.235858e+001
1.414438e+003,-3.359491e+001
1.415402e+003,-3.411475e+001
1.416366e+003,-3.355750e+001
1.417330e+003,-3.208374e+001
1.418295e+003,-2.964001e+001
1.419259e+003,-2.670221e+001
1.420223e+003,-2.385162e+001
1.421187e+003,-2.135828e+001
1.422152e+003,-1.914105e+001
1.423116e+003,-1.611694e+001
1.424080e+003,-1.553613e+001
1.425044e+003,-2.266711e+001
1.426009e+003,-2.845508e+001
1.426973e+003,-2.794012e+001
1.427937e+003,-2.474255e+001
1.428901e+003,-2.300714e+001
1.429865e+003,-2.310516e+001
1.430830e+003,-2.309583e+001
1.431794e+003,-2.185864e+001
1.432758e+003,-2.015131e+001
1.433722e+003,-1.903894e+001
1.434687e+003,-1.808368e+001
1.435651e+003,-1.596912e+001
1.436615e+003,-1.300757e+001
1.437579e+003,-1.101263e+001
1.438544e+003,-1.032294e+001
1.439508e+003,-1.012231e+001
1.440472e+003,-9.579163e+000
1.441436e+003,-8.736572e+000
1.442401e+003,-8.166138e+000
1.443365e+003,-8.100159e+000
1.444329e+003,-8.087097e+000
1.445293e+003,-7.534668e+000
1.446257e+003,-7.086853e+000
1.447222e+003,-8.864807e+000
1.448186e+003,-1.227692e+001
1.449150e+003,-1.325061e+001
1.450114e+003,-1.074890e+001
1.451079e+003,-9.176697e+000
1.452043e+003,-1.165979e+001
1.453007e+003,-1.518439e+001
1.453971e+003,-1.543317e+001
1.454936e+003,-1.302814e+001
1.455900e+003,-1.204962e+001
1.456864e+003,-1.355072e+001
1.457828e+003,-1.506927e+001
1.458792e+003,-1.595770e+001
1.459757e+003,-1.604309e+001
1.460721e+003,-1.411011e+001
1.461685e+003,-1.153204e+001
1.462649e+003,-1.139117e+001
1.463614e+003,-1.408630e+001
1.464578e+003,-1.627380e+001
1.465542e+003,-1.484564e+001
1.466506e+003,-1.159534e+001
1.467471e+003,-1.170093e+001
1.468435e+003,-1.569049e+001
1.469399e+003,-1.817920e+001
1.470363e+003,-2.001239e+001
1.471328e+003,-1.945764e+001
1.472292e+003,-1.412067e+001
1.473256e+003,-9.015686e+000
1.474220e+003,-7.385803e+000
1.475184e+003,-8.040527e+000
1.476149e+003,-8.986328e+000
1.477113e+003,-9.451050e+000
1.478077e+003,-8.867615e+000
1.479041e+003,-6.305664e+000
1.480006e+003,-2.406067e+000
1.480970e+003,-2.147827e-001
1.481934e+003,-7.874756e-001
1.482898e+003,-3.540039e-001
1.483863e+003,2.569641e+000
1.484827e+003,4.127319e+000
1.485791e+003,2.154419e+000
1.486755e+003,3.747559e-002
1.487719e+003,9.533691e-001
1.488684e+003,3.959412e+000
1.489648e+003,6.043030e+000
1.490612e+003,6.478027e+000
1.491576e+003,7.758728e+000
1.492541e+003,1.187939e+001
1.493505e+003,1.773975e+001
1.494469e+003,2.351044e+001
1.495433e+003,2.871478e+001
1.496398e+003,3.266388e+001
1.497362e+003,3.552551e+001
1.498326e+003,3.842444e+001
1.499290e+003,4.109308e+001
1.500255e+003,4.457825e+001
1.501219e+003,5.031335e+001
1.502183e+003,5.801056e+001
1.503147e+003,6.650427e+001
1.504111e+003,7.557635e+001
1.505076e+003,8.515558e+001
1.506040e+003,9.439093e+001
1.507004e+003,1.052951e+002
1.507968e+003,1.201284e+002
1.508933e+003,1.377974e+002
1.509897e+003,1.563379e+002
1.510861e+003,1.758778e+002
1.511825e+003,1.966341e+002
1.512790e+003,2.182128e+002
1.513754e+003,2.407471e+002
1.514718e+003,2.658184e+002
1.515682e+003,2.930354e+002
1.516646e+003,3.176046e+002
1.517611e+003,3.387435e+002
1.518575e+003,3.594199e+002
1.519539e+003,3.842470e+002
1.520503e+003,4.057740e+002
1.521468e+003,4.200471e+002
1.522432e+003,4.281437e+002
1.523396e+003,4.319669e+002
1.524360e+003,4.317402e+002
1.525325e+003,4.263603e+002
1.526289e+003,4.152174e+002
1.527253e+003,3.999999e+002
1.528217e+003,3.834040e+002
1.529182e+003,3.657555e+002
1.530146e+003,3.463665e+002
1.531110e+003,3.258143e+002
1.532074e+003,3.014965e+002
1.533039e+003,2.699199e+002
1.534003e+003,2.371871e+002
1.534967e+003,2.065732e+002
1.535931e+003,1.774105e+002
1.536896e+003,1.466527e+002
1.537860e+003,1.161335e+002
1.538824e+003,9.163403e+001
1.539788e+003,7.584155e+001
1.540752e+003,6.587177e+001
1.541717e+003,5.855927e+001
1.542681e+003,5.359497e+001
1.543645e+003,4.755023e+001
1.544609e+003,3.965686e+001
1.545573e+003,3.388879e+001
1.546538e+003,2.967023e+001
1.547502e+003,2.709534e+001
1.548466e+003,2.686292e+001
1.549430e+003,2.874103e+001
1.550395e+003,3.344739e+001
1.551359e+003,3.940997e+001
1.552323e+003,4.330060e+001
1.553287e+003,4.398975e+001
1.554252e+003,4.247253e+001
1.555216e+003,3.946753e+001
1.556180e+003,3.501068e+001
1.557144e+003,2.859283e+001
1.558109e+003,2.032385e+001
1.559073e+003,1.491504e+001
1.560037e+003,1.310437e+001
1.561001e+003,1.154150e+001
1.561966e+003,8.631287e+000
1.562930e+003,7.023865e+000
1.563894e+003,1.010510e+001
1.564858e+003,1.571362e+001
1.565823e+003,1.863647e+001
1.566787e+003,1.789709e+001
1.567751e+003,1.629852e+001
1.568715e+003,1.516528e+001
1.569679e+003,1.507263e+001
1.570644e+003,1.742456e+001
1.571608e+003,2.073755e+001
1.572572e+003,2.107123e+001
1.573536e+003,1.848425e+001
1.574500e+003,1.721118e+001
1.575465e+003,1.904846e+001
1.576429e+003,2.161017e+001
1.577393e+003,2.253717e+001
1.578357e+003,2.277490e+001
1.579322e+003,2.497559e+001
1.580286e+003,2.918250e+001
1.581250e+003,3.207123e+001
1.582214e+003,3.241925e+001
1.583179e+003,3.200549e+001
1.584143e+003,3.151868e+001
1.585107e+003,3.111200e+001
1.586071e+003,3.180359e+001
1.587036e+003,3.350482e+001
1.588000e+003,3.420612e+001
1.588964e+003,3.305182e+001
1.589928e+003,3.299115e+001
1.590893e+003,3.697058e+001
1.591857e+003,4.231134e+001
1.592821e+003,4.479034e+001
1.593785e+003,4.498120e+001
1.594750e+003,4.598907e+001
1.595714e+003,4.822125e+001
1.596678e+003,4.974371e+001
1.597642e+003,4.935907e+001
1.598606e+003,4.876477e+001
1.599571e+003,4.937933e+001
1.600535e+003,5.080524e+001
1.601499e+003,5.274896e+001
1.602463e+003,5.485657e+001
1.603427e+003,5.627478e+001
1.604392e+003,5.669336e+001
1.605356e+003,5.635870e+001
1.606320e+003,5.518201e+001
1.607284e+003,5.359717e+001
1.608249e+003,5.267780e+001
1.609213e+003,5.242999e+001
1.610177e+003,5.309369e+001
1.611141e+003,5.526990e+001
1.612106e+003,5.697668e+001
1.613070e+003,5.589728e+001
1.614034e+003,5.519867e+001
1.614998e+003,5.883661e+001
1.615963e+003,6.381250e+001
1.616927e+003,6.390778e+001
1.617891e+003,5.884497e+001
1.618855e+003,5.480481e+001
1.619820e+003,5.539526e+001
1.620784e+003,5.769910e+001
1.621748e+003,5.829279e+001
1.622712e+003,5.802124e+001
1.623677e+003,5.899762e+001
1.624641e+003,6.167273e+001
1.625605e+003,6.321405e+001
1.626569e+003,6.109485e+001
1.627533e+003,5.896210e+001
1.628498e+003,5.874023e+001
1.629462e+003,5.999170e+001
1.630426e+003,6.339752e+001
1.631390e+003,6.751312e+001
1.632354e+003,6.934326e+001
1.633319e+003,6.828870e+001
1.634283e+003,6.652075e+001
1.635247e+003,6.550214e+001
1.636211e+003,6.487689e+001
1.637176e+003,6.445117e+001
1.638140e+003,6.432922e+001
1.639104e+003,6.303271e+001
1.640068e+003,5.963660e+001
1.641033e+003,5.775348e+001
1.641997e+003,5.920996e+001
1.642961e+003,6.146002e+001
1.643925e+003,6.365564e+001
1.644890e+003,6.554663e+001
1.645854e+003,6.678955e+001
1.646818e+003,6.741473e+001
1.647782e+003,6.775055e+001
1.648747e+003,6.783685e+001
1.649711e+003,6.719464e+001
1.650675e+003,6.545465e+001
1.651639e+003,6.346204e+001
1.652604e+003,6.246063e+001
1.653568e+003,6.221228e+001
1.654532e+003,6.233246e+001
1.655496e+003,6.322430e+001
1.656460e+003,6.297302e+001
1.657425e+003,6.027423e+001
1.658389e+003,5.765076e+001
1.659353e+003,5.619220e+001
1.660317e+003,5.561542e+001
1.661281e+003,5.599329e+001
1.662246e+003,5.679675e+001
1.663210e+003,5.697772e+001
1.664174e+003,5.633398e+001
1.665138e+003,5.544232e+001
1.666103e+003,5.458136e+001
1.667067e+003,5.360431e+001
1.668031e+003,5.267877e+001
1.668995e+003,5.183179e+001
1.669960e+003,4.955707e+001
1.670924e+003,4.507239e+001
1.671888e+003,4.265308e+001
1.672852e+003,4.491455e+001
1.673817e+003,4.724628e+001
1.674781e+003,4.563904e+001
1.675745e+003,4.329248e+001
1.676709e+003,4.514020e+001
1.677674e+003,4.932886e+001
1.678638e+003,4.855585e+001
1.679602e+003,4.064636e+001
1.680566e+003,3.336359e+001
1.681531e+003,3.342255e+001
1.682495e+003,3.717999e+001
1.683459e+003,3.842377e+001
1.684423e+003,3.720099e+001
1.685387e+003,3.463831e+001
1.686352e+003,3.054456e+001
1.687316e+003,2.872864e+001
1.688280e+003,3.168652e+001
1.689244e+003,3.473242e+001
1.690208e+003,3.397400e+001
1.691173e+003,3.154303e+001
1.692137e+003,2.931708e+001
1.693101e+003,2.783112e+001
1.694065e+003,2.782831e+001
1.695030e+003,2.924255e+001
1.695994e+003,3.001172e+001
1.696958e+003,2.870386e+001
1.697922e+003,2.670892e+001
1.698887e+003,2.593890e+001
1.699851e+003,2.596155e+001
1.700815e+003,2.493103e+001
1.701779e+003,2.255847e+001
1.702744e+003,2.056073e+001
1.703708e+003,1.989264e+001
1.704672e+003,1.977966e+001
1.705636e+003,1.966571e+001
1.706601e+003,1.876489e+001
1.707565e+003,1.571503e+001
1.708529e+003,1.171478e+001
1.709493e+003,9.898071e+000
1.710458e+003,1.070221e+001
1.711422e+003,1.233618e+001
1.712386e+003,1.525311e+001
1.713350e+003,1.789435e+001
1.714314e+003,1.809973e+001
1.715279e+003,1.709515e+001
1.716243e+003,1.778485e+001
1.717207e+003,1.976868e+001
1.718171e+003,1.973651e+001
1.719135e+003,1.686047e+001
1.720100e+003,1.376740e+001
1.721064e+003,1.210272e+001
1.722028e+003,1.076746e+001
1.722992e+003,8.083374e+000
1.723957e+003,4.992432e+000
1.724921e+003,5.146118e+000
1.725885e+003,8.671326e+000
1.726849e+003,1.043884e+001
1.727814e+003,9.461792e+000
1.728778e+003,8.190308e+000
1.729742e+003,7.145447e+000
1.730706e+003,6.485840e+000
1.731671e+003,6.151489e+000
1.732635e+003,5.719482e+000
1.733599e+003,4.989319e+000
1.734563e+003,4.362976e+000
1.735528e+003,4.680420e+000
1.736492e+003,6.214172e+000
1.737456e+003,7.497559e+000
1.738420e+003,6.726074e+000
1.739385e+003,4.232483e+000
1.740349e+003,2.220459e+000
1.741313e+003,8.564453e-001
1.742277e+003,5.126343e-001
1.743241e+003,1.965332e+000
1.744206e+003,3.710571e+000
1.745170e+003,6.864685e+000
1.746134e+003,8.385498e+000
1.747098e+003,4.623901e+000
1.748063e+003,-2.568970e-001
1.749027e+003,-1.324951e+000
1.749991e+003,1.038086e+000
1.750955e+003,4.456421e+000
1.751919e+003,7.517212e+000
1.752884e+003,8.430054e+000
1.753848e+003,5.644592e+000
1.754812e+003,1.450989e+000
1.755776e+003,1.009644e+000
1.756741e+003,4.437500e+000
1.757705e+003,5.064026e+000
1.758669e+003,1.045166e+000
1.759633e+003,-1.189148e+000
1.760598e+003,-1.154785e-001
1.761562e+003,1.023926e+000
1.762526e+003,2.438354e+000
1.763490e+003,3.062317e+000
1.764455e+003,9.663086e-001
1.765419e+003,-1.714294e+000
1.766383e+003,-1.569275e+000
1.767347e+003,1.209900e+000
1.768312e+003,3.865479e+000
1.769276e+003,5.020935e+000
1.770240e+003,5.040833e+000
1.771204e+003,4.686584e+000
1.772168e+003,4.149292e+000
1.773133e+003,2.749756e+000
1.774097e+003,6.517334e-001
1.775061e+003,-7.922363e-002
1.776025e+003,6.497192e-001
1.776990e+003,7.404785e-001
1.777954e+003,-5.185547e-001
1.778918e+003,-1.355225e+000
1.779882e+003,-7.973633e-001
1.780846e+003,5.140381e-001
1.781811e+003,2.445129e+000
1.782775e+003,4.748047e+000
1.783739e+003,6.578491e+000
1.784703e+003,8.051697e+000
1.785668e+003,7.714722e+000
1.786632e+003,2.792480e+000
1.787596e+003,-2.063416e+000
1.788560e+003,-2.734192e+000
1.789525e+003,-8.869019e-001
1.790489e+003,1.253052e+000
1.791453e+003,3.130859e+000
1.792417e+003,4.260498e+000
1.793382e+003,4.615112e+000
1.794346e+003,4.788818e+000
1.795310e+003,5.061646e+000
1.796274e+003,4.994202e+000
1.797239e+003,4.207214e+000
1.798203e+003,3.411499e+000
1.799167e+003,3.637329e+000
1.800131e+003,4.441650e+000
1.801095e+003,4.258484e+000
1.802060e+003,2.812988e+000
1.803024e+003,2.278015e+000
1.803988e+003,2.840393e+000
1.804952e+003,3.878113e+000
1.805917e+003,5.573853e+000
1.806881e+003,7.176941e+000
1.807845e+003,8.018738e+000
1.808809e+003,8.412292e+000
1.809773e+003,9.366089e+000
1.810738e+003,1.073907e+001
1.811702e+003,1.048993e+001
1.812666e+003,7.384644e+000
1.813630e+003,4.023132e+000
1.814595e+003,4.029602e+000
1.815559e+003,6.451050e+000
1.816523e+003,7.815674e+000
1.817487e+003,8.097229e+000
1.818452e+003,8.651978e+000
1.819416e+003,1.037354e+001
1.820380e+003,1.078442e+001
1.821344e+003,6.792053e+000
1.822309e+003,4.098206e+000
1.823273e+003,8.776855e+000
1.824237e+003,1.468213e+001
1.825201e+003,1.466772e+001
1.826166e+003,1.045526e+001
1.827130e+003,7.169556e+000
1.828094e+003,5.650879e+000
1.829058e+003,5.753967e+000
1.830022e+003,8.355042e+000
1.830987e+003,1.114954e+001
1.831951e+003,1.262714e+001
1.832915e+003,1.286652e+001
1.833879e+003,1.057855e+001
1.834844e+003,7.321167e+000
1.835808e+003,9.045959e+000
1.836772e+003,1.581964e+001
1.837736e+003,1.865924e+001
1.838700e+003,1.334485e+001
1.839665e+003,6.887268e+000
1.840629e+003,5.803284e+000
1.841593e+003,8.129028e+000
1.842557e+003,9.718445e+000
1.843522e+003,1.054456e+001
1.844486e+003,9.858704e+000
1.845450e+003,5.924866e+000
1.846414e+003,4.766357e+000
1.847379e+003,7.844360e+000
1.848343e+003,1.053033e+001
1.849307e+003,1.186823e+001
1.850271e+003,1.235620e+001
1.851236e+003,1.210712e+001
1.852200e+003,1.179327e+001
1.853164e+003,1.180579e+001
1.854128e+003,1.193402e+001
1.855093e+003,1.231500e+001
1.856057e+003,1.315125e+001
1.857021e+003,1.331525e+001
1.857985e+003,1.142517e+001
1.858949e+003,9.304626e+000
1.859914e+003,1.090601e+001
1.860878e+003,1.541711e+001
1.861842e+003,1.755182e+001
1.862806e+003,1.710834e+001
1.863771e+003,1.643378e+001
1.864735e+003,1.565997e+001
1.865699e+003,1.507111e+001
1.866663e+003,1.503845e+001
1.867627e+003,1.537561e+001
1.868592e+003,1.567456e+001
1.869556e+003,1.573840e+001
1.870520e+003,1.593457e+001
1.871484e+003,1.613495e+001
1.872449e+003,1.564886e+001
1.873413e+003,1.512384e+001
1.874377e+003,1.508008e+001
1.875341e+003,1.383661e+001
1.876306e+003,1.375696e+001
1.877270e+003,1.733258e+001
1.878234e+003,2.134302e+001
1.879198e+003,2.245074e+001
1.880163e+003,2.182336e+001
1.881127e+003,2.233356e+001
1.882091e+003,2.393903e+001
1.883055e+003,2.388098e+001
1.884020e+003,2.119720e+001
1.884984e+003,1.849658e+001
1.885948e+003,1.815527e+001
1.886912e+003,1.960699e+001
1.887876e+003,2.219324e+001
1.888841e+003,2.565234e+001
1.889805e+003,2.552936e+001
1.890769e+003,2.061224e+001
1.891733e+003,1.893274e+001
1.892698e+003,2.258954e+001
1.893662e+003,2.555109e+001
1.894626e+003,2.591150e+001
1.895590e+003,2.507910e+001
1.896554e+003,2.311053e+001
1.897519e+003,2.149768e+001
1.898483e+003,2.207166e+001
1.899447e+003,2.403925e+001
1.900411e+003,2.561523e+001
1.901376e+003,2.664838e+001
1.902340e+003,2.711859e+001
1.903304e+003,2.684479e+001
1.904268e+003,2.614587e+001
1.905233e+003,2.446619e+001
1.906197e+003,2.342126e+001
1.907161e+003,2.561816e+001
1.908125e+003,2.934027e+001
1.909090e+003,3.081934e+001
1.910054e+003,3.009064e+001
1.911018e+003,3.037256e+001
1.911982e+003,3.265448e+001
1.912947e+003,3.382715e+001
1.913911e+003,3.150110e+001
1.914875e+003,2.874707e+001
1.915839e+003,3.049023e+001
1.916803e+003,3.525842e+001
1.917768e+003,3.667224e+001
1.918732e+003,3.432214e+001
1.919696e+003,3.300995e+001
1.920660e+003,3.357599e+001
1.921625e+003,3.345874e+001
1.922589e+003,3.042114e+001
1.923553e+003,2.885907e+001
1.924517e+003,3.268701e+001
1.925481e+003,3.768030e+001
1.926446e+003,4.100024e+001
1.927410e+003,4.251025e+001
1.928374e+003,4.121973e+001
1.929338e+003,3.724683e+001
1.930303e+003,3.466461e+001
1.931267e+003,3.540753e+001
1.932231e+003,3.633636e+001
1.933195e+003,3.505176e+001
1.934160e+003,3.387659e+001
1.935124e+003,3.493555e+001
1.936088e+003,3.651404e+001
1.937052e+003,3.725586e+001
1.938017e+003,3.704333e+001
1.938981e+003,3.456421e+001
1.939945e+003,3.073730e+001
1.940909e+003,3.064355e+001
1.941874e+003,3.599768e+001
1.942838e+003,4.044788e+001
1.943802e+003,3.822693e+001
1.944766e+003,3.321289e+001
1.945730e+003,3.258234e+001
1.946695e+003,3.554883e+001
1.947659e+003,3.761316e+001
1.948623e+003,3.861768e+001
1.949587e+003,3.969556e+001
1.950552e+003,4.142065e+001
1.951516e+003,4.201312e+001
1.952480e+003,4.027783e+001
1.953444e+003,3.854852e+001
1.954408e+003,3.868127e+001
1.955373e+003,3.905182e+001
1.956337e+003,3.707581e+001
1.957301e+003,3.412482e+001
1.958265e+003,3.421875e+001
1.959230e+003,3.797937e+001
1.960194e+003,4.057922e+001
1.961158e+003,3.896765e+001
1.962122e+003,3.865509e+001
1.963087e+003,4.372595e+001
1.964051e+003,4.737384e+001
1.965015e+003,4.340662e+001
1.965979e+003,3.879456e+001
1.966944e+003,4.162286e+001
1.967908e+003,4.825592e+001
1.968872e+003,5.140759e+001
1.969836e+003,5.025726e+001
1.970801e+003,4.804248e+001
1.971765e+003,4.630164e+001
1.972729e+003,4.495990e+001
1.973693e+003,4.374292e+001
1.974657e+003,4.336243e+001
1.975622e+003,4.551331e+001
1.976586e+003,4.888367e+001
1.977550e+003,4.970599e+001
1.978514e+003,4.873743e+001
1.979479e+003,5.057098e+001
1.980443e+003,5.555823e+001
1.981407e+003,5.890094e+001
1.982371e+003,5.891443e+001
1.983335e+003,5.796234e+001
1.984300e+003,5.754272e+001
1.985264e+003,5.717548e+001
1.986228e+003,5.633160e+001
1.987192e+003,5.515588e+001
1.988157e+003,5.449133e+001
1.989121e+003,5.465985e+001
1.990085e+003,5.438177e+001
1.991049e+003,5.345862e+001
1.992014e+003,5.289276e+001
1.992978e+003,5.229486e+001
1.993942e+003,5.238562e+001
1.994906e+003,5.487708e+001
1.995871e+003,5.667377e+001
1.996835e+003,5.423724e+001
1.997799e+003,5.064612e+001
1.998763e+003,5.018811e+001
1.999728e+003,5.257959e+001
