5.003444e+002,2.275797e+002
5.013087e+002,2.263044e+002
5.022729e+002,2.212196e+002
5.032371e+002,2.144758e+002
5.042014e+002,2.107542e+002
5.051656e+002,2.097504e+002
5.061298e+002,2.090897e+002
5.070941e+002,2.063263e+002
5.080583e+002,2.003099e+002
5.090225e+002,1.964575e+002
5.099868e+002,1.958207e+002
5.109510e+002,1.954250e+002
5.119152e+002,1.935540e+002
5.128795e+002,1.900577e+002
5.138437e+002,1.875721e+002
5.148079e+002,1.896772e+002
5.157722e+002,1.909304e+002
5.167364e+002,1.879410e+002
5.177006e+002,1.806841e+002
5.186649e+002,1.723757e+002
5.196291e+002,1.670144e+002
5.205933e+002,1.644434e+002
5.215576e+002,1.639884e+002
5.225218e+002,1.647329e+002
5.234860e+002,1.654481e+002
5.244503e+002,1.647126e+002
5.254145e+002,1.629443e+002
5.263787e+002,1.618040e+002
5.273430e+002,1.625277e+002
5.283072e+002,1.630740e+002
5.292714e+002,1.598102e+002
5.302357e+002,1.485980e+002
5.311999e+002,1.402050e+002
5.321641e+002,1.376495e+002
5.331284e+002,1.380782e+002
5.340926e+002,1.395419e+002
5.350568e+002,1.410831e+002
5.360211e+002,1.413285e+002
5.369853e+002,1.395736e+002
5.379495e+002,1.372845e+002
5.389138e+002,1.352572e+002
5.398780e+002,1.336954e+002
5.408422e+002,1.322394e+002
5.418065e+002,1.302627e+002
5.427707e+002,1.277831e+002
5.437349e+002,1.244235e+002
5.446992e+002,1.194053e+002
5.456634e+002,1.136389e+002
5.466276e+002,1.106127e+002
5.475919e+002,1.136434e+002
5.485561e+002,1.162722e+002
5.495203e+002,1.193389e+002
5.504846e+002,1.209354e+002
5.514488e+002,1.180150e+002
5.524130e+002,1.075671e+002
5.533773e+002,9.796252e+001
5.543415e+002,9.272583e+001
5.553057e+002,9.064343e+001
5.562700e+002,9.101904e+001
5.572342e+002,9.328540e+001
5.581984e+002,9.603992e+001
5.591627e+002,9.634863e+001
5.601269e+002,9.540454e+001
5.610911e+002,9.463159e+001
5.620554e+002,9.457275e+001
5.630196e+002,9.479236e+001
5.639838e+002,9.379041e+001
5.649481e+002,9.123523e+001
5.659123e+002,8.806946e+001
5.668765e+002,8.477979e+001
5.678408e+002,8.193005e+001
5.688050e+002,8.003674e+001
5.697692e+002,7.884082e+001
5.707335e+002,7.696252e+001
5.716977e+002,7.352673e+001
5.726619e+002,6.990051e+001
5.736262e+002,6.821277e+001
5.745904e+002,7.035669e+001
5.755546e+002,7.371851e+001
5.765189e+002,7.318140e+001
5.774831e+002,6.982629e+001
5.784473e+002,6.643604e+001
5.794116e+002,6.519580e+001
5.803758e+002,6.621704e+001
5.813400e+002,6.481506e+001
5.823043e+002,5.905579e+001
5.832685e+002,5.387939e+001
5.842327e+002,5.177930e+001
5.851970e+002,5.280273e+001
5.861612e+002,5.434033e+001
5.871254e+002,5.560681e+001
5.880897e+002,5.696985e+001
5.890539e+002,5.863196e+001
5.900181e+002,6.001819e+001
5.909824e+002,6.046021e+001
5.919466e+002,5.975244e+001
5.929108e+002,5.805225e+001
5.938751e+002,5.546924e+001
5.948393e+002,5.232166e+001
5.958035e+002,4.889490e+001
5.967678e+002,4.551501e+001
5.977320e+002,4.272681e+001
5.986962e+002,4.339233e+001
5.996605e+002,4.675183e+001
6.006247e+002,4.943286e+001
6.015889e+002,4.981592e+001
6.025532e+002,4.813049e+001
6.035174e+002,4.667712e+001
6.044816e+002,4.513062e+001
6.054459e+002,4.453442e+001
6.064101e+002,4.612231e+001
6.073743e+002,4.852783e+001
6.083386e+002,4.933826e+001
6.093028e+002,4.691541e+001
6.102670e+002,4.375403e+001
6.112313e+002,4.131470e+001
6.121955e+002,3.950281e+001
6.131597e+002,3.792749e+001
6.141240e+002,3.633984e+001
6.150882e+002,3.514246e+001
6.160524e+002,3.763440e+001
6.170167e+002,4.344470e+001
6.179809e+002,4.820764e+001
6.189451e+002,4.958496e+001
6.199094e+002,4.755798e+001
6.208736e+002,4.451917e+001
6.218378e+002,3.970618e+001
6.228021e+002,3.616211e+001
6.237663e+002,3.415173e+001
6.247305e+002,3.379114e+001
6.256948e+002,3.524561e+001
6.266590e+002,3.890271e+001
6.276232e+002,4.204443e+001
6.285875e+002,4.441467e+001
6.295517e+002,4.584851e+001
6.305159e+002,4.580554e+001
6.314802e+002,4.383582e+001
6.324444e+002,4.006445e+001
6.334086e+002,3.429272e+001
6.343729e+002,2.795361e+001
6.353371e+002,2.444995e+001
6.363013e+002,2.535864e+001
6.372656e+002,2.886792e+001
6.382298e+002,2.899084e+001
6.391940e+002,2.095813e+001
6.401583e+002,1.515210e+001
6.411225e+002,1.336169e+001
6.420867e+002,1.433179e+001
6.430510e+002,1.635901e+001
6.440152e+002,1.881995e+001
6.449794e+002,2.067761e+001
6.459437e+002,2.300830e+001
6.469079e+002,2.376367e+001
6.478721e+002,1.995337e+001
6.488364e+002,1.150098e+001
6.498006e+002,3.026489e+000
6.507648e+002,4.045044e+000
6.517291e+002,1.073010e+001
6.526933e+002,1.408850e+001
6.536575e+002,1.227002e+001
6.546218e+002,7.842163e+000
6.555860e+002,5.799316e+000
6.565502e+002,7.647705e+000
6.575145e+002,8.688599e+000
6.584787e+002,8.579468e+000
6.594429e+002,8.159546e+000
6.604072e+002,7.923584e+000
6.613714e+002,7.916992e+000
6.623356e+002,8.589722e+000
6.632999e+002,1.074329e+001
6.642641e+002,1.227100e+001
6.652283e+002,1.239978e+001
6.661926e+002,1.142139e+001
6.671568e+002,1.013293e+001
6.681210e+002,8.831421e+000
6.690853e+002,7.695190e+000
6.700495e+002,7.710693e+000
6.710137e+002,8.906250e+000
6.719780e+002,1.109668e+001
6.729422e+002,1.429553e+001
6.739064e+002,1.899243e+001
6.748707e+002,1.972583e+001
6.758349e+002,1.358313e+001
6.767991e+002,7.789429e+000
6.777634e+002,6.225220e+000
6.787276e+002,8.838501e+000
6.796918e+002,1.172363e+001
6.806561e+002,1.363184e+001
6.816203e+002,1.396338e+001
6.825845e+002,1.137439e+001
6.835488e+002,7.360352e+000
6.845130e+002,4.304810e+000
6.854772e+002,4.139160e+000
6.864415e+002,6.144165e+000
6.874057e+002,7.876465e+000
6.883699e+002,8.694336e+000
6.893342e+002,8.287231e+000
6.902984e+002,6.535034e+000
6.912626e+002,3.993286e+000
6.922269e+002,3.141602e+000
6.931911e+002,6.404663e+000
6.941553e+002,9.981323e+000
6.951196e+002,1.362354e+001
6.960838e+002,1.630969e+001
6.970480e+002,1.656067e+001
6.980123e+002,1.318164e+001
6.989765e+002,1.052905e+001
6.999407e+002,1.028357e+001
7.009050e+002,1.113599e+001
7.018692e+002,1.224121e+001
7.028334e+002,1.313623e+001
7.037977e+002,1.381152e+001
7.047619e+002,1.547485e+001
7.057261e+002,1.719531e+001
7.066904e+002,1.502783e+001
7.076546e+002,8.310303e+000
7.086188e+002,5.424805e-001
7.095831e+002,-2.739380e+000
7.105473e+002,-6.124268e-001
7.115115e+002,2.831543e+000
7.124758e+002,9.574219e+000
7.134400e+002,1.504871e+001
7.144042e+002,1.630029e+001
7.153685e+002,1.355701e+001
7.163327e+002,1.077942e+001
7.172969e+002,9.289063e+000
7.182612e+002,8.752441e+000
7.192254e+002,9.488403e+000
7.201896e+002,1.073853e+001
7.211539e+002,1.143713e+001
7.221181e+002,1.080444e+001
7.230823e+002,8.991699e+000
7.240466e+002,5.471313e+000
7.250108e+002,1.458618e+000
7.259750e+002,6.862793e-001
7.269393e+002,5.275146e+000
7.279035e+002,1.366101e+001
7.288677e+002,1.827954e+001
7.298320e+002,1.796008e+001
7.307962e+002,1.770776e+001
7.317604e+002,1.763452e+001
7.327247e+002,1.803357e+001
7.336889e+002,1.898816e+001
7.346531e+002,1.992114e+001
7.356174e+002,1.921790e+001
7.365816e+002,1.727747e+001
7.375458e+002,1.505493e+001
7.385101e+002,1.271863e+001
7.394743e+002,1.055115e+001
7.404385e+002,9.154297e+000
7.414028e+002,9.453979e+000
7.423670e+002,9.866211e+000
7.433312e+002,9.030273e+000
7.442955e+002,7.734741e+000
7.452597e+002,7.042847e+000
7.462239e+002,7.676025e+000
7.471882e+002,9.580444e+000
7.481524e+002,1.180750e+001
7.491166e+002,1.413940e+001
7.500809e+002,1.516467e+001
7.510451e+002,1.351123e+001
7.520093e+002,1.002441e+001
7.529736e+002,7.659546e+000
7.539378e+002,8.942871e+000
7.549020e+002,1.174695e+001
7.558663e+002,1.551721e+001
7.568306e+002,1.920813e+001
7.577948e+002,2.103113e+001
7.587590e+002,1.980188e+001
7.597233e+002,1.628687e+001
7.606875e+002,1.405176e+001
7.616517e+002,1.340161e+001
7.626160e+002,1.297095e+001
7.635802e+002,1.260095e+001
7.645444e+002,1.240454e+001
7.655087e+002,1.233606e+001
7.664729e+002,1.172534e+001
7.674371e+002,1.244373e+001
7.684014e+002,1.512573e+001
7.693656e+002,1.825269e+001
7.703298e+002,2.115015e+001
7.712941e+002,2.373743e+001
7.722583e+002,2.615222e+001
7.732225e+002,2.913416e+001
7.741868e+002,3.111926e+001
7.751510e+002,2.978284e+001
7.761152e+002,2.643274e+001
7.770795e+002,2.429077e+001
7.780437e+002,2.614771e+001
7.790079e+002,3.105701e+001
7.799722e+002,3.180933e+001
7.809364e+002,2.813647e+001
7.819006e+002,2.484583e+001
7.828649e+002,2.450562e+001
7.838291e+002,2.660352e+001
7.847933e+002,2.835510e+001
7.857576e+002,2.867151e+001
7.867218e+002,2.828589e+001
7.876860e+002,2.775989e+001
7.886503e+002,2.762817e+001
7.896145e+002,2.855225e+001
7.905787e+002,3.057776e+001
7.915430e+002,3.244373e+001
7.925072e+002,3.107214e+001
7.934714e+002,2.877051e+001
7.944357e+002,3.000085e+001
7.953999e+002,3.466650e+001
7.963641e+002,3.876599e+001
7.973284e+002,3.739551e+001
7.982926e+002,3.008228e+001
7.992568e+002,2.664722e+001
8.002211e+002,2.766284e+001
8.011853e+002,2.750940e+001
8.021495e+002,2.370129e+001
8.031138e+002,1.870618e+001
8.040780e+002,1.887427e+001
8.050422e+002,2.835803e+001
8.060065e+002,3.622168e+001
8.069707e+002,3.727380e+001
8.079349e+002,3.545215e+001
8.088992e+002,3.472864e+001
8.098634e+002,3.685315e+001
8.108276e+002,4.074524e+001
8.117919e+002,4.580212e+001
8.127561e+002,4.930188e+001
8.137203e+002,4.690161e+001
8.146846e+002,3.894775e+001
8.156488e+002,3.030664e+001
8.166130e+002,2.644214e+001
8.175773e+002,2.781897e+001
8.185415e+002,3.019897e+001
8.195057e+002,3.452917e+001
8.204700e+002,3.733264e+001
8.214342e+002,3.674194e+001
8.223984e+002,3.376379e+001
8.233627e+002,3.095471e+001
8.243269e+002,2.882861e+001
8.252911e+002,2.839404e+001
8.262554e+002,3.130737e+001
8.272196e+002,3.494312e+001
8.281838e+002,3.585657e+001
8.291481e+002,3.320056e+001
8.301123e+002,2.988293e+001
8.310765e+002,3.151001e+001
8.320408e+002,3.737305e+001
8.330050e+002,4.007397e+001
8.339692e+002,3.889929e+001
8.349335e+002,3.613770e+001
8.358977e+002,3.397217e+001
8.368619e+002,3.272363e+001
8.378262e+002,3.248755e+001
8.387904e+002,3.338989e+001
8.397546e+002,3.408435e+001
8.407189e+002,3.398682e+001
8.416831e+002,3.364832e+001
8.426473e+002,3.383447e+001
8.436116e+002,3.479602e+001
8.445758e+002,3.728381e+001
8.455400e+002,4.290491e+001
8.465043e+002,4.859851e+001
8.474685e+002,5.164685e+001
8.484327e+002,5.183911e+001
8.493970e+002,5.065552e+001
8.503612e+002,4.965723e+001
8.513254e+002,4.844690e+001
8.522897e+002,4.861536e+001
8.532539e+002,5.079529e+001
8.542181e+002,5.250244e+001
8.551824e+002,5.216577e+001
8.561466e+002,5.087366e+001
8.571108e+002,5.249890e+001
8.580751e+002,5.814941e+001
8.590393e+002,6.327600e+001
8.600035e+002,6.769385e+001
8.609678e+002,7.134827e+001
8.619320e+002,7.354431e+001
8.628962e+002,7.411389e+001
8.638605e+002,7.484912e+001
8.648247e+002,7.989758e+001
8.657889e+002,8.659338e+001
8.667532e+002,8.884912e+001
8.677174e+002,8.587817e+001
8.686816e+002,8.165881e+001
8.696459e+002,8.090063e+001
8.706101e+002,8.443628e+001
8.715743e+002,8.801819e+001
8.725386e+002,9.251697e+001
8.735028e+002,9.613965e+001
8.744670e+002,9.719226e+001
8.754313e+002,9.639746e+001
8.763955e+002,9.540234e+001
8.773597e+002,9.459277e+001
8.783240e+002,9.557446e+001
8.792882e+002,1.006146e+002
8.802524e+002,1.064222e+002
8.812167e+002,1.103140e+002
8.821809e+002,1.117668e+002
8.831451e+002,1.119232e+002
8.841094e+002,1.123053e+002
8.850736e+002,1.134092e+002
8.860378e+002,1.152650e+002
8.870021e+002,1.177574e+002
8.879663e+002,1.198909e+002
8.889305e+002,1.196514e+002
8.898948e+002,1.178319e+002
8.908590e+002,1.201038e+002
8.918232e+002,1.322042e+002
8.927875e+002,1.404818e+002
8.937517e+002,1.392145e+002
8.947159e+002,1.355878e+002
8.956802e+002,1.355322e+002
8.966444e+002,1.397411e+002
8.976086e+002,1.437588e+002
8.985729e+002,1.433181e+002
8.995371e+002,1.411624e+002
9.005013e+002,1.411083e+002
9.014656e+002,1.433466e+002
9.024298e+002,1.469722e+002
9.033940e+002,1.511060e+002
9.043583e+002,1.549551e+002
9.053225e+002,1.563958e+002
9.062867e+002,1.517467e+002
9.072510e+002,1.484386e+002
9.082152e+002,1.477891e+002
9.091794e+002,1.492747e+002
9.101437e+002,1.534498e+002
9.111079e+002,1.603999e+002
9.120721e+002,1.646191e+002
9.130364e+002,1.585376e+002
9.140006e+002,1.511499e+002
9.149648e+002,1.483226e+002
9.159291e+002,1.493108e+002
9.168933e+002,1.509496e+002
9.178575e+002,1.506906e+002
9.188218e+002,1.485601e+002
9.197860e+002,1.451345e+002
9.207502e+002,1.399580e+002
9.217145e+002,1.372667e+002
9.226787e+002,1.400155e+002
9.236429e+002,1.451206e+002
9.246072e+002,1.480200e+002
9.255714e+002,1.480322e+002
9.265356e+002,1.467924e+002
9.274999e+002,1.431163e+002
9.284641e+002,1.392454e+002
9.294283e+002,1.366635e+002
9.303926e+002,1.347742e+002
9.313568e+002,1.314844e+002
9.323210e+002,1.254398e+002
9.332853e+002,1.199487e+002
9.342495e+002,1.237880e+002
9.352137e+002,1.309596e+002
9.361780e+002,1.317194e+002
9.371422e+002,1.245455e+002
9.381064e+002,1.154469e+002
9.390707e+002,1.118595e+002
9.400349e+002,1.138794e+002
9.409991e+002,1.160896e+002
9.419634e+002,1.193979e+002
9.429276e+002,1.214069e+002
9.438918e+002,1.207062e+002
9.448561e+002,1.188268e+002
9.458203e+002,1.186566e+002
9.467845e+002,1.215858e+002
9.477488e+002,1.243099e+002
9.487130e+002,1.245385e+002
9.496772e+002,1.231196e+002
9.506415e+002,1.186619e+002
9.516057e+002,1.126176e+002
9.525699e+002,1.098727e+002
9.535342e+002,1.152942e+002
9.544984e+002,1.269883e+002
9.554626e+002,1.297318e+002
9.564269e+002,1.227256e+002
9.573911e+002,1.177230e+002
9.583553e+002,1.187987e+002
9.593196e+002,1.228029e+002
9.602838e+002,1.251105e+002
9.612480e+002,1.254791e+002
9.622123e+002,1.232745e+002
9.631765e+002,1.159534e+002
9.641407e+002,1.088944e+002
9.651050e+002,1.039362e+002
9.660692e+002,1.009083e+002
9.670334e+002,9.925330e+001
9.679977e+002,9.899829e+001
9.689619e+002,1.003597e+002
9.699261e+002,1.021234e+002
9.708904e+002,1.042892e+002
9.718546e+002,1.095000e+002
9.728188e+002,1.185101e+002
9.737831e+002,1.288787e+002
9.747473e+002,1.376970e+002
9.757115e+002,1.448311e+002
9.766758e+002,1.523645e+002
9.776400e+002,1.652550e+002
9.786042e+002,1.735928e+002
9.795685e+002,1.738350e+002
9.805327e+002,1.676558e+002
9.814969e+002,1.566927e+002
9.824612e+002,1.418729e+002
9.834254e+002,1.276028e+002
9.843896e+002,1.164751e+002
9.853539e+002,1.082604e+002
9.863181e+002,1.043855e+002
9.872823e+002,1.036364e+002
9.882466e+002,1.024309e+002
9.892108e+002,9.831152e+001
9.901750e+002,9.280737e+001
9.911393e+002,9.084216e+001
9.921035e+002,9.235046e+001
9.930677e+002,9.425818e+001
9.940320e+002,9.670520e+001
9.949962e+002,1.006013e+002
9.959604e+002,1.077079e+002
9.969247e+002,1.179922e+002
9.978889e+002,1.267828e+002
9.988531e+002,1.288832e+002
9.998174e+002,1.306691e+002
1.000782e+003,1.389586e+002
1.001746e+003,1.495635e+002
1.002710e+003,1.553480e+002
1.003674e+003,1.534653e+002
1.004639e+003,1.480638e+002
1.005603e+003,1.466970e+002
1.006567e+003,1.495764e+002
1.007531e+003,1.483313e+002
1.008495e+003,1.414807e+002
1.009460e+003,1.339790e+002
1.010424e+003,1.287900e+002
1.011388e+003,1.256107e+002
1.012352e+003,1.227880e+002
1.013317e+003,1.202328e+002
1.014281e+003,1.169528e+002
1.015245e+003,1.126074e+002
1.016209e+003,1.070978e+002
1.017174e+003,1.002043e+002
1.018138e+003,9.229773e+001
1.019102e+003,8.403198e+001
1.020066e+003,7.594189e+001
1.021031e+003,6.878809e+001
1.021995e+003,6.342188e+001
1.022959e+003,5.905408e+001
1.023923e+003,5.653552e+001
1.024887e+003,5.699280e+001
1.025852e+003,5.767017e+001
1.026816e+003,5.379077e+001
1.027780e+003,4.433533e+001
1.028744e+003,3.754932e+001
1.029709e+003,3.431018e+001
1.030673e+003,3.316443e+001
1.031637e+003,3.564355e+001
1.032601e+003,3.881689e+001
1.033566e+003,3.839661e+001
1.034530e+003,3.319507e+001
1.035494e+003,2.797729e+001
1.036458e+003,2.873840e+001
1.037422e+003,3.189258e+001
1.038387e+003,3.053308e+001
1.039351e+003,2.496826e+001
1.040315e+003,2.135449e+001
1.041279e+003,2.483118e+001
1.042244e+003,3.394446e+001
1.043208e+003,4.030505e+001
1.044172e+003,4.216003e+001
1.045136e+003,4.251660e+001
1.046101e+003,4.124170e+001
1.047065e+003,3.945557e+001
1.048029e+003,3.716211e+001
1.048993e+003,3.464368e+001
1.049958e+003,3.299512e+001
1.050922e+003,3.298120e+001
1.051886e+003,3.446130e+001
1.052850e+003,3.847168e+001
1.053814e+003,4.293396e+001
1.054779e+003,4.472290e+001
1.055743e+003,4.328625e+001
1.056707e+003,4.075830e+001
1.057671e+003,3.975977e+001
1.058636e+003,4.017615e+001
1.059600e+003,3.963928e+001
1.060564e+003,3.744019e+001
1.061528e+003,3.691687e+001
1.062493e+003,3.944885e+001
1.063457e+003,4.207483e+001
1.064421e+003,4.182617e+001
1.065385e+003,3.864355e+001
1.066349e+003,3.486597e+001
1.067314e+003,3.081702e+001
1.068278e+003,2.764050e+001
1.069242e+003,2.611975e+001
1.070206e+003,2.620520e+001
1.071171e+003,2.768494e+001
1.072135e+003,3.012036e+001
1.073099e+003,3.289697e+001
1.074063e+003,3.547974e+001
1.075028e+003,3.811243e+001
1.075992e+003,4.047400e+001
1.076956e+003,4.320020e+001
1.077920e+003,4.380298e+001
1.078885e+003,4.054858e+001
1.079849e+003,3.572302e+001
1.080813e+003,3.326428e+001
1.081777e+003,3.415381e+001
1.082741e+003,3.541895e+001
1.083706e+003,3.432617e+001
1.084670e+003,3.305823e+001
1.085634e+003,3.352063e+001
1.086598e+003,3.466199e+001
1.087563e+003,3.412451e+001
1.088527e+003,3.103271e+001
1.089491e+003,2.762024e+001
1.090455e+003,2.746533e+001
1.091420e+003,3.052161e+001
1.092384e+003,3.345056e+001
1.093348e+003,3.666162e+001
1.094312e+003,3.817688e+001
1.095276e+003,3.621582e+001
1.096241e+003,3.243005e+001
1.097205e+003,3.100037e+001
1.098169e+003,3.281519e+001
1.099133e+003,3.436597e+001
1.100098e+003,3.445813e+001
1.101062e+003,3.433984e+001
1.102026e+003,3.498621e+001
1.102990e+003,3.613318e+001
1.103955e+003,3.662610e+001
1.104919e+003,3.566919e+001
1.105883e+003,3.411304e+001
1.106847e+003,3.429724e+001
1.107812e+003,3.614917e+001
1.108776e+003,3.676379e+001
1.109740e+003,3.548694e+001
1.110704e+003,3.410046e+001
1.111668e+003,3.427307e+001
1.112633e+003,3.612659e+001
1.113597e+003,3.862195e+001
1.114561e+003,4.151501e+001
1.115525e+003,4.418091e+001
1.116490e+003,4.705005e+001
1.117454e+003,4.895398e+001
1.118418e+003,4.867822e+001
1.119382e+003,4.748755e+001
1.120347e+003,4.770093e+001
1.121311e+003,5.025671e+001
1.122275e+003,5.337158e+001
1.123239e+003,5.493542e+001
1.124203e+003,5.587915e+001
1.125168e+003,5.807214e+001
1.126132e+003,6.195190e+001
1.127096e+003,6.681958e+001
1.128060e+003,7.275732e+001
1.129025e+003,7.894556e+001
1.129989e+003,8.196631e+001
1.130953e+003,7.920691e+001
1.131917e+003,7.813318e+001
1.132882e+003,8.263098e+001
1.133846e+003,8.785864e+001
1.134810e+003,9.021497e+001
1.135774e+003,9.095874e+001
1.136739e+003,9.380945e+001
1.137703e+003,1.007727e+002
1.138667e+003,1.093878e+002
1.139631e+003,1.146948e+002
1.140595e+003,1.176002e+002
1.141560e+003,1.266699e+002
1.142524e+003,1.439053e+002
1.143488e+003,1.633270e+002
1.144452e+003,1.793502e+002
1.145417e+003,1.940548e+002
1.146381e+003,2.154573e+002
1.147345e+003,2.454669e+002
1.148309e+003,2.773121e+002
1.149274e+003,3.105970e+002
1.150238e+003,3.444418e+002
1.151202e+003,3.810789e+002
1.152166e+003,4.179634e+002
1.153130e+003,4.517739e+002
1.154095e+003,4.799486e+002
1.155059e+003,4.989114e+002
1.156023e+003,5.042137e+002
1.156987e+003,4.960571e+002
1.157952e+003,4.806143e+002
1.158916e+003,4.583771e+002
1.159880e+003,4.335153e+002
1.160844e+003,4.066832e+002
1.161809e+003,3.769667e+002
1.162773e+003,3.430590e+002
1.163737e+003,3.030721e+002
1.164701e+003,2.677297e+002
1.165666e+003,2.420101e+002
1.166630e+003,2.201831e+002
1.167594e+003,2.008531e+002
1.168558e+003,1.837307e+002
1.169522e+003,1.679290e+002
1.170487e+003,1.537974e+002
1.171451e+003,1.450052e+002
1.172415e+003,1.465354e+002
1.173379e+003,1.554741e+002
1.174344e+003,1.567418e+002
1.175308e+003,1.504397e+002
1.176272e+003,1.438521e+002
1.177236e+003,1.395526e+002
1.178201e+003,1.363137e+002
1.179165e+003,1.321936e+002
1.180129e+003,1.267405e+002
1.181093e+003,1.206736e+002
1.182057e+003,1.125961e+002
1.183022e+003,1.070476e+002
1.183986e+003,1.076116e+002
1.184950e+003,1.098918e+002
1.185914e+003,1.088663e+002
1.186879e+003,1.050591e+002
1.187843e+003,1.039459e+002
1.188807e+003,1.099438e+002
1.189771e+003,1.194672e+002
1.190736e+003,1.220675e+002
1.191700e+003,1.168768e+002
1.192664e+003,1.125795e+002
1.193628e+003,1.111742e+002
1.194593e+003,1.098771e+002
1.195557e+003,1.066516e+002
1.196521e+003,1.017250e+002
1.197485e+003,9.582788e+001
1.198449e+003,8.842053e+001
1.199414e+003,8.250635e+001
1.200378e+003,8.139246e+001
1.201342e+003,8.053186e+001
1.202306e+003,7.577856e+001
1.203271e+003,6.883899e+001
1.204235e+003,6.451440e+001
1.205199e+003,6.498718e+001
1.206163e+003,6.687976e+001
1.207128e+003,6.426160e+001
1.208092e+003,5.688940e+001
1.209056e+003,5.110229e+001
1.210020e+003,4.801648e+001
1.210984e+003,4.412817e+001
1.211949e+003,3.766089e+001
1.212913e+003,3.007300e+001
1.213877e+003,2.349292e+001
1.214841e+003,1.819775e+001
1.215806e+003,1.292993e+001
1.216770e+003,6.909180e+000
1.217734e+003,9.799805e-001
1.218698e+003,-4.711304e+000
1.219663e+003,-1.022278e+001
1.220627e+003,-1.564197e+001
1.221591e+003,-2.084753e+001
1.222555e+003,-2.548608e+001
1.223520e+003,-2.913727e+001
1.224484e+003,-3.160040e+001
1.225448e+003,-3.301099e+001
1.226412e+003,-3.314325e+001
1.227376e+003,-3.284570e+001
1.228341e+003,-3.147797e+001
1.229305e+003,-3.078644e+001
1.230269e+003,-3.240936e+001
1.231233e+003,-3.525525e+001
1.232198e+003,-3.676929e+001
1.233162e+003,-3.600018e+001
1.234126e+003,-3.469550e+001
1.235090e+003,-3.452063e+001
1.236055e+003,-3.475574e+001
1.237019e+003,-3.404779e+001
1.237983e+003,-3.316461e+001
1.238947e+003,-3.417035e+001
1.239911e+003,-3.762054e+001
1.240876e+003,-4.082764e+001
1.241840e+003,-3.956006e+001
1.242804e+003,-3.331848e+001
1.243768e+003,-3.118079e+001
1.244733e+003,-3.922919e+001
1.245697e+003,-4.324713e+001
1.246661e+003,-4.069080e+001
1.247625e+003,-3.612695e+001
1.248590e+003,-3.212354e+001
1.249554e+003,-2.856543e+001
1.250518e+003,-2.414746e+001
1.251482e+003,-1.835376e+001
1.252447e+003,-1.406128e+001
1.253411e+003,-1.542017e+001
1.254375e+003,-1.965759e+001
1.255339e+003,-2.176355e+001
1.256303e+003,-2.122534e+001
1.257268e+003,-1.805200e+001
1.258232e+003,-1.145203e+001
1.259196e+003,-4.597412e+000
1.260160e+003,-4.342773e+000
1.261125e+003,-1.205164e+001
1.262089e+003,-1.477417e+001
1.263053e+003,-7.362915e+000
1.264017e+003,-4.957275e-001
1.264982e+003,4.502563e+000
1.265946e+003,7.409790e+000
1.266910e+003,7.545166e+000
1.267874e+003,5.489746e+000
1.268839e+003,2.841919e+000
1.269803e+003,6.838379e-001
1.270767e+003,-1.112915e+000
1.271731e+003,-2.737793e+000
1.272695e+003,-3.916870e+000
1.273660e+003,-4.532593e+000
1.274624e+003,-4.998047e+000
1.275588e+003,-6.078857e+000
1.276552e+003,-7.866089e+000
1.277517e+003,-9.755371e+000
1.278481e+003,-1.134241e+001
1.279445e+003,-1.279614e+001
1.280409e+003,-1.372119e+001
1.281374e+003,-1.343213e+001
1.282338e+003,-1.315344e+001
1.283302e+003,-1.326184e+001
1.284266e+003,-1.400793e+001
1.285230e+003,-1.585474e+001
1.286195e+003,-1.874261e+001
1.287159e+003,-2.222473e+001
1.288123e+003,-2.572162e+001
1.289087e+003,-2.831396e+001
1.290052e+003,-2.805139e+001
1.291016e+003,-2.403687e+001
1.291980e+003,-2.183832e+001
1.292944e+003,-2.314404e+001
1.293909e+003,-2.482281e+001
1.294873e+003,-2.484473e+001
1.295837e+003,-2.419873e+001
1.296801e+003,-2.452527e+001
1.297766e+003,-2.601086e+001
1.298730e+003,-2.804401e+001
1.299694e+003,-3.130286e+001
1.300658e+003,-3.390521e+001
1.301622e+003,-3.238770e+001
1.302587e+003,-2.897601e+001
1.303551e+003,-2.762079e+001
1.304515e+003,-2.871405e+001
1.305479e+003,-2.979761e+001
1.306444e+003,-2.912219e+001
1.307408e+003,-2.744232e+001
1.308372e+003,-2.662109e+001
1.309336e+003,-2.711304e+001
1.310301e+003,-2.719244e+001
1.311265e+003,-2.536615e+001
1.312229e+003,-2.427832e+001
1.313193e+003,-2.591699e+001
1.314157e+003,-2.809985e+001
1.315122e+003,-2.785840e+001
1.316086e+003,-2.566077e+001
1.317050e+003,-2.524731e+001
1.318014e+003,-2.903784e+001
1.318979e+003,-3.389764e+001
1.319943e+003,-3.468878e+001
1.320907e+003,-3.135345e+001
1.321871e+003,-2.606110e+001
1.322836e+003,-1.819287e+001
1.323800e+003,-1.329517e+001
1.324764e+003,-1.634418e+001
1.325728e+003,-2.294092e+001
1.326693e+003,-2.580872e+001
1.327657e+003,-2.496967e+001
1.328621e+003,-2.374725e+001
1.329585e+003,-2.120105e+001
1.330549e+003,-1.851782e+001
1.331514e+003,-1.770233e+001
1.332478e+003,-1.811511e+001
1.333442e+003,-1.916870e+001
1.334406e+003,-2.016730e+001
1.335371e+003,-1.984979e+001
1.336335e+003,-1.757819e+001
1.337299e+003,-1.520758e+001
1.338263e+003,-1.670282e+001
1.339228e+003,-2.283380e+001
1.340192e+003,-2.531982e+001
1.341156e+003,-2.087555e+001
1.342120e+003,-1.794366e+001
1.343084e+003,-1.940576e+001
1.344049e+003,-2.218799e+001
1.345013e+003,-2.355811e+001
1.345977e+003,-2.331146e+001
1.346941e+003,-2.229431e+001
1.347906e+003,-2.080450e+001
1.348870e+003,-1.946271e+001
1.349834e+003,-1.921777e+001
1.350798e+003,-1.962451e+001
1.351763e+003,-1.893811e+001
1.352727e+003,-1.733514e+001
1.353691e+003,-1.677191e+001
1.354655e+003,-1.806494e+001
1.355620e+003,-1.998389e+001
1.356584e+003,-2.100165e+001
1.357548e+003,-2.107544e+001
1.358512e+003,-2.136823e+001
1.359476e+003,-2.269122e+001
1.360441e+003,-2.399451e+001
1.361405e+003,-2.494775e+001
1.362369e+003,-2.534619e+001
1.363333e+003,-2.498676e+001
1.364298e+003,-2.400214e+001
1.365262e+003,-2.217639e+001
1.366226e+003,-1.977661e+001
1.367190e+003,-1.804913e+001
1.368155e+003,-1.814069e+001
1.369119e+003,-1.926324e+001
1.370083e+003,-1.875488e+001
1.371047e+003,-1.568640e+001
1.372011e+003,-1.379791e+001
1.372976e+003,-1.481891e+001
1.373940e+003,-1.580066e+001
1.374904e+003,-1.557782e+001
1.375868e+003,-1.433649e+001
1.376833e+003,-1.188574e+001
1.377797e+003,-8.742737e+000
1.378761e+003,-7.352356e+000
1.379725e+003,-9.154297e+000
1.380690e+003,-1.117560e+001
1.381654e+003,-9.263428e+000
1.382618e+003,-5.989868e+000
1.383582e+003,-5.182739e+000
1.384547e+003,-6.826721e+000
1.385511e+003,-9.034912e+000
1.386475e+003,-1.138440e+001
1.387439e+003,-1.292499e+001
1.388403e+003,-1.111798e+001
1.389368e+003,-6.037842e+000
1.390332e+003,-4.507935e+000
1.391296e+003,-9.261047e+000
1.392260e+003,-1.164343e+001
1.393225e+003,-7.697449e+000
1.394189e+003,-3.543945e+000
1.395153e+003,-2.516968e+000
1.396117e+003,-3.613525e+000
1.397082e+003,-4.853394e+000
1.398046e+003,-5.515442e+000
1.399010e+003,-6.348083e+000
1.399974e+003,-8.381409e+000
1.400938e+003,-1.140771e+001
1.401903e+003,-1.305957e+001
1.402867e+003,-1.164850e+001
1.403831e+003,-9.670410e+000
1.404795e+003,-8.125122e+000
1.405760e+003,-6.010437e+000
1.406724e+003,-2.609253e+000
1.407688e+003,-4.472656e-001
1.408652e+003,-2.459595e+000
1.409617e+003,-7.362061e+000
1.410581e+003,-1.012115e+001
1.411545e+003,-8.459290e+000
1.412509e+003,-6.005127e+000
1.413474e+003,-7.311646e+000
1.414438e+003,-1.020135e+001
1.415402e+003,-9.606812e+000
1.416366e+003,-5.587036e+000
1.417330e+003,-1.632019e+000
1.418295e+003,1.120850e+000
1.419259e+003,2.613037e+000
1.420223e+003,1.271362e+000
1.421187e+003,-2.323242e+000
1.422152e+003,-1.730896e+000
1.423116e+003,5.732666e+000
1.424080e+003,1.089868e+001
1.425044e+003,7.851807e+000
1.426009e+003,4.612427e+000
1.426973e+003,4.949219e+000
1.427937e+003,6.582764e+000
1.428901e+003,6.216064e+000
1.429865e+003,4.325256e+000
1.430830e+003,4.631897e+000
1.431794e+003,9.285095e+000
1.432758e+003,1.540137e+001
1.433722e+003,1.783789e+001
1.434687e+003,1.700745e+001
1.435651e+003,1.758008e+001
1.436615e+003,1.796667e+001
1.437579e+003,1.853625e+001
1.438544e+003,2.003088e+001
1.439508e+003,2.147821e+001
1.440472e+003,2.283185e+001
1.441436e+003,2.412164e+001
1.442401e+003,2.470587e+001
1.443365e+003,2.443463e+001
1.444329e+003,2.488782e+001
1.445293e+003,2.777673e+001
1.446257e+003,3.119751e+001
1.447222e+003,3.051477e+001
1.448186e+003,2.656555e+001
1.449150e+003,2.448767e+001
1.450114e+003,2.497168e+001
1.451079e+003,2.549786e+001
1.452043e+003,2.552728e+001
1.453007e+003,2.509235e+001
1.453971e+003,2.303973e+001
1.454936e+003,1.962964e+001
1.455900e+003,1.887146e+001
1.456864e+003,2.286438e+001
1.457828e+003,2.610522e+001
1.458792e+003,2.428442e+001
1.459757e+003,2.068225e+001
1.460721e+003,1.719507e+001
1.461685e+003,1.423450e+001
1.462649e+003,1.264227e+001
1.463614e+003,1.273029e+001
1.464578e+003,1.343488e+001
1.465542e+003,1.360480e+001
1.466506e+003,1.338367e+001
1.467471e+003,1.383069e+001
1.468435e+003,1.562048e+001
1.469399e+003,1.779431e+001
1.470363e+003,1.996667e+001
1.471328e+003,2.168616e+001
1.472292e+003,2.237756e+001
1.473256e+003,2.202417e+001
1.474220e+003,2.103302e+001
1.475184e+003,2.006635e+001
1.476149e+003,1.926105e+001
1.477113e+003,1.854095e+001
1.478077e+003,1.850037e+001
1.479041e+003,2.016687e+001
1.480006e+003,2.340283e+001
1.480970e+003,2.662292e+001
1.481934e+003,2.919666e+001
1.482898e+003,3.204077e+001
1.483863e+003,3.571179e+001
1.484827e+003,3.857684e+001
1.485791e+003,3.944257e+001
1.486755e+003,4.086786e+001
1.487719e+003,4.610040e+001
1.488684e+003,5.318048e+001
1.489648e+003,5.671069e+001
1.490612e+003,5.534290e+001
1.491576e+003,5.376453e+001
1.492541e+003,5.516833e+001
1.493505e+003,5.918591e+001
1.494469e+003,6.644214e+001
1.495433e+003,7.565930e+001
1.496398e+003,8.188605e+001
1.497362e+003,8.391498e+001
1.498326e+003,8.786176e+001
1.499290e+003,9.753839e+001
1.500255e+003,1.102458e+002
1.501219e+003,1.225885e+002
1.502183e+003,1.343613e+002
1.503147e+003,1.454199e+002
1.504111e+003,1.550450e+002
1.505076e+003,1.675256e+002
1.506040e+003,1.864976e+002
1.507004e+003,2.086583e+002
1.507968e+003,2.300446e+002
1.508933e+003,2.519770e+002
1.509897e+003,2.770706e+002
1.510861e+003,3.067110e+002
1.511825e+003,3.413864e+002
1.512790e+003,3.821171e+002
1.513754e+003,4.250399e+002
1.514718e+003,4.634757e+002
1.515682e+003,4.969135e+002
1.516646e+003,5.304167e+002
1.517611e+003,5.670100e+002
1.518575e+003,5.989308e+002
1.519539e+003,6.246786e+002
1.520503e+003,6.452878e+002
1.521468e+003,6.620753e+002
1.522432e+003,6.729150e+002
1.523396e+003,6.743842e+002
1.524360e+003,6.666317e+002
1.525325e+003,6.531997e+002
1.526289e+003,6.366223e+002
1.527253e+003,6.160898e+002
1.528217e+003,5.894053e+002
1.529182e+003,5.569551e+002
1.530146e+003,5.243307e+002
1.531110e+003,4.941796e+002
1.532074e+003,4.575391e+002
1.533039e+003,4.077192e+002
1.534003e+003,3.568304e+002
1.534967e+003,3.097699e+002
1.535931e+003,2.669463e+002
1.536896e+003,2.272975e+002
1.537860e+003,1.915652e+002
1.538824e+003,1.620941e+002
1.539788e+003,1.396332e+002
1.540752e+003,1.213063e+002
1.541717e+003,1.034991e+002
1.542681e+003,8.736005e+001
1.543645e+003,7.824054e+001
1.544609e+003,8.107416e+001
1.545573e+003,7.991431e+001
1.546538e+003,6.913818e+001
1.547502e+003,6.031140e+001
1.548466e+003,5.883557e+001
1.549430e+003,6.165112e+001
1.550395e+003,6.632996e+001
1.551359e+003,7.148755e+001
1.552323e+003,7.605420e+001
1.553287e+003,7.955109e+001
1.554252e+003,8.018695e+001
1.555216e+003,7.601166e+001
1.556180e+003,6.861102e+001
1.557144e+003,6.106714e+001
1.558109e+003,5.363586e+001
1.559073e+003,4.931665e+001
1.560037e+003,4.894604e+001
1.561001e+003,4.828113e+001
1.561966e+003,4.681274e+001
1.562930e+003,4.513257e+001
1.563894e+003,4.259656e+001
1.564858e+003,3.986725e+001
1.565823e+003,3.891681e+001
1.566787e+003,4.001532e+001
1.567751e+003,4.207758e+001
1.568715e+003,4.505676e+001
1.569679e+003,4.779602e+001
1.570644e+003,4.839514e+001
1.571608e+003,4.706384e+001
1.572572e+003,4.512415e+001
1.573536e+003,4.291150e+001
1.574500e+003,4.264502e+001
1.575465e+003,4.562457e+001
1.576429e+003,4.941327e+001
1.577393e+003,5.206757e+001
1.578357e+003,5.378302e+001
1.579322e+003,5.559198e+001
1.580286e+003,5.761035e+001
1.581250e+003,5.823816e+001
1.582214e+003,5.664001e+001
1.583179e+003,5.472034e+001
1.584143e+003,5.293921e+001
1.585107e+003,5.192407e+001
1.586071e+003,5.359924e+001
1.587036e+003,5.766400e+001
1.588000e+003,6.149347e+001
1.588964e+003,6.418353e+001
1.589928e+003,6.587128e+001
1.590893e+003,6.663574e+001
1.591857e+003,6.664978e+001
1.592821e+003,6.575183e+001
1.593785e+003,6.432788e+001
1.594750e+003,6.405481e+001
1.595714e+003,6.495618e+001
1.596678e+003,6.647144e+001
1.597642e+003,6.827942e+001
1.598606e+003,7.096686e+001
1.599571e+003,7.694696e+001
1.600535e+003,8.323053e+001
1.601499e+003,8.490753e+001
1.602463e+003,8.245691e+001
1.603427e+003,8.076013e+001
1.604392e+003,8.189673e+001
1.605356e+003,8.378955e+001
1.606320e+003,8.485803e+001
1.607284e+003,8.494446e+001
1.608249e+003,8.284216e+001
1.609213e+003,7.842999e+001
1.610177e+003,7.624078e+001
1.611141e+003,7.790411e+001
1.612106e+003,7.965912e+001
1.613070e+003,7.972919e+001
1.614034e+003,7.906299e+001
1.614998e+003,7.744788e+001
1.615963e+003,7.597412e+001
1.616927e+003,7.701392e+001
1.617891e+003,8.028027e+001
1.618855e+003,8.178101e+001
1.619820e+003,7.864404e+001
1.620784e+003,7.361688e+001
1.621748e+003,7.159967e+001
1.622712e+003,7.277106e+001
1.623677e+003,7.360419e+001
1.624641e+003,7.395575e+001
1.625605e+003,7.509521e+001
1.626569e+003,7.651685e+001
1.627533e+003,7.734351e+001
1.628498e+003,7.694373e+001
1.629462e+003,7.718457e+001
1.630426e+003,8.068604e+001
1.631390e+003,8.556555e+001
1.632354e+003,8.757440e+001
1.633319e+003,8.580963e+001
1.634283e+003,8.296100e+001
1.635247e+003,8.069757e+001
1.636211e+003,7.913464e+001
1.637176e+003,7.890747e+001
1.638140e+003,8.017261e+001
1.639104e+003,8.190454e+001
1.640068e+003,8.423157e+001
1.641033e+003,8.540942e+001
1.641997e+003,8.459680e+001
1.642961e+003,8.366626e+001
1.643925e+003,8.289056e+001
1.644890e+003,8.285663e+001
1.645854e+003,8.470941e+001
1.646818e+003,8.753510e+001
1.647782e+003,8.918896e+001
1.648747e+003,8.897607e+001
1.649711e+003,8.777319e+001
1.650675e+003,8.629199e+001
1.651639e+003,8.538257e+001
1.652604e+003,8.734387e+001
1.653568e+003,9.162695e+001
1.654532e+003,8.953290e+001
1.655496e+003,7.791461e+001
1.656460e+003,6.981549e+001
1.657425e+003,7.217841e+001
1.658389e+003,7.495734e+001
1.659353e+003,7.197021e+001
1.660317e+003,6.706067e+001
1.661281e+003,6.386194e+001
1.662246e+003,6.237158e+001
1.663210e+003,6.181274e+001
1.664174e+003,6.203723e+001
1.665138e+003,6.229077e+001
1.666103e+003,6.182355e+001
1.667067e+003,6.046490e+001
1.668031e+003,5.765497e+001
1.668995e+003,5.373407e+001
1.669960e+003,5.177948e+001
1.670924e+003,5.233203e+001
1.671888e+003,5.424939e+001
1.672852e+003,5.818115e+001
1.673817e+003,6.139294e+001
1.674781e+003,6.161658e+001
1.675745e+003,6.059180e+001
1.676709e+003,6.050122e+001
1.677674e+003,6.082843e+001
1.678638e+003,5.932941e+001
1.679602e+003,5.534857e+001
1.680566e+003,5.079132e+001
1.681531e+003,4.685254e+001
1.682495e+003,4.425110e+001
1.683459e+003,4.425928e+001
1.684423e+003,4.611438e+001
1.685387e+003,4.678601e+001
1.686352e+003,4.609692e+001
1.687316e+003,4.489050e+001
1.688280e+003,4.306140e+001
1.689244e+003,4.142950e+001
1.690208e+003,4.098407e+001
1.691173e+003,4.052521e+001
1.692137e+003,3.854803e+001
1.693101e+003,3.595911e+001
1.694065e+003,3.466321e+001
1.695030e+003,3.471228e+001
1.695994e+003,3.503857e+001
1.696958e+003,3.593335e+001
1.697922e+003,3.615564e+001
1.698887e+003,3.318610e+001
1.699851e+003,2.854578e+001
1.700815e+003,2.671893e+001
1.701779e+003,2.781030e+001
1.702744e+003,2.887823e+001
1.703708e+003,2.972614e+001
1.704672e+003,2.969458e+001
1.705636e+003,2.660718e+001
1.706601e+003,2.270764e+001
1.707565e+003,2.341241e+001
1.708529e+003,2.709882e+001
1.709493e+003,2.687805e+001
1.710458e+003,2.139142e+001
1.711422e+003,1.673596e+001
1.712386e+003,1.625189e+001
1.713350e+003,1.722021e+001
1.714314e+003,1.700580e+001
1.715279e+003,1.618231e+001
1.716243e+003,1.639624e+001
1.717207e+003,1.750916e+001
1.718171e+003,1.777307e+001
1.719135e+003,1.680957e+001
1.720100e+003,1.688751e+001
1.721064e+003,1.992377e+001
1.722028e+003,2.273407e+001
1.722992e+003,2.065881e+001
1.723957e+003,1.517712e+001
1.724921e+003,1.179071e+001
1.725885e+003,9.663330e+000
1.726849e+003,9.052246e+000
1.727814e+003,1.317084e+001
1.728778e+003,1.631653e+001
1.729742e+003,1.454382e+001
1.730706e+003,1.170959e+001
1.731671e+003,1.126135e+001
1.732635e+003,1.194672e+001
1.733599e+003,1.180359e+001
1.734563e+003,1.085559e+001
1.735528e+003,9.649902e+000
1.736492e+003,8.253235e+000
1.737456e+003,6.448303e+000
1.738420e+003,3.707397e+000
1.739385e+003,7.170410e-001
1.740349e+003,1.776672e+000
1.741313e+003,8.820068e+000
1.742277e+003,1.186047e+001
1.743241e+003,8.879456e+000
1.744206e+003,6.171997e+000
1.745170e+003,3.687988e+000
1.746134e+003,2.085815e+000
1.747098e+003,1.937683e+000
1.748063e+003,2.610229e+000
1.749027e+003,3.822937e+000
1.749991e+003,5.229187e+000
1.750955e+003,6.347717e+000
1.751919e+003,6.807495e+000
1.752884e+003,6.097595e+000
1.753848e+003,3.775879e+000
1.754812e+003,4.542847e-001
1.755776e+003,-2.419250e+000
1.756741e+003,-4.412903e+000
1.757705e+003,-4.922485e+000
1.758669e+003,-4.001343e+000
1.759633e+003,-2.563416e+000
1.760598e+003,-4.821167e-001
1.761562e+003,1.060364e+000
1.762526e+003,2.040771e+000
1.763490e+003,2.924927e+000
1.764455e+003,4.201843e+000
1.765419e+003,5.665222e+000
1.766383e+003,6.919678e+000
1.767347e+003,7.514526e+000
1.768312e+003,6.624329e+000
1.769276e+003,3.685608e+000
1.770240e+003,7.289429e-001
1.771204e+003,8.632202e-001
1.772168e+003,2.914368e+000
1.773133e+003,3.131287e+000
1.774097e+003,1.652649e+000
1.775061e+003,-2.620850e-001
1.776025e+003,-3.241699e+000
1.776990e+003,-4.529785e+000
1.777954e+003,-1.800171e+000
1.778918e+003,1.273682e+000
1.779882e+003,1.308289e+000
1.780846e+003,-9.863281e-002
1.781811e+003,-6.655884e-001
1.782775e+003,-2.341919e-001
1.783739e+003,1.749084e+000
1.784703e+003,5.763367e+000
1.785668e+003,8.542297e+000
1.786632e+003,7.859619e+000
1.787596e+003,5.545471e+000
1.788560e+003,2.307373e+000
1.789525e+003,-5.743408e-002
1.790489e+003,9.033203e-001
1.791453e+003,4.092590e+000
1.792417e+003,7.116394e+000
1.793382e+003,9.202759e+000
1.794346e+003,8.589783e+000
1.795310e+003,4.078857e+000
1.796274e+003,-1.296387e+000
1.797239e+003,-3.918823e+000
1.798203e+003,-3.745728e+000
1.799167e+003,-2.289551e+000
1.800131e+003,-2.884521e-001
1.801095e+003,1.276917e+000
1.802060e+003,3.969543e+000
1.803024e+003,5.619263e+000
1.803988e+003,5.298645e+000
1.804952e+003,4.105469e+000
1.805917e+003,1.195190e+000
1.806881e+003,-1.217346e+000
1.807845e+003,2.943115e-001
1.808809e+003,3.879272e+000
1.809773e+003,5.052979e+000
1.810738e+003,3.115173e+000
1.811702e+003,9.600830e-001
1.812666e+003,3.869629e-001
1.813630e+003,1.146423e+000
1.814595e+003,3.118347e+000
1.815559e+003,5.745117e+000
1.816523e+003,7.291443e+000
1.817487e+003,7.815552e+000
1.818452e+003,7.775085e+000
1.819416e+003,7.350769e+000
1.820380e+003,7.247070e+000
1.821344e+003,7.407410e+000
1.822309e+003,7.317383e+000
1.823273e+003,7.092468e+000
1.824237e+003,6.837341e+000
1.825201e+003,5.758911e+000
1.826166e+003,4.439819e+000
1.827130e+003,5.289246e+000
1.828094e+003,8.426941e+000
1.829058e+003,9.522400e+000
1.830022e+003,5.815674e+000
1.830987e+003,1.817261e+000
1.831951e+003,2.054932e+000
1.832915e+003,3.707703e+000
1.833879e+003,1.794128e+000
1.834844e+003,-2.232300e+000
1.835808e+003,-3.130005e+000
1.836772e+003,-2.912598e-001
1.837736e+003,2.839661e+000
1.838700e+003,4.586182e+000
1.839665e+003,5.010925e+000
1.840629e+003,4.112854e+000
1.841593e+003,2.936340e+000
1.842557e+003,3.414734e+000
1.843522e+003,5.499573e+000
1.844486e+003,7.319885e+000
1.845450e+003,1.014496e+001
1.846414e+003,1.134399e+001
1.847379e+003,8.295776e+000
1.848343e+003,5.681946e+000
1.849307e+003,5.115051e+000
1.850271e+003,5.713135e+000
1.851236e+003,8.351013e+000
1.852200e+003,1.118188e+001
1.853164e+003,1.054407e+001
1.854128e+003,6.951233e+000
1.855093e+003,4.475159e+000
1.856057e+003,5.039368e+000
1.857021e+003,7.222351e+000
1.857985e+003,9.858582e+000
1.858949e+003,1.176514e+001
1.859914e+003,1.022083e+001
1.860878e+003,6.274780e+000
1.861842e+003,5.432678e+000
1.862806e+003,7.638733e+000
1.863771e+003,9.556091e+000
1.864735e+003,1.048572e+001
1.865699e+003,1.083044e+001
1.866663e+003,1.075244e+001
1.867627e+003,1.104077e+001
1.868592e+003,1.242780e+001
1.869556e+003,1.372809e+001
1.870520e+003,1.363196e+001
1.871484e+003,1.216492e+001
1.872449e+003,9.380981e+000
1.873413e+003,5.562805e+000
1.874377e+003,4.616638e+000
1.875341e+003,8.223328e+000
1.876306e+003,1.191901e+001
1.877270e+003,1.334143e+001
1.878234e+003,1.342358e+001
1.879198e+003,1.324487e+001
1.880163e+003,1.277460e+001
1.881127e+003,1.139801e+001
1.882091e+003,9.485107e+000
1.883055e+003,8.446472e+000
1.884020e+003,8.756226e+000
1.884984e+003,9.311096e+000
1.885948e+003,9.117310e+000
1.886912e+003,8.779175e+000
1.887876e+003,9.593750e+000
1.888841e+003,1.153156e+001
1.889805e+003,1.377405e+001
1.890769e+003,1.665161e+001
1.891733e+003,1.810480e+001
1.892698e+003,1.773517e+001
1.893662e+003,1.532843e+001
1.894626e+003,7.771667e+000
1.895590e+003,2.520203e+000
1.896554e+003,7.736816e+000
1.897519e+003,1.633411e+001
1.898483e+003,1.908527e+001
1.899447e+003,1.705426e+001
1.900411e+003,1.669104e+001
1.901376e+003,1.932544e+001
1.902340e+003,2.117908e+001
1.903304e+003,2.023413e+001
1.904268e+003,1.893488e+001
1.905233e+003,1.927393e+001
1.906197e+003,1.985864e+001
1.907161e+003,1.884204e+001
1.908125e+003,1.740747e+001
1.909090e+003,1.769849e+001
1.910054e+003,1.922266e+001
1.911018e+003,1.982336e+001
1.911982e+003,1.911401e+001
1.912947e+003,1.881641e+001
1.913911e+003,2.006213e+001
1.914875e+003,2.197455e+001
1.915839e+003,2.299933e+001
1.916803e+003,2.307397e+001
1.917768e+003,2.393677e+001
1.918732e+003,2.629181e+001
1.919696e+003,2.677075e+001
1.920660e+003,2.455261e+001
1.921625e+003,2.351788e+001
1.922589e+003,2.469696e+001
1.923553e+003,2.620764e+001
1.924517e+003,2.765192e+001
1.925481e+003,2.860382e+001
1.926446e+003,2.821094e+001
1.927410e+003,2.728339e+001
1.928374e+003,2.747113e+001
1.929338e+003,2.850311e+001
1.930303e+003,2.859851e+001
1.931267e+003,2.756653e+001
1.932231e+003,2.709448e+001
1.933195e+003,2.713843e+001
1.934160e+003,2.791022e+001
1.935124e+003,3.113947e+001
1.936088e+003,3.365436e+001
1.937052e+003,3.075702e+001
1.938017e+003,2.509033e+001
1.938981e+003,2.219745e+001
1.939945e+003,2.287109e+001
1.940909e+003,2.539386e+001
1.941874e+003,2.853583e+001
1.942838e+003,3.023108e+001
1.943802e+003,2.885980e+001
1.944766e+003,2.634137e+001
1.945730e+003,2.562134e+001
1.946695e+003,2.616333e+001
1.947659e+003,2.601300e+001
1.948623e+003,2.489795e+001
1.949587e+003,2.519409e+001
1.950552e+003,2.817731e+001
1.951516e+003,2.912549e+001
1.952480e+003,2.500214e+001
1.953444e+003,2.161121e+001
1.954408e+003,2.341388e+001
1.955373e+003,2.718689e+001
1.956337e+003,2.947461e+001
1.957301e+003,3.082721e+001
1.958265e+003,3.114148e+001
1.959230e+003,3.018457e+001
1.960194e+003,3.077112e+001
1.961158e+003,3.358685e+001
1.962122e+003,3.595685e+001
1.963087e+003,3.817462e+001
1.964051e+003,3.882953e+001
1.965015e+003,3.562146e+001
1.965979e+003,3.264111e+001
1.966944e+003,3.493427e+001
1.967908e+003,3.929376e+001
1.968872e+003,3.889832e+001
1.969836e+003,3.413812e+001
1.970801e+003,3.178955e+001
1.971765e+003,3.461627e+001
1.972729e+003,3.795703e+001
1.973693e+003,3.778400e+001
1.974657e+003,3.608551e+001
1.975622e+003,3.551245e+001
1.976586e+003,3.555688e+001
1.977550e+003,3.496838e+001
1.978514e+003,3.425665e+001
1.979479e+003,3.626416e+001
1.980443e+003,4.100305e+001
1.981407e+003,4.286920e+001
1.982371e+003,3.979272e+001
1.983335e+003,3.710004e+001
1.984300e+003,3.869653e+001
1.985264e+003,4.159015e+001
1.986228e+003,4.139801e+001
1.987192e+003,3.887201e+001
1.988157e+003,3.805811e+001
1.989121e+003,3.962360e+001
1.990085e+003,4.042389e+001
1.991049e+003,4.045471e+001
1.992014e+003,4.026221e+001
1.992978e+003,3.852399e+001
1.993942e+003,3.795490e+001
1.994906e+003,4.167682e+001
1.995871e+003,4.468188e+001
1.996835e+003,4.141278e+001
1.997799e+003,3.651904e+001
1.998763e+003,3.743317e+001
1.999728e+003,4.292303e+001
