5.003444e+002,2.010410e+002
5.013087e+002,1.956301e+002
5.022729e+002,1.940544e+002
5.032371e+002,1.955298e+002
5.042014e+002,1.937089e+002
5.051656e+002,1.892957e+002
5.061298e+002,1.848352e+002
5.070941e+002,1.825745e+002
5.080583e+002,1.828873e+002
5.090225e+002,1.806011e+002
5.099868e+002,1.726827e+002
5.109510e+002,1.660327e+002
5.119152e+002,1.655791e+002
5.128795e+002,1.720675e+002
5.138437e+002,1.759470e+002
5.148079e+002,1.712861e+002
5.157722e+002,1.662139e+002
5.167364e+002,1.642961e+002
5.177006e+002,1.653712e+002
5.186649e+002,1.659354e+002
5.196291e+002,1.616995e+002
5.205933e+002,1.561053e+002
5.215576e+002,1.510920e+002
5.225218e+002,1.467057e+002
5.234860e+002,1.435803e+002
5.244503e+002,1.438569e+002
5.254145e+002,1.502299e+002
5.263787e+002,1.519236e+002
5.273430e+002,1.460577e+002
5.283072e+002,1.374962e+002
5.292714e+002,1.329652e+002
5.302357e+002,1.343885e+002
5.311999e+002,1.332671e+002
5.321641e+002,1.280736e+002
5.331284e+002,1.225322e+002
5.340926e+002,1.194564e+002
5.350568e+002,1.196410e+002
5.360211e+002,1.193529e+002
5.369853e+002,1.152554e+002
5.379495e+002,1.105598e+002
5.389138e+002,1.075316e+002
5.398780e+002,1.069421e+002
5.408422e+002,1.079380e+002
5.418065e+002,1.089078e+002
5.427707e+002,1.097927e+002
5.437349e+002,1.100728e+002
5.446992e+002,1.093871e+002
5.456634e+002,1.078925e+002
5.466276e+002,1.064435e+002
5.475919e+002,1.065553e+002
5.485561e+002,1.051841e+002
5.495203e+002,1.009263e+002
5.504846e+002,9.496912e+001
5.514488e+002,8.907458e+001
5.524130e+002,8.377368e+001
5.533773e+002,8.011682e+001
5.543415e+002,7.858813e+001
5.553057e+002,7.845386e+001
5.562700e+002,7.940527e+001
5.572342e+002,8.111414e+001
5.581984e+002,8.223865e+001
5.591627e+002,7.910693e+001
5.601269e+002,7.384705e+001
5.610911e+002,7.007861e+001
5.620554e+002,6.955750e+001
5.630196e+002,7.149878e+001
5.639838e+002,7.130566e+001
5.649481e+002,6.840308e+001
5.659123e+002,6.436511e+001
5.668765e+002,5.865723e+001
5.678408e+002,5.287292e+001
5.688050e+002,5.059827e+001
5.697692e+002,5.430225e+001
5.707335e+002,5.741125e+001
5.716977e+002,5.898865e+001
5.726619e+002,5.903967e+001
5.736262e+002,5.760779e+001
5.745904e+002,5.464917e+001
5.755546e+002,5.106714e+001
5.765189e+002,4.652942e+001
5.774831e+002,4.161731e+001
5.784473e+002,3.886414e+001
5.794116e+002,4.028052e+001
5.803758e+002,4.571594e+001
5.813400e+002,4.682629e+001
5.823043e+002,4.142822e+001
5.832685e+002,3.610938e+001
5.842327e+002,3.363232e+001
5.851970e+002,3.413635e+001
5.861612e+002,3.553015e+001
5.871254e+002,3.689136e+001
5.880897e+002,3.906482e+001
5.890539e+002,4.340588e+001
5.900181e+002,4.803918e+001
5.909824e+002,5.015161e+001
5.919466e+002,4.785681e+001
5.929108e+002,4.321875e+001
5.938751e+002,3.745166e+001
5.948393e+002,3.172302e+001
5.958035e+002,2.829065e+001
5.967678e+002,2.883484e+001
5.977320e+002,3.288489e+001
5.986962e+002,3.436511e+001
5.996605e+002,3.247827e+001
6.006247e+002,3.066394e+001
6.015889e+002,3.097046e+001
6.025532e+002,3.325781e+001
6.035174e+002,3.417456e+001
6.044816e+002,3.184998e+001
6.054459e+002,3.035950e+001
6.064101e+002,3.091797e+001
6.073743e+002,3.252661e+001
6.083386e+002,3.349854e+001
6.093028e+002,3.325061e+001
6.102670e+002,3.188354e+001
6.112313e+002,2.878564e+001
6.121955e+002,2.499622e+001
6.131597e+002,2.149219e+001
6.141240e+002,1.897534e+001
6.150882e+002,1.768555e+001
6.160524e+002,2.062061e+001
6.170167e+002,2.731604e+001
6.179809e+002,3.212122e+001
6.189451e+002,3.142273e+001
6.199094e+002,2.580127e+001
6.208736e+002,2.235815e+001
6.218378e+002,2.579993e+001
6.228021e+002,2.748950e+001
6.237663e+002,2.568384e+001
6.247305e+002,2.216016e+001
6.256948e+002,1.931812e+001
6.266590e+002,1.704553e+001
6.276232e+002,1.642407e+001
6.285875e+002,2.043518e+001
6.295517e+002,2.571545e+001
6.305159e+002,2.840088e+001
6.314802e+002,2.623901e+001
6.324444e+002,2.063110e+001
6.334086e+002,1.481335e+001
6.343729e+002,9.706543e+000
6.353371e+002,7.476318e+000
6.363013e+002,9.104858e+000
6.372656e+002,1.327905e+001
6.382298e+002,1.592737e+001
6.391940e+002,1.656860e+001
6.401583e+002,1.531543e+001
6.411225e+002,1.214819e+001
6.420867e+002,8.570923e+000
6.430510e+002,5.745117e+000
6.440152e+002,3.435059e+000
6.449794e+002,1.201660e+000
6.459437e+002,-1.672852e+000
6.469079e+002,-4.231934e+000
6.478721e+002,-5.386108e+000
6.488364e+002,-4.696777e+000
6.498006e+002,-2.702881e+000
6.507648e+002,4.345703e-002
6.517291e+002,2.710938e+000
6.526933e+002,3.323486e+000
6.536575e+002,1.344849e+000
6.546218e+002,-1.692993e+000
6.555860e+002,-2.736938e+000
6.565502e+002,-2.728271e-001
6.575145e+002,7.834473e-001
6.584787e+002,-6.549072e-001
6.594429e+002,-2.335571e+000
6.604072e+002,-2.177246e+000
6.613714e+002,3.547363e-001
6.623356e+002,2.347534e+000
6.632999e+002,1.800049e+000
6.642641e+002,3.918457e-002
6.652283e+002,-2.628174e+000
6.661926e+002,-5.314575e+000
6.671568e+002,-6.586792e+000
6.681210e+002,-4.504883e+000
6.690853e+002,-7.740479e-001
6.700495e+002,7.381592e-001
6.710137e+002,8.068848e-002
6.719780e+002,-1.204590e+000
6.729422e+002,-1.587036e+000
6.739064e+002,-1.107056e+000
6.748707e+002,-9.067383e-001
6.758349e+002,-1.024048e+000
6.767991e+002,-1.552490e+000
6.777634e+002,-1.798096e+000
6.787276e+002,-1.479736e+000
6.796918e+002,-1.591431e+000
6.806561e+002,-5.064697e+000
6.816203e+002,-7.369263e+000
6.825845e+002,-6.240479e+000
6.835488e+002,-2.803467e+000
6.845130e+002,1.375854e+000
6.854772e+002,5.457275e+000
6.864415e+002,9.136719e+000
6.874057e+002,1.100879e+001
6.883699e+002,1.068933e+001
6.893342e+002,8.249390e+000
6.902984e+002,3.752197e+000
6.912626e+002,-2.186768e+000
6.922269e+002,-6.781128e+000
6.931911e+002,-9.355957e+000
6.941553e+002,-9.448730e+000
6.951196e+002,-6.542847e+000
6.960838e+002,-2.421753e+000
6.970480e+002,5.377197e-001
6.980123e+002,1.641113e+000
6.989765e+002,3.048340e+000
6.999407e+002,7.158203e+000
7.009050e+002,1.071082e+001
7.018692e+002,1.037683e+001
7.028334e+002,5.345459e+000
7.037977e+002,-1.468018e+000
7.047619e+002,-5.170776e+000
7.057261e+002,-6.414063e+000
7.066904e+002,-7.922607e+000
7.076546e+002,-1.013525e+001
7.086188e+002,-1.136108e+001
7.095831e+002,-8.603760e+000
7.105473e+002,2.719727e-001
7.115115e+002,4.985474e+000
7.124758e+002,4.012939e+000
7.134400e+002,9.888916e-001
7.144042e+002,-2.453613e+000
7.153685e+002,-5.849976e+000
7.163327e+002,-7.903076e+000
7.172969e+002,-6.880371e+000
7.182612e+002,-5.139771e+000
7.192254e+002,-2.703003e+000
7.201896e+002,-7.127686e-001
7.211539e+002,-1.366943e+000
7.221181e+002,-6.916748e+000
7.230823e+002,-1.426648e+001
7.240466e+002,-1.482043e+001
7.250108e+002,-9.468750e+000
7.259750e+002,-2.768555e+000
7.269393e+002,2.321533e+000
7.279035e+002,5.165771e+000
7.288677e+002,6.221191e+000
7.298320e+002,5.536865e+000
7.307962e+002,5.643799e+000
7.317604e+002,7.642334e+000
7.327247e+002,1.031628e+001
7.336889e+002,1.126062e+001
7.346531e+002,8.420166e+000
7.356174e+002,4.477417e+000
7.365816e+002,2.331543e+000
7.375458e+002,1.224976e+000
7.385101e+002,1.322021e-001
7.394743e+002,-1.002930e+000
7.404385e+002,-9.993896e-001
7.414028e+002,2.306396e+000
7.423670e+002,6.699707e+000
7.433312e+002,8.335205e+000
7.442955e+002,7.901123e+000
7.452597e+002,6.413818e+000
7.462239e+002,3.920532e+000
7.471882e+002,-8.878174e-001
7.481524e+002,-2.029419e+000
7.491166e+002,1.451416e+000
7.500809e+002,4.862671e+000
7.510451e+002,6.900513e+000
7.520093e+002,7.523193e+000
7.529736e+002,7.232544e+000
7.539378e+002,6.778687e+000
7.549020e+002,6.278442e+000
7.558663e+002,5.555542e+000
7.568306e+002,4.733154e+000
7.577948e+002,3.721436e+000
7.587590e+002,2.283203e+000
7.597233e+002,1.998291e-001
7.606875e+002,-1.947388e+000
7.616517e+002,-3.642334e+000
7.626160e+002,-4.418945e+000
7.635802e+002,-4.054199e+000
7.645444e+002,-2.491699e+000
7.655087e+002,4.993896e-001
7.664729e+002,6.166138e+000
7.674371e+002,9.925293e+000
7.684014e+002,1.034937e+001
7.693656e+002,1.009131e+001
7.703298e+002,1.125171e+001
7.712941e+002,1.399097e+001
7.722583e+002,1.611707e+001
7.732225e+002,1.542346e+001
7.741868e+002,1.388049e+001
7.751510e+002,1.225171e+001
7.761152e+002,1.118091e+001
7.770795e+002,1.197009e+001
7.780437e+002,1.572974e+001
7.790079e+002,2.156030e+001
7.799722e+002,2.224817e+001
7.809364e+002,1.719556e+001
7.819006e+002,1.374158e+001
7.828649e+002,1.689050e+001
7.838291e+002,2.451294e+001
7.847933e+002,2.807690e+001
7.857576e+002,2.337488e+001
7.867218e+002,1.903467e+001
7.876860e+002,1.717566e+001
7.886503e+002,1.705981e+001
7.896145e+002,1.847424e+001
7.905787e+002,2.115039e+001
7.915430e+002,2.383435e+001
7.925072e+002,2.451611e+001
7.934714e+002,2.361389e+001
7.944357e+002,2.210425e+001
7.953999e+002,2.063550e+001
7.963641e+002,1.960437e+001
7.973284e+002,1.917395e+001
7.982926e+002,1.935620e+001
7.992568e+002,2.048059e+001
8.002211e+002,2.223120e+001
8.011853e+002,2.229626e+001
8.021495e+002,1.996387e+001
8.031138e+002,1.701343e+001
8.040780e+002,1.697742e+001
8.050422e+002,2.135742e+001
8.060065e+002,2.534644e+001
8.069707e+002,2.759314e+001
8.079349e+002,2.787073e+001
8.088992e+002,2.512524e+001
8.098634e+002,1.979712e+001
8.108276e+002,1.573181e+001
8.117919e+002,1.997498e+001
8.127561e+002,2.723059e+001
8.137203e+002,2.828101e+001
8.146846e+002,2.287451e+001
8.156488e+002,1.617859e+001
8.166130e+002,1.407068e+001
8.175773e+002,1.721155e+001
8.185415e+002,1.987952e+001
8.195057e+002,2.152820e+001
8.204700e+002,2.226587e+001
8.214342e+002,2.127246e+001
8.223984e+002,1.943091e+001
8.233627e+002,1.926794e+001
8.243269e+002,2.299146e+001
8.252911e+002,2.631641e+001
8.262554e+002,2.641003e+001
8.272196e+002,2.501465e+001
8.281838e+002,2.362402e+001
8.291481e+002,2.288208e+001
8.301123e+002,2.257654e+001
8.310765e+002,2.245190e+001
8.320408e+002,2.230994e+001
8.330050e+002,2.187952e+001
8.339692e+002,2.116541e+001
8.349335e+002,2.066797e+001
8.358977e+002,2.120410e+001
8.368619e+002,2.329944e+001
8.378262e+002,2.542065e+001
8.387904e+002,2.774072e+001
8.397546e+002,2.872192e+001
8.407189e+002,2.705420e+001
8.416831e+002,2.412451e+001
8.426473e+002,2.198328e+001
8.436116e+002,2.141064e+001
8.445758e+002,2.292578e+001
8.455400e+002,2.834717e+001
8.465043e+002,3.396387e+001
8.474685e+002,3.589465e+001
8.484327e+002,3.385571e+001
8.493970e+002,3.071521e+001
8.503612e+002,3.042773e+001
8.513254e+002,3.319751e+001
8.522897e+002,3.594739e+001
8.532539e+002,3.859509e+001
8.542181e+002,4.048767e+001
8.551824e+002,4.167932e+001
8.561466e+002,4.292822e+001
8.571108e+002,4.515613e+001
8.580751e+002,4.725159e+001
8.590393e+002,4.873450e+001
8.600035e+002,4.936511e+001
8.609678e+002,5.052917e+001
8.619320e+002,5.435437e+001
8.628962e+002,6.131482e+001
8.638605e+002,6.822925e+001
8.648247e+002,6.971790e+001
8.657889e+002,6.756226e+001
8.667532e+002,6.526733e+001
8.677174e+002,6.330115e+001
8.686816e+002,6.262524e+001
8.696459e+002,6.472034e+001
8.706101e+002,7.035913e+001
8.715743e+002,7.564453e+001
8.725386e+002,8.070386e+001
8.735028e+002,8.545703e+001
8.744670e+002,8.929773e+001
8.754313e+002,9.199927e+001
8.763955e+002,9.369873e+001
8.773597e+002,9.456885e+001
8.783240e+002,9.533862e+001
8.792882e+002,9.530200e+001
8.802524e+002,9.559607e+001
8.812167e+002,9.869897e+001
8.821809e+002,1.041288e+002
8.831451e+002,1.079021e+002
8.841094e+002,1.044950e+002
8.850736e+002,9.506116e+001
8.860378e+002,9.457324e+001
8.870021e+002,1.047513e+002
8.879663e+002,1.148346e+002
8.889305e+002,1.178785e+002
8.898948e+002,1.152185e+002
8.908590e+002,1.149801e+002
8.918232e+002,1.207908e+002
8.927875e+002,1.249697e+002
8.937517e+002,1.242085e+002
8.947159e+002,1.226309e+002
8.956802e+002,1.232635e+002
8.966444e+002,1.264025e+002
8.976086e+002,1.302684e+002
8.985729e+002,1.345482e+002
8.995371e+002,1.384639e+002
9.005013e+002,1.392091e+002
9.014656e+002,1.377913e+002
9.024298e+002,1.381110e+002
9.033940e+002,1.430524e+002
9.043583e+002,1.510831e+002
9.053225e+002,1.541588e+002
9.062867e+002,1.455203e+002
9.072510e+002,1.395283e+002
9.082152e+002,1.390109e+002
9.091794e+002,1.411252e+002
9.101437e+002,1.426818e+002
9.111079e+002,1.430942e+002
9.120721e+002,1.448687e+002
9.130364e+002,1.528457e+002
9.140006e+002,1.583182e+002
9.149648e+002,1.542616e+002
9.159291e+002,1.446458e+002
9.168933e+002,1.373594e+002
9.178575e+002,1.376088e+002
9.188218e+002,1.429290e+002
9.197860e+002,1.465363e+002
9.207502e+002,1.481925e+002
9.217145e+002,1.482515e+002
9.226787e+002,1.469061e+002
9.236429e+002,1.454290e+002
9.246072e+002,1.451112e+002
9.255714e+002,1.458458e+002
9.265356e+002,1.455521e+002
9.274999e+002,1.437634e+002
9.284641e+002,1.404641e+002
9.294283e+002,1.347645e+002
9.303926e+002,1.282329e+002
9.313568e+002,1.230181e+002
9.323210e+002,1.201403e+002
9.332853e+002,1.190074e+002
9.342495e+002,1.211913e+002
9.352137e+002,1.238059e+002
9.361780e+002,1.216328e+002
9.371422e+002,1.141506e+002
9.381064e+002,1.060111e+002
9.390707e+002,1.028739e+002
9.400349e+002,1.047313e+002
9.409991e+002,1.069247e+002
9.419634e+002,1.101660e+002
9.429276e+002,1.124664e+002
9.438918e+002,1.136965e+002
9.448561e+002,1.138026e+002
9.458203e+002,1.125233e+002
9.467845e+002,1.097406e+002
9.477488e+002,1.068838e+002
9.487130e+002,1.040256e+002
9.496772e+002,1.019410e+002
9.506415e+002,1.019822e+002
9.516057e+002,1.036671e+002
9.525699e+002,1.048116e+002
9.535342e+002,1.031294e+002
9.544984e+002,9.898193e+001
9.554626e+002,9.821631e+001
9.564269e+002,1.024458e+002
9.573911e+002,1.061791e+002
9.583553e+002,1.076252e+002
9.593196e+002,1.074799e+002
9.602838e+002,1.068271e+002
9.612480e+002,1.054430e+002
9.622123e+002,1.036631e+002
9.631765e+002,1.014309e+002
9.641407e+002,9.944019e+001
9.651050e+002,9.762488e+001
9.660692e+002,9.591431e+001
9.670334e+002,9.449792e+001
9.679977e+002,9.384827e+001
9.689619e+002,9.443030e+001
9.699261e+002,9.605078e+001
9.708904e+002,9.815442e+001
9.718546e+002,1.007319e+002
9.728188e+002,1.032780e+002
9.737831e+002,1.072405e+002
9.747473e+002,1.157089e+002
9.757115e+002,1.303243e+002
9.766758e+002,1.417137e+002
9.776400e+002,1.512864e+002
9.786042e+002,1.569906e+002
9.795685e+002,1.566208e+002
9.805327e+002,1.517659e+002
9.814969e+002,1.450078e+002
9.824612e+002,1.376392e+002
9.834254e+002,1.287528e+002
9.843896e+002,1.131145e+002
9.853539e+002,9.688928e+001
9.863181e+002,8.788049e+001
9.872823e+002,8.529822e+001
9.882466e+002,8.396057e+001
9.892108e+002,8.012378e+001
9.901750e+002,7.523328e+001
9.911393e+002,7.358472e+001
9.921035e+002,7.479712e+001
9.930677e+002,7.660950e+001
9.940320e+002,8.034741e+001
9.949962e+002,8.487231e+001
9.959604e+002,8.896167e+001
9.969247e+002,9.268213e+001
9.978889e+002,9.725867e+001
9.988531e+002,1.030625e+002
9.998174e+002,1.081344e+002
1.000782e+003,1.122843e+002
1.001746e+003,1.157223e+002
1.002710e+003,1.184044e+002
1.003674e+003,1.202631e+002
1.004639e+003,1.214476e+002
1.005603e+003,1.223110e+002
1.006567e+003,1.225695e+002
1.007531e+003,1.216047e+002
1.008495e+003,1.189517e+002
1.009460e+003,1.163030e+002
1.010424e+003,1.154402e+002
1.011388e+003,1.157831e+002
1.012352e+003,1.140253e+002
1.013317e+003,1.076147e+002
1.014281e+003,1.027595e+002
1.015245e+003,1.033667e+002
1.016209e+003,1.036211e+002
1.017174e+003,9.878455e+001
1.018138e+003,8.937512e+001
1.019102e+003,7.976379e+001
1.020066e+003,7.371887e+001
1.021031e+003,7.015527e+001
1.021995e+003,6.445886e+001
1.022959e+003,5.655115e+001
1.023923e+003,4.928979e+001
1.024887e+003,4.351172e+001
1.025852e+003,3.867261e+001
1.026816e+003,3.426294e+001
1.027780e+003,3.084851e+001
1.028744e+003,2.756689e+001
1.029709e+003,2.315271e+001
1.030673e+003,1.997656e+001
1.031637e+003,1.922729e+001
1.032601e+003,1.957422e+001
1.033566e+003,1.946936e+001
1.034530e+003,1.853784e+001
1.035494e+003,1.748755e+001
1.036458e+003,1.662756e+001
1.037422e+003,1.593909e+001
1.038387e+003,1.575354e+001
1.039351e+003,1.584949e+001
1.040315e+003,1.552429e+001
1.041279e+003,1.427637e+001
1.042244e+003,1.286707e+001
1.043208e+003,1.397388e+001
1.044172e+003,1.919702e+001
1.045136e+003,2.302136e+001
1.046101e+003,2.701660e+001
1.047065e+003,2.871399e+001
1.048029e+003,2.385999e+001
1.048993e+003,1.466406e+001
1.049958e+003,9.889771e+000
1.050922e+003,1.521460e+001
1.051886e+003,2.307861e+001
1.052850e+003,2.563611e+001
1.053814e+003,2.560754e+001
1.054779e+003,2.635095e+001
1.055743e+003,2.850269e+001
1.056707e+003,3.062476e+001
1.057671e+003,3.102869e+001
1.058636e+003,2.957483e+001
1.059600e+003,2.771509e+001
1.060564e+003,2.464832e+001
1.061528e+003,2.388989e+001
1.062493e+003,2.723132e+001
1.063457e+003,3.107373e+001
1.064421e+003,3.145923e+001
1.065385e+003,2.826685e+001
1.066349e+003,2.567334e+001
1.067314e+003,2.698352e+001
1.068278e+003,2.808691e+001
1.069242e+003,2.472058e+001
1.070206e+003,1.994727e+001
1.071171e+003,1.891016e+001
1.072135e+003,2.319934e+001
1.073099e+003,2.924829e+001
1.074063e+003,3.155774e+001
1.075028e+003,3.001746e+001
1.075992e+003,2.814648e+001
1.076956e+003,2.544202e+001
1.077920e+003,2.230688e+001
1.078885e+003,1.857971e+001
1.079849e+003,1.544543e+001
1.080813e+003,1.514929e+001
1.081777e+003,1.866370e+001
1.082741e+003,2.183118e+001
1.083706e+003,2.035059e+001
1.084670e+003,1.861499e+001
1.085634e+003,1.990869e+001
1.086598e+003,2.272766e+001
1.087563e+003,2.383350e+001
1.088527e+003,2.178491e+001
1.089491e+003,1.859863e+001
1.090455e+003,1.732776e+001
1.091420e+003,1.774487e+001
1.092384e+003,1.807593e+001
1.093348e+003,1.825732e+001
1.094312e+003,1.759033e+001
1.095276e+003,1.525232e+001
1.096241e+003,1.249182e+001
1.097205e+003,1.244775e+001
1.098169e+003,1.623523e+001
1.099133e+003,1.912537e+001
1.100098e+003,1.881616e+001
1.101062e+003,1.817383e+001
1.102026e+003,1.908557e+001
1.102990e+003,2.125293e+001
1.103955e+003,2.339783e+001
1.104919e+003,2.461206e+001
1.105883e+003,2.489685e+001
1.106847e+003,2.455798e+001
1.107812e+003,2.345557e+001
1.108776e+003,2.162793e+001
1.109740e+003,1.832275e+001
1.110704e+003,1.586731e+001
1.111668e+003,1.700500e+001
1.112633e+003,2.122327e+001
1.113597e+003,2.454883e+001
1.114561e+003,2.572803e+001
1.115525e+003,2.686987e+001
1.116490e+003,2.869080e+001
1.117454e+003,3.047131e+001
1.118418e+003,3.249939e+001
1.119382e+003,3.470996e+001
1.120347e+003,3.613318e+001
1.121311e+003,3.570825e+001
1.122275e+003,3.398438e+001
1.123239e+003,3.359814e+001
1.124203e+003,3.529846e+001
1.125168e+003,3.807349e+001
1.126132e+003,4.244263e+001
1.127096e+003,4.688171e+001
1.128060e+003,4.983948e+001
1.129025e+003,5.138867e+001
1.129989e+003,5.278528e+001
1.130953e+003,5.360706e+001
1.131917e+003,5.481897e+001
1.132882e+003,5.693176e+001
1.133846e+003,5.969910e+001
1.134810e+003,6.241223e+001
1.135774e+003,6.581995e+001
1.136739e+003,7.175415e+001
1.137703e+003,8.113977e+001
1.138667e+003,9.199695e+001
1.139631e+003,1.012604e+002
1.140595e+003,1.087806e+002
1.141560e+003,1.149651e+002
1.142524e+003,1.189557e+002
1.143488e+003,1.265023e+002
1.144452e+003,1.422323e+002
1.145417e+003,1.644268e+002
1.146381e+003,1.868621e+002
1.147345e+003,2.087644e+002
1.148309e+003,2.319998e+002
1.149274e+003,2.571041e+002
1.150238e+003,2.840498e+002
1.151202e+003,3.159977e+002
1.152166e+003,3.496416e+002
1.153130e+003,3.794843e+002
1.154095e+003,4.022875e+002
1.155059e+003,4.178160e+002
1.156023e+003,4.263643e+002
1.156987e+003,4.282118e+002
1.157952e+003,4.269431e+002
1.158916e+003,4.242489e+002
1.159880e+003,4.162894e+002
1.160844e+003,3.986597e+002
1.161809e+003,3.729460e+002
1.162773e+003,3.436412e+002
1.163737e+003,3.096984e+002
1.164701e+003,2.774047e+002
1.165666e+003,2.481951e+002
1.166630e+003,2.220862e+002
1.167594e+003,1.978242e+002
1.168558e+003,1.771227e+002
1.169522e+003,1.629802e+002
1.170487e+003,1.558433e+002
1.171451e+003,1.530067e+002
1.172415e+003,1.516724e+002
1.173379e+003,1.513829e+002
1.174344e+003,1.509539e+002
1.175308e+003,1.507571e+002
1.176272e+003,1.492943e+002
1.177236e+003,1.462571e+002
1.178201e+003,1.419958e+002
1.179165e+003,1.360858e+002
1.180129e+003,1.280455e+002
1.181093e+003,1.204171e+002
1.182057e+003,1.147687e+002
1.183022e+003,1.086195e+002
1.183986e+003,9.890283e+001
1.184950e+003,8.984656e+001
1.185914e+003,8.560474e+001
1.186879e+003,8.659473e+001
1.187843e+003,9.109192e+001
1.188807e+003,9.762671e+001
1.189771e+003,1.047844e+002
1.190736e+003,1.091837e+002
1.191700e+003,1.106937e+002
1.192664e+003,1.090823e+002
1.193628e+003,1.026926e+002
1.194593e+003,9.604297e+001
1.195557e+003,9.262476e+001
1.196521e+003,9.135596e+001
1.197485e+003,8.877478e+001
1.198449e+003,8.440662e+001
1.199414e+003,7.897314e+001
1.200378e+003,7.187280e+001
1.201342e+003,6.476685e+001
1.202306e+003,5.800842e+001
1.203271e+003,5.186621e+001
1.204235e+003,4.692065e+001
1.205199e+003,4.350439e+001
1.206163e+003,4.120203e+001
1.207128e+003,3.928479e+001
1.208092e+003,3.786572e+001
1.209056e+003,3.522644e+001
1.210020e+003,3.231921e+001
1.210984e+003,2.686829e+001
1.211949e+003,1.582788e+001
1.212913e+003,3.101685e+000
1.213877e+003,-5.921021e+000
1.214841e+003,-1.079736e+001
1.215806e+003,-1.507971e+001
1.216770e+003,-2.056763e+001
1.217734e+003,-2.528674e+001
1.218698e+003,-2.815051e+001
1.219663e+003,-2.996844e+001
1.220627e+003,-3.099097e+001
1.221591e+003,-3.172070e+001
1.222555e+003,-3.373096e+001
1.223520e+003,-3.847467e+001
1.224484e+003,-4.485834e+001
1.225448e+003,-4.874030e+001
1.226412e+003,-4.951160e+001
1.227376e+003,-4.895923e+001
1.228341e+003,-4.559998e+001
1.229305e+003,-4.299969e+001
1.230269e+003,-4.343799e+001
1.231233e+003,-4.597504e+001
1.232198e+003,-4.879761e+001
1.233162e+003,-5.129413e+001
1.234126e+003,-5.222894e+001
1.235090e+003,-5.003845e+001
1.236055e+003,-4.717468e+001
1.237019e+003,-4.642688e+001
1.237983e+003,-4.727417e+001
1.238947e+003,-4.765607e+001
1.239911e+003,-4.645984e+001
1.240876e+003,-4.442468e+001
1.241840e+003,-4.266913e+001
1.242804e+003,-4.104095e+001
1.243768e+003,-4.178735e+001
1.244733e+003,-4.899109e+001
1.245697e+003,-5.301947e+001
1.246661e+003,-5.231342e+001
1.247625e+003,-4.996893e+001
1.248590e+003,-4.693561e+001
1.249554e+003,-4.373724e+001
1.250518e+003,-4.223816e+001
1.251482e+003,-4.380029e+001
1.252447e+003,-4.501843e+001
1.253411e+003,-3.995361e+001
1.254375e+003,-3.169263e+001
1.255339e+003,-2.755072e+001
1.256303e+003,-2.748895e+001
1.257268e+003,-2.769836e+001
1.258232e+003,-2.651721e+001
1.259196e+003,-2.493347e+001
1.260160e+003,-2.430762e+001
1.261125e+003,-2.449927e+001
1.262089e+003,-2.354175e+001
1.263053e+003,-2.202002e+001
1.264017e+003,-1.922717e+001
1.264982e+003,-1.337756e+001
1.265946e+003,-6.987305e+000
1.266910e+003,-1.882324e+000
1.267874e+003,1.401367e+000
1.268839e+003,2.870117e+000
1.269803e+003,2.538208e+000
1.270767e+003,6.982422e-001
1.271731e+003,-1.865356e+000
1.272695e+003,-5.145752e+000
1.273660e+003,-1.191028e+001
1.274624e+003,-2.555652e+001
1.275588e+003,-3.597906e+001
1.276552e+003,-3.447443e+001
1.277517e+003,-2.664673e+001
1.278481e+003,-2.400555e+001
1.279445e+003,-2.773596e+001
1.280409e+003,-3.058423e+001
1.281374e+003,-2.881372e+001
1.282338e+003,-2.750500e+001
1.283302e+003,-3.037115e+001
1.284266e+003,-3.456097e+001
1.285230e+003,-3.659076e+001
1.286195e+003,-3.626007e+001
1.287159e+003,-3.588794e+001
1.288123e+003,-3.716565e+001
1.289087e+003,-3.912097e+001
1.290052e+003,-3.977844e+001
1.291016e+003,-3.933905e+001
1.291980e+003,-3.806897e+001
1.292944e+003,-3.436749e+001
1.293909e+003,-3.284302e+001
1.294873e+003,-3.632495e+001
1.295837e+003,-4.159985e+001
1.296801e+003,-4.432538e+001
1.297766e+003,-4.401685e+001
1.298730e+003,-4.367108e+001
1.299694e+003,-4.565161e+001
1.300658e+003,-4.741107e+001
1.301622e+003,-4.460828e+001
1.302587e+003,-3.985852e+001
1.303551e+003,-3.792963e+001
1.304515e+003,-3.927319e+001
1.305479e+003,-4.047028e+001
1.306444e+003,-3.893933e+001
1.307408e+003,-3.576709e+001
1.308372e+003,-3.369482e+001
1.309336e+003,-3.245697e+001
1.310301e+003,-3.337683e+001
1.311265e+003,-3.841437e+001
1.312229e+003,-4.262457e+001
1.313193e+003,-4.459766e+001
1.314157e+003,-4.522192e+001
1.315122e+003,-4.511926e+001
1.316086e+003,-4.485309e+001
1.317050e+003,-4.539990e+001
1.318014e+003,-4.729333e+001
1.318979e+003,-4.901575e+001
1.319943e+003,-4.785614e+001
1.320907e+003,-4.395026e+001
1.321871e+003,-4.109930e+001
1.322836e+003,-4.055469e+001
1.323800e+003,-3.947095e+001
1.324764e+003,-3.565686e+001
1.325728e+003,-3.051581e+001
1.326693e+003,-2.608960e+001
1.327657e+003,-2.269299e+001
1.328621e+003,-2.229230e+001
1.329585e+003,-2.533392e+001
1.330549e+003,-2.882526e+001
1.331514e+003,-3.430695e+001
1.332478e+003,-3.925641e+001
1.333442e+003,-3.999646e+001
1.334406e+003,-3.705634e+001
1.335371e+003,-3.376422e+001
1.336335e+003,-3.220898e+001
1.337299e+003,-3.184747e+001
1.338263e+003,-3.184668e+001
1.339228e+003,-3.221228e+001
1.340192e+003,-3.270325e+001
1.341156e+003,-3.442828e+001
1.342120e+003,-3.471588e+001
1.343084e+003,-3.244714e+001
1.344049e+003,-3.016217e+001
1.345013e+003,-2.905560e+001
1.345977e+003,-2.910034e+001
1.346941e+003,-3.093677e+001
1.347906e+003,-3.502478e+001
1.348870e+003,-3.810968e+001
1.349834e+003,-3.661993e+001
1.350798e+003,-3.296649e+001
1.351763e+003,-3.137994e+001
1.352727e+003,-3.146503e+001
1.353691e+003,-3.135205e+001
1.354655e+003,-3.004681e+001
1.355620e+003,-2.919373e+001
1.356584e+003,-3.154901e+001
1.357548e+003,-3.635040e+001
1.358512e+003,-3.787860e+001
1.359476e+003,-3.519269e+001
1.360441e+003,-3.295795e+001
1.361405e+003,-3.115546e+001
1.362369e+003,-3.079187e+001
1.363333e+003,-3.405371e+001
1.364298e+003,-3.823419e+001
1.365262e+003,-3.938855e+001
1.366226e+003,-3.683850e+001
1.367190e+003,-3.303259e+001
1.368155e+003,-3.011682e+001
1.369119e+003,-2.813751e+001
1.370083e+003,-2.727893e+001
1.371047e+003,-2.779077e+001
1.372011e+003,-2.713495e+001
1.372976e+003,-2.407886e+001
1.373940e+003,-2.262128e+001
1.374904e+003,-2.575378e+001
1.375868e+003,-2.985834e+001
1.376833e+003,-2.996240e+001
1.377797e+003,-2.634229e+001
1.378761e+003,-2.381396e+001
1.379725e+003,-2.455188e+001
1.380690e+003,-2.598114e+001
1.381654e+003,-2.540143e+001
1.382618e+003,-2.366113e+001
1.383582e+003,-2.193176e+001
1.384547e+003,-2.028101e+001
1.385511e+003,-1.834052e+001
1.386475e+003,-1.597949e+001
1.387439e+003,-1.393134e+001
1.388403e+003,-1.343372e+001
1.389368e+003,-1.453326e+001
1.390332e+003,-1.497070e+001
1.391296e+003,-1.379193e+001
1.392260e+003,-1.307446e+001
1.393225e+003,-1.350092e+001
1.394189e+003,-1.445728e+001
1.395153e+003,-1.609491e+001
1.396117e+003,-1.778070e+001
1.397082e+003,-1.820929e+001
1.398046e+003,-1.726288e+001
1.399010e+003,-1.689441e+001
1.399974e+003,-1.927789e+001
1.400938e+003,-2.342535e+001
1.401903e+003,-2.443738e+001
1.402867e+003,-1.994556e+001
1.403831e+003,-1.628882e+001
1.404795e+003,-1.551422e+001
1.405760e+003,-1.405542e+001
1.406724e+003,-1.001343e+001
1.407688e+003,-6.820984e+000
1.408652e+003,-8.409058e+000
1.409617e+003,-1.357410e+001
1.410581e+003,-1.733539e+001
1.411545e+003,-1.776721e+001
1.412509e+003,-1.631073e+001
1.413474e+003,-1.374609e+001
1.414438e+003,-1.137488e+001
1.415402e+003,-1.045581e+001
1.416366e+003,-1.041339e+001
1.417330e+003,-1.011804e+001
1.418295e+003,-9.017517e+000
1.419259e+003,-7.903931e+000
1.420223e+003,-8.572449e+000
1.421187e+003,-1.077136e+001
1.422152e+003,-1.069470e+001
1.423116e+003,-7.049133e+000
1.424080e+003,-3.194275e+000
1.425044e+003,5.950928e-002
1.426009e+003,2.163147e+000
1.426973e+003,2.287292e+000
1.427937e+003,1.408203e+000
1.428901e+003,8.328857e-001
1.429865e+003,8.768311e-001
1.430830e+003,9.678345e-001
1.431794e+003,4.868774e-001
1.432758e+003,-6.724854e-001
1.433722e+003,-2.202576e+000
1.434687e+003,-3.575684e+000
1.435651e+003,-2.328491e+000
1.436615e+003,1.760193e+000
1.437579e+003,4.649109e+000
1.438544e+003,5.013733e+000
1.439508e+003,5.531921e+000
1.440472e+003,9.409790e+000
1.441436e+003,1.491278e+001
1.442401e+003,1.786890e+001
1.443365e+003,1.729797e+001
1.444329e+003,1.627643e+001
1.445293e+003,1.747180e+001
1.446257e+003,1.901782e+001
1.447222e+003,1.575647e+001
1.448186e+003,8.988159e+000
1.449150e+003,7.027283e+000
1.450114e+003,1.161682e+001
1.451079e+003,1.601007e+001
1.452043e+003,1.730426e+001
1.453007e+003,1.683240e+001
1.453971e+003,1.566077e+001
1.454936e+003,1.370941e+001
1.455900e+003,1.158069e+001
1.456864e+003,9.402039e+000
1.457828e+003,8.035889e+000
1.458792e+003,8.022217e+000
1.459757e+003,8.355530e+000
1.460721e+003,8.326660e+000
1.461685e+003,8.007874e+000
1.462649e+003,7.851990e+000
1.463614e+003,8.136475e+000
1.464578e+003,8.459473e+000
1.465542e+003,8.238770e+000
1.466506e+003,7.518433e+000
1.467471e+003,7.003296e+000
1.468435e+003,7.253662e+000
1.469399e+003,7.904663e+000
1.470363e+003,8.358215e+000
1.471328e+003,8.781372e+000
1.472292e+003,8.763428e+000
1.473256e+003,8.156189e+000
1.474220e+003,7.145569e+000
1.475184e+003,6.531250e+000
1.476149e+003,7.125427e+000
1.477113e+003,8.794922e+000
1.478077e+003,1.061377e+001
1.479041e+003,1.207056e+001
1.480006e+003,1.385559e+001
1.480970e+003,1.730878e+001
1.481934e+003,2.289728e+001
1.482898e+003,2.561438e+001
1.483863e+003,2.244183e+001
1.484827e+003,2.071954e+001
1.485791e+003,2.376471e+001
1.486755e+003,2.870911e+001
1.487719e+003,3.340625e+001
1.488684e+003,3.704944e+001
1.489648e+003,3.838745e+001
1.490612e+003,3.741772e+001
1.491576e+003,3.782483e+001
1.492541e+003,4.271106e+001
1.493505e+003,5.005164e+001
1.494469e+003,5.571375e+001
1.495433e+003,5.944531e+001
1.496398e+003,6.282080e+001
1.497362e+003,6.631604e+001
1.498326e+003,7.131897e+001
1.499290e+003,7.837793e+001
1.500255e+003,8.727435e+001
1.501219e+003,9.779968e+001
1.502183e+003,1.096565e+002
1.503147e+003,1.220798e+002
1.504111e+003,1.348346e+002
1.505076e+003,1.484264e+002
1.506040e+003,1.629185e+002
1.507004e+003,1.789866e+002
1.507968e+003,1.966240e+002
1.508933e+003,2.163074e+002
1.509897e+003,2.385601e+002
1.510861e+003,2.644238e+002
1.511825e+003,2.964046e+002
1.512790e+003,3.368159e+002
1.513754e+003,3.816334e+002
1.514718e+003,4.246115e+002
1.515682e+003,4.652052e+002
1.516646e+003,5.037173e+002
1.517611e+003,5.415110e+002
1.518575e+003,5.754604e+002
1.519539e+003,6.073033e+002
1.520503e+003,6.333182e+002
1.521468e+003,6.507513e+002
1.522432e+003,6.608645e+002
1.523396e+003,6.658951e+002
1.524360e+003,6.658439e+002
1.525325e+003,6.588544e+002
1.526289e+003,6.438608e+002
1.527253e+003,6.226490e+002
1.528217e+003,5.980087e+002
1.529182e+003,5.703996e+002
1.530146e+003,5.386057e+002
1.531110e+003,5.016604e+002
1.532074e+003,4.609622e+002
1.533039e+003,4.139840e+002
1.534003e+003,3.645466e+002
1.534967e+003,3.125706e+002
1.535931e+003,2.624269e+002
1.536896e+003,2.168206e+002
1.537860e+003,1.775452e+002
1.538824e+003,1.471106e+002
1.539788e+003,1.262708e+002
1.540752e+003,1.115161e+002
1.541717e+003,9.880371e+001
1.542681e+003,8.833972e+001
1.543645e+003,7.946368e+001
1.544609e+003,7.290283e+001
1.545573e+003,6.781006e+001
1.546538e+003,6.294781e+001
1.547502e+003,5.957544e+001
1.548466e+003,6.002722e+001
1.549430e+003,6.201483e+001
1.550395e+003,6.280017e+001
1.551359e+003,6.232397e+001
1.552323e+003,6.233588e+001
1.553287e+003,6.339954e+001
1.554252e+003,6.345947e+001
1.555216e+003,6.069525e+001
1.556180e+003,5.547009e+001
1.557144e+003,4.765234e+001
1.558109e+003,3.739691e+001
1.559073e+003,3.216486e+001
1.560037e+003,3.374982e+001
1.561001e+003,3.517926e+001
1.561966e+003,3.480780e+001
1.562930e+003,3.417334e+001
1.563894e+003,3.389722e+001
1.564858e+003,3.401471e+001
1.565823e+003,3.536298e+001
1.566787e+003,3.785321e+001
1.567751e+003,3.861621e+001
1.568715e+003,3.577087e+001
1.569679e+003,3.201636e+001
1.570644e+003,2.986230e+001
1.571608e+003,2.917920e+001
1.572572e+003,3.070270e+001
1.573536e+003,3.484393e+001
1.574500e+003,3.918884e+001
1.575465e+003,4.317633e+001
1.576429e+003,4.635278e+001
1.577393e+003,4.779785e+001
1.578357e+003,4.802179e+001
1.579322e+003,4.830847e+001
1.580286e+003,4.892212e+001
1.581250e+003,4.983905e+001
1.582214e+003,5.119067e+001
1.583179e+003,5.215344e+001
1.584143e+003,5.080096e+001
1.585107e+003,4.941882e+001
1.586071e+003,5.300049e+001
1.587036e+003,6.004510e+001
1.588000e+003,6.361108e+001
1.588964e+003,6.165271e+001
1.589928e+003,5.916364e+001
1.590893e+003,5.983398e+001
1.591857e+003,6.163232e+001
1.592821e+003,6.073798e+001
1.593785e+003,5.808765e+001
1.594750e+003,5.901282e+001
1.595714e+003,6.447675e+001
1.596678e+003,6.988184e+001
1.597642e+003,7.392261e+001
1.598606e+003,7.669208e+001
1.599571e+003,7.792346e+001
1.600535e+003,7.858521e+001
1.601499e+003,7.985968e+001
1.602463e+003,8.153271e+001
1.603427e+003,8.260107e+001
1.604392e+003,8.267645e+001
1.605356e+003,8.226831e+001
1.606320e+003,8.202258e+001
1.607284e+003,8.170648e+001
1.608249e+003,7.997949e+001
1.609213e+003,7.673694e+001
1.610177e+003,7.611371e+001
1.611141e+003,8.005127e+001
1.612106e+003,8.352637e+001
1.613070e+003,8.355792e+001
1.614034e+003,8.261377e+001
1.614998e+003,8.200781e+001
1.615963e+003,8.188409e+001
1.616927e+003,8.268445e+001
1.617891e+003,8.404431e+001
1.618855e+003,8.374823e+001
1.619820e+003,7.992676e+001
1.620784e+003,7.509570e+001
1.621748e+003,7.419269e+001
1.622712e+003,7.712756e+001
1.623677e+003,7.859326e+001
1.624641e+003,7.815656e+001
1.625605e+003,7.906165e+001
1.626569e+003,8.178699e+001
1.627533e+003,8.362567e+001
1.628498e+003,8.362891e+001
1.629462e+003,8.313440e+001
1.630426e+003,8.276227e+001
1.631390e+003,8.266064e+001
1.632354e+003,8.320813e+001
1.633319e+003,8.435638e+001
1.634283e+003,8.532910e+001
1.635247e+003,8.549829e+001
1.636211e+003,8.500385e+001
1.637176e+003,8.419727e+001
1.638140e+003,8.335364e+001
1.639104e+003,8.335797e+001
1.640068e+003,8.455701e+001
1.641033e+003,8.432056e+001
1.641997e+003,8.102777e+001
1.642961e+003,7.809082e+001
1.643925e+003,7.619763e+001
1.644890e+003,7.607733e+001
1.645854e+003,7.953918e+001
1.646818e+003,8.503857e+001
1.647782e+003,8.889044e+001
1.648747e+003,8.994727e+001
1.649711e+003,9.004944e+001
1.650675e+003,9.115668e+001
1.651639e+003,9.239807e+001
1.652604e+003,9.070947e+001
1.653568e+003,8.597614e+001
1.654532e+003,8.322119e+001
1.655496e+003,8.328455e+001
1.656460e+003,8.334833e+001
1.657425e+003,8.367639e+001
1.658389e+003,8.279663e+001
1.659353e+003,7.849554e+001
1.660317e+003,7.366760e+001
1.661281e+003,7.136951e+001
1.662246e+003,7.117596e+001
1.663210e+003,7.166309e+001
1.664174e+003,7.244006e+001
1.665138e+003,7.237836e+001
1.666103e+003,6.986108e+001
1.667067e+003,6.629614e+001
1.668031e+003,6.533160e+001
1.668995e+003,6.681860e+001
1.669960e+003,6.667981e+001
1.670924e+003,6.467499e+001
1.671888e+003,6.126544e+001
1.672852e+003,5.410052e+001
1.673817e+003,4.862146e+001
1.674781e+003,4.933917e+001
1.675745e+003,5.251245e+001
1.676709e+003,5.472876e+001
1.677674e+003,5.563336e+001
1.678638e+003,5.556396e+001
1.679602e+003,5.462726e+001
1.680566e+003,5.214771e+001
1.681531e+003,4.681787e+001
1.682495e+003,4.133887e+001
1.683459e+003,4.022272e+001
1.684423e+003,4.254779e+001
1.685387e+003,4.439105e+001
1.686352e+003,4.561853e+001
1.687316e+003,4.602594e+001
1.688280e+003,4.518597e+001
1.689244e+003,4.415625e+001
1.690208e+003,4.378174e+001
1.691173e+003,4.331573e+001
1.692137e+003,4.200592e+001
1.693101e+003,4.042053e+001
1.694065e+003,3.952716e+001
1.695030e+003,3.918982e+001
1.695994e+003,3.773230e+001
1.696958e+003,3.282587e+001
1.697922e+003,2.840906e+001
1.698887e+003,3.094464e+001
1.699851e+003,3.785742e+001
1.700815e+003,4.081689e+001
1.701779e+003,3.890631e+001
1.702744e+003,3.524652e+001
1.703708e+003,3.078473e+001
1.704672e+003,2.706006e+001
1.705636e+003,2.422717e+001
1.706601e+003,2.245251e+001
1.707565e+003,2.378564e+001
1.708529e+003,2.729004e+001
1.709493e+003,2.860675e+001
1.710458e+003,2.689063e+001
1.711422e+003,2.558862e+001
1.712386e+003,2.711609e+001
1.713350e+003,2.909692e+001
1.714314e+003,2.959052e+001
1.715279e+003,2.845825e+001
1.716243e+003,2.512012e+001
1.717207e+003,2.031287e+001
1.718171e+003,1.688434e+001
1.719135e+003,1.572150e+001
1.720100e+003,1.642706e+001
1.721064e+003,1.908588e+001
1.722028e+003,2.182587e+001
1.722992e+003,2.239404e+001
1.723957e+003,2.148785e+001
1.724921e+003,2.032971e+001
1.725885e+003,1.811407e+001
1.726849e+003,1.558960e+001
1.727814e+003,1.355383e+001
1.728778e+003,1.204596e+001
1.729742e+003,1.003326e+001
1.730706e+003,9.150818e+000
1.731671e+003,1.186395e+001
1.732635e+003,1.576434e+001
1.733599e+003,1.668164e+001
1.734563e+003,1.458649e+001
1.735528e+003,1.196210e+001
1.736492e+003,9.919128e+000
1.737456e+003,9.270142e+000
1.738420e+003,1.132861e+001
1.739385e+003,1.446387e+001
1.740349e+003,1.386169e+001
1.741313e+003,8.827209e+000
1.742277e+003,5.366333e+000
1.743241e+003,4.147034e+000
1.744206e+003,4.073853e+000
1.745170e+003,4.899902e+000
1.746134e+003,6.491089e+000
1.747098e+003,1.031311e+001
1.748063e+003,1.365198e+001
1.749027e+003,1.236761e+001
1.749991e+003,8.128113e+000
1.750955e+003,6.403015e+000
1.751919e+003,8.559265e+000
1.752884e+003,1.027728e+001
1.753848e+003,7.955444e+000
1.754812e+003,3.519470e+000
1.755776e+003,1.060303e+000
1.756741e+003,9.445801e-001
1.757705e+003,2.198608e+000
1.758669e+003,5.008118e+000
1.759633e+003,7.554932e+000
1.760598e+003,9.988892e+000
1.761562e+003,1.088788e+001
1.762526e+003,9.745911e+000
1.763490e+003,7.949097e+000
1.764455e+003,5.897095e+000
1.765419e+003,4.253296e+000
1.766383e+003,3.653381e+000
1.767347e+003,3.885437e+000
1.768312e+003,4.306396e+000
1.769276e+003,4.481262e+000
1.770240e+003,4.994385e+000
1.771204e+003,8.027832e+000
1.772168e+003,1.168225e+001
1.773133e+003,9.400574e+000
1.774097e+003,1.990112e+000
1.775061e+003,-1.975769e+000
1.776025e+003,-1.823914e+000
1.776990e+003,-5.446777e-001
1.777954e+003,1.874390e+000
1.778918e+003,4.551025e+000
1.779882e+003,6.629761e+000
1.780846e+003,7.931641e+000
1.781811e+003,8.828552e+000
1.782775e+003,9.339233e+000
1.783739e+003,8.777710e+000
1.784703e+003,7.006531e+000
1.785668e+003,6.516846e+000
1.786632e+003,8.450989e+000
1.787596e+003,1.068713e+001
1.788560e+003,1.288403e+001
1.789525e+003,1.480280e+001
1.790489e+003,1.543573e+001
1.791453e+003,1.468109e+001
1.792417e+003,1.257568e+001
1.793382e+003,9.443237e+000
1.794346e+003,7.521362e+000
1.795310e+003,8.011597e+000
1.796274e+003,8.906311e+000
1.797239e+003,8.147949e+000
1.798203e+003,6.816711e+000
1.799167e+003,6.755127e+000
1.800131e+003,7.458435e+000
1.801095e+003,6.245239e+000
1.802060e+003,8.196411e-001
1.803024e+003,-8.919067e-001
1.803988e+003,4.371094e+000
1.804952e+003,9.753357e+000
1.805917e+003,1.246637e+001
1.806881e+003,1.333313e+001
1.807845e+003,1.293054e+001
1.808809e+003,1.203784e+001
1.809773e+003,1.161548e+001
1.810738e+003,1.180664e+001
1.811702e+003,1.191357e+001
1.812666e+003,1.146899e+001
1.813630e+003,1.106830e+001
1.814595e+003,1.157574e+001
1.815559e+003,1.260150e+001
1.816523e+003,1.301941e+001
1.817487e+003,1.285492e+001
1.818452e+003,1.312183e+001
1.819416e+003,1.460004e+001
1.820380e+003,1.566473e+001
1.821344e+003,1.545911e+001
1.822309e+003,1.439514e+001
1.823273e+003,1.267999e+001
1.824237e+003,1.094830e+001
1.825201e+003,9.260925e+000
1.826166e+003,7.765503e+000
1.827130e+003,7.260254e+000
1.828094e+003,7.677490e+000
1.829058e+003,7.531921e+000
1.830022e+003,5.881104e+000
1.830987e+003,4.760315e+000
1.831951e+003,6.843201e+000
1.832915e+003,9.776062e+000
1.833879e+003,9.649048e+000
1.834844e+003,7.388062e+000
1.835808e+003,6.107605e+000
1.836772e+003,6.400818e+000
1.837736e+003,7.744568e+000
1.838700e+003,9.744263e+000
1.839665e+003,1.145978e+001
1.840629e+003,1.216400e+001
1.841593e+003,1.252435e+001
1.842557e+003,1.384863e+001
1.843522e+003,1.607245e+001
1.844486e+003,1.595508e+001
1.845450e+003,1.138086e+001
1.846414e+003,9.732178e+000
1.847379e+003,1.179669e+001
1.848343e+003,1.419940e+001
1.849307e+003,1.741443e+001
1.850271e+003,1.964545e+001
1.851236e+003,1.964642e+001
1.852200e+003,1.833838e+001
1.853164e+003,1.587756e+001
1.854128e+003,1.270099e+001
1.855093e+003,1.060681e+001
1.856057e+003,1.055530e+001
1.857021e+003,1.120386e+001
1.857985e+003,1.108466e+001
1.858949e+003,1.117859e+001
1.859914e+003,1.418066e+001
1.860878e+003,1.932135e+001
1.861842e+003,2.127295e+001
1.862806e+003,1.978131e+001
1.863771e+003,1.774567e+001
1.864735e+003,1.485669e+001
1.865699e+003,1.430707e+001
1.866663e+003,1.910846e+001
1.867627e+003,2.437732e+001
1.868592e+003,2.539270e+001
1.869556e+003,2.342908e+001
1.870520e+003,2.106262e+001
1.871484e+003,1.849921e+001
1.872449e+003,1.755774e+001
1.873413e+003,1.985266e+001
1.874377e+003,2.329547e+001
1.875341e+003,2.749786e+001
1.876306e+003,3.022937e+001
1.877270e+003,2.918182e+001
1.878234e+003,2.682245e+001
1.879198e+003,2.574030e+001
1.880163e+003,2.553711e+001
1.881127e+003,2.514490e+001
1.882091e+003,2.444080e+001
1.883055e+003,2.372876e+001
1.884020e+003,2.310095e+001
1.884984e+003,2.246399e+001
1.885948e+003,2.174988e+001
1.886912e+003,2.110498e+001
1.887876e+003,2.084418e+001
1.888841e+003,2.102631e+001
1.889805e+003,2.192157e+001
1.890769e+003,2.377545e+001
1.891733e+003,2.500281e+001
1.892698e+003,2.496893e+001
1.893662e+003,2.460156e+001
1.894626e+003,2.408099e+001
1.895590e+003,2.382190e+001
1.896554e+003,2.425128e+001
1.897519e+003,2.543964e+001
1.898483e+003,2.807507e+001
1.899447e+003,3.082251e+001
1.900411e+003,2.990631e+001
1.901376e+003,2.459033e+001
1.902340e+003,2.088275e+001
1.903304e+003,2.141583e+001
1.904268e+003,2.330145e+001
1.905233e+003,2.607941e+001
1.906197e+003,2.847906e+001
1.907161e+003,2.798303e+001
1.908125e+003,2.694202e+001
1.909090e+003,3.068732e+001
1.910054e+003,3.762817e+001
1.911018e+003,3.999103e+001
1.911982e+003,3.597150e+001
1.912947e+003,3.235681e+001
1.913911e+003,3.400073e+001
1.914875e+003,3.775287e+001
1.915839e+003,3.849603e+001
1.916803e+003,3.669379e+001
1.917768e+003,3.663367e+001
1.918732e+003,3.904321e+001
1.919696e+003,4.053522e+001
1.920660e+003,4.132129e+001
1.921625e+003,4.110321e+001
1.922589e+003,3.831091e+001
1.923553e+003,3.631299e+001
1.924517e+003,3.837048e+001
1.925481e+003,4.079712e+001
1.926446e+003,3.985767e+001
1.927410e+003,3.717535e+001
1.928374e+003,3.542944e+001
1.929338e+003,3.471796e+001
1.930303e+003,3.596521e+001
1.931267e+003,4.101935e+001
1.932231e+003,4.507629e+001
1.933195e+003,4.465778e+001
1.934160e+003,4.309869e+001
1.935124e+003,4.265399e+001
1.936088e+003,4.232764e+001
1.937052e+003,4.091772e+001
1.938017e+003,3.926807e+001
1.938981e+003,3.890350e+001
1.939945e+003,3.991156e+001
1.940909e+003,4.175964e+001
1.941874e+003,4.390002e+001
1.942838e+003,4.466052e+001
1.943802e+003,4.270453e+001
1.944766e+003,4.054626e+001
1.945730e+003,4.312415e+001
1.946695e+003,4.909137e+001
1.947659e+003,4.912787e+001
1.948623e+003,4.244934e+001
1.949587e+003,3.735913e+001
1.950552e+003,3.493829e+001
1.951516e+003,3.425568e+001
1.952480e+003,3.528632e+001
1.953444e+003,3.738525e+001
1.954408e+003,4.066266e+001
1.955373e+003,4.367218e+001
1.956337e+003,4.484363e+001
1.957301e+003,4.492841e+001
1.958265e+003,4.475134e+001
1.959230e+003,4.426343e+001
1.960194e+003,4.465295e+001
1.961158e+003,4.567242e+001
1.962122e+003,4.671295e+001
1.963087e+003,4.795819e+001
1.964051e+003,4.900830e+001
1.965015e+003,4.987732e+001
1.965979e+003,5.105609e+001
1.966944e+003,5.329260e+001
1.967908e+003,5.525165e+001
1.968872e+003,5.380914e+001
1.969836e+003,5.002747e+001
1.970801e+003,4.994751e+001
1.971765e+003,5.584106e+001
1.972729e+003,6.139661e+001
1.973693e+003,6.128113e+001
1.974657e+003,5.781714e+001
1.975622e+003,5.266388e+001
1.976586e+003,4.722980e+001
1.977550e+003,4.644415e+001
1.978514e+003,4.973407e+001
1.979479e+003,5.266528e+001
1.980443e+003,5.443243e+001
1.981407e+003,5.532672e+001
1.982371e+003,5.558453e+001
1.983335e+003,5.599408e+001
1.984300e+003,5.689105e+001
1.985264e+003,5.795923e+001
1.986228e+003,5.914594e+001
1.987192e+003,6.020264e+001
1.988157e+003,5.980231e+001
1.989121e+003,5.771356e+001
1.990085e+003,5.624408e+001
1.991049e+003,5.522406e+001
1.992014e+003,5.571344e+001
1.992978e+003,5.985242e+001
1.993942e+003,6.224805e+001
1.994906e+003,5.846820e+001
1.995871e+003,5.500824e+001
1.996835e+003,5.854175e+001
1.997799e+003,6.456628e+001
1.998763e+003,6.563190e+001
1.999728e+003,6.222174e+001
