5.003444e+002,4.332724e+001
5.013087e+002,4.462897e+001
5.022729e+002,4.349570e+001
5.032371e+002,4.070932e+001
5.042014e+002,3.834064e+001
5.051656e+002,3.644537e+001
5.061298e+002,3.541147e+001
5.070941e+002,3.560422e+001
5.080583e+002,3.713361e+001
5.090225e+002,3.890747e+001
5.099868e+002,4.271796e+001
5.109510e+002,4.496014e+001
5.119152e+002,4.253476e+001
5.128795e+002,3.494559e+001
5.138437e+002,2.992001e+001
5.148079e+002,3.198654e+001
5.157722e+002,3.543680e+001
5.167364e+002,3.897906e+001
5.177006e+002,4.173706e+001
5.186649e+002,4.280444e+001
5.196291e+002,3.978857e+001
5.205933e+002,3.553903e+001
5.215576e+002,3.291147e+001
5.225218e+002,3.212460e+001
5.234860e+002,3.247781e+001
5.244503e+002,3.292725e+001
5.254145e+002,3.378009e+001
5.263787e+002,3.407587e+001
5.273430e+002,3.362354e+001
5.283072e+002,3.275418e+001
5.292714e+002,3.184579e+001
5.302357e+002,3.069739e+001
5.311999e+002,2.937689e+001
5.321641e+002,2.772931e+001
5.331284e+002,2.641202e+001
5.340926e+002,2.589697e+001
5.350568e+002,2.629904e+001
5.360211e+002,2.702197e+001
5.369853e+002,2.843826e+001
5.379495e+002,2.970135e+001
5.389138e+002,2.981781e+001
5.398780e+002,2.846597e+001
5.408422e+002,2.620770e+001
5.418065e+002,2.450378e+001
5.427707e+002,2.330347e+001
5.437349e+002,2.238974e+001
5.446992e+002,2.169998e+001
5.456634e+002,2.123175e+001
5.466276e+002,2.104263e+001
5.475919e+002,2.172858e+001
5.485561e+002,2.207358e+001
5.495203e+002,2.176639e+001
5.504846e+002,2.105453e+001
5.514488e+002,2.036526e+001
5.524130e+002,1.998062e+001
5.533773e+002,1.955759e+001
5.543415e+002,1.876587e+001
5.553057e+002,1.792639e+001
5.562700e+002,1.735590e+001
5.572342e+002,1.722498e+001
5.581984e+002,1.732394e+001
5.591627e+002,1.743332e+001
5.601269e+002,1.756229e+001
5.610911e+002,1.735818e+001
5.620554e+002,1.654489e+001
5.630196e+002,1.520474e+001
5.639838e+002,1.466650e+001
5.649481e+002,1.637808e+001
5.659123e+002,1.682727e+001
5.668765e+002,1.464633e+001
5.678408e+002,1.094986e+001
5.688050e+002,8.679932e+000
5.697692e+002,9.034210e+000
5.707335e+002,9.905762e+000
5.716977e+002,1.166939e+001
5.726619e+002,1.331490e+001
5.736262e+002,1.327733e+001
5.745904e+002,1.017131e+001
5.755546e+002,6.518692e+000
5.765189e+002,6.248657e+000
5.774831e+002,8.047089e+000
5.784473e+002,1.006934e+001
5.794116e+002,1.111887e+001
5.803758e+002,1.134897e+001
5.813400e+002,1.123544e+001
5.823043e+002,1.077780e+001
5.832685e+002,9.592545e+000
5.842327e+002,6.797928e+000
5.851970e+002,2.979355e+000
5.861612e+002,1.365677e+000
5.871254e+002,4.992905e+000
5.880897e+002,7.897217e+000
5.890539e+002,8.556885e+000
5.900181e+002,7.726471e+000
5.909824e+002,6.934937e+000
5.919466e+002,7.290771e+000
5.929108e+002,7.719116e+000
5.938751e+002,6.913574e+000
5.948393e+002,5.431412e+000
5.958035e+002,4.150955e+000
5.967678e+002,3.728348e+000
5.977320e+002,4.076767e+000
5.986962e+002,4.028915e+000
5.996605e+002,3.427002e+000
6.006247e+002,2.770294e+000
6.015889e+002,2.053253e+000
6.025532e+002,1.355072e+000
6.035174e+002,1.524246e+000
6.044816e+002,3.999420e+000
6.054459e+002,5.879639e+000
6.064101e+002,6.417526e+000
6.073743e+002,6.114609e+000
6.083386e+002,5.981918e+000
6.093028e+002,6.694595e+000
6.102670e+002,7.433914e+000
6.112313e+002,7.608551e+000
6.121955e+002,7.361755e+000
6.131597e+002,6.705048e+000
6.141240e+002,5.670532e+000
6.150882e+002,4.549500e+000
6.160524e+002,5.106110e+000
6.170167e+002,7.100037e+000
6.179809e+002,8.744186e+000
6.189451e+002,9.233047e+000
6.199094e+002,8.548904e+000
6.208736e+002,7.122543e+000
6.218378e+002,4.029800e+000
6.228021e+002,1.531555e+000
6.237663e+002,-3.497925e-001
6.247305e+002,-1.430710e+000
6.256948e+002,-1.227325e+000
6.266590e+002,1.157822e+000
6.276232e+002,2.827301e+000
6.285875e+002,1.403748e+000
6.295517e+002,-9.475555e-001
6.305159e+002,-1.770401e+000
6.314802e+002,1.491394e-001
6.324444e+002,3.305054e+000
6.334086e+002,3.386871e+000
6.343729e+002,1.486404e+000
6.353371e+002,-9.439087e-002
6.363013e+002,-6.505737e-001
6.372656e+002,-3.207703e-001
6.382298e+002,5.680237e-001
6.391940e+002,3.332642e+000
6.401583e+002,4.701111e+000
6.411225e+002,4.283890e+000
6.420867e+002,2.971771e+000
6.430510e+002,1.545868e+000
6.440152e+002,-8.709717e-002
6.449794e+002,-1.398743e+000
6.459437e+002,-2.186996e+000
6.469079e+002,-2.583572e+000
6.478721e+002,-2.314957e+000
6.488364e+002,-1.429688e+000
6.498006e+002,-6.641235e-001
6.507648e+002,-2.115631e+000
6.517291e+002,-4.685394e+000
6.526933e+002,-5.323929e+000
6.536575e+002,-3.389526e+000
6.546218e+002,-6.300354e-002
6.555860e+002,2.450531e+000
6.565502e+002,3.925888e+000
6.575145e+002,4.766815e+000
6.584787e+002,5.087738e+000
6.594429e+002,4.821533e+000
6.604072e+002,3.749680e+000
6.613714e+002,1.761993e+000
6.623356e+002,-2.322693e-001
6.632999e+002,-2.516617e+000
6.642641e+002,-4.287827e+000
6.652283e+002,-4.772415e+000
6.661926e+002,-4.030716e+000
6.671568e+002,-2.766983e+000
6.681210e+002,-1.842407e+000
6.690853e+002,-1.134705e+000
6.700495e+002,1.162720e-002
6.710137e+002,1.562637e+000
6.719780e+002,2.826309e+000
6.729422e+002,2.983826e+000
6.739064e+002,1.664917e+000
6.748707e+002,1.130188e+000
6.758349e+002,2.437805e+000
6.767991e+002,3.053162e+000
6.777634e+002,1.074387e+000
6.787276e+002,-2.843063e+000
6.796918e+002,-4.564163e+000
6.806561e+002,-7.125854e-002
6.816203e+002,3.934464e+000
6.825845e+002,4.729065e+000
6.835488e+002,3.282608e+000
6.845130e+002,1.387604e+000
6.854772e+002,3.379059e-001
6.864415e+002,-4.719543e-002
6.874057e+002,-5.484924e-001
6.883699e+002,-1.188721e+000
6.893342e+002,-1.597260e+000
6.902984e+002,-1.519791e+000
6.912626e+002,-9.553223e-001
6.922269e+002,-2.004547e-001
6.931911e+002,2.187775e+000
6.941553e+002,3.133148e+000
6.951196e+002,5.541534e-001
6.960838e+002,-3.253601e+000
6.970480e+002,-4.244797e+000
6.980123e+002,-3.092804e-001
6.989765e+002,3.457886e+000
6.999407e+002,5.015091e+000
7.009050e+002,5.488983e+000
7.018692e+002,5.801315e+000
7.028334e+002,6.208740e+000
7.037977e+002,6.014191e+000
7.047619e+002,3.399872e+000
7.057261e+002,-1.909180e-001
7.066904e+002,-1.698517e+000
7.076546e+002,-6.390076e-001
7.086188e+002,1.304916e+000
7.095831e+002,1.415115e+000
7.105473e+002,-1.302551e+000
7.115115e+002,-3.013626e+000
7.124758e+002,-3.691040e+000
7.134400e+002,-3.743271e+000
7.144042e+002,-3.019791e+000
7.153685e+002,-1.533981e+000
7.163327e+002,-4.271240e-001
7.172969e+002,-2.489929e-001
7.182612e+002,-5.737305e-001
7.192254e+002,-1.980728e+000
7.201896e+002,-3.802338e+000
7.211539e+002,-4.725159e+000
7.221181e+002,-3.524384e+000
7.230823e+002,-1.098679e+000
7.240466e+002,1.809540e-001
7.250108e+002,6.155396e-001
7.259750e+002,7.081604e-001
7.269393e+002,6.298981e-001
7.279035e+002,2.050781e-001
7.288677e+002,-8.019257e-001
7.298320e+002,-3.861954e+000
7.307962e+002,-4.982056e+000
7.317604e+002,-2.422104e+000
7.327247e+002,1.682236e+000
7.336889e+002,4.231094e+000
7.346531e+002,3.945786e+000
7.356174e+002,2.832504e+000
7.365816e+002,2.390488e+000
7.375458e+002,1.993195e+000
7.385101e+002,6.620178e-001
7.394743e+002,-1.545044e+000
7.404385e+002,-3.239243e+000
7.414028e+002,-1.953232e+000
7.423670e+002,1.312500e+000
7.433312e+002,2.863327e+000
7.442955e+002,2.569214e+000
7.452597e+002,1.834167e+000
7.462239e+002,2.318848e+000
7.471882e+002,4.587082e+000
7.481524e+002,5.215973e+000
7.491166e+002,2.280975e+000
7.500809e+002,-2.130585e-001
7.510451e+002,-5.680542e-001
7.520093e+002,8.451538e-001
7.529736e+002,2.448578e+000
7.539378e+002,4.196091e+000
7.549020e+002,5.194382e+000
7.558663e+002,4.615723e+000
7.568306e+002,3.145676e+000
7.577948e+002,1.504501e+000
7.587590e+002,1.294708e-001
7.597233e+002,-9.764099e-001
7.606875e+002,-1.270905e+000
7.616517e+002,-7.653961e-001
7.626160e+002,-4.665680e-001
7.635802e+002,-7.992859e-001
7.645444e+002,-1.228821e+000
7.655087e+002,-5.837555e-001
7.664729e+002,1.798752e+000
7.674371e+002,3.741577e+000
7.684014e+002,5.379272e+000
7.693656e+002,6.382111e+000
7.703298e+002,6.369751e+000
7.712941e+002,5.414352e+000
7.722583e+002,4.276794e+000
7.732225e+002,3.394775e+000
7.741868e+002,2.632584e+000
7.751510e+002,1.744003e+000
7.761152e+002,8.923798e-001
7.770795e+002,4.235840e-001
7.780437e+002,6.285400e-001
7.790079e+002,1.404755e+000
7.799722e+002,2.321304e+000
7.809364e+002,3.370117e+000
7.819006e+002,4.398651e+000
7.828649e+002,5.693268e+000
7.838291e+002,7.084335e+000
7.847933e+002,7.719650e+000
7.857576e+002,6.945267e+000
7.867218e+002,5.948837e+000
7.876860e+002,5.101547e+000
7.886503e+002,4.323242e+000
7.896145e+002,3.246582e+000
7.905787e+002,1.873627e+000
7.915430e+002,1.148544e+000
7.925072e+002,2.667862e+000
7.934714e+002,4.838959e+000
7.944357e+002,6.355011e+000
7.953999e+002,7.077469e+000
7.963641e+002,6.965363e+000
7.973284e+002,5.841690e+000
7.982926e+002,3.595291e+000
7.992568e+002,2.711716e+000
8.002211e+002,3.205643e+000
8.011853e+002,3.908340e+000
8.021495e+002,5.206757e+000
8.031138e+002,6.857544e+000
8.040780e+002,7.123184e+000
8.050422e+002,3.876450e+000
8.060065e+002,1.867645e+000
8.069707e+002,3.229233e+000
8.079349e+002,5.832428e+000
8.088992e+002,7.758850e+000
8.098634e+002,8.348358e+000
8.108276e+002,8.401260e+000
8.117919e+002,8.946838e+000
8.127561e+002,9.424316e+000
8.137203e+002,9.145279e+000
8.146846e+002,8.189331e+000
8.156488e+002,6.959839e+000
8.166130e+002,5.802063e+000
8.175773e+002,4.616638e+000
8.185415e+002,3.848572e+000
8.195057e+002,3.562775e+000
8.204700e+002,3.255615e+000
8.214342e+002,1.951950e+000
8.223984e+002,5.219269e-001
8.233627e+002,1.582397e+000
8.243269e+002,7.627136e+000
8.252911e+002,1.318669e+001
8.262554e+002,1.552306e+001
8.272196e+002,1.568675e+001
8.281838e+002,1.405298e+001
8.291481e+002,1.116270e+001
8.301123e+002,8.232422e+000
8.310765e+002,7.642685e+000
8.320408e+002,9.154572e+000
8.330050e+002,9.602524e+000
8.339692e+002,8.710983e+000
8.349335e+002,7.247711e+000
8.358977e+002,5.824982e+000
8.368619e+002,4.416565e+000
8.378262e+002,3.846542e+000
8.387904e+002,4.378433e+000
8.397546e+002,5.240784e+000
8.407189e+002,6.757706e+000
8.416831e+002,8.391144e+000
8.426473e+002,9.109131e+000
8.436116e+002,8.235107e+000
8.445758e+002,7.411453e+000
8.455400e+002,8.523209e+000
8.465043e+002,1.029070e+001
8.474685e+002,1.150883e+001
8.484327e+002,1.194780e+001
8.493970e+002,1.214728e+001
8.503612e+002,1.284180e+001
8.513254e+002,1.410030e+001
8.522897e+002,1.478235e+001
8.532539e+002,1.479987e+001
8.542181e+002,1.427629e+001
8.551824e+002,1.310345e+001
8.561466e+002,1.155823e+001
8.571108e+002,1.077757e+001
8.580751e+002,1.091531e+001
8.590393e+002,1.131432e+001
8.600035e+002,1.179865e+001
8.609678e+002,1.263153e+001
8.619320e+002,1.426213e+001
8.628962e+002,1.678238e+001
8.638605e+002,1.955099e+001
8.648247e+002,2.222546e+001
8.657889e+002,2.409164e+001
8.667532e+002,2.282629e+001
8.677174e+002,1.814645e+001
8.686816e+002,1.345441e+001
8.696459e+002,1.291953e+001
8.706101e+002,1.737273e+001
8.715743e+002,2.038518e+001
8.725386e+002,2.132256e+001
8.735028e+002,2.184280e+001
8.744670e+002,2.198779e+001
8.754313e+002,2.186179e+001
8.763955e+002,2.174960e+001
8.773597e+002,2.184424e+001
8.783240e+002,2.190125e+001
8.792882e+002,2.099786e+001
8.802524e+002,2.031018e+001
8.812167e+002,2.145103e+001
8.821809e+002,2.434129e+001
8.831451e+002,2.724977e+001
8.841094e+002,2.789598e+001
8.850736e+002,2.647049e+001
8.860378e+002,2.609711e+001
8.870021e+002,2.690744e+001
8.879663e+002,2.779449e+001
8.889305e+002,2.819196e+001
8.898948e+002,2.809302e+001
8.908590e+002,2.761569e+001
8.918232e+002,2.622882e+001
8.927875e+002,2.567308e+001
8.937517e+002,2.685484e+001
8.947159e+002,2.851683e+001
8.956802e+002,2.943690e+001
8.966444e+002,2.934628e+001
8.976086e+002,2.911200e+001
8.985729e+002,2.982739e+001
8.995371e+002,3.105618e+001
9.005013e+002,3.188580e+001
9.014656e+002,3.239169e+001
9.024298e+002,3.278156e+001
9.033940e+002,3.309842e+001
9.043583e+002,3.326213e+001
9.053225e+002,3.355464e+001
9.062867e+002,3.371962e+001
9.072510e+002,3.418794e+001
9.082152e+002,3.613986e+001
9.091794e+002,3.794562e+001
9.101437e+002,3.731622e+001
9.111079e+002,3.383612e+001
9.120721e+002,3.136581e+001
9.130364e+002,3.366397e+001
9.140006e+002,3.612527e+001
9.149648e+002,3.622847e+001
9.159291e+002,3.450929e+001
9.168933e+002,3.213402e+001
9.178575e+002,2.990025e+001
9.188218e+002,2.812953e+001
9.197860e+002,2.862015e+001
9.207502e+002,3.136514e+001
9.217145e+002,3.344705e+001
9.226787e+002,3.473892e+001
9.236429e+002,3.511169e+001
9.246072e+002,3.379382e+001
9.255714e+002,3.012952e+001
9.265356e+002,2.765550e+001
9.274999e+002,2.762099e+001
9.284641e+002,2.800020e+001
9.294283e+002,2.877232e+001
9.303926e+002,2.942241e+001
9.313568e+002,2.897168e+001
9.323210e+002,2.681436e+001
9.332853e+002,2.437732e+001
9.342495e+002,2.451007e+001
9.352137e+002,2.578690e+001
9.361780e+002,2.606476e+001
9.371422e+002,2.499728e+001
9.381064e+002,2.380476e+001
9.390707e+002,2.407103e+001
9.400349e+002,2.597990e+001
9.409991e+002,2.705873e+001
9.419634e+002,2.728807e+001
9.429276e+002,2.678967e+001
9.438918e+002,2.468668e+001
9.448561e+002,2.221713e+001
9.458203e+002,2.170212e+001
9.467845e+002,2.419614e+001
9.477488e+002,2.677469e+001
9.487130e+002,2.683206e+001
9.496772e+002,2.627724e+001
9.506415e+002,2.656136e+001
9.516057e+002,2.776567e+001
9.525699e+002,2.928001e+001
9.535342e+002,3.052606e+001
9.544984e+002,3.132523e+001
9.554626e+002,3.014841e+001
9.564269e+002,2.649619e+001
9.573911e+002,2.441812e+001
9.583553e+002,2.571042e+001
9.593196e+002,2.879813e+001
9.602838e+002,3.145251e+001
9.612480e+002,3.378407e+001
9.622123e+002,3.455669e+001
9.631765e+002,3.196510e+001
9.641407e+002,2.933534e+001
9.651050e+002,2.841760e+001
9.660692e+002,2.858401e+001
9.670334e+002,2.804605e+001
9.679977e+002,2.573483e+001
9.689619e+002,2.314508e+001
9.699261e+002,2.405402e+001
9.708904e+002,2.707324e+001
9.718546e+002,2.834988e+001
9.728188e+002,2.671706e+001
9.737831e+002,2.422227e+001
9.747473e+002,2.350044e+001
9.757115e+002,2.476488e+001
9.766758e+002,2.701456e+001
9.776400e+002,3.189627e+001
9.786042e+002,3.598438e+001
9.795685e+002,3.859207e+001
9.805327e+002,3.966214e+001
9.814969e+002,3.895840e+001
9.824612e+002,3.647440e+001
9.834254e+002,3.388049e+001
9.843896e+002,3.295775e+001
9.853539e+002,3.244231e+001
9.863181e+002,3.096294e+001
9.872823e+002,2.846111e+001
9.882466e+002,2.551971e+001
9.892108e+002,2.272675e+001
9.901750e+002,2.043057e+001
9.911393e+002,1.992200e+001
9.921035e+002,2.210660e+001
9.930677e+002,2.394788e+001
9.940320e+002,2.564063e+001
9.949962e+002,2.700243e+001
9.959604e+002,2.779961e+001
9.969247e+002,2.805611e+001
9.978889e+002,2.793095e+001
9.988531e+002,2.608162e+001
9.998174e+002,2.531046e+001
1.000782e+003,2.863168e+001
1.001746e+003,3.378964e+001
1.002710e+003,3.740735e+001
1.003674e+003,3.801563e+001
1.004639e+003,3.688403e+001
1.005603e+003,3.617889e+001
1.006567e+003,3.589787e+001
1.007531e+003,3.586070e+001
1.008495e+003,3.618071e+001
1.009460e+003,3.655238e+001
1.010424e+003,3.716484e+001
1.011388e+003,3.779810e+001
1.012352e+003,3.722025e+001
1.013317e+003,3.425461e+001
1.014281e+003,3.201208e+001
1.015245e+003,3.208716e+001
1.016209e+003,3.239972e+001
1.017174e+003,3.148267e+001
1.018138e+003,2.929622e+001
1.019102e+003,2.657774e+001
1.020066e+003,2.381316e+001
1.021031e+003,2.152817e+001
1.021995e+003,2.165886e+001
1.022959e+003,2.349844e+001
1.023923e+003,2.404755e+001
1.024887e+003,2.202196e+001
1.025852e+003,1.874202e+001
1.026816e+003,1.626923e+001
1.027780e+003,1.480888e+001
1.028744e+003,1.373317e+001
1.029709e+003,1.270506e+001
1.030673e+003,1.232558e+001
1.031637e+003,1.356180e+001
1.032601e+003,1.515512e+001
1.033566e+003,1.525246e+001
1.034530e+003,1.328485e+001
1.035494e+003,1.089366e+001
1.036458e+003,9.615082e+000
1.037422e+003,9.172134e+000
1.038387e+003,9.616684e+000
1.039351e+003,1.066226e+001
1.040315e+003,1.053679e+001
1.041279e+003,7.645950e+000
1.042244e+003,3.020081e+000
1.043208e+003,1.640961e+000
1.044172e+003,5.950699e+000
1.045136e+003,9.263779e+000
1.046101e+003,1.210838e+001
1.047065e+003,1.349649e+001
1.048029e+003,1.142609e+001
1.048993e+003,7.089554e+000
1.049958e+003,4.964905e+000
1.050922e+003,7.908813e+000
1.051886e+003,1.189133e+001
1.052850e+003,1.300592e+001
1.053814e+003,1.243753e+001
1.054779e+003,1.127089e+001
1.055743e+003,9.898987e+000
1.056707e+003,8.626434e+000
1.057671e+003,7.805038e+000
1.058636e+003,7.409729e+000
1.059600e+003,7.689438e+000
1.060564e+003,1.008542e+001
1.061528e+003,1.138432e+001
1.062493e+003,9.905823e+000
1.063457e+003,7.688248e+000
1.064421e+003,7.199326e+000
1.065385e+003,8.745163e+000
1.066349e+003,1.042169e+001
1.067314e+003,1.192271e+001
1.068278e+003,1.241017e+001
1.069242e+003,1.042650e+001
1.070206e+003,7.499344e+000
1.071171e+003,6.031387e+000
1.072135e+003,6.912827e+000
1.073099e+003,8.930984e+000
1.074063e+003,1.017413e+001
1.075028e+003,1.062193e+001
1.075992e+003,1.102003e+001
1.076956e+003,1.150706e+001
1.077920e+003,1.153835e+001
1.078885e+003,1.062187e+001
1.079849e+003,9.405365e+000
1.080813e+003,9.025467e+000
1.081777e+003,9.747116e+000
1.082741e+003,1.077924e+001
1.083706e+003,1.233049e+001
1.084670e+003,1.326770e+001
1.085634e+003,1.264000e+001
1.086598e+003,1.093318e+001
1.087563e+003,9.011398e+000
1.088527e+003,7.480942e+000
1.089491e+003,6.590897e+000
1.090455e+003,6.763138e+000
1.091420e+003,8.041794e+000
1.092384e+003,8.402878e+000
1.093348e+003,7.298599e+000
1.094312e+003,6.105682e+000
1.095276e+003,5.686630e+000
1.096241e+003,5.944687e+000
1.097205e+003,6.368408e+000
1.098169e+003,6.804352e+000
1.099133e+003,7.394562e+000
1.100098e+003,9.176727e+000
1.101062e+003,1.035846e+001
1.102026e+003,8.948792e+000
1.102990e+003,6.057632e+000
1.103955e+003,4.519058e+000
1.104919e+003,5.990387e+000
1.105883e+003,8.721222e+000
1.106847e+003,8.798996e+000
1.107812e+003,6.179092e+000
1.108776e+003,5.463562e+000
1.109740e+003,7.712509e+000
1.110704e+003,1.007243e+001
1.111668e+003,1.018436e+001
1.112633e+003,8.786835e+000
1.113597e+003,8.943268e+000
1.114561e+003,1.173914e+001
1.115525e+003,1.392273e+001
1.116490e+003,1.461975e+001
1.117454e+003,1.435020e+001
1.118418e+003,1.259009e+001
1.119382e+003,1.036281e+001
1.120347e+003,9.823975e+000
1.121311e+003,1.217845e+001
1.122275e+003,1.560884e+001
1.123239e+003,1.677730e+001
1.124203e+003,1.595581e+001
1.125168e+003,1.503262e+001
1.126132e+003,1.397635e+001
1.127096e+003,1.334666e+001
1.128060e+003,1.334509e+001
1.129025e+003,1.399178e+001
1.129989e+003,1.586124e+001
1.130953e+003,1.997655e+001
1.131917e+003,2.288167e+001
1.132882e+003,2.310985e+001
1.133846e+003,2.270226e+001
1.134810e+003,2.251945e+001
1.135774e+003,2.282486e+001
1.136739e+003,2.384662e+001
1.137703e+003,2.567705e+001
1.138667e+003,2.762479e+001
1.139631e+003,2.813080e+001
1.140595e+003,2.756833e+001
1.141560e+003,2.928279e+001
1.142524e+003,3.398836e+001
1.143488e+003,3.934532e+001
1.144452e+003,4.359062e+001
1.145417e+003,4.717241e+001
1.146381e+003,5.165257e+001
1.147345e+003,5.694751e+001
1.148309e+003,6.347031e+001
1.149274e+003,7.241113e+001
1.150238e+003,8.151306e+001
1.151202e+003,8.935843e+001
1.152166e+003,9.672021e+001
1.153130e+003,1.056244e+002
1.154095e+003,1.166780e+002
1.155059e+003,1.272081e+002
1.156023e+003,1.337831e+002
1.156987e+003,1.362910e+002
1.157952e+003,1.359417e+002
1.158916e+003,1.326281e+002
1.159880e+003,1.287974e+002
1.160844e+003,1.263030e+002
1.161809e+003,1.234842e+002
1.162773e+003,1.166563e+002
1.163737e+003,1.049625e+002
1.164701e+003,9.313034e+001
1.165666e+003,8.126472e+001
1.166630e+003,7.086388e+001
1.167594e+003,6.279076e+001
1.168558e+003,5.635838e+001
1.169522e+003,5.061143e+001
1.170487e+003,4.527631e+001
1.171451e+003,4.099887e+001
1.172415e+003,3.848846e+001
1.173379e+003,3.758887e+001
1.174344e+003,3.781216e+001
1.175308e+003,3.926370e+001
1.176272e+003,4.041116e+001
1.177236e+003,4.110326e+001
1.178201e+003,4.108653e+001
1.179165e+003,3.952565e+001
1.180129e+003,3.629283e+001
1.181093e+003,3.393401e+001
1.182057e+003,3.367184e+001
1.183022e+003,3.346286e+001
1.183986e+003,3.199710e+001
1.184950e+003,3.060263e+001
1.185914e+003,3.108459e+001
1.186879e+003,3.317105e+001
1.187843e+003,3.459039e+001
1.188807e+003,3.340425e+001
1.189771e+003,3.089452e+001
1.190736e+003,3.145799e+001
1.191700e+003,3.556664e+001
1.192664e+003,3.754227e+001
1.193628e+003,3.589462e+001
1.194593e+003,3.351657e+001
1.195557e+003,3.250546e+001
1.196521e+003,3.238504e+001
1.197485e+003,3.141478e+001
1.198449e+003,2.901591e+001
1.199414e+003,2.688324e+001
1.200378e+003,2.566696e+001
1.201342e+003,2.508508e+001
1.202306e+003,2.511797e+001
1.203271e+003,2.557256e+001
1.204235e+003,2.659140e+001
1.205199e+003,2.807906e+001
1.206163e+003,2.874879e+001
1.207128e+003,2.609625e+001
1.208092e+003,1.984433e+001
1.209056e+003,1.780786e+001
1.210020e+003,2.253703e+001
1.210984e+003,2.565709e+001
1.211949e+003,2.365649e+001
1.212913e+003,1.942432e+001
1.213877e+003,1.697993e+001
1.214841e+003,1.655252e+001
1.215806e+003,1.470773e+001
1.216770e+003,8.670914e+000
1.217734e+003,3.158325e+000
1.218698e+003,1.831970e+000
1.219663e+003,2.417191e+000
1.220627e+003,2.285706e+000
1.221591e+003,9.079285e-001
1.222555e+003,-7.830658e-001
1.223520e+003,-1.904297e+000
1.224484e+003,-2.576416e+000
1.225448e+003,-3.641373e+000
1.226412e+003,-5.737869e+000
1.227376e+003,-6.744644e+000
1.228341e+003,-5.661179e+000
1.229305e+003,-4.731842e+000
1.230269e+003,-5.269989e+000
1.231233e+003,-6.809219e+000
1.232198e+003,-8.517136e+000
1.233162e+003,-1.018793e+001
1.234126e+003,-1.099095e+001
1.235090e+003,-9.906357e+000
1.236055e+003,-8.164124e+000
1.237019e+003,-6.839249e+000
1.237983e+003,-6.023987e+000
1.238947e+003,-5.854523e+000
1.239911e+003,-6.318451e+000
1.240876e+003,-6.864136e+000
1.241840e+003,-6.684647e+000
1.242804e+003,-5.715271e+000
1.243768e+003,-5.100342e+000
1.244733e+003,-5.014374e+000
1.245697e+003,-5.087692e+000
1.246661e+003,-5.841080e+000
1.247625e+003,-6.469894e+000
1.248590e+003,-6.069702e+000
1.249554e+003,-4.872589e+000
1.250518e+003,-3.918060e+000
1.251482e+003,-3.746750e+000
1.252447e+003,-3.855164e+000
1.253411e+003,-3.416214e+000
1.254375e+003,-2.775223e+000
1.255339e+003,-2.988083e+000
1.256303e+003,-3.985397e+000
1.257268e+003,-4.489258e+000
1.258232e+003,-3.868927e+000
1.259196e+003,-2.475922e+000
1.260160e+003,-4.601288e-001
1.261125e+003,2.632019e+000
1.262089e+003,4.068939e+000
1.263053e+003,1.688904e+000
1.264017e+003,-3.062286e-001
1.264982e+003,-9.904785e-001
1.265946e+003,-7.389679e-001
1.266910e+003,5.569611e-001
1.267874e+003,2.406311e+000
1.268839e+003,3.555695e+000
1.269803e+003,3.162262e+000
1.270767e+003,2.104965e+000
1.271731e+003,2.150360e+000
1.272695e+003,3.314362e+000
1.273660e+003,4.062012e+000
1.274624e+003,4.263184e+000
1.275588e+003,3.801575e+000
1.276552e+003,2.626877e+000
1.277517e+003,9.394226e-001
1.278481e+003,-1.367905e+000
1.279445e+003,-4.458969e+000
1.280409e+003,-6.474884e+000
1.281374e+003,-6.840790e+000
1.282338e+003,-5.773056e+000
1.283302e+003,-1.551117e+000
1.284266e+003,2.748993e+000
1.285230e+003,2.972672e+000
1.286195e+003,-7.918701e-001
1.287159e+003,-4.907745e+000
1.288123e+003,-6.342361e+000
1.289087e+003,-5.530472e+000
1.290052e+003,-3.899017e+000
1.291016e+003,-8.540497e-001
1.291980e+003,3.993530e-001
1.292944e+003,-1.332626e+000
1.293909e+003,-3.320755e+000
1.294873e+003,-4.738754e+000
1.295837e+003,-5.521667e+000
1.296801e+003,-5.317871e+000
1.297766e+003,-4.224152e+000
1.298730e+003,-3.704956e+000
1.299694e+003,-4.838242e+000
1.300658e+003,-6.430267e+000
1.301622e+003,-7.353348e+000
1.302587e+003,-7.659348e+000
1.303551e+003,-7.032822e+000
1.304515e+003,-5.554306e+000
1.305479e+003,-4.761917e+000
1.306444e+003,-6.240829e+000
1.307408e+003,-8.992859e+000
1.308372e+003,-9.187973e+000
1.309336e+003,-5.540756e+000
1.310301e+003,-3.341171e+000
1.311265e+003,-3.385834e+000
1.312229e+003,-4.086090e+000
1.313193e+003,-6.108627e+000
1.314157e+003,-7.882431e+000
1.315122e+003,-7.022614e+000
1.316086e+003,-4.067230e+000
1.317050e+003,-2.490845e+000
1.318014e+003,-4.633041e+000
1.318979e+003,-8.319656e+000
1.319943e+003,-9.884155e+000
1.320907e+003,-9.399658e+000
1.321871e+003,-8.526443e+000
1.322836e+003,-7.434555e+000
1.323800e+003,-6.062912e+000
1.324764e+003,-3.548096e+000
1.325728e+003,-1.110504e+000
1.326693e+003,-1.288513e+000
1.327657e+003,-4.253342e+000
1.328621e+003,-6.900482e+000
1.329585e+003,-8.893738e+000
1.330549e+003,-8.956360e+000
1.331514e+003,-5.270599e+000
1.332478e+003,-1.031158e+000
1.333442e+003,9.267883e-001
1.334406e+003,5.530548e-001
1.335371e+003,-1.110703e+000
1.336335e+003,-3.347458e+000
1.337299e+003,-5.460220e+000
1.338263e+003,-6.135101e+000
1.339228e+003,-5.225616e+000
1.340192e+003,-4.183044e+000
1.341156e+003,-2.691025e+000
1.342120e+003,-1.540207e+000
1.343084e+003,-5.722656e-001
1.344049e+003,-4.199829e-001
1.345013e+003,-2.475021e+000
1.345977e+003,-5.612488e+000
1.346941e+003,-6.505646e+000
1.347906e+003,-3.871933e+000
1.348870e+003,-4.418335e-001
1.349834e+003,1.751709e+000
1.350798e+003,2.574463e+000
1.351763e+003,1.878113e+000
1.352727e+003,-7.356262e-002
1.353691e+003,-2.026627e+000
1.354655e+003,-3.646118e+000
1.355620e+003,-4.681183e+000
1.356584e+003,-4.557907e+000
1.357548e+003,-3.407196e+000
1.358512e+003,-2.660141e+000
1.359476e+003,-2.308426e+000
1.360441e+003,-2.893341e+000
1.361405e+003,-6.579361e+000
1.362369e+003,-8.922836e+000
1.363333e+003,-6.154541e+000
1.364298e+003,-1.405823e+000
1.365262e+003,6.057739e-001
1.366226e+003,-9.927673e-001
1.367190e+003,-3.306046e+000
1.368155e+003,-3.765427e+000
1.369119e+003,-2.830795e+000
1.370083e+003,-1.851822e+000
1.371047e+003,-6.218109e-001
1.372011e+003,-1.118011e-001
1.372976e+003,-9.123077e-001
1.373940e+003,-1.848434e+000
1.374904e+003,-2.716995e+000
1.375868e+003,-3.248306e+000
1.376833e+003,-2.893356e+000
1.377797e+003,-1.813507e+000
1.378761e+003,-1.264786e+000
1.379725e+003,-2.004593e+000
1.380690e+003,-2.572403e+000
1.381654e+003,-5.149078e-001
1.382618e+003,2.219177e+000
1.383582e+003,2.545898e+000
1.384547e+003,6.112823e-001
1.385511e+003,-1.145630e+000
1.386475e+003,-1.570328e+000
1.387439e+003,-1.204742e+000
1.388403e+003,-5.431366e-001
1.389368e+003,3.988190e-001
1.390332e+003,2.210693e-001
1.391296e+003,-2.229446e+000
1.392260e+003,-3.351593e+000
1.393225e+003,-1.109131e+000
1.394189e+003,1.154907e+000
1.395153e+003,1.838928e+000
1.396117e+003,1.161819e+000
1.397082e+003,-9.043121e-001
1.398046e+003,-3.796860e+000
1.399010e+003,-5.528549e+000
1.399974e+003,-4.271927e+000
1.400938e+003,-1.250458e+000
1.401903e+003,-1.638794e-002
1.402867e+003,-8.598175e-001
1.403831e+003,-1.043884e+000
1.404795e+003,-2.361298e-001
1.405760e+003,4.746399e-001
1.406724e+003,3.821564e-001
1.407688e+003,-1.294403e-001
1.408652e+003,-5.206604e-001
1.409617e+003,-5.860901e-001
1.410581e+003,-7.417297e-002
1.411545e+003,1.268936e+000
1.412509e+003,2.326614e+000
1.413474e+003,1.324631e+000
1.414438e+003,-3.892670e-001
1.415402e+003,-3.831482e-002
1.416366e+003,2.138992e+000
1.417330e+003,3.859467e+000
1.418295e+003,4.282684e+000
1.419259e+003,3.809753e+000
1.420223e+003,2.446487e+000
1.421187e+003,3.637848e-001
1.422152e+003,-8.893433e-001
1.423116e+003,-1.000778e+000
1.424080e+003,-8.052521e-001
1.425044e+003,-5.352783e-001
1.426009e+003,-1.866913e-001
1.426973e+003,9.902954e-002
1.427937e+003,5.433655e-001
1.428901e+003,1.780930e+000
1.429865e+003,3.584991e+000
1.430830e+003,4.729156e+000
1.431794e+003,4.373703e+000
1.432758e+003,3.235367e+000
1.433722e+003,2.886475e+000
1.434687e+003,3.567841e+000
1.435651e+003,3.981766e+000
1.436615e+003,3.474396e+000
1.437579e+003,2.934555e+000
1.438544e+003,2.110840e+000
1.439508e+003,1.709885e+000
1.440472e+003,2.621918e+000
1.441436e+003,4.288147e+000
1.442401e+003,5.729736e+000
1.443365e+003,6.591309e+000
1.444329e+003,6.496048e+000
1.445293e+003,4.935547e+000
1.446257e+003,3.036041e+000
1.447222e+003,3.012512e+000
1.448186e+003,4.539200e+000
1.449150e+003,6.036026e+000
1.450114e+003,7.366699e+000
1.451079e+003,8.531662e+000
1.452043e+003,1.014508e+001
1.453007e+003,1.131224e+001
1.453971e+003,1.021928e+001
1.454936e+003,7.173035e+000
1.455900e+003,4.803604e+000
1.456864e+003,3.582291e+000
1.457828e+003,3.559433e+000
1.458792e+003,6.118973e+000
1.459757e+003,8.536240e+000
1.460721e+003,8.227646e+000
1.461685e+003,6.160797e+000
1.462649e+003,4.330978e+000
1.463614e+003,3.371643e+000
1.464578e+003,3.029999e+000
1.465542e+003,3.134705e+000
1.466506e+003,3.450500e+000
1.467471e+003,3.411407e+000
1.468435e+003,3.089905e+000
1.469399e+003,2.662903e+000
1.470363e+003,1.264084e+000
1.471328e+003,7.953491e-001
1.472292e+003,1.908646e+000
1.473256e+003,3.609924e+000
1.474220e+003,6.267899e+000
1.475184e+003,8.841965e+000
1.476149e+003,9.005020e+000
1.477113e+003,6.369553e+000
1.478077e+003,3.600922e+000
1.479041e+003,3.363525e+000
1.480006e+003,5.237274e+000
1.480970e+003,7.798355e+000
1.481934e+003,1.172314e+001
1.482898e+003,1.268678e+001
1.483863e+003,7.453400e+000
1.484827e+003,4.094360e+000
1.485791e+003,6.256699e+000
1.486755e+003,1.002644e+001
1.487719e+003,1.203496e+001
1.488684e+003,1.237251e+001
1.489648e+003,1.223735e+001
1.490612e+003,1.211649e+001
1.491576e+003,1.251227e+001
1.492541e+003,1.390196e+001
1.493505e+003,1.580692e+001
1.494469e+003,1.711407e+001
1.495433e+003,1.785594e+001
1.496398e+003,1.913004e+001
1.497362e+003,2.150810e+001
1.498326e+003,2.360025e+001
1.499290e+003,2.391699e+001
1.500255e+003,2.404489e+001
1.501219e+003,2.650758e+001
1.502183e+003,3.083714e+001
1.503147e+003,3.393018e+001
1.504111e+003,3.469405e+001
1.505076e+003,3.639134e+001
1.506040e+003,4.161012e+001
1.507004e+003,4.795992e+001
1.507968e+003,5.256799e+001
1.508933e+003,5.654675e+001
1.509897e+003,6.232143e+001
1.510861e+003,7.048808e+001
1.511825e+003,7.975673e+001
1.512790e+003,8.939264e+001
1.513754e+003,9.892813e+001
1.514718e+003,1.071655e+002
1.515682e+003,1.140025e+002
1.516646e+003,1.230334e+002
1.517611e+003,1.358770e+002
1.518575e+003,1.479928e+002
1.519539e+003,1.589570e+002
1.520503e+003,1.680413e+002
1.521468e+003,1.742650e+002
1.522432e+003,1.785518e+002
1.523396e+003,1.827116e+002
1.524360e+003,1.864726e+002
1.525325e+003,1.875849e+002
1.526289e+003,1.845801e+002
1.527253e+003,1.784834e+002
1.528217e+003,1.707672e+002
1.529182e+003,1.615081e+002
1.530146e+003,1.535012e+002
1.531110e+003,1.486351e+002
1.532074e+003,1.411597e+002
1.533039e+003,1.295198e+002
1.534003e+003,1.162829e+002
1.534967e+003,1.016339e+002
1.535931e+003,8.716721e+001
1.536896e+003,7.438702e+001
1.537860e+003,6.341327e+001
1.538824e+003,5.311020e+001
1.539788e+003,4.295888e+001
1.540752e+003,3.470496e+001
1.541717e+003,3.085515e+001
1.542681e+003,3.073981e+001
1.543645e+003,2.953131e+001
1.544609e+003,2.685533e+001
1.545573e+003,2.430072e+001
1.546538e+003,2.133853e+001
1.547502e+003,1.884920e+001
1.548466e+003,1.730855e+001
1.549430e+003,1.654680e+001
1.550395e+003,1.641490e+001
1.551359e+003,1.672963e+001
1.552323e+003,1.744910e+001
1.553287e+003,1.850461e+001
1.554252e+003,1.919258e+001
1.555216e+003,1.891719e+001
1.556180e+003,1.773778e+001
1.557144e+003,1.553291e+001
1.558109e+003,1.231448e+001
1.559073e+003,9.964340e+000
1.560037e+003,8.516708e+000
1.561001e+003,7.604752e+000
1.561966e+003,7.621307e+000
1.562930e+003,7.933884e+000
1.563894e+003,7.654587e+000
1.564858e+003,7.133545e+000
1.565823e+003,7.430206e+000
1.566787e+003,8.701080e+000
1.567751e+003,1.021675e+001
1.568715e+003,1.174655e+001
1.569679e+003,1.296500e+001
1.570644e+003,1.330969e+001
1.571608e+003,1.291055e+001
1.572572e+003,1.207019e+001
1.573536e+003,1.082918e+001
1.574500e+003,1.108992e+001
1.575465e+003,1.462216e+001
1.576429e+003,1.793059e+001
1.577393e+003,1.766541e+001
1.578357e+003,1.534760e+001
1.579322e+003,1.404973e+001
1.580286e+003,1.394740e+001
1.581250e+003,1.355109e+001
1.582214e+003,1.229427e+001
1.583179e+003,1.102246e+001
1.584143e+003,9.935623e+000
1.585107e+003,9.472549e+000
1.586071e+003,1.064146e+001
1.587036e+003,1.303200e+001
1.588000e+003,1.511986e+001
1.588964e+003,1.654022e+001
1.589928e+003,1.709303e+001
1.590893e+003,1.614944e+001
1.591857e+003,1.477850e+001
1.592821e+003,1.491035e+001
1.593785e+003,1.618932e+001
1.594750e+003,1.622110e+001
1.595714e+003,1.442484e+001
1.596678e+003,1.288242e+001
1.597642e+003,1.204501e+001
1.598606e+003,1.233759e+001
1.599571e+003,1.511948e+001
1.600535e+003,1.860283e+001
1.601499e+003,2.058112e+001
1.602463e+003,2.091029e+001
1.603427e+003,2.003140e+001
1.604392e+003,1.798788e+001
1.605356e+003,1.594977e+001
1.606320e+003,1.516925e+001
1.607284e+003,1.529147e+001
1.608249e+003,1.511664e+001
1.609213e+003,1.460741e+001
1.610177e+003,1.526674e+001
1.611141e+003,1.801064e+001
1.612106e+003,2.027069e+001
1.613070e+003,2.050786e+001
1.614034e+003,2.002727e+001
1.614998e+003,1.981139e+001
1.615963e+003,1.951117e+001
1.616927e+003,1.793625e+001
1.617891e+003,1.523883e+001
1.618855e+003,1.374384e+001
1.619820e+003,1.491847e+001
1.620784e+003,1.712178e+001
1.621748e+003,1.861662e+001
1.622712e+003,1.946085e+001
1.623677e+003,1.860159e+001
1.624641e+003,1.553004e+001
1.625605e+003,1.388670e+001
1.626569e+003,1.502809e+001
1.627533e+003,1.619101e+001
1.628498e+003,1.567029e+001
1.629462e+003,1.515300e+001
1.630426e+003,1.668002e+001
1.631390e+003,1.915071e+001
1.632354e+003,1.978885e+001
1.633319e+003,1.808740e+001
1.634283e+003,1.640938e+001
1.635247e+003,1.659291e+001
1.636211e+003,1.744254e+001
1.637176e+003,1.630441e+001
1.638140e+003,1.349940e+001
1.639104e+003,1.375897e+001
1.640068e+003,1.841876e+001
1.641033e+003,2.124553e+001
1.641997e+003,1.947014e+001
1.642961e+003,1.742609e+001
1.643925e+003,1.750854e+001
1.644890e+003,1.817258e+001
1.645854e+003,1.762912e+001
1.646818e+003,1.633646e+001
1.647782e+003,1.582689e+001
1.648747e+003,1.656856e+001
1.649711e+003,1.806224e+001
1.650675e+003,2.022147e+001
1.651639e+003,2.237215e+001
1.652604e+003,2.285985e+001
1.653568e+003,2.168102e+001
1.654532e+003,2.016379e+001
1.655496e+003,1.807816e+001
1.656460e+003,1.676297e+001
1.657425e+003,1.734372e+001
1.658389e+003,1.787442e+001
1.659353e+003,1.723637e+001
1.660317e+003,1.605434e+001
1.661281e+003,1.482367e+001
1.662246e+003,1.364220e+001
1.663210e+003,1.252623e+001
1.664174e+003,1.153362e+001
1.665138e+003,1.106583e+001
1.666103e+003,1.155905e+001
1.667067e+003,1.248541e+001
1.668031e+003,1.272276e+001
1.668995e+003,1.237410e+001
1.669960e+003,1.291722e+001
1.670924e+003,1.502519e+001
1.671888e+003,1.561179e+001
1.672852e+003,1.240648e+001
1.673817e+003,9.243622e+000
1.674781e+003,8.527679e+000
1.675745e+003,9.102585e+000
1.676709e+003,1.013081e+001
1.677674e+003,1.128493e+001
1.678638e+003,1.202132e+001
1.679602e+003,1.216869e+001
1.680566e+003,1.195953e+001
1.681531e+003,1.157497e+001
1.682495e+003,1.107147e+001
1.683459e+003,1.030255e+001
1.684423e+003,9.305832e+000
1.685387e+003,8.800690e+000
1.686352e+003,8.974564e+000
1.687316e+003,8.843231e+000
1.688280e+003,7.713181e+000
1.689244e+003,6.915314e+000
1.690208e+003,7.959412e+000
1.691173e+003,9.449570e+000
1.692137e+003,1.008052e+001
1.693101e+003,9.932617e+000
1.694065e+003,9.129333e+000
1.695030e+003,7.584351e+000
1.695994e+003,5.949890e+000
1.696958e+003,4.407074e+000
1.697922e+003,3.367508e+000
1.698887e+003,3.482803e+000
1.699851e+003,4.513092e+000
1.700815e+003,6.109879e+000
1.701779e+003,8.121078e+000
1.702744e+003,7.962387e+000
1.703708e+003,4.191269e+000
1.704672e+003,1.165054e+000
1.705636e+003,2.585190e+000
1.706601e+003,5.675308e+000
1.707565e+003,6.528275e+000
1.708529e+003,5.773880e+000
1.709493e+003,5.083344e+000
1.710458e+003,4.651337e+000
1.711422e+003,4.079468e+000
1.712386e+003,2.969101e+000
1.713350e+003,2.098572e+000
1.714314e+003,2.267487e+000
1.715279e+003,2.797714e+000
1.716243e+003,2.376953e+000
1.717207e+003,1.255127e+000
1.718171e+003,1.155548e+000
1.719135e+003,2.571396e+000
1.720100e+003,3.915085e+000
1.721064e+003,4.026047e+000
1.722028e+003,3.729568e+000
1.722992e+003,4.546265e+000
1.723957e+003,6.159363e+000
1.724921e+003,6.023483e+000
1.725885e+003,3.653168e+000
1.726849e+003,1.722946e+000
1.727814e+003,8.075867e-001
1.728778e+003,5.340118e-001
1.729742e+003,1.164780e+000
1.730706e+003,1.915466e+000
1.731671e+003,1.946548e+000
1.732635e+003,1.344421e+000
1.733599e+003,6.112213e-001
1.734563e+003,-6.137085e-002
1.735528e+003,-9.668732e-001
1.736492e+003,-2.301651e+000
1.737456e+003,-3.149597e+000
1.738420e+003,-2.350067e+000
1.739385e+003,-4.114380e-001
1.740349e+003,1.115692e+000
1.741313e+003,2.342911e+000
1.742277e+003,2.926682e+000
1.743241e+003,2.641541e+000
1.744206e+003,2.279129e+000
1.745170e+003,2.105743e+000
1.746134e+003,1.575394e+000
1.747098e+003,-1.248016e-001
1.748063e+003,-1.980621e+000
1.749027e+003,-2.963974e+000
1.749991e+003,-2.967987e+000
1.750955e+003,-1.837952e+000
1.751919e+003,1.183167e-001
1.752884e+003,1.095184e+000
1.753848e+003,-4.423370e-001
1.754812e+003,-2.924927e+000
1.755776e+003,-3.013779e+000
1.756741e+003,-7.227478e-001
1.757705e+003,7.732391e-001
1.758669e+003,1.174423e+000
1.759633e+003,1.426270e+000
1.760598e+003,1.653687e+000
1.761562e+003,1.520340e+000
1.762526e+003,6.535339e-001
1.763490e+003,-1.386108e-001
1.764455e+003,-7.716370e-002
1.765419e+003,3.535461e-001
1.766383e+003,2.888489e-001
1.767347e+003,-3.740845e-001
1.768312e+003,-1.144180e+000
1.769276e+003,-1.818176e+000
1.770240e+003,-2.612122e+000
1.771204e+003,-3.833267e+000
1.772168e+003,-4.979782e+000
1.773133e+003,-4.821182e+000
1.774097e+003,-3.550079e+000
1.775061e+003,-3.262756e+000
1.776025e+003,-4.451309e+000
1.776990e+003,-5.105911e+000
1.777954e+003,-4.260223e+000
1.778918e+003,-3.098541e+000
1.779882e+003,-2.607758e+000
1.780846e+003,-2.332916e+000
1.781811e+003,-1.090103e+000
1.782775e+003,5.613403e-001
1.783739e+003,4.065247e-001
1.784703e+003,-2.012177e+000
1.785668e+003,-4.110382e+000
1.786632e+003,-5.438690e+000
1.787596e+003,-5.532944e+000
1.788560e+003,-2.642853e+000
1.789525e+003,9.286041e-001
1.790489e+003,1.433929e+000
1.791453e+003,-3.958740e-001
1.792417e+003,-1.563385e+000
1.793382e+003,-1.406662e+000
1.794346e+003,-7.831879e-001
1.795310e+003,-1.252136e-001
1.796274e+003,4.298401e-001
1.797239e+003,8.340912e-001
1.798203e+003,1.071793e+000
1.799167e+003,6.383057e-001
1.800131e+003,-8.724823e-001
1.801095e+003,-1.653870e+000
1.802060e+003,-4.073486e-001
1.803024e+003,-2.064972e-001
1.803988e+003,-3.084732e+000
1.804952e+003,-5.054504e+000
1.805917e+003,-2.933304e+000
1.806881e+003,-1.029205e-001
1.807845e+003,-6.469574e-001
1.808809e+003,-3.003845e+000
1.809773e+003,-2.914703e+000
1.810738e+003,1.047974e-001
1.811702e+003,2.536819e+000
1.812666e+003,2.182251e+000
1.813630e+003,6.091461e-001
1.814595e+003,-7.400513e-002
1.815559e+003,-2.331696e-001
1.816523e+003,-1.519257e+000
1.817487e+003,-4.132904e+000
1.818452e+003,-5.226578e+000
1.819416e+003,-4.222168e+000
1.820380e+003,-2.685532e+000
1.821344e+003,-4.184113e-001
1.822309e+003,1.214310e+000
1.823273e+003,1.020355e+000
1.824237e+003,2.856750e-001
1.825201e+003,4.386292e-001
1.826166e+003,1.029175e+000
1.827130e+003,4.558563e-001
1.828094e+003,-1.524780e+000
1.829058e+003,-2.554626e+000
1.830022e+003,-1.003357e+000
1.830987e+003,8.754578e-001
1.831951e+003,1.370590e+000
1.832915e+003,9.552155e-001
1.833879e+003,-1.637268e-002
1.834844e+003,-1.256821e+000
1.835808e+003,-2.028259e+000
1.836772e+003,-2.227173e+000
1.837736e+003,-2.267578e+000
1.838700e+003,-2.366699e+000
1.839665e+003,-2.460785e+000
1.840629e+003,-2.463730e+000
1.841593e+003,-2.327225e+000
1.842557e+003,-1.984833e+000
1.843522e+003,-1.446426e+000
1.844486e+003,-1.096863e+000
1.845450e+003,-9.046783e-001
1.846414e+003,-7.429199e-001
1.847379e+003,-7.589722e-001
1.848343e+003,-9.057312e-001
1.849307e+003,-9.221649e-001
1.850271e+003,-1.216476e+000
1.851236e+003,-2.665588e+000
1.852200e+003,-4.124695e+000
1.853164e+003,-3.805237e+000
1.854128e+003,-2.145508e+000
1.855093e+003,-1.038818e+000
1.856057e+003,-1.098022e+000
1.857021e+003,-1.337006e+000
1.857985e+003,-9.775391e-001
1.858949e+003,-4.147949e-001
1.859914e+003,-3.940277e-001
1.860878e+003,-7.404327e-001
1.861842e+003,-5.800781e-001
1.862806e+003,6.903076e-002
1.863771e+003,8.933868e-001
1.864735e+003,1.937180e+000
1.865699e+003,2.527054e+000
1.866663e+003,2.319794e+000
1.867627e+003,1.820053e+000
1.868592e+003,1.072159e+000
1.869556e+003,4.095306e-001
1.870520e+003,9.492645e-001
1.871484e+003,2.398956e+000
1.872449e+003,2.688110e+000
1.873413e+003,1.389481e+000
1.874377e+003,8.629913e-001
1.875341e+003,2.216156e+000
1.876306e+003,3.481232e+000
1.877270e+003,3.574768e+000
1.878234e+003,3.059143e+000
1.879198e+003,2.280502e+000
1.880163e+003,1.521576e+000
1.881127e+003,1.116333e+000
1.882091e+003,1.139023e+000
1.883055e+003,1.721008e+000
1.884020e+003,2.792831e+000
1.884984e+003,3.484283e+000
1.885948e+003,2.998901e+000
1.886912e+003,1.795288e+000
1.887876e+003,7.196503e-001
1.888841e+003,-1.936798e-001
1.889805e+003,-7.287750e-001
1.890769e+003,-1.090225e+000
1.891733e+003,3.547058e-001
1.892698e+003,5.263321e+000
1.893662e+003,8.064804e+000
1.894626e+003,5.470123e+000
1.895590e+003,2.121124e+000
1.896554e+003,1.150970e+000
1.897519e+003,1.325638e+000
1.898483e+003,1.340759e+000
1.899447e+003,1.074783e+000
1.900411e+003,5.941010e-001
1.901376e+003,-7.015991e-002
1.902340e+003,-7.276764e-001
1.903304e+003,-1.557556e+000
1.904268e+003,-2.008926e+000
1.905233e+003,-1.541992e+000
1.906197e+003,-6.637115e-001
1.907161e+003,1.463318e-001
1.908125e+003,9.963226e-001
1.909090e+003,2.063889e+000
1.910054e+003,3.310760e+000
1.911018e+003,5.052811e+000
1.911982e+003,7.173889e+000
1.912947e+003,7.779236e+000
1.913911e+003,5.450867e+000
1.914875e+003,1.978683e+000
1.915839e+003,3.190613e-002
1.916803e+003,-5.453491e-001
1.917768e+003,3.755188e-002
1.918732e+003,2.154266e+000
1.919696e+003,3.318649e+000
1.920660e+003,3.098862e+000
1.921625e+003,3.256226e+000
1.922589e+003,4.610718e+000
1.923553e+003,5.554565e+000
1.924517e+003,4.658585e+000
1.925481e+003,3.526901e+000
1.926446e+003,3.932571e+000
1.927410e+003,4.994324e+000
1.928374e+003,4.569885e+000
1.929338e+003,2.658035e+000
1.930303e+003,1.909454e+000
1.931267e+003,3.536819e+000
1.932231e+003,5.016312e+000
1.933195e+003,4.963989e+000
1.934160e+003,4.484879e+000
1.935124e+003,4.240845e+000
1.936088e+003,4.088852e+000
1.937052e+003,3.993622e+000
1.938017e+003,3.908127e+000
1.938981e+003,3.658951e+000
1.939945e+003,3.231522e+000
1.940909e+003,2.605301e+000
1.941874e+003,1.839798e+000
1.942838e+003,1.748093e+000
1.943802e+003,3.233154e+000
1.944766e+003,5.334106e+000
1.945730e+003,5.871857e+000
1.946695e+003,5.002563e+000
1.947659e+003,4.402893e+000
1.948623e+003,4.009552e+000
1.949587e+003,4.471634e+000
1.950552e+003,6.206299e+000
1.951516e+003,7.606094e+000
1.952480e+003,8.268005e+000
1.953444e+003,8.130554e+000
1.954408e+003,6.286423e+000
1.955373e+003,4.360168e+000
1.956337e+003,5.321426e+000
1.957301e+003,8.276123e+000
1.958265e+003,9.768539e+000
1.959230e+003,9.634949e+000
1.960194e+003,8.863907e+000
1.961158e+003,6.548996e+000
1.962122e+003,4.894791e+000
1.963087e+003,5.198486e+000
1.964051e+003,5.472000e+000
1.965015e+003,4.098526e+000
1.965979e+003,2.728973e+000
1.966944e+003,3.457047e+000
1.967908e+003,5.161591e+000
1.968872e+003,5.255173e+000
1.969836e+003,3.899231e+000
1.970801e+003,3.847046e+000
1.971765e+003,6.177994e+000
1.972729e+003,8.509277e+000
1.973693e+003,8.703247e+000
1.974657e+003,8.154251e+000
1.975622e+003,9.127594e+000
1.976586e+003,1.088023e+001
1.977550e+003,1.150955e+001
1.978514e+003,1.112819e+001
1.979479e+003,1.044403e+001
1.980443e+003,9.557678e+000
1.981407e+003,8.261917e+000
1.982371e+003,6.445786e+000
1.983335e+003,5.575043e+000
1.984300e+003,6.838455e+000
1.985264e+003,8.922958e+000
1.986228e+003,9.908478e+000
1.987192e+003,9.952225e+000
1.988157e+003,9.861877e+000
1.989121e+003,9.663147e+000
1.990085e+003,9.376663e+000
1.991049e+003,8.952133e+000
1.992014e+003,8.649521e+000
1.992978e+003,8.616302e+000
1.993942e+003,8.447617e+000
1.994906e+003,7.429337e+000
1.995871e+003,6.820679e+000
1.996835e+003,8.057220e+000
1.997799e+003,1.004350e+001
1.998763e+003,1.124812e+001
1.999728e+003,1.156310e+001
