9.922330e+001,0.000000e+000
1.001875e+002,0.000000e+000
1.011518e+002,0.000000e+000
1.021160e+002,0.000000e+000
1.030802e+002,0.000000e+000
1.040445e+002,0.000000e+000
1.050087e+002,0.000000e+000
1.059729e+002,0.000000e+000
1.069372e+002,0.000000e+000
1.079014e+002,0.000000e+000
1.088656e+002,0.000000e+000
1.098299e+002,0.000000e+000
1.107941e+002,0.000000e+000
1.117583e+002,0.000000e+000
1.127226e+002,0.000000e+000
1.136868e+002,0.000000e+000
1.146510e+002,0.000000e+000
1.156153e+002,0.000000e+000
1.165795e+002,0.000000e+000
1.175437e+002,0.000000e+000
1.185080e+002,0.000000e+000
1.194722e+002,0.000000e+000
1.204364e+002,0.000000e+000
1.214007e+002,0.000000e+000
1.223649e+002,0.000000e+000
1.233291e+002,0.000000e+000
1.242934e+002,0.000000e+000
1.252576e+002,0.000000e+000
1.262218e+002,0.000000e+000
1.271861e+002,0.000000e+000
1.281503e+002,0.000000e+000
1.291145e+002,0.000000e+000
1.300788e+002,0.000000e+000
1.310430e+002,0.000000e+000
1.320072e+002,0.000000e+000
1.329715e+002,0.000000e+000
1.339357e+002,0.000000e+000
1.348999e+002,0.000000e+000
1.358642e+002,0.000000e+000
1.368284e+002,0.000000e+000
1.377926e+002,0.000000e+000
1.387569e+002,0.000000e+000
1.397211e+002,0.000000e+000
1.406853e+002,0.000000e+000
1.416496e+002,0.000000e+000
1.426138e+002,0.000000e+000
1.435780e+002,0.000000e+000
1.445423e+002,0.000000e+000
1.455065e+002,0.000000e+000
1.464707e+002,0.000000e+000
1.474350e+002,0.000000e+000
1.483992e+002,0.000000e+000
1.493634e+002,0.000000e+000
1.503277e+002,0.000000e+000
1.512919e+002,0.000000e+000
1.522561e+002,0.000000e+000
1.532204e+002,0.000000e+000
1.541846e+002,0.000000e+000
1.551488e+002,0.000000e+000
1.561131e+002,0.000000e+000
1.570773e+002,0.000000e+000
1.580415e+002,0.000000e+000
1.590058e+002,0.000000e+000
1.599700e+002,0.000000e+000
1.609342e+002,0.000000e+000
1.618985e+002,0.000000e+000
1.628627e+002,0.000000e+000
1.638269e+002,0.000000e+000
1.647912e+002,0.000000e+000
1.657554e+002,0.000000e+000
1.667196e+002,0.000000e+000
1.676839e+002,0.000000e+000
1.686481e+002,0.000000e+000
1.696123e+002,0.000000e+000
1.705766e+002,0.000000e+000
1.715408e+002,0.000000e+000
1.725050e+002,0.000000e+000
1.734693e+002,0.000000e+000
1.744335e+002,0.000000e+000
1.753977e+002,0.000000e+000
1.763620e+002,0.000000e+000
1.773262e+002,0.000000e+000
1.782904e+002,0.000000e+000
1.792547e+002,0.000000e+000
1.802189e+002,0.000000e+000
1.811831e+002,0.000000e+000
1.821474e+002,0.000000e+000
1.831116e+002,0.000000e+000
1.840758e+002,0.000000e+000
1.850401e+002,0.000000e+000
1.860043e+002,0.000000e+000
1.869685e+002,0.000000e+000
1.879328e+002,0.000000e+000
1.888970e+002,0.000000e+000
1.898612e+002,0.000000e+000
1.908255e+002,0.000000e+000
1.917897e+002,0.000000e+000
1.927540e+002,0.000000e+000
1.937182e+002,0.000000e+000
1.946824e+002,0.000000e+000
1.956467e+002,0.000000e+000
1.966109e+002,0.000000e+000
1.975751e+002,0.000000e+000
1.985394e+002,0.000000e+000
1.995036e+002,0.000000e+000
2.004678e+002,0.000000e+000
2.014321e+002,0.000000e+000
2.023963e+002,0.000000e+000
2.033605e+002,0.000000e+000
2.043248e+002,0.000000e+000
2.052890e+002,0.000000e+000
2.062532e+002,0.000000e+000
2.072175e+002,0.000000e+000
2.081817e+002,0.000000e+000
2.091459e+002,0.000000e+000
2.101102e+002,0.000000e+000
2.110744e+002,0.000000e+000
2.120386e+002,0.000000e+000
2.130029e+002,0.000000e+000
2.139671e+002,0.000000e+000
2.149313e+002,0.000000e+000
2.158956e+002,0.000000e+000
2.168598e+002,0.000000e+000
2.178240e+002,0.000000e+000
2.187883e+002,0.000000e+000
2.197525e+002,0.000000e+000
2.207167e+002,0.000000e+000
2.216810e+002,0.000000e+000
2.226452e+002,0.000000e+000
2.236094e+002,0.000000e+000
2.245737e+002,0.000000e+000
2.255379e+002,0.000000e+000
2.265021e+002,0.000000e+000
2.274664e+002,0.000000e+000
2.284306e+002,0.000000e+000
2.293948e+002,0.000000e+000
2.303591e+002,0.000000e+000
2.313233e+002,0.000000e+000
2.322875e+002,0.000000e+000
2.332518e+002,0.000000e+000
2.342160e+002,0.000000e+000
2.351802e+002,0.000000e+000
2.361445e+002,0.000000e+000
2.371087e+002,0.000000e+000
2.380729e+002,0.000000e+000
2.390372e+002,0.000000e+000
2.400014e+002,0.000000e+000
2.409656e+002,0.000000e+000
2.419299e+002,0.000000e+000
2.428941e+002,0.000000e+000
2.438583e+002,0.000000e+000
2.448226e+002,0.000000e+000
2.457868e+002,0.000000e+000
2.467510e+002,0.000000e+000
2.477153e+002,0.000000e+000
2.486795e+002,0.000000e+000
2.496437e+002,0.000000e+000
2.506080e+002,0.000000e+000
2.515722e+002,0.000000e+000
2.525364e+002,0.000000e+000
2.535007e+002,0.000000e+000
2.544649e+002,0.000000e+000
2.554291e+002,0.000000e+000
2.563934e+002,0.000000e+000
2.573576e+002,0.000000e+000
2.583218e+002,0.000000e+000
2.592861e+002,0.000000e+000
2.602503e+002,0.000000e+000
2.612145e+002,0.000000e+000
2.621788e+002,0.000000e+000
2.631430e+002,0.000000e+000
2.641072e+002,0.000000e+000
2.650715e+002,0.000000e+000
2.660357e+002,0.000000e+000
2.669999e+002,0.000000e+000
2.679642e+002,0.000000e+000
2.689284e+002,0.000000e+000
2.698926e+002,0.000000e+000
2.708569e+002,0.000000e+000
2.718211e+002,0.000000e+000
2.727853e+002,0.000000e+000
2.737496e+002,0.000000e+000
2.747138e+002,0.000000e+000
2.756780e+002,0.000000e+000
2.766423e+002,0.000000e+000
2.776065e+002,0.000000e+000
2.785707e+002,0.000000e+000
2.795350e+002,0.000000e+000
2.804992e+002,0.000000e+000
2.814634e+002,0.000000e+000
2.824277e+002,0.000000e+000
2.833919e+002,0.000000e+000
2.843561e+002,0.000000e+000
2.853204e+002,0.000000e+000
2.862846e+002,0.000000e+000
2.872488e+002,0.000000e+000
2.882131e+002,0.000000e+000
2.891773e+002,0.000000e+000
2.901415e+002,0.000000e+000
2.911058e+002,0.000000e+000
2.920700e+002,0.000000e+000
2.930342e+002,0.000000e+000
2.939985e+002,0.000000e+000
2.949627e+002,0.000000e+000
2.959269e+002,0.000000e+000
2.968912e+002,0.000000e+000
2.978554e+002,0.000000e+000
2.988196e+002,0.000000e+000
2.997839e+002,0.000000e+000
3.007481e+002,0.000000e+000
3.017123e+002,0.000000e+000
3.026766e+002,0.000000e+000
3.036408e+002,0.000000e+000
3.046050e+002,0.000000e+000
3.055693e+002,0.000000e+000
3.065335e+002,0.000000e+000
3.074977e+002,0.000000e+000
3.084620e+002,0.000000e+000
3.094262e+002,0.000000e+000
3.103904e+002,0.000000e+000
3.113547e+002,0.000000e+000
3.123189e+002,0.000000e+000
3.132831e+002,0.000000e+000
3.142474e+002,0.000000e+000
3.152116e+002,0.000000e+000
3.161758e+002,0.000000e+000
3.171401e+002,0.000000e+000
3.181043e+002,0.000000e+000
3.190685e+002,0.000000e+000
3.200328e+002,0.000000e+000
3.209970e+002,0.000000e+000
3.219612e+002,0.000000e+000
3.229255e+002,0.000000e+000
3.238897e+002,0.000000e+000
3.248539e+002,0.000000e+000
3.258182e+002,0.000000e+000
3.267824e+002,0.000000e+000
3.277466e+002,0.000000e+000
3.287109e+002,0.000000e+000
3.296751e+002,0.000000e+000
3.306393e+002,0.000000e+000
3.316036e+002,0.000000e+000
3.325678e+002,0.000000e+000
3.335320e+002,0.000000e+000
3.344963e+002,0.000000e+000
3.354605e+002,0.000000e+000
3.364247e+002,0.000000e+000
3.373890e+002,0.000000e+000
3.383532e+002,0.000000e+000
3.393174e+002,0.000000e+000
3.402817e+002,0.000000e+000
3.412459e+002,0.000000e+000
3.422101e+002,0.000000e+000
3.431744e+002,0.000000e+000
3.441386e+002,0.000000e+000
3.451028e+002,0.000000e+000
3.460671e+002,0.000000e+000
3.470313e+002,0.000000e+000
3.479955e+002,0.000000e+000
3.489598e+002,0.000000e+000
3.499240e+002,0.000000e+000
3.508882e+002,0.000000e+000
3.518525e+002,0.000000e+000
3.528167e+002,0.000000e+000
3.537809e+002,0.000000e+000
3.547452e+002,0.000000e+000
3.557094e+002,0.000000e+000
3.566736e+002,0.000000e+000
3.576379e+002,0.000000e+000
3.586021e+002,0.000000e+000
3.595663e+002,0.000000e+000
3.605306e+002,0.000000e+000
3.614948e+002,0.000000e+000
3.624590e+002,0.000000e+000
3.634233e+002,0.000000e+000
3.643875e+002,0.000000e+000
3.653517e+002,0.000000e+000
3.663160e+002,0.000000e+000
3.672802e+002,0.000000e+000
3.682444e+002,0.000000e+000
3.692087e+002,0.000000e+000
3.701729e+002,0.000000e+000
3.711371e+002,0.000000e+000
3.721014e+002,0.000000e+000
3.730656e+002,0.000000e+000
3.740298e+002,0.000000e+000
3.749941e+002,0.000000e+000
3.759583e+002,0.000000e+000
3.769225e+002,0.000000e+000
3.778868e+002,0.000000e+000
3.788510e+002,0.000000e+000
3.798152e+002,0.000000e+000
3.807795e+002,0.000000e+000
3.817437e+002,0.000000e+000
3.827079e+002,0.000000e+000
3.836722e+002,0.000000e+000
3.846364e+002,0.000000e+000
3.856006e+002,0.000000e+000
3.865649e+002,0.000000e+000
3.875291e+002,0.000000e+000
3.884933e+002,0.000000e+000
3.894576e+002,0.000000e+000
3.904218e+002,0.000000e+000
3.913860e+002,0.000000e+000
3.923503e+002,0.000000e+000
3.933145e+002,0.000000e+000
3.942787e+002,0.000000e+000
3.952430e+002,0.000000e+000
3.962072e+002,0.000000e+000
3.971714e+002,0.000000e+000
3.981357e+002,0.000000e+000
3.990999e+002,0.000000e+000
4.000641e+002,0.000000e+000
4.010284e+002,0.000000e+000
4.019926e+002,0.000000e+000
4.029568e+002,0.000000e+000
4.039211e+002,0.000000e+000
4.048853e+002,0.000000e+000
4.058495e+002,0.000000e+000
4.068138e+002,0.000000e+000
4.077780e+002,0.000000e+000
4.087422e+002,0.000000e+000
4.097065e+002,0.000000e+000
4.106707e+002,0.000000e+000
4.116349e+002,0.000000e+000
4.125992e+002,0.000000e+000
4.135634e+002,0.000000e+000
4.145276e+002,0.000000e+000
4.154919e+002,0.000000e+000
4.164561e+002,0.000000e+000
4.174203e+002,0.000000e+000
4.183846e+002,0.000000e+000
4.193488e+002,0.000000e+000
4.203130e+002,0.000000e+000
4.212773e+002,0.000000e+000
4.222415e+002,0.000000e+000
4.232057e+002,0.000000e+000
4.241700e+002,0.000000e+000
4.251342e+002,0.000000e+000
4.260984e+002,0.000000e+000
4.270627e+002,0.000000e+000
4.280269e+002,0.000000e+000
4.289911e+002,0.000000e+000
4.299554e+002,0.000000e+000
4.309196e+002,0.000000e+000
4.318839e+002,0.000000e+000
4.328481e+002,0.000000e+000
4.338123e+002,0.000000e+000
4.347766e+002,0.000000e+000
4.357408e+002,0.000000e+000
4.367050e+002,0.000000e+000
4.376693e+002,0.000000e+000
4.386335e+002,0.000000e+000
4.395977e+002,0.000000e+000
4.405620e+002,0.000000e+000
4.415262e+002,0.000000e+000
4.424904e+002,0.000000e+000
4.434547e+002,0.000000e+000
4.444189e+002,0.000000e+000
4.453831e+002,0.000000e+000
4.463474e+002,0.000000e+000
4.473116e+002,0.000000e+000
4.482758e+002,0.000000e+000
4.492401e+002,0.000000e+000
4.502043e+002,0.000000e+000
4.511685e+002,0.000000e+000
4.521328e+002,0.000000e+000
4.530970e+002,0.000000e+000
4.540612e+002,0.000000e+000
4.550255e+002,0.000000e+000
4.559897e+002,0.000000e+000
4.569539e+002,0.000000e+000
4.579182e+002,0.000000e+000
4.588824e+002,0.000000e+000
4.598466e+002,0.000000e+000
4.608109e+002,0.000000e+000
4.617751e+002,0.000000e+000
4.627393e+002,0.000000e+000
4.637036e+002,0.000000e+000
4.646678e+002,0.000000e+000
4.656320e+002,0.000000e+000
4.665963e+002,0.000000e+000
4.675605e+002,0.000000e+000
4.685247e+002,0.000000e+000
4.694890e+002,0.000000e+000
4.704532e+002,0.000000e+000
4.714174e+002,0.000000e+000
4.723817e+002,0.000000e+000
4.733459e+002,0.000000e+000
4.743102e+002,0.000000e+000
4.752744e+002,0.000000e+000
4.762386e+002,0.000000e+000
4.772029e+002,0.000000e+000
4.781671e+002,0.000000e+000
4.791313e+002,0.000000e+000
4.800956e+002,0.000000e+000
4.810598e+002,0.000000e+000
4.820240e+002,0.000000e+000
4.829883e+002,0.000000e+000
4.839525e+002,0.000000e+000
4.849167e+002,0.000000e+000
4.858810e+002,0.000000e+000
4.868452e+002,0.000000e+000
4.878094e+002,0.000000e+000
4.887737e+002,0.000000e+000
4.897379e+002,0.000000e+000
4.907021e+002,0.000000e+000
4.916664e+002,0.000000e+000
4.926306e+002,0.000000e+000
4.935948e+002,0.000000e+000
4.945591e+002,0.000000e+000
4.955233e+002,0.000000e+000
4.964875e+002,0.000000e+000
4.974518e+002,0.000000e+000
4.984160e+002,0.000000e+000
4.993802e+002,0.000000e+000
5.003445e+002,7.121500e+001
5.013087e+002,7.109662e+001
5.022729e+002,6.983360e+001
5.032372e+002,6.798232e+001
5.042014e+002,6.707034e+001
5.051656e+002,6.699944e+001
5.061299e+002,6.735746e+001
5.070941e+002,6.780280e+001
5.080583e+002,6.835631e+001
5.090226e+002,6.854545e+001
5.099868e+002,6.799449e+001
5.109510e+002,6.757583e+001
5.119153e+002,6.810416e+001
5.128795e+002,6.972483e+001
5.138438e+002,7.028156e+001
5.148080e+002,6.790827e+001
5.157722e+002,6.541267e+001
5.167365e+002,6.397845e+001
5.177007e+002,6.367022e+001
5.186649e+002,6.356117e+001
5.196292e+002,6.251656e+001
5.205934e+002,6.124039e+001
5.215576e+002,6.047187e+001
5.225219e+002,6.018620e+001
5.234861e+002,5.994425e+001
5.244503e+002,5.898721e+001
5.254146e+002,5.702380e+001
5.263788e+002,5.660236e+001
5.273430e+002,5.875470e+001
5.283073e+002,6.174715e+001
5.292715e+002,6.317009e+001
5.302357e+002,6.228316e+001
5.312000e+002,6.088860e+001
5.321642e+002,5.888251e+001
5.331284e+002,5.700280e+001
5.340927e+002,5.584937e+001
5.350569e+002,5.563578e+001
5.360211e+002,5.558910e+001
5.369854e+002,5.493653e+001
5.379496e+002,5.427553e+001
5.389138e+002,5.418629e+001
5.398781e+002,5.482356e+001
5.408423e+002,5.580747e+001
5.418065e+002,5.618156e+001
5.427708e+002,5.599759e+001
5.437350e+002,5.535902e+001
5.446992e+002,5.411093e+001
5.456635e+002,5.250257e+001
5.466277e+002,5.143472e+001
5.475919e+002,5.130061e+001
5.485562e+002,5.141234e+001
5.495204e+002,5.229069e+001
5.504846e+002,5.315502e+001
5.514489e+002,5.265292e+001
5.524131e+002,4.940176e+001
5.533773e+002,4.701331e+001
5.543416e+002,4.761298e+001
5.553058e+002,4.963234e+001
5.562700e+002,5.173403e+001
5.572343e+002,5.307198e+001
5.581985e+002,5.356449e+001
5.591627e+002,5.262217e+001
5.601270e+002,5.087988e+001
5.610912e+002,4.959583e+001
5.620554e+002,4.943011e+001
5.630197e+002,5.018093e+001
5.639839e+002,5.028517e+001
5.649481e+002,4.914866e+001
5.659124e+002,4.824506e+001
5.668766e+002,4.812246e+001
5.678408e+002,4.852195e+001
5.688051e+002,4.854738e+001
5.697693e+002,4.742875e+001
5.707335e+002,4.644319e+001
5.716978e+002,4.632635e+001
5.726620e+002,4.652110e+001
5.736262e+002,4.606261e+001
5.745905e+002,4.411311e+001
5.755547e+002,4.217849e+001
5.765189e+002,4.296805e+001
5.774832e+002,4.523383e+001
5.784474e+002,4.686732e+001
5.794116e+002,4.646924e+001
5.803759e+002,4.431931e+001
5.813401e+002,4.335580e+001
5.823043e+002,4.391387e+001
5.832686e+002,4.408894e+001
5.842328e+002,4.284435e+001
5.851970e+002,4.056215e+001
5.861613e+002,3.945226e+001
5.871255e+002,4.122221e+001
5.880897e+002,4.257195e+001
5.890540e+002,4.268269e+001
5.900182e+002,4.195065e+001
5.909824e+002,4.111230e+001
5.919467e+002,4.055130e+001
5.929109e+002,4.028342e+001
5.938751e+002,4.038158e+001
5.948394e+002,4.065263e+001
5.958036e+002,4.078849e+001
5.967678e+002,4.057790e+001
5.977321e+002,4.012045e+001
5.986963e+002,3.983752e+001
5.996605e+002,3.952118e+001
6.006248e+002,3.979262e+001
6.015890e+002,4.160175e+001
6.025532e+002,4.474078e+001
6.035175e+002,4.606969e+001
6.044817e+002,4.367822e+001
6.054459e+002,4.136565e+001
6.064102e+002,3.933561e+001
6.073744e+002,3.778463e+001
6.083386e+002,3.700495e+001
6.093029e+002,3.748570e+001
6.102671e+002,3.819662e+001
6.112313e+002,3.845887e+001
6.121956e+002,3.833685e+001
6.131598e+002,3.775941e+001
6.141240e+002,3.670197e+001
6.150883e+002,3.546194e+001
6.160525e+002,3.562032e+001
6.170167e+002,3.695250e+001
6.179810e+002,3.820128e+001
6.189452e+002,3.877232e+001
6.199094e+002,3.870460e+001
6.208737e+002,3.856441e+001
6.218379e+002,3.874590e+001
6.228021e+002,3.849007e+001
6.237664e+002,3.714561e+001
6.247306e+002,3.549167e+001
6.256948e+002,3.483162e+001
6.266591e+002,3.597363e+001
6.276233e+002,3.733454e+001
6.285875e+002,3.818227e+001
6.295518e+002,3.864240e+001
6.305160e+002,3.871555e+001
6.314802e+002,3.841328e+001
6.324445e+002,3.789839e+001
6.334087e+002,3.793773e+001
6.343729e+002,3.832477e+001
6.353372e+002,3.810162e+001
6.363014e+002,3.680494e+001
6.372656e+002,3.477805e+001
6.382299e+002,3.329428e+001
6.391941e+002,3.239383e+001
6.401583e+002,3.211781e+001
6.411226e+002,3.300165e+001
6.420868e+002,3.436484e+001
6.430510e+002,3.539727e+001
6.440153e+002,3.582373e+001
6.449795e+002,3.587283e+001
6.459437e+002,3.579797e+001
6.469080e+002,3.543156e+001
6.478722e+002,3.438951e+001
6.488364e+002,3.269345e+001
6.498007e+002,3.105464e+001
6.507649e+002,3.091178e+001
6.517291e+002,3.174413e+001
6.526934e+002,3.242110e+001
6.536576e+002,3.273588e+001
6.546218e+002,3.275855e+001
6.555861e+002,3.262619e+001
6.565503e+002,3.229016e+001
6.575145e+002,3.183019e+001
6.584788e+002,3.096177e+001
6.594430e+002,3.021572e+001
6.604072e+002,3.008268e+001
6.613715e+002,3.068604e+001
6.623357e+002,3.134313e+001
6.632999e+002,3.195678e+001
6.642642e+002,3.226452e+001
6.652284e+002,3.213052e+001
6.661926e+002,3.159286e+001
6.671569e+002,3.068884e+001
6.681211e+002,2.910665e+001
6.690853e+002,2.750479e+001
6.700496e+002,2.768019e+001
6.710138e+002,2.956441e+001
6.719780e+002,3.181149e+001
6.729423e+002,3.300922e+001
6.739065e+002,3.294768e+001
6.748707e+002,3.277946e+001
6.758350e+002,3.242952e+001
6.767992e+002,3.206670e+001
6.777634e+002,3.179822e+001
6.787277e+002,3.166483e+001
6.796919e+002,3.164355e+001
6.806561e+002,3.184428e+001
6.816204e+002,3.188349e+001
6.825846e+002,3.152895e+001
6.835488e+002,3.093621e+001
6.845131e+002,3.031125e+001
6.854773e+002,2.978586e+001
6.864415e+002,2.954131e+001
6.874058e+002,3.001144e+001
6.883700e+002,3.088130e+001
6.893342e+002,3.155689e+001
6.902985e+002,3.173951e+001
6.912627e+002,3.146075e+001
6.922269e+002,3.079836e+001
6.931912e+002,2.919418e+001
6.941554e+002,2.816557e+001
6.951196e+002,2.772648e+001
6.960839e+002,2.784135e+001
6.970481e+002,2.866405e+001
6.980123e+002,3.068139e+001
6.989766e+002,3.232839e+001
6.999408e+002,3.289900e+001
7.009050e+002,3.297481e+001
7.018693e+002,3.301845e+001
7.028335e+002,3.316720e+001
7.037977e+002,3.310549e+001
7.047620e+002,3.201221e+001
7.057262e+002,3.054782e+001
7.066904e+002,3.018806e+001
7.076547e+002,3.116371e+001
7.086189e+002,3.247965e+001
7.095831e+002,3.250576e+001
7.105474e+002,3.054954e+001
7.115116e+002,2.934679e+001
7.124758e+002,2.892254e+001
7.134401e+002,2.898654e+001
7.144043e+002,2.956313e+001
7.153685e+002,3.064079e+001
7.163328e+002,3.168541e+001
7.172970e+002,3.289694e+001
7.182612e+002,3.357618e+001
7.192255e+002,3.313680e+001
7.201897e+002,3.188879e+001
7.211539e+002,3.033906e+001
7.221182e+002,2.880766e+001
7.230824e+002,2.769612e+001
7.240466e+002,2.813005e+001
7.250109e+002,2.982809e+001
7.259751e+002,3.173051e+001
7.269393e+002,3.329802e+001
7.279036e+002,3.436980e+001
7.288678e+002,3.420865e+001
7.298320e+002,3.095178e+001
7.307963e+002,2.907123e+001
7.317605e+002,3.002451e+001
7.327247e+002,3.206651e+001
7.336890e+002,3.244337e+001
7.346532e+002,2.972050e+001
7.356174e+002,2.750151e+001
7.365817e+002,2.870284e+001
7.375459e+002,3.068754e+001
7.385101e+002,3.131609e+001
7.394744e+002,3.014375e+001
7.404386e+002,2.846432e+001
7.414028e+002,2.817122e+001
7.423671e+002,2.896844e+001
7.433313e+002,2.992709e+001
7.442955e+002,3.116808e+001
7.452598e+002,3.207400e+001
7.462240e+002,3.168080e+001
7.471882e+002,2.937976e+001
7.481525e+002,2.834151e+001
7.491167e+002,2.945847e+001
7.500809e+002,3.039225e+001
7.510452e+002,2.989521e+001
7.520094e+002,2.841797e+001
7.529736e+002,2.783244e+001
7.539379e+002,2.991054e+001
7.549021e+002,3.182979e+001
7.558663e+002,3.152586e+001
7.568306e+002,3.003963e+001
7.577948e+002,2.883516e+001
7.587590e+002,2.875665e+001
7.597233e+002,2.922935e+001
7.606875e+002,2.844646e+001
7.616517e+002,2.665054e+001
7.626160e+002,2.564891e+001
7.635802e+002,2.612501e+001
7.645444e+002,2.743920e+001
7.655087e+002,2.822700e+001
7.664729e+002,2.811383e+001
7.674371e+002,2.822807e+001
7.684014e+002,2.900705e+001
7.693656e+002,2.966281e+001
7.703298e+002,2.937536e+001
7.712941e+002,2.822089e+001
7.722583e+002,2.764496e+001
7.732225e+002,2.947181e+001
7.741868e+002,3.157217e+001
7.751510e+002,3.224323e+001
7.761152e+002,3.172553e+001
7.770795e+002,3.090090e+001
7.780437e+002,3.053490e+001
7.790079e+002,3.052682e+001
7.799722e+002,3.004388e+001
7.809364e+002,2.902915e+001
7.819006e+002,2.818664e+001
7.828649e+002,2.781610e+001
7.838291e+002,2.788430e+001
7.847933e+002,2.820876e+001
7.857576e+002,2.894067e+001
7.867218e+002,2.946700e+001
7.876860e+002,2.983301e+001
7.886503e+002,3.000663e+001
7.896145e+002,2.983685e+001
7.905787e+002,2.932876e+001
7.915430e+002,2.889287e+001
7.925072e+002,2.913910e+001
7.934714e+002,2.947769e+001
7.944357e+002,2.912630e+001
7.953999e+002,2.822904e+001
7.963641e+002,2.759410e+001
7.973284e+002,2.813107e+001
7.982926e+002,2.992910e+001
7.992568e+002,3.127917e+001
8.002211e+002,3.231807e+001
8.011853e+002,3.261221e+001
8.021495e+002,3.181483e+001
8.031138e+002,3.029444e+001
8.040780e+002,2.900950e+001
8.050422e+002,2.778203e+001
8.060065e+002,2.728464e+001
8.069707e+002,2.783034e+001
8.079349e+002,2.893298e+001
8.088992e+002,3.039037e+001
8.098634e+002,3.205109e+001
8.108276e+002,3.349264e+001
8.117919e+002,3.405743e+001
8.127561e+002,3.373654e+001
8.137203e+002,3.252553e+001
8.146846e+002,3.052488e+001
8.156488e+002,2.845599e+001
8.166130e+002,2.714980e+001
8.175773e+002,2.666990e+001
8.185415e+002,2.647482e+001
8.195057e+002,2.640366e+001
8.204700e+002,2.661507e+001
8.214342e+002,2.757462e+001
8.223984e+002,2.885919e+001
8.233627e+002,2.926249e+001
8.243269e+002,2.785733e+001
8.252911e+002,2.661883e+001
8.262554e+002,2.667561e+001
8.272196e+002,2.741830e+001
8.281838e+002,2.839523e+001
8.291481e+002,2.933377e+001
8.301123e+002,3.007167e+001
8.310765e+002,3.028778e+001
8.320408e+002,2.995691e+001
8.330050e+002,2.945065e+001
8.339692e+002,2.875042e+001
8.349335e+002,2.804505e+001
8.358977e+002,2.745992e+001
8.368619e+002,2.697145e+001
8.378262e+002,2.706098e+001
8.387904e+002,2.847054e+001
8.397546e+002,2.950502e+001
8.407189e+002,2.954507e+001
8.416831e+002,2.898740e+001
8.426473e+002,2.846004e+001
8.436116e+002,2.815721e+001
8.445758e+002,2.836620e+001
8.455400e+002,2.998792e+001
8.465043e+002,3.182484e+001
8.474685e+002,3.242062e+001
8.484327e+002,3.151896e+001
8.493970e+002,3.004716e+001
8.503612e+002,2.948425e+001
8.513254e+002,2.999670e+001
8.522897e+002,3.007480e+001
8.532539e+002,2.929765e+001
8.542181e+002,2.859792e+001
8.551824e+002,2.877098e+001
8.561466e+002,2.974265e+001
8.571108e+002,3.030909e+001
8.580751e+002,2.936681e+001
8.590393e+002,2.883857e+001
8.600035e+002,3.004135e+001
8.609678e+002,3.171692e+001
8.619320e+002,3.210435e+001
8.628962e+002,3.060397e+001
8.638605e+002,2.891833e+001
8.648247e+002,3.019410e+001
8.657889e+002,3.303462e+001
8.667532e+002,3.437522e+001
8.677174e+002,3.381732e+001
8.686816e+002,3.258801e+001
8.696459e+002,3.203096e+001
8.706101e+002,3.221697e+001
8.715743e+002,3.289123e+001
8.725386e+002,3.438792e+001
8.735028e+002,3.590624e+001
8.744670e+002,3.751341e+001
8.754313e+002,3.885824e+001
8.763955e+002,3.933091e+001
8.773597e+002,3.861057e+001
8.783240e+002,3.753130e+001
8.792882e+002,3.601465e+001
8.802524e+002,3.482699e+001
8.812167e+002,3.499228e+001
8.821809e+002,3.648380e+001
8.831451e+002,3.839735e+001
8.841094e+002,3.964961e+001
8.850736e+002,4.017412e+001
8.860378e+002,3.887431e+001
8.870021e+002,3.482745e+001
8.879663e+002,3.210172e+001
8.889305e+002,3.381654e+001
8.898948e+002,3.896136e+001
8.908590e+002,4.235490e+001
8.918232e+002,4.270747e+001
8.927875e+002,4.288268e+001
8.937517e+002,4.349923e+001
8.947159e+002,4.422018e+001
8.956802e+002,4.494794e+001
8.966444e+002,4.548304e+001
8.976086e+002,4.517257e+001
8.985729e+002,4.277135e+001
8.995371e+002,3.982613e+001
9.005013e+002,3.887410e+001
9.014656e+002,3.976937e+001
9.024298e+002,4.134038e+001
9.033940e+002,4.271902e+001
9.043583e+002,4.386683e+001
9.053225e+002,4.493131e+001
9.062867e+002,4.649862e+001
9.072510e+002,4.698875e+001
9.082152e+002,4.547579e+001
9.091794e+002,4.361032e+001
9.101437e+002,4.319852e+001
9.111079e+002,4.453407e+001
9.120721e+002,4.567010e+001
9.130364e+002,4.498735e+001
9.140006e+002,4.404797e+001
9.149648e+002,4.392935e+001
9.159291e+002,4.436809e+001
9.168933e+002,4.450979e+001
9.178575e+002,4.373595e+001
9.188218e+002,4.239617e+001
9.197860e+002,4.189973e+001
9.207502e+002,4.223920e+001
9.217145e+002,4.222230e+001
9.226787e+002,4.116609e+001
9.236429e+002,4.025094e+001
9.246072e+002,4.158717e+001
9.255714e+002,4.597538e+001
9.265356e+002,4.806946e+001
9.274999e+002,4.468607e+001
9.284641e+002,4.134937e+001
9.294283e+002,4.003358e+001
9.303926e+002,4.015836e+001
9.313568e+002,4.045438e+001
9.323210e+002,4.031110e+001
9.332853e+002,3.960593e+001
9.342495e+002,3.697699e+001
9.352137e+002,3.388454e+001
9.361780e+002,3.344910e+001
9.371422e+002,3.631094e+001
9.381064e+002,3.960120e+001
9.390707e+002,3.914368e+001
9.400349e+002,3.393919e+001
9.409991e+002,3.136940e+001
9.419634e+002,3.314705e+001
9.429276e+002,3.492779e+001
9.438918e+002,3.580340e+001
9.448561e+002,3.593439e+001
9.458203e+002,3.550450e+001
9.467845e+002,3.440115e+001
9.477488e+002,3.366353e+001
9.487130e+002,3.486265e+001
9.496772e+002,3.616395e+001
9.506415e+002,3.600375e+001
9.516057e+002,3.438762e+001
9.525699e+002,3.219310e+001
9.535342e+002,3.023734e+001
9.544984e+002,2.856678e+001
9.554626e+002,2.805897e+001
9.564269e+002,2.915385e+001
9.573911e+002,2.960952e+001
9.583553e+002,2.791800e+001
9.593196e+002,2.560546e+001
9.602838e+002,2.554367e+001
9.612480e+002,2.858200e+001
9.622123e+002,3.061583e+001
9.631765e+002,2.944550e+001
9.641407e+002,2.809991e+001
9.651050e+002,2.799287e+001
9.660692e+002,2.880424e+001
9.670334e+002,2.955039e+001
9.679977e+002,2.965504e+001
9.689619e+002,2.948541e+001
9.699261e+002,2.970032e+001
9.708904e+002,3.013607e+001
9.718546e+002,3.034494e+001
9.728188e+002,3.006438e+001
9.737831e+002,3.012127e+001
9.747473e+002,3.204459e+001
9.757115e+002,3.652197e+001
9.766758e+002,3.919773e+001
9.776400e+002,3.864670e+001
9.786042e+002,3.813267e+001
9.795685e+002,3.905402e+001
9.805327e+002,4.006080e+001
9.814969e+002,3.900439e+001
9.824612e+002,3.520015e+001
9.834254e+002,3.105601e+001
9.843896e+002,2.854720e+001
9.853539e+002,2.713502e+001
9.863181e+002,2.681310e+001
9.872823e+002,2.720467e+001
9.882466e+002,2.715574e+001
9.892108e+002,2.572976e+001
9.901750e+002,2.323726e+001
9.911393e+002,2.141667e+001
9.921035e+002,2.005921e+001
9.930677e+002,1.953448e+001
9.940320e+002,2.092025e+001
9.949962e+002,2.245532e+001
9.959604e+002,2.219660e+001
9.969247e+002,2.011794e+001
9.978889e+002,1.858237e+001
9.988531e+002,1.883922e+001
9.998174e+002,1.963334e+001
1.000782e+003,2.083372e+001
1.001746e+003,2.187930e+001
1.002710e+003,2.166368e+001
1.003674e+003,1.989254e+001
1.004639e+003,1.786618e+001
1.005603e+003,1.801016e+001
1.006567e+003,2.055971e+001
1.007531e+003,2.163670e+001
1.008495e+003,2.076462e+001
1.009460e+003,1.951111e+001
1.010424e+003,1.862176e+001
1.011388e+003,1.810207e+001
1.012352e+003,1.806115e+001
1.013317e+003,1.906155e+001
1.014281e+003,1.929698e+001
1.015245e+003,1.758559e+001
1.016209e+003,1.557993e+001
1.017174e+003,1.426789e+001
1.018138e+003,1.389204e+001
1.019102e+003,1.438747e+001
1.020066e+003,1.582412e+001
1.021031e+003,1.777106e+001
1.021995e+003,1.890218e+001
1.022959e+003,1.931421e+001
1.023923e+003,1.938325e+001
1.024887e+003,1.921538e+001
1.025852e+003,1.876347e+001
1.026816e+003,1.776463e+001
1.027780e+003,1.593487e+001
1.028744e+003,1.514131e+001
1.029709e+003,1.681403e+001
1.030673e+003,1.799016e+001
1.031637e+003,1.736259e+001
1.032601e+003,1.585190e+001
1.033566e+003,1.483295e+001
1.034530e+003,1.480057e+001
1.035494e+003,1.510416e+001
1.036458e+003,1.511414e+001
1.037422e+003,1.489108e+001
1.038387e+003,1.438441e+001
1.039351e+003,1.367171e+001
1.040315e+003,1.339967e+001
1.041279e+003,1.417084e+001
1.042244e+003,1.568243e+001
1.043208e+003,1.625954e+001
1.044172e+003,1.477139e+001
1.045136e+003,1.419109e+001
1.046101e+003,1.551069e+001
1.047065e+003,1.682895e+001
1.048029e+003,1.664594e+001
1.048993e+003,1.530091e+001
1.049958e+003,1.444218e+001
1.050922e+003,1.495504e+001
1.051886e+003,1.596586e+001
1.052850e+003,1.670364e+001
1.053814e+003,1.726287e+001
1.054779e+003,1.788150e+001
1.055743e+003,1.853032e+001
1.056707e+003,1.871310e+001
1.057671e+003,1.777841e+001
1.058636e+003,1.570453e+001
1.059600e+003,1.444919e+001
1.060564e+003,1.471786e+001
1.061528e+003,1.486358e+001
1.062493e+003,1.451551e+001
1.063457e+003,1.395176e+001
1.064421e+003,1.335557e+001
1.065385e+003,1.279379e+001
1.066349e+003,1.278225e+001
1.067314e+003,1.390980e+001
1.068278e+003,1.532870e+001
1.069242e+003,1.686670e+001
1.070206e+003,1.815628e+001
1.071171e+003,1.838570e+001
1.072135e+003,1.733205e+001
1.073099e+003,1.599311e+001
1.074063e+003,1.618403e+001
1.075028e+003,1.817958e+001
1.075992e+003,1.814960e+001
1.076956e+003,1.446078e+001
1.077920e+003,1.172364e+001
1.078885e+003,1.243519e+001
1.079849e+003,1.497213e+001
1.080813e+003,1.625986e+001
1.081777e+003,1.569360e+001
1.082741e+003,1.504813e+001
1.083706e+003,1.501787e+001
1.084670e+003,1.520885e+001
1.085634e+003,1.566923e+001
1.086598e+003,1.614741e+001
1.087563e+003,1.615304e+001
1.088527e+003,1.548463e+001
1.089491e+003,1.465086e+001
1.090455e+003,1.459286e+001
1.091420e+003,1.537273e+001
1.092384e+003,1.611375e+001
1.093348e+003,1.719560e+001
1.094312e+003,1.750697e+001
1.095276e+003,1.574306e+001
1.096241e+003,1.279754e+001
1.097205e+003,1.151674e+001
1.098169e+003,1.285159e+001
1.099133e+003,1.390099e+001
1.100098e+003,1.339094e+001
1.101062e+003,1.250095e+001
1.102026e+003,1.171253e+001
1.102990e+003,1.119833e+001
1.103955e+003,1.107353e+001
1.104919e+003,1.138987e+001
1.105883e+003,1.198994e+001
1.106847e+003,1.269858e+001
1.107812e+003,1.346928e+001
1.108776e+003,1.331779e+001
1.109740e+003,1.178300e+001
1.110704e+003,1.019629e+001
1.111668e+003,9.643829e+000
1.112633e+003,9.914474e+000
1.113597e+003,9.887085e+000
1.114561e+003,9.120789e+000
1.115525e+003,8.774574e+000
1.116490e+003,9.226707e+000
1.117454e+003,1.009196e+001
1.118418e+003,1.165334e+001
1.119382e+003,1.343449e+001
1.120347e+003,1.428878e+001
1.121311e+003,1.348164e+001
1.122275e+003,1.195174e+001
1.123239e+003,1.195972e+001
1.124203e+003,1.336077e+001
1.125168e+003,1.333144e+001
1.126132e+003,1.113288e+001
1.127096e+003,8.935020e+000
1.128060e+003,8.470703e+000
1.129025e+003,9.379372e+000
1.129989e+003,1.007401e+001
1.130953e+003,1.046321e+001
1.131917e+003,1.054204e+001
1.132882e+003,1.026875e+001
1.133846e+003,9.833824e+000
1.134810e+003,9.154991e+000
1.135774e+003,8.440620e+000
1.136739e+003,8.068680e+000
1.137703e+003,8.245171e+000
1.138667e+003,8.825424e+000
1.139631e+003,9.848595e+000
1.140595e+003,1.108192e+001
1.141560e+003,1.074362e+001
1.142524e+003,8.225037e+000
1.143488e+003,6.163246e+000
1.144452e+003,6.975159e+000
1.145417e+003,9.670639e+000
1.146381e+003,1.045482e+001
1.147345e+003,8.309456e+000
1.148309e+003,6.632095e+000
1.149274e+003,6.602440e+000
1.150238e+003,6.900246e+000
1.151202e+003,6.762520e+000
1.152166e+003,6.493408e+000
1.153130e+003,6.982498e+000
1.154095e+003,8.519760e+000
1.155059e+003,9.957771e+000
1.156023e+003,9.565346e+000
1.156987e+003,7.622978e+000
1.157952e+003,6.356628e+000
1.158916e+003,5.806595e+000
1.159880e+003,6.021378e+000
1.160844e+003,7.729584e+000
1.161809e+003,9.893654e+000
1.162773e+003,1.002193e+001
1.163737e+003,7.586273e+000
1.164701e+003,5.519600e+000
1.165666e+003,4.534653e+000
1.166630e+003,4.155357e+000
1.167594e+003,4.457832e+000
1.168558e+003,5.160934e+000
1.169522e+003,6.075302e+000
1.170487e+003,7.057350e+000
1.171451e+003,7.913467e+000
1.172415e+003,8.512909e+000
1.173379e+003,8.658493e+000
1.174344e+003,6.995056e+000
1.175308e+003,3.356842e+000
1.176272e+003,9.329300e-001
1.177236e+003,1.287941e+000
1.178201e+003,2.963951e+000
1.179165e+003,4.561562e+000
1.180129e+003,6.072784e+000
1.181093e+003,5.735435e+000
1.182057e+003,9.651489e-001
1.183022e+003,-2.282738e+000
1.183986e+003,-6.456985e-001
1.184950e+003,2.539635e+000
1.185914e+003,4.302185e+000
1.186879e+003,4.203270e+000
1.187843e+003,3.389809e+000
1.188807e+003,2.771439e+000
1.189771e+003,2.240692e+000
1.190736e+003,1.496590e+000
1.191700e+003,5.023270e-001
1.192664e+003,-3.573608e-001
1.193628e+003,-1.216553e+000
1.194593e+003,-1.666985e+000
1.195557e+003,-1.153961e+000
1.196521e+003,3.898621e-003
1.197485e+003,6.448822e-001
1.198449e+003,4.256592e-001
1.199414e+003,2.533569e-001
1.200378e+003,5.019302e-001
1.201342e+003,9.671707e-001
1.202306e+003,1.704071e+000
1.203271e+003,2.504440e+000
1.204235e+003,3.077950e+000
1.205199e+003,3.271988e+000
1.206163e+003,3.078384e+000
1.207128e+003,2.431725e+000
1.208092e+003,1.305458e+000
1.209056e+003,3.951340e-001
1.210020e+003,-3.127136e-001
1.210984e+003,-8.287430e-001
1.211949e+003,-1.232536e+000
1.212913e+003,-1.418663e+000
1.213877e+003,-1.161385e+000
1.214841e+003,-4.491425e-001
1.215806e+003,3.125610e-001
1.216770e+003,1.060616e+000
1.217734e+003,1.651154e+000
1.218698e+003,2.186111e+000
1.219663e+003,2.410004e+000
1.220627e+003,1.692276e+000
1.221591e+003,1.910782e-001
1.222555e+003,-9.335251e-001
1.223520e+003,-5.697479e-001
1.224484e+003,8.972244e-001
1.225448e+003,1.531128e+000
1.226412e+003,9.389801e-001
1.227376e+003,2.632446e-001
1.228341e+003,-1.074883e+000
1.229305e+003,-1.883919e+000
1.230269e+003,-9.148026e-001
1.231233e+003,8.733521e-001
1.232198e+003,1.453270e+000
1.233162e+003,2.810593e-001
1.234126e+003,-1.207367e+000
1.235090e+003,-2.357323e+000
1.236055e+003,-3.005058e+000
1.237019e+003,-2.749664e+000
1.237983e+003,-1.915771e+000
1.238947e+003,-1.281776e+000
1.239911e+003,-1.153023e+000
1.240876e+003,-1.306206e+000
1.241840e+003,-1.481018e+000
1.242804e+003,-1.694138e+000
1.243768e+003,-1.591827e+000
1.244733e+003,-1.198677e+000
1.245697e+003,-3.874435e-001
1.246661e+003,1.619675e+000
1.247625e+003,3.284500e+000
1.248590e+003,3.183128e+000
1.249554e+003,1.774925e+000
1.250518e+003,6.390915e-001
1.251482e+003,4.691772e-001
1.252447e+003,5.908813e-001
1.253411e+003,2.215652e-001
1.254375e+003,-3.681412e-001
1.255339e+003,-6.230469e-001
1.256303e+003,-5.102921e-001
1.257268e+003,-3.572922e-001
1.258232e+003,-4.726791e-001
1.259196e+003,-5.908813e-001
1.260160e+003,2.030869e-001
1.261125e+003,2.319649e+000
1.262089e+003,2.982536e+000
1.263053e+003,5.171204e-002
1.264017e+003,-2.141266e+000
1.264982e+003,-2.470848e+000
1.265946e+003,-1.682678e+000
1.266910e+003,1.197739e-001
1.267874e+003,2.320351e+000
1.268839e+003,3.590019e+000
1.269803e+003,3.039063e+000
1.270767e+003,1.326515e+000
1.271731e+003,-5.311508e-001
1.272695e+003,-2.438499e+000
1.273660e+003,-3.364487e+000
1.274624e+003,-3.106354e+000
1.275588e+003,-2.518410e+000
1.276552e+003,-1.852715e+000
1.277517e+003,-1.169487e+000
1.278481e+003,-5.197449e-001
1.279445e+003,1.173935e-001
1.280409e+003,1.612244e-001
1.281374e+003,-1.156174e+000
1.282338e+003,-2.318130e+000
1.283302e+003,-2.696732e+000
1.284266e+003,-2.432228e+000
1.285230e+003,-1.293060e+000
1.286195e+003,3.848724e-001
1.287159e+003,1.436874e+000
1.288123e+003,9.113159e-001
1.289087e+003,-4.617233e-001
1.290052e+003,-4.663925e-001
1.291016e+003,1.597931e+000
1.291980e+003,2.330063e+000
1.292944e+003,6.087112e-001
1.293909e+003,-9.405289e-001
1.294873e+003,-1.123123e+000
1.295837e+003,-5.975876e-001
1.296801e+003,-2.374802e-001
1.297766e+003,-1.802521e-001
1.298730e+003,-2.681732e-001
1.299694e+003,-5.611191e-001
1.300658e+003,-7.670288e-001
1.301622e+003,-3.577423e-001
1.302587e+003,3.041611e-001
1.303551e+003,6.276703e-001
1.304515e+003,5.272675e-001
1.305479e+003,2.178726e-001
1.306444e+003,-2.030487e-001
1.307408e+003,-6.613541e-001
1.308372e+003,-8.560715e-001
1.309336e+003,-8.103409e-001
1.310301e+003,-4.216385e-001
1.311265e+003,1.495033e+000
1.312229e+003,2.332268e+000
1.313193e+003,1.097870e-001
1.314157e+003,-2.787506e+000
1.315122e+003,-3.810265e+000
1.316086e+003,-2.777260e+000
1.317050e+003,-9.888687e-001
1.318014e+003,8.173141e-001
1.318979e+003,2.125481e+000
1.319943e+003,1.613068e+000
1.320907e+003,-4.029694e-001
1.321871e+003,-1.069664e+000
1.322836e+003,3.524017e-002
1.323800e+003,1.163063e+000
1.324764e+003,1.236092e+000
1.325728e+003,8.524704e-001
1.326693e+003,1.172478e+000
1.327657e+003,2.222755e+000
1.328621e+003,2.625694e+000
1.329585e+003,1.727280e+000
1.330549e+003,8.560104e-001
1.331514e+003,6.035080e-001
1.332478e+003,5.881500e-001
1.333442e+003,3.834381e-001
1.334406e+003,1.101303e-001
1.335371e+003,3.736649e-001
1.336335e+003,1.505455e+000
1.337299e+003,2.857231e+000
1.338263e+003,3.132980e+000
1.339228e+003,2.148727e+000
1.340192e+003,1.849106e+000
1.341156e+003,3.234863e+000
1.342120e+003,3.787750e+000
1.343084e+003,2.246223e+000
1.344049e+003,4.809189e-001
1.345013e+003,2.452240e-001
1.345977e+003,1.188217e+000
1.346941e+003,1.789223e+000
1.347906e+003,1.486458e+000
1.348870e+003,1.000061e+000
1.349834e+003,1.070206e+000
1.350798e+003,1.279091e+000
1.351763e+003,7.748413e-001
1.352727e+003,-2.985077e-001
1.353691e+003,-1.159843e+000
1.354655e+003,-1.533150e+000
1.355620e+003,-1.575035e+000
1.356584e+003,-1.358543e+000
1.357548e+003,-9.137497e-001
1.358512e+003,-7.042618e-001
1.359476e+003,-1.056488e+000
1.360441e+003,-9.658661e-001
1.361405e+003,2.733841e-001
1.362369e+003,1.552887e+000
1.363333e+003,2.506836e+000
1.364298e+003,3.083511e+000
1.365262e+003,3.277702e+000
1.366226e+003,3.103531e+000
1.367190e+003,2.511406e+000
1.368155e+003,1.436340e+000
1.369119e+003,1.971512e-001
1.370083e+003,-1.394958e-001
1.371047e+003,7.704697e-001
1.372011e+003,1.243950e+000
1.372976e+003,4.133911e-001
1.373940e+003,2.109604e-001
1.374904e+003,2.078316e+000
1.375868e+003,4.523430e+000
1.376833e+003,5.691895e+000
1.377797e+003,5.460129e+000
1.378761e+003,4.596809e+000
1.379725e+003,3.263664e+000
1.380690e+003,1.943771e+000
1.381654e+003,1.085289e+000
1.382618e+003,6.056519e-001
1.383582e+003,3.647232e-001
1.384547e+003,3.823395e-001
1.385511e+003,9.366455e-001
1.386475e+003,2.294067e+000
1.387439e+003,3.742928e+000
1.388403e+003,4.184601e+000
1.389368e+003,3.616371e+000
1.390332e+003,2.725479e+000
1.391296e+003,8.971329e-001
1.392260e+003,1.289520e-001
1.393225e+003,1.872879e+000
1.394189e+003,3.574532e+000
1.395153e+003,3.710831e+000
1.396117e+003,2.874878e+000
1.397082e+003,2.051109e+000
1.398046e+003,1.601982e+000
1.399010e+003,1.408669e+000
1.399974e+003,1.352188e+000
1.400938e+003,1.291237e+000
1.401903e+003,8.747253e-001
1.402867e+003,5.462646e-003
1.403831e+003,-1.886597e-001
1.404795e+003,9.498825e-001
1.405760e+003,1.742958e+000
1.406724e+003,1.031273e+000
1.407688e+003,-5.868530e-002
1.408652e+003,-3.147125e-002
1.409617e+003,1.088943e+000
1.410581e+003,2.269821e+000
1.411545e+003,3.167824e+000
1.412509e+003,3.694786e+000
1.413474e+003,3.613838e+000
1.414438e+003,3.089905e+000
1.415402e+003,2.428436e+000
1.416366e+003,1.704514e+000
1.417330e+003,9.886627e-001
1.418295e+003,2.098846e-001
1.419259e+003,-1.732941e-001
1.420223e+003,6.486893e-001
1.421187e+003,2.389236e+000
1.422152e+003,3.348686e+000
1.423116e+003,3.316620e+000
1.424080e+003,3.248291e+000
1.425044e+003,3.534698e+000
1.426009e+003,3.581497e+000
1.426973e+003,2.743874e+000
1.427937e+003,1.762749e+000
1.428901e+003,1.831436e+000
1.429865e+003,2.782204e+000
1.430830e+003,3.115578e+000
1.431794e+003,1.847054e+000
1.432758e+003,-1.468658e-002
1.433722e+003,-4.173508e-001
1.434687e+003,7.836456e-001
1.435651e+003,2.334999e+000
1.436615e+003,5.326912e+000
1.437579e+003,6.743660e+000
1.438544e+003,5.360664e+000
1.439508e+003,3.340683e+000
1.440472e+003,1.823792e+000
1.441436e+003,8.932571e-001
1.442401e+003,5.298615e-001
1.443365e+003,6.408768e-001
1.444329e+003,7.860489e-001
1.445293e+003,6.680908e-001
1.446257e+003,3.665543e-001
1.447222e+003,-3.648682e-001
1.448186e+003,-1.257637e+000
1.449150e+003,-3.221664e-001
1.450114e+003,3.311813e+000
1.451079e+003,5.859077e+000
1.452043e+003,4.661400e+000
1.453007e+003,1.874901e+000
1.453971e+003,2.386703e-001
1.454936e+003,-3.065796e-001
1.455900e+003,-4.301987e-001
1.456864e+003,-1.309204e-001
1.457828e+003,1.702881e-001
1.458792e+003,1.322174e-002
1.459757e+003,-8.851624e-002
1.460721e+003,2.875214e-001
1.461685e+003,1.040871e+000
1.462649e+003,2.198135e+000
1.463614e+003,3.662849e+000
1.464578e+003,4.489037e+000
1.465542e+003,3.666504e+000
1.466506e+003,1.871330e+000
1.467471e+003,1.315193e+000
1.468435e+003,2.480209e+000
1.469399e+003,2.664574e+000
1.470363e+003,3.344955e-001
1.471328e+003,-1.078621e+000
1.472292e+003,-2.509995e-001
1.473256e+003,1.086784e+000
1.474220e+003,1.868195e+000
1.475184e+003,2.198730e+000
1.476149e+003,2.603523e+000
1.477113e+003,3.181877e+000
1.478077e+003,3.497711e+000
1.479041e+003,3.157631e+000
1.480006e+003,2.306496e+000
1.480970e+003,1.271255e+000
1.481934e+003,-3.180771e-001
1.482898e+003,-5.820160e-001
1.483863e+003,1.557343e+000
1.484827e+003,3.327721e+000
1.485791e+003,4.055183e+000
1.486755e+003,4.141022e+000
1.487719e+003,3.862389e+000
1.488684e+003,3.238449e+000
1.489648e+003,1.994377e+000
1.490612e+003,1.107178e-001
1.491576e+003,-1.173981e+000
1.492541e+003,-6.897659e-001
1.493505e+003,6.917419e-001
1.494469e+003,9.012604e-001
1.495433e+003,1.633301e-001
1.496398e+003,3.642120e-001
1.497362e+003,2.269440e+000
1.498326e+003,3.588882e+000
1.499290e+003,2.440781e+000
1.500255e+003,5.178757e-001
1.501219e+003,1.300430e-001
1.502183e+003,1.091537e+000
1.503147e+003,2.026131e+000
1.504111e+003,2.623558e+000
1.505076e+003,3.299126e+000
1.506040e+003,4.976913e+000
1.507004e+003,6.065605e+000
1.507968e+003,4.198357e+000
1.508933e+003,8.815308e-001
1.509897e+003,-7.081299e-001
1.510861e+003,3.041077e-002
1.511825e+003,1.588173e+000
1.512790e+003,3.095024e+000
1.513754e+003,4.308868e+000
1.514718e+003,4.818680e+000
1.515682e+003,4.606163e+000
1.516646e+003,3.721214e+000
1.517611e+003,1.418816e+000
1.518575e+003,3.814850e-001
1.519539e+003,3.111954e+000
1.520503e+003,5.633484e+000
1.521468e+003,5.768852e+000
1.522432e+003,4.400383e+000
1.523396e+003,2.221626e+000
1.524360e+003,-4.087067e-002
1.525325e+003,-6.614151e-001
1.526289e+003,1.517365e+000
1.527253e+003,4.593483e+000
1.528217e+003,4.975677e+000
1.529182e+003,2.632462e+000
1.530146e+003,1.965919e+000
1.531110e+003,4.681129e+000
1.532074e+003,5.832016e+000
1.533038e+003,3.308105e+000
1.534003e+003,1.230743e+000
1.534967e+003,2.024452e+000
1.535931e+003,3.923996e+000
1.536895e+003,4.915710e+000
1.537860e+003,4.826149e+000
1.538824e+003,4.426620e+000
1.539788e+003,4.130432e+000
1.540752e+003,3.996941e+000
1.541717e+003,4.174477e+000
1.542681e+003,4.587936e+000
1.543645e+003,4.658043e+000
1.544609e+003,4.413811e+000
1.545573e+003,3.805138e+000
1.546538e+003,1.870590e+000
1.547502e+003,7.179337e-001
1.548466e+003,1.514381e+000
1.549430e+003,3.224922e+000
1.550395e+003,5.064560e+000
1.551359e+003,6.754837e+000
1.552323e+003,8.144852e+000
1.553287e+003,9.150703e+000
1.554252e+003,9.293442e+000
1.555216e+003,7.972610e+000
1.556180e+003,5.962555e+000
1.557144e+003,5.117325e+000
1.558109e+003,5.509209e+000
1.559073e+003,5.747757e+000
1.560037e+003,5.716232e+000
1.561001e+003,5.570702e+000
1.561965e+003,5.404007e+000
1.562930e+003,5.229752e+000
1.563894e+003,4.946297e+000
1.564858e+003,4.634178e+000
1.565822e+003,4.542770e+000
1.566787e+003,4.703537e+000
1.567751e+003,4.884300e+000
1.568715e+003,4.974335e+000
1.569679e+003,5.026787e+000
1.570644e+003,4.975105e+000
1.571608e+003,4.932472e+000
1.572572e+003,5.417145e+000
1.573536e+003,6.489151e+000
1.574500e+003,7.270439e+000
1.575465e+003,7.572235e+000
1.576429e+003,7.310188e+000
1.577393e+003,5.625526e+000
1.578357e+003,3.633377e+000
1.579322e+003,4.176811e+000
1.580286e+003,7.153397e+000
1.581250e+003,8.452682e+000
1.582214e+003,6.356384e+000
1.583179e+003,4.107666e+000
1.584143e+003,3.855347e+000
1.585107e+003,4.943413e+000
1.586071e+003,7.320900e+000
1.587036e+003,1.023421e+001
1.588000e+003,1.082854e+001
1.588964e+003,8.325073e+000
1.589928e+003,5.735329e+000
1.590893e+003,4.986053e+000
1.591857e+003,5.342094e+000
1.592821e+003,5.932304e+000
1.593785e+003,6.698578e+000
1.594750e+003,7.221107e+000
1.595714e+003,7.383095e+000
1.596678e+003,7.595734e+000
1.597642e+003,8.055763e+000
1.598606e+003,8.582047e+000
1.599571e+003,9.128349e+000
1.600535e+003,9.622871e+000
1.601499e+003,1.003513e+001
1.602463e+003,1.029248e+001
1.603428e+003,1.012099e+001
1.604392e+003,9.380547e+000
1.605356e+003,8.446350e+000
1.606320e+003,7.529404e+000
1.607285e+003,6.768105e+000
1.608249e+003,6.573952e+000
1.609213e+003,6.960327e+000
1.610177e+003,7.565865e+000
1.611141e+003,8.307739e+000
1.612106e+003,9.330734e+000
1.613070e+003,1.146251e+001
1.614034e+003,1.317631e+001
1.614998e+003,1.304832e+001
1.615963e+003,1.185497e+001
1.616927e+003,1.076859e+001
1.617891e+003,1.006287e+001
1.618855e+003,9.710838e+000
1.619820e+003,9.644188e+000
1.620784e+003,1.004491e+001
1.621748e+003,1.184486e+001
1.622712e+003,1.462960e+001
1.623677e+003,1.498195e+001
1.624641e+003,1.233279e+001
1.625605e+003,1.052745e+001
1.626569e+003,1.054354e+001
1.627533e+003,1.101911e+001
1.628498e+003,1.182526e+001
1.629462e+003,1.242275e+001
1.630426e+003,1.191540e+001
1.631390e+003,1.091967e+001
1.632355e+003,1.092010e+001
1.633319e+003,1.219109e+001
1.634283e+003,1.364143e+001
1.635247e+003,1.458047e+001
1.636212e+003,1.485158e+001
1.637176e+003,1.384794e+001
1.638140e+003,1.172917e+001
1.639104e+003,1.062962e+001
1.640068e+003,1.072401e+001
1.641033e+003,1.135342e+001
1.641997e+003,1.317287e+001
1.642961e+003,1.437538e+001
1.643925e+003,1.337631e+001
1.644890e+003,1.194347e+001
1.645854e+003,1.207330e+001
1.646818e+003,1.323400e+001
1.647782e+003,1.354766e+001
1.648747e+003,1.249159e+001
1.649711e+003,1.151989e+001
1.650675e+003,1.200542e+001
1.651639e+003,1.304904e+001
1.652604e+003,1.252056e+001
1.653568e+003,1.047417e+001
1.654532e+003,9.142242e+000
1.655496e+003,8.659775e+000
1.656460e+003,8.862137e+000
1.657425e+003,1.050437e+001
1.658389e+003,1.178054e+001
1.659353e+003,1.124286e+001
1.660317e+003,1.022811e+001
1.661282e+003,1.033163e+001
1.662246e+003,1.123061e+001
1.663210e+003,1.157531e+001
1.664174e+003,1.094923e+001
1.665139e+003,1.009383e+001
1.666103e+003,9.533722e+000
1.667067e+003,9.250198e+000
1.668031e+003,9.369255e+000
1.668995e+003,9.851891e+000
1.669960e+003,9.906952e+000
1.670924e+003,9.362160e+000
1.671888e+003,8.907585e+000
1.672852e+003,8.431885e+000
1.673817e+003,8.533646e+000
1.674781e+003,1.015987e+001
1.675745e+003,1.208749e+001
1.676709e+003,1.311373e+001
1.677674e+003,1.321693e+001
1.678638e+003,1.267665e+001
1.679602e+003,1.158559e+001
1.680566e+003,1.005576e+001
1.681531e+003,7.722641e+000
1.682495e+003,5.665161e+000
1.683459e+003,6.251213e+000
1.684423e+003,8.897034e+000
1.685387e+003,9.854027e+000
1.686352e+003,8.604576e+000
1.687316e+003,7.389481e+000
1.688280e+003,7.036568e+000
1.689244e+003,6.648872e+000
1.690209e+003,5.049210e+000
1.691173e+003,3.407356e+000
1.692137e+003,3.188187e+000
1.693101e+003,4.102058e+000
1.694066e+003,5.066299e+000
1.695030e+003,5.800911e+000
1.695994e+003,6.171165e+000
1.696958e+003,6.169579e+000
1.697922e+003,5.710907e+000
1.698887e+003,4.148148e+000
1.699851e+003,2.131836e+000
1.700815e+003,2.065872e+000
1.701779e+003,4.061058e+000
1.702744e+003,4.739502e+000
1.703708e+003,2.664795e+000
1.704672e+003,7.983856e-001
1.705636e+003,1.337700e+000
1.706601e+003,3.111588e+000
1.707565e+003,5.096176e+000
1.708529e+003,6.900436e+000
1.709493e+003,6.728012e+000
1.710458e+003,4.098732e+000
1.711422e+003,2.067345e+000
1.712386e+003,2.279510e+000
1.713350e+003,3.110428e+000
1.714314e+003,3.376656e+000
1.715279e+003,3.272362e+000
1.716243e+003,3.302185e+000
1.717207e+003,3.353607e+000
1.718171e+003,2.396904e+000
1.719136e+003,1.606674e-001
1.720100e+003,-1.215324e+000
1.721064e+003,-1.395874e-001
1.722028e+003,1.980339e+000
1.722993e+003,3.314972e+000
1.723957e+003,3.979576e+000
1.724921e+003,4.388863e+000
1.725885e+003,4.465607e+000
1.726849e+003,4.378716e+000
1.727814e+003,4.319542e+000
1.728778e+003,4.032921e+000
1.729742e+003,3.010078e+000
1.730706e+003,2.037926e+000
1.731671e+003,2.066376e+000
1.732635e+003,2.606285e+000
1.733599e+003,2.370323e+000
1.734563e+003,1.415306e+000
1.735528e+003,1.531105e+000
1.736492e+003,3.634293e+000
1.737456e+003,5.731796e+000
1.738420e+003,5.425301e+000
1.739385e+003,3.261658e+000
1.740349e+003,1.250366e+000
1.741313e+003,-8.902817e-001
1.742277e+003,-1.239914e+000
1.743241e+003,2.302086e+000
1.744206e+003,4.298744e+000
1.745170e+003,2.752739e+000
1.746134e+003,9.878769e-001
1.747098e+003,8.289871e-001
1.748063e+003,1.440239e+000
1.749027e+003,1.956551e+000
1.749991e+003,2.182076e+000
1.750955e+003,2.107620e+000
1.751920e+003,1.748138e+000
1.752884e+003,1.063271e+000
1.753848e+003,-5.439758e-003
1.754812e+003,-7.426910e-001
1.755776e+003,6.348953e-001
1.756741e+003,4.025986e+000
1.757705e+003,4.547302e+000
1.758669e+003,6.659622e-001
1.759633e+003,-1.668846e+000
1.760598e+003,-9.308167e-001
1.761562e+003,3.166199e-002
1.762526e+003,9.304428e-001
1.763490e+003,1.270767e+000
1.764455e+003,1.013107e-001
1.765419e+003,-1.527832e+000
1.766383e+003,-1.933273e+000
1.767347e+003,-1.089081e+000
1.768312e+003,-2.044830e-001
1.769276e+003,1.423416e-001
1.770240e+003,3.981094e-001
1.771204e+003,1.279144e+000
1.772168e+003,2.274651e+000
1.773133e+003,1.810036e+000
1.774097e+003,9.784698e-002
1.775061e+003,-4.984665e-001
1.776025e+003,4.161148e-001
1.776990e+003,8.183365e-001
1.777954e+003,-1.568604e-001
1.778918e+003,-1.229752e+000
1.779882e+003,-1.645111e+000
1.780847e+003,-1.574493e+000
1.781811e+003,-9.449692e-001
1.782775e+003,-1.951599e-002
1.783739e+003,2.148895e-001
1.784703e+003,-4.300156e-001
1.785668e+003,-1.007622e+000
1.786632e+003,-1.399269e+000
1.787596e+003,-1.340408e+000
1.788560e+003,-8.448792e-002
1.789525e+003,1.448967e+000
1.790489e+003,1.723656e+000
1.791453e+003,1.072029e+000
1.792417e+003,8.840027e-001
1.793382e+003,1.424843e+000
1.794346e+003,1.919312e+000
1.795310e+003,1.937088e+000
1.796274e+003,2.044945e+000
1.797239e+003,3.104980e+000
1.798203e+003,4.486771e+000
1.799167e+003,3.851181e+000
1.800131e+003,6.291885e-001
1.801095e+003,-1.369629e+000
1.802060e+003,-1.590126e+000
1.803024e+003,-1.442238e+000
1.803988e+003,-8.937302e-001
1.804952e+003,-2.622070e-001
1.805917e+003,5.439758e-001
1.806881e+003,1.155144e+000
1.807845e+003,1.270966e+000
1.808809e+003,9.178696e-001
1.809774e+003,4.074860e-002
1.810738e+003,-1.207039e+000
1.811702e+003,-2.360809e+000
1.812666e+003,-3.114914e+000
1.813630e+003,-3.083961e+000
1.814595e+003,-1.509964e+000
1.815559e+003,9.608459e-001
1.816523e+003,1.486290e+000
1.817487e+003,-1.557922e-001
1.818452e+003,-1.224449e+000
1.819416e+003,-1.723396e+000
1.820380e+003,-1.013878e+000
1.821344e+003,2.812668e+000
1.822309e+003,5.322525e+000
1.823273e+003,2.166405e+000
1.824237e+003,-2.074303e+000
1.825201e+003,-2.374947e+000
1.826166e+003,4.216766e-002
1.827130e+003,1.340775e+000
1.828094e+003,8.584366e-001
1.829058e+003,6.515198e-001
1.830022e+003,2.101921e+000
1.830987e+003,3.285454e+000
1.831951e+003,2.093849e+000
1.832915e+003,4.549408e-002
1.833879e+003,-6.792831e-001
1.834844e+003,-3.268433e-001
1.835808e+003,9.536743e-003
1.836772e+003,1.821899e-001
1.837736e+003,8.873138e-001
1.838701e+003,2.448555e+000
1.839665e+003,3.482330e+000
1.840629e+003,2.587311e+000
1.841593e+003,8.046722e-001
1.842557e+003,4.202499e-001
1.843522e+003,1.400444e+000
1.844486e+003,1.220901e+000
1.845450e+003,-1.377197e+000
1.846414e+003,-2.586060e+000
1.847379e+003,-1.553963e+000
1.848343e+003,-4.348221e-001
1.849307e+003,6.945496e-001
1.850271e+003,1.174942e+000
1.851236e+003,-2.890472e-001
1.852200e+003,-2.103729e+000
1.853164e+003,-1.862488e+000
1.854128e+003,9.371948e-002
1.855093e+003,1.874809e+000
1.856057e+003,2.685768e+000
1.857021e+003,2.427559e+000
1.857985e+003,8.205795e-001
1.858949e+003,-1.066528e+000
1.859914e+003,-1.178780e+000
1.860878e+003,1.365433e-001
1.861842e+003,8.760605e-001
1.862806e+003,1.005753e+000
1.863771e+003,8.676987e-001
1.864735e+003,4.378433e-001
1.865699e+003,2.037811e-002
1.866663e+003,-2.000732e-001
1.867628e+003,-4.145355e-001
1.868592e+003,-1.048233e+000
1.869556e+003,-1.694427e+000
1.870520e+003,-1.408279e+000
1.871484e+003,-3.406906e-001
1.872449e+003,6.158218e-001
1.873413e+003,1.627945e+000
1.874377e+003,2.024376e+000
1.875341e+003,8.048019e-001
1.876306e+003,-2.271042e-001
1.877270e+003,8.987427e-003
1.878234e+003,7.559052e-001
1.879198e+003,1.552650e+000
1.880163e+003,2.147194e+000
1.881127e+003,2.173775e+000
1.882091e+003,1.686317e+000
1.883055e+003,1.047905e+000
1.884020e+003,4.237518e-001
1.884984e+003,-2.845917e-001
1.885948e+003,-1.192810e+000
1.886912e+003,-1.886070e+000
1.887876e+003,-1.451416e+000
1.888841e+003,1.677704e-002
1.889805e+003,1.406113e+000
1.890769e+003,2.878960e+000
1.891733e+003,3.315231e+000
1.892698e+003,2.146339e+000
1.893662e+003,9.718094e-001
1.894626e+003,1.035843e-001
1.895590e+003,-2.820435e-001
1.896555e+003,5.192032e-001
1.897519e+003,1.488815e+000
1.898483e+003,1.062393e+000
1.899447e+003,-3.245087e-001
1.900411e+003,-8.680344e-001
1.901376e+003,-2.192001e-001
1.902340e+003,4.544525e-001
1.903304e+003,7.191849e-001
1.904268e+003,8.833237e-001
1.905233e+003,1.261650e+000
1.906197e+003,1.541176e+000
1.907161e+003,1.325043e+000
1.908125e+003,8.254318e-001
1.909090e+003,3.995209e-001
1.910054e+003,5.415344e-002
1.911018e+003,-5.545959e-001
1.911982e+003,-1.393227e+000
1.912947e+003,-1.411095e+000
1.913911e+003,1.543198e-001
1.914875e+003,2.291267e+000
1.915839e+003,3.462006e+000
1.916803e+003,3.690857e+000
1.917768e+003,3.138519e+000
1.918732e+003,1.673225e+000
1.919696e+003,3.731537e-001
1.920660e+003,-1.036186e+000
1.921625e+003,-1.301880e+000
1.922589e+003,6.948013e-001
1.923553e+003,2.446915e+000
1.924517e+003,2.491974e+000
1.925482e+003,1.851494e+000
1.926446e+003,9.915543e-001
1.927410e+003,2.624893e-001
1.928374e+003,5.733795e-001
1.929339e+003,1.819542e+000
1.930303e+003,2.292381e+000
1.931267e+003,1.454521e+000
1.932231e+003,3.884659e-001
1.933195e+003,-1.218559e+000
1.934160e+003,-2.045921e+000
1.935124e+003,-4.109573e-001
1.936088e+003,1.942291e+000
1.937052e+003,3.236336e+000
1.938017e+003,3.410736e+000
1.938981e+003,2.434616e+000
1.939945e+003,6.623535e-001
1.940909e+003,-8.311310e-001
1.941874e+003,-1.549591e+000
1.942838e+003,-1.804909e+000
1.943802e+003,-1.864769e+000
1.944766e+003,-1.558601e+000
1.945730e+003,-4.260712e-001
1.946695e+003,1.303406e+000
1.947659e+003,1.707397e+000
1.948623e+003,5.875092e-001
1.949587e+003,5.327530e-001
1.950552e+003,2.353645e+000
1.951516e+003,2.978355e+000
1.952480e+003,6.804962e-001
1.953444e+003,-1.505417e+000
1.954409e+003,-1.141212e+000
1.955373e+003,1.209335e-001
1.956337e+003,-3.094635e-001
1.957301e+003,-1.708679e+000
1.958266e+003,-1.385414e+000
1.959230e+003,1.016258e+000
1.960194e+003,2.596611e+000
1.961158e+003,2.480530e+000
1.962122e+003,2.118431e+000
1.963087e+003,1.794769e+000
1.964051e+003,1.437698e+000
1.965015e+003,1.005058e+000
1.965979e+003,5.909500e-001
1.966944e+003,-1.260910e-001
1.967908e+003,-6.264191e-001
1.968872e+003,5.395126e-001
1.969836e+003,2.941399e+000
1.970801e+003,4.053726e+000
1.971765e+003,2.877571e+000
1.972729e+003,1.189423e+000
1.973693e+003,3.694687e-001
1.974657e+003,1.985779e-001
1.975622e+003,4.527359e-001
1.976586e+003,1.033737e+000
1.977550e+003,2.091362e+000
1.978514e+003,3.346725e+000
1.979479e+003,2.885658e+000
1.980443e+003,5.626144e-001
1.981407e+003,-1.065956e+000
1.982371e+003,-1.034348e+000
1.983336e+003,-1.555634e-001
1.984300e+003,1.073013e+000
1.985264e+003,2.148170e+000
1.986228e+003,2.285805e+000
1.987193e+003,1.632225e+000
1.988157e+003,9.035950e-001
1.989121e+003,-2.375793e-002
1.990085e+003,-2.621689e-001
1.991049e+003,7.034073e-001
1.992014e+003,1.359734e+000
1.992978e+003,1.338150e+000
1.993942e+003,1.198769e+000
1.994906e+003,1.016327e+000
1.995871e+003,9.065170e-001
1.996835e+003,1.043358e+000
1.997799e+003,1.277779e+000
1.998763e+003,1.513824e+000
1.999728e+003,1.611465e+000
2.000692e+003,0.000000e+000
2.001656e+003,0.000000e+000
2.002620e+003,0.000000e+000
2.003584e+003,0.000000e+000
2.004549e+003,0.000000e+000
2.005513e+003,0.000000e+000
2.006477e+003,0.000000e+000
2.007441e+003,0.000000e+000
2.008406e+003,0.000000e+000
2.009370e+003,0.000000e+000
2.010334e+003,0.000000e+000
2.011298e+003,0.000000e+000
2.012263e+003,0.000000e+000
2.013227e+003,0.000000e+000
2.014191e+003,0.000000e+000
2.015155e+003,0.000000e+000
2.016120e+003,0.000000e+000
2.017084e+003,0.000000e+000
2.018048e+003,0.000000e+000
2.019012e+003,0.000000e+000
2.019976e+003,0.000000e+000
2.020941e+003,0.000000e+000
2.021905e+003,0.000000e+000
2.022869e+003,0.000000e+000
2.023833e+003,0.000000e+000
2.024798e+003,0.000000e+000
2.025762e+003,0.000000e+000
2.026726e+003,0.000000e+000
2.027690e+003,0.000000e+000
2.028655e+003,0.000000e+000
2.029619e+003,0.000000e+000
2.030583e+003,0.000000e+000
2.031547e+003,0.000000e+000
2.032511e+003,0.000000e+000
2.033476e+003,0.000000e+000
2.034440e+003,0.000000e+000
2.035404e+003,0.000000e+000
2.036368e+003,0.000000e+000
2.037333e+003,0.000000e+000
2.038297e+003,0.000000e+000
2.039261e+003,0.000000e+000
2.040225e+003,0.000000e+000
2.041190e+003,0.000000e+000
2.042154e+003,0.000000e+000
2.043118e+003,0.000000e+000
2.044082e+003,0.000000e+000
2.045047e+003,0.000000e+000
2.046011e+003,0.000000e+000
2.046975e+003,0.000000e+000
2.047939e+003,0.000000e+000
2.048904e+003,0.000000e+000
2.049868e+003,0.000000e+000
2.050832e+003,0.000000e+000
2.051796e+003,0.000000e+000
2.052760e+003,0.000000e+000
2.053725e+003,0.000000e+000
2.054689e+003,0.000000e+000
2.055653e+003,0.000000e+000
2.056617e+003,0.000000e+000
2.057582e+003,0.000000e+000
2.058546e+003,0.000000e+000
2.059510e+003,0.000000e+000
2.060474e+003,0.000000e+000
2.061438e+003,0.000000e+000
2.062403e+003,0.000000e+000
2.063367e+003,0.000000e+000
2.064331e+003,0.000000e+000
2.065295e+003,0.000000e+000
2.066260e+003,0.000000e+000
2.067224e+003,0.000000e+000
2.068188e+003,0.000000e+000
2.069152e+003,0.000000e+000
2.070117e+003,0.000000e+000
2.071081e+003,0.000000e+000
2.072045e+003,0.000000e+000
2.073009e+003,0.000000e+000
2.073974e+003,0.000000e+000
2.074938e+003,0.000000e+000
2.075902e+003,0.000000e+000
2.076866e+003,0.000000e+000
2.077831e+003,0.000000e+000
2.078795e+003,0.000000e+000
2.079759e+003,0.000000e+000
2.080723e+003,0.000000e+000
2.081688e+003,0.000000e+000
2.082652e+003,0.000000e+000
2.083616e+003,0.000000e+000
2.084580e+003,0.000000e+000
2.085544e+003,0.000000e+000
2.086509e+003,0.000000e+000
2.087473e+003,0.000000e+000
2.088437e+003,0.000000e+000
2.089401e+003,0.000000e+000
2.090365e+003,0.000000e+000
2.091330e+003,0.000000e+000
2.092294e+003,0.000000e+000
2.093258e+003,0.000000e+000
2.094222e+003,0.000000e+000
2.095187e+003,0.000000e+000
2.096151e+003,0.000000e+000
2.097115e+003,0.000000e+000
2.098079e+003,0.000000e+000
2.099044e+003,0.000000e+000
2.100008e+003,0.000000e+000
2.100972e+003,0.000000e+000
2.101936e+003,0.000000e+000
2.102901e+003,0.000000e+000
2.103865e+003,0.000000e+000
2.104829e+003,0.000000e+000
2.105793e+003,0.000000e+000
2.106758e+003,0.000000e+000
2.107722e+003,0.000000e+000
2.108686e+003,0.000000e+000
2.109650e+003,0.000000e+000
2.110615e+003,0.000000e+000
2.111579e+003,0.000000e+000
2.112543e+003,0.000000e+000
2.113507e+003,0.000000e+000
2.114471e+003,0.000000e+000
2.115436e+003,0.000000e+000
2.116400e+003,0.000000e+000
2.117364e+003,0.000000e+000
2.118328e+003,0.000000e+000
2.119292e+003,0.000000e+000
2.120257e+003,0.000000e+000
2.121221e+003,0.000000e+000
2.122185e+003,0.000000e+000
2.123149e+003,0.000000e+000
2.124114e+003,0.000000e+000
2.125078e+003,0.000000e+000
2.126042e+003,0.000000e+000
2.127006e+003,0.000000e+000
2.127971e+003,0.000000e+000
2.128935e+003,0.000000e+000
2.129899e+003,0.000000e+000
2.130863e+003,0.000000e+000
2.131828e+003,0.000000e+000
2.132792e+003,0.000000e+000
2.133756e+003,0.000000e+000
2.134720e+003,0.000000e+000
2.135685e+003,0.000000e+000
2.136649e+003,0.000000e+000
2.137613e+003,0.000000e+000
2.138577e+003,0.000000e+000
2.139542e+003,0.000000e+000
2.140506e+003,0.000000e+000
2.141470e+003,0.000000e+000
2.142434e+003,0.000000e+000
2.143398e+003,0.000000e+000
2.144363e+003,0.000000e+000
2.145327e+003,0.000000e+000
2.146291e+003,0.000000e+000
2.147255e+003,0.000000e+000
2.148220e+003,0.000000e+000
2.149184e+003,0.000000e+000
2.150148e+003,0.000000e+000
2.151112e+003,0.000000e+000
2.152077e+003,0.000000e+000
2.153041e+003,0.000000e+000
2.154005e+003,0.000000e+000
2.154969e+003,0.000000e+000
2.155934e+003,0.000000e+000
2.156898e+003,0.000000e+000
2.157862e+003,0.000000e+000
2.158826e+003,0.000000e+000
2.159791e+003,0.000000e+000
2.160755e+003,0.000000e+000
2.161719e+003,0.000000e+000
2.162683e+003,0.000000e+000
2.163647e+003,0.000000e+000
2.164612e+003,0.000000e+000
2.165576e+003,0.000000e+000
2.166540e+003,0.000000e+000
2.167504e+003,0.000000e+000
2.168469e+003,0.000000e+000
2.169433e+003,0.000000e+000
2.170397e+003,0.000000e+000
2.171361e+003,0.000000e+000
2.172325e+003,0.000000e+000
2.173290e+003,0.000000e+000
2.174254e+003,0.000000e+000
2.175218e+003,0.000000e+000
2.176182e+003,0.000000e+000
2.177147e+003,0.000000e+000
2.178111e+003,0.000000e+000
2.179075e+003,0.000000e+000
2.180039e+003,0.000000e+000
2.181004e+003,0.000000e+000
2.181968e+003,0.000000e+000
2.182932e+003,0.000000e+000
2.183896e+003,0.000000e+000
2.184861e+003,0.000000e+000
2.185825e+003,0.000000e+000
2.186789e+003,0.000000e+000
2.187753e+003,0.000000e+000
2.188718e+003,0.000000e+000
2.189682e+003,0.000000e+000
2.190646e+003,0.000000e+000
2.191610e+003,0.000000e+000
2.192574e+003,0.000000e+000
2.193539e+003,0.000000e+000
2.194503e+003,0.000000e+000
2.195467e+003,0.000000e+000
2.196431e+003,0.000000e+000
2.197396e+003,0.000000e+000
2.198360e+003,0.000000e+000
2.199324e+003,0.000000e+000
2.200288e+003,0.000000e+000
2.201252e+003,0.000000e+000
2.202217e+003,0.000000e+000
2.203181e+003,0.000000e+000
2.204145e+003,0.000000e+000
2.205109e+003,0.000000e+000
2.206074e+003,0.000000e+000
2.207038e+003,0.000000e+000
2.208002e+003,0.000000e+000
2.208966e+003,0.000000e+000
2.209931e+003,0.000000e+000
2.210895e+003,0.000000e+000
2.211859e+003,0.000000e+000
2.212823e+003,0.000000e+000
2.213788e+003,0.000000e+000
2.214752e+003,0.000000e+000
2.215716e+003,0.000000e+000
2.216680e+003,0.000000e+000
2.217645e+003,0.000000e+000
2.218609e+003,0.000000e+000
2.219573e+003,0.000000e+000
2.220537e+003,0.000000e+000
2.221501e+003,0.000000e+000
2.222466e+003,0.000000e+000
2.223430e+003,0.000000e+000
2.224394e+003,0.000000e+000
2.225358e+003,0.000000e+000
2.226323e+003,0.000000e+000
2.227287e+003,0.000000e+000
2.228251e+003,0.000000e+000
2.229215e+003,0.000000e+000
2.230179e+003,0.000000e+000
2.231144e+003,0.000000e+000
2.232108e+003,0.000000e+000
2.233072e+003,0.000000e+000
2.234036e+003,0.000000e+000
2.235001e+003,0.000000e+000
2.235965e+003,0.000000e+000
2.236929e+003,0.000000e+000
2.237893e+003,0.000000e+000
2.238858e+003,0.000000e+000
2.239822e+003,0.000000e+000
2.240786e+003,0.000000e+000
2.241750e+003,0.000000e+000
2.242715e+003,0.000000e+000
2.243679e+003,0.000000e+000
2.244643e+003,0.000000e+000
2.245607e+003,0.000000e+000
2.246572e+003,0.000000e+000
2.247536e+003,0.000000e+000
2.248500e+003,0.000000e+000
2.249464e+003,0.000000e+000
2.250428e+003,0.000000e+000
2.251393e+003,0.000000e+000
2.252357e+003,0.000000e+000
2.253321e+003,0.000000e+000
2.254285e+003,0.000000e+000
2.255250e+003,0.000000e+000
2.256214e+003,0.000000e+000
2.257178e+003,0.000000e+000
2.258142e+003,0.000000e+000
2.259106e+003,0.000000e+000
2.260071e+003,0.000000e+000
2.261035e+003,0.000000e+000
2.261999e+003,0.000000e+000
2.262963e+003,0.000000e+000
2.263928e+003,0.000000e+000
2.264892e+003,0.000000e+000
2.265856e+003,0.000000e+000
2.266820e+003,0.000000e+000
2.267785e+003,0.000000e+000
2.268749e+003,0.000000e+000
2.269713e+003,0.000000e+000
2.270677e+003,0.000000e+000
2.271642e+003,0.000000e+000
2.272606e+003,0.000000e+000
2.273570e+003,0.000000e+000
2.274534e+003,0.000000e+000
2.275499e+003,0.000000e+000
2.276463e+003,0.000000e+000
2.277427e+003,0.000000e+000
2.278391e+003,0.000000e+000
2.279355e+003,0.000000e+000
2.280320e+003,0.000000e+000
2.281284e+003,0.000000e+000
2.282248e+003,0.000000e+000
2.283212e+003,0.000000e+000
2.284177e+003,0.000000e+000
2.285141e+003,0.000000e+000
2.286105e+003,0.000000e+000
2.287069e+003,0.000000e+000
2.288033e+003,0.000000e+000
2.288998e+003,0.000000e+000
2.289962e+003,0.000000e+000
2.290926e+003,0.000000e+000
2.291890e+003,0.000000e+000
2.292855e+003,0.000000e+000
2.293819e+003,0.000000e+000
2.294783e+003,0.000000e+000
2.295747e+003,0.000000e+000
2.296712e+003,0.000000e+000
2.297676e+003,0.000000e+000
2.298640e+003,0.000000e+000
2.299604e+003,0.000000e+000
2.300569e+003,0.000000e+000
2.301533e+003,0.000000e+000
2.302497e+003,0.000000e+000
2.303461e+003,0.000000e+000
2.304426e+003,0.000000e+000
2.305390e+003,0.000000e+000
2.306354e+003,0.000000e+000
2.307318e+003,0.000000e+000
2.308282e+003,0.000000e+000
2.309247e+003,0.000000e+000
2.310211e+003,0.000000e+000
2.311175e+003,0.000000e+000
2.312139e+003,0.000000e+000
2.313104e+003,0.000000e+000
2.314068e+003,0.000000e+000
2.315032e+003,0.000000e+000
2.315996e+003,0.000000e+000
2.316960e+003,0.000000e+000
2.317925e+003,0.000000e+000
2.318889e+003,0.000000e+000
2.319853e+003,0.000000e+000
2.320817e+003,0.000000e+000
2.321782e+003,0.000000e+000
2.322746e+003,0.000000e+000
2.323710e+003,0.000000e+000
2.324674e+003,0.000000e+000
2.325639e+003,0.000000e+000
2.326603e+003,0.000000e+000
2.327567e+003,0.000000e+000
2.328531e+003,0.000000e+000
2.329496e+003,0.000000e+000
2.330460e+003,0.000000e+000
2.331424e+003,0.000000e+000
2.332388e+003,0.000000e+000
2.333353e+003,0.000000e+000
2.334317e+003,0.000000e+000
2.335281e+003,0.000000e+000
2.336245e+003,0.000000e+000
2.337209e+003,0.000000e+000
2.338174e+003,0.000000e+000
2.339138e+003,0.000000e+000
2.340102e+003,0.000000e+000
2.341066e+003,0.000000e+000
2.342031e+003,0.000000e+000
2.342995e+003,0.000000e+000
2.343959e+003,0.000000e+000
2.344923e+003,0.000000e+000
2.345887e+003,0.000000e+000
2.346852e+003,0.000000e+000
2.347816e+003,0.000000e+000
2.348780e+003,0.000000e+000
2.349744e+003,0.000000e+000
2.350709e+003,0.000000e+000
2.351673e+003,0.000000e+000
2.352637e+003,0.000000e+000
2.353601e+003,0.000000e+000
2.354566e+003,0.000000e+000
2.355530e+003,0.000000e+000
2.356494e+003,0.000000e+000
2.357458e+003,0.000000e+000
2.358423e+003,0.000000e+000
2.359387e+003,0.000000e+000
2.360351e+003,0.000000e+000
2.361315e+003,0.000000e+000
2.362280e+003,0.000000e+000
2.363244e+003,0.000000e+000
2.364208e+003,0.000000e+000
2.365172e+003,0.000000e+000
2.366136e+003,0.000000e+000
2.367101e+003,0.000000e+000
2.368065e+003,0.000000e+000
2.369029e+003,0.000000e+000
2.369993e+003,0.000000e+000
2.370958e+003,0.000000e+000
2.371922e+003,0.000000e+000
2.372886e+003,0.000000e+000
2.373850e+003,0.000000e+000
2.374814e+003,0.000000e+000
2.375779e+003,0.000000e+000
2.376743e+003,0.000000e+000
2.377707e+003,0.000000e+000
2.378671e+003,0.000000e+000
2.379636e+003,0.000000e+000
2.380600e+003,0.000000e+000
2.381564e+003,0.000000e+000
2.382528e+003,0.000000e+000
2.383493e+003,0.000000e+000
2.384457e+003,0.000000e+000
2.385421e+003,0.000000e+000
2.386385e+003,0.000000e+000
2.387350e+003,0.000000e+000
2.388314e+003,0.000000e+000
2.389278e+003,0.000000e+000
2.390242e+003,0.000000e+000
2.391207e+003,0.000000e+000
2.392171e+003,0.000000e+000
2.393135e+003,0.000000e+000
2.394099e+003,0.000000e+000
2.395063e+003,0.000000e+000
2.396028e+003,0.000000e+000
2.396992e+003,0.000000e+000
2.397956e+003,0.000000e+000
2.398920e+003,0.000000e+000
2.399885e+003,0.000000e+000
2.400849e+003,0.000000e+000
2.401813e+003,0.000000e+000
2.402777e+003,0.000000e+000
2.403741e+003,0.000000e+000
2.404706e+003,0.000000e+000
2.405670e+003,0.000000e+000
2.406634e+003,0.000000e+000
2.407598e+003,0.000000e+000
2.408563e+003,0.000000e+000
2.409527e+003,0.000000e+000
2.410491e+003,0.000000e+000
2.411455e+003,0.000000e+000
2.412420e+003,0.000000e+000
2.413384e+003,0.000000e+000
2.414348e+003,0.000000e+000
2.415312e+003,0.000000e+000
2.416277e+003,0.000000e+000
2.417241e+003,0.000000e+000
2.418205e+003,0.000000e+000
2.419169e+003,0.000000e+000
2.420134e+003,0.000000e+000
2.421098e+003,0.000000e+000
2.422062e+003,0.000000e+000
2.423026e+003,0.000000e+000
2.423990e+003,0.000000e+000
2.424955e+003,0.000000e+000
2.425919e+003,0.000000e+000
2.426883e+003,0.000000e+000
2.427847e+003,0.000000e+000
2.428812e+003,0.000000e+000
2.429776e+003,0.000000e+000
2.430740e+003,0.000000e+000
2.431704e+003,0.000000e+000
2.432668e+003,0.000000e+000
2.433633e+003,0.000000e+000
2.434597e+003,0.000000e+000
2.435561e+003,0.000000e+000
2.436525e+003,0.000000e+000
2.437490e+003,0.000000e+000
2.438454e+003,0.000000e+000
2.439418e+003,0.000000e+000
2.440382e+003,0.000000e+000
2.441347e+003,0.000000e+000
2.442311e+003,0.000000e+000
2.443275e+003,0.000000e+000
2.444239e+003,0.000000e+000
2.445204e+003,0.000000e+000
2.446168e+003,0.000000e+000
2.447132e+003,0.000000e+000
2.448096e+003,0.000000e+000
2.449061e+003,0.000000e+000
2.450025e+003,0.000000e+000
2.450989e+003,0.000000e+000
2.451953e+003,0.000000e+000
2.452917e+003,0.000000e+000
2.453882e+003,0.000000e+000
2.454846e+003,0.000000e+000
2.455810e+003,0.000000e+000
2.456774e+003,0.000000e+000
2.457739e+003,0.000000e+000
2.458703e+003,0.000000e+000
2.459667e+003,0.000000e+000
2.460631e+003,0.000000e+000
2.461595e+003,0.000000e+000
2.462560e+003,0.000000e+000
2.463524e+003,0.000000e+000
2.464488e+003,0.000000e+000
2.465452e+003,0.000000e+000
2.466417e+003,0.000000e+000
2.467381e+003,0.000000e+000
2.468345e+003,0.000000e+000
2.469309e+003,0.000000e+000
2.470274e+003,0.000000e+000
2.471238e+003,0.000000e+000
2.472202e+003,0.000000e+000
2.473166e+003,0.000000e+000
2.474131e+003,0.000000e+000
2.475095e+003,0.000000e+000
2.476059e+003,0.000000e+000
2.477023e+003,0.000000e+000
2.477988e+003,0.000000e+000
2.478952e+003,0.000000e+000
2.479916e+003,0.000000e+000
2.480880e+003,0.000000e+000
2.481844e+003,0.000000e+000
2.482809e+003,0.000000e+000
2.483773e+003,0.000000e+000
2.484737e+003,0.000000e+000
2.485701e+003,0.000000e+000
2.486666e+003,0.000000e+000
2.487630e+003,0.000000e+000
2.488594e+003,0.000000e+000
2.489558e+003,0.000000e+000
2.490522e+003,0.000000e+000
2.491487e+003,0.000000e+000
2.492451e+003,0.000000e+000
2.493415e+003,0.000000e+000
2.494379e+003,0.000000e+000
2.495344e+003,0.000000e+000
2.496308e+003,0.000000e+000
2.497272e+003,0.000000e+000
2.498236e+003,0.000000e+000
2.499201e+003,0.000000e+000
2.500165e+003,0.000000e+000
2.501129e+003,0.000000e+000
2.502093e+003,0.000000e+000
2.503058e+003,0.000000e+000
2.504022e+003,0.000000e+000
2.504986e+003,0.000000e+000
2.505950e+003,0.000000e+000
2.506915e+003,0.000000e+000
2.507879e+003,0.000000e+000
2.508843e+003,0.000000e+000
2.509807e+003,0.000000e+000
2.510771e+003,0.000000e+000
2.511736e+003,0.000000e+000
2.512700e+003,0.000000e+000
2.513664e+003,0.000000e+000
2.514628e+003,0.000000e+000
2.515593e+003,0.000000e+000
2.516557e+003,0.000000e+000
2.517521e+003,0.000000e+000
2.518485e+003,0.000000e+000
2.519449e+003,0.000000e+000
2.520414e+003,0.000000e+000
2.521378e+003,0.000000e+000
2.522342e+003,0.000000e+000
2.523306e+003,0.000000e+000
2.524271e+003,0.000000e+000
2.525235e+003,0.000000e+000
2.526199e+003,0.000000e+000
2.527163e+003,0.000000e+000
2.528128e+003,0.000000e+000
2.529092e+003,0.000000e+000
2.530056e+003,0.000000e+000
2.531020e+003,0.000000e+000
2.531985e+003,0.000000e+000
2.532949e+003,0.000000e+000
2.533913e+003,0.000000e+000
2.534877e+003,0.000000e+000
2.535842e+003,0.000000e+000
2.536806e+003,0.000000e+000
2.537770e+003,0.000000e+000
2.538734e+003,0.000000e+000
2.539698e+003,0.000000e+000
2.540663e+003,0.000000e+000
2.541627e+003,0.000000e+000
2.542591e+003,0.000000e+000
2.543555e+003,0.000000e+000
2.544520e+003,0.000000e+000
2.545484e+003,0.000000e+000
2.546448e+003,0.000000e+000
2.547412e+003,0.000000e+000
2.548376e+003,0.000000e+000
2.549341e+003,0.000000e+000
2.550305e+003,0.000000e+000
2.551269e+003,0.000000e+000
2.552233e+003,0.000000e+000
2.553198e+003,0.000000e+000
2.554162e+003,0.000000e+000
2.555126e+003,0.000000e+000
2.556090e+003,0.000000e+000
2.557055e+003,0.000000e+000
2.558019e+003,0.000000e+000
2.558983e+003,0.000000e+000
2.559947e+003,0.000000e+000
2.560912e+003,0.000000e+000
2.561876e+003,0.000000e+000
2.562840e+003,0.000000e+000
2.563804e+003,0.000000e+000
2.564769e+003,0.000000e+000
2.565733e+003,0.000000e+000
2.566697e+003,0.000000e+000
2.567661e+003,0.000000e+000
2.568625e+003,0.000000e+000
2.569590e+003,0.000000e+000
2.570554e+003,0.000000e+000
2.571518e+003,0.000000e+000
2.572482e+003,0.000000e+000
2.573447e+003,0.000000e+000
2.574411e+003,0.000000e+000
2.575375e+003,0.000000e+000
2.576339e+003,0.000000e+000
2.577303e+003,0.000000e+000
2.578268e+003,0.000000e+000
2.579232e+003,0.000000e+000
2.580196e+003,0.000000e+000
2.581160e+003,0.000000e+000
2.582125e+003,0.000000e+000
2.583089e+003,0.000000e+000
2.584053e+003,0.000000e+000
2.585017e+003,0.000000e+000
2.585982e+003,0.000000e+000
2.586946e+003,0.000000e+000
2.587910e+003,0.000000e+000
2.588874e+003,0.000000e+000
2.589839e+003,0.000000e+000
2.590803e+003,0.000000e+000
2.591767e+003,0.000000e+000
2.592731e+003,0.000000e+000
2.593696e+003,0.000000e+000
2.594660e+003,0.000000e+000
2.595624e+003,0.000000e+000
2.596588e+003,0.000000e+000
2.597552e+003,0.000000e+000
2.598517e+003,0.000000e+000
2.599481e+003,0.000000e+000
2.600445e+003,0.000000e+000
2.601409e+003,0.000000e+000
2.602374e+003,0.000000e+000
2.603338e+003,0.000000e+000
2.604302e+003,0.000000e+000
2.605266e+003,0.000000e+000
2.606230e+003,0.000000e+000
2.607195e+003,0.000000e+000
2.608159e+003,0.000000e+000
2.609123e+003,0.000000e+000
2.610087e+003,0.000000e+000
2.611052e+003,0.000000e+000
2.612016e+003,0.000000e+000
2.612980e+003,0.000000e+000
2.613944e+003,0.000000e+000
2.614909e+003,0.000000e+000
2.615873e+003,0.000000e+000
2.616837e+003,0.000000e+000
2.617801e+003,0.000000e+000
2.618766e+003,0.000000e+000
2.619730e+003,0.000000e+000
2.620694e+003,0.000000e+000
2.621658e+003,0.000000e+000
2.622623e+003,0.000000e+000
2.623587e+003,0.000000e+000
2.624551e+003,0.000000e+000
2.625515e+003,0.000000e+000
2.626479e+003,0.000000e+000
2.627444e+003,0.000000e+000
2.628408e+003,0.000000e+000
2.629372e+003,0.000000e+000
2.630336e+003,0.000000e+000
2.631301e+003,0.000000e+000
2.632265e+003,0.000000e+000
2.633229e+003,0.000000e+000
2.634193e+003,0.000000e+000
2.635157e+003,0.000000e+000
2.636122e+003,0.000000e+000
2.637086e+003,0.000000e+000
2.638050e+003,0.000000e+000
2.639014e+003,0.000000e+000
2.639979e+003,0.000000e+000
2.640943e+003,0.000000e+000
2.641907e+003,0.000000e+000
2.642871e+003,0.000000e+000
2.643836e+003,0.000000e+000
2.644800e+003,0.000000e+000
2.645764e+003,0.000000e+000
2.646728e+003,0.000000e+000
2.647693e+003,0.000000e+000
2.648657e+003,0.000000e+000
2.649621e+003,0.000000e+000
2.650585e+003,0.000000e+000
2.651550e+003,0.000000e+000
2.652514e+003,0.000000e+000
2.653478e+003,0.000000e+000
2.654442e+003,0.000000e+000
2.655406e+003,0.000000e+000
2.656371e+003,0.000000e+000
2.657335e+003,0.000000e+000
2.658299e+003,0.000000e+000
2.659263e+003,0.000000e+000
2.660228e+003,0.000000e+000
2.661192e+003,0.000000e+000
2.662156e+003,0.000000e+000
2.663120e+003,0.000000e+000
2.664084e+003,0.000000e+000
2.665049e+003,0.000000e+000
2.666013e+003,0.000000e+000
2.666977e+003,0.000000e+000
2.667941e+003,0.000000e+000
2.668906e+003,0.000000e+000
2.669870e+003,0.000000e+000
2.670834e+003,0.000000e+000
2.671798e+003,0.000000e+000
2.672763e+003,0.000000e+000
2.673727e+003,0.000000e+000
2.674691e+003,0.000000e+000
2.675655e+003,0.000000e+000
2.676620e+003,0.000000e+000
2.677584e+003,0.000000e+000
2.678548e+003,0.000000e+000
2.679512e+003,0.000000e+000
2.680477e+003,0.000000e+000
2.681441e+003,0.000000e+000
2.682405e+003,0.000000e+000
2.683369e+003,0.000000e+000
2.684333e+003,0.000000e+000
2.685298e+003,0.000000e+000
2.686262e+003,0.000000e+000
2.687226e+003,0.000000e+000
2.688190e+003,0.000000e+000
2.689155e+003,0.000000e+000
2.690119e+003,0.000000e+000
2.691083e+003,0.000000e+000
2.692047e+003,0.000000e+000
2.693011e+003,0.000000e+000
2.693976e+003,0.000000e+000
2.694940e+003,0.000000e+000
2.695904e+003,0.000000e+000
2.696868e+003,0.000000e+000
2.697833e+003,0.000000e+000
2.698797e+003,0.000000e+000
2.699761e+003,0.000000e+000
2.700725e+003,0.000000e+000
2.701690e+003,0.000000e+000
2.702654e+003,0.000000e+000
2.703618e+003,0.000000e+000
2.704582e+003,0.000000e+000
2.705547e+003,0.000000e+000
2.706511e+003,0.000000e+000
2.707475e+003,0.000000e+000
2.708439e+003,0.000000e+000
2.709404e+003,0.000000e+000
2.710368e+003,0.000000e+000
2.711332e+003,0.000000e+000
2.712296e+003,0.000000e+000
2.713260e+003,0.000000e+000
2.714225e+003,0.000000e+000
2.715189e+003,0.000000e+000
2.716153e+003,0.000000e+000
2.717117e+003,0.000000e+000
2.718082e+003,0.000000e+000
2.719046e+003,0.000000e+000
2.720010e+003,0.000000e+000
2.720974e+003,0.000000e+000
2.721938e+003,0.000000e+000
2.722903e+003,0.000000e+000
2.723867e+003,0.000000e+000
2.724831e+003,0.000000e+000
2.725795e+003,0.000000e+000
2.726760e+003,0.000000e+000
2.727724e+003,0.000000e+000
2.728688e+003,0.000000e+000
2.729652e+003,0.000000e+000
2.730617e+003,0.000000e+000
2.731581e+003,0.000000e+000
2.732545e+003,0.000000e+000
2.733509e+003,0.000000e+000
2.734474e+003,0.000000e+000
2.735438e+003,0.000000e+000
2.736402e+003,0.000000e+000
2.737366e+003,0.000000e+000
2.738331e+003,0.000000e+000
2.739295e+003,0.000000e+000
2.740259e+003,0.000000e+000
2.741223e+003,0.000000e+000
2.742188e+003,0.000000e+000
2.743152e+003,0.000000e+000
2.744116e+003,0.000000e+000
2.745080e+003,0.000000e+000
2.746044e+003,0.000000e+000
2.747009e+003,0.000000e+000
2.747973e+003,0.000000e+000
2.748937e+003,0.000000e+000
2.749901e+003,0.000000e+000
2.750865e+003,0.000000e+000
2.751830e+003,0.000000e+000
2.752794e+003,0.000000e+000
2.753758e+003,0.000000e+000
2.754722e+003,0.000000e+000
2.755687e+003,0.000000e+000
2.756651e+003,0.000000e+000
2.757615e+003,0.000000e+000
2.758579e+003,0.000000e+000
2.759544e+003,0.000000e+000
2.760508e+003,0.000000e+000
2.761472e+003,0.000000e+000
2.762436e+003,0.000000e+000
2.763401e+003,0.000000e+000
2.764365e+003,0.000000e+000
2.765329e+003,0.000000e+000
2.766293e+003,0.000000e+000
2.767258e+003,0.000000e+000
2.768222e+003,0.000000e+000
2.769186e+003,0.000000e+000
2.770150e+003,0.000000e+000
2.771115e+003,0.000000e+000
2.772079e+003,0.000000e+000
2.773043e+003,0.000000e+000
2.774007e+003,0.000000e+000
2.774971e+003,0.000000e+000
2.775936e+003,0.000000e+000
2.776900e+003,0.000000e+000
2.777864e+003,0.000000e+000
2.778828e+003,0.000000e+000
2.779792e+003,0.000000e+000
2.780757e+003,0.000000e+000
2.781721e+003,0.000000e+000
2.782685e+003,0.000000e+000
2.783649e+003,0.000000e+000
2.784614e+003,0.000000e+000
2.785578e+003,0.000000e+000
2.786542e+003,0.000000e+000
2.787506e+003,0.000000e+000
2.788471e+003,0.000000e+000
2.789435e+003,0.000000e+000
2.790399e+003,0.000000e+000
2.791363e+003,0.000000e+000
2.792328e+003,0.000000e+000
2.793292e+003,0.000000e+000
2.794256e+003,0.000000e+000
2.795220e+003,0.000000e+000
2.796185e+003,0.000000e+000
2.797149e+003,0.000000e+000
2.798113e+003,0.000000e+000
2.799077e+003,0.000000e+000
2.800042e+003,0.000000e+000
2.801006e+003,0.000000e+000
2.801970e+003,0.000000e+000
2.802934e+003,0.000000e+000
2.803898e+003,0.000000e+000
2.804863e+003,0.000000e+000
2.805827e+003,0.000000e+000
2.806791e+003,0.000000e+000
2.807755e+003,0.000000e+000
2.808719e+003,0.000000e+000
2.809684e+003,0.000000e+000
2.810648e+003,0.000000e+000
2.811612e+003,0.000000e+000
2.812576e+003,0.000000e+000
2.813541e+003,0.000000e+000
2.814505e+003,0.000000e+000
2.815469e+003,0.000000e+000
2.816433e+003,0.000000e+000
2.817398e+003,0.000000e+000
2.818362e+003,0.000000e+000
2.819326e+003,0.000000e+000
2.820290e+003,0.000000e+000
2.821255e+003,0.000000e+000
2.822219e+003,0.000000e+000
2.823183e+003,0.000000e+000
2.824147e+003,0.000000e+000
2.825112e+003,0.000000e+000
2.826076e+003,0.000000e+000
2.827040e+003,0.000000e+000
2.828004e+003,0.000000e+000
2.828969e+003,0.000000e+000
2.829933e+003,0.000000e+000
2.830897e+003,0.000000e+000
2.831861e+003,0.000000e+000
2.832825e+003,0.000000e+000
2.833790e+003,0.000000e+000
2.834754e+003,0.000000e+000
2.835718e+003,0.000000e+000
2.836682e+003,0.000000e+000
2.837646e+003,0.000000e+000
2.838611e+003,0.000000e+000
2.839575e+003,0.000000e+000
2.840539e+003,0.000000e+000
2.841503e+003,0.000000e+000
2.842468e+003,0.000000e+000
2.843432e+003,0.000000e+000
2.844396e+003,0.000000e+000
2.845360e+003,0.000000e+000
2.846325e+003,0.000000e+000
2.847289e+003,0.000000e+000
2.848253e+003,0.000000e+000
2.849217e+003,0.000000e+000
2.850182e+003,0.000000e+000
2.851146e+003,0.000000e+000
2.852110e+003,0.000000e+000
2.853074e+003,0.000000e+000
2.854039e+003,0.000000e+000
2.855003e+003,0.000000e+000
2.855967e+003,0.000000e+000
2.856931e+003,0.000000e+000
2.857896e+003,0.000000e+000
2.858860e+003,0.000000e+000
2.859824e+003,0.000000e+000
2.860788e+003,0.000000e+000
2.861752e+003,0.000000e+000
2.862717e+003,0.000000e+000
2.863681e+003,0.000000e+000
2.864645e+003,0.000000e+000
2.865609e+003,0.000000e+000
2.866573e+003,0.000000e+000
2.867538e+003,0.000000e+000
2.868502e+003,0.000000e+000
2.869466e+003,0.000000e+000
2.870430e+003,0.000000e+000
2.871395e+003,0.000000e+000
2.872359e+003,0.000000e+000
2.873323e+003,0.000000e+000
2.874287e+003,0.000000e+000
2.875252e+003,0.000000e+000
2.876216e+003,0.000000e+000
2.877180e+003,0.000000e+000
2.878144e+003,0.000000e+000
2.879109e+003,0.000000e+000
2.880073e+003,0.000000e+000
2.881037e+003,0.000000e+000
2.882001e+003,0.000000e+000
2.882966e+003,0.000000e+000
2.883930e+003,0.000000e+000
2.884894e+003,0.000000e+000
2.885858e+003,0.000000e+000
2.886823e+003,0.000000e+000
2.887787e+003,0.000000e+000
2.888751e+003,0.000000e+000
2.889715e+003,0.000000e+000
2.890679e+003,0.000000e+000
2.891644e+003,0.000000e+000
2.892608e+003,0.000000e+000
2.893572e+003,0.000000e+000
2.894536e+003,0.000000e+000
2.895500e+003,0.000000e+000
2.896465e+003,0.000000e+000
2.897429e+003,0.000000e+000
2.898393e+003,0.000000e+000
2.899357e+003,0.000000e+000
2.900322e+003,0.000000e+000
2.901286e+003,0.000000e+000
2.902250e+003,0.000000e+000
2.903214e+003,0.000000e+000
2.904179e+003,0.000000e+000
2.905143e+003,0.000000e+000
2.906107e+003,0.000000e+000
2.907071e+003,0.000000e+000
2.908036e+003,0.000000e+000
2.909000e+003,0.000000e+000
2.909964e+003,0.000000e+000
2.910928e+003,0.000000e+000
2.911893e+003,0.000000e+000
2.912857e+003,0.000000e+000
2.913821e+003,0.000000e+000
2.914785e+003,0.000000e+000
2.915750e+003,0.000000e+000
2.916714e+003,0.000000e+000
2.917678e+003,0.000000e+000
2.918642e+003,0.000000e+000
2.919606e+003,0.000000e+000
2.920571e+003,0.000000e+000
2.921535e+003,0.000000e+000
2.922499e+003,0.000000e+000
2.923463e+003,0.000000e+000
2.924427e+003,0.000000e+000
2.925392e+003,0.000000e+000
2.926356e+003,0.000000e+000
2.927320e+003,0.000000e+000
2.928284e+003,0.000000e+000
2.929249e+003,0.000000e+000
2.930213e+003,0.000000e+000
2.931177e+003,0.000000e+000
2.932141e+003,0.000000e+000
2.933106e+003,0.000000e+000
2.934070e+003,0.000000e+000
2.935034e+003,0.000000e+000
2.935998e+003,0.000000e+000
2.936963e+003,0.000000e+000
2.937927e+003,0.000000e+000
2.938891e+003,0.000000e+000
2.939855e+003,0.000000e+000
2.940820e+003,0.000000e+000
2.941784e+003,0.000000e+000
2.942748e+003,0.000000e+000
2.943712e+003,0.000000e+000
2.944677e+003,0.000000e+000
2.945641e+003,0.000000e+000
2.946605e+003,0.000000e+000
2.947569e+003,0.000000e+000
2.948533e+003,0.000000e+000
2.949498e+003,0.000000e+000
2.950462e+003,0.000000e+000
2.951426e+003,0.000000e+000
2.952390e+003,0.000000e+000
2.953354e+003,0.000000e+000
2.954319e+003,0.000000e+000
2.955283e+003,0.000000e+000
2.956247e+003,0.000000e+000
2.957211e+003,0.000000e+000
2.958176e+003,0.000000e+000
2.959140e+003,0.000000e+000
2.960104e+003,0.000000e+000
2.961068e+003,0.000000e+000
2.962033e+003,0.000000e+000
2.962997e+003,0.000000e+000
2.963961e+003,0.000000e+000
2.964925e+003,0.000000e+000
2.965890e+003,0.000000e+000
2.966854e+003,0.000000e+000
2.967818e+003,0.000000e+000
2.968782e+003,0.000000e+000
2.969747e+003,0.000000e+000
2.970711e+003,0.000000e+000
2.971675e+003,0.000000e+000
2.972639e+003,0.000000e+000
2.973604e+003,0.000000e+000
2.974568e+003,0.000000e+000
2.975532e+003,0.000000e+000
2.976496e+003,0.000000e+000
2.977460e+003,0.000000e+000
2.978425e+003,0.000000e+000
2.979389e+003,0.000000e+000
2.980353e+003,0.000000e+000
2.981317e+003,0.000000e+000
2.982281e+003,0.000000e+000
2.983246e+003,0.000000e+000
2.984210e+003,0.000000e+000
2.985174e+003,0.000000e+000
2.986138e+003,0.000000e+000
2.987103e+003,0.000000e+000
2.988067e+003,0.000000e+000
2.989031e+003,0.000000e+000
2.989995e+003,0.000000e+000
2.990960e+003,0.000000e+000
2.991924e+003,0.000000e+000
2.992888e+003,0.000000e+000
2.993852e+003,0.000000e+000
2.994817e+003,0.000000e+000
2.995781e+003,0.000000e+000
2.996745e+003,0.000000e+000
2.997709e+003,0.000000e+000
2.998674e+003,0.000000e+000
2.999638e+003,0.000000e+000
3.000602e+003,0.000000e+000
3.001566e+003,0.000000e+000
3.002531e+003,0.000000e+000
3.003495e+003,0.000000e+000
3.004459e+003,0.000000e+000
3.005423e+003,0.000000e+000
3.006387e+003,0.000000e+000
3.007352e+003,0.000000e+000
3.008316e+003,0.000000e+000
3.009280e+003,0.000000e+000
3.010244e+003,0.000000e+000
3.011208e+003,0.000000e+000
3.012173e+003,0.000000e+000
3.013137e+003,0.000000e+000
3.014101e+003,0.000000e+000
3.015065e+003,0.000000e+000
3.016030e+003,0.000000e+000
3.016994e+003,0.000000e+000
3.017958e+003,0.000000e+000
3.018922e+003,0.000000e+000
3.019887e+003,0.000000e+000
3.020851e+003,0.000000e+000
3.021815e+003,0.000000e+000
3.022779e+003,0.000000e+000
3.023744e+003,0.000000e+000
3.024708e+003,0.000000e+000
3.025672e+003,0.000000e+000
3.026636e+003,0.000000e+000
3.027601e+003,0.000000e+000
3.028565e+003,0.000000e+000
3.029529e+003,0.000000e+000
3.030493e+003,0.000000e+000
3.031458e+003,0.000000e+000
3.032422e+003,0.000000e+000
3.033386e+003,0.000000e+000
3.034350e+003,0.000000e+000
3.035314e+003,0.000000e+000
3.036279e+003,0.000000e+000
3.037243e+003,0.000000e+000
3.038207e+003,0.000000e+000
3.039171e+003,0.000000e+000
3.040135e+003,0.000000e+000
3.041100e+003,0.000000e+000
3.042064e+003,0.000000e+000
3.043028e+003,0.000000e+000
3.043992e+003,0.000000e+000
3.044957e+003,0.000000e+000
3.045921e+003,0.000000e+000
3.046885e+003,0.000000e+000
3.047849e+003,0.000000e+000
3.048814e+003,0.000000e+000
3.049778e+003,0.000000e+000
3.050742e+003,0.000000e+000
3.051706e+003,0.000000e+000
3.052671e+003,0.000000e+000
3.053635e+003,0.000000e+000
3.054599e+003,0.000000e+000
3.055563e+003,0.000000e+000
3.056528e+003,0.000000e+000
3.057492e+003,0.000000e+000
3.058456e+003,0.000000e+000
3.059420e+003,0.000000e+000
3.060385e+003,0.000000e+000
3.061349e+003,0.000000e+000
3.062313e+003,0.000000e+000
3.063277e+003,0.000000e+000
3.064241e+003,0.000000e+000
3.065206e+003,0.000000e+000
3.066170e+003,0.000000e+000
3.067134e+003,0.000000e+000
3.068098e+003,0.000000e+000
3.069063e+003,0.000000e+000
3.070027e+003,0.000000e+000
3.070991e+003,0.000000e+000
3.071955e+003,0.000000e+000
3.072920e+003,0.000000e+000
3.073884e+003,0.000000e+000
3.074848e+003,0.000000e+000
3.075812e+003,0.000000e+000
3.076777e+003,0.000000e+000
3.077741e+003,0.000000e+000
3.078705e+003,0.000000e+000
3.079669e+003,0.000000e+000
3.080634e+003,0.000000e+000
3.081598e+003,0.000000e+000
3.082562e+003,0.000000e+000
3.083526e+003,0.000000e+000
3.084490e+003,0.000000e+000
3.085455e+003,0.000000e+000
3.086419e+003,0.000000e+000
3.087383e+003,0.000000e+000
3.088347e+003,0.000000e+000
3.089312e+003,0.000000e+000
3.090276e+003,0.000000e+000
3.091240e+003,0.000000e+000
3.092204e+003,0.000000e+000
3.093168e+003,0.000000e+000
3.094133e+003,0.000000e+000
3.095097e+003,0.000000e+000
3.096061e+003,0.000000e+000
3.097025e+003,0.000000e+000
3.097990e+003,0.000000e+000
3.098954e+003,0.000000e+000
3.099918e+003,0.000000e+000
3.100882e+003,0.000000e+000
3.101847e+003,0.000000e+000
3.102811e+003,0.000000e+000
3.103775e+003,0.000000e+000
3.104739e+003,0.000000e+000
3.105704e+003,0.000000e+000
3.106668e+003,0.000000e+000
3.107632e+003,0.000000e+000
3.108596e+003,0.000000e+000
3.109561e+003,0.000000e+000
3.110525e+003,0.000000e+000
3.111489e+003,0.000000e+000
3.112453e+003,0.000000e+000
3.113417e+003,0.000000e+000
3.114382e+003,0.000000e+000
3.115346e+003,0.000000e+000
3.116310e+003,0.000000e+000
3.117274e+003,0.000000e+000
3.118239e+003,0.000000e+000
3.119203e+003,0.000000e+000
3.120167e+003,0.000000e+000
3.121131e+003,0.000000e+000
3.122095e+003,0.000000e+000
3.123060e+003,0.000000e+000
3.124024e+003,0.000000e+000
3.124988e+003,0.000000e+000
3.125952e+003,0.000000e+000
3.126917e+003,0.000000e+000
3.127881e+003,0.000000e+000
3.128845e+003,0.000000e+000
3.129809e+003,0.000000e+000
3.130774e+003,0.000000e+000
3.131738e+003,0.000000e+000
3.132702e+003,0.000000e+000
3.133666e+003,0.000000e+000
3.134631e+003,0.000000e+000
3.135595e+003,0.000000e+000
3.136559e+003,0.000000e+000
3.137523e+003,0.000000e+000
3.138488e+003,0.000000e+000
3.139452e+003,0.000000e+000
3.140416e+003,0.000000e+000
3.141380e+003,0.000000e+000
3.142344e+003,0.000000e+000
3.143309e+003,0.000000e+000
3.144273e+003,0.000000e+000
3.145237e+003,0.000000e+000
3.146201e+003,0.000000e+000
3.147166e+003,0.000000e+000
3.148130e+003,0.000000e+000
3.149094e+003,0.000000e+000
3.150058e+003,0.000000e+000
3.151022e+003,0.000000e+000
3.151987e+003,0.000000e+000
3.152951e+003,0.000000e+000
3.153915e+003,0.000000e+000
3.154879e+003,0.000000e+000
3.155844e+003,0.000000e+000
3.156808e+003,0.000000e+000
3.157772e+003,0.000000e+000
3.158736e+003,0.000000e+000
3.159701e+003,0.000000e+000
3.160665e+003,0.000000e+000
3.161629e+003,0.000000e+000
3.162593e+003,0.000000e+000
3.163558e+003,0.000000e+000
3.164522e+003,0.000000e+000
3.165486e+003,0.000000e+000
3.166450e+003,0.000000e+000
3.167415e+003,0.000000e+000
3.168379e+003,0.000000e+000
3.169343e+003,0.000000e+000
3.170307e+003,0.000000e+000
3.171271e+003,0.000000e+000
3.172236e+003,0.000000e+000
3.173200e+003,0.000000e+000
3.174164e+003,0.000000e+000
3.175128e+003,0.000000e+000
3.176093e+003,0.000000e+000
3.177057e+003,0.000000e+000
3.178021e+003,0.000000e+000
3.178985e+003,0.000000e+000
3.179949e+003,0.000000e+000
3.180914e+003,0.000000e+000
3.181878e+003,0.000000e+000
3.182842e+003,0.000000e+000
3.183806e+003,0.000000e+000
3.184771e+003,0.000000e+000
3.185735e+003,0.000000e+000
3.186699e+003,0.000000e+000
3.187663e+003,0.000000e+000
3.188628e+003,0.000000e+000
3.189592e+003,0.000000e+000
3.190556e+003,0.000000e+000
3.191520e+003,0.000000e+000
3.192485e+003,0.000000e+000
3.193449e+003,0.000000e+000
3.194413e+003,0.000000e+000
3.195377e+003,0.000000e+000
3.196342e+003,0.000000e+000
3.197306e+003,0.000000e+000
3.198270e+003,0.000000e+000
3.199234e+003,0.000000e+000
3.200198e+003,0.000000e+000
3.201163e+003,0.000000e+000
3.202127e+003,0.000000e+000
3.203091e+003,0.000000e+000
3.204055e+003,0.000000e+000
3.205020e+003,0.000000e+000
3.205984e+003,0.000000e+000
3.206948e+003,0.000000e+000
3.207912e+003,0.000000e+000
3.208876e+003,0.000000e+000
3.209841e+003,0.000000e+000
3.210805e+003,0.000000e+000
3.211769e+003,0.000000e+000
3.212733e+003,0.000000e+000
3.213698e+003,0.000000e+000
3.214662e+003,0.000000e+000
3.215626e+003,0.000000e+000
3.216590e+003,0.000000e+000
3.217555e+003,0.000000e+000
3.218519e+003,0.000000e+000
3.219483e+003,0.000000e+000
3.220447e+003,0.000000e+000
3.221412e+003,0.000000e+000
3.222376e+003,0.000000e+000
3.223340e+003,0.000000e+000
3.224304e+003,0.000000e+000
3.225269e+003,0.000000e+000
3.226233e+003,0.000000e+000
3.227197e+003,0.000000e+000
3.228161e+003,0.000000e+000
3.229125e+003,0.000000e+000
3.230090e+003,0.000000e+000
3.231054e+003,0.000000e+000
3.232018e+003,0.000000e+000
3.232982e+003,0.000000e+000
3.233947e+003,0.000000e+000
3.234911e+003,0.000000e+000
3.235875e+003,0.000000e+000
3.236839e+003,0.000000e+000
3.237803e+003,0.000000e+000
3.238768e+003,0.000000e+000
3.239732e+003,0.000000e+000
3.240696e+003,0.000000e+000
3.241660e+003,0.000000e+000
3.242625e+003,0.000000e+000
3.243589e+003,0.000000e+000
3.244553e+003,0.000000e+000
3.245517e+003,0.000000e+000
3.246482e+003,0.000000e+000
3.247446e+003,0.000000e+000
3.248410e+003,0.000000e+000
3.249374e+003,0.000000e+000
3.250339e+003,0.000000e+000
3.251303e+003,0.000000e+000
3.252267e+003,0.000000e+000
3.253231e+003,0.000000e+000
3.254196e+003,0.000000e+000
3.255160e+003,0.000000e+000
3.256124e+003,0.000000e+000
3.257088e+003,0.000000e+000
3.258052e+003,0.000000e+000
3.259017e+003,0.000000e+000
3.259981e+003,0.000000e+000
3.260945e+003,0.000000e+000
3.261909e+003,0.000000e+000
3.262874e+003,0.000000e+000
3.263838e+003,0.000000e+000
3.264802e+003,0.000000e+000
3.265766e+003,0.000000e+000
3.266730e+003,0.000000e+000
3.267695e+003,0.000000e+000
3.268659e+003,0.000000e+000
3.269623e+003,0.000000e+000
3.270587e+003,0.000000e+000
3.271552e+003,0.000000e+000
3.272516e+003,0.000000e+000
3.273480e+003,0.000000e+000
3.274444e+003,0.000000e+000
3.275409e+003,0.000000e+000
3.276373e+003,0.000000e+000
3.277337e+003,0.000000e+000
3.278301e+003,0.000000e+000
3.279266e+003,0.000000e+000
3.280230e+003,0.000000e+000
3.281194e+003,0.000000e+000
3.282158e+003,0.000000e+000
3.283123e+003,0.000000e+000
3.284087e+003,0.000000e+000
3.285051e+003,0.000000e+000
3.286015e+003,0.000000e+000
3.286979e+003,0.000000e+000
3.287944e+003,0.000000e+000
3.288908e+003,0.000000e+000
3.289872e+003,0.000000e+000
3.290836e+003,0.000000e+000
3.291801e+003,0.000000e+000
3.292765e+003,0.000000e+000
3.293729e+003,0.000000e+000
3.294693e+003,0.000000e+000
3.295657e+003,0.000000e+000
3.296622e+003,0.000000e+000
3.297586e+003,0.000000e+000
3.298550e+003,0.000000e+000
3.299514e+003,0.000000e+000
3.300479e+003,0.000000e+000
3.301443e+003,0.000000e+000
3.302407e+003,0.000000e+000
3.303371e+003,0.000000e+000
3.304336e+003,0.000000e+000
3.305300e+003,0.000000e+000
3.306264e+003,0.000000e+000
3.307228e+003,0.000000e+000
3.308193e+003,0.000000e+000
3.309157e+003,0.000000e+000
3.310121e+003,0.000000e+000
3.311085e+003,0.000000e+000
3.312050e+003,0.000000e+000
3.313014e+003,0.000000e+000
3.313978e+003,0.000000e+000
3.314942e+003,0.000000e+000
3.315906e+003,0.000000e+000
3.316871e+003,0.000000e+000
3.317835e+003,0.000000e+000
3.318799e+003,0.000000e+000
3.319763e+003,0.000000e+000
3.320728e+003,0.000000e+000
3.321692e+003,0.000000e+000
3.322656e+003,0.000000e+000
3.323620e+003,0.000000e+000
3.324584e+003,0.000000e+000
3.325549e+003,0.000000e+000
3.326513e+003,0.000000e+000
3.327477e+003,0.000000e+000
3.328441e+003,0.000000e+000
3.329406e+003,0.000000e+000
3.330370e+003,0.000000e+000
3.331334e+003,0.000000e+000
3.332298e+003,0.000000e+000
3.333263e+003,0.000000e+000
3.334227e+003,0.000000e+000
3.335191e+003,0.000000e+000
3.336155e+003,0.000000e+000
3.337120e+003,0.000000e+000
3.338084e+003,0.000000e+000
3.339048e+003,0.000000e+000
3.340012e+003,0.000000e+000
3.340977e+003,0.000000e+000
3.341941e+003,0.000000e+000
3.342905e+003,0.000000e+000
3.343869e+003,0.000000e+000
3.344833e+003,0.000000e+000
3.345798e+003,0.000000e+000
3.346762e+003,0.000000e+000
3.347726e+003,0.000000e+000
3.348690e+003,0.000000e+000
3.349655e+003,0.000000e+000
3.350619e+003,0.000000e+000
3.351583e+003,0.000000e+000
3.352547e+003,0.000000e+000
3.353511e+003,0.000000e+000
3.354476e+003,0.000000e+000
3.355440e+003,0.000000e+000
3.356404e+003,0.000000e+000
3.357368e+003,0.000000e+000
3.358333e+003,0.000000e+000
3.359297e+003,0.000000e+000
3.360261e+003,0.000000e+000
3.361225e+003,0.000000e+000
3.362190e+003,0.000000e+000
3.363154e+003,0.000000e+000
3.364118e+003,0.000000e+000
3.365082e+003,0.000000e+000
3.366047e+003,0.000000e+000
3.367011e+003,0.000000e+000
3.367975e+003,0.000000e+000
3.368939e+003,0.000000e+000
3.369904e+003,0.000000e+000
3.370868e+003,0.000000e+000
3.371832e+003,0.000000e+000
3.372796e+003,0.000000e+000
3.373760e+003,0.000000e+000
3.374725e+003,0.000000e+000
3.375689e+003,0.000000e+000
3.376653e+003,0.000000e+000
3.377617e+003,0.000000e+000
3.378582e+003,0.000000e+000
3.379546e+003,0.000000e+000
3.380510e+003,0.000000e+000
3.381474e+003,0.000000e+000
3.382438e+003,0.000000e+000
3.383403e+003,0.000000e+000
3.384367e+003,0.000000e+000
3.385331e+003,0.000000e+000
3.386295e+003,0.000000e+000
3.387260e+003,0.000000e+000
3.388224e+003,0.000000e+000
3.389188e+003,0.000000e+000
3.390152e+003,0.000000e+000
3.391117e+003,0.000000e+000
3.392081e+003,0.000000e+000
3.393045e+003,0.000000e+000
3.394009e+003,0.000000e+000
3.394974e+003,0.000000e+000
3.395938e+003,0.000000e+000
3.396902e+003,0.000000e+000
3.397866e+003,0.000000e+000
3.398831e+003,0.000000e+000
3.399795e+003,0.000000e+000
3.400759e+003,0.000000e+000
3.401723e+003,0.000000e+000
3.402688e+003,0.000000e+000
3.403652e+003,0.000000e+000
3.404616e+003,0.000000e+000
3.405580e+003,0.000000e+000
3.406544e+003,0.000000e+000
3.407509e+003,0.000000e+000
3.408473e+003,0.000000e+000
3.409437e+003,0.000000e+000
3.410401e+003,0.000000e+000
3.411365e+003,0.000000e+000
3.412330e+003,0.000000e+000
3.413294e+003,0.000000e+000
3.414258e+003,0.000000e+000
3.415222e+003,0.000000e+000
3.416187e+003,0.000000e+000
3.417151e+003,0.000000e+000
3.418115e+003,0.000000e+000
3.419079e+003,0.000000e+000
3.420044e+003,0.000000e+000
3.421008e+003,0.000000e+000
3.421972e+003,0.000000e+000
3.422936e+003,0.000000e+000
3.423901e+003,0.000000e+000
3.424865e+003,0.000000e+000
3.425829e+003,0.000000e+000
3.426793e+003,0.000000e+000
3.427758e+003,0.000000e+000
3.428722e+003,0.000000e+000
3.429686e+003,0.000000e+000
3.430650e+003,0.000000e+000
3.431615e+003,0.000000e+000
3.432579e+003,0.000000e+000
3.433543e+003,0.000000e+000
3.434507e+003,0.000000e+000
3.435471e+003,0.000000e+000
3.436436e+003,0.000000e+000
3.437400e+003,0.000000e+000
3.438364e+003,0.000000e+000
3.439328e+003,0.000000e+000
3.440292e+003,0.000000e+000
3.441257e+003,0.000000e+000
3.442221e+003,0.000000e+000
3.443185e+003,0.000000e+000
3.444149e+003,0.000000e+000
3.445114e+003,0.000000e+000
3.446078e+003,0.000000e+000
3.447042e+003,0.000000e+000
3.448006e+003,0.000000e+000
3.448971e+003,0.000000e+000
3.449935e+003,0.000000e+000
3.450899e+003,0.000000e+000
3.451863e+003,0.000000e+000
3.452828e+003,0.000000e+000
3.453792e+003,0.000000e+000
3.454756e+003,0.000000e+000
3.455720e+003,0.000000e+000
3.456685e+003,0.000000e+000
3.457649e+003,0.000000e+000
3.458613e+003,0.000000e+000
3.459577e+003,0.000000e+000
3.460542e+003,0.000000e+000
3.461506e+003,0.000000e+000
3.462470e+003,0.000000e+000
3.463434e+003,0.000000e+000
3.464398e+003,0.000000e+000
3.465363e+003,0.000000e+000
3.466327e+003,0.000000e+000
3.467291e+003,0.000000e+000
3.468255e+003,0.000000e+000
3.469219e+003,0.000000e+000
3.470184e+003,0.000000e+000
3.471148e+003,0.000000e+000
3.472112e+003,0.000000e+000
3.473076e+003,0.000000e+000
3.474041e+003,0.000000e+000
3.475005e+003,0.000000e+000
3.475969e+003,0.000000e+000
3.476933e+003,0.000000e+000
3.477898e+003,0.000000e+000
3.478862e+003,0.000000e+000
3.479826e+003,0.000000e+000
3.480790e+003,0.000000e+000
3.481755e+003,0.000000e+000
3.482719e+003,0.000000e+000
3.483683e+003,0.000000e+000
3.484647e+003,0.000000e+000
3.485612e+003,0.000000e+000
3.486576e+003,0.000000e+000
3.487540e+003,0.000000e+000
3.488504e+003,0.000000e+000
3.489469e+003,0.000000e+000
3.490433e+003,0.000000e+000
3.491397e+003,0.000000e+000
3.492361e+003,0.000000e+000
3.493325e+003,0.000000e+000
3.494290e+003,0.000000e+000
3.495254e+003,0.000000e+000
3.496218e+003,0.000000e+000
3.497182e+003,0.000000e+000
3.498146e+003,0.000000e+000
3.499111e+003,0.000000e+000
3.500075e+003,0.000000e+000
