5.003444e+002,3.746597e+001
5.013087e+002,3.777162e+001
5.022729e+002,3.619627e+001
5.032371e+002,3.366731e+001
5.042014e+002,3.309076e+001
5.051656e+002,3.417224e+001
5.061298e+002,3.535526e+001
5.070941e+002,3.521010e+001
5.080583e+002,3.342720e+001
5.090225e+002,3.152271e+001
5.099868e+002,2.861594e+001
5.109510e+002,2.646501e+001
5.119152e+002,2.631537e+001
5.128795e+002,2.834865e+001
5.138437e+002,3.018634e+001
5.148079e+002,3.118062e+001
5.157722e+002,3.173692e+001
5.167364e+002,3.195969e+001
5.177006e+002,3.182042e+001
5.186649e+002,3.113628e+001
5.196291e+002,2.916225e+001
5.205933e+002,2.711858e+001
5.215576e+002,2.642885e+001
5.225218e+002,2.703537e+001
5.234860e+002,2.806670e+001
5.244503e+002,2.807298e+001
5.254145e+002,2.680371e+001
5.263787e+002,2.591968e+001
5.273430e+002,2.557062e+001
5.283072e+002,2.549870e+001
5.292714e+002,2.533548e+001
5.302357e+002,2.491183e+001
5.311999e+002,2.435948e+001
5.321641e+002,2.379321e+001
5.331284e+002,2.332088e+001
5.340926e+002,2.288982e+001
5.350568e+002,2.240196e+001
5.360211e+002,2.212846e+001
5.369853e+002,2.337857e+001
5.379495e+002,2.459373e+001
5.389138e+002,2.391437e+001
5.398780e+002,2.084375e+001
5.408422e+002,1.674461e+001
5.418065e+002,1.569884e+001
5.427707e+002,1.724675e+001
5.437349e+002,1.832841e+001
5.446992e+002,1.798152e+001
5.456634e+002,1.672537e+001
5.466276e+002,1.646999e+001
5.475919e+002,1.933537e+001
5.485561e+002,2.057550e+001
5.495203e+002,1.895036e+001
5.504846e+002,1.587971e+001
5.514488e+002,1.341219e+001
5.524130e+002,1.241699e+001
5.533773e+002,1.192162e+001
5.543415e+002,1.133136e+001
5.553057e+002,1.085065e+001
5.562700e+002,1.067204e+001
5.572342e+002,1.089999e+001
5.581984e+002,1.144937e+001
5.591627e+002,1.253125e+001
5.601269e+002,1.389526e+001
5.610911e+002,1.478665e+001
5.620554e+002,1.476898e+001
5.630196e+002,1.388319e+001
5.639838e+002,1.284325e+001
5.649481e+002,1.119696e+001
5.659123e+002,1.005598e+001
5.668765e+002,9.936356e+000
5.678408e+002,1.061420e+001
5.688050e+002,1.133272e+001
5.697692e+002,1.211746e+001
5.707335e+002,1.222734e+001
5.716977e+002,1.119571e+001
5.726619e+002,9.584915e+000
5.736262e+002,7.959244e+000
5.745904e+002,6.595734e+000
5.755546e+002,5.957993e+000
5.765189e+002,6.746475e+000
5.774831e+002,8.378693e+000
5.784473e+002,1.023355e+001
5.794116e+002,1.191824e+001
5.803758e+002,1.340269e+001
5.813400e+002,1.303650e+001
5.823043e+002,1.011699e+001
5.832685e+002,7.394531e+000
5.842327e+002,5.795349e+000
5.851970e+002,5.302780e+000
5.861612e+002,5.368164e+000
5.871254e+002,6.127869e+000
5.880897e+002,7.191711e+000
5.890539e+002,8.886871e+000
5.900181e+002,1.070253e+001
5.909824e+002,1.185580e+001
5.919466e+002,1.175577e+001
5.929108e+002,1.111600e+001
5.938751e+002,1.070624e+001
5.948393e+002,1.043846e+001
5.958035e+002,1.027382e+001
5.967678e+002,1.018626e+001
5.977320e+002,1.013754e+001
5.986962e+002,9.188156e+000
5.996605e+002,7.157181e+000
6.006247e+002,5.525879e+000
6.015889e+002,5.281235e+000
6.025532e+002,6.303268e+000
6.035174e+002,6.581680e+000
6.044816e+002,4.889893e+000
6.054459e+002,3.795074e+000
6.064101e+002,4.132462e+000
6.073743e+002,5.231400e+000
6.083386e+002,5.822678e+000
6.093028e+002,5.084396e+000
6.102670e+002,4.090851e+000
6.112313e+002,3.445068e+000
6.121955e+002,3.169876e+000
6.131597e+002,3.449860e+000
6.141240e+002,4.380875e+000
6.150882e+002,5.611313e+000
6.160524e+002,5.501663e+000
6.170167e+002,4.347870e+000
6.179809e+002,3.200500e+000
6.189451e+002,2.458420e+000
6.199094e+002,2.031784e+000
6.208736e+002,1.600052e+000
6.218378e+002,1.168793e+000
6.228021e+002,9.530945e-001
6.237663e+002,1.097855e+000
6.247305e+002,1.471649e+000
6.256948e+002,1.801819e+000
6.266590e+002,1.826462e+000
6.276232e+002,1.934723e+000
6.285875e+002,2.639740e+000
6.295517e+002,3.529083e+000
6.305159e+002,4.109421e+000
6.314802e+002,4.094238e+000
6.324444e+002,3.681213e+000
6.334086e+002,3.668259e+000
6.343729e+002,3.933823e+000
6.353371e+002,3.686508e+000
6.363013e+002,2.483353e+000
6.372656e+002,7.136230e-001
6.382298e+002,-1.387024e-001
6.391940e+002,6.676483e-001
6.401583e+002,1.498123e+000
6.411225e+002,2.899536e+000
6.420867e+002,4.242203e+000
6.430510e+002,4.540146e+000
6.440152e+002,3.095673e+000
6.449794e+002,1.717880e+000
6.459437e+002,1.511536e+000
6.469079e+002,1.639175e+000
6.478721e+002,1.517990e+000
6.488364e+002,9.522095e-001
6.498006e+002,1.919861e-001
6.507648e+002,-5.888977e-001
6.517291e+002,-1.243149e+000
6.526933e+002,-1.029739e+000
6.536575e+002,2.573853e-001
6.546218e+002,1.708832e+000
6.555860e+002,1.495255e+000
6.565502e+002,-1.827148e+000
6.575145e+002,-3.743332e+000
6.584787e+002,-4.099136e+000
6.594429e+002,-3.396179e+000
6.604072e+002,-1.413498e+000
6.613714e+002,2.147781e+000
6.623356e+002,4.365265e+000
6.632999e+002,2.357513e+000
6.642641e+002,-1.625977e-001
6.652283e+002,-1.080109e+000
6.661926e+002,-3.445129e-001
6.671568e+002,5.212708e-001
6.681210e+002,-5.035400e-001
6.690853e+002,-2.635056e+000
6.700495e+002,-3.601852e+000
6.710137e+002,-3.391479e+000
6.719780e+002,-2.648315e+000
6.729422e+002,-2.008652e+000
6.739064e+002,-1.440018e+000
6.748707e+002,-1.501205e+000
6.758349e+002,-2.792603e+000
6.767991e+002,-3.875717e+000
6.777634e+002,-3.922333e+000
6.787276e+002,-3.005798e+000
6.796918e+002,-2.192169e+000
6.806561e+002,-2.230972e+000
6.816203e+002,-2.211517e+000
6.825845e+002,-1.814407e+000
6.835488e+002,-1.102722e+000
6.845130e+002,-1.266479e-001
6.854772e+002,1.153320e+000
6.864415e+002,2.443375e+000
6.874057e+002,2.962265e+000
6.883699e+002,2.797531e+000
6.893342e+002,2.300537e+000
6.902984e+002,1.678482e+000
6.912626e+002,9.618683e-001
6.922269e+002,1.439514e-001
6.931911e+002,-9.595032e-001
6.941553e+002,-1.630310e+000
6.951196e+002,-1.983612e+000
6.960838e+002,-1.985153e+000
6.970480e+002,-1.353821e+000
6.980123e+002,4.310150e-001
6.989765e+002,1.777649e+000
6.999407e+002,2.109375e+000
7.009050e+002,1.800629e+000
7.018692e+002,7.453156e-001
7.028334e+002,-8.972778e-001
7.037977e+002,-2.253418e+000
7.047619e+002,-1.115555e+000
7.057261e+002,1.165039e+000
7.066904e+002,1.151215e+000
7.076546e+002,-1.702286e+000
7.086188e+002,-5.131012e+000
7.095831e+002,-5.413391e+000
7.105473e+002,-1.021347e+000
7.115115e+002,1.621796e+000
7.124758e+002,1.877899e+000
7.134400e+002,1.383606e+000
7.144042e+002,1.011536e+000
7.153685e+002,8.582458e-001
7.163327e+002,6.875916e-001
7.172969e+002,1.056671e-001
7.182612e+002,-2.010193e-001
7.192254e+002,2.118378e-001
7.201896e+002,1.078522e+000
7.211539e+002,1.912949e+000
7.221181e+002,2.350159e+000
7.230823e+002,2.391617e+000
7.240466e+002,2.071411e+000
7.250108e+002,1.532104e+000
7.259750e+002,9.569855e-001
7.269393e+002,3.266144e-001
7.279035e+002,-4.059753e-001
7.288677e+002,-8.376465e-001
7.298320e+002,-2.618408e-001
7.307962e+002,1.175385e-001
7.317604e+002,-2.079773e-002
7.327247e+002,-2.774963e-001
7.336889e+002,-3.794861e-002
7.346531e+002,9.698029e-001
7.356174e+002,1.439133e+000
7.365816e+002,3.028259e-001
7.375458e+002,-9.921722e-001
7.385101e+002,-1.239700e+000
7.394743e+002,-2.249146e-001
7.404385e+002,1.263657e+000
7.414028e+002,2.167648e+000
7.423670e+002,2.196243e+000
7.433312e+002,9.905853e-001
7.442955e+002,-1.521179e+000
7.452597e+002,-3.624359e+000
7.462239e+002,-3.192047e+000
7.471882e+002,6.233826e-001
7.481524e+002,3.124176e+000
7.491166e+002,3.889145e+000
7.500809e+002,3.844666e+000
7.510451e+002,2.914337e+000
7.520093e+002,1.401123e+000
7.529736e+002,1.301727e-001
7.539378e+002,-4.882660e-001
7.549020e+002,-4.898682e-001
7.558663e+002,4.623260e-001
7.568306e+002,1.742630e+000
7.577948e+002,2.306870e+000
7.587590e+002,1.563675e+000
7.597233e+002,1.932678e-001
7.606875e+002,8.224945e-001
7.616517e+002,3.214828e+000
7.626160e+002,4.615875e+000
7.635802e+002,4.102692e+000
7.645444e+002,2.505447e+000
7.655087e+002,1.477722e+000
7.664729e+002,1.118286e+000
7.674371e+002,1.156631e+000
7.684014e+002,2.156738e+000
7.693656e+002,2.929474e+000
7.703298e+002,2.233292e+000
7.712941e+002,1.846466e-001
7.722583e+002,-1.031876e+000
7.732225e+002,1.193314e+000
7.741868e+002,3.947464e+000
7.751510e+002,4.824097e+000
7.761152e+002,4.221878e+000
7.770795e+002,3.527237e+000
7.780437e+002,3.952164e+000
7.790079e+002,5.284988e+000
7.799722e+002,5.931305e+000
7.809364e+002,5.933472e+000
7.819006e+002,5.636581e+000
7.828649e+002,4.953949e+000
7.838291e+002,4.150848e+000
7.847933e+002,4.008286e+000
7.857576e+002,4.897797e+000
7.867218e+002,5.614014e+000
7.876860e+002,6.267761e+000
7.886503e+002,6.649048e+000
7.896145e+002,6.357941e+000
7.905787e+002,5.373337e+000
7.915430e+002,4.523361e+000
7.925072e+002,4.921448e+000
7.934714e+002,5.657257e+000
7.944357e+002,5.947296e+000
7.953999e+002,5.754440e+000
7.963641e+002,5.148712e+000
7.973284e+002,4.112946e+000
7.982926e+002,2.567535e+000
7.992568e+002,2.480789e+000
8.002211e+002,4.572510e+000
8.011853e+002,6.085754e+000
8.021495e+002,5.708908e+000
8.031138e+002,4.155228e+000
8.040780e+002,3.695633e+000
8.050422e+002,5.622665e+000
8.060065e+002,6.885178e+000
8.069707e+002,5.640015e+000
8.079349e+002,3.747147e+000
8.088992e+002,3.235031e+000
8.098634e+002,4.770538e+000
8.108276e+002,6.977463e+000
8.117919e+002,7.876099e+000
8.127561e+002,7.754105e+000
8.137203e+002,7.484116e+000
8.146846e+002,7.268326e+000
8.156488e+002,6.995148e+000
8.166130e+002,6.369812e+000
8.175773e+002,5.125610e+000
8.185415e+002,5.034119e+000
8.195057e+002,6.859451e+000
8.204700e+002,8.484985e+000
8.214342e+002,9.232544e+000
8.223984e+002,9.243835e+000
8.233627e+002,8.900635e+000
8.243269e+002,8.048950e+000
8.252911e+002,7.521484e+000
8.262554e+002,8.402771e+000
8.272196e+002,9.419296e+000
8.281838e+002,8.945831e+000
8.291481e+002,6.585098e+000
8.301123e+002,3.631622e+000
8.310765e+002,2.429245e+000
8.320408e+002,2.861313e+000
8.330050e+002,2.866135e+000
8.339692e+002,2.226440e+000
8.349335e+002,1.603729e+000
8.358977e+002,1.643402e+000
8.368619e+002,2.416504e+000
8.378262e+002,3.741837e+000
8.387904e+002,6.574768e+000
8.397546e+002,8.686142e+000
8.407189e+002,9.326721e+000
8.416831e+002,8.934891e+000
8.426473e+002,8.237564e+000
8.436116e+002,7.470566e+000
8.445758e+002,6.888382e+000
8.455400e+002,6.767303e+000
8.465043e+002,6.763672e+000
8.474685e+002,6.522949e+000
8.484327e+002,6.072372e+000
8.493970e+002,5.840591e+000
8.503612e+002,6.461411e+000
8.513254e+002,8.096359e+000
8.522897e+002,9.143234e+000
8.532539e+002,9.382828e+000
8.542181e+002,9.295792e+000
8.551824e+002,9.078903e+000
8.561466e+002,8.874374e+000
8.571108e+002,9.131577e+000
8.580751e+002,9.978455e+000
8.590393e+002,1.082854e+001
8.600035e+002,1.149847e+001
8.609678e+002,1.222125e+001
8.619320e+002,1.349606e+001
8.628962e+002,1.542059e+001
8.638605e+002,1.706169e+001
8.648247e+002,1.644640e+001
8.657889e+002,1.464224e+001
8.667532e+002,1.421220e+001
8.677174e+002,1.548254e+001
8.686816e+002,1.693349e+001
8.696459e+002,1.673032e+001
8.706101e+002,1.458127e+001
8.715743e+002,1.337370e+001
8.725386e+002,1.342065e+001
8.735028e+002,1.390501e+001
8.744670e+002,1.474536e+001
8.754313e+002,1.573610e+001
8.763955e+002,1.659409e+001
8.773597e+002,1.721202e+001
8.783240e+002,1.794382e+001
8.792882e+002,1.920544e+001
8.802524e+002,2.050313e+001
8.812167e+002,2.140793e+001
8.821809e+002,2.184825e+001
8.831451e+002,2.198839e+001
8.841094e+002,2.200497e+001
8.850736e+002,2.203117e+001
8.860378e+002,2.306706e+001
8.870021e+002,2.541971e+001
8.879663e+002,2.738911e+001
8.889305e+002,2.779410e+001
8.898948e+002,2.690730e+001
8.908590e+002,2.626880e+001
8.918232e+002,2.609209e+001
8.927875e+002,2.617831e+001
8.937517e+002,2.673688e+001
8.947159e+002,2.732951e+001
8.956802e+002,2.733987e+001
8.966444e+002,2.671445e+001
8.976086e+002,2.627167e+001
8.985729e+002,2.715823e+001
8.995371e+002,2.866910e+001
9.005013e+002,2.955917e+001
9.014656e+002,2.986572e+001
9.024298e+002,2.973912e+001
9.033940e+002,2.916351e+001
9.043583e+002,2.818883e+001
9.053225e+002,2.781198e+001
9.062867e+002,2.855577e+001
9.072510e+002,2.913405e+001
9.082152e+002,3.004799e+001
9.091794e+002,3.064560e+001
9.101437e+002,2.969504e+001
9.111079e+002,2.696033e+001
9.120721e+002,2.535188e+001
9.130364e+002,2.824895e+001
9.140006e+002,3.120341e+001
9.149648e+002,3.107639e+001
9.159291e+002,2.908853e+001
9.168933e+002,2.831483e+001
9.178575e+002,3.082243e+001
9.188218e+002,3.513916e+001
9.197860e+002,3.607837e+001
9.207502e+002,3.354575e+001
9.217145e+002,3.138551e+001
9.226787e+002,3.060599e+001
9.236429e+002,3.042436e+001
9.246072e+002,2.963359e+001
9.255714e+002,2.794604e+001
9.265356e+002,2.678178e+001
9.274999e+002,2.698637e+001
9.284641e+002,2.699960e+001
9.294283e+002,2.604643e+001
9.303926e+002,2.463887e+001
9.313568e+002,2.374648e+001
9.323210e+002,2.387830e+001
9.332853e+002,2.444049e+001
9.342495e+002,2.428519e+001
9.352137e+002,2.393896e+001
9.361780e+002,2.470544e+001
9.371422e+002,2.689124e+001
9.381064e+002,2.905171e+001
9.390707e+002,2.907446e+001
9.400349e+002,2.649503e+001
9.409991e+002,2.421494e+001
9.419634e+002,2.147313e+001
9.429276e+002,1.987547e+001
9.438918e+002,2.064174e+001
9.448561e+002,2.259761e+001
9.458203e+002,2.373505e+001
9.467845e+002,2.340935e+001
9.477488e+002,2.290570e+001
9.487130e+002,2.315283e+001
9.496772e+002,2.361337e+001
9.506415e+002,2.409531e+001
9.516057e+002,2.441129e+001
9.525699e+002,2.420396e+001
9.535342e+002,2.309914e+001
9.544984e+002,2.118083e+001
9.554626e+002,1.935327e+001
9.564269e+002,1.749197e+001
9.573911e+002,1.660077e+001
9.583553e+002,1.772383e+001
9.593196e+002,1.959140e+001
9.602838e+002,2.000456e+001
9.612480e+002,1.846570e+001
9.622123e+002,1.708365e+001
9.631765e+002,1.630856e+001
9.641407e+002,1.602565e+001
9.651050e+002,1.645937e+001
9.660692e+002,1.726346e+001
9.670334e+002,1.786032e+001
9.679977e+002,1.793561e+001
9.689619e+002,1.782301e+001
9.699261e+002,1.766145e+001
9.708904e+002,1.764676e+001
9.718546e+002,1.910590e+001
9.728188e+002,2.256493e+001
9.737831e+002,2.645999e+001
9.747473e+002,2.865666e+001
9.757115e+002,2.878378e+001
9.766758e+002,2.938280e+001
9.776400e+002,3.181609e+001
9.786042e+002,3.321648e+001
9.795685e+002,3.245258e+001
9.805327e+002,3.031865e+001
9.814969e+002,2.783656e+001
9.824612e+002,2.540273e+001
9.834254e+002,2.313362e+001
9.843896e+002,2.101555e+001
9.853539e+002,1.903000e+001
9.863181e+002,1.706386e+001
9.872823e+002,1.516656e+001
9.882466e+002,1.375757e+001
9.892108e+002,1.330513e+001
9.901750e+002,1.376126e+001
9.911393e+002,1.393100e+001
9.921035e+002,1.340627e+001
9.930677e+002,1.274217e+001
9.940320e+002,1.175261e+001
9.949962e+002,1.095651e+001
9.959604e+002,1.101674e+001
9.969247e+002,1.194070e+001
9.978889e+002,1.264882e+001
9.988531e+002,1.225490e+001
9.998174e+002,1.174013e+001
1.000782e+003,1.188445e+001
1.001746e+003,1.238480e+001
1.002710e+003,1.273558e+001
1.003674e+003,1.269788e+001
1.004639e+003,1.242897e+001
1.005603e+003,1.223038e+001
1.006567e+003,1.207512e+001
1.007531e+003,1.151404e+001
1.008495e+003,1.046703e+001
1.009460e+003,9.237549e+000
1.010424e+003,7.508362e+000
1.011388e+003,5.692932e+000
1.012352e+003,5.634872e+000
1.013317e+003,8.616150e+000
1.014281e+003,1.112378e+001
1.015245e+003,1.228195e+001
1.016209e+003,1.245299e+001
1.017174e+003,1.142499e+001
1.018138e+003,9.638672e+000
1.019102e+003,8.352539e+000
1.020066e+003,8.772171e+000
1.021031e+003,9.902924e+000
1.021995e+003,7.883545e+000
1.022959e+003,3.424896e+000
1.023923e+003,8.917694e-001
1.024887e+003,2.078415e+000
1.025852e+003,5.139053e+000
1.026816e+003,7.486984e+000
1.027780e+003,9.323273e+000
1.028744e+003,9.745102e+000
1.029709e+003,7.495010e+000
1.030673e+003,5.194397e+000
1.031637e+003,3.126511e+000
1.032601e+003,1.618866e+000
1.033566e+003,1.173080e+000
1.034530e+003,1.956451e+000
1.035494e+003,3.288910e+000
1.036458e+003,4.775894e+000
1.037422e+003,6.023239e+000
1.038387e+003,5.985397e+000
1.039351e+003,4.852280e+000
1.040315e+003,4.551544e+000
1.041279e+003,6.817017e+000
1.042244e+003,1.079184e+001
1.043208e+003,1.189609e+001
1.044172e+003,7.225204e+000
1.045136e+003,4.438538e+000
1.046101e+003,4.492722e+000
1.047065e+003,5.604538e+000
1.048029e+003,7.296082e+000
1.048993e+003,9.066422e+000
1.049958e+003,9.639191e+000
1.050922e+003,8.032761e+000
1.051886e+003,6.201004e+000
1.052850e+003,6.447357e+000
1.053814e+003,7.519058e+000
1.054779e+003,7.738007e+000
1.055743e+003,6.777069e+000
1.056707e+003,5.537613e+000
1.057671e+003,5.121460e+000
1.058636e+003,5.518738e+000
1.059600e+003,5.534409e+000
1.060564e+003,4.546722e+000
1.061528e+003,4.291672e+000
1.062493e+003,5.348434e+000
1.063457e+003,6.868240e+000
1.064421e+003,8.153030e+000
1.065385e+003,9.130768e+000
1.066349e+003,9.508362e+000
1.067314e+003,8.565216e+000
1.068278e+003,7.658524e+000
1.069242e+003,8.000153e+000
1.070206e+003,8.980225e+000
1.071171e+003,9.633240e+000
1.072135e+003,9.489395e+000
1.073099e+003,8.660324e+000
1.074063e+003,7.334763e+000
1.075028e+003,5.438980e+000
1.075992e+003,4.608749e+000
1.076956e+003,5.042084e+000
1.077920e+003,5.822754e+000
1.078885e+003,7.178940e+000
1.079849e+003,8.581146e+000
1.080813e+003,8.712936e+000
1.081777e+003,7.070404e+000
1.082741e+003,6.062958e+000
1.083706e+003,7.747787e+000
1.084670e+003,9.524536e+000
1.085634e+003,9.930527e+000
1.086598e+003,9.309525e+000
1.087563e+003,8.605469e+000
1.088527e+003,8.385330e+000
1.089491e+003,8.408112e+000
1.090455e+003,8.054443e+000
1.091420e+003,7.208084e+000
1.092384e+003,6.693298e+000
1.093348e+003,6.457748e+000
1.094312e+003,6.504181e+000
1.095276e+003,7.240097e+000
1.096241e+003,8.342957e+000
1.097205e+003,8.616623e+000
1.098169e+003,7.644760e+000
1.099133e+003,6.454620e+000
1.100098e+003,4.750000e+000
1.101062e+003,3.647507e+000
1.102026e+003,4.417740e+000
1.102990e+003,6.359055e+000
1.103955e+003,7.816544e+000
1.104919e+003,7.768509e+000
1.105883e+003,6.708420e+000
1.106847e+003,5.583618e+000
1.107812e+003,4.409897e+000
1.108776e+003,3.733353e+000
1.109740e+003,3.533356e+000
1.110704e+003,3.919861e+000
1.111668e+003,5.637573e+000
1.112633e+003,8.207870e+000
1.113597e+003,9.094818e+000
1.114561e+003,7.118744e+000
1.115525e+003,5.508621e+000
1.116490e+003,5.180191e+000
1.117454e+003,5.526718e+000
1.118418e+003,6.663635e+000
1.119382e+003,8.184753e+000
1.120347e+003,9.337860e+000
1.121311e+003,9.600388e+000
1.122275e+003,9.034195e+000
1.123239e+003,7.745895e+000
1.124203e+003,5.928772e+000
1.125168e+003,4.709518e+000
1.126132e+003,4.263000e+000
1.127096e+003,4.241241e+000
1.128060e+003,4.406036e+000
1.129025e+003,4.729416e+000
1.129989e+003,5.293030e+000
1.130953e+003,6.437424e+000
1.131917e+003,6.939758e+000
1.132882e+003,5.705612e+000
1.133846e+003,4.632507e+000
1.134810e+003,5.348404e+000
1.135774e+003,7.165039e+000
1.136739e+003,8.042969e+000
1.137703e+003,6.859970e+000
1.138667e+003,5.181107e+000
1.139631e+003,6.014465e+000
1.140595e+003,9.021240e+000
1.141560e+003,1.083379e+001
1.142524e+003,1.104744e+001
1.143488e+003,1.120830e+001
1.144452e+003,1.268851e+001
1.145417e+003,1.493164e+001
1.146381e+003,1.569016e+001
1.147345e+003,1.396933e+001
1.148309e+003,1.320877e+001
1.149274e+003,1.465398e+001
1.150238e+003,1.682674e+001
1.151202e+003,1.909906e+001
1.152166e+003,2.156595e+001
1.153130e+003,2.502705e+001
1.154095e+003,2.961182e+001
1.155059e+003,3.338251e+001
1.156023e+003,3.340114e+001
1.156987e+003,3.008168e+001
1.157952e+003,2.749611e+001
1.158916e+003,2.588112e+001
1.159880e+003,2.436510e+001
1.160844e+003,2.199045e+001
1.161809e+003,1.933012e+001
1.162773e+003,1.819572e+001
1.163737e+003,1.917838e+001
1.164701e+003,1.907430e+001
1.165666e+003,1.564619e+001
1.166630e+003,1.255481e+001
1.167594e+003,1.096809e+001
1.168558e+003,1.061613e+001
1.169522e+003,1.159235e+001
1.170487e+003,1.352095e+001
1.171451e+003,1.463687e+001
1.172415e+003,1.268797e+001
1.173379e+003,8.517029e+000
1.174344e+003,7.008408e+000
1.175308e+003,8.287361e+000
1.176272e+003,9.183029e+000
1.177236e+003,8.070305e+000
1.178201e+003,6.588791e+000
1.179165e+003,7.305870e+000
1.180129e+003,1.021733e+001
1.181093e+003,1.133792e+001
1.182057e+003,8.433128e+000
1.183022e+003,5.804535e+000
1.183986e+003,4.732170e+000
1.184950e+003,4.874176e+000
1.185914e+003,6.664299e+000
1.186879e+003,9.453445e+000
1.187843e+003,1.123701e+001
1.188807e+003,1.032939e+001
1.189771e+003,7.712074e+000
1.190736e+003,6.345963e+000
1.191700e+003,6.325661e+000
1.192664e+003,6.783905e+000
1.193628e+003,8.303123e+000
1.194593e+003,9.526260e+000
1.195557e+003,9.283379e+000
1.196521e+003,7.928879e+000
1.197485e+003,6.612358e+000
1.198449e+003,5.286041e+000
1.199414e+003,4.744972e+000
1.200378e+003,6.646606e+000
1.201342e+003,8.282478e+000
1.202306e+003,7.461075e+000
1.203271e+003,5.014687e+000
1.204235e+003,3.045403e+000
1.205199e+003,2.574310e+000
1.206163e+003,2.632820e+000
1.207128e+003,1.520035e+000
1.208092e+003,-8.532715e-001
1.209056e+003,-2.021904e+000
1.210020e+003,-1.507416e+000
1.210984e+003,-9.865417e-001
1.211949e+003,-1.057327e+000
1.212913e+003,-1.327156e+000
1.213877e+003,-1.215797e+000
1.214841e+003,-6.776962e-001
1.215806e+003,-2.373505e-001
1.216770e+003,-1.034470e-001
1.217734e+003,-1.459503e-001
1.218698e+003,-1.772232e-001
1.219663e+003,-3.910370e-001
1.220627e+003,-1.166824e+000
1.221591e+003,-2.438332e+000
1.222555e+003,-3.708847e+000
1.223520e+003,-4.523438e+000
1.224484e+003,-4.798180e+000
1.225448e+003,-4.242661e+000
1.226412e+003,-2.113258e+000
1.227376e+003,-8.951950e-001
1.228341e+003,-1.035591e+000
1.229305e+003,-1.588638e+000
1.230269e+003,-2.396988e+000
1.231233e+003,-3.166237e+000
1.232198e+003,-3.212158e+000
1.233162e+003,-2.286514e+000
1.234126e+003,-1.396858e+000
1.235090e+003,-1.320091e+000
1.236055e+003,-1.691635e+000
1.237019e+003,-2.333191e+000
1.237983e+003,-3.055534e+000
1.238947e+003,-3.308159e+000
1.239911e+003,-2.837654e+000
1.240876e+003,-2.043152e+000
1.241840e+003,-1.485336e+000
1.242804e+003,-1.140450e+000
1.243768e+003,-1.363647e+000
1.244733e+003,-3.205826e+000
1.245697e+003,-4.185303e+000
1.246661e+003,-3.783768e+000
1.247625e+003,-2.884148e+000
1.248590e+003,-1.757637e+000
1.249554e+003,-6.616364e-001
1.250518e+003,-2.629471e-001
1.251482e+003,-9.612350e-001
1.252447e+003,-1.767258e+000
1.253411e+003,-1.273743e+000
1.254375e+003,-4.194641e-002
1.255339e+003,7.716064e-001
1.256303e+003,1.127197e+000
1.257268e+003,9.673157e-001
1.258232e+003,-8.818054e-002
1.259196e+003,-1.354080e+000
1.260160e+003,-1.129921e+000
1.261125e+003,9.771347e-001
1.262089e+003,2.491806e+000
1.263053e+003,3.211426e+000
1.264017e+003,3.036484e+000
1.264982e+003,8.493042e-001
1.265946e+003,-1.381111e+000
1.266910e+003,-1.434937e+000
1.267874e+003,3.680191e-001
1.268839e+003,1.735970e+000
1.269803e+003,1.138405e+000
1.270767e+003,-1.416016e-001
1.271731e+003,5.765610e-001
1.272695e+003,3.234421e+000
1.273660e+003,4.735931e+000
1.274624e+003,4.671051e+000
1.275588e+003,4.071144e+000
1.276552e+003,3.297607e+000
1.277517e+003,2.533577e+000
1.278481e+003,2.101898e+000
1.279445e+003,2.029892e+000
1.280409e+003,1.848122e+000
1.281374e+003,1.397377e+000
1.282338e+003,8.319626e-001
1.283302e+003,1.296234e-001
1.284266e+003,-5.818253e-001
1.285230e+003,-1.292519e+000
1.286195e+003,-1.893463e+000
1.287159e+003,-2.036453e+000
1.288123e+003,-1.405106e+000
1.289087e+003,-2.340698e-001
1.290052e+003,6.513138e-001
1.291016e+003,1.174644e+000
1.291980e+003,1.460518e+000
1.292944e+003,1.220726e+000
1.293909e+003,1.028214e+000
1.294873e+003,1.346230e+000
1.295837e+003,1.798676e+000
1.296801e+003,1.806152e+000
1.297766e+003,1.312027e+000
1.298730e+003,6.765671e-001
1.299694e+003,-8.118439e-002
1.300658e+003,-6.866226e-001
1.301622e+003,-8.139191e-001
1.302587e+003,-5.688400e-001
1.303551e+003,-8.021545e-002
1.304515e+003,6.343994e-001
1.305479e+003,1.581787e+000
1.306444e+003,2.856087e+000
1.307408e+003,4.144096e+000
1.308372e+003,4.358849e+000
1.309336e+003,3.059174e+000
1.310301e+003,2.023201e+000
1.311265e+003,1.530930e+000
1.312229e+003,1.138771e+000
1.313193e+003,2.714157e-001
1.314157e+003,-2.769547e-001
1.315122e+003,7.071075e-001
1.316086e+003,2.972855e+000
1.317050e+003,5.032799e+000
1.318014e+003,5.970299e+000
1.318979e+003,5.933495e+000
1.319943e+003,4.799278e+000
1.320907e+003,2.794060e+000
1.321871e+003,1.774155e+000
1.322836e+003,1.972145e+000
1.323800e+003,2.273598e+000
1.324764e+003,2.063446e+000
1.325728e+003,1.627602e+000
1.326693e+003,1.498260e+000
1.327657e+003,1.666435e+000
1.328621e+003,1.455910e+000
1.329585e+003,2.507324e-001
1.330549e+003,-2.496490e-001
1.331514e+003,1.380455e+000
1.332478e+003,3.339241e+000
1.333442e+003,3.795250e+000
1.334406e+003,2.942886e+000
1.335371e+003,2.191895e+000
1.336335e+003,2.392288e+000
1.337299e+003,3.000839e+000
1.338263e+003,2.939514e+000
1.339228e+003,2.095032e+000
1.340192e+003,1.672394e+000
1.341156e+003,2.100960e+000
1.342120e+003,2.282356e+000
1.343084e+003,1.728416e+000
1.344049e+003,1.067886e+000
1.345013e+003,7.577133e-001
1.345977e+003,8.820801e-001
1.346941e+003,1.503098e+000
1.347906e+003,2.666214e+000
1.348870e+003,3.910118e+000
1.349834e+003,4.834709e+000
1.350798e+003,5.493721e+000
1.351763e+003,6.214333e+000
1.352727e+003,6.932091e+000
1.353691e+003,7.055664e+000
1.354655e+003,6.181610e+000
1.355620e+003,5.344856e+000
1.356584e+003,6.160172e+000
1.357548e+003,8.352486e+000
1.358512e+003,9.127258e+000
1.359476e+003,7.776962e+000
1.360441e+003,6.403519e+000
1.361405e+003,5.139297e+000
1.362369e+003,4.465492e+000
1.363333e+003,4.978958e+000
1.364298e+003,6.071609e+000
1.365262e+003,7.030159e+000
1.366226e+003,7.591156e+000
1.367190e+003,7.771034e+000
1.368155e+003,7.580452e+000
1.369119e+003,7.080704e+000
1.370083e+003,6.439903e+000
1.371047e+003,5.528786e+000
1.372011e+003,5.262512e+000
1.372976e+003,5.822266e+000
1.373940e+003,6.615822e+000
1.374904e+003,7.590248e+000
1.375868e+003,8.627876e+000
1.376833e+003,9.659607e+000
1.377797e+003,1.060246e+001
1.378761e+003,1.119040e+001
1.379725e+003,1.134043e+001
1.380690e+003,1.106007e+001
1.381654e+003,9.710381e+000
1.382618e+003,8.288307e+000
1.383582e+003,8.563766e+000
1.384547e+003,1.034666e+001
1.385511e+003,1.156388e+001
1.386475e+003,1.103956e+001
1.387439e+003,9.839943e+000
1.388403e+003,9.746574e+000
1.389368e+003,1.074763e+001
1.390332e+003,1.095661e+001
1.391296e+003,1.003649e+001
1.392260e+003,8.958870e+000
1.393225e+003,7.527885e+000
1.394189e+003,6.424583e+000
1.395153e+003,6.088669e+000
1.396117e+003,6.325165e+000
1.397082e+003,6.988258e+000
1.398046e+003,7.897743e+000
1.399010e+003,8.577797e+000
1.399974e+003,8.537346e+000
1.400938e+003,8.002296e+000
1.401903e+003,7.866425e+000
1.402867e+003,8.336052e+000
1.403831e+003,9.161942e+000
1.404795e+003,1.060693e+001
1.405760e+003,1.189030e+001
1.406724e+003,1.280095e+001
1.407688e+003,1.316563e+001
1.408652e+003,1.263347e+001
1.409617e+003,1.147712e+001
1.410581e+003,1.082476e+001
1.411545e+003,1.122923e+001
1.412509e+003,1.162620e+001
1.413474e+003,1.067548e+001
1.414438e+003,9.166008e+000
1.415402e+003,8.560104e+000
1.416366e+003,8.828957e+000
1.417330e+003,9.263573e+000
1.418295e+003,9.605064e+000
1.419259e+003,9.973465e+000
1.420223e+003,1.060266e+001
1.421187e+003,1.135517e+001
1.422152e+003,1.148006e+001
1.423116e+003,1.069769e+001
1.424080e+003,1.040421e+001
1.425044e+003,1.194392e+001
1.426009e+003,1.285538e+001
1.426973e+003,1.129444e+001
1.427937e+003,9.022247e+000
1.428901e+003,8.178116e+000
1.429865e+003,8.954819e+000
1.430830e+003,1.028064e+001
1.431794e+003,1.139796e+001
1.432758e+003,1.232719e+001
1.433722e+003,1.322495e+001
1.434687e+003,1.425540e+001
1.435651e+003,1.435141e+001
1.436615e+003,1.222951e+001
1.437579e+003,1.067587e+001
1.438544e+003,1.002798e+001
1.439508e+003,9.977348e+000
1.440472e+003,1.062016e+001
1.441436e+003,1.167052e+001
1.442401e+003,1.273504e+001
1.443365e+003,1.364359e+001
1.444329e+003,1.405053e+001
1.445293e+003,1.357227e+001
1.446257e+003,1.288220e+001
1.447222e+003,1.342841e+001
1.448186e+003,1.492102e+001
1.449150e+003,1.587079e+001
1.450114e+003,1.619010e+001
1.451079e+003,1.574307e+001
1.452043e+003,1.359784e+001
1.453007e+003,1.132783e+001
1.453971e+003,1.141413e+001
1.454936e+003,1.351600e+001
1.455900e+003,1.501825e+001
1.456864e+003,1.529365e+001
1.457828e+003,1.537169e+001
1.458792e+003,1.597660e+001
1.459757e+003,1.640237e+001
1.460721e+003,1.599238e+001
1.461685e+003,1.498508e+001
1.462649e+003,1.365961e+001
1.463614e+003,1.223515e+001
1.464578e+003,1.161057e+001
1.465542e+003,1.278757e+001
1.466506e+003,1.485974e+001
1.467471e+003,1.500343e+001
1.468435e+003,1.271415e+001
1.469399e+003,1.140316e+001
1.470363e+003,1.171643e+001
1.471328e+003,1.224629e+001
1.472292e+003,1.263549e+001
1.473256e+003,1.305195e+001
1.474220e+003,1.381160e+001
1.475184e+003,1.477921e+001
1.476149e+003,1.576618e+001
1.477113e+003,1.655972e+001
1.478077e+003,1.669623e+001
1.479041e+003,1.574425e+001
1.480006e+003,1.410677e+001
1.480970e+003,1.297249e+001
1.481934e+003,1.219460e+001
1.482898e+003,1.241367e+001
1.483863e+003,1.466982e+001
1.484827e+003,1.631490e+001
1.485791e+003,1.624059e+001
1.486755e+003,1.572635e+001
1.487719e+003,1.591473e+001
1.488684e+003,1.661967e+001
1.489648e+003,1.710963e+001
1.490612e+003,1.717853e+001
1.491576e+003,1.718922e+001
1.492541e+003,1.747948e+001
1.493505e+003,1.774468e+001
1.494469e+003,1.701249e+001
1.495433e+003,1.547244e+001
1.496398e+003,1.481871e+001
1.497362e+003,1.546457e+001
1.498326e+003,1.662811e+001
1.499290e+003,1.817359e+001
1.500255e+003,1.980033e+001
1.501219e+003,2.108887e+001
1.502183e+003,2.204364e+001
1.503147e+003,2.281988e+001
1.504111e+003,2.340498e+001
1.505076e+003,2.406187e+001
1.506040e+003,2.507961e+001
1.507004e+003,2.610622e+001
1.507968e+003,2.677013e+001
1.508933e+003,2.719081e+001
1.509897e+003,2.722601e+001
1.510861e+003,2.705489e+001
1.511825e+003,2.856704e+001
1.512790e+003,3.360471e+001
1.513754e+003,3.996604e+001
1.514718e+003,4.320836e+001
1.515682e+003,4.330671e+001
1.516646e+003,4.446542e+001
1.517611e+003,4.772967e+001
1.518575e+003,5.046521e+001
1.519539e+003,5.174180e+001
1.520503e+003,5.249190e+001
1.521468e+003,5.308468e+001
1.522432e+003,5.343849e+001
1.523396e+003,5.350887e+001
1.524360e+003,5.319058e+001
1.525325e+003,5.212876e+001
1.526289e+003,5.010808e+001
1.527253e+003,4.773988e+001
1.528217e+003,4.615739e+001
1.529182e+003,4.541973e+001
1.530146e+003,4.391610e+001
1.531110e+003,4.095341e+001
1.532074e+003,3.843734e+001
1.533039e+003,3.666710e+001
1.534003e+003,3.488644e+001
1.534967e+003,3.293715e+001
1.535931e+003,3.089248e+001
1.536896e+003,2.844652e+001
1.537860e+003,2.598728e+001
1.538824e+003,2.479883e+001
1.539788e+003,2.540715e+001
1.540752e+003,2.627100e+001
1.541717e+003,2.538374e+001
1.542681e+003,2.311230e+001
1.543645e+003,2.162371e+001
1.544609e+003,2.112566e+001
1.545573e+003,2.115957e+001
1.546538e+003,2.205038e+001
1.547502e+003,2.285095e+001
1.548466e+003,2.315590e+001
1.549430e+003,2.341856e+001
1.550395e+003,2.419188e+001
1.551359e+003,2.525849e+001
1.552323e+003,2.605656e+001
1.553287e+003,2.636780e+001
1.554252e+003,2.594200e+001
1.555216e+003,2.435091e+001
1.556180e+003,2.242162e+001
1.557144e+003,2.241342e+001
1.558109e+003,2.442367e+001
1.559073e+003,2.476205e+001
1.560037e+003,2.226405e+001
1.561001e+003,2.020794e+001
1.561966e+003,1.978706e+001
1.562930e+003,2.030077e+001
1.563894e+003,2.135567e+001
1.564858e+003,2.268369e+001
1.565823e+003,2.378848e+001
1.566787e+003,2.457141e+001
1.567751e+003,2.539795e+001
1.568715e+003,2.663149e+001
1.569679e+003,2.756623e+001
1.570644e+003,2.687446e+001
1.571608e+003,2.523146e+001
1.572572e+003,2.487934e+001
1.573536e+003,2.595492e+001
1.574500e+003,2.671003e+001
1.575465e+003,2.638638e+001
1.576429e+003,2.582975e+001
1.577393e+003,2.573421e+001
1.578357e+003,2.583273e+001
1.579322e+003,2.560159e+001
1.580286e+003,2.505423e+001
1.581250e+003,2.447952e+001
1.582214e+003,2.375042e+001
1.583179e+003,2.386095e+001
1.584143e+003,2.634670e+001
1.585107e+003,2.928558e+001
1.586071e+003,2.989354e+001
1.587036e+003,2.896210e+001
1.588000e+003,2.893584e+001
1.588964e+003,3.037655e+001
1.589928e+003,3.129826e+001
1.590893e+003,3.002247e+001
1.591857e+003,2.787457e+001
1.592821e+003,2.652218e+001
1.593785e+003,2.603909e+001
1.594750e+003,2.714539e+001
1.595714e+003,3.028895e+001
1.596678e+003,3.243861e+001
1.597642e+003,3.184232e+001
1.598606e+003,3.069456e+001
1.599571e+003,3.050336e+001
1.600535e+003,3.101998e+001
1.601499e+003,3.217791e+001
1.602463e+003,3.376839e+001
1.603427e+003,3.514136e+001
1.604392e+003,3.608556e+001
1.605356e+003,3.641603e+001
1.606320e+003,3.543464e+001
1.607284e+003,3.386861e+001
1.608249e+003,3.418969e+001
1.609213e+003,3.649820e+001
1.610177e+003,3.737321e+001
1.611141e+003,3.568460e+001
1.612106e+003,3.395928e+001
1.613070e+003,3.305585e+001
1.614034e+003,3.290575e+001
1.614998e+003,3.390295e+001
1.615963e+003,3.546374e+001
1.616927e+003,3.688718e+001
1.617891e+003,3.788358e+001
1.618855e+003,3.769412e+001
1.619820e+003,3.563799e+001
1.620784e+003,3.317657e+001
1.621748e+003,3.252364e+001
1.622712e+003,3.352596e+001
1.623677e+003,3.489885e+001
1.624641e+003,3.681849e+001
1.625605e+003,3.798532e+001
1.626569e+003,3.732929e+001
1.627533e+003,3.687790e+001
1.628498e+003,3.835494e+001
1.629462e+003,3.994974e+001
1.630426e+003,3.989451e+001
1.631390e+003,3.874542e+001
1.632354e+003,3.776414e+001
1.633319e+003,3.734572e+001
1.634283e+003,3.765383e+001
1.635247e+003,3.894559e+001
1.636211e+003,4.056466e+001
1.637176e+003,4.138049e+001
1.638140e+003,4.145863e+001
1.639104e+003,4.139893e+001
1.640068e+003,4.123077e+001
1.641033e+003,4.072916e+001
1.641997e+003,3.958591e+001
1.642961e+003,3.852272e+001
1.643925e+003,3.783523e+001
1.644890e+003,3.741742e+001
1.645854e+003,3.718764e+001
1.646818e+003,3.710786e+001
1.647782e+003,3.704816e+001
1.648747e+003,3.700077e+001
1.649711e+003,3.750375e+001
1.650675e+003,3.932021e+001
1.651639e+003,4.139711e+001
1.652604e+003,4.112356e+001
1.653568e+003,3.857860e+001
1.654532e+003,3.696255e+001
1.655496e+003,3.650363e+001
1.656460e+003,3.678492e+001
1.657425e+003,3.850462e+001
1.658389e+003,3.989906e+001
1.659353e+003,3.998515e+001
1.660317e+003,3.932172e+001
1.661281e+003,3.800153e+001
1.662246e+003,3.650511e+001
1.663210e+003,3.612482e+001
1.664174e+003,3.725878e+001
1.665138e+003,3.861174e+001
1.666103e+003,3.920512e+001
1.667067e+003,3.904749e+001
1.668031e+003,3.786170e+001
1.668995e+003,3.578995e+001
1.669960e+003,3.472810e+001
1.670924e+003,3.506557e+001
1.671888e+003,3.542554e+001
1.672852e+003,3.541426e+001
1.673817e+003,3.521607e+001
1.674781e+003,3.495837e+001
1.675745e+003,3.457772e+001
1.676709e+003,3.389079e+001
1.677674e+003,3.301813e+001
1.678638e+003,3.222865e+001
1.679602e+003,3.161981e+001
1.680566e+003,3.154992e+001
1.681531e+003,3.262107e+001
1.682495e+003,3.403905e+001
1.683459e+003,3.419946e+001
1.684423e+003,3.332066e+001
1.685387e+003,3.319072e+001
1.686352e+003,3.415031e+001
1.687316e+003,3.446030e+001
1.688280e+003,3.331745e+001
1.689244e+003,3.185992e+001
1.690208e+003,3.028020e+001
1.691173e+003,2.926138e+001
1.692137e+003,3.031014e+001
1.693101e+003,3.265739e+001
1.694065e+003,3.338929e+001
1.695030e+003,3.167654e+001
1.695994e+003,3.034259e+001
1.696958e+003,3.179160e+001
1.697922e+003,3.375147e+001
1.698887e+003,3.318999e+001
1.699851e+003,3.086210e+001
1.700815e+003,2.889026e+001
1.701779e+003,2.744920e+001
1.702744e+003,2.625665e+001
1.703708e+003,2.515965e+001
1.704672e+003,2.483631e+001
1.705636e+003,2.604552e+001
1.706601e+003,2.789138e+001
1.707565e+003,2.958178e+001
1.708529e+003,3.089572e+001
1.709493e+003,3.056664e+001
1.710458e+003,2.819504e+001
1.711422e+003,2.653350e+001
1.712386e+003,2.715537e+001
1.713350e+003,2.842680e+001
1.714314e+003,2.943243e+001
1.715279e+003,2.991634e+001
1.716243e+003,2.902788e+001
1.717207e+003,2.718353e+001
1.718171e+003,2.658670e+001
1.719135e+003,2.785491e+001
1.720100e+003,2.914730e+001
1.721064e+003,2.924705e+001
1.722028e+003,2.867182e+001
1.722992e+003,2.812794e+001
1.723957e+003,2.765945e+001
1.724921e+003,2.707771e+001
1.725885e+003,2.612785e+001
1.726849e+003,2.599058e+001
1.727814e+003,2.789079e+001
1.728778e+003,2.942485e+001
1.729742e+003,2.955035e+001
1.730706e+003,2.882468e+001
1.731671e+003,2.695416e+001
1.732635e+003,2.487512e+001
1.733599e+003,2.473336e+001
1.734563e+003,2.664503e+001
1.735528e+003,2.870598e+001
1.736492e+003,2.988376e+001
1.737456e+003,3.010888e+001
1.738420e+003,2.917798e+001
1.739385e+003,2.744662e+001
1.740349e+003,2.634246e+001
1.741313e+003,2.584017e+001
1.742277e+003,2.633466e+001
1.743241e+003,2.915947e+001
1.744206e+003,3.092198e+001
1.745170e+003,3.074159e+001
1.746134e+003,2.986872e+001
1.747098e+003,2.836761e+001
1.748063e+003,2.700456e+001
1.749027e+003,2.679144e+001
1.749991e+003,2.742718e+001
1.750955e+003,2.793195e+001
1.751919e+003,2.791016e+001
1.752884e+003,2.742335e+001
1.753848e+003,2.650274e+001
1.754812e+003,2.566480e+001
1.755776e+003,2.614968e+001
1.756741e+003,2.792867e+001
1.757705e+003,2.831660e+001
1.758669e+003,2.648181e+001
1.759633e+003,2.559969e+001
1.760598e+003,2.717989e+001
1.761562e+003,2.792103e+001
1.762526e+003,2.574882e+001
1.763490e+003,2.364261e+001
1.764455e+003,2.405676e+001
1.765419e+003,2.578051e+001
1.766383e+003,2.670879e+001
1.767347e+003,2.663259e+001
1.768312e+003,2.673987e+001
1.769276e+003,2.758756e+001
1.770240e+003,2.822758e+001
1.771204e+003,2.756310e+001
1.772168e+003,2.626413e+001
1.773133e+003,2.575455e+001
1.774097e+003,2.596523e+001
1.775061e+003,2.622079e+001
1.776025e+003,2.638641e+001
1.776990e+003,2.681689e+001
1.777954e+003,2.802210e+001
1.778918e+003,2.880598e+001
1.779882e+003,2.766360e+001
1.780846e+003,2.603091e+001
1.781811e+003,2.609054e+001
1.782775e+003,2.735323e+001
1.783739e+003,2.820191e+001
1.784703e+003,2.843423e+001
1.785668e+003,2.820549e+001
1.786632e+003,2.691011e+001
1.787596e+003,2.593926e+001
1.788560e+003,2.701210e+001
1.789525e+003,2.866257e+001
1.790489e+003,2.846182e+001
1.791453e+003,2.693739e+001
1.792417e+003,2.624528e+001
1.793382e+003,2.681111e+001
1.794346e+003,2.760792e+001
1.795310e+003,2.809322e+001
1.796274e+003,2.856870e+001
1.797239e+003,2.949468e+001
1.798203e+003,3.062657e+001
1.799167e+003,3.093126e+001
1.800131e+003,3.014374e+001
1.801095e+003,2.954656e+001
1.802060e+003,2.881564e+001
1.803024e+003,2.897649e+001
1.803988e+003,3.131532e+001
1.804952e+003,3.302594e+001
1.805917e+003,3.240207e+001
1.806881e+003,3.083338e+001
1.807845e+003,2.948238e+001
1.808809e+003,2.852572e+001
1.809773e+003,2.764439e+001
1.810738e+003,2.693617e+001
1.811702e+003,2.736979e+001
1.812666e+003,2.949781e+001
1.813630e+003,3.182024e+001
1.814595e+003,3.230534e+001
1.815559e+003,3.130370e+001
1.816523e+003,3.015967e+001
1.817487e+003,2.883885e+001
1.818452e+003,2.800629e+001
1.819416e+003,2.788834e+001
1.820380e+003,2.779346e+001
1.821344e+003,2.709608e+001
1.822309e+003,2.690616e+001
1.823273e+003,2.867451e+001
1.824237e+003,3.069186e+001
1.825201e+003,3.099033e+001
1.826166e+003,3.006716e+001
1.827130e+003,2.930798e+001
1.828094e+003,2.896616e+001
1.829058e+003,2.930264e+001
1.830022e+003,3.081820e+001
1.830987e+003,3.232882e+001
1.831951e+003,3.262377e+001
1.832915e+003,3.248696e+001
1.833879e+003,3.359432e+001
1.834844e+003,3.518379e+001
1.835808e+003,3.441839e+001
1.836772e+003,3.116093e+001
1.837736e+003,2.828673e+001
1.838700e+003,2.700321e+001
1.839665e+003,2.695450e+001
1.840629e+003,2.802840e+001
1.841593e+003,2.966886e+001
1.842557e+003,3.071393e+001
1.843522e+003,3.116248e+001
1.844486e+003,3.113949e+001
1.845450e+003,3.034839e+001
1.846414e+003,2.977924e+001
1.847379e+003,2.922372e+001
1.848343e+003,2.901224e+001
1.849307e+003,2.946304e+001
1.850271e+003,3.011610e+001
1.851236e+003,3.105431e+001
1.852200e+003,3.177514e+001
1.853164e+003,3.125079e+001
1.854128e+003,2.982797e+001
1.855093e+003,2.895742e+001
1.856057e+003,2.922588e+001
1.857021e+003,3.008583e+001
1.857985e+003,3.113017e+001
1.858949e+003,3.209290e+001
1.859914e+003,3.240080e+001
1.860878e+003,3.222836e+001
1.861842e+003,3.263052e+001
1.862806e+003,3.361871e+001
1.863771e+003,3.394501e+001
1.864735e+003,3.324776e+001
1.865699e+003,3.245955e+001
1.866663e+003,3.186744e+001
1.867627e+003,3.162238e+001
1.868592e+003,3.191159e+001
1.869556e+003,3.250933e+001
1.870520e+003,3.329903e+001
1.871484e+003,3.415110e+001
1.872449e+003,3.407581e+001
1.873413e+003,3.274583e+001
1.874377e+003,3.197478e+001
1.875341e+003,3.226365e+001
1.876306e+003,3.299388e+001
1.877270e+003,3.440168e+001
1.878234e+003,3.555290e+001
1.879198e+003,3.530370e+001
1.880163e+003,3.423470e+001
1.881127e+003,3.345567e+001
1.882091e+003,3.310934e+001
1.883055e+003,3.263294e+001
1.884020e+003,3.184558e+001
1.884984e+003,3.146464e+001
1.885948e+003,3.216094e+001
1.886912e+003,3.345882e+001
1.887876e+003,3.446481e+001
1.888841e+003,3.518452e+001
1.889805e+003,3.551816e+001
1.890769e+003,3.537086e+001
1.891733e+003,3.538684e+001
1.892698e+003,3.578368e+001
1.893662e+003,3.583687e+001
1.894626e+003,3.492124e+001
1.895590e+003,3.413301e+001
1.896554e+003,3.441994e+001
1.897519e+003,3.515747e+001
1.898483e+003,3.578516e+001
1.899447e+003,3.612522e+001
1.900411e+003,3.559408e+001
1.901376e+003,3.401529e+001
1.902340e+003,3.341560e+001
1.903304e+003,3.537498e+001
1.904268e+003,3.717879e+001
1.905233e+003,3.700410e+001
1.906197e+003,3.608147e+001
1.907161e+003,3.565686e+001
1.908125e+003,3.545513e+001
1.909090e+003,3.473064e+001
1.910054e+003,3.350513e+001
1.911018e+003,3.214807e+001
1.911982e+003,3.094273e+001
1.912947e+003,3.058401e+001
1.913911e+003,3.156411e+001
1.914875e+003,3.353812e+001
1.915839e+003,3.612630e+001
1.916803e+003,3.890219e+001
1.917768e+003,3.978113e+001
1.918732e+003,3.854208e+001
1.919696e+003,3.690349e+001
1.920660e+003,3.416922e+001
1.921625e+003,3.330860e+001
1.922589e+003,3.618504e+001
1.923553e+003,3.897704e+001
1.924517e+003,3.980895e+001
1.925481e+003,3.957073e+001
1.926446e+003,3.841051e+001
1.927410e+003,3.699149e+001
1.928374e+003,3.662236e+001
1.929338e+003,3.730541e+001
1.930303e+003,3.804515e+001
1.931267e+003,3.871095e+001
1.932231e+003,3.930319e+001
1.933195e+003,3.988098e+001
1.934160e+003,4.020860e+001
1.935124e+003,3.987358e+001
1.936088e+003,3.935648e+001
1.937052e+003,3.964433e+001
1.938017e+003,4.017142e+001
1.938981e+003,3.907778e+001
1.939945e+003,3.661745e+001
1.940909e+003,3.550568e+001
1.941874e+003,3.683406e+001
1.942838e+003,3.845448e+001
1.943802e+003,3.839813e+001
1.944766e+003,3.752541e+001
1.945730e+003,3.736989e+001
1.946695e+003,3.788175e+001
1.947659e+003,3.918468e+001
1.948623e+003,4.142998e+001
1.949587e+003,4.258810e+001
1.950552e+003,4.235115e+001
1.951516e+003,4.144564e+001
1.952480e+003,3.965781e+001
1.953444e+003,3.822446e+001
1.954408e+003,3.825646e+001
1.955373e+003,3.880729e+001
1.956337e+003,3.844724e+001
1.957301e+003,3.759213e+001
1.958265e+003,3.758384e+001
1.959230e+003,3.854802e+001
1.960194e+003,3.959713e+001
1.961158e+003,4.091480e+001
1.962122e+003,4.167333e+001
1.963087e+003,4.104228e+001
1.964051e+003,4.057076e+001
1.965015e+003,4.154085e+001
1.965979e+003,4.284572e+001
1.966944e+003,4.339339e+001
1.967908e+003,4.325370e+001
1.968872e+003,4.274890e+001
1.969836e+003,4.205521e+001
1.970801e+003,4.131335e+001
1.971765e+003,4.060304e+001
1.972729e+003,4.004982e+001
1.973693e+003,3.964296e+001
1.974657e+003,3.976589e+001
1.975622e+003,4.149751e+001
1.976586e+003,4.400041e+001
1.977550e+003,4.498792e+001
1.978514e+003,4.464616e+001
1.979479e+003,4.419863e+001
1.980443e+003,4.382870e+001
1.981407e+003,4.334268e+001
1.982371e+003,4.266663e+001
1.983335e+003,4.225110e+001
1.984300e+003,4.240198e+001
1.985264e+003,4.304430e+001
1.986228e+003,4.427990e+001
1.987192e+003,4.573639e+001
1.988157e+003,4.537015e+001
1.989121e+003,4.269275e+001
1.990085e+003,4.079698e+001
1.991049e+003,3.961382e+001
1.992014e+003,3.941881e+001
1.992978e+003,4.134705e+001
1.993942e+003,4.271152e+001
1.994906e+003,4.199648e+001
1.995871e+003,4.102341e+001
1.996835e+003,4.100193e+001
1.997799e+003,4.167370e+001
1.998763e+003,4.279128e+001
1.999728e+003,4.412830e+001
