5.003444e+002,1.987482e+001
5.013087e+002,1.890527e+001
5.022729e+002,2.108191e+001
5.032371e+002,2.528497e+001
5.042014e+002,2.567426e+001
5.051656e+002,2.297717e+001
5.061298e+002,2.042877e+001
5.070941e+002,2.104541e+001
5.080583e+002,2.567084e+001
5.090225e+002,2.713080e+001
5.099868e+002,2.344360e+001
5.109510e+002,1.971405e+001
5.119152e+002,1.914960e+001
5.128795e+002,2.217871e+001
5.138437e+002,2.373041e+001
5.148079e+002,2.032031e+001
5.157722e+002,1.690240e+001
5.167364e+002,1.543225e+001
5.177006e+002,1.597272e+001
5.186649e+002,1.704364e+001
5.196291e+002,1.788635e+001
5.205933e+002,1.837866e+001
5.215576e+002,1.701904e+001
5.225218e+002,1.373407e+001
5.234860e+002,1.010229e+001
5.244503e+002,9.481628e+000
5.254145e+002,1.370135e+001
5.263787e+002,1.594086e+001
5.273430e+002,1.450330e+001
5.283072e+002,1.224213e+001
5.292714e+002,1.349561e+001
5.302357e+002,2.108112e+001
5.311999e+002,2.442297e+001
5.321641e+002,2.098816e+001
5.331284e+002,1.569769e+001
5.340926e+002,1.201654e+001
5.350568e+002,1.104395e+001
5.360211e+002,1.039697e+001
5.369853e+002,8.327576e+000
5.379495e+002,6.079590e+000
5.389138e+002,4.334961e+000
5.398780e+002,3.368958e+000
5.408422e+002,3.111938e+000
5.418065e+002,3.882446e+000
5.427707e+002,5.509766e+000
5.437349e+002,7.010498e+000
5.446992e+002,8.173279e+000
5.456634e+002,8.872070e+000
5.466276e+002,8.826294e+000
5.475919e+002,7.787903e+000
5.485561e+002,6.466675e+000
5.495203e+002,3.985840e+000
5.504846e+002,1.197937e+000
5.514488e+002,-4.816895e-001
5.524130e+002,-3.552246e-002
5.533773e+002,1.179932e+000
5.543415e+002,2.795837e+000
5.553057e+002,4.406799e+000
5.562700e+002,5.441711e+000
5.572342e+002,5.503174e+000
5.581984e+002,4.963135e+000
5.591627e+002,5.311951e+000
5.601269e+002,6.335144e+000
5.610911e+002,7.037292e+000
5.620554e+002,6.790039e+000
5.630196e+002,5.472473e+000
5.639838e+002,3.400696e+000
5.649481e+002,-4.106445e-001
5.659123e+002,-3.498291e+000
5.668765e+002,-4.811096e+000
5.678408e+002,-4.524597e+000
5.688050e+002,-3.791443e+000
5.697692e+002,-3.393982e+000
5.707335e+002,-3.091858e+000
5.716977e+002,-2.240417e+000
5.726619e+002,-1.294861e+000
5.736262e+002,-9.474487e-001
5.745904e+002,-1.717773e+000
5.755546e+002,-2.674866e+000
5.765189e+002,-2.940796e+000
5.774831e+002,-2.903809e+000
5.784473e+002,-2.295959e+000
5.794116e+002,-7.772217e-001
5.803758e+002,1.626648e+000
5.813400e+002,4.124756e-001
5.823043e+002,-6.582092e+000
5.832685e+002,-1.216406e+001
5.842327e+002,-1.310242e+001
5.851970e+002,-9.726990e+000
5.861612e+002,-5.942261e+000
5.871254e+002,-1.593079e+000
5.880897e+002,1.841187e+000
5.890539e+002,4.177612e+000
5.900181e+002,5.142578e+000
5.909824e+002,4.080933e+000
5.919466e+002,-2.587891e-001
5.929108e+002,-4.371948e+000
5.938751e+002,-4.307983e+000
5.948393e+002,-1.807861e+000
5.958035e+002,6.078491e-001
5.967678e+002,1.158020e+000
5.977320e+002,3.060913e-001
5.986962e+002,4.785156e-001
5.996605e+002,1.267822e+000
6.006247e+002,1.443176e+000
6.015889e+002,-6.848145e-002
6.025532e+002,-3.010742e+000
6.035174e+002,-4.372070e+000
6.044816e+002,-2.172302e+000
6.054459e+002,-2.255249e-001
6.064101e+002,9.385376e-001
6.073743e+002,1.441650e+000
6.083386e+002,1.808899e+000
6.093028e+002,2.734985e+000
6.102670e+002,2.802368e+000
6.112313e+002,-7.135010e-002
6.121955e+002,-4.024292e+000
6.131597e+002,-6.393005e+000
6.141240e+002,-5.414795e+000
6.150882e+002,-2.283752e+000
6.160524e+002,-2.206360e+000
6.170167e+002,-4.420166e+000
6.179809e+002,-6.026184e+000
6.189451e+002,-5.605042e+000
6.199094e+002,-3.772522e+000
6.208736e+002,-3.728577e+000
6.218378e+002,-8.596680e+000
6.228021e+002,-1.068182e+001
6.237663e+002,-6.965942e+000
6.247305e+002,-5.120239e-001
6.256948e+002,3.147217e+000
6.266590e+002,1.788330e-002
6.276232e+002,-2.800659e+000
6.285875e+002,9.707031e-001
6.295517e+002,6.920715e+000
6.305159e+002,1.010144e+001
6.314802e+002,7.772949e+000
6.324444e+002,2.033813e+000
6.334086e+002,-1.371704e+000
6.343729e+002,-2.726013e+000
6.353371e+002,-2.941772e+000
6.363013e+002,-2.237915e+000
6.372656e+002,-1.098938e+000
6.382298e+002,-8.983765e-001
6.391940e+002,-2.516174e+000
6.401583e+002,-4.395752e+000
6.411225e+002,-6.536804e+000
6.420867e+002,-8.051819e+000
6.430510e+002,-8.017334e+000
6.440152e+002,-6.116272e+000
6.449794e+002,-4.425964e+000
6.459437e+002,-3.913086e+000
6.469079e+002,-4.022461e+000
6.478721e+002,-4.510620e+000
6.488364e+002,-5.051697e+000
6.498006e+002,-5.056946e+000
6.507648e+002,-2.935181e+000
6.517291e+002,9.411621e-002
6.526933e+002,9.955444e-001
6.536575e+002,-9.393921e-001
6.546218e+002,-4.135193e+000
6.555860e+002,-5.531372e+000
6.565502e+002,-4.159851e+000
6.575145e+002,-2.912720e+000
6.584787e+002,-9.726563e-001
6.594429e+002,3.129883e-001
6.604072e+002,-8.585815e-001
6.613714e+002,-5.115234e+000
6.623356e+002,-7.683899e+000
6.632999e+002,-4.103088e+000
6.642641e+002,-7.076416e-001
6.652283e+002,-1.325012e+000
6.661926e+002,-5.381409e+000
6.671568e+002,-9.046936e+000
6.681210e+002,-7.647949e+000
6.690853e+002,-3.084717e+000
6.700495e+002,-3.814697e-002
6.710137e+002,1.392151e+000
6.719780e+002,1.488708e+000
6.729422e+002,2.954712e-001
6.739064e+002,-2.881042e+000
6.748707e+002,-3.936951e+000
6.758349e+002,-1.181763e+000
6.767991e+002,9.313965e-001
6.777634e+002,1.465454e-001
6.787276e+002,-2.766968e+000
6.796918e+002,-3.894470e+000
6.806561e+002,-7.963867e-001
6.816203e+002,2.557007e+000
6.825845e+002,5.348022e+000
6.835488e+002,7.213135e+000
6.845130e+002,7.836243e+000
6.854772e+002,7.009521e+000
6.864415e+002,5.342468e+000
6.874057e+002,2.771484e+000
6.883699e+002,-4.910278e-001
6.893342e+002,-2.315491e+000
6.902984e+002,-1.229065e+000
6.912626e+002,2.290894e+000
6.922269e+002,4.023254e+000
6.931911e+002,2.978027e+000
6.941553e+002,2.699768e+000
6.951196e+002,3.479858e+000
6.960838e+002,4.410156e+000
6.970480e+002,4.138306e+000
6.980123e+002,1.757690e+000
6.989765e+002,4.766235e-001
6.999407e+002,3.125488e+000
7.009050e+002,5.983032e+000
7.018692e+002,5.280212e+000
7.028334e+002,1.416626e-001
7.037977e+002,-5.950317e+000
7.047619e+002,-6.388184e+000
7.057261e+002,-3.484375e+000
7.066904e+002,-3.308411e+000
7.076546e+002,-6.829285e+000
7.086188e+002,-1.065814e+001
7.095831e+002,-9.101257e+000
7.105473e+002,7.549438e-001
7.115115e+002,5.881775e+000
7.124758e+002,4.201416e+000
7.134400e+002,7.105713e-001
7.144042e+002,-1.797791e+000
7.153685e+002,-2.989868e+000
7.163327e+002,-3.902832e+000
7.172969e+002,-5.854065e+000
7.182612e+002,-6.585144e+000
7.192254e+002,-4.150574e+000
7.201896e+002,8.483887e-003
7.211539e+002,3.107544e+000
7.221181e+002,2.805908e+000
7.230823e+002,2.656860e-001
7.240466e+002,-1.259766e+000
7.250108e+002,-1.628906e+000
7.259750e+002,-1.450073e+000
7.269393e+002,-1.433960e+000
7.279035e+002,-1.970947e+000
7.288677e+002,-2.629211e+000
7.298320e+002,-2.775391e+000
7.307962e+002,-2.010559e+000
7.317604e+002,4.666748e-001
7.327247e+002,3.685181e+000
7.336889e+002,6.109924e+000
7.346531e+002,6.828674e+000
7.356174e+002,5.622864e+000
7.365816e+002,2.080627e+000
7.375458e+002,-1.328430e+000
7.385101e+002,-2.968506e+000
7.394743e+002,-2.337463e+000
7.404385e+002,1.852417e-001
7.414028e+002,4.667358e+000
7.423670e+002,9.356445e+000
7.433312e+002,1.040997e+001
7.442955e+002,7.963867e+000
7.452597e+002,4.925842e+000
7.462239e+002,4.472412e+000
7.471882e+002,7.435852e+000
7.481524e+002,8.410278e+000
7.491166e+002,4.736938e+000
7.500809e+002,1.226746e+000
7.510451e+002,2.728882e-001
7.520093e+002,1.158142e+000
7.529736e+002,7.482300e-001
7.539378e+002,-3.415344e+000
7.549020e+002,-6.364441e+000
7.558663e+002,-4.114868e+000
7.568306e+002,6.845703e-001
7.577948e+002,4.042053e+000
7.587590e+002,3.508972e+000
7.597233e+002,6.140137e-001
7.606875e+002,1.423096e+000
7.616517e+002,5.678589e+000
7.626160e+002,8.000977e+000
7.635802e+002,6.396606e+000
7.645444e+002,2.984985e+000
7.655087e+002,2.280945e+000
7.664729e+002,6.153320e+000
7.674371e+002,8.357239e+000
7.684014e+002,7.914673e+000
7.693656e+002,6.494507e+000
7.703298e+002,4.766968e+000
7.712941e+002,3.075806e+000
7.722583e+002,2.203003e+000
7.732225e+002,3.596436e+000
7.741868e+002,5.169312e+000
7.751510e+002,4.607727e+000
7.761152e+002,2.806824e+000
7.770795e+002,2.315918e+000
7.780437e+002,5.366333e+000
7.790079e+002,1.107916e+001
7.799722e+002,1.222748e+001
7.809364e+002,8.503601e+000
7.819006e+002,5.310669e+000
7.828649e+002,5.793640e+000
7.838291e+002,8.843506e+000
7.847933e+002,9.882568e+000
7.857576e+002,6.760864e+000
7.867218e+002,3.546143e+000
7.876860e+002,4.240112e-001
7.886503e+002,-1.317932e+000
7.896145e+002,3.096924e-001
7.905787e+002,5.435059e+000
7.915430e+002,1.020966e+001
7.925072e+002,9.132385e+000
7.934714e+002,5.370178e+000
7.944357e+002,2.582031e+000
7.953999e+002,1.418030e+000
7.963641e+002,1.116638e+000
7.973284e+002,6.096191e-001
7.982926e+002,-2.069702e-001
7.992568e+002,1.387207e+000
8.002211e+002,5.883728e+000
8.011853e+002,9.267822e+000
8.021495e+002,1.092358e+001
8.031138e+002,1.157330e+001
8.040780e+002,1.163776e+001
8.050422e+002,9.377197e+000
8.060065e+002,8.284607e+000
8.069707e+002,1.062994e+001
8.079349e+002,1.330798e+001
8.088992e+002,1.273621e+001
8.098634e+002,8.191650e+000
8.108276e+002,3.638000e+000
8.117919e+002,5.567383e+000
8.127561e+002,1.020782e+001
8.137203e+002,1.104877e+001
8.146846e+002,7.861755e+000
8.156488e+002,3.763489e+000
8.166130e+002,2.207886e+000
8.175773e+002,3.439819e+000
8.185415e+002,5.063721e+000
8.195057e+002,7.316956e+000
8.204700e+002,8.789551e+000
8.214342e+002,8.639832e+000
8.223984e+002,7.367615e+000
8.233627e+002,6.180725e+000
8.243269e+002,5.181335e+000
8.252911e+002,5.449524e+000
8.262554e+002,8.101624e+000
8.272196e+002,1.155865e+001
8.281838e+002,1.430988e+001
8.291481e+002,1.570337e+001
8.301123e+002,1.607721e+001
8.310765e+002,1.600946e+001
8.320408e+002,1.524030e+001
8.330050e+002,1.299445e+001
8.339692e+002,8.685486e+000
8.349335e+002,4.968262e+000
8.358977e+002,5.375122e+000
8.368619e+002,1.099500e+001
8.378262e+002,1.456458e+001
8.387904e+002,1.279852e+001
8.397546e+002,1.178430e+001
8.407189e+002,1.399084e+001
8.416831e+002,1.782086e+001
8.426473e+002,2.021008e+001
8.436116e+002,1.962354e+001
8.445758e+002,1.841614e+001
8.455400e+002,1.905035e+001
8.465043e+002,1.965338e+001
8.474685e+002,1.804230e+001
8.484327e+002,1.431342e+001
8.493970e+002,1.103809e+001
8.503612e+002,1.212543e+001
8.513254e+002,1.845227e+001
8.522897e+002,2.109149e+001
8.532539e+002,1.763721e+001
8.542181e+002,1.355133e+001
8.551824e+002,1.296136e+001
8.561466e+002,1.577539e+001
8.571108e+002,1.731989e+001
8.580751e+002,1.263647e+001
8.590393e+002,9.834900e+000
8.600035e+002,1.404877e+001
8.609678e+002,2.087628e+001
8.619320e+002,2.488708e+001
8.628962e+002,2.395502e+001
8.638605e+002,2.148169e+001
8.648247e+002,2.326007e+001
8.657889e+002,2.705212e+001
8.667532e+002,2.789032e+001
8.677174e+002,2.513611e+001
8.686816e+002,2.151447e+001
8.696459e+002,2.023132e+001
8.706101e+002,2.183264e+001
8.715743e+002,2.361584e+001
8.725386e+002,2.560236e+001
8.735028e+002,2.781451e+001
8.744670e+002,3.043335e+001
8.754313e+002,3.261102e+001
8.763955e+002,3.310199e+001
8.773597e+002,3.140668e+001
8.783240e+002,2.918921e+001
8.792882e+002,2.699573e+001
8.802524e+002,2.493378e+001
8.812167e+002,2.307587e+001
8.821809e+002,2.155975e+001
8.831451e+002,2.075183e+001
8.841094e+002,2.125861e+001
8.850736e+002,2.335895e+001
8.860378e+002,2.525360e+001
8.870021e+002,2.641168e+001
8.879663e+002,2.815411e+001
8.889305e+002,3.219452e+001
8.898948e+002,3.748962e+001
8.908590e+002,3.898822e+001
8.918232e+002,3.336926e+001
8.927875e+002,2.960223e+001
8.937517e+002,3.053412e+001
8.947159e+002,3.316760e+001
8.956802e+002,3.464343e+001
8.966444e+002,3.419946e+001
8.976086e+002,3.350116e+001
8.985729e+002,3.487042e+001
8.995371e+002,3.740143e+001
9.005013e+002,3.888885e+001
9.014656e+002,3.964374e+001
9.024298e+002,4.064258e+001
9.033940e+002,4.238446e+001
9.043583e+002,4.439807e+001
9.053225e+002,4.568634e+001
9.062867e+002,4.606274e+001
9.072510e+002,4.511572e+001
9.082152e+002,4.246484e+001
9.091794e+002,3.971210e+001
9.101437e+002,3.826111e+001
9.111079e+002,3.829279e+001
9.120721e+002,3.888489e+001
9.130364e+002,3.940106e+001
9.140006e+002,3.967371e+001
9.149648e+002,3.996527e+001
9.159291e+002,4.051794e+001
9.168933e+002,4.141217e+001
9.178575e+002,4.249243e+001
9.188218e+002,4.338062e+001
9.197860e+002,4.347070e+001
9.207502e+002,4.259418e+001
9.217145e+002,4.093152e+001
9.226787e+002,3.871558e+001
9.236429e+002,3.656293e+001
9.246072e+002,3.459070e+001
9.255714e+002,3.215833e+001
9.265356e+002,3.157922e+001
9.274999e+002,3.569714e+001
9.284641e+002,3.864166e+001
9.294283e+002,3.808057e+001
9.303926e+002,3.529053e+001
9.313568e+002,3.250415e+001
9.323210e+002,3.078320e+001
9.332853e+002,2.984570e+001
9.342495e+002,2.983301e+001
9.352137e+002,3.009259e+001
9.361780e+002,2.977826e+001
9.371422e+002,2.905756e+001
9.381064e+002,2.904034e+001
9.390707e+002,3.087482e+001
9.400349e+002,3.442010e+001
9.409991e+002,3.766302e+001
9.419634e+002,4.183582e+001
9.429276e+002,4.400629e+001
9.438918e+002,4.214050e+001
9.448561e+002,3.837311e+001
9.458203e+002,3.623895e+001
9.467845e+002,3.694250e+001
9.477488e+002,3.883673e+001
9.487130e+002,4.166217e+001
9.496772e+002,4.424445e+001
9.506415e+002,4.557855e+001
9.516057e+002,4.564197e+001
9.525699e+002,4.481219e+001
9.535342e+002,4.336951e+001
9.544984e+002,4.132184e+001
9.554626e+002,4.040338e+001
9.564269e+002,4.131726e+001
9.573911e+002,4.271228e+001
9.583553e+002,4.425385e+001
9.593196e+002,4.578601e+001
9.602838e+002,4.703436e+001
9.612480e+002,4.774878e+001
9.622123e+002,4.854639e+001
9.631765e+002,5.020319e+001
9.641407e+002,5.172235e+001
9.651050e+002,5.323340e+001
9.660692e+002,5.382513e+001
9.670334e+002,5.154126e+001
9.679977e+002,4.529962e+001
9.689619e+002,3.853900e+001
9.699261e+002,3.955511e+001
9.708904e+002,4.523364e+001
9.718546e+002,4.740735e+001
9.728188e+002,4.359546e+001
9.737831e+002,3.787457e+001
9.747473e+002,3.587854e+001
9.757115e+002,3.850488e+001
9.766758e+002,4.091132e+001
9.776400e+002,4.448346e+001
9.786042e+002,4.686267e+001
9.795685e+002,4.627368e+001
9.805327e+002,4.405475e+001
9.814969e+002,4.242407e+001
9.824612e+002,4.240454e+001
9.834254e+002,4.280157e+001
9.843896e+002,4.112823e+001
9.853539e+002,3.931812e+001
9.863181e+002,4.007056e+001
9.872823e+002,4.286444e+001
9.882466e+002,4.534930e+001
9.892108e+002,4.587604e+001
9.901750e+002,4.568951e+001
9.911393e+002,4.934308e+001
9.921035e+002,6.016687e+001
9.930677e+002,6.675238e+001
9.940320e+002,6.585327e+001
9.949962e+002,6.363593e+001
9.959604e+002,6.602496e+001
9.969247e+002,7.337994e+001
9.978889e+002,8.071912e+001
9.988531e+002,8.539044e+001
9.998174e+002,8.834283e+001
1.000782e+003,8.985950e+001
1.001746e+003,9.111401e+001
1.002710e+003,9.394159e+001
1.003674e+003,9.879620e+001
1.004639e+003,1.036520e+002
1.005603e+003,1.047600e+002
1.006567e+003,1.015107e+002
1.007531e+003,1.004617e+002
1.008495e+003,1.027589e+002
1.009460e+003,1.050149e+002
1.010424e+003,1.056472e+002
1.011388e+003,1.048525e+002
1.012352e+003,1.027652e+002
1.013317e+003,9.832739e+001
1.014281e+003,9.412317e+001
1.015245e+003,9.129590e+001
1.016209e+003,8.823474e+001
1.017174e+003,8.387262e+001
1.018138e+003,7.826447e+001
1.019102e+003,7.196582e+001
1.020066e+003,6.534369e+001
1.021031e+003,5.932837e+001
1.021995e+003,5.609869e+001
1.022959e+003,5.467896e+001
1.023923e+003,5.336389e+001
1.024887e+003,5.192389e+001
1.025852e+003,4.956903e+001
1.026816e+003,4.469617e+001
1.027780e+003,3.670129e+001
1.028744e+003,3.085089e+001
1.029709e+003,2.848956e+001
1.030673e+003,2.694672e+001
1.031637e+003,2.524573e+001
1.032601e+003,2.371094e+001
1.033566e+003,2.313861e+001
1.034530e+003,2.392889e+001
1.035494e+003,2.570197e+001
1.036458e+003,2.868231e+001
1.037422e+003,3.155841e+001
1.038387e+003,3.209741e+001
1.039351e+003,3.030188e+001
1.040315e+003,2.779205e+001
1.041279e+003,2.581171e+001
1.042244e+003,2.457135e+001
1.043208e+003,2.422711e+001
1.044172e+003,2.465167e+001
1.045136e+003,2.540009e+001
1.046101e+003,2.703784e+001
1.047065e+003,2.883270e+001
1.048029e+003,3.046991e+001
1.048993e+003,3.166083e+001
1.049958e+003,3.190088e+001
1.050922e+003,3.092462e+001
1.051886e+003,2.980902e+001
1.052850e+003,2.914502e+001
1.053814e+003,2.905261e+001
1.054779e+003,3.014783e+001
1.055743e+003,3.226855e+001
1.056707e+003,3.405499e+001
1.057671e+003,3.383997e+001
1.058636e+003,3.151318e+001
1.059600e+003,3.000122e+001
1.060564e+003,3.138629e+001
1.061528e+003,3.169946e+001
1.062493e+003,2.872449e+001
1.063457e+003,2.465643e+001
1.064421e+003,2.220313e+001
1.065385e+003,2.185095e+001
1.066349e+003,2.218451e+001
1.067314e+003,2.281555e+001
1.068278e+003,2.363965e+001
1.069242e+003,2.534540e+001
1.070206e+003,2.717334e+001
1.071171e+003,2.737354e+001
1.072135e+003,2.522546e+001
1.073099e+003,2.208990e+001
1.074063e+003,2.063916e+001
1.075028e+003,2.123645e+001
1.075992e+003,2.156250e+001
1.076956e+003,2.125220e+001
1.077920e+003,2.059991e+001
1.078885e+003,1.955939e+001
1.079849e+003,1.891693e+001
1.080813e+003,1.988147e+001
1.081777e+003,2.279468e+001
1.082741e+003,2.666962e+001
1.083706e+003,3.300537e+001
1.084670e+003,3.741937e+001
1.085634e+003,3.641071e+001
1.086598e+003,3.166998e+001
1.087563e+003,2.664673e+001
1.088527e+003,2.354462e+001
1.089491e+003,2.192279e+001
1.090455e+003,2.015424e+001
1.091420e+003,1.784052e+001
1.092384e+003,1.742938e+001
1.093348e+003,1.947760e+001
1.094312e+003,2.166492e+001
1.095276e+003,2.318896e+001
1.096241e+003,2.435547e+001
1.097205e+003,2.520813e+001
1.098169e+003,2.537091e+001
1.099133e+003,2.524493e+001
1.100098e+003,2.548248e+001
1.101062e+003,2.548383e+001
1.102026e+003,2.375281e+001
1.102990e+003,2.162097e+001
1.103955e+003,2.222577e+001
1.104919e+003,2.733264e+001
1.105883e+003,3.446356e+001
1.106847e+003,3.879279e+001
1.107812e+003,4.005267e+001
1.108776e+003,3.982043e+001
1.109740e+003,3.761798e+001
1.110704e+003,3.506970e+001
1.111668e+003,3.310034e+001
1.112633e+003,3.221289e+001
1.113597e+003,3.371082e+001
1.114561e+003,3.870557e+001
1.115525e+003,4.283459e+001
1.116490e+003,4.437549e+001
1.117454e+003,4.497736e+001
1.118418e+003,4.558807e+001
1.119382e+003,4.673828e+001
1.120347e+003,4.884021e+001
1.121311e+003,5.176746e+001
1.122275e+003,5.389801e+001
1.123239e+003,5.246552e+001
1.124203e+003,4.853870e+001
1.125168e+003,4.820062e+001
1.126132e+003,5.343347e+001
1.127096e+003,5.864899e+001
1.128060e+003,5.765833e+001
1.129025e+003,5.233582e+001
1.129989e+003,5.305743e+001
1.130953e+003,6.355035e+001
1.131917e+003,7.270465e+001
1.132882e+003,7.743958e+001
1.133846e+003,8.064777e+001
1.134810e+003,8.366510e+001
1.135774e+003,8.678290e+001
1.136739e+003,8.958496e+001
1.137703e+003,9.183270e+001
1.138667e+003,9.442145e+001
1.139631e+003,9.895819e+001
1.140595e+003,1.054618e+002
1.141560e+003,1.138537e+002
1.142524e+003,1.247161e+002
1.143488e+003,1.368061e+002
1.144452e+003,1.481617e+002
1.145417e+003,1.598569e+002
1.146381e+003,1.761838e+002
1.147345e+003,1.985107e+002
1.148309e+003,2.217940e+002
1.149274e+003,2.464737e+002
1.150238e+003,2.705046e+002
1.151202e+003,2.935679e+002
1.152166e+003,3.155049e+002
1.153130e+003,3.367949e+002
1.154095e+003,3.569235e+002
1.155059e+003,3.723621e+002
1.156023e+003,3.788116e+002
1.156987e+003,3.763727e+002
1.157952e+003,3.684158e+002
1.158916e+003,3.550237e+002
1.159880e+003,3.411647e+002
1.160844e+003,3.298820e+002
1.161809e+003,3.181087e+002
1.162773e+003,2.997551e+002
1.163737e+003,2.734187e+002
1.164701e+003,2.470171e+002
1.165666e+003,2.201262e+002
1.166630e+003,1.968417e+002
1.167594e+003,1.783678e+002
1.168558e+003,1.645101e+002
1.169522e+003,1.554790e+002
1.170487e+003,1.509543e+002
1.171451e+003,1.497939e+002
1.172415e+003,1.509970e+002
1.173379e+003,1.538297e+002
1.174344e+003,1.557187e+002
1.175308e+003,1.571815e+002
1.176272e+003,1.556755e+002
1.177236e+003,1.484600e+002
1.178201e+003,1.396688e+002
1.179165e+003,1.346451e+002
1.180129e+003,1.330784e+002
1.181093e+003,1.300903e+002
1.182057e+003,1.239427e+002
1.183022e+003,1.178607e+002
1.183986e+003,1.120000e+002
1.184950e+003,1.075314e+002
1.185914e+003,1.061697e+002
1.186879e+003,1.076471e+002
1.187843e+003,1.098579e+002
1.188807e+003,1.109282e+002
1.189771e+003,1.114860e+002
1.190736e+003,1.143710e+002
1.191700e+003,1.199152e+002
1.192664e+003,1.236368e+002
1.193628e+003,1.255119e+002
1.194593e+003,1.256478e+002
1.195557e+003,1.237934e+002
1.196521e+003,1.200801e+002
1.197485e+003,1.148803e+002
1.198449e+003,1.076567e+002
1.199414e+003,1.011401e+002
1.200378e+003,9.655090e+001
1.201342e+003,9.314490e+001
1.202306e+003,9.104358e+001
1.203271e+003,8.941394e+001
1.204235e+003,8.678925e+001
1.205199e+003,8.265802e+001
1.206163e+003,7.835736e+001
1.207128e+003,7.610785e+001
1.208092e+003,7.611511e+001
1.209056e+003,7.466138e+001
1.210020e+003,7.196643e+001
1.210984e+003,6.787048e+001
1.211949e+003,6.114636e+001
1.212913e+003,5.350629e+001
1.213877e+003,4.738226e+001
1.214841e+003,4.303583e+001
1.215806e+003,3.895618e+001
1.216770e+003,3.430310e+001
1.217734e+003,2.999335e+001
1.218698e+003,2.589972e+001
1.219663e+003,2.245068e+001
1.220627e+003,2.062097e+001
1.221591e+003,2.030695e+001
1.222555e+003,2.024921e+001
1.223520e+003,1.936719e+001
1.224484e+003,1.800293e+001
1.225448e+003,1.693866e+001
1.226412e+003,1.671265e+001
1.227376e+003,1.519824e+001
1.228341e+003,9.743408e+000
1.229305e+003,5.688171e+000
1.230269e+003,7.380615e+000
1.231233e+003,1.208051e+001
1.232198e+003,1.391986e+001
1.233162e+003,1.144922e+001
1.234126e+003,9.275696e+000
1.235090e+003,1.073462e+001
1.236055e+003,1.348053e+001
1.237019e+003,1.550757e+001
1.237983e+003,1.656488e+001
1.238947e+003,1.626752e+001
1.239911e+003,1.470728e+001
1.240876e+003,1.353418e+001
1.241840e+003,1.538251e+001
1.242804e+003,2.062494e+001
1.243768e+003,2.254510e+001
1.244733e+003,1.621814e+001
1.245697e+003,1.315686e+001
1.246661e+003,1.640692e+001
1.247625e+003,2.038525e+001
1.248590e+003,2.090613e+001
1.249554e+003,1.894226e+001
1.250518e+003,1.816791e+001
1.251482e+003,2.008820e+001
1.252447e+003,2.226056e+001
1.253411e+003,2.175403e+001
1.254375e+003,2.010211e+001
1.255339e+003,2.031683e+001
1.256303e+003,2.265326e+001
1.257268e+003,2.522461e+001
1.258232e+003,2.646222e+001
1.259196e+003,2.692749e+001
1.260160e+003,2.832751e+001
1.261125e+003,3.099744e+001
1.262089e+003,3.502277e+001
1.263053e+003,4.226593e+001
1.264017e+003,4.760669e+001
1.264982e+003,5.002100e+001
1.265946e+003,5.027032e+001
1.266910e+003,4.813483e+001
1.267874e+003,4.453735e+001
1.268839e+003,4.180060e+001
1.269803e+003,4.151672e+001
1.270767e+003,4.231128e+001
1.271731e+003,4.146912e+001
1.272695e+003,3.926648e+001
1.273660e+003,3.834851e+001
1.274624e+003,3.903357e+001
1.275588e+003,3.840155e+001
1.276552e+003,3.394922e+001
1.277517e+003,2.830981e+001
1.278481e+003,2.669922e+001
1.279445e+003,2.967682e+001
1.280409e+003,3.029797e+001
1.281374e+003,2.354407e+001
1.282338e+003,1.794720e+001
1.283302e+003,1.914673e+001
1.284266e+003,2.292328e+001
1.285230e+003,2.471069e+001
1.286195e+003,2.362555e+001
1.287159e+003,2.119275e+001
1.288123e+003,1.882990e+001
1.289087e+003,1.710162e+001
1.290052e+003,1.699707e+001
1.291016e+003,1.906012e+001
1.291980e+003,1.946893e+001
1.292944e+003,1.602051e+001
1.293909e+003,1.313513e+001
1.294873e+003,1.411176e+001
1.295837e+003,1.641449e+001
1.296801e+003,1.574750e+001
1.297766e+003,1.183289e+001
1.298730e+003,8.962280e+000
1.299694e+003,9.401245e+000
1.300658e+003,1.103546e+001
1.301622e+003,1.245331e+001
1.302587e+003,1.344141e+001
1.303551e+003,1.275354e+001
1.304515e+003,1.060382e+001
1.305479e+003,9.853149e+000
1.306444e+003,1.294843e+001
1.307408e+003,1.827020e+001
1.308372e+003,2.065570e+001
1.309336e+003,1.862195e+001
1.310301e+003,1.811578e+001
1.311265e+003,2.266821e+001
1.312229e+003,2.524030e+001
1.313193e+003,2.221259e+001
1.314157e+003,1.702319e+001
1.315122e+003,1.308038e+001
1.316086e+003,1.082739e+001
1.317050e+003,8.443604e+000
1.318014e+003,4.731689e+000
1.318979e+003,2.445374e+000
1.319943e+003,8.025635e+000
1.320907e+003,2.015088e+001
1.321871e+003,2.466693e+001
1.322836e+003,1.825305e+001
1.323800e+003,1.214246e+001
1.324764e+003,1.355646e+001
1.325728e+003,1.848279e+001
1.326693e+003,1.967090e+001
1.327657e+003,1.662207e+001
1.328621e+003,1.385815e+001
1.329585e+003,1.354938e+001
1.330549e+003,1.448767e+001
1.331514e+003,1.486621e+001
1.332478e+003,1.504047e+001
1.333442e+003,1.639972e+001
1.334406e+003,1.851367e+001
1.335371e+003,1.898792e+001
1.336335e+003,1.645453e+001
1.337299e+003,1.301251e+001
1.338263e+003,1.263416e+001
1.339228e+003,1.584131e+001
1.340192e+003,1.736285e+001
1.341156e+003,1.554529e+001
1.342120e+003,1.456012e+001
1.343084e+003,1.512451e+001
1.344049e+003,1.583411e+001
1.345013e+003,1.607648e+001
1.345977e+003,1.602832e+001
1.346941e+003,1.557141e+001
1.347906e+003,1.453784e+001
1.348870e+003,1.452063e+001
1.349834e+003,1.778937e+001
1.350798e+003,2.206482e+001
1.351763e+003,2.338898e+001
1.352727e+003,2.224481e+001
1.353691e+003,2.108002e+001
1.354655e+003,2.106244e+001
1.355620e+003,2.052173e+001
1.356584e+003,1.656989e+001
1.357548e+003,9.995422e+000
1.358512e+003,7.024841e+000
1.359476e+003,8.900818e+000
1.360441e+003,1.015454e+001
1.361405e+003,9.088257e+000
1.362369e+003,7.906189e+000
1.363333e+003,7.664856e+000
1.364298e+003,8.035461e+000
1.365262e+003,8.355469e+000
1.366226e+003,8.536987e+000
1.367190e+003,9.346802e+000
1.368155e+003,1.152332e+001
1.369119e+003,1.408582e+001
1.370083e+003,1.387891e+001
1.371047e+003,1.011664e+001
1.372011e+003,7.802124e+000
1.372976e+003,6.136230e+000
1.373940e+003,5.917908e+000
1.374904e+003,9.144958e+000
1.375868e+003,1.326056e+001
1.376833e+003,1.433514e+001
1.377797e+003,1.243121e+001
1.378761e+003,1.172375e+001
1.379725e+003,1.467267e+001
1.380690e+003,1.742950e+001
1.381654e+003,1.436108e+001
1.382618e+003,9.649719e+000
1.383582e+003,9.456909e+000
1.384547e+003,1.361127e+001
1.385511e+003,1.798029e+001
1.386475e+003,2.054315e+001
1.387439e+003,2.146143e+001
1.388403e+003,2.062421e+001
1.389368e+003,1.799402e+001
1.390332e+003,1.617767e+001
1.391296e+003,1.590057e+001
1.392260e+003,1.572760e+001
1.393225e+003,1.475183e+001
1.394189e+003,1.416351e+001
1.395153e+003,1.508490e+001
1.396117e+003,1.668524e+001
1.397082e+003,1.745142e+001
1.398046e+003,1.728302e+001
1.399010e+003,1.793445e+001
1.399974e+003,2.083716e+001
1.400938e+003,2.409338e+001
1.401903e+003,2.276569e+001
1.402867e+003,1.595337e+001
1.403831e+003,1.429236e+001
1.404795e+003,2.166351e+001
1.405760e+003,2.759314e+001
1.406724e+003,2.711603e+001
1.407688e+003,2.281335e+001
1.408652e+003,1.740515e+001
1.409617e+003,1.227374e+001
1.410581e+003,9.832642e+000
1.411545e+003,1.134802e+001
1.412509e+003,1.397925e+001
1.413474e+003,1.502979e+001
1.414438e+003,1.466846e+001
1.415402e+003,1.365277e+001
1.416366e+003,1.260468e+001
1.417330e+003,1.276581e+001
1.418295e+003,1.469055e+001
1.419259e+003,1.774121e+001
1.420223e+003,2.209247e+001
1.421187e+003,2.677496e+001
1.422152e+003,2.651923e+001
1.423116e+003,1.928156e+001
1.424080e+003,1.524384e+001
1.425044e+003,1.992450e+001
1.426009e+003,2.454358e+001
1.426973e+003,2.575311e+001
1.427937e+003,2.469739e+001
1.428901e+003,2.191406e+001
1.429865e+003,1.875208e+001
1.430830e+003,1.825659e+001
1.431794e+003,2.214874e+001
1.432758e+003,2.761011e+001
1.433722e+003,2.946796e+001
1.434687e+003,2.793188e+001
1.435651e+003,2.895990e+001
1.436615e+003,3.321698e+001
1.437579e+003,3.598334e+001
1.438544e+003,3.668042e+001
1.439508e+003,3.634930e+001
1.440472e+003,3.545703e+001
1.441436e+003,3.470770e+001
1.442401e+003,3.538025e+001
1.443365e+003,3.734424e+001
1.444329e+003,3.768597e+001
1.445293e+003,3.396802e+001
1.446257e+003,2.879865e+001
1.447222e+003,2.698309e+001
1.448186e+003,2.788550e+001
1.449150e+003,2.877222e+001
1.450114e+003,2.951624e+001
1.451079e+003,2.922656e+001
1.452043e+003,2.643341e+001
1.453007e+003,2.365973e+001
1.453971e+003,2.505383e+001
1.454936e+003,2.968335e+001
1.455900e+003,3.109961e+001
1.456864e+003,2.691736e+001
1.457828e+003,2.405585e+001
1.458792e+003,2.850281e+001
1.459757e+003,3.350952e+001
1.460721e+003,3.278278e+001
1.461685e+003,2.859229e+001
1.462649e+003,2.620160e+001
1.463614e+003,2.708557e+001
1.464578e+003,2.859241e+001
1.465542e+003,2.815137e+001
1.466506e+003,2.644775e+001
1.467471e+003,2.610291e+001
1.468435e+003,2.792340e+001
1.469399e+003,2.974597e+001
1.470363e+003,3.216846e+001
1.471328e+003,3.230908e+001
1.472292e+003,2.600354e+001
1.473256e+003,1.975195e+001
1.474220e+003,1.923364e+001
1.475184e+003,2.310254e+001
1.476149e+003,2.796100e+001
1.477113e+003,3.187048e+001
1.478077e+003,3.371002e+001
1.479041e+003,3.261230e+001
1.480006e+003,3.020276e+001
1.480970e+003,3.104108e+001
1.481934e+003,3.574426e+001
1.482898e+003,3.908167e+001
1.483863e+003,4.054596e+001
1.484827e+003,4.129803e+001
1.485791e+003,4.122968e+001
1.486755e+003,4.168066e+001
1.487719e+003,4.381158e+001
1.488684e+003,4.699487e+001
1.489648e+003,5.000970e+001
1.490612e+003,5.266394e+001
1.491576e+003,5.505554e+001
1.492541e+003,5.681006e+001
1.493505e+003,5.854785e+001
1.494469e+003,6.224780e+001
1.495433e+003,6.701489e+001
1.496398e+003,7.012085e+001
1.497362e+003,7.132080e+001
1.498326e+003,7.313177e+001
1.499290e+003,7.628839e+001
1.500255e+003,8.101788e+001
1.501219e+003,8.737030e+001
1.502183e+003,9.529846e+001
1.503147e+003,1.055620e+002
1.504111e+003,1.187184e+002
1.505076e+003,1.320746e+002
1.506040e+003,1.431310e+002
1.507004e+003,1.550153e+002
1.507968e+003,1.710767e+002
1.508933e+003,1.900831e+002
1.509897e+003,2.091310e+002
1.510861e+003,2.284830e+002
1.511825e+003,2.516041e+002
1.512790e+003,2.811796e+002
1.513754e+003,3.139225e+002
1.514718e+003,3.442486e+002
1.515682e+003,3.717364e+002
1.516646e+003,3.998981e+002
1.517611e+003,4.311352e+002
1.518575e+003,4.592419e+002
1.519539e+003,4.840956e+002
1.520503e+003,5.043468e+002
1.521468e+003,5.196293e+002
1.522432e+003,5.290958e+002
1.523396e+003,5.310121e+002
1.524360e+003,5.258420e+002
1.525325e+003,5.165554e+002
1.526289e+003,5.052739e+002
1.527253e+003,4.913683e+002
1.528217e+003,4.735270e+002
1.529182e+003,4.521304e+002
1.530146e+003,4.262656e+002
1.531110e+003,3.945522e+002
1.532074e+003,3.597709e+002
1.533039e+003,3.186599e+002
1.534003e+003,2.770513e+002
1.534967e+003,2.361490e+002
1.535931e+003,1.988677e+002
1.536896e+003,1.681052e+002
1.537860e+003,1.437829e+002
1.538824e+003,1.241224e+002
1.539788e+003,1.077944e+002
1.540752e+003,9.345648e+001
1.541717e+003,7.943323e+001
1.542681e+003,6.670355e+001
1.543645e+003,5.990607e+001
1.544609e+003,6.326910e+001
1.545573e+003,6.309467e+001
1.546538e+003,5.497784e+001
1.547502e+003,4.788318e+001
1.548466e+003,4.736053e+001
1.549430e+003,4.871039e+001
1.550395e+003,4.608337e+001
1.551359e+003,4.035083e+001
1.552323e+003,3.629279e+001
1.553287e+003,3.559650e+001
1.554252e+003,3.569330e+001
1.555216e+003,3.421484e+001
1.556180e+003,3.213721e+001
1.557144e+003,3.208826e+001
1.558109e+003,3.432257e+001
1.559073e+003,3.537274e+001
1.560037e+003,3.407397e+001
1.561001e+003,3.236267e+001
1.561966e+003,3.222882e+001
1.562930e+003,3.196997e+001
1.563894e+003,2.833032e+001
1.564858e+003,2.310712e+001
1.565823e+003,2.128607e+001
1.566787e+003,2.366388e+001
1.567751e+003,2.724854e+001
1.568715e+003,3.098126e+001
1.569679e+003,3.400519e+001
1.570644e+003,3.448895e+001
1.571608e+003,3.305249e+001
1.572572e+003,3.285651e+001
1.573536e+003,3.434229e+001
1.574500e+003,3.439893e+001
1.575465e+003,3.079358e+001
1.576429e+003,2.701752e+001
1.577393e+003,2.554810e+001
1.578357e+003,2.573096e+001
1.579322e+003,2.701770e+001
1.580286e+003,2.936774e+001
1.581250e+003,3.153094e+001
1.582214e+003,3.326550e+001
1.583179e+003,3.415326e+001
1.584143e+003,3.325842e+001
1.585107e+003,3.139197e+001
1.586071e+003,3.027698e+001
1.587036e+003,3.010046e+001
1.588000e+003,2.968024e+001
1.588964e+003,2.835535e+001
1.589928e+003,2.770923e+001
1.590893e+003,2.930103e+001
1.591857e+003,3.183411e+001
1.592821e+003,3.333258e+001
1.593785e+003,3.407892e+001
1.594750e+003,3.528491e+001
1.595714e+003,3.695831e+001
1.596678e+003,3.861206e+001
1.597642e+003,4.051514e+001
1.598606e+003,4.175494e+001
1.599571e+003,4.049414e+001
1.600535e+003,3.912097e+001
1.601499e+003,4.184723e+001
1.602463e+003,4.762415e+001
1.603427e+003,5.033136e+001
1.604392e+003,4.729474e+001
1.605356e+003,4.252783e+001
1.606320e+003,3.976544e+001
1.607284e+003,3.856561e+001
1.608249e+003,3.799579e+001
1.609213e+003,3.812671e+001
1.610177e+003,3.631018e+001
1.611141e+003,3.079517e+001
1.612106e+003,2.664728e+001
1.613070e+003,2.815540e+001
1.614034e+003,3.015125e+001
1.614998e+003,2.823376e+001
1.615963e+003,2.453424e+001
1.616927e+003,2.299811e+001
1.617891e+003,2.391766e+001
1.618855e+003,2.447113e+001
1.619820e+003,2.276056e+001
1.620784e+003,1.972382e+001
1.621748e+003,1.685065e+001
1.622712e+003,1.498492e+001
1.623677e+003,1.618445e+001
1.624641e+003,2.125806e+001
1.625605e+003,2.496716e+001
1.626569e+003,2.452411e+001
1.627533e+003,2.305957e+001
1.628498e+003,2.164447e+001
1.629462e+003,2.131580e+001
1.630426e+003,2.407465e+001
1.631390e+003,2.811298e+001
1.632354e+003,2.931659e+001
1.633319e+003,2.689465e+001
1.634283e+003,2.414313e+001
1.635247e+003,2.347388e+001
1.636211e+003,2.365436e+001
1.637176e+003,2.239020e+001
1.638140e+003,2.005908e+001
1.639104e+003,1.956238e+001
1.640068e+003,2.123077e+001
1.641033e+003,2.296436e+001
1.641997e+003,2.479913e+001
1.642961e+003,2.627460e+001
1.643925e+003,2.761945e+001
1.644890e+003,2.812103e+001
1.645854e+003,2.562262e+001
1.646818e+003,2.176581e+001
1.647782e+003,2.143976e+001
1.648747e+003,2.581921e+001
1.649711e+003,2.991864e+001
1.650675e+003,2.973480e+001
1.651639e+003,2.733044e+001
1.652604e+003,2.652820e+001
1.653568e+003,2.698828e+001
1.654532e+003,2.569714e+001
1.655496e+003,2.164203e+001
1.656460e+003,1.903577e+001
1.657425e+003,2.063928e+001
1.658389e+003,2.221259e+001
1.659353e+003,2.071637e+001
1.660317e+003,1.851019e+001
1.661281e+003,1.860406e+001
1.662246e+003,2.009607e+001
1.663210e+003,1.948834e+001
1.664174e+003,1.592627e+001
1.665138e+003,1.347437e+001
1.666103e+003,1.600598e+001
1.667067e+003,2.053583e+001
1.668031e+003,2.088562e+001
1.668995e+003,1.751892e+001
1.669960e+003,1.624115e+001
1.670924e+003,1.854779e+001
1.671888e+003,1.865088e+001
1.672852e+003,1.238092e+001
1.673817e+003,6.452454e+000
1.674781e+003,4.911133e+000
1.675745e+003,5.941223e+000
1.676709e+003,9.047852e+000
1.677674e+003,1.284137e+001
1.678638e+003,1.349457e+001
1.679602e+003,9.859314e+000
1.680566e+003,5.858582e+000
1.681531e+003,4.568542e+000
1.682495e+003,5.216675e+000
1.683459e+003,6.165222e+000
1.684423e+003,7.214783e+000
1.685387e+003,8.902893e+000
1.686352e+003,1.157623e+001
1.687316e+003,1.364716e+001
1.688280e+003,1.462738e+001
1.689244e+003,1.483807e+001
1.690208e+003,1.365479e+001
1.691173e+003,1.216132e+001
1.692137e+003,1.213190e+001
1.693101e+003,1.330750e+001
1.694065e+003,1.339948e+001
1.695030e+003,1.140070e+001
1.695994e+003,9.870850e+000
1.696958e+003,1.104785e+001
1.697922e+003,1.317017e+001
1.698887e+003,1.462714e+001
1.699851e+003,1.525360e+001
1.700815e+003,1.353247e+001
1.701779e+003,9.232483e+000
1.702744e+003,5.923401e+000
1.703708e+003,5.166260e+000
1.704672e+003,5.928589e+000
1.705636e+003,7.692200e+000
1.706601e+003,9.104492e+000
1.707565e+003,8.572266e+000
1.708529e+003,6.962891e+000
1.709493e+003,5.890747e+000
1.710458e+003,5.440002e+000
1.711422e+003,5.783081e+000
1.712386e+003,8.280945e+000
1.713350e+003,1.074457e+001
1.714314e+003,1.094611e+001
1.715279e+003,9.459229e+000
1.716243e+003,6.723511e+000
1.717207e+003,3.568726e+000
1.718171e+003,3.902588e+000
1.719135e+003,8.888855e+000
1.720100e+003,1.151031e+001
1.721064e+003,6.086365e+000
1.722028e+003,-1.760071e+000
1.722992e+003,-3.621704e+000
1.723957e+003,2.081299e-002
1.724921e+003,4.288513e+000
1.725885e+003,9.254089e+000
1.726849e+003,9.993225e+000
1.727814e+003,2.269775e+000
1.728778e+003,-3.479004e+000
1.729742e+003,-1.673035e+000
1.730706e+003,2.778687e+000
1.731671e+003,5.970154e+000
1.732635e+003,6.841858e+000
1.733599e+003,4.469971e+000
1.734563e+003,-2.266846e-001
1.735528e+003,-4.294373e+000
1.736492e+003,-6.379578e+000
1.737456e+003,-6.786499e+000
1.738420e+003,-5.662170e+000
1.739385e+003,-3.897461e+000
1.740349e+003,-3.594910e+000
1.741313e+003,-4.975159e+000
1.742277e+003,-5.031799e+000
1.743241e+003,-2.316650e+000
1.744206e+003,6.713867e-002
1.745170e+003,1.101746e+000
1.746134e+003,1.981628e+000
1.747098e+003,4.142639e+000
1.748063e+003,5.865906e+000
1.749027e+003,4.411804e+000
1.749991e+003,9.411621e-001
1.750955e+003,-1.318542e+000
1.751919e+003,-1.276428e+000
1.752884e+003,2.921753e-001
1.753848e+003,2.799011e+000
1.754812e+003,4.994385e+000
1.755776e+003,4.572449e+000
1.756741e+003,1.982910e+000
1.757705e+003,-1.013855e+000
1.758669e+003,-5.915161e+000
1.759633e+003,-7.794250e+000
1.760598e+003,-3.794861e+000
1.761562e+003,-7.631226e-001
1.762526e+003,-7.137451e-001
1.763490e+003,-1.497009e+000
1.764455e+003,-1.809326e+000
1.765419e+003,-1.681274e+000
1.766383e+003,-2.007568e+000
1.767347e+003,-2.712280e+000
1.768312e+003,-1.829895e+000
1.769276e+003,1.504395e+000
1.770240e+003,4.073425e+000
1.771204e+003,2.557495e+000
1.772168e+003,-7.896118e-001
1.773133e+003,-1.509827e+000
1.774097e+003,6.378174e-002
1.775061e+003,6.077271e-001
1.776025e+003,-8.209229e-001
1.776990e+003,-1.972229e+000
1.777954e+003,-1.600647e+000
1.778918e+003,-3.824463e-001
1.779882e+003,1.728455e+000
1.780846e+003,3.146973e+000
1.781811e+003,1.835999e+000
1.782775e+003,-1.360229e+000
1.783739e+003,-4.499268e+000
1.784703e+003,-7.389954e+000
1.785668e+003,-7.524414e+000
1.786632e+003,-1.915344e+000
1.787596e+003,3.064636e+000
1.788560e+003,2.544128e+000
1.789525e+003,-1.043091e-001
1.790489e+003,-1.046021e+000
1.791453e+003,-6.101074e-001
1.792417e+003,-1.609497e-001
1.793382e+003,2.246094e-002
1.794346e+003,1.746216e-001
1.795310e+003,3.341064e-001
1.796274e+003,9.120483e-001
1.797239e+003,2.936157e+000
1.798203e+003,5.936951e+000
1.799167e+003,6.520813e+000
1.800131e+003,3.192322e+000
1.801095e+003,1.233276e+000
1.802060e+003,2.819580e+000
1.803024e+003,3.888184e+000
1.803988e+003,3.202209e+000
1.804952e+003,2.342529e+000
1.805917e+003,1.801819e+000
1.806881e+003,1.634155e+000
1.807845e+003,2.324829e+000
1.808809e+003,3.505737e+000
1.809773e+003,4.529236e+000
1.810738e+003,5.052490e+000
1.811702e+003,4.671997e+000
1.812666e+003,3.111694e+000
1.813630e+003,8.176880e-001
1.814595e+003,-1.853516e+000
1.815559e+003,-4.547241e+000
1.816523e+003,-4.793335e+000
1.817487e+003,-2.119385e+000
1.818452e+003,-1.403137e+000
1.819416e+003,-3.675293e+000
1.820380e+003,-4.193237e+000
1.821344e+003,8.587646e-002
1.822309e+003,2.995667e+000
1.823273e+003,-8.625488e-001
1.824237e+003,-5.753174e+000
1.825201e+003,-5.645813e+000
1.826166e+003,-2.136414e+000
1.827130e+003,1.395874e-001
1.828094e+003,2.326050e-001
1.829058e+003,3.225708e-001
1.830022e+003,2.209473e+000
1.830987e+003,3.473022e+000
1.831951e+003,1.318787e+000
1.832915e+003,-2.084778e+000
1.833879e+003,-3.795715e+000
1.834844e+003,-4.016968e+000
1.835808e+003,-3.884338e+000
1.836772e+003,-3.486572e+000
1.837736e+003,-1.752014e+000
1.838700e+003,1.672668e+000
1.839665e+003,3.898926e+000
1.840629e+003,2.384705e+000
1.841593e+003,-1.656677e+000
1.842557e+003,-6.493286e+000
1.843522e+003,-1.208997e+001
1.844486e+003,-1.409326e+001
1.845450e+003,-9.448975e+000
1.846414e+003,-5.937195e+000
1.847379e+003,-4.434875e+000
1.848343e+003,-4.323364e+000
1.849307e+003,-6.725098e+000
1.850271e+003,-8.600342e+000
1.851236e+003,-6.550049e+000
1.852200e+003,-2.982544e+000
1.853164e+003,-1.794983e+000
1.854128e+003,-3.392883e+000
1.855093e+003,-6.266418e+000
1.856057e+003,-9.111755e+000
1.857021e+003,-9.839844e+000
1.857985e+003,-6.622559e+000
1.858949e+003,-2.215515e+000
1.859914e+003,-1.542358e+000
1.860878e+003,-3.725769e+000
1.861842e+003,-4.307556e+000
1.862806e+003,-3.364929e+000
1.863771e+003,-3.178650e+000
1.864735e+003,-4.489197e+000
1.865699e+003,-5.875000e+000
1.866663e+003,-6.844055e+000
1.867627e+003,-6.639099e+000
1.868592e+003,-4.118652e+000
1.869556e+003,-1.098328e+000
1.870520e+003,-3.187866e-001
1.871484e+003,-1.558167e+000
1.872449e+003,-3.219666e+000
1.873413e+003,-4.387573e+000
1.874377e+003,-3.960327e+000
1.875341e+003,-1.625854e+000
1.876306e+003,2.138062e-001
1.877270e+003,3.071899e-001
1.878234e+003,-1.002930e+000
1.879198e+003,-4.054810e+000
1.880163e+003,-7.547607e+000
1.881127e+003,-9.146240e+000
1.882091e+003,-8.820923e+000
1.883055e+003,-8.383850e+000
1.884020e+003,-8.611633e+000
1.884984e+003,-8.575623e+000
1.885948e+003,-7.393555e+000
1.886912e+003,-5.483704e+000
1.887876e+003,-3.499817e+000
1.888841e+003,-1.462952e+000
1.889805e+003,-5.726929e-001
1.890769e+003,-1.271240e+000
1.891733e+003,-4.262695e-001
1.892698e+003,3.442688e+000
1.893662e+003,5.030701e+000
1.894626e+003,1.204285e+000
1.895590e+003,-3.340027e+000
1.896554e+003,-5.823792e+000
1.897519e+003,-6.487732e+000
1.898483e+003,-5.812805e+000
1.899447e+003,-4.220276e+000
1.900411e+003,-1.464783e+000
1.901376e+003,2.750854e+000
1.902340e+003,6.307312e+000
1.903304e+003,8.428528e+000
1.904268e+003,9.520020e+000
1.905233e+003,1.039911e+001
1.906197e+003,1.018201e+001
1.907161e+003,6.465332e+000
1.908125e+003,1.920471e+000
1.909090e+003,1.650757e+000
1.910054e+003,4.813538e+000
1.911018e+003,6.524780e+000
1.911982e+003,5.454224e+000
1.912947e+003,4.286926e+000
1.913911e+003,4.869873e+000
1.914875e+003,6.342041e+000
1.915839e+003,7.325745e+000
1.916803e+003,7.407104e+000
1.917768e+003,5.693420e+000
1.918732e+003,1.716248e+000
1.919696e+003,1.514343e+000
1.920660e+003,7.764648e+000
1.921625e+003,1.097974e+001
1.922589e+003,6.821838e+000
1.923553e+003,2.419434e+000
1.924517e+003,1.110840e+000
1.925481e+003,1.674011e+000
1.926446e+003,4.197815e+000
1.927410e+003,7.420349e+000
1.928374e+003,8.832214e+000
1.929338e+003,8.055298e+000
1.930303e+003,6.317261e+000
1.931267e+003,4.228027e+000
1.932231e+003,2.407104e+000
1.933195e+003,-2.817383e-001
1.934160e+003,-1.933044e+000
1.935124e+003,1.950073e-001
1.936088e+003,2.804138e+000
1.937052e+003,1.560425e+000
1.938017e+003,-1.685547e+000
1.938981e+003,-2.505249e+000
1.939945e+003,-6.364746e-001
1.940909e+003,9.671021e-001
1.941874e+003,8.315430e-001
1.942838e+003,-2.325439e-002
1.943802e+003,-2.547607e-001
1.944766e+003,-2.869263e-001
1.945730e+003,-2.314758e+000
1.946695e+003,-6.072327e+000
1.947659e+003,-6.429993e+000
1.948623e+003,-3.111084e+000
1.949587e+003,-9.326782e-001
1.950552e+003,-4.972534e-001
1.951516e+003,2.830811e-001
1.952480e+003,2.516113e+000
1.953444e+003,4.228455e+000
1.954408e+003,3.000916e+000
1.955373e+003,9.970093e-001
1.956337e+003,2.807373e+000
1.957301e+003,7.231995e+000
1.958265e+003,7.933655e+000
1.959230e+003,4.246826e+000
1.960194e+003,1.936707e+000
1.961158e+003,5.652466e-001
1.962122e+003,1.030457e+000
1.963087e+003,6.749634e+000
1.964051e+003,1.073480e+001
1.965015e+003,7.256226e+000
1.965979e+003,2.454834e+000
1.966944e+003,2.757568e+000
1.967908e+003,5.764893e+000
1.968872e+003,6.421936e+000
1.969836e+003,4.277527e+000
1.970801e+003,1.602478e+000
1.971765e+003,-4.319458e-001
1.972729e+003,-7.762451e-001
1.973693e+003,1.791931e+000
1.974657e+003,5.342834e+000
1.975622e+003,7.174072e+000
1.976586e+003,7.350342e+000
1.977550e+003,5.976624e+000
1.978514e+003,3.650757e+000
1.979479e+003,2.634460e+000
1.980443e+003,3.150818e+000
1.981407e+003,4.565308e+000
1.982371e+003,6.871033e+000
1.983335e+003,9.262939e+000
1.984300e+003,1.092725e+001
1.985264e+003,1.183557e+001
1.986228e+003,1.232996e+001
1.987192e+003,1.217981e+001
1.988157e+003,1.014569e+001
1.989121e+003,5.982300e+000
1.990085e+003,2.045776e+000
1.991049e+003,-2.336426e+000
1.992014e+003,-4.615051e+000
1.992978e+003,-3.738770e+000
1.993942e+003,-2.198853e+000
1.994906e+003,-6.522217e-001
1.995871e+003,1.083252e+000
1.996835e+003,4.723572e+000
1.997799e+003,7.979858e+000
1.998763e+003,5.311096e+000
1.999728e+003,-1.487549e+000
