9.922330e+001,0.000000e+000
1.001875e+002,0.000000e+000
1.011518e+002,0.000000e+000
1.021160e+002,0.000000e+000
1.030802e+002,0.000000e+000
1.040445e+002,0.000000e+000
1.050087e+002,0.000000e+000
1.059729e+002,0.000000e+000
1.069372e+002,0.000000e+000
1.079014e+002,0.000000e+000
1.088656e+002,0.000000e+000
1.098299e+002,0.000000e+000
1.107941e+002,0.000000e+000
1.117583e+002,0.000000e+000
1.127226e+002,0.000000e+000
1.136868e+002,0.000000e+000
1.146510e+002,0.000000e+000
1.156153e+002,0.000000e+000
1.165795e+002,0.000000e+000
1.175437e+002,0.000000e+000
1.185080e+002,0.000000e+000
1.194722e+002,0.000000e+000
1.204364e+002,0.000000e+000
1.214007e+002,0.000000e+000
1.223649e+002,0.000000e+000
1.233291e+002,0.000000e+000
1.242934e+002,0.000000e+000
1.252576e+002,0.000000e+000
1.262218e+002,0.000000e+000
1.271861e+002,0.000000e+000
1.281503e+002,0.000000e+000
1.291145e+002,0.000000e+000
1.300788e+002,0.000000e+000
1.310430e+002,0.000000e+000
1.320072e+002,0.000000e+000
1.329715e+002,0.000000e+000
1.339357e+002,0.000000e+000
1.348999e+002,0.000000e+000
1.358642e+002,0.000000e+000
1.368284e+002,0.000000e+000
1.377926e+002,0.000000e+000
1.387569e+002,0.000000e+000
1.397211e+002,0.000000e+000
1.406853e+002,0.000000e+000
1.416496e+002,0.000000e+000
1.426138e+002,0.000000e+000
1.435780e+002,0.000000e+000
1.445423e+002,0.000000e+000
1.455065e+002,0.000000e+000
1.464707e+002,0.000000e+000
1.474350e+002,0.000000e+000
1.483992e+002,0.000000e+000
1.493634e+002,0.000000e+000
1.503277e+002,0.000000e+000
1.512919e+002,0.000000e+000
1.522561e+002,0.000000e+000
1.532204e+002,0.000000e+000
1.541846e+002,0.000000e+000
1.551488e+002,0.000000e+000
1.561131e+002,0.000000e+000
1.570773e+002,0.000000e+000
1.580415e+002,0.000000e+000
1.590058e+002,0.000000e+000
1.599700e+002,0.000000e+000
1.609342e+002,0.000000e+000
1.618985e+002,0.000000e+000
1.628627e+002,0.000000e+000
1.638269e+002,0.000000e+000
1.647912e+002,0.000000e+000
1.657554e+002,0.000000e+000
1.667196e+002,0.000000e+000
1.676839e+002,0.000000e+000
1.686481e+002,0.000000e+000
1.696123e+002,0.000000e+000
1.705766e+002,0.000000e+000
1.715408e+002,0.000000e+000
1.725050e+002,0.000000e+000
1.734693e+002,0.000000e+000
1.744335e+002,0.000000e+000
1.753977e+002,0.000000e+000
1.763620e+002,0.000000e+000
1.773262e+002,0.000000e+000
1.782904e+002,0.000000e+000
1.792547e+002,0.000000e+000
1.802189e+002,0.000000e+000
1.811831e+002,0.000000e+000
1.821474e+002,0.000000e+000
1.831116e+002,0.000000e+000
1.840758e+002,0.000000e+000
1.850401e+002,0.000000e+000
1.860043e+002,0.000000e+000
1.869685e+002,0.000000e+000
1.879328e+002,0.000000e+000
1.888970e+002,0.000000e+000
1.898612e+002,0.000000e+000
1.908255e+002,0.000000e+000
1.917897e+002,0.000000e+000
1.927540e+002,0.000000e+000
1.937182e+002,0.000000e+000
1.946824e+002,0.000000e+000
1.956467e+002,0.000000e+000
1.966109e+002,0.000000e+000
1.975751e+002,0.000000e+000
1.985394e+002,0.000000e+000
1.995036e+002,0.000000e+000
2.004678e+002,0.000000e+000
2.014321e+002,0.000000e+000
2.023963e+002,0.000000e+000
2.033605e+002,0.000000e+000
2.043248e+002,0.000000e+000
2.052890e+002,0.000000e+000
2.062532e+002,0.000000e+000
2.072175e+002,0.000000e+000
2.081817e+002,0.000000e+000
2.091459e+002,0.000000e+000
2.101102e+002,0.000000e+000
2.110744e+002,0.000000e+000
2.120386e+002,0.000000e+000
2.130029e+002,0.000000e+000
2.139671e+002,0.000000e+000
2.149313e+002,0.000000e+000
2.158956e+002,0.000000e+000
2.168598e+002,0.000000e+000
2.178240e+002,0.000000e+000
2.187883e+002,0.000000e+000
2.197525e+002,0.000000e+000
2.207167e+002,0.000000e+000
2.216810e+002,0.000000e+000
2.226452e+002,0.000000e+000
2.236094e+002,0.000000e+000
2.245737e+002,0.000000e+000
2.255379e+002,0.000000e+000
2.265021e+002,0.000000e+000
2.274664e+002,0.000000e+000
2.284306e+002,0.000000e+000
2.293948e+002,0.000000e+000
2.303591e+002,0.000000e+000
2.313233e+002,0.000000e+000
2.322875e+002,0.000000e+000
2.332518e+002,0.000000e+000
2.342160e+002,0.000000e+000
2.351802e+002,0.000000e+000
2.361445e+002,0.000000e+000
2.371087e+002,0.000000e+000
2.380729e+002,0.000000e+000
2.390372e+002,0.000000e+000
2.400014e+002,0.000000e+000
2.409656e+002,0.000000e+000
2.419299e+002,0.000000e+000
2.428941e+002,0.000000e+000
2.438583e+002,0.000000e+000
2.448226e+002,0.000000e+000
2.457868e+002,0.000000e+000
2.467510e+002,0.000000e+000
2.477153e+002,0.000000e+000
2.486795e+002,0.000000e+000
2.496437e+002,0.000000e+000
2.506080e+002,0.000000e+000
2.515722e+002,0.000000e+000
2.525364e+002,0.000000e+000
2.535007e+002,0.000000e+000
2.544649e+002,0.000000e+000
2.554291e+002,0.000000e+000
2.563934e+002,0.000000e+000
2.573576e+002,0.000000e+000
2.583218e+002,0.000000e+000
2.592861e+002,0.000000e+000
2.602503e+002,0.000000e+000
2.612145e+002,0.000000e+000
2.621788e+002,0.000000e+000
2.631430e+002,0.000000e+000
2.641072e+002,0.000000e+000
2.650715e+002,0.000000e+000
2.660357e+002,0.000000e+000
2.669999e+002,0.000000e+000
2.679642e+002,0.000000e+000
2.689284e+002,0.000000e+000
2.698926e+002,0.000000e+000
2.708569e+002,0.000000e+000
2.718211e+002,0.000000e+000
2.727853e+002,0.000000e+000
2.737496e+002,0.000000e+000
2.747138e+002,0.000000e+000
2.756780e+002,0.000000e+000
2.766423e+002,0.000000e+000
2.776065e+002,0.000000e+000
2.785707e+002,0.000000e+000
2.795350e+002,0.000000e+000
2.804992e+002,0.000000e+000
2.814634e+002,0.000000e+000
2.824277e+002,0.000000e+000
2.833919e+002,0.000000e+000
2.843561e+002,0.000000e+000
2.853204e+002,0.000000e+000
2.862846e+002,0.000000e+000
2.872488e+002,0.000000e+000
2.882131e+002,0.000000e+000
2.891773e+002,0.000000e+000
2.901415e+002,0.000000e+000
2.911058e+002,0.000000e+000
2.920700e+002,0.000000e+000
2.930342e+002,0.000000e+000
2.939985e+002,0.000000e+000
2.949627e+002,0.000000e+000
2.959269e+002,0.000000e+000
2.968912e+002,0.000000e+000
2.978554e+002,0.000000e+000
2.988196e+002,0.000000e+000
2.997839e+002,0.000000e+000
3.007481e+002,0.000000e+000
3.017123e+002,0.000000e+000
3.026766e+002,0.000000e+000
3.036408e+002,0.000000e+000
3.046050e+002,0.000000e+000
3.055693e+002,0.000000e+000
3.065335e+002,0.000000e+000
3.074977e+002,0.000000e+000
3.084620e+002,0.000000e+000
3.094262e+002,0.000000e+000
3.103904e+002,0.000000e+000
3.113547e+002,0.000000e+000
3.123189e+002,0.000000e+000
3.132831e+002,0.000000e+000
3.142474e+002,0.000000e+000
3.152116e+002,0.000000e+000
3.161758e+002,0.000000e+000
3.171401e+002,0.000000e+000
3.181043e+002,0.000000e+000
3.190685e+002,0.000000e+000
3.200328e+002,0.000000e+000
3.209970e+002,0.000000e+000
3.219612e+002,0.000000e+000
3.229255e+002,0.000000e+000
3.238897e+002,0.000000e+000
3.248539e+002,0.000000e+000
3.258182e+002,0.000000e+000
3.267824e+002,0.000000e+000
3.277466e+002,0.000000e+000
3.287109e+002,0.000000e+000
3.296751e+002,0.000000e+000
3.306393e+002,0.000000e+000
3.316036e+002,0.000000e+000
3.325678e+002,0.000000e+000
3.335320e+002,0.000000e+000
3.344963e+002,0.000000e+000
3.354605e+002,0.000000e+000
3.364247e+002,0.000000e+000
3.373890e+002,0.000000e+000
3.383532e+002,0.000000e+000
3.393174e+002,0.000000e+000
3.402817e+002,0.000000e+000
3.412459e+002,0.000000e+000
3.422101e+002,0.000000e+000
3.431744e+002,0.000000e+000
3.441386e+002,0.000000e+000
3.451028e+002,0.000000e+000
3.460671e+002,0.000000e+000
3.470313e+002,0.000000e+000
3.479955e+002,0.000000e+000
3.489598e+002,0.000000e+000
3.499240e+002,0.000000e+000
3.508882e+002,0.000000e+000
3.518525e+002,0.000000e+000
3.528167e+002,0.000000e+000
3.537809e+002,0.000000e+000
3.547452e+002,0.000000e+000
3.557094e+002,0.000000e+000
3.566736e+002,0.000000e+000
3.576379e+002,0.000000e+000
3.586021e+002,0.000000e+000
3.595663e+002,0.000000e+000
3.605306e+002,0.000000e+000
3.614948e+002,0.000000e+000
3.624590e+002,0.000000e+000
3.634233e+002,0.000000e+000
3.643875e+002,0.000000e+000
3.653517e+002,0.000000e+000
3.663160e+002,0.000000e+000
3.672802e+002,0.000000e+000
3.682444e+002,0.000000e+000
3.692087e+002,0.000000e+000
3.701729e+002,0.000000e+000
3.711371e+002,0.000000e+000
3.721014e+002,0.000000e+000
3.730656e+002,0.000000e+000
3.740298e+002,0.000000e+000
3.749941e+002,0.000000e+000
3.759583e+002,0.000000e+000
3.769225e+002,0.000000e+000
3.778868e+002,0.000000e+000
3.788510e+002,0.000000e+000
3.798152e+002,0.000000e+000
3.807795e+002,0.000000e+000
3.817437e+002,0.000000e+000
3.827079e+002,0.000000e+000
3.836722e+002,0.000000e+000
3.846364e+002,0.000000e+000
3.856006e+002,0.000000e+000
3.865649e+002,0.000000e+000
3.875291e+002,0.000000e+000
3.884933e+002,0.000000e+000
3.894576e+002,0.000000e+000
3.904218e+002,0.000000e+000
3.913860e+002,0.000000e+000
3.923503e+002,0.000000e+000
3.933145e+002,0.000000e+000
3.942787e+002,0.000000e+000
3.952430e+002,0.000000e+000
3.962072e+002,0.000000e+000
3.971714e+002,0.000000e+000
3.981357e+002,0.000000e+000
3.990999e+002,0.000000e+000
4.000641e+002,0.000000e+000
4.010284e+002,0.000000e+000
4.019926e+002,0.000000e+000
4.029568e+002,0.000000e+000
4.039211e+002,0.000000e+000
4.048853e+002,0.000000e+000
4.058495e+002,0.000000e+000
4.068138e+002,0.000000e+000
4.077780e+002,0.000000e+000
4.087422e+002,0.000000e+000
4.097065e+002,0.000000e+000
4.106707e+002,0.000000e+000
4.116349e+002,0.000000e+000
4.125992e+002,0.000000e+000
4.135634e+002,0.000000e+000
4.145276e+002,0.000000e+000
4.154919e+002,0.000000e+000
4.164561e+002,0.000000e+000
4.174203e+002,0.000000e+000
4.183846e+002,0.000000e+000
4.193488e+002,0.000000e+000
4.203130e+002,0.000000e+000
4.212773e+002,0.000000e+000
4.222415e+002,0.000000e+000
4.232057e+002,0.000000e+000
4.241700e+002,0.000000e+000
4.251342e+002,0.000000e+000
4.260984e+002,0.000000e+000
4.270627e+002,0.000000e+000
4.280269e+002,0.000000e+000
4.289911e+002,0.000000e+000
4.299554e+002,0.000000e+000
4.309196e+002,0.000000e+000
4.318839e+002,0.000000e+000
4.328481e+002,0.000000e+000
4.338123e+002,0.000000e+000
4.347766e+002,0.000000e+000
4.357408e+002,0.000000e+000
4.367050e+002,0.000000e+000
4.376693e+002,0.000000e+000
4.386335e+002,0.000000e+000
4.395977e+002,0.000000e+000
4.405620e+002,0.000000e+000
4.415262e+002,0.000000e+000
4.424904e+002,0.000000e+000
4.434547e+002,0.000000e+000
4.444189e+002,0.000000e+000
4.453831e+002,0.000000e+000
4.463474e+002,0.000000e+000
4.473116e+002,0.000000e+000
4.482758e+002,0.000000e+000
4.492401e+002,0.000000e+000
4.502043e+002,0.000000e+000
4.511685e+002,0.000000e+000
4.521328e+002,0.000000e+000
4.530970e+002,0.000000e+000
4.540612e+002,0.000000e+000
4.550255e+002,0.000000e+000
4.559897e+002,0.000000e+000
4.569539e+002,0.000000e+000
4.579182e+002,0.000000e+000
4.588824e+002,0.000000e+000
4.598466e+002,0.000000e+000
4.608109e+002,0.000000e+000
4.617751e+002,0.000000e+000
4.627393e+002,0.000000e+000
4.637036e+002,0.000000e+000
4.646678e+002,0.000000e+000
4.656320e+002,0.000000e+000
4.665963e+002,0.000000e+000
4.675605e+002,0.000000e+000
4.685247e+002,0.000000e+000
4.694890e+002,0.000000e+000
4.704532e+002,0.000000e+000
4.714174e+002,0.000000e+000
4.723817e+002,0.000000e+000
4.733459e+002,0.000000e+000
4.743102e+002,0.000000e+000
4.752744e+002,0.000000e+000
4.762386e+002,0.000000e+000
4.772029e+002,0.000000e+000
4.781671e+002,0.000000e+000
4.791313e+002,0.000000e+000
4.800956e+002,0.000000e+000
4.810598e+002,0.000000e+000
4.820240e+002,0.000000e+000
4.829883e+002,0.000000e+000
4.839525e+002,0.000000e+000
4.849167e+002,0.000000e+000
4.858810e+002,0.000000e+000
4.868452e+002,0.000000e+000
4.878094e+002,0.000000e+000
4.887737e+002,0.000000e+000
4.897379e+002,0.000000e+000
4.907021e+002,0.000000e+000
4.916664e+002,0.000000e+000
4.926306e+002,0.000000e+000
4.935948e+002,0.000000e+000
4.945591e+002,0.000000e+000
4.955233e+002,0.000000e+000
4.964875e+002,0.000000e+000
4.974518e+002,0.000000e+000
4.984160e+002,0.000000e+000
4.993802e+002,0.000000e+000
5.003445e+002,8.866365e+001
5.013087e+002,8.797849e+001
5.022729e+002,8.721114e+001
5.032372e+002,8.635926e+001
5.042014e+002,8.477978e+001
5.051656e+002,8.267882e+001
5.061299e+002,8.120196e+001
5.070941e+002,8.144838e+001
5.080583e+002,8.378886e+001
5.090226e+002,8.552024e+001
5.099868e+002,8.735332e+001
5.109510e+002,8.813953e+001
5.119153e+002,8.665325e+001
5.128795e+002,8.267520e+001
5.138438e+002,7.981008e+001
5.148080e+002,8.043378e+001
5.157722e+002,8.139937e+001
5.167365e+002,8.139867e+001
5.177007e+002,8.026247e+001
5.186649e+002,7.881696e+001
5.196292e+002,7.800340e+001
5.205934e+002,7.770264e+001
5.215576e+002,7.787847e+001
5.225219e+002,7.833328e+001
5.234861e+002,7.858537e+001
5.244503e+002,7.783437e+001
5.254146e+002,7.577681e+001
5.263788e+002,7.448817e+001
5.273430e+002,7.442555e+001
5.283073e+002,7.481502e+001
5.292715e+002,7.448115e+001
5.302357e+002,7.266618e+001
5.312000e+002,7.149963e+001
5.321642e+002,7.148072e+001
5.331284e+002,7.206795e+001
5.340927e+002,7.303797e+001
5.350569e+002,7.432135e+001
5.360211e+002,7.510666e+001
5.369854e+002,7.428333e+001
5.379496e+002,7.307173e+001
5.389138e+002,7.253275e+001
5.398781e+002,7.300209e+001
5.408423e+002,7.391786e+001
5.418065e+002,7.372784e+001
5.427708e+002,7.257417e+001
5.437350e+002,7.122829e+001
5.446992e+002,6.979473e+001
5.456635e+002,6.832643e+001
5.466277e+002,6.702773e+001
5.475919e+002,6.587527e+001
5.485562e+002,6.507455e+001
5.495204e+002,6.454031e+001
5.504846e+002,6.431287e+001
5.514489e+002,6.474005e+001
5.524131e+002,6.674210e+001
5.533773e+002,6.761813e+001
5.543416e+002,6.494056e+001
5.553058e+002,6.124567e+001
5.562700e+002,5.936246e+001
5.572343e+002,6.098768e+001
5.581985e+002,6.420776e+001
5.591627e+002,6.444514e+001
5.601270e+002,6.273698e+001
5.610912e+002,6.068332e+001
5.620554e+002,5.901591e+001
5.630197e+002,5.774176e+001
5.639839e+002,5.728506e+001
5.649481e+002,5.856004e+001
5.659124e+002,5.933142e+001
5.668766e+002,5.900117e+001
5.678408e+002,5.800874e+001
5.688051e+002,5.751276e+001
5.697693e+002,5.825977e+001
5.707335e+002,5.858264e+001
5.716978e+002,5.794189e+001
5.726620e+002,5.669463e+001
5.736262e+002,5.526472e+001
5.745905e+002,5.389426e+001
5.755547e+002,5.272034e+001
5.765189e+002,5.172028e+001
5.774832e+002,5.089896e+001
5.784474e+002,5.048004e+001
5.794116e+002,5.064883e+001
5.803759e+002,5.136947e+001
5.813401e+002,5.142296e+001
5.823043e+002,5.031654e+001
5.832686e+002,4.967328e+001
5.842328e+002,5.045490e+001
5.851970e+002,5.244631e+001
5.861613e+002,5.389406e+001
5.871255e+002,5.411860e+001
5.880897e+002,5.409653e+001
5.890540e+002,5.374472e+001
5.900182e+002,5.327047e+001
5.909824e+002,5.304475e+001
5.919467e+002,5.349011e+001
5.929109e+002,5.388560e+001
5.938751e+002,5.345172e+001
5.948394e+002,5.249152e+001
5.958036e+002,5.147410e+001
5.967678e+002,5.074896e+001
5.977321e+002,5.028089e+001
5.986963e+002,4.928946e+001
5.996605e+002,4.757567e+001
6.006248e+002,4.645634e+001
6.015890e+002,4.693935e+001
6.025532e+002,4.887684e+001
6.035175e+002,4.991631e+001
6.044817e+002,4.913055e+001
6.054459e+002,4.837901e+001
6.064102e+002,4.818542e+001
6.073744e+002,4.814650e+001
6.083386e+002,4.728199e+001
6.093029e+002,4.439236e+001
6.102671e+002,4.214231e+001
6.112313e+002,4.294604e+001
6.121956e+002,4.530426e+001
6.131598e+002,4.744320e+001
6.141240e+002,4.812003e+001
6.150883e+002,4.748734e+001
6.160525e+002,4.540841e+001
6.170167e+002,4.220081e+001
6.179810e+002,4.052773e+001
6.189452e+002,4.207661e+001
6.199094e+002,4.625255e+001
6.208737e+002,4.872179e+001
6.218379e+002,4.812062e+001
6.228021e+002,4.733828e+001
6.237664e+002,4.627874e+001
6.247306e+002,4.528943e+001
6.256948e+002,4.494518e+001
6.266591e+002,4.576105e+001
6.276233e+002,4.637607e+001
6.285875e+002,4.601313e+001
6.295518e+002,4.516718e+001
6.305160e+002,4.428503e+001
6.314802e+002,4.359767e+001
6.324445e+002,4.297249e+001
6.334087e+002,4.184313e+001
6.343729e+002,4.053510e+001
6.353372e+002,4.010735e+001
6.363014e+002,4.105697e+001
6.372656e+002,4.291571e+001
6.382299e+002,4.407182e+001
6.391941e+002,4.381131e+001
6.401583e+002,4.363527e+001
6.411226e+002,4.412611e+001
6.420868e+002,4.459964e+001
6.430510e+002,4.393121e+001
6.440153e+002,4.127345e+001
6.449795e+002,3.910625e+001
6.459437e+002,3.913377e+001
6.469080e+002,3.977693e+001
6.478722e+002,3.982840e+001
6.488364e+002,3.890067e+001
6.498007e+002,3.765820e+001
6.507649e+002,3.726006e+001
6.517291e+002,3.741042e+001
6.526934e+002,3.754066e+001
6.536576e+002,3.755393e+001
6.546218e+002,3.734355e+001
6.555861e+002,3.664133e+001
6.565503e+002,3.473627e+001
6.575145e+002,3.399686e+001
6.584788e+002,3.517176e+001
6.594430e+002,3.675526e+001
6.604072e+002,3.765743e+001
6.613715e+002,3.771594e+001
6.623357e+002,3.734035e+001
6.632999e+002,3.562930e+001
6.642642e+002,3.437487e+001
6.652284e+002,3.502335e+001
6.661926e+002,3.735883e+001
6.671569e+002,3.992502e+001
6.681211e+002,4.098897e+001
6.690853e+002,4.084096e+001
6.700496e+002,4.057582e+001
6.710138e+002,4.023316e+001
6.719780e+002,3.985149e+001
6.729423e+002,3.950487e+001
6.739065e+002,3.931050e+001
6.748707e+002,3.817082e+001
6.758350e+002,3.472693e+001
6.767992e+002,3.212189e+001
6.777634e+002,3.220686e+001
6.787277e+002,3.466892e+001
6.796919e+002,3.677407e+001
6.806561e+002,3.756950e+001
6.816204e+002,3.753593e+001
6.825846e+002,3.619447e+001
6.835488e+002,3.431068e+001
6.845131e+002,3.305289e+001
6.854773e+002,3.334149e+001
6.864415e+002,3.457133e+001
6.874058e+002,3.529826e+001
6.883700e+002,3.558219e+001
6.893342e+002,3.567950e+001
6.902985e+002,3.573055e+001
6.912627e+002,3.578226e+001
6.922269e+002,3.601548e+001
6.931912e+002,3.680338e+001
6.941554e+002,3.746851e+001
6.951196e+002,3.797152e+001
6.960839e+002,3.819962e+001
6.970481e+002,3.794130e+001
6.980123e+002,3.692518e+001
6.989766e+002,3.610463e+001
6.999408e+002,3.601759e+001
7.009050e+002,3.611142e+001
7.018693e+002,3.592247e+001
7.028335e+002,3.530321e+001
7.037977e+002,3.453071e+001
7.047620e+002,3.411199e+001
7.057262e+002,3.393485e+001
7.066904e+002,3.359848e+001
7.076547e+002,3.303915e+001
7.086189e+002,3.251308e+001
7.095831e+002,3.243459e+001
7.105474e+002,3.291247e+001
7.115116e+002,3.344639e+001
7.124758e+002,3.386927e+001
7.134401e+002,3.444363e+001
7.144043e+002,3.565205e+001
7.153685e+002,3.747715e+001
7.163328e+002,3.863284e+001
7.172970e+002,3.818711e+001
7.182612e+002,3.718238e+001
7.192255e+002,3.520000e+001
7.201897e+002,3.299293e+001
7.211539e+002,3.202001e+001
7.221182e+002,3.368660e+001
7.230824e+002,3.672100e+001
7.240466e+002,3.766491e+001
7.250109e+002,3.697568e+001
7.259751e+002,3.584554e+001
7.269393e+002,3.480658e+001
7.279036e+002,3.383699e+001
7.288678e+002,3.333836e+001
7.298320e+002,3.421885e+001
7.307963e+002,3.472220e+001
7.317605e+002,3.431906e+001
7.327247e+002,3.365922e+001
7.336890e+002,3.371486e+001
7.346532e+002,3.489776e+001
7.356174e+002,3.576476e+001
7.365817e+002,3.552851e+001
7.375459e+002,3.495697e+001
7.385101e+002,3.457509e+001
7.394744e+002,3.453314e+001
7.404386e+002,3.462126e+001
7.414028e+002,3.450677e+001
7.423671e+002,3.408463e+001
7.433313e+002,3.361568e+001
7.442955e+002,3.322103e+001
7.452598e+002,3.285289e+001
7.462240e+002,3.229949e+001
7.471882e+002,3.131831e+001
7.481525e+002,3.115041e+001
7.491167e+002,3.224487e+001
7.500809e+002,3.328450e+001
7.510452e+002,3.383334e+001
7.520094e+002,3.392428e+001
7.529736e+002,3.383369e+001
7.539379e+002,3.371935e+001
7.549021e+002,3.355696e+001
7.558663e+002,3.324773e+001
7.568306e+002,3.289664e+001
7.577948e+002,3.255459e+001
7.587590e+002,3.225223e+001
7.597233e+002,3.208614e+001
7.606875e+002,3.283496e+001
7.616517e+002,3.438351e+001
7.626160e+002,3.486271e+001
7.635802e+002,3.329688e+001
7.645444e+002,3.094485e+001
7.655087e+002,3.053094e+001
7.664729e+002,3.315570e+001
7.674371e+002,3.538789e+001
7.684014e+002,3.768372e+001
7.693656e+002,3.902123e+001
7.703298e+002,3.797446e+001
7.712941e+002,3.477656e+001
7.722583e+002,3.246059e+001
7.732225e+002,3.429912e+001
7.741868e+002,3.694274e+001
7.751510e+002,3.795828e+001
7.761152e+002,3.747523e+001
7.770795e+002,3.626836e+001
7.780437e+002,3.499655e+001
7.790079e+002,3.369844e+001
7.799722e+002,3.284977e+001
7.809364e+002,3.237727e+001
7.819006e+002,3.226585e+001
7.828649e+002,3.269127e+001
7.838291e+002,3.355058e+001
7.847933e+002,3.443891e+001
7.857576e+002,3.554921e+001
7.867218e+002,3.605126e+001
7.876860e+002,3.570793e+001
7.886503e+002,3.500969e+001
7.896145e+002,3.422048e+001
7.905787e+002,3.345741e+001
7.915430e+002,3.289787e+001
7.925072e+002,3.272357e+001
7.934714e+002,3.278537e+001
7.944357e+002,3.304607e+001
7.953999e+002,3.352542e+001
7.963641e+002,3.429547e+001
7.973284e+002,3.546896e+001
7.982926e+002,3.713557e+001
7.992568e+002,3.709702e+001
8.002211e+002,3.392858e+001
8.011853e+002,3.158178e+001
8.021495e+002,3.235734e+001
8.031138e+002,3.538884e+001
8.040780e+002,3.712726e+001
8.050422e+002,3.580410e+001
8.060065e+002,3.478986e+001
8.069707e+002,3.551451e+001
8.079349e+002,3.675291e+001
8.088992e+002,3.722041e+001
8.098634e+002,3.654279e+001
8.108276e+002,3.567036e+001
8.117919e+002,3.612164e+001
8.127561e+002,3.712440e+001
8.137203e+002,3.732245e+001
8.146846e+002,3.663717e+001
8.156488e+002,3.557328e+001
8.166130e+002,3.469616e+001
8.175773e+002,3.404939e+001
8.185415e+002,3.316387e+001
8.195057e+002,3.098052e+001
8.204700e+002,2.972638e+001
8.214342e+002,3.103442e+001
8.223984e+002,3.384536e+001
8.233627e+002,3.517970e+001
8.243269e+002,3.321584e+001
8.252911e+002,3.134127e+001
8.262554e+002,3.202167e+001
8.272196e+002,3.349535e+001
8.281838e+002,3.364259e+001
8.291481e+002,3.188591e+001
8.301123e+002,2.980889e+001
8.310765e+002,3.052264e+001
8.320408e+002,3.364472e+001
8.330050e+002,3.443730e+001
8.339692e+002,3.214197e+001
8.349335e+002,2.916795e+001
8.358977e+002,2.790771e+001
8.368619e+002,2.856509e+001
8.378262e+002,2.970433e+001
8.387904e+002,3.210103e+001
8.397546e+002,3.390588e+001
8.407189e+002,3.417239e+001
8.416831e+002,3.366965e+001
8.426473e+002,3.400162e+001
8.436116e+002,3.617593e+001
8.445758e+002,3.806211e+001
8.455400e+002,3.665044e+001
8.465043e+002,3.393044e+001
8.474685e+002,3.211391e+001
8.484327e+002,3.189975e+001
8.493970e+002,3.265394e+001
8.503612e+002,3.323421e+001
8.513254e+002,3.353922e+001
8.522897e+002,3.436221e+001
8.532539e+002,3.607137e+001
8.542181e+002,3.766489e+001
8.551824e+002,3.876100e+001
8.561466e+002,3.941621e+001
8.571108e+002,3.947165e+001
8.580751e+002,3.774440e+001
8.590393e+002,3.661171e+001
8.600035e+002,3.755547e+001
8.609678e+002,3.921458e+001
8.619320e+002,3.992988e+001
8.628962e+002,3.906348e+001
8.638605e+002,3.764380e+001
8.648247e+002,3.707940e+001
8.657889e+002,3.719395e+001
8.667532e+002,3.781980e+001
8.677174e+002,3.893181e+001
8.686816e+002,4.005288e+001
8.696459e+002,4.063122e+001
8.706101e+002,4.061056e+001
8.715743e+002,4.071643e+001
8.725386e+002,4.084118e+001
8.735028e+002,4.121989e+001
8.744670e+002,4.209008e+001
8.754313e+002,4.311795e+001
8.763955e+002,4.367754e+001
8.773597e+002,4.344077e+001
8.783240e+002,4.330774e+001
8.792882e+002,4.419658e+001
8.802524e+002,4.524354e+001
8.812167e+002,4.570496e+001
8.821809e+002,4.544464e+001
8.831451e+002,4.475204e+001
8.841094e+002,4.396310e+001
8.850736e+002,4.318899e+001
8.860378e+002,4.321180e+001
8.870021e+002,4.406059e+001
8.879663e+002,4.523850e+001
8.889305e+002,4.660733e+001
8.898948e+002,4.808059e+001
8.908590e+002,4.923922e+001
8.918232e+002,4.958673e+001
8.927875e+002,5.058472e+001
8.937517e+002,5.359979e+001
8.947159e+002,5.656117e+001
8.956802e+002,5.739655e+001
8.966444e+002,5.583131e+001
8.976086e+002,5.372205e+001
8.985729e+002,5.291882e+001
8.995371e+002,5.293100e+001
9.005013e+002,5.288210e+001
9.014656e+002,5.274191e+001
9.024298e+002,5.229170e+001
9.033940e+002,5.122820e+001
9.043583e+002,4.970818e+001
9.053225e+002,4.944205e+001
9.062867e+002,5.176041e+001
9.072510e+002,5.357944e+001
9.082152e+002,5.528489e+001
9.091794e+002,5.631744e+001
9.101437e+002,5.566217e+001
9.111079e+002,5.312447e+001
9.120721e+002,5.102794e+001
9.130364e+002,5.127050e+001
9.140006e+002,5.179404e+001
9.149648e+002,5.138995e+001
9.159291e+002,5.040655e+001
9.168933e+002,4.973088e+001
9.178575e+002,4.994673e+001
9.188218e+002,5.072434e+001
9.197860e+002,5.106522e+001
9.207502e+002,5.093569e+001
9.217145e+002,5.075842e+001
9.226787e+002,5.077473e+001
9.236429e+002,5.078960e+001
9.246072e+002,5.061331e+001
9.255714e+002,5.032331e+001
9.265356e+002,4.909295e+001
9.274999e+002,4.456365e+001
9.284641e+002,4.143952e+001
9.294283e+002,4.241873e+001
9.303926e+002,4.579884e+001
9.313568e+002,4.854173e+001
9.323210e+002,4.910730e+001
9.332853e+002,4.828503e+001
9.342495e+002,4.648923e+001
9.352137e+002,4.432262e+001
9.361780e+002,4.284164e+001
9.371422e+002,4.231904e+001
9.381064e+002,4.238621e+001
9.390707e+002,4.252676e+001
9.400349e+002,4.269708e+001
9.409991e+002,4.274135e+001
9.419634e+002,4.320142e+001
9.429276e+002,4.285268e+001
9.438918e+002,4.031343e+001
9.448561e+002,3.712678e+001
9.458203e+002,3.612059e+001
9.467845e+002,3.846049e+001
9.477488e+002,4.112085e+001
9.487130e+002,4.213013e+001
9.496772e+002,4.226704e+001
9.506415e+002,4.204656e+001
9.516057e+002,4.150463e+001
9.525699e+002,4.015273e+001
9.535342e+002,3.743818e+001
9.544984e+002,3.374237e+001
9.554626e+002,3.303867e+001
9.564269e+002,3.598607e+001
9.573911e+002,3.840900e+001
9.583553e+002,3.918855e+001
9.593196e+002,3.878236e+001
9.602838e+002,3.759335e+001
9.612480e+002,3.519121e+001
9.622123e+002,3.384746e+001
9.631765e+002,3.538292e+001
9.641407e+002,3.696980e+001
9.651050e+002,3.725394e+001
9.660692e+002,3.648362e+001
9.670334e+002,3.552280e+001
9.679977e+002,3.493536e+001
9.689619e+002,3.463502e+001
9.699261e+002,3.406955e+001
9.708904e+002,3.346582e+001
9.718546e+002,3.390138e+001
9.728188e+002,3.567184e+001
9.737831e+002,3.820478e+001
9.747473e+002,4.116109e+001
9.757115e+002,4.497099e+001
9.766758e+002,4.689684e+001
9.776400e+002,4.471143e+001
9.786042e+002,4.347268e+001
9.795685e+002,4.571493e+001
9.805327e+002,4.890158e+001
9.814969e+002,4.932557e+001
9.824612e+002,4.578448e+001
9.834254e+002,4.142373e+001
9.843896e+002,3.909083e+001
9.853539e+002,3.760797e+001
9.863181e+002,3.589291e+001
9.872823e+002,3.380534e+001
9.882466e+002,3.139389e+001
9.892108e+002,2.872329e+001
9.901750e+002,2.607846e+001
9.911393e+002,2.507182e+001
9.921035e+002,2.725405e+001
9.930677e+002,2.825066e+001
9.940320e+002,2.716056e+001
9.949962e+002,2.551964e+001
9.959604e+002,2.460938e+001
9.969247e+002,2.454952e+001
9.978889e+002,2.499207e+001
9.988531e+002,2.661098e+001
9.998174e+002,2.743269e+001
1.000782e+003,2.539272e+001
1.001746e+003,2.225964e+001
1.002710e+003,2.085364e+001
1.003674e+003,2.222954e+001
1.004639e+003,2.461562e+001
1.005603e+003,2.484104e+001
1.006567e+003,2.262695e+001
1.007531e+003,2.116488e+001
1.008495e+003,2.046320e+001
1.009460e+003,2.041441e+001
1.010424e+003,2.132845e+001
1.011388e+003,2.292525e+001
1.012352e+003,2.402342e+001
1.013317e+003,2.443858e+001
1.014281e+003,2.430408e+001
1.015245e+003,2.359224e+001
1.016209e+003,2.252477e+001
1.017174e+003,2.066130e+001
1.018138e+003,1.852659e+001
1.019102e+003,1.782446e+001
1.020066e+003,2.022655e+001
1.021031e+003,2.414498e+001
1.021995e+003,2.431309e+001
1.022959e+003,2.151747e+001
1.023923e+003,1.973804e+001
1.024887e+003,2.067619e+001
1.025852e+003,2.248101e+001
1.026816e+003,2.173666e+001
1.027780e+003,1.740965e+001
1.028744e+003,1.569170e+001
1.029709e+003,2.015135e+001
1.030673e+003,2.357887e+001
1.031637e+003,2.307300e+001
1.032601e+003,2.053192e+001
1.033566e+003,1.873261e+001
1.034530e+003,1.867523e+001
1.035494e+003,1.931025e+001
1.036458e+003,1.982079e+001
1.037422e+003,2.000186e+001
1.038387e+003,1.926759e+001
1.039351e+003,1.774487e+001
1.040315e+003,1.663126e+001
1.041279e+003,1.694425e+001
1.042244e+003,1.829249e+001
1.043208e+003,1.856705e+001
1.044172e+003,1.655280e+001
1.045136e+003,1.543999e+001
1.046101e+003,1.542410e+001
1.047065e+003,1.615941e+001
1.048029e+003,1.833949e+001
1.048993e+003,2.116533e+001
1.049958e+003,2.179649e+001
1.050922e+003,1.804363e+001
1.051886e+003,1.407043e+001
1.052850e+003,1.464402e+001
1.053814e+003,1.729334e+001
1.054779e+003,1.905308e+001
1.055743e+003,1.920651e+001
1.056707e+003,1.861747e+001
1.057671e+003,1.830685e+001
1.058636e+003,1.826514e+001
1.059600e+003,1.822282e+001
1.060564e+003,1.796098e+001
1.061528e+003,1.814941e+001
1.062493e+003,1.928249e+001
1.063457e+003,2.053979e+001
1.064421e+003,2.107171e+001
1.065385e+003,2.080500e+001
1.066349e+003,2.017836e+001
1.067314e+003,1.917020e+001
1.068278e+003,1.813873e+001
1.069242e+003,1.697992e+001
1.070206e+003,1.610394e+001
1.071171e+003,1.621251e+001
1.072135e+003,1.751466e+001
1.073099e+003,1.949122e+001
1.074063e+003,2.135394e+001
1.075028e+003,2.315712e+001
1.075992e+003,2.417262e+001
1.076956e+003,2.458682e+001
1.077920e+003,2.405382e+001
1.078885e+003,2.149261e+001
1.079849e+003,1.831015e+001
1.080813e+003,1.734334e+001
1.081777e+003,1.940151e+001
1.082741e+003,2.130362e+001
1.083706e+003,2.101131e+001
1.084670e+003,2.038320e+001
1.085634e+003,2.052078e+001
1.086598e+003,2.109933e+001
1.087563e+003,2.130727e+001
1.088527e+003,2.072776e+001
1.089491e+003,1.971187e+001
1.090455e+003,1.883154e+001
1.091420e+003,1.806097e+001
1.092384e+003,1.745863e+001
1.093348e+003,1.702282e+001
1.094312e+003,1.666362e+001
1.095276e+003,1.641599e+001
1.096241e+003,1.626730e+001
1.097205e+003,1.606138e+001
1.098169e+003,1.567387e+001
1.099133e+003,1.541590e+001
1.100098e+003,1.544921e+001
1.101062e+003,1.563897e+001
1.102026e+003,1.605251e+001
1.102990e+003,1.654527e+001
1.103955e+003,1.678334e+001
1.104919e+003,1.656326e+001
1.105883e+003,1.616122e+001
1.106847e+003,1.621114e+001
1.107812e+003,1.672208e+001
1.108776e+003,1.724272e+001
1.109740e+003,1.791204e+001
1.110704e+003,1.826847e+001
1.111668e+003,1.792194e+001
1.112633e+003,1.703758e+001
1.113597e+003,1.619006e+001
1.114561e+003,1.546374e+001
1.115525e+003,1.458250e+001
1.116490e+003,1.247646e+001
1.117454e+003,1.108807e+001
1.118418e+003,1.253008e+001
1.119382e+003,1.580170e+001
1.120347e+003,1.815533e+001
1.121311e+003,1.787090e+001
1.122275e+003,1.607990e+001
1.123239e+003,1.510876e+001
1.124203e+003,1.497728e+001
1.125168e+003,1.477626e+001
1.126132e+003,1.435135e+001
1.127096e+003,1.414157e+001
1.128060e+003,1.484429e+001
1.129025e+003,1.608632e+001
1.129989e+003,1.594905e+001
1.130953e+003,1.328410e+001
1.131917e+003,1.155669e+001
1.132882e+003,1.261694e+001
1.133846e+003,1.390311e+001
1.134810e+003,1.386016e+001
1.135774e+003,1.271470e+001
1.136739e+003,1.129582e+001
1.137703e+003,1.008985e+001
1.138667e+003,9.331268e+000
1.139631e+003,9.641846e+000
1.140595e+003,1.086719e+001
1.141560e+003,1.152383e+001
1.142524e+003,1.143262e+001
1.143488e+003,1.132419e+001
1.144452e+003,1.183241e+001
1.145417e+003,1.270205e+001
1.146381e+003,1.305602e+001
1.147345e+003,1.286812e+001
1.148309e+003,1.203011e+001
1.149274e+003,9.793419e+000
1.150238e+003,7.737556e+000
1.151202e+003,6.592842e+000
1.152166e+003,6.286369e+000
1.153130e+003,6.687653e+000
1.154095e+003,7.622917e+000
1.155059e+003,8.453522e+000
1.156023e+003,8.248489e+000
1.156987e+003,7.165558e+000
1.157952e+003,6.411072e+000
1.158916e+003,6.059212e+000
1.159880e+003,5.976280e+000
1.160844e+003,5.951866e+000
1.161809e+003,6.071716e+000
1.162773e+003,6.872070e+000
1.163737e+003,8.741013e+000
1.164701e+003,9.573280e+000
1.165666e+003,7.868462e+000
1.166630e+003,6.055618e+000
1.167594e+003,5.032974e+000
1.168558e+003,4.429176e+000
1.169522e+003,3.434624e+000
1.170487e+003,1.944672e+000
1.171451e+003,9.242401e-001
1.172415e+003,1.492622e+000
1.173379e+003,3.387810e+000
1.174344e+003,5.618324e+000
1.175308e+003,8.391907e+000
1.176272e+003,9.621445e+000
1.177236e+003,7.624062e+000
1.178201e+003,4.561348e+000
1.179165e+003,3.368576e+000
1.180129e+003,4.036812e+000
1.181093e+003,3.898842e+000
1.182057e+003,1.415253e+000
1.183022e+003,-3.656998e-001
1.183986e+003,1.405182e-001
1.184950e+003,1.470566e+000
1.185914e+003,2.384186e+000
1.186879e+003,2.642151e+000
1.187843e+003,2.603310e+000
1.188807e+003,2.546104e+000
1.189771e+003,2.397324e+000
1.190736e+003,1.903008e+000
1.191700e+003,9.893494e-001
1.192664e+003,5.250092e-001
1.193628e+003,8.023987e-001
1.194593e+003,1.307892e+000
1.195557e+003,1.798370e+000
1.196521e+003,2.215172e+000
1.197485e+003,2.329559e+000
1.198449e+003,2.015533e+000
1.199414e+003,1.710411e+000
1.200378e+003,1.858665e+000
1.201342e+003,1.866539e+000
1.202306e+003,9.531174e-001
1.203271e+003,-3.629227e-001
1.204235e+003,-8.577805e-001
1.205199e+003,7.934570e-003
1.206163e+003,1.382240e+000
1.207128e+003,1.798058e+000
1.208092e+003,1.186508e+000
1.209056e+003,1.235107e+000
1.210020e+003,2.492363e+000
1.210984e+003,3.223228e+000
1.211949e+003,2.575165e+000
1.212913e+003,1.342209e+000
1.213877e+003,5.172501e-001
1.214841e+003,1.828766e-001
1.215806e+003,-2.849579e-002
1.216770e+003,-2.231827e-001
1.217734e+003,-3.981628e-001
1.218698e+003,-4.662399e-001
1.219663e+003,-5.951767e-001
1.220627e+003,-1.268707e+000
1.221591e+003,-2.339317e+000
1.222555e+003,-2.789703e+000
1.223520e+003,-1.630791e+000
1.224484e+003,7.122650e-001
1.225448e+003,2.131447e+000
1.226412e+003,2.343658e+000
1.227376e+003,2.063133e+000
1.228341e+003,8.724213e-001
1.229305e+003,-3.512573e-001
1.230269e+003,-1.074936e+000
1.231233e+003,-1.511314e+000
1.232198e+003,-2.228119e+000
1.233162e+003,-3.386833e+000
1.234126e+003,-4.174812e+000
1.235090e+003,-3.875885e+000
1.236055e+003,-3.064583e+000
1.237019e+003,-2.166832e+000
1.237983e+003,-1.325172e+000
1.238947e+003,-7.270355e-001
1.239911e+003,-4.355164e-001
1.240876e+003,-6.541901e-001
1.241840e+003,-1.862694e+000
1.242804e+003,-4.165520e+000
1.243768e+003,-5.479485e+000
1.244733e+003,-5.094658e+000
1.245697e+003,-4.560471e+000
1.246661e+003,-4.067444e+000
1.247625e+003,-3.464127e+000
1.248590e+003,-2.351875e+000
1.249554e+003,-9.770813e-001
1.250518e+003,-1.963806e-001
1.251482e+003,-4.581985e-001
1.252447e+003,-9.544144e-001
1.253411e+003,-5.143356e-001
1.254375e+003,3.375473e-001
1.255339e+003,3.067856e-001
1.256303e+003,-5.969391e-001
1.257268e+003,-1.247894e+000
1.258232e+003,-8.607864e-001
1.259196e+003,-1.448059e-001
1.260160e+003,-6.374588e-001
1.261125e+003,-2.577110e+000
1.262089e+003,-4.000473e+000
1.263053e+003,-4.788223e+000
1.264017e+003,-4.947205e+000
1.264982e+003,-4.208931e+000
1.265946e+003,-3.028152e+000
1.266910e+003,-1.577667e+000
1.267874e+003,-9.477997e-002
1.268839e+003,9.847260e-001
1.269803e+003,1.363235e+000
1.270767e+003,1.352470e+000
1.271731e+003,1.621185e+000
1.272695e+003,2.133636e+000
1.273660e+003,1.906960e+000
1.274624e+003,5.475693e-001
1.275588e+003,-7.307587e-001
1.276552e+003,-1.038055e+000
1.277517e+003,-8.673935e-001
1.278481e+003,-1.350990e+000
1.279445e+003,-2.644066e+000
1.280409e+003,-3.375282e+000
1.281374e+003,-2.653244e+000
1.282338e+003,-1.852806e+000
1.283302e+003,-1.947113e+000
1.284266e+003,-2.218170e+000
1.285230e+003,-1.609085e+000
1.286195e+003,-1.928329e-001
1.287159e+003,9.345016e-001
1.288123e+003,8.831558e-001
1.289087e+003,6.247711e-002
1.290052e+003,-3.504868e-001
1.291016e+003,-2.333450e-001
1.291980e+003,-2.456894e-001
1.292944e+003,-4.616699e-001
1.293909e+003,-7.660522e-001
1.294873e+003,-1.106461e+000
1.295837e+003,-1.451836e+000
1.296801e+003,-1.722694e+000
1.297766e+003,-1.930420e+000
1.298730e+003,-2.379173e+000
1.299694e+003,-3.464462e+000
1.300658e+003,-4.461639e+000
1.301622e+003,-4.348160e+000
1.302587e+003,-3.680733e+000
1.303551e+003,-3.333504e+000
1.304515e+003,-3.442703e+000
1.305479e+003,-3.713890e+000
1.306444e+003,-4.032196e+000
1.307408e+003,-4.218491e+000
1.308372e+003,-3.471733e+000
1.309336e+003,-1.280487e+000
1.310301e+003,2.430725e-001
1.311265e+003,1.203590e+000
1.312229e+003,1.288689e+000
1.313193e+003,-6.205215e-001
1.314157e+003,-2.807022e+000
1.315122e+003,-3.333038e+000
1.316086e+003,-2.188232e+000
1.317050e+003,-7.371216e-001
1.318014e+003,1.947632e-001
1.318979e+003,5.457916e-001
1.319943e+003,-6.763458e-002
1.320907e+003,-1.466263e+000
1.321871e+003,-2.176712e+000
1.322836e+003,-2.123009e+000
1.323800e+003,-1.639084e+000
1.324764e+003,-5.848007e-001
1.325728e+003,6.450653e-001
1.326693e+003,1.427025e+000
1.327657e+003,1.721397e+000
1.328621e+003,1.390045e+000
1.329585e+003,-2.657547e-001
1.330549e+003,-1.190605e+000
1.331514e+003,5.490952e-001
1.332478e+003,2.574081e+000
1.333442e+003,2.339157e+000
1.334406e+003,1.701813e-001
1.335371e+003,-1.952316e+000
1.336335e+003,-2.801796e+000
1.337299e+003,-2.698479e+000
1.338263e+003,-2.213692e+000
1.339228e+003,-1.272896e+000
1.340192e+003,-6.336594e-001
1.341156e+003,-6.500473e-001
1.342120e+003,-4.275055e-001
1.343084e+003,5.911331e-001
1.344049e+003,1.437019e+000
1.345013e+003,1.040009e+000
1.345977e+003,-1.640091e-001
1.346941e+003,-7.090302e-001
1.347906e+003,-3.942108e-002
1.348870e+003,7.801514e-001
1.349834e+003,6.958008e-001
1.350798e+003,1.407928e-001
1.351763e+003,-7.407379e-002
1.352727e+003,6.034851e-002
1.353691e+003,5.316772e-001
1.354655e+003,1.399979e+000
1.355620e+003,2.398903e+000
1.356584e+003,3.486755e+000
1.357548e+003,4.562767e+000
1.358512e+003,4.374382e+000
1.359476e+003,2.066422e+000
1.360441e+003,4.838333e-001
1.361405e+003,7.527771e-001
1.362369e+003,1.488434e+000
1.363333e+003,2.497620e+000
1.364298e+003,3.327263e+000
1.365262e+003,3.261139e+000
1.366226e+003,2.311440e+000
1.367190e+003,1.371140e+000
1.368155e+003,1.235840e+000
1.369119e+003,1.711365e+000
1.370083e+003,2.243721e+000
1.371047e+003,2.992027e+000
1.372011e+003,3.090439e+000
1.372976e+003,1.525169e+000
1.373940e+003,5.842056e-001
1.374904e+003,1.947662e+000
1.375868e+003,3.884827e+000
1.376833e+003,3.932724e+000
1.377797e+003,2.138184e+000
1.378761e+003,6.547546e-001
1.379725e+003,3.870239e-001
1.380690e+003,7.232132e-001
1.381654e+003,1.363121e+000
1.382618e+003,2.078468e+000
1.383582e+003,2.560524e+000
1.384547e+003,2.793068e+000
1.385511e+003,2.838676e+000
1.386475e+003,2.679008e+000
1.387439e+003,2.445435e+000
1.388403e+003,2.418053e+000
1.389368e+003,2.591118e+000
1.390332e+003,2.386703e+000
1.391296e+003,1.465454e+000
1.392260e+003,8.835144e-001
1.393225e+003,1.134232e+000
1.394189e+003,1.452698e+000
1.395153e+003,1.335686e+000
1.396117e+003,1.031921e+000
1.397082e+003,1.082695e+000
1.398046e+003,1.552986e+000
1.399010e+003,1.871468e+000
1.399974e+003,1.478287e+000
1.400938e+003,6.125870e-001
1.401903e+003,1.574173e-001
1.402867e+003,3.180313e-001
1.403831e+003,5.367889e-001
1.404795e+003,8.508759e-001
1.405760e+003,1.074532e+000
1.406724e+003,1.090454e+000
1.407688e+003,8.896255e-001
1.408652e+003,4.545517e-001
1.409617e+003,-1.106491e-001
1.410581e+003,-6.457062e-001
1.411545e+003,-1.185158e+000
1.412509e+003,-1.152107e+000
1.413474e+003,5.460052e-001
1.414438e+003,2.774422e+000
1.415402e+003,3.636719e+000
1.416366e+003,3.307259e+000
1.417330e+003,2.957077e+000
1.418295e+003,3.091202e+000
1.419259e+003,3.158081e+000
1.420223e+003,2.059418e+000
1.421187e+003,1.503220e-001
1.422152e+003,9.654999e-002
1.423116e+003,2.764366e+000
1.424080e+003,4.747887e+000
1.425044e+003,4.367371e+000
1.426009e+003,3.840782e+000
1.426973e+003,4.609734e+000
1.427937e+003,5.405861e+000
1.428901e+003,4.227074e+000
1.429865e+003,1.372971e+000
1.430830e+003,-9.177628e-001
1.431794e+003,-1.188721e+000
1.432758e+003,-2.339478e-001
1.433722e+003,4.643707e-001
1.434687e+003,9.585724e-001
1.435651e+003,1.307266e+000
1.436615e+003,1.664078e+000
1.437579e+003,1.377609e+000
1.438544e+003,-3.043671e-001
1.439508e+003,-1.900688e+000
1.440472e+003,-2.307220e+000
1.441436e+003,-1.899055e+000
1.442401e+003,-1.617371e+000
1.443365e+003,-1.664574e+000
1.444329e+003,-1.248848e+000
1.445293e+003,4.126358e-001
1.446257e+003,2.350143e+000
1.447222e+003,2.355736e+000
1.448186e+003,8.697128e-001
1.449150e+003,4.569778e-001
1.450114e+003,1.646980e+000
1.451079e+003,2.568649e+000
1.452043e+003,2.116508e+000
1.453007e+003,1.029266e+000
1.453971e+003,2.107239e-002
1.454936e+003,-8.179932e-001
1.455900e+003,-7.539978e-001
1.456864e+003,6.201477e-001
1.457828e+003,2.092560e+000
1.458792e+003,3.198212e+000
1.459757e+003,3.839859e+000
1.460721e+003,3.690376e+000
1.461685e+003,3.081520e+000
1.462649e+003,2.713654e+000
1.463614e+003,2.765984e+000
1.464578e+003,2.833580e+000
1.465542e+003,2.567566e+000
1.466506e+003,1.987541e+000
1.467471e+003,9.330215e-001
1.468435e+003,-9.847107e-001
1.469399e+003,-1.164299e+000
1.470363e+003,2.610062e+000
1.471328e+003,5.060997e+000
1.472292e+003,4.265625e+000
1.473256e+003,2.461182e+000
1.474220e+003,8.351440e-001
1.475184e+003,-2.734299e-001
1.476149e+003,-6.202774e-001
1.477113e+003,-2.651367e-001
1.478077e+003,1.683731e-001
1.479041e+003,9.137726e-002
1.480006e+003,-1.663895e-001
1.480970e+003,4.914093e-001
1.481934e+003,2.573303e+000
1.482898e+003,3.135170e+000
1.483863e+003,6.105194e-001
1.484827e+003,-1.075523e+000
1.485791e+003,-1.441956e-003
1.486755e+003,1.628304e+000
1.487719e+003,1.507553e+000
1.488684e+003,1.825562e-001
1.489648e+003,-1.818008e-001
1.490612e+003,1.086571e+000
1.491576e+003,2.258919e+000
1.492541e+003,1.762222e+000
1.493505e+003,4.901657e-001
1.494469e+003,5.382385e-001
1.495433e+003,1.619133e+000
1.496398e+003,2.256393e+000
1.497362e+003,2.288567e+000
1.498326e+003,2.061317e+000
1.499290e+003,1.589996e+000
1.500255e+003,1.060234e+000
1.501219e+003,7.052460e-001
1.502183e+003,5.067825e-001
1.503147e+003,4.618225e-001
1.504111e+003,6.658936e-001
1.505076e+003,4.805603e-001
1.506040e+003,-1.115227e+000
1.507004e+003,-2.540276e+000
1.507968e+003,-1.993095e+000
1.508933e+003,-2.229156e-001
1.509897e+003,1.472084e+000
1.510861e+003,2.808891e+000
1.511825e+003,3.381134e+000
1.512790e+003,2.635826e+000
1.513754e+003,1.310814e+000
1.514718e+003,8.723755e-001
1.515682e+003,1.299194e+000
1.516646e+003,1.854660e+000
1.517611e+003,2.834160e+000
1.518575e+003,3.223289e+000
1.519539e+003,1.930122e+000
1.520503e+003,8.274841e-001
1.521468e+003,1.036957e+000
1.522432e+003,1.939613e+000
1.523396e+003,2.865410e+000
1.524360e+003,3.499481e+000
1.525325e+003,3.463196e+000
1.526289e+003,2.512764e+000
1.527253e+003,1.208588e+000
1.528217e+003,5.452042e-001
1.529182e+003,5.501633e-001
1.530146e+003,6.029129e-001
1.531110e+003,8.007889e-001
1.532074e+003,8.305893e-001
1.533038e+003,2.167053e-001
1.534003e+003,-1.571426e-001
1.534967e+003,5.077820e-001
1.535931e+003,1.446175e+000
1.536895e+003,1.522453e+000
1.537860e+003,9.507828e-001
1.538824e+003,1.041290e+000
1.539788e+003,2.395638e+000
1.540752e+003,3.965385e+000
1.541717e+003,4.413368e+000
1.542681e+003,3.928627e+000
1.543645e+003,3.650467e+000
1.544609e+003,3.537560e+000
1.545573e+003,3.902893e+000
1.546538e+003,5.181221e+000
1.547502e+003,6.236885e+000
1.548466e+003,6.447701e+000
1.549430e+003,6.517647e+000
1.550395e+003,7.351936e+000
1.551359e+003,8.632095e+000
1.552323e+003,9.310226e+000
1.553287e+003,9.032936e+000
1.554252e+003,8.273506e+000
1.555216e+003,7.410339e+000
1.556180e+003,6.411087e+000
1.557144e+003,5.037193e+000
1.558109e+003,3.300789e+000
1.559073e+003,2.575592e+000
1.560037e+003,3.540474e+000
1.561001e+003,4.006500e+000
1.561965e+003,2.488808e+000
1.562930e+003,9.970932e-001
1.563894e+003,1.731529e+000
1.564858e+003,3.840744e+000
1.565822e+003,5.199493e+000
1.566787e+003,5.378304e+000
1.567751e+003,4.825233e+000
1.568715e+003,3.429474e+000
1.569679e+003,2.566338e+000
1.570644e+003,4.761826e+000
1.571608e+003,8.578545e+000
1.572572e+003,9.714699e+000
1.573536e+003,8.015762e+000
1.574500e+003,6.547897e+000
1.575465e+003,6.322708e+000
1.576429e+003,6.551529e+000
1.577393e+003,6.683983e+000
1.578357e+003,6.775131e+000
1.579322e+003,6.896614e+000
1.580286e+003,7.090973e+000
1.581250e+003,7.812675e+000
1.582214e+003,9.546600e+000
1.583179e+003,1.046092e+001
1.584143e+003,8.228172e+000
1.585107e+003,5.282059e+000
1.586071e+003,5.343819e+000
1.587036e+003,7.478325e+000
1.588000e+003,8.453346e+000
1.588964e+003,7.470802e+000
1.589928e+003,6.629707e+000
1.590893e+003,7.375977e+000
1.591857e+003,8.991577e+000
1.592821e+003,1.089337e+001
1.593785e+003,1.282424e+001
1.594750e+003,1.294254e+001
1.595714e+003,1.065303e+001
1.596678e+003,8.847946e+000
1.597642e+003,8.864639e+000
1.598606e+003,9.464218e+000
1.599571e+003,1.000170e+001
1.600535e+003,1.031268e+001
1.601499e+003,9.892159e+000
1.602463e+003,8.931641e+000
1.603428e+003,8.484177e+000
1.604392e+003,8.996826e+000
1.605356e+003,9.972565e+000
1.606320e+003,1.113727e+001
1.607285e+003,1.230612e+001
1.608249e+003,1.293174e+001
1.609213e+003,1.299908e+001
1.610177e+003,1.284187e+001
1.611141e+003,1.234462e+001
1.612106e+003,1.205576e+001
1.613070e+003,1.261584e+001
1.614034e+003,1.312347e+001
1.614998e+003,1.269082e+001
1.615963e+003,1.185131e+001
1.616927e+003,1.152050e+001
1.617891e+003,1.182002e+001
1.618855e+003,1.231937e+001
1.619820e+003,1.274723e+001
1.620784e+003,1.320274e+001
1.621748e+003,1.405595e+001
1.622712e+003,1.522513e+001
1.623677e+003,1.573267e+001
1.624641e+003,1.545407e+001
1.625605e+003,1.525616e+001
1.626569e+003,1.534470e+001
1.627533e+003,1.527062e+001
1.628498e+003,1.428266e+001
1.629462e+003,1.360120e+001
1.630426e+003,1.484991e+001
1.631390e+003,1.706810e+001
1.632355e+003,1.804178e+001
1.633319e+003,1.728574e+001
1.634283e+003,1.599436e+001
1.635247e+003,1.490784e+001
1.636212e+003,1.420619e+001
1.637176e+003,1.436527e+001
1.638140e+003,1.534158e+001
1.639104e+003,1.628685e+001
1.640068e+003,1.735240e+001
1.641033e+003,1.758292e+001
1.641997e+003,1.583237e+001
1.642961e+003,1.454660e+001
1.643925e+003,1.560676e+001
1.644890e+003,1.712078e+001
1.645854e+003,1.706535e+001
1.646818e+003,1.584615e+001
1.647782e+003,1.488591e+001
1.648747e+003,1.464833e+001
1.649711e+003,1.484991e+001
1.650675e+003,1.534743e+001
1.651639e+003,1.600787e+001
1.652604e+003,1.660613e+001
1.653568e+003,1.710502e+001
1.654532e+003,1.692321e+001
1.655496e+003,1.571776e+001
1.656460e+003,1.498156e+001
1.657425e+003,1.567976e+001
1.658389e+003,1.624120e+001
1.659353e+003,1.547815e+001
1.660317e+003,1.440327e+001
1.661282e+003,1.413358e+001
1.662246e+003,1.452166e+001
1.663210e+003,1.491351e+001
1.664174e+003,1.509137e+001
1.665139e+003,1.501480e+001
1.666103e+003,1.457851e+001
1.667067e+003,1.392791e+001
1.668031e+003,1.336019e+001
1.668995e+003,1.288562e+001
1.669960e+003,1.245546e+001
1.670924e+003,1.206899e+001
1.671888e+003,1.177740e+001
1.672852e+003,1.159800e+001
1.673817e+003,1.147011e+001
1.674781e+003,1.140652e+001
1.675745e+003,1.132726e+001
1.676709e+003,1.109013e+001
1.677674e+003,1.075725e+001
1.678638e+003,1.055699e+001
1.679602e+003,1.056084e+001
1.680566e+003,1.054119e+001
1.681531e+003,1.023940e+001
1.682495e+003,9.975204e+000
1.683459e+003,1.073106e+001
1.684423e+003,1.210469e+001
1.685387e+003,1.110318e+001
1.686352e+003,6.984207e+000
1.687316e+003,4.703651e+000
1.688280e+003,6.731941e+000
1.689244e+003,9.257233e+000
1.690209e+003,9.595764e+000
1.691173e+003,8.820778e+000
1.692137e+003,7.606613e+000
1.693101e+003,6.321480e+000
1.694066e+003,5.981682e+000
1.695030e+003,6.840889e+000
1.695994e+003,7.613968e+000
1.696958e+003,7.467705e+000
1.697922e+003,6.924896e+000
1.698887e+003,6.468086e+000
1.699851e+003,6.184982e+000
1.700815e+003,6.624298e+000
1.701779e+003,7.764061e+000
1.702744e+003,7.614960e+000
1.703708e+003,5.171181e+000
1.704672e+003,3.068901e+000
1.705636e+003,3.491768e+000
1.706601e+003,4.938812e+000
1.707565e+003,5.480721e+000
1.708529e+003,5.235893e+000
1.709493e+003,4.088867e+000
1.710458e+003,1.806122e+000
1.711422e+003,6.703568e-001
1.712386e+003,2.737053e+000
1.713350e+003,4.985146e+000
1.714314e+003,4.802238e+000
1.715279e+003,3.278328e+000
1.716243e+003,2.103500e+000
1.717207e+003,1.403069e+000
1.718171e+003,6.905899e-001
1.719136e+003,-1.622849e-001
1.720100e+003,1.394653e-001
1.721064e+003,2.906792e+000
1.722028e+003,5.882011e+000
1.722993e+003,5.590454e+000
1.723957e+003,2.702652e+000
1.724921e+003,8.410721e-001
1.725885e+003,-4.618835e-002
1.726849e+003,-2.188492e-001
1.727814e+003,8.043976e-001
1.728778e+003,1.956749e+000
1.729742e+003,3.253456e+000
1.730706e+003,4.029526e+000
1.731671e+003,2.932213e+000
1.732635e+003,1.000999e+000
1.733599e+003,6.682281e-001
1.734563e+003,2.170609e+000
1.735528e+003,3.743881e+000
1.736492e+003,4.439659e+000
1.737456e+003,4.521797e+000
1.738420e+003,4.247581e+000
1.739385e+003,3.715752e+000
1.740349e+003,3.438232e+000
1.741313e+003,3.626282e+000
1.742277e+003,3.122406e+000
1.743241e+003,1.265823e+000
1.744206e+003,-1.393127e-001
1.745170e+003,-1.149406e+000
1.746134e+003,-1.367554e+000
1.747098e+003,2.462311e-001
1.748063e+003,2.149307e+000
1.749027e+003,2.505081e+000
1.749991e+003,1.557167e+000
1.750955e+003,5.753326e-001
1.751920e+003,8.674622e-003
1.752884e+003,-7.133865e-001
1.753848e+003,-2.084038e+000
1.754812e+003,-3.351326e+000
1.755776e+003,-2.835838e+000
1.756741e+003,-5.843353e-001
1.757705e+003,8.967972e-001
1.758669e+003,1.440826e+000
1.759633e+003,1.605255e+000
1.760598e+003,1.180573e+000
1.761562e+003,6.875763e-001
1.762526e+003,1.216049e-001
1.763490e+003,-2.320786e-001
1.764455e+003,6.368256e-002
1.765419e+003,5.891266e-001
1.766383e+003,6.646652e-001
1.767347e+003,2.282257e-001
1.768312e+003,-4.135284e-001
1.769276e+003,-1.137024e+000
1.770240e+003,-1.608559e+000
1.771204e+003,-1.314995e+000
1.772168e+003,-5.888443e-001
1.773133e+003,-3.160324e-001
1.774097e+003,-4.364319e-001
1.775061e+003,-2.576447e-001
1.776025e+003,3.306503e-001
1.776990e+003,6.131744e-001
1.777954e+003,3.405228e-001
1.778918e+003,-1.547089e-001
1.779882e+003,-9.064789e-001
1.780847e+003,-1.592842e+000
1.781811e+003,-1.747887e+000
1.782775e+003,-1.447327e+000
1.783739e+003,-8.016357e-001
1.784703e+003,2.698364e-001
1.785668e+003,6.941833e-001
1.786632e+003,-4.296951e-001
1.787596e+003,-1.800568e+000
1.788560e+003,-2.844910e+000
1.789525e+003,-3.209488e+000
1.790489e+003,-1.862152e+000
1.791453e+003,4.813232e-001
1.792417e+003,1.581680e+000
1.793382e+003,1.052765e+000
1.794346e+003,3.320999e-001
1.795310e+003,1.692734e-001
1.796274e+003,1.378403e-001
1.797239e+003,-2.585678e-001
1.798203e+003,-8.041000e-001
1.799167e+003,-9.218369e-001
1.800131e+003,-6.093674e-001
1.801095e+003,-3.616180e-001
1.802060e+003,9.695435e-002
1.803024e+003,1.903992e-001
1.803988e+003,-4.887009e-001
1.804952e+003,-1.157791e+000
1.805917e+003,-1.473045e+000
1.806881e+003,-1.580917e+000
1.807845e+003,-1.763809e+000
1.808809e+003,-1.818085e+000
1.809774e+003,-9.382706e-001
1.810738e+003,6.859665e-001
1.811702e+003,1.235451e+000
1.812666e+003,-3.860550e-001
1.813630e+003,-2.420021e+000
1.814595e+003,-2.427299e+000
1.815559e+003,-9.738770e-001
1.816523e+003,-3.817139e-001
1.817487e+003,-7.476120e-001
1.818452e+003,-7.344742e-001
1.819416e+003,9.485626e-002
1.820380e+003,2.550888e-001
1.821344e+003,-1.477791e+000
1.822309e+003,-2.864113e+000
1.823273e+003,-2.080231e+000
1.824237e+003,-6.841125e-001
1.825201e+003,-2.368240e-001
1.826166e+003,-5.364151e-001
1.827130e+003,-9.328384e-001
1.828094e+003,-1.299614e+000
1.829058e+003,-1.267441e+000
1.830022e+003,-4.695435e-001
1.830987e+003,4.219131e-001
1.831951e+003,1.087700e+000
1.832915e+003,1.339928e+000
1.833879e+003,5.408478e-001
1.834844e+003,-8.608093e-001
1.835808e+003,-1.324356e+000
1.836772e+003,-7.397079e-001
1.837736e+003,-7.403336e-001
1.838701e+003,-2.085693e+000
1.839665e+003,-3.252159e+000
1.840629e+003,-2.777473e+000
1.841593e+003,-1.326500e+000
1.842557e+003,-2.476120e-001
1.843522e+003,4.564819e-001
1.844486e+003,6.856537e-001
1.845450e+003,5.176468e-001
1.846414e+003,-2.385330e-001
1.847379e+003,-3.037064e+000
1.848343e+003,-4.512161e+000
1.849307e+003,-2.375977e+000
1.850271e+003,8.473206e-002
1.851236e+003,3.332062e-001
1.852200e+003,-4.586411e-001
1.853164e+003,-5.502777e-001
1.854128e+003,1.531067e-001
1.855093e+003,1.102379e+000
1.856057e+003,1.999954e+000
1.857021e+003,2.168877e+000
1.857985e+003,8.649597e-001
1.858949e+003,-7.237167e-001
1.859914e+003,-2.532730e-001
1.860878e+003,1.836243e+000
1.861842e+003,2.980095e+000
1.862806e+003,3.132332e+000
1.863771e+003,3.154427e+000
1.864735e+003,3.219475e+000
1.865699e+003,2.866226e+000
1.866663e+003,1.629997e+000
1.867628e+003,4.825134e-001
1.868592e+003,3.586197e-001
1.869556e+003,7.757568e-001
1.870520e+003,8.305359e-001
1.871484e+003,6.034470e-001
1.872449e+003,7.733688e-001
1.873413e+003,1.772469e+000
1.874377e+003,2.141045e+000
1.875341e+003,4.070663e-001
1.876306e+003,-8.595276e-001
1.877270e+003,6.268387e-001
1.878234e+003,2.377792e+000
1.879198e+003,1.462982e+000
1.880163e+003,-8.707733e-001
1.881127e+003,-2.175377e+000
1.882091e+003,-2.109123e+000
1.883055e+003,-1.420425e+000
1.884020e+003,-5.135117e-001
1.884984e+003,3.651352e-001
1.885948e+003,9.991684e-001
1.886912e+003,1.423576e+000
1.887876e+003,1.714058e+000
1.888841e+003,1.870132e+000
1.889805e+003,1.843491e+000
1.890769e+003,1.656265e+000
1.891733e+003,1.107819e+000
1.892698e+003,-1.237946e-001
1.893662e+003,-1.031113e+000
1.894626e+003,-1.028038e+000
1.895590e+003,-8.912582e-001
1.896555e+003,-1.507858e+000
1.897519e+003,-2.010841e+000
1.898483e+003,-8.267670e-001
1.899447e+003,1.326752e+000
1.900411e+003,1.829704e+000
1.901376e+003,1.704025e-001
1.902340e+003,-1.309097e+000
1.903304e+003,-1.880775e+000
1.904268e+003,-1.843277e+000
1.905233e+003,-9.332047e-001
1.906197e+003,1.006622e-001
1.907161e+003,4.132767e-001
1.908125e+003,3.306351e-001
1.909090e+003,4.644928e-001
1.910054e+003,8.361206e-001
1.911018e+003,1.250191e+000
1.911982e+003,1.610046e+000
1.912947e+003,1.709122e+000
1.913911e+003,1.386887e+000
1.914875e+003,7.985611e-001
1.915839e+003,1.074982e-001
1.916803e+003,-5.605927e-001
1.917768e+003,-2.383270e-001
1.918732e+003,1.418175e+000
1.919696e+003,1.876556e+000
1.920660e+003,6.276016e-001
1.921625e+003,-4.536438e-001
1.922589e+003,-1.360313e+000
1.923553e+003,-1.442390e+000
1.924517e+003,6.497574e-001
1.925482e+003,2.835747e+000
1.926446e+003,3.073532e+000
1.927410e+003,2.168961e+000
1.928374e+003,1.708755e+000
1.929339e+003,1.775856e+000
1.930303e+003,1.805740e+000
1.931267e+003,1.760216e+000
1.932231e+003,1.511696e+000
1.933195e+003,7.164230e-001
1.934160e+003,-4.059601e-002
1.935124e+003,-3.299713e-001
1.936088e+003,-3.621063e-001
1.937052e+003,-3.571854e-001
1.938017e+003,-2.847824e-001
1.938981e+003,4.412079e-002
1.939945e+003,5.527115e-001
1.940909e+003,7.701416e-001
1.941874e+003,5.166702e-001
1.942838e+003,3.199158e-001
1.943802e+003,7.128067e-001
1.944766e+003,1.388718e+000
1.945730e+003,1.610771e+000
1.946695e+003,1.457993e+000
1.947659e+003,1.977516e+000
1.948623e+003,3.319214e+000
1.949587e+003,3.327705e+000
1.950552e+003,1.317223e+000
1.951516e+003,-1.847839e-002
1.952480e+003,4.906998e-001
1.953444e+003,1.274681e+000
1.954409e+003,1.317154e+000
1.955373e+003,9.206924e-001
1.956337e+003,2.531662e-001
1.957301e+003,-4.218292e-001
1.958266e+003,-6.166840e-002
1.959230e+003,1.574356e+000
1.960194e+003,2.381111e+000
1.961158e+003,1.417778e+000
1.962122e+003,4.947891e-001
1.963087e+003,-2.553711e-001
1.964051e+003,-4.313660e-001
1.965015e+003,1.150154e+000
1.965979e+003,2.636497e+000
1.966944e+003,1.286118e+000
1.967908e+003,-1.234329e+000
1.968872e+003,-1.294319e+000
1.969836e+003,1.102386e+000
1.970801e+003,3.003899e+000
1.971765e+003,3.150238e+000
1.972729e+003,2.650917e+000
1.973693e+003,2.345299e+000
1.974657e+003,2.198471e+000
1.975622e+003,2.156754e+000
1.976586e+003,2.210220e+000
1.977550e+003,2.464325e+000
1.978514e+003,2.851570e+000
1.979479e+003,2.854492e+000
1.980443e+003,2.424286e+000
1.981407e+003,2.255157e+000
1.982371e+003,2.637009e+000
1.983336e+003,2.892220e+000
1.984300e+003,2.427902e+000
1.985264e+003,1.878220e+000
1.986228e+003,2.309120e+000
1.987193e+003,3.455688e+000
1.988157e+003,3.915733e+000
1.989121e+003,3.516022e+000
1.990085e+003,3.411758e+000
1.991049e+003,4.050011e+000
1.992014e+003,4.115257e+000
1.992978e+003,2.918442e+000
1.993942e+003,1.818886e+000
1.994906e+003,9.654922e-001
1.995871e+003,6.886978e-001
1.996835e+003,1.601349e+000
1.997799e+003,3.047646e+000
1.998763e+003,4.244987e+000
1.999728e+003,5.044594e+000
2.000692e+003,0.000000e+000
2.001656e+003,0.000000e+000
2.002620e+003,0.000000e+000
2.003584e+003,0.000000e+000
2.004549e+003,0.000000e+000
2.005513e+003,0.000000e+000
2.006477e+003,0.000000e+000
2.007441e+003,0.000000e+000
2.008406e+003,0.000000e+000
2.009370e+003,0.000000e+000
2.010334e+003,0.000000e+000
2.011298e+003,0.000000e+000
2.012263e+003,0.000000e+000
2.013227e+003,0.000000e+000
2.014191e+003,0.000000e+000
2.015155e+003,0.000000e+000
2.016120e+003,0.000000e+000
2.017084e+003,0.000000e+000
2.018048e+003,0.000000e+000
2.019012e+003,0.000000e+000
2.019976e+003,0.000000e+000
2.020941e+003,0.000000e+000
2.021905e+003,0.000000e+000
2.022869e+003,0.000000e+000
2.023833e+003,0.000000e+000
2.024798e+003,0.000000e+000
2.025762e+003,0.000000e+000
2.026726e+003,0.000000e+000
2.027690e+003,0.000000e+000
2.028655e+003,0.000000e+000
2.029619e+003,0.000000e+000
2.030583e+003,0.000000e+000
2.031547e+003,0.000000e+000
2.032511e+003,0.000000e+000
2.033476e+003,0.000000e+000
2.034440e+003,0.000000e+000
2.035404e+003,0.000000e+000
2.036368e+003,0.000000e+000
2.037333e+003,0.000000e+000
2.038297e+003,0.000000e+000
2.039261e+003,0.000000e+000
2.040225e+003,0.000000e+000
2.041190e+003,0.000000e+000
2.042154e+003,0.000000e+000
2.043118e+003,0.000000e+000
2.044082e+003,0.000000e+000
2.045047e+003,0.000000e+000
2.046011e+003,0.000000e+000
2.046975e+003,0.000000e+000
2.047939e+003,0.000000e+000
2.048904e+003,0.000000e+000
2.049868e+003,0.000000e+000
2.050832e+003,0.000000e+000
2.051796e+003,0.000000e+000
2.052760e+003,0.000000e+000
2.053725e+003,0.000000e+000
2.054689e+003,0.000000e+000
2.055653e+003,0.000000e+000
2.056617e+003,0.000000e+000
2.057582e+003,0.000000e+000
2.058546e+003,0.000000e+000
2.059510e+003,0.000000e+000
2.060474e+003,0.000000e+000
2.061438e+003,0.000000e+000
2.062403e+003,0.000000e+000
2.063367e+003,0.000000e+000
2.064331e+003,0.000000e+000
2.065295e+003,0.000000e+000
2.066260e+003,0.000000e+000
2.067224e+003,0.000000e+000
2.068188e+003,0.000000e+000
2.069152e+003,0.000000e+000
2.070117e+003,0.000000e+000
2.071081e+003,0.000000e+000
2.072045e+003,0.000000e+000
2.073009e+003,0.000000e+000
2.073974e+003,0.000000e+000
2.074938e+003,0.000000e+000
2.075902e+003,0.000000e+000
2.076866e+003,0.000000e+000
2.077831e+003,0.000000e+000
2.078795e+003,0.000000e+000
2.079759e+003,0.000000e+000
2.080723e+003,0.000000e+000
2.081688e+003,0.000000e+000
2.082652e+003,0.000000e+000
2.083616e+003,0.000000e+000
2.084580e+003,0.000000e+000
2.085544e+003,0.000000e+000
2.086509e+003,0.000000e+000
2.087473e+003,0.000000e+000
2.088437e+003,0.000000e+000
2.089401e+003,0.000000e+000
2.090365e+003,0.000000e+000
2.091330e+003,0.000000e+000
2.092294e+003,0.000000e+000
2.093258e+003,0.000000e+000
2.094222e+003,0.000000e+000
2.095187e+003,0.000000e+000
2.096151e+003,0.000000e+000
2.097115e+003,0.000000e+000
2.098079e+003,0.000000e+000
2.099044e+003,0.000000e+000
2.100008e+003,0.000000e+000
2.100972e+003,0.000000e+000
2.101936e+003,0.000000e+000
2.102901e+003,0.000000e+000
2.103865e+003,0.000000e+000
2.104829e+003,0.000000e+000
2.105793e+003,0.000000e+000
2.106758e+003,0.000000e+000
2.107722e+003,0.000000e+000
2.108686e+003,0.000000e+000
2.109650e+003,0.000000e+000
2.110615e+003,0.000000e+000
2.111579e+003,0.000000e+000
2.112543e+003,0.000000e+000
2.113507e+003,0.000000e+000
2.114471e+003,0.000000e+000
2.115436e+003,0.000000e+000
2.116400e+003,0.000000e+000
2.117364e+003,0.000000e+000
2.118328e+003,0.000000e+000
2.119292e+003,0.000000e+000
2.120257e+003,0.000000e+000
2.121221e+003,0.000000e+000
2.122185e+003,0.000000e+000
2.123149e+003,0.000000e+000
2.124114e+003,0.000000e+000
2.125078e+003,0.000000e+000
2.126042e+003,0.000000e+000
2.127006e+003,0.000000e+000
2.127971e+003,0.000000e+000
2.128935e+003,0.000000e+000
2.129899e+003,0.000000e+000
2.130863e+003,0.000000e+000
2.131828e+003,0.000000e+000
2.132792e+003,0.000000e+000
2.133756e+003,0.000000e+000
2.134720e+003,0.000000e+000
2.135685e+003,0.000000e+000
2.136649e+003,0.000000e+000
2.137613e+003,0.000000e+000
2.138577e+003,0.000000e+000
2.139542e+003,0.000000e+000
2.140506e+003,0.000000e+000
2.141470e+003,0.000000e+000
2.142434e+003,0.000000e+000
2.143398e+003,0.000000e+000
2.144363e+003,0.000000e+000
2.145327e+003,0.000000e+000
2.146291e+003,0.000000e+000
2.147255e+003,0.000000e+000
2.148220e+003,0.000000e+000
2.149184e+003,0.000000e+000
2.150148e+003,0.000000e+000
2.151112e+003,0.000000e+000
2.152077e+003,0.000000e+000
2.153041e+003,0.000000e+000
2.154005e+003,0.000000e+000
2.154969e+003,0.000000e+000
2.155934e+003,0.000000e+000
2.156898e+003,0.000000e+000
2.157862e+003,0.000000e+000
2.158826e+003,0.000000e+000
2.159791e+003,0.000000e+000
2.160755e+003,0.000000e+000
2.161719e+003,0.000000e+000
2.162683e+003,0.000000e+000
2.163647e+003,0.000000e+000
2.164612e+003,0.000000e+000
2.165576e+003,0.000000e+000
2.166540e+003,0.000000e+000
2.167504e+003,0.000000e+000
2.168469e+003,0.000000e+000
2.169433e+003,0.000000e+000
2.170397e+003,0.000000e+000
2.171361e+003,0.000000e+000
2.172325e+003,0.000000e+000
2.173290e+003,0.000000e+000
2.174254e+003,0.000000e+000
2.175218e+003,0.000000e+000
2.176182e+003,0.000000e+000
2.177147e+003,0.000000e+000
2.178111e+003,0.000000e+000
2.179075e+003,0.000000e+000
2.180039e+003,0.000000e+000
2.181004e+003,0.000000e+000
2.181968e+003,0.000000e+000
2.182932e+003,0.000000e+000
2.183896e+003,0.000000e+000
2.184861e+003,0.000000e+000
2.185825e+003,0.000000e+000
2.186789e+003,0.000000e+000
2.187753e+003,0.000000e+000
2.188718e+003,0.000000e+000
2.189682e+003,0.000000e+000
2.190646e+003,0.000000e+000
2.191610e+003,0.000000e+000
2.192574e+003,0.000000e+000
2.193539e+003,0.000000e+000
2.194503e+003,0.000000e+000
2.195467e+003,0.000000e+000
2.196431e+003,0.000000e+000
2.197396e+003,0.000000e+000
2.198360e+003,0.000000e+000
2.199324e+003,0.000000e+000
2.200288e+003,0.000000e+000
2.201252e+003,0.000000e+000
2.202217e+003,0.000000e+000
2.203181e+003,0.000000e+000
2.204145e+003,0.000000e+000
2.205109e+003,0.000000e+000
2.206074e+003,0.000000e+000
2.207038e+003,0.000000e+000
2.208002e+003,0.000000e+000
2.208966e+003,0.000000e+000
2.209931e+003,0.000000e+000
2.210895e+003,0.000000e+000
2.211859e+003,0.000000e+000
2.212823e+003,0.000000e+000
2.213788e+003,0.000000e+000
2.214752e+003,0.000000e+000
2.215716e+003,0.000000e+000
2.216680e+003,0.000000e+000
2.217645e+003,0.000000e+000
2.218609e+003,0.000000e+000
2.219573e+003,0.000000e+000
2.220537e+003,0.000000e+000
2.221501e+003,0.000000e+000
2.222466e+003,0.000000e+000
2.223430e+003,0.000000e+000
2.224394e+003,0.000000e+000
2.225358e+003,0.000000e+000
2.226323e+003,0.000000e+000
2.227287e+003,0.000000e+000
2.228251e+003,0.000000e+000
2.229215e+003,0.000000e+000
2.230179e+003,0.000000e+000
2.231144e+003,0.000000e+000
2.232108e+003,0.000000e+000
2.233072e+003,0.000000e+000
2.234036e+003,0.000000e+000
2.235001e+003,0.000000e+000
2.235965e+003,0.000000e+000
2.236929e+003,0.000000e+000
2.237893e+003,0.000000e+000
2.238858e+003,0.000000e+000
2.239822e+003,0.000000e+000
2.240786e+003,0.000000e+000
2.241750e+003,0.000000e+000
2.242715e+003,0.000000e+000
2.243679e+003,0.000000e+000
2.244643e+003,0.000000e+000
2.245607e+003,0.000000e+000
2.246572e+003,0.000000e+000
2.247536e+003,0.000000e+000
2.248500e+003,0.000000e+000
2.249464e+003,0.000000e+000
2.250428e+003,0.000000e+000
2.251393e+003,0.000000e+000
2.252357e+003,0.000000e+000
2.253321e+003,0.000000e+000
2.254285e+003,0.000000e+000
2.255250e+003,0.000000e+000
2.256214e+003,0.000000e+000
2.257178e+003,0.000000e+000
2.258142e+003,0.000000e+000
2.259106e+003,0.000000e+000
2.260071e+003,0.000000e+000
2.261035e+003,0.000000e+000
2.261999e+003,0.000000e+000
2.262963e+003,0.000000e+000
2.263928e+003,0.000000e+000
2.264892e+003,0.000000e+000
2.265856e+003,0.000000e+000
2.266820e+003,0.000000e+000
2.267785e+003,0.000000e+000
2.268749e+003,0.000000e+000
2.269713e+003,0.000000e+000
2.270677e+003,0.000000e+000
2.271642e+003,0.000000e+000
2.272606e+003,0.000000e+000
2.273570e+003,0.000000e+000
2.274534e+003,0.000000e+000
2.275499e+003,0.000000e+000
2.276463e+003,0.000000e+000
2.277427e+003,0.000000e+000
2.278391e+003,0.000000e+000
2.279355e+003,0.000000e+000
2.280320e+003,0.000000e+000
2.281284e+003,0.000000e+000
2.282248e+003,0.000000e+000
2.283212e+003,0.000000e+000
2.284177e+003,0.000000e+000
2.285141e+003,0.000000e+000
2.286105e+003,0.000000e+000
2.287069e+003,0.000000e+000
2.288033e+003,0.000000e+000
2.288998e+003,0.000000e+000
2.289962e+003,0.000000e+000
2.290926e+003,0.000000e+000
2.291890e+003,0.000000e+000
2.292855e+003,0.000000e+000
2.293819e+003,0.000000e+000
2.294783e+003,0.000000e+000
2.295747e+003,0.000000e+000
2.296712e+003,0.000000e+000
2.297676e+003,0.000000e+000
2.298640e+003,0.000000e+000
2.299604e+003,0.000000e+000
2.300569e+003,0.000000e+000
2.301533e+003,0.000000e+000
2.302497e+003,0.000000e+000
2.303461e+003,0.000000e+000
2.304426e+003,0.000000e+000
2.305390e+003,0.000000e+000
2.306354e+003,0.000000e+000
2.307318e+003,0.000000e+000
2.308282e+003,0.000000e+000
2.309247e+003,0.000000e+000
2.310211e+003,0.000000e+000
2.311175e+003,0.000000e+000
2.312139e+003,0.000000e+000
2.313104e+003,0.000000e+000
2.314068e+003,0.000000e+000
2.315032e+003,0.000000e+000
2.315996e+003,0.000000e+000
2.316960e+003,0.000000e+000
2.317925e+003,0.000000e+000
2.318889e+003,0.000000e+000
2.319853e+003,0.000000e+000
2.320817e+003,0.000000e+000
2.321782e+003,0.000000e+000
2.322746e+003,0.000000e+000
2.323710e+003,0.000000e+000
2.324674e+003,0.000000e+000
2.325639e+003,0.000000e+000
2.326603e+003,0.000000e+000
2.327567e+003,0.000000e+000
2.328531e+003,0.000000e+000
2.329496e+003,0.000000e+000
2.330460e+003,0.000000e+000
2.331424e+003,0.000000e+000
2.332388e+003,0.000000e+000
2.333353e+003,0.000000e+000
2.334317e+003,0.000000e+000
2.335281e+003,0.000000e+000
2.336245e+003,0.000000e+000
2.337209e+003,0.000000e+000
2.338174e+003,0.000000e+000
2.339138e+003,0.000000e+000
2.340102e+003,0.000000e+000
2.341066e+003,0.000000e+000
2.342031e+003,0.000000e+000
2.342995e+003,0.000000e+000
2.343959e+003,0.000000e+000
2.344923e+003,0.000000e+000
2.345887e+003,0.000000e+000
2.346852e+003,0.000000e+000
2.347816e+003,0.000000e+000
2.348780e+003,0.000000e+000
2.349744e+003,0.000000e+000
2.350709e+003,0.000000e+000
2.351673e+003,0.000000e+000
2.352637e+003,0.000000e+000
2.353601e+003,0.000000e+000
2.354566e+003,0.000000e+000
2.355530e+003,0.000000e+000
2.356494e+003,0.000000e+000
2.357458e+003,0.000000e+000
2.358423e+003,0.000000e+000
2.359387e+003,0.000000e+000
2.360351e+003,0.000000e+000
2.361315e+003,0.000000e+000
2.362280e+003,0.000000e+000
2.363244e+003,0.000000e+000
2.364208e+003,0.000000e+000
2.365172e+003,0.000000e+000
2.366136e+003,0.000000e+000
2.367101e+003,0.000000e+000
2.368065e+003,0.000000e+000
2.369029e+003,0.000000e+000
2.369993e+003,0.000000e+000
2.370958e+003,0.000000e+000
2.371922e+003,0.000000e+000
2.372886e+003,0.000000e+000
2.373850e+003,0.000000e+000
2.374814e+003,0.000000e+000
2.375779e+003,0.000000e+000
2.376743e+003,0.000000e+000
2.377707e+003,0.000000e+000
2.378671e+003,0.000000e+000
2.379636e+003,0.000000e+000
2.380600e+003,0.000000e+000
2.381564e+003,0.000000e+000
2.382528e+003,0.000000e+000
2.383493e+003,0.000000e+000
2.384457e+003,0.000000e+000
2.385421e+003,0.000000e+000
2.386385e+003,0.000000e+000
2.387350e+003,0.000000e+000
2.388314e+003,0.000000e+000
2.389278e+003,0.000000e+000
2.390242e+003,0.000000e+000
2.391207e+003,0.000000e+000
2.392171e+003,0.000000e+000
2.393135e+003,0.000000e+000
2.394099e+003,0.000000e+000
2.395063e+003,0.000000e+000
2.396028e+003,0.000000e+000
2.396992e+003,0.000000e+000
2.397956e+003,0.000000e+000
2.398920e+003,0.000000e+000
2.399885e+003,0.000000e+000
2.400849e+003,0.000000e+000
2.401813e+003,0.000000e+000
2.402777e+003,0.000000e+000
2.403741e+003,0.000000e+000
2.404706e+003,0.000000e+000
2.405670e+003,0.000000e+000
2.406634e+003,0.000000e+000
2.407598e+003,0.000000e+000
2.408563e+003,0.000000e+000
2.409527e+003,0.000000e+000
2.410491e+003,0.000000e+000
2.411455e+003,0.000000e+000
2.412420e+003,0.000000e+000
2.413384e+003,0.000000e+000
2.414348e+003,0.000000e+000
2.415312e+003,0.000000e+000
2.416277e+003,0.000000e+000
2.417241e+003,0.000000e+000
2.418205e+003,0.000000e+000
2.419169e+003,0.000000e+000
2.420134e+003,0.000000e+000
2.421098e+003,0.000000e+000
2.422062e+003,0.000000e+000
2.423026e+003,0.000000e+000
2.423990e+003,0.000000e+000
2.424955e+003,0.000000e+000
2.425919e+003,0.000000e+000
2.426883e+003,0.000000e+000
2.427847e+003,0.000000e+000
2.428812e+003,0.000000e+000
2.429776e+003,0.000000e+000
2.430740e+003,0.000000e+000
2.431704e+003,0.000000e+000
2.432668e+003,0.000000e+000
2.433633e+003,0.000000e+000
2.434597e+003,0.000000e+000
2.435561e+003,0.000000e+000
2.436525e+003,0.000000e+000
2.437490e+003,0.000000e+000
2.438454e+003,0.000000e+000
2.439418e+003,0.000000e+000
2.440382e+003,0.000000e+000
2.441347e+003,0.000000e+000
2.442311e+003,0.000000e+000
2.443275e+003,0.000000e+000
2.444239e+003,0.000000e+000
2.445204e+003,0.000000e+000
2.446168e+003,0.000000e+000
2.447132e+003,0.000000e+000
2.448096e+003,0.000000e+000
2.449061e+003,0.000000e+000
2.450025e+003,0.000000e+000
2.450989e+003,0.000000e+000
2.451953e+003,0.000000e+000
2.452917e+003,0.000000e+000
2.453882e+003,0.000000e+000
2.454846e+003,0.000000e+000
2.455810e+003,0.000000e+000
2.456774e+003,0.000000e+000
2.457739e+003,0.000000e+000
2.458703e+003,0.000000e+000
2.459667e+003,0.000000e+000
2.460631e+003,0.000000e+000
2.461595e+003,0.000000e+000
2.462560e+003,0.000000e+000
2.463524e+003,0.000000e+000
2.464488e+003,0.000000e+000
2.465452e+003,0.000000e+000
2.466417e+003,0.000000e+000
2.467381e+003,0.000000e+000
2.468345e+003,0.000000e+000
2.469309e+003,0.000000e+000
2.470274e+003,0.000000e+000
2.471238e+003,0.000000e+000
2.472202e+003,0.000000e+000
2.473166e+003,0.000000e+000
2.474131e+003,0.000000e+000
2.475095e+003,0.000000e+000
2.476059e+003,0.000000e+000
2.477023e+003,0.000000e+000
2.477988e+003,0.000000e+000
2.478952e+003,0.000000e+000
2.479916e+003,0.000000e+000
2.480880e+003,0.000000e+000
2.481844e+003,0.000000e+000
2.482809e+003,0.000000e+000
2.483773e+003,0.000000e+000
2.484737e+003,0.000000e+000
2.485701e+003,0.000000e+000
2.486666e+003,0.000000e+000
2.487630e+003,0.000000e+000
2.488594e+003,0.000000e+000
2.489558e+003,0.000000e+000
2.490522e+003,0.000000e+000
2.491487e+003,0.000000e+000
2.492451e+003,0.000000e+000
2.493415e+003,0.000000e+000
2.494379e+003,0.000000e+000
2.495344e+003,0.000000e+000
2.496308e+003,0.000000e+000
2.497272e+003,0.000000e+000
2.498236e+003,0.000000e+000
2.499201e+003,0.000000e+000
2.500165e+003,0.000000e+000
2.501129e+003,0.000000e+000
2.502093e+003,0.000000e+000
2.503058e+003,0.000000e+000
2.504022e+003,0.000000e+000
2.504986e+003,0.000000e+000
2.505950e+003,0.000000e+000
2.506915e+003,0.000000e+000
2.507879e+003,0.000000e+000
2.508843e+003,0.000000e+000
2.509807e+003,0.000000e+000
2.510771e+003,0.000000e+000
2.511736e+003,0.000000e+000
2.512700e+003,0.000000e+000
2.513664e+003,0.000000e+000
2.514628e+003,0.000000e+000
2.515593e+003,0.000000e+000
2.516557e+003,0.000000e+000
2.517521e+003,0.000000e+000
2.518485e+003,0.000000e+000
2.519449e+003,0.000000e+000
2.520414e+003,0.000000e+000
2.521378e+003,0.000000e+000
2.522342e+003,0.000000e+000
2.523306e+003,0.000000e+000
2.524271e+003,0.000000e+000
2.525235e+003,0.000000e+000
2.526199e+003,0.000000e+000
2.527163e+003,0.000000e+000
2.528128e+003,0.000000e+000
2.529092e+003,0.000000e+000
2.530056e+003,0.000000e+000
2.531020e+003,0.000000e+000
2.531985e+003,0.000000e+000
2.532949e+003,0.000000e+000
2.533913e+003,0.000000e+000
2.534877e+003,0.000000e+000
2.535842e+003,0.000000e+000
2.536806e+003,0.000000e+000
2.537770e+003,0.000000e+000
2.538734e+003,0.000000e+000
2.539698e+003,0.000000e+000
2.540663e+003,0.000000e+000
2.541627e+003,0.000000e+000
2.542591e+003,0.000000e+000
2.543555e+003,0.000000e+000
2.544520e+003,0.000000e+000
2.545484e+003,0.000000e+000
2.546448e+003,0.000000e+000
2.547412e+003,0.000000e+000
2.548376e+003,0.000000e+000
2.549341e+003,0.000000e+000
2.550305e+003,0.000000e+000
2.551269e+003,0.000000e+000
2.552233e+003,0.000000e+000
2.553198e+003,0.000000e+000
2.554162e+003,0.000000e+000
2.555126e+003,0.000000e+000
2.556090e+003,0.000000e+000
2.557055e+003,0.000000e+000
2.558019e+003,0.000000e+000
2.558983e+003,0.000000e+000
2.559947e+003,0.000000e+000
2.560912e+003,0.000000e+000
2.561876e+003,0.000000e+000
2.562840e+003,0.000000e+000
2.563804e+003,0.000000e+000
2.564769e+003,0.000000e+000
2.565733e+003,0.000000e+000
2.566697e+003,0.000000e+000
2.567661e+003,0.000000e+000
2.568625e+003,0.000000e+000
2.569590e+003,0.000000e+000
2.570554e+003,0.000000e+000
2.571518e+003,0.000000e+000
2.572482e+003,0.000000e+000
2.573447e+003,0.000000e+000
2.574411e+003,0.000000e+000
2.575375e+003,0.000000e+000
2.576339e+003,0.000000e+000
2.577303e+003,0.000000e+000
2.578268e+003,0.000000e+000
2.579232e+003,0.000000e+000
2.580196e+003,0.000000e+000
2.581160e+003,0.000000e+000
2.582125e+003,0.000000e+000
2.583089e+003,0.000000e+000
2.584053e+003,0.000000e+000
2.585017e+003,0.000000e+000
2.585982e+003,0.000000e+000
2.586946e+003,0.000000e+000
2.587910e+003,0.000000e+000
2.588874e+003,0.000000e+000
2.589839e+003,0.000000e+000
2.590803e+003,0.000000e+000
2.591767e+003,0.000000e+000
2.592731e+003,0.000000e+000
2.593696e+003,0.000000e+000
2.594660e+003,0.000000e+000
2.595624e+003,0.000000e+000
2.596588e+003,0.000000e+000
2.597552e+003,0.000000e+000
2.598517e+003,0.000000e+000
2.599481e+003,0.000000e+000
2.600445e+003,0.000000e+000
2.601409e+003,0.000000e+000
2.602374e+003,0.000000e+000
2.603338e+003,0.000000e+000
2.604302e+003,0.000000e+000
2.605266e+003,0.000000e+000
2.606230e+003,0.000000e+000
2.607195e+003,0.000000e+000
2.608159e+003,0.000000e+000
2.609123e+003,0.000000e+000
2.610087e+003,0.000000e+000
2.611052e+003,0.000000e+000
2.612016e+003,0.000000e+000
2.612980e+003,0.000000e+000
2.613944e+003,0.000000e+000
2.614909e+003,0.000000e+000
2.615873e+003,0.000000e+000
2.616837e+003,0.000000e+000
2.617801e+003,0.000000e+000
2.618766e+003,0.000000e+000
2.619730e+003,0.000000e+000
2.620694e+003,0.000000e+000
2.621658e+003,0.000000e+000
2.622623e+003,0.000000e+000
2.623587e+003,0.000000e+000
2.624551e+003,0.000000e+000
2.625515e+003,0.000000e+000
2.626479e+003,0.000000e+000
2.627444e+003,0.000000e+000
2.628408e+003,0.000000e+000
2.629372e+003,0.000000e+000
2.630336e+003,0.000000e+000
2.631301e+003,0.000000e+000
2.632265e+003,0.000000e+000
2.633229e+003,0.000000e+000
2.634193e+003,0.000000e+000
2.635157e+003,0.000000e+000
2.636122e+003,0.000000e+000
2.637086e+003,0.000000e+000
2.638050e+003,0.000000e+000
2.639014e+003,0.000000e+000
2.639979e+003,0.000000e+000
2.640943e+003,0.000000e+000
2.641907e+003,0.000000e+000
2.642871e+003,0.000000e+000
2.643836e+003,0.000000e+000
2.644800e+003,0.000000e+000
2.645764e+003,0.000000e+000
2.646728e+003,0.000000e+000
2.647693e+003,0.000000e+000
2.648657e+003,0.000000e+000
2.649621e+003,0.000000e+000
2.650585e+003,0.000000e+000
2.651550e+003,0.000000e+000
2.652514e+003,0.000000e+000
2.653478e+003,0.000000e+000
2.654442e+003,0.000000e+000
2.655406e+003,0.000000e+000
2.656371e+003,0.000000e+000
2.657335e+003,0.000000e+000
2.658299e+003,0.000000e+000
2.659263e+003,0.000000e+000
2.660228e+003,0.000000e+000
2.661192e+003,0.000000e+000
2.662156e+003,0.000000e+000
2.663120e+003,0.000000e+000
2.664084e+003,0.000000e+000
2.665049e+003,0.000000e+000
2.666013e+003,0.000000e+000
2.666977e+003,0.000000e+000
2.667941e+003,0.000000e+000
2.668906e+003,0.000000e+000
2.669870e+003,0.000000e+000
2.670834e+003,0.000000e+000
2.671798e+003,0.000000e+000
2.672763e+003,0.000000e+000
2.673727e+003,0.000000e+000
2.674691e+003,0.000000e+000
2.675655e+003,0.000000e+000
2.676620e+003,0.000000e+000
2.677584e+003,0.000000e+000
2.678548e+003,0.000000e+000
2.679512e+003,0.000000e+000
2.680477e+003,0.000000e+000
2.681441e+003,0.000000e+000
2.682405e+003,0.000000e+000
2.683369e+003,0.000000e+000
2.684333e+003,0.000000e+000
2.685298e+003,0.000000e+000
2.686262e+003,0.000000e+000
2.687226e+003,0.000000e+000
2.688190e+003,0.000000e+000
2.689155e+003,0.000000e+000
2.690119e+003,0.000000e+000
2.691083e+003,0.000000e+000
2.692047e+003,0.000000e+000
2.693011e+003,0.000000e+000
2.693976e+003,0.000000e+000
2.694940e+003,0.000000e+000
2.695904e+003,0.000000e+000
2.696868e+003,0.000000e+000
2.697833e+003,0.000000e+000
2.698797e+003,0.000000e+000
2.699761e+003,0.000000e+000
2.700725e+003,0.000000e+000
2.701690e+003,0.000000e+000
2.702654e+003,0.000000e+000
2.703618e+003,0.000000e+000
2.704582e+003,0.000000e+000
2.705547e+003,0.000000e+000
2.706511e+003,0.000000e+000
2.707475e+003,0.000000e+000
2.708439e+003,0.000000e+000
2.709404e+003,0.000000e+000
2.710368e+003,0.000000e+000
2.711332e+003,0.000000e+000
2.712296e+003,0.000000e+000
2.713260e+003,0.000000e+000
2.714225e+003,0.000000e+000
2.715189e+003,0.000000e+000
2.716153e+003,0.000000e+000
2.717117e+003,0.000000e+000
2.718082e+003,0.000000e+000
2.719046e+003,0.000000e+000
2.720010e+003,0.000000e+000
2.720974e+003,0.000000e+000
2.721938e+003,0.000000e+000
2.722903e+003,0.000000e+000
2.723867e+003,0.000000e+000
2.724831e+003,0.000000e+000
2.725795e+003,0.000000e+000
2.726760e+003,0.000000e+000
2.727724e+003,0.000000e+000
2.728688e+003,0.000000e+000
2.729652e+003,0.000000e+000
2.730617e+003,0.000000e+000
2.731581e+003,0.000000e+000
2.732545e+003,0.000000e+000
2.733509e+003,0.000000e+000
2.734474e+003,0.000000e+000
2.735438e+003,0.000000e+000
2.736402e+003,0.000000e+000
2.737366e+003,0.000000e+000
2.738331e+003,0.000000e+000
2.739295e+003,0.000000e+000
2.740259e+003,0.000000e+000
2.741223e+003,0.000000e+000
2.742188e+003,0.000000e+000
2.743152e+003,0.000000e+000
2.744116e+003,0.000000e+000
2.745080e+003,0.000000e+000
2.746044e+003,0.000000e+000
2.747009e+003,0.000000e+000
2.747973e+003,0.000000e+000
2.748937e+003,0.000000e+000
2.749901e+003,0.000000e+000
2.750865e+003,0.000000e+000
2.751830e+003,0.000000e+000
2.752794e+003,0.000000e+000
2.753758e+003,0.000000e+000
2.754722e+003,0.000000e+000
2.755687e+003,0.000000e+000
2.756651e+003,0.000000e+000
2.757615e+003,0.000000e+000
2.758579e+003,0.000000e+000
2.759544e+003,0.000000e+000
2.760508e+003,0.000000e+000
2.761472e+003,0.000000e+000
2.762436e+003,0.000000e+000
2.763401e+003,0.000000e+000
2.764365e+003,0.000000e+000
2.765329e+003,0.000000e+000
2.766293e+003,0.000000e+000
2.767258e+003,0.000000e+000
2.768222e+003,0.000000e+000
2.769186e+003,0.000000e+000
2.770150e+003,0.000000e+000
2.771115e+003,0.000000e+000
2.772079e+003,0.000000e+000
2.773043e+003,0.000000e+000
2.774007e+003,0.000000e+000
2.774971e+003,0.000000e+000
2.775936e+003,0.000000e+000
2.776900e+003,0.000000e+000
2.777864e+003,0.000000e+000
2.778828e+003,0.000000e+000
2.779792e+003,0.000000e+000
2.780757e+003,0.000000e+000
2.781721e+003,0.000000e+000
2.782685e+003,0.000000e+000
2.783649e+003,0.000000e+000
2.784614e+003,0.000000e+000
2.785578e+003,0.000000e+000
2.786542e+003,0.000000e+000
2.787506e+003,0.000000e+000
2.788471e+003,0.000000e+000
2.789435e+003,0.000000e+000
2.790399e+003,0.000000e+000
2.791363e+003,0.000000e+000
2.792328e+003,0.000000e+000
2.793292e+003,0.000000e+000
2.794256e+003,0.000000e+000
2.795220e+003,0.000000e+000
2.796185e+003,0.000000e+000
2.797149e+003,0.000000e+000
2.798113e+003,0.000000e+000
2.799077e+003,0.000000e+000
2.800042e+003,0.000000e+000
2.801006e+003,0.000000e+000
2.801970e+003,0.000000e+000
2.802934e+003,0.000000e+000
2.803898e+003,0.000000e+000
2.804863e+003,0.000000e+000
2.805827e+003,0.000000e+000
2.806791e+003,0.000000e+000
2.807755e+003,0.000000e+000
2.808719e+003,0.000000e+000
2.809684e+003,0.000000e+000
2.810648e+003,0.000000e+000
2.811612e+003,0.000000e+000
2.812576e+003,0.000000e+000
2.813541e+003,0.000000e+000
2.814505e+003,0.000000e+000
2.815469e+003,0.000000e+000
2.816433e+003,0.000000e+000
2.817398e+003,0.000000e+000
2.818362e+003,0.000000e+000
2.819326e+003,0.000000e+000
2.820290e+003,0.000000e+000
2.821255e+003,0.000000e+000
2.822219e+003,0.000000e+000
2.823183e+003,0.000000e+000
2.824147e+003,0.000000e+000
2.825112e+003,0.000000e+000
2.826076e+003,0.000000e+000
2.827040e+003,0.000000e+000
2.828004e+003,0.000000e+000
2.828969e+003,0.000000e+000
2.829933e+003,0.000000e+000
2.830897e+003,0.000000e+000
2.831861e+003,0.000000e+000
2.832825e+003,0.000000e+000
2.833790e+003,0.000000e+000
2.834754e+003,0.000000e+000
2.835718e+003,0.000000e+000
2.836682e+003,0.000000e+000
2.837646e+003,0.000000e+000
2.838611e+003,0.000000e+000
2.839575e+003,0.000000e+000
2.840539e+003,0.000000e+000
2.841503e+003,0.000000e+000
2.842468e+003,0.000000e+000
2.843432e+003,0.000000e+000
2.844396e+003,0.000000e+000
2.845360e+003,0.000000e+000
2.846325e+003,0.000000e+000
2.847289e+003,0.000000e+000
2.848253e+003,0.000000e+000
2.849217e+003,0.000000e+000
2.850182e+003,0.000000e+000
2.851146e+003,0.000000e+000
2.852110e+003,0.000000e+000
2.853074e+003,0.000000e+000
2.854039e+003,0.000000e+000
2.855003e+003,0.000000e+000
2.855967e+003,0.000000e+000
2.856931e+003,0.000000e+000
2.857896e+003,0.000000e+000
2.858860e+003,0.000000e+000
2.859824e+003,0.000000e+000
2.860788e+003,0.000000e+000
2.861752e+003,0.000000e+000
2.862717e+003,0.000000e+000
2.863681e+003,0.000000e+000
2.864645e+003,0.000000e+000
2.865609e+003,0.000000e+000
2.866573e+003,0.000000e+000
2.867538e+003,0.000000e+000
2.868502e+003,0.000000e+000
2.869466e+003,0.000000e+000
2.870430e+003,0.000000e+000
2.871395e+003,0.000000e+000
2.872359e+003,0.000000e+000
2.873323e+003,0.000000e+000
2.874287e+003,0.000000e+000
2.875252e+003,0.000000e+000
2.876216e+003,0.000000e+000
2.877180e+003,0.000000e+000
2.878144e+003,0.000000e+000
2.879109e+003,0.000000e+000
2.880073e+003,0.000000e+000
2.881037e+003,0.000000e+000
2.882001e+003,0.000000e+000
2.882966e+003,0.000000e+000
2.883930e+003,0.000000e+000
2.884894e+003,0.000000e+000
2.885858e+003,0.000000e+000
2.886823e+003,0.000000e+000
2.887787e+003,0.000000e+000
2.888751e+003,0.000000e+000
2.889715e+003,0.000000e+000
2.890679e+003,0.000000e+000
2.891644e+003,0.000000e+000
2.892608e+003,0.000000e+000
2.893572e+003,0.000000e+000
2.894536e+003,0.000000e+000
2.895500e+003,0.000000e+000
2.896465e+003,0.000000e+000
2.897429e+003,0.000000e+000
2.898393e+003,0.000000e+000
2.899357e+003,0.000000e+000
2.900322e+003,0.000000e+000
2.901286e+003,0.000000e+000
2.902250e+003,0.000000e+000
2.903214e+003,0.000000e+000
2.904179e+003,0.000000e+000
2.905143e+003,0.000000e+000
2.906107e+003,0.000000e+000
2.907071e+003,0.000000e+000
2.908036e+003,0.000000e+000
2.909000e+003,0.000000e+000
2.909964e+003,0.000000e+000
2.910928e+003,0.000000e+000
2.911893e+003,0.000000e+000
2.912857e+003,0.000000e+000
2.913821e+003,0.000000e+000
2.914785e+003,0.000000e+000
2.915750e+003,0.000000e+000
2.916714e+003,0.000000e+000
2.917678e+003,0.000000e+000
2.918642e+003,0.000000e+000
2.919606e+003,0.000000e+000
2.920571e+003,0.000000e+000
2.921535e+003,0.000000e+000
2.922499e+003,0.000000e+000
2.923463e+003,0.000000e+000
2.924427e+003,0.000000e+000
2.925392e+003,0.000000e+000
2.926356e+003,0.000000e+000
2.927320e+003,0.000000e+000
2.928284e+003,0.000000e+000
2.929249e+003,0.000000e+000
2.930213e+003,0.000000e+000
2.931177e+003,0.000000e+000
2.932141e+003,0.000000e+000
2.933106e+003,0.000000e+000
2.934070e+003,0.000000e+000
2.935034e+003,0.000000e+000
2.935998e+003,0.000000e+000
2.936963e+003,0.000000e+000
2.937927e+003,0.000000e+000
2.938891e+003,0.000000e+000
2.939855e+003,0.000000e+000
2.940820e+003,0.000000e+000
2.941784e+003,0.000000e+000
2.942748e+003,0.000000e+000
2.943712e+003,0.000000e+000
2.944677e+003,0.000000e+000
2.945641e+003,0.000000e+000
2.946605e+003,0.000000e+000
2.947569e+003,0.000000e+000
2.948533e+003,0.000000e+000
2.949498e+003,0.000000e+000
2.950462e+003,0.000000e+000
2.951426e+003,0.000000e+000
2.952390e+003,0.000000e+000
2.953354e+003,0.000000e+000
2.954319e+003,0.000000e+000
2.955283e+003,0.000000e+000
2.956247e+003,0.000000e+000
2.957211e+003,0.000000e+000
2.958176e+003,0.000000e+000
2.959140e+003,0.000000e+000
2.960104e+003,0.000000e+000
2.961068e+003,0.000000e+000
2.962033e+003,0.000000e+000
2.962997e+003,0.000000e+000
2.963961e+003,0.000000e+000
2.964925e+003,0.000000e+000
2.965890e+003,0.000000e+000
2.966854e+003,0.000000e+000
2.967818e+003,0.000000e+000
2.968782e+003,0.000000e+000
2.969747e+003,0.000000e+000
2.970711e+003,0.000000e+000
2.971675e+003,0.000000e+000
2.972639e+003,0.000000e+000
2.973604e+003,0.000000e+000
2.974568e+003,0.000000e+000
2.975532e+003,0.000000e+000
2.976496e+003,0.000000e+000
2.977460e+003,0.000000e+000
2.978425e+003,0.000000e+000
2.979389e+003,0.000000e+000
2.980353e+003,0.000000e+000
2.981317e+003,0.000000e+000
2.982281e+003,0.000000e+000
2.983246e+003,0.000000e+000
2.984210e+003,0.000000e+000
2.985174e+003,0.000000e+000
2.986138e+003,0.000000e+000
2.987103e+003,0.000000e+000
2.988067e+003,0.000000e+000
2.989031e+003,0.000000e+000
2.989995e+003,0.000000e+000
2.990960e+003,0.000000e+000
2.991924e+003,0.000000e+000
2.992888e+003,0.000000e+000
2.993852e+003,0.000000e+000
2.994817e+003,0.000000e+000
2.995781e+003,0.000000e+000
2.996745e+003,0.000000e+000
2.997709e+003,0.000000e+000
2.998674e+003,0.000000e+000
2.999638e+003,0.000000e+000
3.000602e+003,0.000000e+000
3.001566e+003,0.000000e+000
3.002531e+003,0.000000e+000
3.003495e+003,0.000000e+000
3.004459e+003,0.000000e+000
3.005423e+003,0.000000e+000
3.006387e+003,0.000000e+000
3.007352e+003,0.000000e+000
3.008316e+003,0.000000e+000
3.009280e+003,0.000000e+000
3.010244e+003,0.000000e+000
3.011208e+003,0.000000e+000
3.012173e+003,0.000000e+000
3.013137e+003,0.000000e+000
3.014101e+003,0.000000e+000
3.015065e+003,0.000000e+000
3.016030e+003,0.000000e+000
3.016994e+003,0.000000e+000
3.017958e+003,0.000000e+000
3.018922e+003,0.000000e+000
3.019887e+003,0.000000e+000
3.020851e+003,0.000000e+000
3.021815e+003,0.000000e+000
3.022779e+003,0.000000e+000
3.023744e+003,0.000000e+000
3.024708e+003,0.000000e+000
3.025672e+003,0.000000e+000
3.026636e+003,0.000000e+000
3.027601e+003,0.000000e+000
3.028565e+003,0.000000e+000
3.029529e+003,0.000000e+000
3.030493e+003,0.000000e+000
3.031458e+003,0.000000e+000
3.032422e+003,0.000000e+000
3.033386e+003,0.000000e+000
3.034350e+003,0.000000e+000
3.035314e+003,0.000000e+000
3.036279e+003,0.000000e+000
3.037243e+003,0.000000e+000
3.038207e+003,0.000000e+000
3.039171e+003,0.000000e+000
3.040135e+003,0.000000e+000
3.041100e+003,0.000000e+000
3.042064e+003,0.000000e+000
3.043028e+003,0.000000e+000
3.043992e+003,0.000000e+000
3.044957e+003,0.000000e+000
3.045921e+003,0.000000e+000
3.046885e+003,0.000000e+000
3.047849e+003,0.000000e+000
3.048814e+003,0.000000e+000
3.049778e+003,0.000000e+000
3.050742e+003,0.000000e+000
3.051706e+003,0.000000e+000
3.052671e+003,0.000000e+000
3.053635e+003,0.000000e+000
3.054599e+003,0.000000e+000
3.055563e+003,0.000000e+000
3.056528e+003,0.000000e+000
3.057492e+003,0.000000e+000
3.058456e+003,0.000000e+000
3.059420e+003,0.000000e+000
3.060385e+003,0.000000e+000
3.061349e+003,0.000000e+000
3.062313e+003,0.000000e+000
3.063277e+003,0.000000e+000
3.064241e+003,0.000000e+000
3.065206e+003,0.000000e+000
3.066170e+003,0.000000e+000
3.067134e+003,0.000000e+000
3.068098e+003,0.000000e+000
3.069063e+003,0.000000e+000
3.070027e+003,0.000000e+000
3.070991e+003,0.000000e+000
3.071955e+003,0.000000e+000
3.072920e+003,0.000000e+000
3.073884e+003,0.000000e+000
3.074848e+003,0.000000e+000
3.075812e+003,0.000000e+000
3.076777e+003,0.000000e+000
3.077741e+003,0.000000e+000
3.078705e+003,0.000000e+000
3.079669e+003,0.000000e+000
3.080634e+003,0.000000e+000
3.081598e+003,0.000000e+000
3.082562e+003,0.000000e+000
3.083526e+003,0.000000e+000
3.084490e+003,0.000000e+000
3.085455e+003,0.000000e+000
3.086419e+003,0.000000e+000
3.087383e+003,0.000000e+000
3.088347e+003,0.000000e+000
3.089312e+003,0.000000e+000
3.090276e+003,0.000000e+000
3.091240e+003,0.000000e+000
3.092204e+003,0.000000e+000
3.093168e+003,0.000000e+000
3.094133e+003,0.000000e+000
3.095097e+003,0.000000e+000
3.096061e+003,0.000000e+000
3.097025e+003,0.000000e+000
3.097990e+003,0.000000e+000
3.098954e+003,0.000000e+000
3.099918e+003,0.000000e+000
3.100882e+003,0.000000e+000
3.101847e+003,0.000000e+000
3.102811e+003,0.000000e+000
3.103775e+003,0.000000e+000
3.104739e+003,0.000000e+000
3.105704e+003,0.000000e+000
3.106668e+003,0.000000e+000
3.107632e+003,0.000000e+000
3.108596e+003,0.000000e+000
3.109561e+003,0.000000e+000
3.110525e+003,0.000000e+000
3.111489e+003,0.000000e+000
3.112453e+003,0.000000e+000
3.113417e+003,0.000000e+000
3.114382e+003,0.000000e+000
3.115346e+003,0.000000e+000
3.116310e+003,0.000000e+000
3.117274e+003,0.000000e+000
3.118239e+003,0.000000e+000
3.119203e+003,0.000000e+000
3.120167e+003,0.000000e+000
3.121131e+003,0.000000e+000
3.122095e+003,0.000000e+000
3.123060e+003,0.000000e+000
3.124024e+003,0.000000e+000
3.124988e+003,0.000000e+000
3.125952e+003,0.000000e+000
3.126917e+003,0.000000e+000
3.127881e+003,0.000000e+000
3.128845e+003,0.000000e+000
3.129809e+003,0.000000e+000
3.130774e+003,0.000000e+000
3.131738e+003,0.000000e+000
3.132702e+003,0.000000e+000
3.133666e+003,0.000000e+000
3.134631e+003,0.000000e+000
3.135595e+003,0.000000e+000
3.136559e+003,0.000000e+000
3.137523e+003,0.000000e+000
3.138488e+003,0.000000e+000
3.139452e+003,0.000000e+000
3.140416e+003,0.000000e+000
3.141380e+003,0.000000e+000
3.142344e+003,0.000000e+000
3.143309e+003,0.000000e+000
3.144273e+003,0.000000e+000
3.145237e+003,0.000000e+000
3.146201e+003,0.000000e+000
3.147166e+003,0.000000e+000
3.148130e+003,0.000000e+000
3.149094e+003,0.000000e+000
3.150058e+003,0.000000e+000
3.151022e+003,0.000000e+000
3.151987e+003,0.000000e+000
3.152951e+003,0.000000e+000
3.153915e+003,0.000000e+000
3.154879e+003,0.000000e+000
3.155844e+003,0.000000e+000
3.156808e+003,0.000000e+000
3.157772e+003,0.000000e+000
3.158736e+003,0.000000e+000
3.159701e+003,0.000000e+000
3.160665e+003,0.000000e+000
3.161629e+003,0.000000e+000
3.162593e+003,0.000000e+000
3.163558e+003,0.000000e+000
3.164522e+003,0.000000e+000
3.165486e+003,0.000000e+000
3.166450e+003,0.000000e+000
3.167415e+003,0.000000e+000
3.168379e+003,0.000000e+000
3.169343e+003,0.000000e+000
3.170307e+003,0.000000e+000
3.171271e+003,0.000000e+000
3.172236e+003,0.000000e+000
3.173200e+003,0.000000e+000
3.174164e+003,0.000000e+000
3.175128e+003,0.000000e+000
3.176093e+003,0.000000e+000
3.177057e+003,0.000000e+000
3.178021e+003,0.000000e+000
3.178985e+003,0.000000e+000
3.179949e+003,0.000000e+000
3.180914e+003,0.000000e+000
3.181878e+003,0.000000e+000
3.182842e+003,0.000000e+000
3.183806e+003,0.000000e+000
3.184771e+003,0.000000e+000
3.185735e+003,0.000000e+000
3.186699e+003,0.000000e+000
3.187663e+003,0.000000e+000
3.188628e+003,0.000000e+000
3.189592e+003,0.000000e+000
3.190556e+003,0.000000e+000
3.191520e+003,0.000000e+000
3.192485e+003,0.000000e+000
3.193449e+003,0.000000e+000
3.194413e+003,0.000000e+000
3.195377e+003,0.000000e+000
3.196342e+003,0.000000e+000
3.197306e+003,0.000000e+000
3.198270e+003,0.000000e+000
3.199234e+003,0.000000e+000
3.200198e+003,0.000000e+000
3.201163e+003,0.000000e+000
3.202127e+003,0.000000e+000
3.203091e+003,0.000000e+000
3.204055e+003,0.000000e+000
3.205020e+003,0.000000e+000
3.205984e+003,0.000000e+000
3.206948e+003,0.000000e+000
3.207912e+003,0.000000e+000
3.208876e+003,0.000000e+000
3.209841e+003,0.000000e+000
3.210805e+003,0.000000e+000
3.211769e+003,0.000000e+000
3.212733e+003,0.000000e+000
3.213698e+003,0.000000e+000
3.214662e+003,0.000000e+000
3.215626e+003,0.000000e+000
3.216590e+003,0.000000e+000
3.217555e+003,0.000000e+000
3.218519e+003,0.000000e+000
3.219483e+003,0.000000e+000
3.220447e+003,0.000000e+000
3.221412e+003,0.000000e+000
3.222376e+003,0.000000e+000
3.223340e+003,0.000000e+000
3.224304e+003,0.000000e+000
3.225269e+003,0.000000e+000
3.226233e+003,0.000000e+000
3.227197e+003,0.000000e+000
3.228161e+003,0.000000e+000
3.229125e+003,0.000000e+000
3.230090e+003,0.000000e+000
3.231054e+003,0.000000e+000
3.232018e+003,0.000000e+000
3.232982e+003,0.000000e+000
3.233947e+003,0.000000e+000
3.234911e+003,0.000000e+000
3.235875e+003,0.000000e+000
3.236839e+003,0.000000e+000
3.237803e+003,0.000000e+000
3.238768e+003,0.000000e+000
3.239732e+003,0.000000e+000
3.240696e+003,0.000000e+000
3.241660e+003,0.000000e+000
3.242625e+003,0.000000e+000
3.243589e+003,0.000000e+000
3.244553e+003,0.000000e+000
3.245517e+003,0.000000e+000
3.246482e+003,0.000000e+000
3.247446e+003,0.000000e+000
3.248410e+003,0.000000e+000
3.249374e+003,0.000000e+000
3.250339e+003,0.000000e+000
3.251303e+003,0.000000e+000
3.252267e+003,0.000000e+000
3.253231e+003,0.000000e+000
3.254196e+003,0.000000e+000
3.255160e+003,0.000000e+000
3.256124e+003,0.000000e+000
3.257088e+003,0.000000e+000
3.258052e+003,0.000000e+000
3.259017e+003,0.000000e+000
3.259981e+003,0.000000e+000
3.260945e+003,0.000000e+000
3.261909e+003,0.000000e+000
3.262874e+003,0.000000e+000
3.263838e+003,0.000000e+000
3.264802e+003,0.000000e+000
3.265766e+003,0.000000e+000
3.266730e+003,0.000000e+000
3.267695e+003,0.000000e+000
3.268659e+003,0.000000e+000
3.269623e+003,0.000000e+000
3.270587e+003,0.000000e+000
3.271552e+003,0.000000e+000
3.272516e+003,0.000000e+000
3.273480e+003,0.000000e+000
3.274444e+003,0.000000e+000
3.275409e+003,0.000000e+000
3.276373e+003,0.000000e+000
3.277337e+003,0.000000e+000
3.278301e+003,0.000000e+000
3.279266e+003,0.000000e+000
3.280230e+003,0.000000e+000
3.281194e+003,0.000000e+000
3.282158e+003,0.000000e+000
3.283123e+003,0.000000e+000
3.284087e+003,0.000000e+000
3.285051e+003,0.000000e+000
3.286015e+003,0.000000e+000
3.286979e+003,0.000000e+000
3.287944e+003,0.000000e+000
3.288908e+003,0.000000e+000
3.289872e+003,0.000000e+000
3.290836e+003,0.000000e+000
3.291801e+003,0.000000e+000
3.292765e+003,0.000000e+000
3.293729e+003,0.000000e+000
3.294693e+003,0.000000e+000
3.295657e+003,0.000000e+000
3.296622e+003,0.000000e+000
3.297586e+003,0.000000e+000
3.298550e+003,0.000000e+000
3.299514e+003,0.000000e+000
3.300479e+003,0.000000e+000
3.301443e+003,0.000000e+000
3.302407e+003,0.000000e+000
3.303371e+003,0.000000e+000
3.304336e+003,0.000000e+000
3.305300e+003,0.000000e+000
3.306264e+003,0.000000e+000
3.307228e+003,0.000000e+000
3.308193e+003,0.000000e+000
3.309157e+003,0.000000e+000
3.310121e+003,0.000000e+000
3.311085e+003,0.000000e+000
3.312050e+003,0.000000e+000
3.313014e+003,0.000000e+000
3.313978e+003,0.000000e+000
3.314942e+003,0.000000e+000
3.315906e+003,0.000000e+000
3.316871e+003,0.000000e+000
3.317835e+003,0.000000e+000
3.318799e+003,0.000000e+000
3.319763e+003,0.000000e+000
3.320728e+003,0.000000e+000
3.321692e+003,0.000000e+000
3.322656e+003,0.000000e+000
3.323620e+003,0.000000e+000
3.324584e+003,0.000000e+000
3.325549e+003,0.000000e+000
3.326513e+003,0.000000e+000
3.327477e+003,0.000000e+000
3.328441e+003,0.000000e+000
3.329406e+003,0.000000e+000
3.330370e+003,0.000000e+000
3.331334e+003,0.000000e+000
3.332298e+003,0.000000e+000
3.333263e+003,0.000000e+000
3.334227e+003,0.000000e+000
3.335191e+003,0.000000e+000
3.336155e+003,0.000000e+000
3.337120e+003,0.000000e+000
3.338084e+003,0.000000e+000
3.339048e+003,0.000000e+000
3.340012e+003,0.000000e+000
3.340977e+003,0.000000e+000
3.341941e+003,0.000000e+000
3.342905e+003,0.000000e+000
3.343869e+003,0.000000e+000
3.344833e+003,0.000000e+000
3.345798e+003,0.000000e+000
3.346762e+003,0.000000e+000
3.347726e+003,0.000000e+000
3.348690e+003,0.000000e+000
3.349655e+003,0.000000e+000
3.350619e+003,0.000000e+000
3.351583e+003,0.000000e+000
3.352547e+003,0.000000e+000
3.353511e+003,0.000000e+000
3.354476e+003,0.000000e+000
3.355440e+003,0.000000e+000
3.356404e+003,0.000000e+000
3.357368e+003,0.000000e+000
3.358333e+003,0.000000e+000
3.359297e+003,0.000000e+000
3.360261e+003,0.000000e+000
3.361225e+003,0.000000e+000
3.362190e+003,0.000000e+000
3.363154e+003,0.000000e+000
3.364118e+003,0.000000e+000
3.365082e+003,0.000000e+000
3.366047e+003,0.000000e+000
3.367011e+003,0.000000e+000
3.367975e+003,0.000000e+000
3.368939e+003,0.000000e+000
3.369904e+003,0.000000e+000
3.370868e+003,0.000000e+000
3.371832e+003,0.000000e+000
3.372796e+003,0.000000e+000
3.373760e+003,0.000000e+000
3.374725e+003,0.000000e+000
3.375689e+003,0.000000e+000
3.376653e+003,0.000000e+000
3.377617e+003,0.000000e+000
3.378582e+003,0.000000e+000
3.379546e+003,0.000000e+000
3.380510e+003,0.000000e+000
3.381474e+003,0.000000e+000
3.382438e+003,0.000000e+000
3.383403e+003,0.000000e+000
3.384367e+003,0.000000e+000
3.385331e+003,0.000000e+000
3.386295e+003,0.000000e+000
3.387260e+003,0.000000e+000
3.388224e+003,0.000000e+000
3.389188e+003,0.000000e+000
3.390152e+003,0.000000e+000
3.391117e+003,0.000000e+000
3.392081e+003,0.000000e+000
3.393045e+003,0.000000e+000
3.394009e+003,0.000000e+000
3.394974e+003,0.000000e+000
3.395938e+003,0.000000e+000
3.396902e+003,0.000000e+000
3.397866e+003,0.000000e+000
3.398831e+003,0.000000e+000
3.399795e+003,0.000000e+000
3.400759e+003,0.000000e+000
3.401723e+003,0.000000e+000
3.402688e+003,0.000000e+000
3.403652e+003,0.000000e+000
3.404616e+003,0.000000e+000
3.405580e+003,0.000000e+000
3.406544e+003,0.000000e+000
3.407509e+003,0.000000e+000
3.408473e+003,0.000000e+000
3.409437e+003,0.000000e+000
3.410401e+003,0.000000e+000
3.411365e+003,0.000000e+000
3.412330e+003,0.000000e+000
3.413294e+003,0.000000e+000
3.414258e+003,0.000000e+000
3.415222e+003,0.000000e+000
3.416187e+003,0.000000e+000
3.417151e+003,0.000000e+000
3.418115e+003,0.000000e+000
3.419079e+003,0.000000e+000
3.420044e+003,0.000000e+000
3.421008e+003,0.000000e+000
3.421972e+003,0.000000e+000
3.422936e+003,0.000000e+000
3.423901e+003,0.000000e+000
3.424865e+003,0.000000e+000
3.425829e+003,0.000000e+000
3.426793e+003,0.000000e+000
3.427758e+003,0.000000e+000
3.428722e+003,0.000000e+000
3.429686e+003,0.000000e+000
3.430650e+003,0.000000e+000
3.431615e+003,0.000000e+000
3.432579e+003,0.000000e+000
3.433543e+003,0.000000e+000
3.434507e+003,0.000000e+000
3.435471e+003,0.000000e+000
3.436436e+003,0.000000e+000
3.437400e+003,0.000000e+000
3.438364e+003,0.000000e+000
3.439328e+003,0.000000e+000
3.440292e+003,0.000000e+000
3.441257e+003,0.000000e+000
3.442221e+003,0.000000e+000
3.443185e+003,0.000000e+000
3.444149e+003,0.000000e+000
3.445114e+003,0.000000e+000
3.446078e+003,0.000000e+000
3.447042e+003,0.000000e+000
3.448006e+003,0.000000e+000
3.448971e+003,0.000000e+000
3.449935e+003,0.000000e+000
3.450899e+003,0.000000e+000
3.451863e+003,0.000000e+000
3.452828e+003,0.000000e+000
3.453792e+003,0.000000e+000
3.454756e+003,0.000000e+000
3.455720e+003,0.000000e+000
3.456685e+003,0.000000e+000
3.457649e+003,0.000000e+000
3.458613e+003,0.000000e+000
3.459577e+003,0.000000e+000
3.460542e+003,0.000000e+000
3.461506e+003,0.000000e+000
3.462470e+003,0.000000e+000
3.463434e+003,0.000000e+000
3.464398e+003,0.000000e+000
3.465363e+003,0.000000e+000
3.466327e+003,0.000000e+000
3.467291e+003,0.000000e+000
3.468255e+003,0.000000e+000
3.469219e+003,0.000000e+000
3.470184e+003,0.000000e+000
3.471148e+003,0.000000e+000
3.472112e+003,0.000000e+000
3.473076e+003,0.000000e+000
3.474041e+003,0.000000e+000
3.475005e+003,0.000000e+000
3.475969e+003,0.000000e+000
3.476933e+003,0.000000e+000
3.477898e+003,0.000000e+000
3.478862e+003,0.000000e+000
3.479826e+003,0.000000e+000
3.480790e+003,0.000000e+000
3.481755e+003,0.000000e+000
3.482719e+003,0.000000e+000
3.483683e+003,0.000000e+000
3.484647e+003,0.000000e+000
3.485612e+003,0.000000e+000
3.486576e+003,0.000000e+000
3.487540e+003,0.000000e+000
3.488504e+003,0.000000e+000
3.489469e+003,0.000000e+000
3.490433e+003,0.000000e+000
3.491397e+003,0.000000e+000
3.492361e+003,0.000000e+000
3.493325e+003,0.000000e+000
3.494290e+003,0.000000e+000
3.495254e+003,0.000000e+000
3.496218e+003,0.000000e+000
3.497182e+003,0.000000e+000
3.498146e+003,0.000000e+000
3.499111e+003,0.000000e+000
3.500075e+003,0.000000e+000
