5.003444e+002,4.561572e+001
5.013087e+002,4.491556e+001
5.022729e+002,4.385338e+001
5.032371e+002,4.269525e+001
5.042014e+002,4.166376e+001
5.051656e+002,4.080815e+001
5.061298e+002,4.045050e+001
5.070941e+002,4.100871e+001
5.080583e+002,4.290140e+001
5.090225e+002,4.261778e+001
5.099868e+002,3.810489e+001
5.109510e+002,3.423051e+001
5.119152e+002,3.407849e+001
5.128795e+002,3.804642e+001
5.138437e+002,4.112833e+001
5.148079e+002,4.119873e+001
5.157722e+002,4.051192e+001
5.167364e+002,3.988153e+001
5.177006e+002,3.936908e+001
5.186649e+002,3.836282e+001
5.196291e+002,3.571823e+001
5.205933e+002,3.267950e+001
5.215576e+002,3.019603e+001
5.225218e+002,2.840057e+001
5.234860e+002,2.746298e+001
5.244503e+002,2.788344e+001
5.254145e+002,3.042738e+001
5.263787e+002,3.187920e+001
5.273430e+002,3.175412e+001
5.283072e+002,3.088315e+001
5.292714e+002,3.029146e+001
5.302357e+002,2.984065e+001
5.311999e+002,2.962495e+001
5.321641e+002,3.026274e+001
5.331284e+002,3.095232e+001
5.340926e+002,3.084483e+001
5.350568e+002,2.950064e+001
5.360211e+002,2.807410e+001
5.369853e+002,2.811528e+001
5.379495e+002,2.858067e+001
5.389138e+002,2.833687e+001
5.398780e+002,2.704495e+001
5.408422e+002,2.547108e+001
5.418065e+002,2.630472e+001
5.427707e+002,2.909293e+001
5.437349e+002,3.035448e+001
5.446992e+002,2.870140e+001
5.456634e+002,2.516544e+001
5.466276e+002,2.346040e+001
5.475919e+002,2.619128e+001
5.485561e+002,2.775526e+001
5.495203e+002,2.708470e+001
5.504846e+002,2.531483e+001
5.514488e+002,2.411426e+001
5.524130e+002,2.420578e+001
5.533773e+002,2.483458e+001
5.543415e+002,2.615105e+001
5.553057e+002,2.738795e+001
5.562700e+002,2.767239e+001
5.572342e+002,2.645676e+001
5.581984e+002,2.426907e+001
5.591627e+002,2.208482e+001
5.601269e+002,2.011430e+001
5.610911e+002,1.886540e+001
5.620554e+002,1.861810e+001
5.630196e+002,1.916995e+001
5.639838e+002,1.912079e+001
5.649481e+002,1.805768e+001
5.659123e+002,1.702054e+001
5.668765e+002,1.622563e+001
5.678408e+002,1.574043e+001
5.688050e+002,1.559215e+001
5.697692e+002,1.595949e+001
5.707335e+002,1.603781e+001
5.716977e+002,1.552629e+001
5.726619e+002,1.472119e+001
5.736262e+002,1.399794e+001
5.745904e+002,1.361702e+001
5.755546e+002,1.350809e+001
5.765189e+002,1.347720e+001
5.774831e+002,1.339514e+001
5.784473e+002,1.314711e+001
5.794116e+002,1.270995e+001
5.803758e+002,1.219977e+001
5.813400e+002,1.207243e+001
5.823043e+002,1.199126e+001
5.832685e+002,1.244153e+001
5.842327e+002,1.445293e+001
5.851970e+002,1.766367e+001
5.861612e+002,1.914172e+001
5.871254e+002,1.603442e+001
5.880897e+002,1.360196e+001
5.890539e+002,1.310602e+001
5.900181e+002,1.383075e+001
5.909824e+002,1.456546e+001
5.919466e+002,1.478223e+001
5.929108e+002,1.434004e+001
5.938751e+002,1.296523e+001
5.948393e+002,1.109749e+001
5.958035e+002,9.288849e+000
5.967678e+002,7.968491e+000
5.977320e+002,7.252075e+000
5.986962e+002,8.122025e+000
5.996605e+002,1.047925e+001
6.006247e+002,1.241530e+001
6.015889e+002,1.303667e+001
6.025532e+002,1.242392e+001
6.035174e+002,1.164874e+001
6.044816e+002,1.048785e+001
6.054459e+002,9.436447e+000
6.064101e+002,8.296066e+000
6.073743e+002,7.345169e+000
6.083386e+002,7.134689e+000
6.093028e+002,8.258698e+000
6.102670e+002,9.696228e+000
6.112313e+002,1.090656e+001
6.121955e+002,1.173868e+001
6.131597e+002,1.178198e+001
6.141240e+002,1.078896e+001
6.150882e+002,9.253021e+000
6.160524e+002,9.874664e+000
6.170167e+002,1.231050e+001
6.179809e+002,1.411530e+001
6.189451e+002,1.395261e+001
6.199094e+002,1.204941e+001
6.208736e+002,1.062285e+001
6.218378e+002,9.855118e+000
6.228021e+002,9.724167e+000
6.237663e+002,1.090096e+001
6.247305e+002,1.259085e+001
6.256948e+002,1.333443e+001
6.266590e+002,1.192438e+001
6.276232e+002,1.071936e+001
6.285875e+002,1.152332e+001
6.295517e+002,1.321094e+001
6.305159e+002,1.484772e+001
6.314802e+002,1.581039e+001
6.324444e+002,1.588112e+001
6.334086e+002,1.377567e+001
6.343729e+002,1.035284e+001
6.353371e+002,7.560837e+000
6.363013e+002,6.007370e+000
6.372656e+002,5.567673e+000
6.382298e+002,5.943558e+000
6.391940e+002,8.709839e+000
6.401583e+002,1.005382e+001
6.411225e+002,9.414063e+000
6.420867e+002,7.870148e+000
6.430510e+002,6.509323e+000
6.440152e+002,5.461624e+000
6.449794e+002,4.644135e+000
6.459437e+002,4.215103e+000
6.469079e+002,3.817291e+000
6.478721e+002,2.995117e+000
6.488364e+002,1.729477e+000
6.498006e+002,7.048187e-001
6.507648e+002,1.522949e+000
6.517291e+002,3.384750e+000
6.526933e+002,4.308075e+000
6.536575e+002,3.870804e+000
6.546218e+002,2.818741e+000
6.555860e+002,2.600754e+000
6.565502e+002,3.697266e+000
6.575145e+002,4.682388e+000
6.584787e+002,5.685776e+000
6.594429e+002,6.516296e+000
6.604072e+002,7.139450e+000
6.613714e+002,7.599899e+000
6.623356e+002,7.385040e+000
6.632999e+002,5.022324e+000
6.642641e+002,2.827759e+000
6.652283e+002,2.443985e+000
6.661926e+002,3.754379e+000
6.671568e+002,5.269089e+000
6.681210e+002,5.030701e+000
6.690853e+002,3.726135e+000
6.700495e+002,3.369476e+000
6.710137e+002,3.986130e+000
6.719780e+002,5.148788e+000
6.729422e+002,6.517654e+000
6.739064e+002,8.314224e+000
6.748707e+002,8.464172e+000
6.758349e+002,5.589020e+000
6.767991e+002,3.103317e+000
6.777634e+002,2.924423e+000
6.787276e+002,4.798965e+000
6.796918e+002,6.128845e+000
6.806561e+002,5.355606e+000
6.816203e+002,4.254059e+000
6.825845e+002,2.805511e+000
6.835488e+002,1.659760e+000
6.845130e+002,2.096130e+000
6.854772e+002,5.337967e+000
6.864415e+002,9.429565e+000
6.874057e+002,9.437500e+000
6.883699e+002,6.499100e+000
6.893342e+002,3.527481e+000
6.902984e+002,2.149033e+000
6.912626e+002,2.204575e+000
6.922269e+002,2.311768e+000
6.931911e+002,3.285019e+000
6.941553e+002,3.480118e+000
6.951196e+002,1.625946e+000
6.960838e+002,-9.082642e-001
6.970480e+002,-1.681000e+000
6.980123e+002,6.050568e-001
6.989765e+002,2.839996e+000
6.999407e+002,3.918106e+000
7.009050e+002,4.272980e+000
7.018692e+002,3.925232e+000
7.028334e+002,3.028107e+000
7.037977e+002,2.165543e+000
7.047619e+002,2.580429e+000
7.057261e+002,3.770401e+000
7.066904e+002,4.463776e+000
7.076546e+002,4.450623e+000
7.086188e+002,4.240799e+000
7.095831e+002,4.691513e+000
7.105473e+002,6.241165e+000
7.115115e+002,6.760147e+000
7.124758e+002,5.900513e+000
7.134400e+002,4.536804e+000
7.144042e+002,2.945068e+000
7.153685e+002,1.236694e+000
7.163327e+002,1.179657e-001
7.172969e+002,6.849670e-001
7.182612e+002,1.256241e+000
7.192254e+002,1.000458e+000
7.201896e+002,1.446686e-001
7.211539e+002,-8.406525e-001
7.221181e+002,-1.668518e+000
7.230823e+002,-1.855225e+000
7.240466e+002,3.448181e-001
7.250108e+002,4.377853e+000
7.259750e+002,7.617172e+000
7.269393e+002,8.380371e+000
7.279035e+002,6.829285e+000
7.288677e+002,5.366196e+000
7.298320e+002,3.944885e+000
7.307962e+002,3.194580e+000
7.317604e+002,3.632294e+000
7.327247e+002,4.607910e+000
7.336889e+002,5.096222e+000
7.346531e+002,4.534515e+000
7.356174e+002,3.789276e+000
7.365816e+002,3.597382e+000
7.375458e+002,3.668915e+000
7.385101e+002,3.868561e+000
7.394743e+002,4.091034e+000
7.404385e+002,4.203201e+000
7.414028e+002,3.917038e+000
7.423670e+002,3.067642e+000
7.433312e+002,2.000137e+000
7.442955e+002,8.442383e-001
7.452597e+002,1.426086e-001
7.462239e+002,5.308228e-001
7.471882e+002,2.299545e+000
7.481524e+002,3.683807e+000
7.491166e+002,4.568207e+000
7.500809e+002,4.963959e+000
7.510451e+002,4.623260e+000
7.520093e+002,3.763458e+000
7.529736e+002,3.096970e+000
7.539378e+002,3.184708e+000
7.549020e+002,3.508743e+000
7.558663e+002,3.890350e+000
7.568306e+002,4.171722e+000
7.577948e+002,4.059738e+000
7.587590e+002,3.365967e+000
7.597233e+002,2.248123e+000
7.606875e+002,1.352692e+000
7.616517e+002,7.486267e-001
7.626160e+002,5.077209e-001
7.635802e+002,8.672638e-001
7.645444e+002,1.441956e+000
7.655087e+002,1.195114e+000
7.664729e+002,-1.056747e+000
7.674371e+002,-1.441162e+000
7.684014e+002,1.814606e+000
7.693656e+002,5.220734e+000
7.703298e+002,6.538452e+000
7.712941e+002,5.565613e+000
7.722583e+002,3.920853e+000
7.732225e+002,2.004944e+000
7.741868e+002,6.293640e-001
7.751510e+002,6.542816e-001
7.761152e+002,1.775864e+000
7.770795e+002,3.163269e+000
7.780437e+002,4.069229e+000
7.790079e+002,4.574814e+000
7.799722e+002,6.073837e+000
7.809364e+002,8.846268e+000
7.819006e+002,1.052306e+001
7.828649e+002,9.708481e+000
7.838291e+002,7.213501e+000
7.847933e+002,5.536499e+000
7.857576e+002,4.823929e+000
7.867218e+002,4.600815e+000
7.876860e+002,5.756729e+000
7.886503e+002,6.824799e+000
7.896145e+002,6.284821e+000
7.905787e+002,3.857956e+000
7.915430e+002,1.217514e+000
7.925072e+002,-3.694000e-001
7.934714e+002,-9.384155e-001
7.944357e+002,4.806671e-001
7.953999e+002,3.472794e+000
7.963641e+002,5.840500e+000
7.973284e+002,4.957321e+000
7.982926e+002,5.056000e-001
7.992568e+002,-8.807220e-001
8.002211e+002,1.895752e+000
8.011853e+002,4.405212e+000
8.021495e+002,5.027725e+000
8.031138e+002,4.398468e+000
8.040780e+002,4.310104e+000
8.050422e+002,5.148590e+000
8.060065e+002,6.137985e+000
8.069707e+002,7.085373e+000
8.079349e+002,7.861389e+000
8.088992e+002,8.435883e+000
8.098634e+002,8.832855e+000
8.108276e+002,9.047073e+000
8.117919e+002,8.961243e+000
8.127561e+002,8.389038e+000
8.137203e+002,7.231125e+000
8.146846e+002,5.616089e+000
8.156488e+002,3.991928e+000
8.166130e+002,2.775162e+000
8.175773e+002,1.868820e+000
8.185415e+002,1.805389e+000
8.195057e+002,2.476746e+000
8.204700e+002,3.692123e+000
8.214342e+002,6.459412e+000
8.223984e+002,9.719864e+000
8.233627e+002,1.039685e+001
8.243269e+002,5.812225e+000
8.252911e+002,1.922760e+000
8.262554e+002,2.669952e+000
8.272196e+002,5.358063e+000
8.281838e+002,7.284561e+000
8.291481e+002,7.433151e+000
8.301123e+002,6.869034e+000
8.310765e+002,7.643082e+000
8.320408e+002,9.427673e+000
8.330050e+002,9.033035e+000
8.339692e+002,5.691055e+000
8.349335e+002,2.133728e+000
8.358977e+002,1.548492e+000
8.368619e+002,4.571609e+000
8.378262e+002,6.299591e+000
8.387904e+002,5.222321e+000
8.397546e+002,4.223099e+000
8.407189e+002,3.882858e+000
8.416831e+002,4.150040e+000
8.426473e+002,4.954453e+000
8.436116e+002,6.452988e+000
8.445758e+002,7.755692e+000
8.455400e+002,7.652039e+000
8.465043e+002,6.745239e+000
8.474685e+002,5.538239e+000
8.484327e+002,4.411926e+000
8.493970e+002,3.837265e+000
8.503612e+002,4.482834e+000
8.513254e+002,6.524124e+000
8.522897e+002,8.570450e+000
8.532539e+002,1.118922e+001
8.542181e+002,1.297597e+001
8.551824e+002,1.256448e+001
8.561466e+002,1.044278e+001
8.571108e+002,9.863770e+000
8.580751e+002,1.291344e+001
8.590393e+002,1.509964e+001
8.600035e+002,1.468079e+001
8.609678e+002,1.306165e+001
8.619320e+002,1.177071e+001
8.628962e+002,1.143477e+001
8.638605e+002,1.148448e+001
8.648247e+002,1.092386e+001
8.657889e+002,1.019670e+001
8.667532e+002,1.051073e+001
8.677174e+002,1.201770e+001
8.686816e+002,1.373926e+001
8.696459e+002,1.455048e+001
8.706101e+002,1.434438e+001
8.715743e+002,1.445818e+001
8.725386e+002,1.551479e+001
8.735028e+002,1.610884e+001
8.744670e+002,1.490894e+001
8.754313e+002,1.306578e+001
8.763955e+002,1.315202e+001
8.773597e+002,1.668996e+001
8.783240e+002,2.004788e+001
8.792882e+002,2.010094e+001
8.802524e+002,1.903336e+001
8.812167e+002,1.881117e+001
8.821809e+002,1.973758e+001
8.831451e+002,2.066867e+001
8.841094e+002,2.007288e+001
8.850736e+002,1.814922e+001
8.860378e+002,1.772881e+001
8.870021e+002,1.909563e+001
8.879663e+002,2.045782e+001
8.889305e+002,2.082434e+001
8.898948e+002,2.029720e+001
8.908590e+002,1.948393e+001
8.918232e+002,1.773820e+001
8.927875e+002,1.715468e+001
8.937517e+002,1.884103e+001
8.947159e+002,2.122247e+001
8.956802e+002,2.299779e+001
8.966444e+002,2.379573e+001
8.976086e+002,2.415466e+001
8.985729e+002,2.476071e+001
8.995371e+002,2.531671e+001
9.005013e+002,2.508916e+001
9.014656e+002,2.426210e+001
9.024298e+002,2.349130e+001
9.033940e+002,2.318312e+001
9.043583e+002,2.323444e+001
9.053225e+002,2.354242e+001
9.062867e+002,2.381192e+001
9.072510e+002,2.464447e+001
9.082152e+002,2.765892e+001
9.091794e+002,3.043213e+001
9.101437e+002,2.962076e+001
9.111079e+002,2.462808e+001
9.120721e+002,2.108574e+001
9.130364e+002,2.458862e+001
9.140006e+002,2.837799e+001
9.149648e+002,2.807722e+001
9.159291e+002,2.507867e+001
9.168933e+002,2.295265e+001
9.178575e+002,2.412236e+001
9.188218e+002,2.723640e+001
9.197860e+002,2.763869e+001
9.207502e+002,2.521147e+001
9.217145e+002,2.352943e+001
9.226787e+002,2.386395e+001
9.236429e+002,2.491331e+001
9.246072e+002,2.472816e+001
9.255714e+002,2.292018e+001
9.265356e+002,2.146077e+001
9.274999e+002,2.072514e+001
9.284641e+002,2.022766e+001
9.294283e+002,1.998979e+001
9.303926e+002,1.992114e+001
9.313568e+002,1.983813e+001
9.323210e+002,1.962421e+001
9.332853e+002,1.948050e+001
9.342495e+002,2.000133e+001
9.352137e+002,2.073453e+001
9.361780e+002,2.113893e+001
9.371422e+002,2.117226e+001
9.381064e+002,2.076215e+001
9.390707e+002,1.954262e+001
9.400349e+002,1.705429e+001
9.409991e+002,1.609198e+001
9.419634e+002,1.796359e+001
9.429276e+002,1.940614e+001
9.438918e+002,1.936339e+001
9.448561e+002,1.847354e+001
9.458203e+002,1.787106e+001
9.467845e+002,1.794363e+001
9.477488e+002,1.810156e+001
9.487130e+002,1.783252e+001
9.496772e+002,1.745929e+001
9.506415e+002,1.722185e+001
9.516057e+002,1.713461e+001
9.525699e+002,1.709416e+001
9.535342e+002,1.698705e+001
9.544984e+002,1.675960e+001
9.554626e+002,1.625244e+001
9.564269e+002,1.547865e+001
9.573911e+002,1.513513e+001
9.583553e+002,1.562144e+001
9.593196e+002,1.648309e+001
9.602838e+002,1.692616e+001
9.612480e+002,1.672629e+001
9.622123e+002,1.677533e+001
9.631765e+002,1.795447e+001
9.641407e+002,1.890129e+001
9.651050e+002,1.893845e+001
9.660692e+002,1.814397e+001
9.670334e+002,1.687819e+001
9.679977e+002,1.541928e+001
9.689619e+002,1.392766e+001
9.699261e+002,1.187547e+001
9.708904e+002,9.745377e+000
9.718546e+002,9.965759e+000
9.728188e+002,1.339172e+001
9.737831e+002,1.776865e+001
9.747473e+002,1.988121e+001
9.757115e+002,1.904041e+001
9.766758e+002,1.992857e+001
9.776400e+002,2.594937e+001
9.786042e+002,2.974165e+001
9.795685e+002,2.813547e+001
9.805327e+002,2.373163e+001
9.814969e+002,2.012607e+001
9.824612e+002,1.858873e+001
9.834254e+002,1.761827e+001
9.843896e+002,1.527342e+001
9.853539e+002,1.280869e+001
9.863181e+002,1.173518e+001
9.872823e+002,1.194789e+001
9.882466e+002,1.276997e+001
9.892108e+002,1.380855e+001
9.901750e+002,1.496640e+001
9.911393e+002,1.431607e+001
9.921035e+002,9.025497e+000
9.930677e+002,5.963760e+000
9.940320e+002,6.664185e+000
9.949962e+002,8.921249e+000
9.959604e+002,1.115410e+001
9.969247e+002,1.317209e+001
9.978889e+002,1.456560e+001
9.988531e+002,1.497705e+001
9.998174e+002,1.443784e+001
1.000782e+003,1.198457e+001
1.001746e+003,9.225571e+000
1.002710e+003,8.918793e+000
1.003674e+003,1.192657e+001
1.004639e+003,1.575691e+001
1.005603e+003,1.584962e+001
1.006567e+003,1.172302e+001
1.007531e+003,9.671310e+000
1.008495e+003,1.028700e+001
1.009460e+003,1.164572e+001
1.010424e+003,1.333437e+001
1.011388e+003,1.499522e+001
1.012352e+003,1.479939e+001
1.013317e+003,1.122081e+001
1.014281e+003,8.293213e+000
1.015245e+003,7.241272e+000
1.016209e+003,7.035629e+000
1.017174e+003,6.947327e+000
1.018138e+003,6.970337e+000
1.019102e+003,7.910767e+000
1.020066e+003,1.071758e+001
1.021031e+003,1.407202e+001
1.021995e+003,1.320393e+001
1.022959e+003,8.936539e+000
1.023923e+003,5.536743e+000
1.024887e+003,4.623611e+000
1.025852e+003,4.750290e+000
1.026816e+003,3.359634e+000
1.027780e+003,-1.606445e-001
1.028744e+003,-1.851868e+000
1.029709e+003,2.809601e-001
1.030673e+003,2.214355e+000
1.031637e+003,2.690979e+000
1.032601e+003,2.221329e+000
1.033566e+003,1.619492e+000
1.034530e+003,1.217133e+000
1.035494e+003,9.316254e-001
1.036458e+003,7.281036e-001
1.037422e+003,4.439697e-001
1.038387e+003,-3.994598e-001
1.039351e+003,-1.707352e+000
1.040315e+003,-2.443863e+000
1.041279e+003,-1.685837e+000
1.042244e+003,1.970215e-001
1.043208e+003,1.111832e+000
1.044172e+003,-3.530884e-002
1.045136e+003,-5.097504e-001
1.046101e+003,2.818298e-001
1.047065e+003,1.282776e+000
1.048029e+003,1.754547e+000
1.048993e+003,1.769882e+000
1.049958e+003,2.020279e+000
1.050922e+003,3.107574e+000
1.051886e+003,3.967667e+000
1.052850e+003,3.204437e+000
1.053814e+003,1.703827e+000
1.054779e+003,4.453583e-001
1.055743e+003,-3.078766e-001
1.056707e+003,-5.961151e-001
1.057671e+003,-4.156189e-001
1.058636e+003,2.164459e-001
1.059600e+003,1.883392e-001
1.060564e+003,-1.365021e+000
1.061528e+003,-2.028809e+000
1.062493e+003,-1.113342e+000
1.063457e+003,3.981781e-001
1.064421e+003,1.726257e+000
1.065385e+003,2.793091e+000
1.066349e+003,3.190842e+000
1.067314e+003,2.157318e+000
1.068278e+003,1.042038e+000
1.069242e+003,9.434662e-001
1.070206e+003,1.423157e+000
1.071171e+003,1.679626e+000
1.072135e+003,1.345535e+000
1.073099e+003,7.390900e-001
1.074063e+003,5.022430e-001
1.075028e+003,7.419434e-001
1.075992e+003,3.992310e-001
1.076956e+003,-1.247238e+000
1.077920e+003,-2.372971e+000
1.078885e+003,-1.768387e+000
1.079849e+003,-2.602386e-001
1.080813e+003,5.035706e-001
1.081777e+003,1.819916e-001
1.082741e+003,-9.500122e-002
1.083706e+003,-1.349335e-001
1.084670e+003,1.467133e-001
1.085634e+003,1.408157e+000
1.086598e+003,2.939529e+000
1.087563e+003,3.215469e+000
1.088527e+003,1.556366e+000
1.089491e+003,-5.968018e-001
1.090455e+003,-3.685455e-001
1.091420e+003,2.492706e+000
1.092384e+003,3.150665e+000
1.093348e+003,3.045197e-001
1.094312e+003,-2.478256e+000
1.095276e+003,-2.840836e+000
1.096241e+003,-1.437775e+000
1.097205e+003,-3.301849e-001
1.098169e+003,3.205566e-001
1.099133e+003,2.003937e-001
1.100098e+003,-1.789932e+000
1.101062e+003,-3.525879e+000
1.102026e+003,-3.345840e+000
1.102990e+003,-1.783386e+000
1.103955e+003,-4.406891e-001
1.104919e+003,-3.036499e-001
1.105883e+003,-7.092133e-001
1.106847e+003,1.033020e-002
1.107812e+003,1.813934e+000
1.108776e+003,2.016129e+000
1.109740e+003,-3.272095e-001
1.110704e+003,-2.545319e+000
1.111668e+003,-2.309067e+000
1.112633e+003,-1.666107e-001
1.113597e+003,1.146194e+000
1.114561e+003,9.350739e-001
1.115525e+003,7.137299e-001
1.116490e+003,1.010757e+000
1.117454e+003,1.371414e+000
1.118418e+003,1.580368e+000
1.119382e+003,1.706772e+000
1.120347e+003,1.929535e+000
1.121311e+003,2.273331e+000
1.122275e+003,2.407959e+000
1.123239e+003,1.690674e+000
1.124203e+003,4.193268e-001
1.125168e+003,5.568695e-001
1.126132e+003,2.783310e+000
1.127096e+003,5.118256e+000
1.128060e+003,5.961090e+000
1.129025e+003,5.552353e+000
1.129989e+003,5.158768e+000
1.130953e+003,4.733002e+000
1.131917e+003,4.515991e+000
1.132882e+003,5.264038e+000
1.133846e+003,5.652283e+000
1.134810e+003,4.123657e+000
1.135774e+003,1.644974e+000
1.136739e+003,6.311798e-001
1.137703e+003,2.402313e+000
1.138667e+003,5.345886e+000
1.139631e+003,6.658005e+000
1.140595e+003,6.488525e+000
1.141560e+003,6.787537e+000
1.142524e+003,7.746841e+000
1.143488e+003,9.083588e+000
1.144452e+003,1.050978e+001
1.145417e+003,1.211662e+001
1.146381e+003,1.429282e+001
1.147345e+003,1.713672e+001
1.148309e+003,2.021681e+001
1.149274e+003,2.391628e+001
1.150238e+003,2.740855e+001
1.151202e+003,3.057573e+001
1.152166e+003,3.321954e+001
1.153130e+003,3.492271e+001
1.154095e+003,3.545682e+001
1.155059e+003,3.517378e+001
1.156023e+003,3.465265e+001
1.156987e+003,3.401031e+001
1.157952e+003,3.360974e+001
1.158916e+003,3.377974e+001
1.159880e+003,3.340233e+001
1.160844e+003,3.165175e+001
1.161809e+003,2.870621e+001
1.162773e+003,2.491588e+001
1.163737e+003,1.986272e+001
1.164701e+003,1.596953e+001
1.165666e+003,1.504932e+001
1.166630e+003,1.429903e+001
1.167594e+003,1.251093e+001
1.168558e+003,1.032495e+001
1.169522e+003,8.701416e+000
1.170487e+003,7.947617e+000
1.171451e+003,7.697540e+000
1.172415e+003,7.559647e+000
1.173379e+003,7.489120e+000
1.174344e+003,7.466721e+000
1.175308e+003,7.559998e+000
1.176272e+003,7.397079e+000
1.177236e+003,6.837357e+000
1.178201e+003,6.045700e+000
1.179165e+003,4.989380e+000
1.180129e+003,3.586090e+000
1.181093e+003,2.713577e+000
1.182057e+003,2.858444e+000
1.183022e+003,3.244476e+000
1.183986e+003,3.987091e+000
1.184950e+003,4.538437e+000
1.185914e+003,4.094208e+000
1.186879e+003,2.884247e+000
1.187843e+003,2.069550e+000
1.188807e+003,2.578888e+000
1.189771e+003,3.902802e+000
1.190736e+003,4.705383e+000
1.191700e+003,4.960144e+000
1.192664e+003,4.660034e+000
1.193628e+003,3.378922e+000
1.194593e+003,2.217194e+000
1.195557e+003,2.119949e+000
1.196521e+003,2.750702e+000
1.197485e+003,2.942154e+000
1.198449e+003,2.416885e+000
1.199414e+003,1.841614e+000
1.200378e+003,1.827118e+000
1.201342e+003,1.601166e+000
1.202306e+003,1.150818e-001
1.203271e+003,-1.946884e+000
1.204235e+003,-2.964645e+000
1.205199e+003,-2.209732e+000
1.206163e+003,-7.424164e-001
1.207128e+003,-3.614960e-001
1.208092e+003,-1.124878e+000
1.209056e+003,-1.778839e+000
1.210020e+003,-2.031662e+000
1.210984e+003,-2.725204e+000
1.211949e+003,-4.621048e+000
1.212913e+003,-6.809036e+000
1.213877e+003,-8.058014e+000
1.214841e+003,-8.271179e+000
1.215806e+003,-8.126022e+000
1.216770e+003,-7.336792e+000
1.217734e+003,-7.208008e+000
1.218698e+003,-9.343307e+000
1.219663e+003,-1.218597e+001
1.220627e+003,-1.370985e+001
1.221591e+003,-1.365929e+001
1.222555e+003,-1.332593e+001
1.223520e+003,-1.391666e+001
1.224484e+003,-1.493506e+001
1.225448e+003,-1.413428e+001
1.226412e+003,-9.780197e+000
1.227376e+003,-7.659973e+000
1.228341e+003,-9.492661e+000
1.229305e+003,-1.160480e+001
1.230269e+003,-1.183923e+001
1.231233e+003,-1.099826e+001
1.232198e+003,-1.101620e+001
1.233162e+003,-1.240752e+001
1.234126e+003,-1.338612e+001
1.235090e+003,-1.210829e+001
1.236055e+003,-1.046696e+001
1.237019e+003,-1.080780e+001
1.237983e+003,-1.247435e+001
1.238947e+003,-1.345323e+001
1.239911e+003,-1.286668e+001
1.240876e+003,-1.171825e+001
1.241840e+003,-1.162489e+001
1.242804e+003,-1.268584e+001
1.243768e+003,-1.288295e+001
1.244733e+003,-1.063219e+001
1.245697e+003,-9.656296e+000
1.246661e+003,-1.174228e+001
1.247625e+003,-1.400900e+001
1.248590e+003,-1.379684e+001
1.249554e+003,-1.172073e+001
1.250518e+003,-1.046397e+001
1.251482e+003,-1.133098e+001
1.252447e+003,-1.287555e+001
1.253411e+003,-1.342857e+001
1.254375e+003,-1.324348e+001
1.255339e+003,-1.298552e+001
1.256303e+003,-1.263695e+001
1.257268e+003,-1.189201e+001
1.258232e+003,-1.043439e+001
1.259196e+003,-8.895035e+000
1.260160e+003,-8.585846e+000
1.261125e+003,-9.713028e+000
1.262089e+003,-1.027142e+001
1.263053e+003,-9.669678e+000
1.264017e+003,-9.128189e+000
1.264982e+003,-9.440628e+000
1.265946e+003,-9.503098e+000
1.266910e+003,-7.443253e+000
1.267874e+003,-3.990662e+000
1.268839e+003,-2.355255e+000
1.269803e+003,-4.708130e+000
1.270767e+003,-8.536575e+000
1.271731e+003,-8.597397e+000
1.272695e+003,-5.032104e+000
1.273660e+003,-4.046906e+000
1.274624e+003,-6.890884e+000
1.275588e+003,-9.764008e+000
1.276552e+003,-1.030940e+001
1.277517e+003,-9.530685e+000
1.278481e+003,-9.448944e+000
1.279445e+003,-1.025606e+001
1.280409e+003,-1.095869e+001
1.281374e+003,-1.141037e+001
1.282338e+003,-1.139607e+001
1.283302e+003,-1.088017e+001
1.284266e+003,-9.881531e+000
1.285230e+003,-7.899368e+000
1.286195e+003,-5.340286e+000
1.287159e+003,-3.648804e+000
1.288123e+003,-3.983734e+000
1.289087e+003,-5.857452e+000
1.290052e+003,-8.040726e+000
1.291016e+003,-1.107414e+001
1.291980e+003,-1.256937e+001
1.292944e+003,-1.164200e+001
1.293909e+003,-1.064076e+001
1.294873e+003,-1.013858e+001
1.295837e+003,-1.011371e+001
1.296801e+003,-1.081721e+001
1.297766e+003,-1.216626e+001
1.298730e+003,-1.309392e+001
1.299694e+003,-1.304187e+001
1.300658e+003,-1.247818e+001
1.301622e+003,-1.169771e+001
1.302587e+003,-1.080791e+001
1.303551e+003,-9.922760e+000
1.304515e+003,-9.072723e+000
1.305479e+003,-8.520355e+000
1.306444e+003,-8.536560e+000
1.307408e+003,-9.062927e+000
1.308372e+003,-9.879669e+000
1.309336e+003,-1.131458e+001
1.310301e+003,-1.202446e+001
1.311265e+003,-1.131219e+001
1.312229e+003,-1.056706e+001
1.313193e+003,-1.015192e+001
1.314157e+003,-9.963776e+000
1.315122e+003,-9.894913e+000
1.316086e+003,-9.931961e+000
1.317050e+003,-1.011914e+001
1.318014e+003,-1.046506e+001
1.318979e+003,-1.077409e+001
1.319943e+003,-1.085123e+001
1.320907e+003,-1.058977e+001
1.321871e+003,-9.444443e+000
1.322836e+003,-7.056366e+000
1.323800e+003,-5.413681e+000
1.324764e+003,-6.161713e+000
1.325728e+003,-7.969955e+000
1.326693e+003,-8.486710e+000
1.327657e+003,-7.671204e+000
1.328621e+003,-7.328430e+000
1.329585e+003,-8.419159e+000
1.330549e+003,-8.667633e+000
1.331514e+003,-5.960266e+000
1.332478e+003,-3.076935e+000
1.333442e+003,-2.946274e+000
1.334406e+003,-5.173920e+000
1.335371e+003,-7.332321e+000
1.336335e+003,-7.954422e+000
1.337299e+003,-7.952240e+000
1.338263e+003,-9.177109e+000
1.339228e+003,-1.190564e+001
1.340192e+003,-1.320358e+001
1.341156e+003,-1.238295e+001
1.342120e+003,-1.127652e+001
1.343084e+003,-9.731659e+000
1.344049e+003,-8.508865e+000
1.345013e+003,-8.516403e+000
1.345977e+003,-9.256500e+000
1.346941e+003,-9.187302e+000
1.347906e+003,-7.713760e+000
1.348870e+003,-6.148102e+000
1.349834e+003,-5.793015e+000
1.350798e+003,-6.147476e+000
1.351763e+003,-5.936508e+000
1.352727e+003,-5.300598e+000
1.353691e+003,-5.345032e+000
1.354655e+003,-6.640121e+000
1.355620e+003,-8.098663e+000
1.356584e+003,-8.157669e+000
1.357548e+003,-7.027542e+000
1.358512e+003,-7.061798e+000
1.359476e+003,-9.198929e+000
1.360441e+003,-1.054512e+001
1.361405e+003,-9.441208e+000
1.362369e+003,-8.305161e+000
1.363333e+003,-8.807983e+000
1.364298e+003,-9.781250e+000
1.365262e+003,-9.119385e+000
1.366226e+003,-6.647476e+000
1.367190e+003,-4.343536e+000
1.368155e+003,-3.966980e+000
1.369119e+003,-5.108475e+000
1.370083e+003,-6.540436e+000
1.371047e+003,-8.427048e+000
1.372011e+003,-9.632904e+000
1.372976e+003,-1.034767e+001
1.373940e+003,-1.037761e+001
1.374904e+003,-8.809723e+000
1.375868e+003,-6.980652e+000
1.376833e+003,-7.119125e+000
1.377797e+003,-9.023361e+000
1.378761e+003,-9.662216e+000
1.379725e+003,-7.363937e+000
1.380690e+003,-4.638290e+000
1.381654e+003,-4.097626e+000
1.382618e+003,-4.705963e+000
1.383582e+003,-5.318680e+000
1.384547e+003,-5.793076e+000
1.385511e+003,-5.970154e+000
1.386475e+003,-5.776871e+000
1.387439e+003,-5.370163e+000
1.388403e+003,-4.835342e+000
1.389368e+003,-4.184219e+000
1.390332e+003,-4.070053e+000
1.391296e+003,-4.751511e+000
1.392260e+003,-5.367172e+000
1.393225e+003,-5.903397e+000
1.394189e+003,-6.189117e+000
1.395153e+003,-5.809235e+000
1.396117e+003,-5.242508e+000
1.397082e+003,-5.343307e+000
1.398046e+003,-6.183411e+000
1.399010e+003,-6.958878e+000
1.399974e+003,-6.997131e+000
1.400938e+003,-6.421021e+000
1.401903e+003,-5.207550e+000
1.402867e+003,-2.685898e+000
1.403831e+003,-1.576797e+000
1.404795e+003,-3.824081e+000
1.405760e+003,-5.043320e+000
1.406724e+003,-2.124222e+000
1.407688e+003,1.177551e+000
1.408652e+003,-1.872253e-001
1.409617e+003,-5.506775e+000
1.410581e+003,-9.417435e+000
1.411545e+003,-9.731339e+000
1.412509e+003,-8.635956e+000
1.413474e+003,-8.025925e+000
1.414438e+003,-7.558609e+000
1.415402e+003,-6.114563e+000
1.416366e+003,-3.903656e+000
1.417330e+003,-2.798325e+000
1.418295e+003,-3.699905e+000
1.419259e+003,-5.274323e+000
1.420223e+003,-6.262268e+000
1.421187e+003,-6.707932e+000
1.422152e+003,-6.396393e+000
1.423116e+003,-4.898804e+000
1.424080e+003,-3.714188e+000
1.425044e+003,-3.843002e+000
1.426009e+003,-3.908539e+000
1.426973e+003,-3.045975e+000
1.427937e+003,-1.995773e+000
1.428901e+003,-1.619904e+000
1.429865e+003,-1.959396e+000
1.430830e+003,-2.616989e+000
1.431794e+003,-3.357132e+000
1.432758e+003,-4.077179e+000
1.433722e+003,-4.446381e+000
1.434687e+003,-4.312057e+000
1.435651e+003,-4.069107e+000
1.436615e+003,-3.873306e+000
1.437579e+003,-3.959335e+000
1.438544e+003,-5.019257e+000
1.439508e+003,-5.600250e+000
1.440472e+003,-4.046982e+000
1.441436e+003,-1.431519e+000
1.442401e+003,3.065491e-002
1.443365e+003,-1.741943e-001
1.444329e+003,-8.489075e-001
1.445293e+003,-1.151352e+000
1.446257e+003,-1.193085e+000
1.447222e+003,-1.102570e+000
1.448186e+003,-9.709167e-001
1.449150e+003,-1.302963e+000
1.450114e+003,-2.285126e+000
1.451079e+003,-3.272125e+000
1.452043e+003,-4.217316e+000
1.453007e+003,-4.666290e+000
1.453971e+003,-3.602356e+000
1.454936e+003,-1.356049e+000
1.455900e+003,-2.148743e-001
1.456864e+003,-8.484497e-001
1.457828e+003,-1.745697e+000
1.458792e+003,-2.229736e+000
1.459757e+003,-2.577118e+000
1.460721e+003,-3.092453e+000
1.461685e+003,-3.617981e+000
1.462649e+003,-3.731461e+000
1.463614e+003,-3.322754e+000
1.464578e+003,-2.755447e+000
1.465542e+003,-2.301163e+000
1.466506e+003,-2.146851e+000
1.467471e+003,-3.091385e+000
1.468435e+003,-5.657532e+000
1.469399e+003,-6.113190e+000
1.470363e+003,-1.923538e+000
1.471328e+003,8.202515e-001
1.472292e+003,-6.236572e-001
1.473256e+003,-2.762848e+000
1.474220e+003,-2.754227e+000
1.475184e+003,-1.328598e+000
1.476149e+003,-4.436798e-001
1.477113e+003,-8.627319e-001
1.478077e+003,-2.272568e+000
1.479041e+003,-4.382477e+000
1.480006e+003,-6.359390e+000
1.480970e+003,-5.403503e+000
1.481934e+003,-3.581390e-001
1.482898e+003,2.231323e+000
1.483863e+003,9.919586e-001
1.484827e+003,-5.252228e-001
1.485791e+003,-2.044983e+000
1.486755e+003,-2.749207e+000
1.487719e+003,-1.288712e+000
1.488684e+003,1.418777e+000
1.489648e+003,2.899551e+000
1.490612e+003,2.438156e+000
1.491576e+003,1.670349e+000
1.492541e+003,1.772614e+000
1.493505e+003,2.580627e+000
1.494469e+003,4.205383e+000
1.495433e+003,6.310730e+000
1.496398e+003,7.214645e+000
1.497362e+003,6.638763e+000
1.498326e+003,5.638901e+000
1.499290e+003,3.963684e+000
1.500255e+003,2.700592e+000
1.501219e+003,3.581848e+000
1.502183e+003,6.289886e+000
1.503147e+003,9.120529e+000
1.504111e+003,1.185774e+001
1.505076e+003,1.387891e+001
1.506040e+003,1.448740e+001
1.507004e+003,1.457507e+001
1.507968e+003,1.450400e+001
1.508933e+003,1.476974e+001
1.509897e+003,1.664719e+001
1.510861e+003,2.039256e+001
1.511825e+003,2.456812e+001
1.512790e+003,2.811992e+001
1.513754e+003,3.127107e+001
1.514718e+003,3.436298e+001
1.515682e+003,3.733177e+001
1.516646e+003,4.144061e+001
1.517611e+003,4.797330e+001
1.518575e+003,5.306009e+001
1.519539e+003,5.497899e+001
1.520503e+003,5.583940e+001
1.521468e+003,5.646600e+001
1.522432e+003,5.674146e+001
1.523396e+003,5.610892e+001
1.524360e+003,5.476080e+001
1.525325e+003,5.390269e+001
1.526289e+003,5.436179e+001
1.527253e+003,5.513615e+001
1.528217e+003,5.444170e+001
1.529182e+003,5.233391e+001
1.530146e+003,4.920198e+001
1.531110e+003,4.418776e+001
1.532074e+003,3.960532e+001
1.533039e+003,3.558607e+001
1.534003e+003,3.164415e+001
1.534967e+003,2.787466e+001
1.535931e+003,2.419217e+001
1.536896e+003,2.025377e+001
1.537860e+003,1.628093e+001
1.538824e+003,1.277017e+001
1.539788e+003,9.986816e+000
1.540752e+003,8.342545e+000
1.541717e+003,8.610107e+000
1.542681e+003,1.035239e+001
1.543645e+003,1.050186e+001
1.544609e+003,8.517593e+000
1.545573e+003,6.458710e+000
1.546538e+003,2.991684e+000
1.547502e+003,9.182739e-001
1.548466e+003,2.183395e+000
1.549430e+003,4.795578e+000
1.550395e+003,7.271225e+000
1.551359e+003,9.048325e+000
1.552323e+003,9.228790e+000
1.553287e+003,7.636398e+000
1.554252e+003,5.957458e+000
1.555216e+003,5.706589e+000
1.556180e+003,6.209854e+000
1.557144e+003,5.861206e+000
1.558109e+003,4.662704e+000
1.559073e+003,3.993423e+000
1.560037e+003,4.418594e+000
1.561001e+003,3.915939e+000
1.561966e+003,4.595032e-001
1.562930e+003,-2.676086e+000
1.563894e+003,-2.191391e+000
1.564858e+003,8.336945e-001
1.565823e+003,4.173889e+000
1.566787e+003,7.194031e+000
1.567751e+003,8.023819e+000
1.568715e+003,4.956421e+000
1.569679e+003,1.367752e+000
1.570644e+003,1.951462e+000
1.571608e+003,5.131302e+000
1.572572e+003,6.392227e+000
1.573536e+003,5.640060e+000
1.574500e+003,4.750656e+000
1.575465e+003,4.128983e+000
1.576429e+003,3.783768e+000
1.577393e+003,3.588547e+000
1.578357e+003,3.678833e+000
1.579322e+003,4.652863e+000
1.580286e+003,6.463318e+000
1.581250e+003,7.880402e+000
1.582214e+003,8.677872e+000
1.583179e+003,8.380219e+000
1.584143e+003,5.513992e+000
1.585107e+003,2.271317e+000
1.586071e+003,1.838623e+000
1.587036e+003,3.613129e+000
1.588000e+003,5.652542e+000
1.588964e+003,7.551727e+000
1.589928e+003,8.548141e+000
1.590893e+003,7.742401e+000
1.591857e+003,6.163040e+000
1.592821e+003,5.066605e+000
1.593785e+003,4.545975e+000
1.594750e+003,5.289383e+000
1.595714e+003,7.615051e+000
1.596678e+003,9.371292e+000
1.597642e+003,9.468964e+000
1.598606e+003,9.094772e+000
1.599571e+003,9.380142e+000
1.600535e+003,9.754044e+000
1.601499e+003,8.899918e+000
1.602463e+003,7.200134e+000
1.603427e+003,7.220261e+000
1.604392e+003,1.023405e+001
1.605356e+003,1.338763e+001
1.606320e+003,1.345656e+001
1.607284e+003,1.155484e+001
1.608249e+003,1.088591e+001
1.609213e+003,1.149516e+001
1.610177e+003,1.216693e+001
1.611141e+003,1.304515e+001
1.612106e+003,1.312279e+001
1.613070e+003,1.070998e+001
1.614034e+003,8.402420e+000
1.614998e+003,8.350540e+000
1.615963e+003,9.614182e+000
1.616927e+003,1.045030e+001
1.617891e+003,1.061380e+001
1.618855e+003,1.111952e+001
1.619820e+003,1.265134e+001
1.620784e+003,1.406482e+001
1.621748e+003,1.332736e+001
1.622712e+003,1.113521e+001
1.623677e+003,1.142937e+001
1.624641e+003,1.483311e+001
1.625605e+003,1.726335e+001
1.626569e+003,1.736270e+001
1.627533e+003,1.667424e+001
1.628498e+003,1.593066e+001
1.629462e+003,1.502112e+001
1.630426e+003,1.340057e+001
1.631390e+003,1.159796e+001
1.632354e+003,1.087656e+001
1.633319e+003,1.144382e+001
1.634283e+003,1.220370e+001
1.635247e+003,1.231314e+001
1.636211e+003,1.219211e+001
1.637176e+003,1.279417e+001
1.638140e+003,1.407957e+001
1.639104e+003,1.477187e+001
1.640068e+003,1.468750e+001
1.641033e+003,1.438326e+001
1.641997e+003,1.372168e+001
1.642961e+003,1.335745e+001
1.643925e+003,1.430037e+001
1.644890e+003,1.510889e+001
1.645854e+003,1.360352e+001
1.646818e+003,1.081908e+001
1.647782e+003,9.770798e+000
1.648747e+003,1.131079e+001
1.649711e+003,1.357835e+001
1.650675e+003,1.529059e+001
1.651639e+003,1.638776e+001
1.652604e+003,1.630016e+001
1.653568e+003,1.504538e+001
1.654532e+003,1.487706e+001
1.655496e+003,1.660361e+001
1.656460e+003,1.685683e+001
1.657425e+003,1.311157e+001
1.658389e+003,9.894501e+000
1.659353e+003,1.020061e+001
1.660317e+003,1.178624e+001
1.661281e+003,1.243925e+001
1.662246e+003,1.212793e+001
1.663210e+003,1.148654e+001
1.664174e+003,1.079672e+001
1.665138e+003,1.050809e+001
1.666103e+003,1.103717e+001
1.667067e+003,1.201921e+001
1.668031e+003,1.306639e+001
1.668995e+003,1.411969e+001
1.669960e+003,1.379919e+001
1.670924e+003,1.160976e+001
1.671888e+003,9.869904e+000
1.672852e+003,9.587845e+000
1.673817e+003,9.377426e+000
1.674781e+003,8.083755e+000
1.675745e+003,6.585526e+000
1.676709e+003,5.815094e+000
1.677674e+003,5.707428e+000
1.678638e+003,5.853867e+000
1.679602e+003,6.127060e+000
1.680566e+003,6.389771e+000
1.681531e+003,6.479202e+000
1.682495e+003,6.692810e+000
1.683459e+003,7.886169e+000
1.684423e+003,9.663391e+000
1.685387e+003,9.391037e+000
1.686352e+003,6.480759e+000
1.687316e+003,4.831711e+000
1.688280e+003,6.378952e+000
1.689244e+003,8.142883e+000
1.690208e+003,7.720154e+000
1.691173e+003,6.432861e+000
1.692137e+003,5.475250e+000
1.693101e+003,5.000839e+000
1.694065e+003,5.295135e+000
1.695030e+003,6.403854e+000
1.695994e+003,6.804459e+000
1.696958e+003,4.933258e+000
1.697922e+003,2.744354e+000
1.698887e+003,3.217804e+000
1.699851e+003,5.305710e+000
1.700815e+003,5.424484e+000
1.701779e+003,3.282379e+000
1.702744e+003,1.799973e+000
1.703708e+003,2.073441e+000
1.704672e+003,2.868759e+000
1.705636e+003,3.391632e+000
1.706601e+003,3.599945e+000
1.707565e+003,3.308655e+000
1.708529e+003,2.851257e+000
1.709493e+003,3.498642e+000
1.710458e+003,5.654785e+000
1.711422e+003,6.292542e+000
1.712386e+003,2.572372e+000
1.713350e+003,-1.034317e+000
1.714314e+003,-3.425446e-001
1.715279e+003,2.273285e+000
1.716243e+003,2.613739e+000
1.717207e+003,9.948730e-001
1.718171e+003,8.761139e-001
1.719135e+003,3.228577e+000
1.720100e+003,5.129059e+000
1.721064e+003,4.563721e+000
1.722028e+003,2.599060e+000
1.722992e+003,2.785492e-001
1.723957e+003,-1.912979e+000
1.724921e+003,-1.343811e+000
1.725885e+003,2.534409e+000
1.726849e+003,4.559845e+000
1.727814e+003,2.567688e+000
1.728778e+003,7.742157e-001
1.729742e+003,1.401627e+000
1.730706e+003,2.593094e+000
1.731671e+003,1.973145e+000
1.732635e+003,5.093384e-001
1.733599e+003,1.128525e+000
1.734563e+003,3.966095e+000
1.735528e+003,5.947388e+000
1.736492e+003,5.418182e+000
1.737456e+003,3.930481e+000
1.738420e+003,3.257462e+000
1.739385e+003,3.175201e+000
1.740349e+003,3.119873e+000
1.741313e+003,3.101059e+000
1.742277e+003,3.404556e+000
1.743241e+003,4.636124e+000
1.744206e+003,5.371536e+000
1.745170e+003,5.349152e+000
1.746134e+003,4.788483e+000
1.747098e+003,3.529678e+000
1.748063e+003,1.997192e+000
1.749027e+003,3.431091e-001
1.749991e+003,-1.070343e+000
1.750955e+003,-1.436005e+000
1.751919e+003,-6.664734e-001
1.752884e+003,6.825256e-002
1.753848e+003,-2.136383e-001
1.754812e+003,-8.104095e-001
1.755776e+003,-7.518005e-002
1.756741e+003,1.980133e+000
1.757705e+003,2.143097e+000
1.758669e+003,-8.480835e-001
1.759633e+003,-2.205246e+000
1.760598e+003,-9.901428e-002
1.761562e+003,1.612259e+000
1.762526e+003,1.846802e+000
1.763490e+003,1.414215e+000
1.764455e+003,3.725128e-001
1.765419e+003,-6.523132e-001
1.766383e+003,-6.281586e-001
1.767347e+003,2.763367e-001
1.768312e+003,7.693787e-001
1.769276e+003,2.124481e-001
1.770240e+003,-6.604156e-001
1.771204e+003,-1.058197e+000
1.772168e+003,-1.004761e+000
1.773133e+003,-5.617371e-001
1.774097e+003,1.839294e-001
1.775061e+003,2.909851e-001
1.776025e+003,-5.145416e-001
1.776990e+003,-1.342056e+000
1.777954e+003,-2.118912e+000
1.778918e+003,-2.042953e+000
1.779882e+003,2.321014e-001
1.780846e+003,2.916763e+000
1.781811e+003,3.495621e+000
1.782775e+003,2.564072e+000
1.783739e+003,2.090515e+000
1.784703e+003,2.438385e+000
1.785668e+003,2.516586e+000
1.786632e+003,1.578430e+000
1.787596e+003,4.222870e-001
1.788560e+003,-2.490997e-001
1.789525e+003,-6.433258e-001
1.790489e+003,-1.299713e+000
1.791453e+003,-2.075592e+000
1.792417e+003,-2.276260e+000
1.793382e+003,-1.793152e+000
1.794346e+003,-1.219391e+000
1.795310e+003,-8.795166e-001
1.796274e+003,-5.181885e-001
1.797239e+003,3.040009e-001
1.798203e+003,1.343185e+000
1.799167e+003,1.376907e+000
1.800131e+003,-6.590271e-002
1.801095e+003,-5.589905e-001
1.802060e+003,1.367538e+000
1.803024e+003,2.142883e+000
1.803988e+003,5.091858e-002
1.804952e+003,-1.686234e+000
1.805917e+003,-1.358658e+000
1.806881e+003,-1.103363e-001
1.807845e+003,1.405518e+000
1.808809e+003,2.678238e+000
1.809773e+003,2.826126e+000
1.810738e+003,1.909058e+000
1.811702e+003,1.206558e+000
1.812666e+003,1.505554e+000
1.813630e+003,2.207703e+000
1.814595e+003,2.542862e+000
1.815559e+003,2.541855e+000
1.816523e+003,2.459961e+000
1.817487e+003,2.346359e+000
1.818452e+003,1.774826e+000
1.819416e+003,5.067291e-001
1.820380e+003,-3.359833e-001
1.821344e+003,-3.450928e-001
1.822309e+003,-1.851044e-001
1.823273e+003,-3.193665e-001
1.824237e+003,-3.062744e-001
1.825201e+003,4.374390e-001
1.826166e+003,1.602554e+000
1.827130e+003,2.491379e+000
1.828094e+003,2.937668e+000
1.829058e+003,2.776062e+000
1.830022e+003,1.705124e+000
1.830987e+003,6.271210e-001
1.831951e+003,4.769287e-001
1.832915e+003,6.401978e-001
1.833879e+003,3.134155e-002
1.834844e+003,-1.030731e+000
1.835808e+003,-1.596390e+000
1.836772e+003,-1.453323e+000
1.837736e+003,-2.755890e-001
1.838700e+003,2.094696e+000
1.839665e+003,4.061081e+000
1.840629e+003,4.142639e+000
1.841593e+003,3.062988e+000
1.842557e+003,2.237946e+000
1.843522e+003,1.659927e+000
1.844486e+003,1.062790e+000
1.845450e+003,1.184082e-002
1.846414e+003,4.678345e-002
1.847379e+003,2.206757e+000
1.848343e+003,3.725494e+000
1.849307e+003,3.616669e+000
1.850271e+003,2.887939e+000
1.851236e+003,1.996078e+000
1.852200e+003,1.226837e+000
1.853164e+003,8.057709e-001
1.854128e+003,6.056061e-001
1.855093e+003,1.426086e-001
1.856057e+003,-5.658569e-001
1.857021e+003,-2.819824e-001
1.857985e+003,2.174072e+000
1.858949e+003,5.201569e+000
1.859914e+003,5.871094e+000
1.860878e+003,4.658432e+000
1.861842e+003,4.182129e+000
1.862806e+003,4.449387e+000
1.863771e+003,4.360626e+000
1.864735e+003,3.559006e+000
1.865699e+003,3.151886e+000
1.866663e+003,4.266968e+000
1.867627e+003,4.769226e+000
1.868592e+003,1.351196e+000
1.869556e+003,-3.179367e+000
1.870520e+003,-2.585922e+000
1.871484e+003,2.180878e+000
1.872449e+003,4.682510e+000
1.873413e+003,3.955307e+000
1.874377e+003,3.344345e+000
1.875341e+003,3.806168e+000
1.876306e+003,4.164459e+000
1.877270e+003,3.784912e+000
1.878234e+003,2.958664e+000
1.879198e+003,1.609528e+000
1.880163e+003,2.998199e-001
1.881127e+003,1.045227e-002
1.882091e+003,7.472382e-001
1.883055e+003,2.023361e+000
1.884020e+003,3.491516e+000
1.884984e+003,4.316330e+000
1.885948e+003,3.709702e+000
1.886912e+003,2.504684e+000
1.887876e+003,2.483154e+000
1.888841e+003,3.497040e+000
1.889805e+003,3.441879e+000
1.890769e+003,1.974289e+000
1.891733e+003,1.372055e+000
1.892698e+003,2.251297e+000
1.893662e+003,2.826355e+000
1.894626e+003,2.074448e+000
1.895590e+003,1.466187e+000
1.896554e+003,2.621521e+000
1.897519e+003,4.130829e+000
1.898483e+003,3.829208e+000
1.899447e+003,2.270416e+000
1.900411e+003,1.956223e+000
1.901376e+003,3.403976e+000
1.902340e+003,4.571457e+000
1.903304e+003,4.929001e+000
1.904268e+003,4.420151e+000
1.905233e+003,1.943848e+000
1.906197e+003,-3.450012e-001
1.907161e+003,2.986145e-001
1.908125e+003,2.537048e+000
1.909090e+003,3.846146e+000
1.910054e+003,3.978226e+000
1.911018e+003,3.786011e+000
1.911982e+003,3.670349e+000
1.912947e+003,3.788788e+000
1.913911e+003,4.234283e+000
1.914875e+003,4.547134e+000
1.915839e+003,3.923538e+000
1.916803e+003,2.547974e+000
1.917768e+003,1.708237e+000
1.918732e+003,1.539627e+000
1.919696e+003,1.389236e+000
1.920660e+003,1.245041e+000
1.921625e+003,1.265945e+000
1.922589e+003,1.415451e+000
1.923553e+003,1.728012e+000
1.924517e+003,2.060730e+000
1.925481e+003,2.737488e+000
1.926446e+003,4.673599e+000
1.927410e+003,6.933167e+000
1.928374e+003,7.554230e+000
1.929338e+003,6.444031e+000
1.930303e+003,5.004181e+000
1.931267e+003,3.273758e+000
1.932231e+003,2.633408e+000
1.933195e+003,4.699600e+000
1.934160e+003,6.708221e+000
1.935124e+003,6.442978e+000
1.936088e+003,5.101547e+000
1.937052e+003,3.958801e+000
1.938017e+003,3.235352e+000
1.938981e+003,3.041077e+000
1.939945e+003,3.245987e+000
1.940909e+003,3.342682e+000
1.941874e+003,3.112823e+000
1.942838e+003,3.045670e+000
1.943802e+003,3.692917e+000
1.944766e+003,4.697556e+000
1.945730e+003,5.225723e+000
1.946695e+003,5.231995e+000
1.947659e+003,4.499588e+000
1.948623e+003,2.796265e+000
1.949587e+003,3.051895e+000
1.950552e+003,6.317719e+000
1.951516e+003,8.621674e+000
1.952480e+003,8.279037e+000
1.953444e+003,7.462662e+000
1.954408e+003,7.544220e+000
1.955373e+003,8.011932e+000
1.956337e+003,8.533234e+000
1.957301e+003,8.997498e+000
1.958265e+003,8.490265e+000
1.959230e+003,6.816238e+000
1.960194e+003,5.807983e+000
1.961158e+003,5.861679e+000
1.962122e+003,6.089310e+000
1.963087e+003,6.586548e+000
1.964051e+003,6.859039e+000
1.965015e+003,6.291534e+000
1.965979e+003,5.813095e+000
1.966944e+003,6.808563e+000
1.967908e+003,8.245926e+000
1.968872e+003,7.976593e+000
1.969836e+003,6.097488e+000
1.970801e+003,4.543121e+000
1.971765e+003,4.153992e+000
1.972729e+003,4.282562e+000
1.973693e+003,4.409134e+000
1.974657e+003,4.628601e+000
1.975622e+003,5.043732e+000
1.976586e+003,5.620499e+000
1.977550e+003,6.513504e+000
1.978514e+003,7.631470e+000
1.979479e+003,8.289917e+000
1.980443e+003,8.385803e+000
1.981407e+003,8.390472e+000
1.982371e+003,8.520828e+000
1.983335e+003,8.400421e+000
1.984300e+003,7.652954e+000
1.985264e+003,6.618805e+000
1.986228e+003,5.796051e+000
1.987192e+003,5.303650e+000
1.988157e+003,5.867111e+000
1.989121e+003,7.886841e+000
1.990085e+003,9.030502e+000
1.991049e+003,8.786270e+000
1.992014e+003,8.812515e+000
1.992978e+003,1.003827e+001
1.993942e+003,1.044344e+001
1.994906e+003,8.213409e+000
1.995871e+003,6.090179e+000
1.996835e+003,6.730759e+000
1.997799e+003,8.425812e+000
1.998763e+003,8.355286e+000
1.999728e+003,6.762115e+000
