5.003444e+002,1.997880e+002
5.013087e+002,1.971270e+002
5.022729e+002,1.912963e+002
5.032371e+002,1.845349e+002
5.042014e+002,1.812985e+002
5.051656e+002,1.812408e+002
5.061298e+002,1.819083e+002
5.070941e+002,1.808098e+002
5.080583e+002,1.768499e+002
5.090225e+002,1.749346e+002
5.099868e+002,1.771978e+002
5.109510e+002,1.785981e+002
5.119152e+002,1.758052e+002
5.128795e+002,1.684249e+002
5.138437e+002,1.626908e+002
5.148079e+002,1.635248e+002
5.157722e+002,1.642806e+002
5.167364e+002,1.606426e+002
5.177006e+002,1.527889e+002
5.186649e+002,1.454547e+002
5.196291e+002,1.466952e+002
5.205933e+002,1.519742e+002
5.215576e+002,1.556383e+002
5.225218e+002,1.562069e+002
5.234860e+002,1.537063e+002
5.244503e+002,1.488862e+002
5.254145e+002,1.417854e+002
5.263787e+002,1.369176e+002
5.273430e+002,1.350730e+002
5.283072e+002,1.348896e+002
5.292714e+002,1.344373e+002
5.302357e+002,1.329143e+002
5.311999e+002,1.300903e+002
5.321641e+002,1.261417e+002
5.331284e+002,1.227761e+002
5.340926e+002,1.212981e+002
5.350568e+002,1.219218e+002
5.360211e+002,1.217252e+002
5.369853e+002,1.193018e+002
5.379495e+002,1.157893e+002
5.389138e+002,1.109185e+002
5.398780e+002,1.048253e+002
5.408422e+002,9.858618e+001
5.418065e+002,9.586560e+001
5.427707e+002,9.619092e+001
5.437349e+002,9.690540e+001
5.446992e+002,9.740576e+001
5.456634e+002,9.757654e+001
5.466276e+002,9.731897e+001
5.475919e+002,9.737878e+001
5.485561e+002,9.645386e+001
5.495203e+002,9.321033e+001
5.504846e+002,8.877136e+001
5.514488e+002,8.499829e+001
5.524130e+002,8.302063e+001
5.533773e+002,8.200269e+001
5.543415e+002,8.243530e+001
5.553057e+002,8.289502e+001
5.562700e+002,8.158948e+001
5.572342e+002,7.733008e+001
5.581984e+002,7.127502e+001
5.591627e+002,6.549475e+001
5.601269e+002,6.093823e+001
5.610911e+002,6.005164e+001
5.620554e+002,6.422510e+001
5.630196e+002,7.217566e+001
5.639838e+002,7.476721e+001
5.649481e+002,6.857471e+001
5.659123e+002,6.220618e+001
5.668765e+002,5.743640e+001
5.678408e+002,5.446448e+001
5.688050e+002,5.273547e+001
5.697692e+002,5.187769e+001
5.707335e+002,5.032886e+001
5.716977e+002,4.817554e+001
5.726619e+002,4.552454e+001
5.736262e+002,4.238220e+001
5.745904e+002,3.872205e+001
5.755546e+002,3.542505e+001
5.765189e+002,3.251587e+001
5.774831e+002,2.984058e+001
5.784473e+002,2.835632e+001
5.794116e+002,2.902197e+001
5.803758e+002,3.210107e+001
5.813400e+002,3.477356e+001
5.823043e+002,3.692505e+001
5.832685e+002,3.655554e+001
5.842327e+002,3.164441e+001
5.851970e+002,2.377832e+001
5.861612e+002,2.029675e+001
5.871254e+002,2.660876e+001
5.880897e+002,3.164978e+001
5.890539e+002,3.211267e+001
5.900181e+002,2.971680e+001
5.909824e+002,2.803870e+001
5.919466e+002,2.998865e+001
5.929108e+002,3.249170e+001
5.938751e+002,3.239246e+001
5.948393e+002,3.045325e+001
5.958035e+002,2.751758e+001
5.967678e+002,2.434851e+001
5.977320e+002,2.152954e+001
5.986962e+002,2.211572e+001
5.996605e+002,2.536963e+001
6.006247e+002,2.756165e+001
6.015889e+002,2.665479e+001
6.025532e+002,2.297278e+001
6.035174e+002,2.009802e+001
6.044816e+002,1.744092e+001
6.054459e+002,1.679016e+001
6.064101e+002,2.031946e+001
6.073743e+002,2.567896e+001
6.083386e+002,2.876526e+001
6.093028e+002,2.698438e+001
6.102670e+002,2.371008e+001
6.112313e+002,2.087500e+001
6.121955e+002,1.862537e+001
6.131597e+002,1.701941e+001
6.141240e+002,1.608838e+001
6.150882e+002,1.585059e+001
6.160524e+002,1.748474e+001
6.170167e+002,2.098242e+001
6.179809e+002,2.414502e+001
6.189451e+002,2.545361e+001
6.199094e+002,2.484265e+001
6.208736e+002,2.450281e+001
6.218378e+002,2.775647e+001
6.228021e+002,2.874780e+001
6.237663e+002,2.504565e+001
6.247305e+002,1.949011e+001
6.256948e+002,1.643994e+001
6.266590e+002,1.761633e+001
6.276232e+002,1.973792e+001
6.285875e+002,2.280200e+001
6.295517e+002,2.547144e+001
6.305159e+002,2.550867e+001
6.314802e+002,2.167139e+001
6.324444e+002,1.559680e+001
6.334086e+002,1.315747e+001
6.343729e+002,1.365039e+001
6.353371e+002,1.366284e+001
6.363013e+002,1.161816e+001
6.372656e+002,8.178345e+000
6.382298e+002,6.362061e+000
6.391940e+002,8.212158e+000
6.401583e+002,8.537476e+000
6.411225e+002,8.082397e+000
6.420867e+002,7.189941e+000
6.430510e+002,5.394165e+000
6.440152e+002,1.457031e+000
6.449794e+002,-2.229126e+000
6.459437e+002,-4.809448e+000
6.469079e+002,-6.419678e+000
6.478721e+002,-6.272949e+000
6.488364e+002,-4.304688e+000
6.498006e+002,-1.900635e+000
6.507648e+002,-2.050415e+000
6.517291e+002,-4.266968e+000
6.526933e+002,-7.336670e+000
6.536575e+002,-1.120398e+001
6.546218e+002,-1.479761e+001
6.555860e+002,-1.593164e+001
6.565502e+002,-1.288745e+001
6.575145e+002,-1.112561e+001
6.584787e+002,-1.137061e+001
6.594429e+002,-1.202417e+001
6.604072e+002,-1.170422e+001
6.613714e+002,-1.007983e+001
6.623356e+002,-8.702515e+000
6.632999e+002,-1.014136e+001
6.642641e+002,-1.137769e+001
6.652283e+002,-8.759766e+000
6.661926e+002,-2.993164e+000
6.671568e+002,1.372925e+000
6.681210e+002,-2.509033e+000
6.690853e+002,-1.156970e+001
6.700495e+002,-1.690808e+001
6.710137e+002,-1.827771e+001
6.719780e+002,-1.622827e+001
6.729422e+002,-1.092322e+001
6.739064e+002,-1.306274e+000
6.748707e+002,3.067871e+000
6.758349e+002,-5.194092e-001
6.767991e+002,-4.817993e+000
6.777634e+002,-5.886597e+000
6.787276e+002,-3.756348e+000
6.796918e+002,-2.535645e+000
6.806561e+002,-6.521362e+000
6.816203e+002,-9.911621e+000
6.825845e+002,-1.001526e+001
6.835488e+002,-8.007568e+000
6.845130e+002,-5.988525e+000
6.854772e+002,-5.411621e+000
6.864415e+002,-4.957397e+000
6.874057e+002,-1.876831e+000
6.883699e+002,1.988037e+000
6.893342e+002,3.186523e+000
6.902984e+002,-2.197266e-001
6.912626e+002,-7.158936e+000
6.922269e+002,-1.170056e+001
6.931911e+002,-1.112146e+001
6.941553e+002,-9.768311e+000
6.951196e+002,-8.981079e+000
6.960838e+002,-8.454956e+000
6.970480e+002,-6.990967e+000
6.980123e+002,-3.504028e+000
6.989765e+002,-2.351074e-001
6.999407e+002,2.801636e+000
7.009050e+002,4.527832e+000
7.018692e+002,3.383667e+000
7.028334e+002,-8.865967e-001
7.037977e+002,-6.382568e+000
7.047619e+002,-9.868042e+000
7.057261e+002,-1.145691e+001
7.066904e+002,-1.257751e+001
7.076546e+002,-1.347437e+001
7.086188e+002,-1.349707e+001
7.095831e+002,-1.150696e+001
7.105473e+002,-6.908569e+000
7.115115e+002,-3.295776e+000
7.124758e+002,-5.140381e-001
7.134400e+002,9.709473e-001
7.144042e+002,1.029907e+000
7.153685e+002,-6.091309e-002
7.163327e+002,-1.679199e+000
7.172969e+002,-4.362549e+000
7.182612e+002,-6.635620e+000
7.192254e+002,-8.140869e+000
7.201896e+002,-9.084839e+000
7.211539e+002,-9.898193e+000
7.221181e+002,-1.091541e+001
7.230823e+002,-1.160803e+001
7.240466e+002,-9.938965e+000
7.250108e+002,-6.062866e+000
7.259750e+002,-3.106079e+000
7.269393e+002,-3.746582e+000
7.279035e+002,-8.067993e+000
7.288677e+002,-1.078064e+001
7.298320e+002,-7.631836e+000
7.307962e+002,-5.315308e+000
7.317604e+002,-5.066284e+000
7.327247e+002,-5.385742e+000
7.336889e+002,-4.565063e+000
7.346531e+002,-2.795898e+000
7.356174e+002,-2.248413e+000
7.365816e+002,-2.847168e+000
7.375458e+002,-3.407837e+000
7.385101e+002,-3.251587e+000
7.394743e+002,-2.180664e+000
7.404385e+002,-4.129639e-001
7.414028e+002,1.705566e+000
7.423670e+002,2.573364e+000
7.433312e+002,1.625488e+000
7.442955e+002,-2.777100e-001
7.452597e+002,-1.655029e+000
7.462239e+002,-1.160522e+000
7.471882e+002,1.617676e+000
7.481524e+002,2.976563e+000
7.491166e+002,-4.467773e-001
7.500809e+002,-3.225342e+000
7.510451e+002,-2.265747e+000
7.520093e+002,1.320068e+000
7.529736e+002,3.235352e+000
7.539378e+002,1.394653e+000
7.549020e+002,-7.106934e-001
7.558663e+002,-1.212158e+000
7.568306e+002,-6.137695e-001
7.577948e+002,2.211914e-001
7.587590e+002,5.288086e-001
7.597233e+002,1.037598e-002
7.606875e+002,-1.022461e+000
7.616517e+002,-1.981934e+000
7.626160e+002,-2.030640e+000
7.635802e+002,-6.761475e-001
7.645444e+002,1.739746e+000
7.655087e+002,4.642822e+000
7.664729e+002,9.281250e+000
7.674371e+002,1.079089e+001
7.684014e+002,5.738159e+000
7.693656e+002,7.761230e-001
7.703298e+002,1.346069e+000
7.712941e+002,7.585083e+000
7.722583e+002,1.293628e+001
7.732225e+002,1.123889e+001
7.741868e+002,7.878174e+000
7.751510e+002,6.914673e+000
7.761152e+002,8.077026e+000
7.770795e+002,9.607544e+000
7.780437e+002,9.860229e+000
7.790079e+002,8.918335e+000
7.799722e+002,9.607300e+000
7.809364e+002,1.218640e+001
7.819006e+002,1.370459e+001
7.828649e+002,1.306165e+001
7.838291e+002,1.121619e+001
7.847933e+002,1.015515e+001
7.857576e+002,9.005371e+000
7.867218e+002,8.279419e+000
7.876860e+002,9.536377e+000
7.886503e+002,1.144666e+001
7.896145e+002,1.277551e+001
7.905787e+002,1.321326e+001
7.915430e+002,1.366956e+001
7.925072e+002,1.485547e+001
7.934714e+002,1.549121e+001
7.944357e+002,1.435864e+001
7.953999e+002,1.227295e+001
7.963641e+002,1.155420e+001
7.973284e+002,1.467810e+001
7.982926e+002,2.200464e+001
7.992568e+002,2.632031e+001
8.002211e+002,2.640198e+001
8.011853e+002,2.364246e+001
8.021495e+002,1.822900e+001
8.031138e+002,1.213989e+001
8.040780e+002,9.274536e+000
8.050422e+002,1.038513e+001
8.060065e+002,1.293994e+001
8.069707e+002,1.656738e+001
8.079349e+002,1.987231e+001
8.088992e+002,2.195996e+001
8.098634e+002,2.276648e+001
8.108276e+002,2.279797e+001
8.117919e+002,2.120337e+001
8.127561e+002,1.818909e+001
8.137203e+002,1.710413e+001
8.146846e+002,1.899207e+001
8.156488e+002,2.149219e+001
8.166130e+002,2.090894e+001
8.175773e+002,1.593445e+001
8.185415e+002,1.467322e+001
8.195057e+002,1.975928e+001
8.204700e+002,2.328625e+001
8.214342e+002,2.124951e+001
8.223984e+002,1.568823e+001
8.233627e+002,1.234253e+001
8.243269e+002,1.421350e+001
8.252911e+002,1.711279e+001
8.262554e+002,1.837842e+001
8.272196e+002,1.904541e+001
8.281838e+002,2.037305e+001
8.291481e+002,2.262256e+001
8.301123e+002,2.461951e+001
8.310765e+002,2.397571e+001
8.320408e+002,2.081885e+001
8.330050e+002,1.960950e+001
8.339692e+002,2.129602e+001
8.349335e+002,2.330396e+001
8.358977e+002,2.285181e+001
8.368619e+002,1.977380e+001
8.378262e+002,1.851306e+001
8.387904e+002,1.921472e+001
8.397546e+002,2.059485e+001
8.407189e+002,2.349878e+001
8.416831e+002,2.674353e+001
8.426473e+002,2.819678e+001
8.436116e+002,2.664099e+001
8.445758e+002,2.477527e+001
8.455400e+002,2.419800e+001
8.465043e+002,2.408313e+001
8.474685e+002,2.522583e+001
8.484327e+002,2.797986e+001
8.493970e+002,3.089868e+001
8.503612e+002,3.048706e+001
8.513254e+002,2.543359e+001
8.522897e+002,2.497021e+001
8.532539e+002,3.166687e+001
8.542181e+002,3.808569e+001
8.551824e+002,3.973804e+001
8.561466e+002,3.804102e+001
8.571108e+002,3.924854e+001
8.580751e+002,4.436780e+001
8.590393e+002,4.961255e+001
8.600035e+002,5.551978e+001
8.609678e+002,6.122131e+001
8.619320e+002,6.549377e+001
8.628962e+002,6.781982e+001
8.638605e+002,6.917346e+001
8.648247e+002,7.096118e+001
8.657889e+002,7.282129e+001
8.667532e+002,7.457458e+001
8.677174e+002,7.618018e+001
8.686816e+002,7.683044e+001
8.696459e+002,7.545947e+001
8.706101e+002,7.193298e+001
8.715743e+002,7.040503e+001
8.725386e+002,7.016504e+001
8.735028e+002,7.264087e+001
8.744670e+002,8.033716e+001
8.754313e+002,8.953528e+001
8.763955e+002,9.322961e+001
8.773597e+002,8.772717e+001
8.783240e+002,8.300439e+001
8.792882e+002,8.705359e+001
8.802524e+002,9.392041e+001
8.812167e+002,9.913293e+001
8.821809e+002,1.015386e+002
8.831451e+002,1.022817e+002
8.841094e+002,1.027944e+002
8.850736e+002,1.037404e+002
8.860378e+002,1.074918e+002
8.870021e+002,1.147842e+002
8.879663e+002,1.205509e+002
8.889305e+002,1.198016e+002
8.898948e+002,1.141797e+002
8.908590e+002,1.137517e+002
8.918232e+002,1.245120e+002
8.927875e+002,1.329174e+002
8.937517e+002,1.351906e+002
8.947159e+002,1.350089e+002
8.956802e+002,1.345137e+002
8.966444e+002,1.341241e+002
8.976086e+002,1.336415e+002
8.985729e+002,1.336854e+002
8.995371e+002,1.343859e+002
9.005013e+002,1.346000e+002
9.014656e+002,1.349237e+002
9.024298e+002,1.370402e+002
9.033940e+002,1.420524e+002
9.043583e+002,1.487896e+002
9.053225e+002,1.523689e+002
9.062867e+002,1.471230e+002
9.072510e+002,1.450911e+002
9.082152e+002,1.512124e+002
9.091794e+002,1.591372e+002
9.101437e+002,1.616609e+002
9.111079e+002,1.575143e+002
9.120721e+002,1.538308e+002
9.130364e+002,1.556750e+002
9.140006e+002,1.571230e+002
9.149648e+002,1.542625e+002
9.159291e+002,1.492576e+002
9.168933e+002,1.463898e+002
9.178575e+002,1.482980e+002
9.188218e+002,1.531293e+002
9.197860e+002,1.563356e+002
9.207502e+002,1.578094e+002
9.217145e+002,1.548690e+002
9.226787e+002,1.450474e+002
9.236429e+002,1.340648e+002
9.246072e+002,1.297312e+002
9.255714e+002,1.330908e+002
9.265356e+002,1.346101e+002
9.274999e+002,1.305186e+002
9.284641e+002,1.261578e+002
9.294283e+002,1.231591e+002
9.303926e+002,1.217974e+002
9.313568e+002,1.225659e+002
9.323210e+002,1.258939e+002
9.332853e+002,1.287118e+002
9.342495e+002,1.241350e+002
9.352137e+002,1.159227e+002
9.361780e+002,1.104615e+002
9.371422e+002,1.096265e+002
9.381064e+002,1.109521e+002
9.390707e+002,1.103696e+002
9.400349e+002,1.065707e+002
9.409991e+002,1.047648e+002
9.419634e+002,1.068593e+002
9.429276e+002,1.078707e+002
9.438918e+002,1.058658e+002
9.448561e+002,1.024451e+002
9.458203e+002,1.001979e+002
9.467845e+002,9.998193e+001
9.477488e+002,1.013507e+002
9.487130e+002,1.058383e+002
9.496772e+002,1.101116e+002
9.506415e+002,1.108180e+002
9.516057e+002,1.083190e+002
9.525699e+002,1.054642e+002
9.535342e+002,1.049530e+002
9.544984e+002,1.062156e+002
9.554626e+002,1.070110e+002
9.564269e+002,1.089204e+002
9.573911e+002,1.088439e+002
9.583553e+002,1.034124e+002
9.593196e+002,9.616553e+001
9.602838e+002,9.307275e+001
9.612480e+002,9.478296e+001
9.622123e+002,9.795276e+001
9.631765e+002,1.058114e+002
9.641407e+002,1.112565e+002
9.651050e+002,1.093478e+002
9.660692e+002,1.019738e+002
9.670334e+002,9.337598e+001
9.679977e+002,8.645435e+001
9.689619e+002,8.253491e+001
9.699261e+002,8.514038e+001
9.708904e+002,9.168262e+001
9.718546e+002,9.635364e+001
9.728188e+002,9.718079e+001
9.737831e+002,9.753699e+001
9.747473e+002,1.029852e+002
9.757115e+002,1.153590e+002
9.766758e+002,1.240957e+002
9.776400e+002,1.271545e+002
9.786042e+002,1.301940e+002
9.795685e+002,1.360845e+002
9.805327e+002,1.410123e+002
9.814969e+002,1.397758e+002
9.824612e+002,1.310596e+002
9.834254e+002,1.202881e+002
9.843896e+002,1.106677e+002
9.853539e+002,1.018046e+002
9.863181e+002,9.329175e+001
9.872823e+002,8.494690e+001
9.882466e+002,7.749878e+001
9.892108e+002,7.222485e+001
9.901750e+002,7.003088e+001
9.911393e+002,7.099438e+001
9.921035e+002,7.604663e+001
9.930677e+002,7.900891e+001
9.940320e+002,7.970959e+001
9.949962e+002,7.955994e+001
9.959604e+002,7.873340e+001
9.969247e+002,7.762830e+001
9.978889e+002,7.987866e+001
9.988531e+002,8.890186e+001
9.998174e+002,9.771765e+001
1.000782e+003,1.031857e+002
1.001746e+003,1.064175e+002
1.002710e+003,1.086290e+002
1.003674e+003,1.104249e+002
1.004639e+003,1.120941e+002
1.005603e+003,1.143625e+002
1.006567e+003,1.170449e+002
1.007531e+003,1.170511e+002
1.008495e+003,1.127921e+002
1.009460e+003,1.093640e+002
1.010424e+003,1.111002e+002
1.011388e+003,1.166151e+002
1.012352e+003,1.195643e+002
1.013317e+003,1.180571e+002
1.014281e+003,1.152310e+002
1.015245e+003,1.115602e+002
1.016209e+003,1.071212e+002
1.017174e+003,1.026440e+002
1.018138e+003,9.784656e+001
1.019102e+003,9.107825e+001
1.020066e+003,8.074646e+001
1.021031e+003,6.936499e+001
1.021995e+003,6.379309e+001
1.022959e+003,6.214648e+001
1.023923e+003,5.920593e+001
1.024887e+003,5.314063e+001
1.025852e+003,4.495276e+001
1.026816e+003,3.589453e+001
1.027780e+003,2.575354e+001
1.028744e+003,1.835034e+001
1.029709e+003,1.526636e+001
1.030673e+003,1.307361e+001
1.031637e+003,1.046692e+001
1.032601e+003,7.890259e+000
1.033566e+003,6.406738e+000
1.034530e+003,6.564453e+000
1.035494e+003,7.912109e+000
1.036458e+003,1.020825e+001
1.037422e+003,1.269739e+001
1.038387e+003,1.440564e+001
1.039351e+003,1.514917e+001
1.040315e+003,1.503625e+001
1.041279e+003,1.413452e+001
1.042244e+003,1.320349e+001
1.043208e+003,1.494836e+001
1.044172e+003,2.237463e+001
1.045136e+003,2.576306e+001
1.046101e+003,2.286169e+001
1.047065e+003,1.887512e+001
1.048029e+003,1.689392e+001
1.048993e+003,1.652295e+001
1.049958e+003,1.538220e+001
1.050922e+003,1.199719e+001
1.051886e+003,9.687622e+000
1.052850e+003,1.259265e+001
1.053814e+003,1.783386e+001
1.054779e+003,2.190149e+001
1.055743e+003,2.388586e+001
1.056707e+003,2.483545e+001
1.057671e+003,2.603040e+001
1.058636e+003,2.734033e+001
1.059600e+003,2.841675e+001
1.060564e+003,3.082202e+001
1.061528e+003,3.244165e+001
1.062493e+003,3.143689e+001
1.063457e+003,2.925073e+001
1.064421e+003,2.854517e+001
1.065385e+003,2.978113e+001
1.066349e+003,2.894934e+001
1.067314e+003,2.137634e+001
1.068278e+003,1.438757e+001
1.069242e+003,1.382178e+001
1.070206e+003,1.735266e+001
1.071171e+003,2.119385e+001
1.072135e+003,2.329065e+001
1.073099e+003,2.374231e+001
1.074063e+003,2.311731e+001
1.075028e+003,2.149292e+001
1.075992e+003,2.135425e+001
1.076956e+003,2.324658e+001
1.077920e+003,2.436951e+001
1.078885e+003,2.488416e+001
1.079849e+003,2.447241e+001
1.080813e+003,2.119958e+001
1.081777e+003,1.399585e+001
1.082741e+003,9.102295e+000
1.083706e+003,1.088953e+001
1.084670e+003,1.360046e+001
1.085634e+003,1.391638e+001
1.086598e+003,1.278455e+001
1.087563e+003,1.353186e+001
1.088527e+003,1.799988e+001
1.089491e+003,2.337976e+001
1.090455e+003,2.273120e+001
1.091420e+003,1.468689e+001
1.092384e+003,1.104346e+001
1.093348e+003,1.409473e+001
1.094312e+003,1.629041e+001
1.095276e+003,1.252441e+001
1.096241e+003,5.337280e+000
1.097205e+003,1.649292e+000
1.098169e+003,2.967773e+000
1.099133e+003,4.191528e+000
1.100098e+003,2.366455e+000
1.101062e+003,1.337036e+000
1.102026e+003,4.491455e+000
1.102990e+003,1.050867e+001
1.103955e+003,1.581567e+001
1.104919e+003,1.812305e+001
1.105883e+003,1.823877e+001
1.106847e+003,1.807849e+001
1.107812e+003,1.753503e+001
1.108776e+003,1.688818e+001
1.109740e+003,1.594519e+001
1.110704e+003,1.534180e+001
1.111668e+003,1.576086e+001
1.112633e+003,1.762891e+001
1.113597e+003,2.154272e+001
1.114561e+003,2.891626e+001
1.115525e+003,3.373401e+001
1.116490e+003,3.313232e+001
1.117454e+003,3.062610e+001
1.118418e+003,2.727380e+001
1.119382e+003,2.481958e+001
1.120347e+003,2.594019e+001
1.121311e+003,3.173706e+001
1.122275e+003,3.839709e+001
1.123239e+003,3.972278e+001
1.124203e+003,3.678235e+001
1.125168e+003,3.368457e+001
1.126132e+003,3.009387e+001
1.127096e+003,2.850232e+001
1.128060e+003,3.123901e+001
1.129025e+003,3.723071e+001
1.129989e+003,4.249902e+001
1.130953e+003,4.654260e+001
1.131917e+003,4.969519e+001
1.132882e+003,5.195886e+001
1.133846e+003,5.416248e+001
1.134810e+003,5.690356e+001
1.135774e+003,6.009570e+001
1.136739e+003,6.289539e+001
1.137703e+003,6.482275e+001
1.138667e+003,6.732715e+001
1.139631e+003,7.344104e+001
1.140595e+003,8.276929e+001
1.141560e+003,9.130493e+001
1.142524e+003,9.802881e+001
1.143488e+003,1.088799e+002
1.144452e+003,1.303079e+002
1.145417e+003,1.589362e+002
1.146381e+003,1.815964e+002
1.147345e+003,1.941471e+002
1.148309e+003,2.103909e+002
1.149274e+003,2.346862e+002
1.150238e+003,2.627936e+002
1.151202e+003,2.956277e+002
1.152166e+003,3.305751e+002
1.153130e+003,3.643069e+002
1.154095e+003,3.943856e+002
1.155059e+003,4.183909e+002
1.156023e+003,4.340951e+002
1.156987e+003,4.411602e+002
1.157952e+003,4.401022e+002
1.158916e+003,4.313319e+002
1.159880e+003,4.197106e+002
1.160844e+003,4.072374e+002
1.161809e+003,3.915657e+002
1.162773e+003,3.686893e+002
1.163737e+003,3.373381e+002
1.164701e+003,3.048861e+002
1.165666e+003,2.699774e+002
1.166630e+003,2.386290e+002
1.167594e+003,2.131877e+002
1.168558e+003,1.924716e+002
1.169522e+003,1.745818e+002
1.170487e+003,1.590708e+002
1.171451e+003,1.479961e+002
1.172415e+003,1.440513e+002
1.173379e+003,1.456241e+002
1.174344e+003,1.451244e+002
1.175308e+003,1.428278e+002
1.176272e+003,1.398138e+002
1.177236e+003,1.362729e+002
1.178201e+003,1.327239e+002
1.179165e+003,1.296243e+002
1.180129e+003,1.265234e+002
1.181093e+003,1.220891e+002
1.182057e+003,1.159226e+002
1.183022e+003,1.091569e+002
1.183986e+003,1.013618e+002
1.184950e+003,9.392664e+001
1.185914e+003,8.774634e+001
1.186879e+003,8.345984e+001
1.187843e+003,8.213489e+001
1.188807e+003,8.452844e+001
1.189771e+003,8.893640e+001
1.190736e+003,9.087292e+001
1.191700e+003,8.994702e+001
1.192664e+003,8.986133e+001
1.193628e+003,9.262195e+001
1.194593e+003,9.485620e+001
1.195557e+003,9.347888e+001
1.196521e+003,8.938013e+001
1.197485e+003,8.645740e+001
1.198449e+003,8.645654e+001
1.199414e+003,8.424927e+001
1.200378e+003,7.504163e+001
1.201342e+003,6.523694e+001
1.202306e+003,5.809534e+001
1.203271e+003,5.336414e+001
1.204235e+003,5.043250e+001
1.205199e+003,4.878577e+001
1.206163e+003,4.671912e+001
1.207128e+003,4.094678e+001
1.208092e+003,3.124304e+001
1.209056e+003,2.482019e+001
1.210020e+003,2.388464e+001
1.210984e+003,2.137927e+001
1.211949e+003,1.425977e+001
1.212913e+003,4.861816e+000
1.213877e+003,-4.123657e+000
1.214841e+003,-1.225623e+001
1.215806e+003,-1.864136e+001
1.216770e+003,-2.204077e+001
1.217734e+003,-2.530347e+001
1.218698e+003,-3.199988e+001
1.219663e+003,-3.933508e+001
1.220627e+003,-4.330310e+001
1.221591e+003,-4.358679e+001
1.222555e+003,-4.311316e+001
1.223520e+003,-4.447864e+001
1.224484e+003,-4.705725e+001
1.225448e+003,-4.898376e+001
1.226412e+003,-5.012793e+001
1.227376e+003,-5.112134e+001
1.228341e+003,-5.235010e+001
1.229305e+003,-5.340796e+001
1.230269e+003,-5.400232e+001
1.231233e+003,-5.435376e+001
1.232198e+003,-5.449878e+001
1.233162e+003,-5.413745e+001
1.234126e+003,-5.416504e+001
1.235090e+003,-5.615149e+001
1.236055e+003,-5.877783e+001
1.237019e+003,-6.120776e+001
1.237983e+003,-6.309729e+001
1.238947e+003,-6.283984e+001
1.239911e+003,-5.953589e+001
1.240876e+003,-5.518286e+001
1.241840e+003,-5.314001e+001
1.242804e+003,-5.354895e+001
1.243768e+003,-5.303943e+001
1.244733e+003,-5.001831e+001
1.245697e+003,-4.817908e+001
1.246661e+003,-4.943335e+001
1.247625e+003,-5.154028e+001
1.248590e+003,-5.267090e+001
1.249554e+003,-5.243042e+001
1.250518e+003,-5.129749e+001
1.251482e+003,-4.977332e+001
1.252447e+003,-4.801904e+001
1.253411e+003,-4.548022e+001
1.254375e+003,-4.232617e+001
1.255339e+003,-3.933972e+001
1.256303e+003,-3.633228e+001
1.257268e+003,-3.348523e+001
1.258232e+003,-3.147693e+001
1.259196e+003,-3.026135e+001
1.260160e+003,-2.889172e+001
1.261125e+003,-2.688635e+001
1.262089e+003,-2.454858e+001
1.263053e+003,-2.284363e+001
1.264017e+003,-2.070154e+001
1.264982e+003,-1.695618e+001
1.265946e+003,-1.290869e+001
1.266910e+003,-9.273682e+000
1.267874e+003,-6.555908e+000
1.268839e+003,-5.549316e+000
1.269803e+003,-6.778687e+000
1.270767e+003,-9.262451e+000
1.271731e+003,-1.106433e+001
1.272695e+003,-1.197205e+001
1.273660e+003,-1.331018e+001
1.274624e+003,-1.579370e+001
1.275588e+003,-1.931323e+001
1.276552e+003,-2.400781e+001
1.277517e+003,-2.864294e+001
1.278481e+003,-3.135950e+001
1.279445e+003,-3.210303e+001
1.280409e+003,-3.302332e+001
1.281374e+003,-3.540112e+001
1.282338e+003,-3.703210e+001
1.283302e+003,-3.558862e+001
1.284266e+003,-3.371106e+001
1.285230e+003,-3.508057e+001
1.286195e+003,-3.962268e+001
1.287159e+003,-4.355603e+001
1.288123e+003,-4.352075e+001
1.289087e+003,-4.109631e+001
1.290052e+003,-4.230811e+001
1.291016e+003,-4.930078e+001
1.291980e+003,-5.382751e+001
1.292944e+003,-5.587292e+001
1.293909e+003,-5.673755e+001
1.294873e+003,-5.595544e+001
1.295837e+003,-5.396118e+001
1.296801e+003,-5.063135e+001
1.297766e+003,-4.632544e+001
1.298730e+003,-4.489783e+001
1.299694e+003,-5.042847e+001
1.300658e+003,-5.659924e+001
1.301622e+003,-5.469067e+001
1.302587e+003,-4.891211e+001
1.303551e+003,-4.641675e+001
1.304515e+003,-4.807239e+001
1.305479e+003,-4.966394e+001
1.306444e+003,-4.795752e+001
1.307408e+003,-4.428894e+001
1.308372e+003,-4.253638e+001
1.309336e+003,-4.362402e+001
1.310301e+003,-4.392188e+001
1.311265e+003,-4.065466e+001
1.312229e+003,-3.918115e+001
1.313193e+003,-4.344312e+001
1.314157e+003,-4.894275e+001
1.315122e+003,-5.060742e+001
1.316086e+003,-4.842798e+001
1.317050e+003,-4.592151e+001
1.318014e+003,-4.507690e+001
1.318979e+003,-4.542737e+001
1.319943e+003,-4.693701e+001
1.320907e+003,-4.914954e+001
1.321871e+003,-5.032336e+001
1.322836e+003,-5.123059e+001
1.323800e+003,-5.068701e+001
1.324764e+003,-4.708020e+001
1.325728e+003,-4.192004e+001
1.326693e+003,-3.767566e+001
1.327657e+003,-3.470972e+001
1.328621e+003,-3.361035e+001
1.329585e+003,-3.404126e+001
1.330549e+003,-3.417505e+001
1.331514e+003,-3.466125e+001
1.332478e+003,-3.551343e+001
1.333442e+003,-3.599146e+001
1.334406e+003,-3.608496e+001
1.335371e+003,-3.687122e+001
1.336335e+003,-3.894653e+001
1.337299e+003,-4.089319e+001
1.338263e+003,-4.007849e+001
1.339228e+003,-3.607300e+001
1.340192e+003,-3.309363e+001
1.341156e+003,-3.157764e+001
1.342120e+003,-3.039453e+001
1.343084e+003,-2.952527e+001
1.344049e+003,-2.978796e+001
1.345013e+003,-3.213538e+001
1.345977e+003,-3.543237e+001
1.346941e+003,-3.695239e+001
1.347906e+003,-3.568335e+001
1.348870e+003,-3.407837e+001
1.349834e+003,-3.474255e+001
1.350798e+003,-3.675134e+001
1.351763e+003,-3.740881e+001
1.352727e+003,-3.690234e+001
1.353691e+003,-3.758386e+001
1.354655e+003,-4.075940e+001
1.355620e+003,-4.355078e+001
1.356584e+003,-4.138672e+001
1.357548e+003,-3.493689e+001
1.358512e+003,-3.250684e+001
1.359476e+003,-3.760608e+001
1.360441e+003,-4.010242e+001
1.361405e+003,-3.374170e+001
1.362369e+003,-2.766821e+001
1.363333e+003,-2.631982e+001
1.364298e+003,-2.803979e+001
1.365262e+003,-3.045569e+001
1.366226e+003,-3.262573e+001
1.367190e+003,-3.440356e+001
1.368155e+003,-3.563916e+001
1.369119e+003,-3.673120e+001
1.370083e+003,-3.901318e+001
1.371047e+003,-4.325525e+001
1.372011e+003,-4.360510e+001
1.372976e+003,-3.662781e+001
1.373940e+003,-3.165002e+001
1.374904e+003,-3.389270e+001
1.375868e+003,-3.835547e+001
1.376833e+003,-3.860571e+001
1.377797e+003,-3.468958e+001
1.378761e+003,-3.121594e+001
1.379725e+003,-3.001843e+001
1.380690e+003,-2.962146e+001
1.381654e+003,-2.878735e+001
1.382618e+003,-2.743823e+001
1.383582e+003,-2.546252e+001
1.384547e+003,-2.292224e+001
1.385511e+003,-2.001343e+001
1.386475e+003,-1.678088e+001
1.387439e+003,-1.435730e+001
1.388403e+003,-1.493384e+001
1.389368e+003,-1.855334e+001
1.390332e+003,-2.038965e+001
1.391296e+003,-1.865259e+001
1.392260e+003,-1.775342e+001
1.393225e+003,-1.996021e+001
1.394189e+003,-2.208960e+001
1.395153e+003,-2.172168e+001
1.396117e+003,-2.030017e+001
1.397082e+003,-2.053674e+001
1.398046e+003,-2.271204e+001
1.399010e+003,-2.443323e+001
1.399974e+003,-2.381628e+001
1.400938e+003,-2.204614e+001
1.401903e+003,-2.104248e+001
1.402867e+003,-1.949719e+001
1.403831e+003,-1.792493e+001
1.404795e+003,-1.701965e+001
1.405760e+003,-1.653394e+001
1.406724e+003,-1.822217e+001
1.407688e+003,-2.083972e+001
1.408652e+003,-2.157776e+001
1.409617e+003,-2.009082e+001
1.410581e+003,-1.879724e+001
1.411545e+003,-1.880249e+001
1.412509e+003,-1.848633e+001
1.413474e+003,-1.583862e+001
1.414438e+003,-1.314392e+001
1.415402e+003,-1.349817e+001
1.416366e+003,-1.601160e+001
1.417330e+003,-1.781299e+001
1.418295e+003,-1.783899e+001
1.419259e+003,-1.654932e+001
1.420223e+003,-1.379114e+001
1.421187e+003,-1.048193e+001
1.422152e+003,-1.111768e+001
1.423116e+003,-1.751318e+001
1.424080e+003,-2.001563e+001
1.425044e+003,-1.246362e+001
1.426009e+003,-5.358887e+000
1.426973e+003,-3.041382e+000
1.427937e+003,-3.625488e+000
1.428901e+003,-5.126709e+000
1.429865e+003,-6.502319e+000
1.430830e+003,-7.221924e+000
1.431794e+003,-7.177490e+000
1.432758e+003,-6.346558e+000
1.433722e+003,-3.844238e+000
1.434687e+003,1.376709e+000
1.435651e+003,5.494751e+000
1.436615e+003,4.425171e+000
1.437579e+003,4.589844e+000
1.438544e+003,8.707642e+000
1.439508e+003,1.250061e+001
1.440472e+003,1.316980e+001
1.441436e+003,1.210376e+001
1.442401e+003,1.162122e+001
1.443365e+003,1.216516e+001
1.444329e+003,1.306055e+001
1.445293e+003,1.404297e+001
1.446257e+003,1.519592e+001
1.447222e+003,1.702271e+001
1.448186e+003,1.892078e+001
1.449150e+003,1.713525e+001
1.450114e+003,9.918579e+000
1.451079e+003,4.051392e+000
1.452043e+003,4.897705e+000
1.453007e+003,8.431274e+000
1.453971e+003,8.126709e+000
1.454936e+003,4.399292e+000
1.455900e+003,3.226074e+000
1.456864e+003,7.037842e+000
1.457828e+003,1.033765e+001
1.458792e+003,8.885498e+000
1.459757e+003,5.815430e+000
1.460721e+003,3.109009e+000
1.461685e+003,9.447021e-001
1.462649e+003,-1.264648e-001
1.463614e+003,8.178711e-002
1.464578e+003,-1.342773e-002
1.465542e+003,-2.385986e+000
1.466506e+003,-5.732178e+000
1.467471e+003,-5.076050e+000
1.468435e+003,1.321777e+000
1.469399e+003,6.242310e+000
1.470363e+003,8.311890e+000
1.471328e+003,8.785400e+000
1.472292e+003,5.501343e+000
1.473256e+003,1.996460e+000
1.474220e+003,1.695313e+000
1.475184e+003,4.109741e+000
1.476149e+003,7.209229e+000
1.477113e+003,9.820190e+000
1.478077e+003,1.208667e+001
1.479041e+003,1.460803e+001
1.480006e+003,1.735315e+001
1.480970e+003,1.899731e+001
1.481934e+003,1.884729e+001
1.482898e+003,1.780176e+001
1.483863e+003,1.342700e+001
1.484827e+003,1.140967e+001
1.485791e+003,1.571008e+001
1.486755e+003,2.179309e+001
1.487719e+003,2.478748e+001
1.488684e+003,2.543323e+001
1.489648e+003,2.757227e+001
1.490612e+003,3.268103e+001
1.491576e+003,3.886914e+001
1.492541e+003,4.471863e+001
1.493505e+003,4.973059e+001
1.494469e+003,5.189197e+001
1.495433e+003,5.137085e+001
1.496398e+003,5.356580e+001
1.497362e+003,6.077100e+001
1.498326e+003,6.842151e+001
1.499290e+003,7.276099e+001
1.500255e+003,7.699792e+001
1.501219e+003,8.585376e+001
1.502183e+003,9.849353e+001
1.503147e+003,1.100762e+002
1.504111e+003,1.190533e+002
1.505076e+003,1.294343e+002
1.506040e+003,1.434199e+002
1.507004e+003,1.604041e+002
1.507968e+003,1.802191e+002
1.508933e+003,2.020605e+002
1.509897e+003,2.237888e+002
1.510861e+003,2.460165e+002
1.511825e+003,2.726094e+002
1.512790e+003,3.059829e+002
1.513754e+003,3.439108e+002
1.514718e+003,3.838602e+002
1.515682e+003,4.252642e+002
1.516646e+003,4.649458e+002
1.517611e+003,5.032782e+002
1.518575e+003,5.399995e+002
1.519539e+003,5.779744e+002
1.520503e+003,6.123845e+002
1.521468e+003,6.425588e+002
1.522432e+003,6.660479e+002
1.523396e+003,6.800663e+002
1.524360e+003,6.841371e+002
1.525325e+003,6.792426e+002
1.526289e+003,6.661895e+002
1.527253e+003,6.472058e+002
1.528217e+003,6.258689e+002
1.529182e+003,6.026635e+002
1.530146e+003,5.763552e+002
1.531110e+003,5.479205e+002
1.532074e+003,5.131178e+002
1.533039e+003,4.687961e+002
1.534003e+003,4.196069e+002
1.534967e+003,3.656467e+002
1.535931e+003,3.116748e+002
1.536896e+003,2.599214e+002
1.537860e+003,2.130057e+002
1.538824e+003,1.756979e+002
1.539788e+003,1.497842e+002
1.540752e+003,1.296996e+002
1.541717e+003,1.083258e+002
1.542681e+003,8.718127e+001
1.543645e+003,7.366956e+001
1.544609e+003,7.178418e+001
1.545573e+003,6.943323e+001
1.546538e+003,6.501367e+001
1.547502e+003,6.058850e+001
1.548466e+003,5.645862e+001
1.549430e+003,5.448499e+001
1.550395e+003,5.775256e+001
1.551359e+003,6.391187e+001
1.552323e+003,6.677075e+001
1.553287e+003,6.435828e+001
1.554252e+003,6.041895e+001
1.555216e+003,5.826001e+001
1.556180e+003,5.639099e+001
1.557144e+003,5.091052e+001
1.558109e+003,4.190857e+001
1.559073e+003,3.493909e+001
1.560037e+003,2.929736e+001
1.561001e+003,2.561487e+001
1.561966e+003,2.585132e+001
1.562930e+003,2.801660e+001
1.563894e+003,3.025098e+001
1.564858e+003,3.222021e+001
1.565823e+003,3.364868e+001
1.566787e+003,3.447229e+001
1.567751e+003,3.577100e+001
1.568715e+003,3.867297e+001
1.569679e+003,4.143726e+001
1.570644e+003,4.101379e+001
1.571608e+003,3.829346e+001
1.572572e+003,3.694177e+001
1.573536e+003,3.743958e+001
1.574500e+003,3.907678e+001
1.575465e+003,4.291455e+001
1.576429e+003,4.533191e+001
1.577393e+003,4.035803e+001
1.578357e+003,3.283850e+001
1.579322e+003,3.437463e+001
1.580286e+003,4.501257e+001
1.581250e+003,5.221570e+001
1.582214e+003,5.141199e+001
1.583179e+003,4.938525e+001
1.584143e+003,5.123181e+001
1.585107e+003,5.379016e+001
1.586071e+003,5.330249e+001
1.587036e+003,5.115491e+001
1.588000e+003,4.948291e+001
1.588964e+003,4.825110e+001
1.589928e+003,4.834827e+001
1.590893e+003,5.170337e+001
1.591857e+003,5.564307e+001
1.592821e+003,5.539929e+001
1.593785e+003,5.197961e+001
1.594750e+003,5.059509e+001
1.595714e+003,5.168140e+001
1.596678e+003,5.434497e+001
1.597642e+003,5.884277e+001
1.598606e+003,6.411292e+001
1.599571e+003,7.085730e+001
1.600535e+003,7.728259e+001
1.601499e+003,7.995984e+001
1.602463e+003,7.941272e+001
1.603427e+003,8.029102e+001
1.604392e+003,8.483704e+001
1.605356e+003,8.881372e+001
1.606320e+003,8.683826e+001
1.607284e+003,8.139307e+001
1.608249e+003,7.986011e+001
1.609213e+003,8.240515e+001
1.610177e+003,8.418762e+001
1.611141e+003,8.477380e+001
1.612106e+003,8.370532e+001
1.613070e+003,7.879358e+001
1.614034e+003,7.379504e+001
1.614998e+003,7.075366e+001
1.615963e+003,6.985449e+001
1.616927e+003,7.200842e+001
1.617891e+003,7.658960e+001
1.618855e+003,7.977600e+001
1.619820e+003,7.886670e+001
1.620784e+003,7.599219e+001
1.621748e+003,7.535474e+001
1.622712e+003,7.716541e+001
1.623677e+003,7.756299e+001
1.624641e+003,7.616016e+001
1.625605e+003,7.593079e+001
1.626569e+003,7.673987e+001
1.627533e+003,7.722290e+001
1.628498e+003,7.788013e+001
1.629462e+003,7.823975e+001
1.630426e+003,7.693933e+001
1.631390e+003,7.496704e+001
1.632354e+003,7.455310e+001
1.633319e+003,7.617334e+001
1.634283e+003,7.903662e+001
1.635247e+003,8.292261e+001
1.636211e+003,8.622888e+001
1.637176e+003,8.558472e+001
1.638140e+003,8.162158e+001
1.639104e+003,8.071448e+001
1.640068e+003,8.406775e+001
1.641033e+003,8.534290e+001
1.641997e+003,8.132202e+001
1.642961e+003,7.787817e+001
1.643925e+003,7.851050e+001
1.644890e+003,8.046289e+001
1.645854e+003,8.098816e+001
1.646818e+003,8.027307e+001
1.647782e+003,7.972839e+001
1.648747e+003,7.973621e+001
1.649711e+003,7.958569e+001
1.650675e+003,7.877319e+001
1.651639e+003,7.834778e+001
1.652604e+003,8.033118e+001
1.653568e+003,8.428149e+001
1.654532e+003,8.603125e+001
1.655496e+003,8.496045e+001
1.656460e+003,8.317078e+001
1.657425e+003,8.111743e+001
1.658389e+003,7.909045e+001
1.659353e+003,7.721716e+001
1.660317e+003,7.537195e+001
1.661281e+003,7.326086e+001
1.662246e+003,7.087598e+001
1.663210e+003,6.876440e+001
1.664174e+003,6.725269e+001
1.665138e+003,6.543005e+001
1.666103e+003,6.178796e+001
1.667067e+003,5.777173e+001
1.668031e+003,5.730847e+001
1.668995e+003,6.018640e+001
1.669960e+003,6.106958e+001
1.670924e+003,5.918237e+001
1.671888e+003,5.769385e+001
1.672852e+003,5.758423e+001
1.673817e+003,5.746863e+001
1.674781e+003,5.632593e+001
1.675745e+003,5.474048e+001
1.676709e+003,5.287354e+001
1.677674e+003,5.112292e+001
1.678638e+003,5.088550e+001
1.679602e+003,5.258203e+001
1.680566e+003,5.365979e+001
1.681531e+003,5.246362e+001
1.682495e+003,4.977197e+001
1.683459e+003,4.539160e+001
1.684423e+003,3.963159e+001
1.685387e+003,3.674438e+001
1.686352e+003,3.757788e+001
1.687316e+003,3.908557e+001
1.688280e+003,4.103198e+001
1.689244e+003,4.200366e+001
1.690208e+003,3.946899e+001
1.691173e+003,3.611951e+001
1.692137e+003,3.542920e+001
1.693101e+003,3.707813e+001
1.694065e+003,3.876709e+001
1.695030e+003,3.954517e+001
1.695994e+003,3.823621e+001
1.696958e+003,3.261902e+001
1.697922e+003,2.697021e+001
1.698887e+003,2.753809e+001
1.699851e+003,3.240906e+001
1.700815e+003,3.581677e+001
1.701779e+003,3.694617e+001
1.702744e+003,3.472363e+001
1.703708e+003,2.818860e+001
1.704672e+003,2.325977e+001
1.705636e+003,2.440588e+001
1.706601e+003,2.791211e+001
1.707565e+003,3.005237e+001
1.708529e+003,3.096631e+001
1.709493e+003,2.901184e+001
1.710458e+003,2.344910e+001
1.711422e+003,1.947864e+001
1.712386e+003,2.050403e+001
1.713350e+003,2.314478e+001
1.714314e+003,2.490808e+001
1.715279e+003,2.546143e+001
1.716243e+003,2.408496e+001
1.717207e+003,2.141162e+001
1.718171e+003,2.039197e+001
1.719135e+003,2.195020e+001
1.720100e+003,2.320923e+001
1.721064e+003,2.194849e+001
1.722028e+003,1.956177e+001
1.722992e+003,1.850903e+001
1.723957e+003,1.901086e+001
1.724921e+003,1.900891e+001
1.725885e+003,1.733606e+001
1.726849e+003,1.678479e+001
1.727814e+003,2.097900e+001
1.728778e+003,2.396582e+001
1.729742e+003,2.155090e+001
1.730706e+003,1.789429e+001
1.731671e+003,1.678650e+001
1.732635e+003,1.678662e+001
1.733599e+003,1.527527e+001
1.734563e+003,1.244287e+001
1.735528e+003,1.002026e+001
1.736492e+003,8.685181e+000
1.737456e+003,8.552734e+000
1.738420e+003,9.999878e+000
1.739385e+003,1.187659e+001
1.740349e+003,1.124365e+001
1.741313e+003,7.461304e+000
1.742277e+003,6.409302e+000
1.743241e+003,1.153992e+001
1.744206e+003,1.466077e+001
1.745170e+003,1.374585e+001
1.746134e+003,1.119727e+001
1.747098e+003,6.050781e+000
1.748063e+003,1.604492e+000
1.749027e+003,2.607300e+000
1.749991e+003,7.552734e+000
1.750955e+003,1.164270e+001
1.751919e+003,1.288147e+001
1.752884e+003,1.177075e+001
1.753848e+003,8.678223e+000
1.754812e+003,4.635254e+000
1.755776e+003,2.177368e+000
1.756741e+003,1.671387e+000
1.757705e+003,8.032227e-002
1.758669e+003,-5.086304e+000
1.759633e+003,-5.048950e+000
1.760598e+003,7.307861e+000
1.761562e+003,1.510193e+001
1.762526e+003,1.043701e+001
1.763490e+003,3.567749e+000
1.764455e+003,2.895508e-001
1.765419e+003,5.656738e-001
1.766383e+003,4.339233e+000
1.767347e+003,1.019385e+001
1.768312e+003,1.451025e+001
1.769276e+003,1.546338e+001
1.770240e+003,1.365698e+001
1.771204e+003,9.303955e+000
1.772168e+003,4.561768e+000
1.773133e+003,3.693726e+000
1.774097e+003,6.271118e+000
1.775061e+003,8.389648e+000
1.776025e+003,9.276001e+000
1.776990e+003,8.621582e+000
1.777954e+003,6.136963e+000
1.778918e+003,4.214600e+000
1.779882e+003,4.328125e+000
1.780846e+003,5.231079e+000
1.781811e+003,5.789063e+000
1.782775e+003,6.264404e+000
1.783739e+003,7.097168e+000
1.784703e+003,8.509644e+000
1.785668e+003,1.046960e+001
1.786632e+003,1.351526e+001
1.787596e+003,1.511438e+001
1.788560e+003,1.343787e+001
1.789525e+003,1.052271e+001
1.790489e+003,7.764893e+000
1.791453e+003,5.531860e+000
1.792417e+003,5.614868e+000
1.793382e+003,8.070679e+000
1.794346e+003,9.279541e+000
1.795310e+003,7.127197e+000
1.796274e+003,4.531982e+000
1.797239e+003,5.220581e+000
1.798203e+003,8.746948e+000
1.799167e+003,1.196313e+001
1.800131e+003,1.407104e+001
1.801095e+003,1.401050e+001
1.802060e+003,9.835815e+000
1.803024e+003,8.785645e+000
1.803988e+003,1.538843e+001
1.804952e+003,1.979675e+001
1.805917e+003,1.454358e+001
1.806881e+003,7.212524e+000
1.807845e+003,6.427490e+000
1.808809e+003,9.933960e+000
1.809773e+003,1.072058e+001
1.810738e+003,7.671997e+000
1.811702e+003,5.665283e+000
1.812666e+003,7.675415e+000
1.813630e+003,1.117554e+001
1.814595e+003,1.276575e+001
1.815559e+003,1.288074e+001
1.816523e+003,1.432751e+001
1.817487e+003,1.759595e+001
1.818452e+003,1.759143e+001
1.819416e+003,1.276965e+001
1.820380e+003,1.000232e+001
1.821344e+003,1.245020e+001
1.822309e+003,1.447961e+001
1.823273e+003,1.263220e+001
1.824237e+003,9.623047e+000
1.825201e+003,7.098877e+000
1.826166e+003,5.429443e+000
1.827130e+003,5.712769e+000
1.828094e+003,7.902222e+000
1.829058e+003,1.028308e+001
1.830022e+003,1.280005e+001
1.830987e+003,1.450330e+001
1.831951e+003,1.437390e+001
1.832915e+003,1.314148e+001
1.833879e+003,1.151135e+001
1.834844e+003,9.697144e+000
1.835808e+003,7.748047e+000
1.836772e+003,5.963501e+000
1.837736e+003,6.288574e+000
1.838700e+003,9.428589e+000
1.839665e+003,1.230127e+001
1.840629e+003,1.215796e+001
1.841593e+003,1.063159e+001
1.842557e+003,1.084509e+001
1.843522e+003,1.274304e+001
1.844486e+003,1.412610e+001
1.845450e+003,1.519751e+001
1.846414e+003,1.660742e+001
1.847379e+003,1.769250e+001
1.848343e+003,1.835718e+001
1.849307e+003,1.957568e+001
1.850271e+003,1.990381e+001
1.851236e+003,1.774243e+001
1.852200e+003,1.488635e+001
1.853164e+003,1.300903e+001
1.854128e+003,1.202002e+001
1.855093e+003,1.197510e+001
1.856057e+003,1.308899e+001
1.857021e+003,1.400421e+001
1.857985e+003,1.330005e+001
1.858949e+003,1.149011e+001
1.859914e+003,8.782593e+000
1.860878e+003,5.937378e+000
1.861842e+003,7.254456e+000
1.862806e+003,1.271179e+001
1.863771e+003,1.586621e+001
1.864735e+003,1.478967e+001
1.865699e+003,1.451141e+001
1.866663e+003,1.802972e+001
1.867627e+003,2.240161e+001
1.868592e+003,2.541040e+001
1.869556e+003,2.636243e+001
1.870520e+003,2.420026e+001
1.871484e+003,1.941833e+001
1.872449e+003,1.545166e+001
1.873413e+003,1.358484e+001
1.874377e+003,1.440198e+001
1.875341e+003,1.843915e+001
1.876306e+003,2.227625e+001
1.877270e+003,2.410742e+001
1.878234e+003,2.454871e+001
1.879198e+003,2.414581e+001
1.880163e+003,2.327148e+001
1.881127e+003,2.190063e+001
1.882091e+003,2.061328e+001
1.883055e+003,2.113440e+001
1.884020e+003,2.396027e+001
1.884984e+003,2.727856e+001
1.885948e+003,2.952759e+001
1.886912e+003,3.054724e+001
1.887876e+003,2.989661e+001
1.888841e+003,2.778534e+001
1.889805e+003,2.587415e+001
1.890769e+003,2.377893e+001
1.891733e+003,2.426782e+001
1.892698e+003,2.876715e+001
1.893662e+003,3.204004e+001
1.894626e+003,3.219714e+001
1.895590e+003,3.113062e+001
1.896554e+003,2.913379e+001
1.897519e+003,2.786469e+001
1.898483e+003,2.959070e+001
1.899447e+003,3.301331e+001
1.900411e+003,3.529944e+001
1.901376e+003,3.622870e+001
1.902340e+003,3.496906e+001
1.903304e+003,2.892480e+001
1.904268e+003,2.401538e+001
1.905233e+003,2.490417e+001
1.906197e+003,2.802863e+001
1.907161e+003,3.042810e+001
1.908125e+003,3.218628e+001
1.909090e+003,3.330322e+001
1.910054e+003,3.372156e+001
1.911018e+003,3.381329e+001
1.911982e+003,3.403564e+001
1.912947e+003,3.498853e+001
1.913911e+003,3.697302e+001
1.914875e+003,3.935150e+001
1.915839e+003,4.098730e+001
1.916803e+003,4.159619e+001
1.917768e+003,4.185205e+001
1.918732e+003,4.233008e+001
1.919696e+003,4.063580e+001
1.920660e+003,3.543811e+001
1.921625e+003,3.276990e+001
1.922589e+003,3.503650e+001
1.923553e+003,3.753333e+001
1.924517e+003,3.736554e+001
1.925481e+003,3.689307e+001
1.926446e+003,3.917883e+001
1.927410e+003,4.234033e+001
1.928374e+003,4.123749e+001
1.929338e+003,3.590491e+001
1.930303e+003,3.479553e+001
1.931267e+003,4.248633e+001
1.932231e+003,4.899487e+001
1.933195e+003,4.854620e+001
1.934160e+003,4.585779e+001
1.935124e+003,4.350879e+001
1.936088e+003,4.126978e+001
1.937052e+003,3.909637e+001
1.938017e+003,3.738031e+001
1.938981e+003,3.657349e+001
1.939945e+003,3.651929e+001
1.940909e+003,3.619409e+001
1.941874e+003,3.520917e+001
1.942838e+003,3.569653e+001
1.943802e+003,4.024048e+001
1.944766e+003,4.661609e+001
1.945730e+003,4.940210e+001
1.946695e+003,4.861432e+001
1.947659e+003,4.697046e+001
1.948623e+003,4.425012e+001
1.949587e+003,4.146387e+001
1.950552e+003,3.859052e+001
1.951516e+003,3.743030e+001
1.952480e+003,3.936133e+001
1.953444e+003,4.135034e+001
1.954408e+003,4.047095e+001
1.955373e+003,3.869122e+001
1.956337e+003,3.939026e+001
1.957301e+003,4.249170e+001
1.958265e+003,4.657898e+001
1.959230e+003,5.212030e+001
1.960194e+003,5.480206e+001
1.961158e+003,5.169519e+001
1.962122e+003,4.759314e+001
1.963087e+003,4.234497e+001
1.964051e+003,3.835272e+001
1.965015e+003,3.698999e+001
1.965979e+003,3.844849e+001
1.966944e+003,4.450183e+001
1.967908e+003,5.172668e+001
1.968872e+003,5.424579e+001
1.969836e+003,5.225061e+001
1.970801e+003,5.084155e+001
1.971765e+003,5.222522e+001
1.972729e+003,5.393585e+001
1.973693e+003,5.363525e+001
1.974657e+003,5.310242e+001
1.975622e+003,5.527734e+001
1.976586e+003,5.888342e+001
1.977550e+003,6.135065e+001
1.978514e+003,6.271912e+001
1.979479e+003,6.224829e+001
1.980443e+003,5.990259e+001
1.981407e+003,5.848315e+001
1.982371e+003,5.922882e+001
1.983335e+003,6.131970e+001
1.984300e+003,6.416309e+001
1.985264e+003,6.604260e+001
1.986228e+003,6.430817e+001
1.987192e+003,5.995520e+001
1.988157e+003,5.835352e+001
1.989121e+003,6.043127e+001
1.990085e+003,6.150195e+001
1.991049e+003,6.121893e+001
1.992014e+003,6.121484e+001
1.992978e+003,6.152771e+001
1.993942e+003,6.179089e+001
1.994906e+003,6.157440e+001
1.995871e+003,6.161761e+001
1.996835e+003,6.342419e+001
1.997799e+003,6.558679e+001
1.998763e+003,6.531445e+001
1.999728e+003,6.289423e+001
