5.003444e+002,4.123021e+001
5.013087e+002,4.208682e+001
5.022729e+002,4.052216e+001
5.032371e+002,3.731789e+001
5.042014e+002,3.443217e+001
5.051656e+002,3.198293e+001
5.061298e+002,3.105402e+001
5.070941e+002,3.288728e+001
5.080583e+002,3.838965e+001
5.090225e+002,4.085751e+001
5.099868e+002,3.919125e+001
5.109510e+002,3.674464e+001
5.119152e+002,3.503851e+001
5.128795e+002,3.418712e+001
5.138437e+002,3.362117e+001
5.148079e+002,3.352333e+001
5.157722e+002,3.338136e+001
5.167364e+002,3.298170e+001
5.177006e+002,3.223540e+001
5.186649e+002,3.112781e+001
5.196291e+002,2.929829e+001
5.205933e+002,2.761470e+001
5.215576e+002,2.682271e+001
5.225218e+002,2.693436e+001
5.234860e+002,2.781883e+001
5.244503e+002,2.945744e+001
5.254145e+002,3.242194e+001
5.263787e+002,3.391380e+001
5.273430e+002,3.319756e+001
5.283072e+002,3.152551e+001
5.292714e+002,3.061473e+001
5.302357e+002,3.091727e+001
5.311999e+002,3.056429e+001
5.321641e+002,2.889609e+001
5.331284e+002,2.721088e+001
5.340926e+002,2.682840e+001
5.350568e+002,2.829675e+001
5.360211e+002,2.911052e+001
5.369853e+002,2.604044e+001
5.379495e+002,2.207884e+001
5.389138e+002,1.973792e+001
5.398780e+002,1.989705e+001
5.408422e+002,2.146011e+001
5.418065e+002,2.141855e+001
5.427707e+002,2.002934e+001
5.437349e+002,1.905220e+001
5.446992e+002,1.894666e+001
5.456634e+002,1.951628e+001
5.466276e+002,2.011957e+001
5.475919e+002,2.094247e+001
5.485561e+002,2.165257e+001
5.495203e+002,2.242487e+001
5.504846e+002,2.292009e+001
5.514488e+002,2.272554e+001
5.524130e+002,2.174237e+001
5.533773e+002,2.000044e+001
5.543415e+002,1.676019e+001
5.553057e+002,1.336337e+001
5.562700e+002,1.128134e+001
5.572342e+002,1.138669e+001
5.581984e+002,1.270714e+001
5.591627e+002,1.299393e+001
5.601269e+002,1.270839e+001
5.610911e+002,1.273489e+001
5.620554e+002,1.354184e+001
5.630196e+002,1.489661e+001
5.639838e+002,1.505777e+001
5.649481e+002,1.274220e+001
5.659123e+002,1.111694e+001
5.668765e+002,1.126955e+001
5.678408e+002,1.266606e+001
5.688050e+002,1.357593e+001
5.697692e+002,1.296458e+001
5.707335e+002,1.229814e+001
5.716977e+002,1.204555e+001
5.726619e+002,1.209531e+001
5.736262e+002,1.236993e+001
5.745904e+002,1.293124e+001
5.755546e+002,1.330382e+001
5.765189e+002,1.255507e+001
5.774831e+002,1.102541e+001
5.784473e+002,9.344574e+000
5.794116e+002,7.999008e+000
5.803758e+002,7.051468e+000
5.813400e+002,6.427124e+000
5.823043e+002,5.788940e+000
5.832685e+002,5.675323e+000
5.842327e+002,7.011459e+000
5.851970e+002,9.490585e+000
5.861612e+002,1.058237e+001
5.871254e+002,7.636826e+000
5.880897e+002,5.639832e+000
5.890539e+002,6.128540e+000
5.900181e+002,8.022278e+000
5.909824e+002,9.549011e+000
5.919466e+002,9.785110e+000
5.929108e+002,8.912781e+000
5.938751e+002,6.517242e+000
5.948393e+002,3.647873e+000
5.958035e+002,2.215530e+000
5.967678e+002,3.586578e+000
5.977320e+002,7.196716e+000
5.986962e+002,7.939255e+000
5.996605e+002,5.699615e+000
6.006247e+002,3.681900e+000
6.015889e+002,3.694077e+000
6.025532e+002,5.553009e+000
6.035174e+002,6.293259e+000
6.044816e+002,4.185699e+000
6.054459e+002,2.820908e+000
6.064101e+002,3.193436e+000
6.073743e+002,4.568542e+000
6.083386e+002,5.582825e+000
6.093028e+002,5.518372e+000
6.102670e+002,5.009964e+000
6.112313e+002,4.213776e+000
6.121955e+002,3.483093e+000
6.131597e+002,3.428238e+000
6.141240e+002,4.435944e+000
6.150882e+002,6.047104e+000
6.160524e+002,6.110168e+000
6.170167e+002,4.963623e+000
6.179809e+002,4.105896e+000
6.189451e+002,4.256378e+000
6.199094e+002,5.196533e+000
6.208736e+002,5.647125e+000
6.218378e+002,5.288956e+000
6.228021e+002,4.992935e+000
6.237663e+002,4.951767e+000
6.247305e+002,5.022446e+000
6.256948e+002,4.822693e+000
6.266590e+002,3.836380e+000
6.276232e+002,3.186234e+000
6.285875e+002,4.026535e+000
6.295517e+002,5.379028e+000
6.305159e+002,6.125763e+000
6.314802e+002,5.648209e+000
6.324444e+002,4.441711e+000
6.334086e+002,3.928101e+000
6.343729e+002,4.003860e+000
6.353371e+002,4.420334e+000
6.363013e+002,5.187668e+000
6.372656e+002,6.011932e+000
6.382298e+002,5.912415e+000
6.391940e+002,3.685028e+000
6.401583e+002,1.972549e+000
6.411225e+002,1.242813e+000
6.420867e+002,1.043365e+000
6.430510e+002,7.949066e-001
6.440152e+002,2.891388e-001
6.449794e+002,-4.530182e-001
6.459437e+002,-1.884094e+000
6.469079e+002,-3.182724e+000
6.478721e+002,-3.514709e+000
6.488364e+002,-2.656982e+000
6.498006e+002,-1.278290e+000
6.507648e+002,-5.296478e-001
6.517291e+002,-2.816010e-001
6.526933e+002,-2.445221e-001
6.536575e+002,-3.913574e-001
6.546218e+002,-5.381775e-001
6.555860e+002,-2.755127e-001
6.565502e+002,9.551392e-001
6.575145e+002,1.240707e+000
6.584787e+002,-1.372375e-001
6.594429e+002,-1.737640e+000
6.604072e+002,-2.273056e+000
6.613714e+002,-1.439377e+000
6.623356e+002,-9.035187e-001
6.632999e+002,-1.895020e+000
6.642641e+002,-3.143799e+000
6.652283e+002,-4.048416e+000
6.661926e+002,-4.439896e+000
6.671568e+002,-4.473419e+000
6.681210e+002,-4.397888e+000
6.690853e+002,-4.095901e+000
6.700495e+002,-3.192352e+000
6.710137e+002,-1.711426e+000
6.719780e+002,-6.126404e-002
6.729422e+002,1.404358e+000
6.739064e+002,2.789703e+000
6.748707e+002,2.869232e+000
6.758349e+002,7.339478e-001
6.767991e+002,-1.294067e+000
6.777634e+002,-2.185654e+000
6.787276e+002,-1.947128e+000
6.796918e+002,-1.328125e+000
6.806561e+002,-4.335022e-002
6.816203e+002,7.308350e-001
6.825845e+002,2.787018e-001
6.835488e+002,-9.271545e-001
6.845130e+002,-2.176941e+000
6.854772e+002,-2.969482e+000
6.864415e+002,-3.208267e+000
6.874057e+002,-2.866486e+000
6.883699e+002,-2.173737e+000
6.893342e+002,-1.319748e+000
6.902984e+002,-3.564758e-001
6.912626e+002,6.990662e-001
6.922269e+002,1.519470e+000
6.931911e+002,2.491501e+000
6.941553e+002,2.971451e+000
6.951196e+002,2.562088e+000
6.960838e+002,1.556686e+000
6.970480e+002,3.760376e-001
6.980123e+002,-1.129517e+000
6.989765e+002,-1.991531e+000
6.999407e+002,-1.465408e+000
7.009050e+002,-6.017303e-001
7.018692e+002,-3.120117e-001
7.028334e+002,-8.687592e-001
7.037977e+002,-1.655060e+000
7.047619e+002,-1.435806e+000
7.057261e+002,-6.859283e-001
7.066904e+002,-7.876282e-001
7.076546e+002,-1.961960e+000
7.086188e+002,-3.185883e+000
7.095831e+002,-2.732071e+000
7.105473e+002,3.241882e-001
7.115115e+002,1.900604e+000
7.124758e+002,1.022278e+000
7.134400e+002,-1.053162e-001
7.144042e+002,-2.958679e-002
7.153685e+002,1.322281e+000
7.163327e+002,2.527649e+000
7.172969e+002,2.808289e+000
7.182612e+002,2.942871e+000
7.192254e+002,3.227661e+000
7.201896e+002,3.556351e+000
7.211539e+002,3.730408e+000
7.221181e+002,3.630646e+000
7.230823e+002,3.127823e+000
7.240466e+002,1.487152e+000
7.250108e+002,-8.350220e-001
7.259750e+002,-2.015274e+000
7.269393e+002,-8.369141e-001
7.279035e+002,2.131882e+000
7.288677e+002,3.034958e+000
7.298320e+002,-5.706940e-001
7.307962e+002,-2.816925e+000
7.317604e+002,-2.798203e+000
7.327247e+002,-1.398956e+000
7.336889e+002,3.523407e-001
7.346531e+002,2.421890e+000
7.356174e+002,3.350861e+000
7.365816e+002,1.709976e+000
7.375458e+002,-3.516998e-001
7.385101e+002,-1.124710e+000
7.394743e+002,-2.564850e-001
7.404385e+002,1.177887e+000
7.414028e+002,1.432709e+000
7.423670e+002,6.652222e-001
7.433312e+002,8.560486e-001
7.442955e+002,2.405243e+000
7.452597e+002,4.112885e+000
7.462239e+002,4.498581e+000
7.471882e+002,3.181625e+000
7.481524e+002,1.871490e+000
7.491166e+002,-3.366852e-001
7.500809e+002,-1.844772e+000
7.510451e+002,-1.726410e+000
7.520093e+002,-3.256531e-001
7.529736e+002,1.093231e+000
7.539378e+002,2.197067e+000
7.549020e+002,3.046158e+000
7.558663e+002,3.741211e+000
7.568306e+002,4.222504e+000
7.577948e+002,4.297241e+000
7.587590e+002,3.840042e+000
7.597233e+002,2.997879e+000
7.606875e+002,2.476059e+000
7.616517e+002,2.302246e+000
7.626160e+002,1.881561e+000
7.635802e+002,8.804016e-001
7.645444e+002,-2.074127e-001
7.655087e+002,-2.110138e-001
7.664729e+002,1.852768e+000
7.674371e+002,2.710999e+000
7.684014e+002,1.193085e+000
7.693656e+002,-4.991302e-001
7.703298e+002,-8.873901e-001
7.712941e+002,1.674652e-001
7.722583e+002,1.530502e+000
7.732225e+002,2.877151e+000
7.741868e+002,3.664093e+000
7.751510e+002,3.029465e+000
7.761152e+002,1.477295e+000
7.770795e+002,1.103821e-001
7.780437e+002,-1.124420e-001
7.790079e+002,6.861725e-001
7.799722e+002,2.072693e+000
7.809364e+002,4.244644e+000
7.819006e+002,5.613174e+000
7.828649e+002,5.069290e+000
7.838291e+002,3.344894e+000
7.847933e+002,2.909317e+000
7.857576e+002,5.382217e+000
7.867218e+002,6.043533e+000
7.876860e+002,2.321304e+000
7.886503e+002,-1.830200e+000
7.896145e+002,-2.764282e+000
7.905787e+002,3.138580e-001
7.915430e+002,4.209702e+000
7.925072e+002,5.561691e+000
7.934714e+002,5.582321e+000
7.944357e+002,5.579498e+000
7.953999e+002,5.751389e+000
7.963641e+002,5.860580e+000
7.973284e+002,5.596970e+000
7.982926e+002,4.951416e+000
7.992568e+002,4.019775e+000
8.002211e+002,1.882813e+000
8.011853e+002,5.176392e-001
8.021495e+002,1.436264e+000
8.031138e+002,4.074036e+000
8.040780e+002,5.943069e+000
8.050422e+002,6.337997e+000
8.060065e+002,5.882294e+000
8.069707e+002,3.927551e+000
8.079349e+002,1.746017e+000
8.088992e+002,7.835846e-001
8.098634e+002,1.498535e+000
8.108276e+002,2.786652e+000
8.117919e+002,3.022430e+000
8.127561e+002,2.416763e+000
8.137203e+002,1.699127e+000
8.146846e+002,1.070099e+000
8.156488e+002,5.356598e-001
8.166130e+002,-2.735901e-002
8.175773e+002,-7.903137e-001
8.185415e+002,-6.756134e-001
8.195057e+002,6.877441e-001
8.204700e+002,2.085297e+000
8.214342e+002,3.318161e+000
8.223984e+002,4.278641e+000
8.233627e+002,4.664673e+000
8.243269e+002,4.036484e+000
8.252911e+002,3.590668e+000
8.262554e+002,4.008423e+000
8.272196e+002,4.882446e+000
8.281838e+002,6.036057e+000
8.291481e+002,7.250565e+000
8.301123e+002,8.065750e+000
8.310765e+002,7.503845e+000
8.320408e+002,5.645828e+000
8.330050e+002,4.332474e+000
8.339692e+002,3.753998e+000
8.349335e+002,3.522812e+000
8.358977e+002,3.396713e+000
8.368619e+002,3.488586e+000
8.378262e+002,3.281799e+000
8.387904e+002,2.384109e+000
8.397546e+002,1.452652e+000
8.407189e+002,2.050629e-001
8.416831e+002,-8.419800e-001
8.426473e+002,-7.903290e-001
8.436116e+002,9.066467e-001
8.445758e+002,3.255875e+000
8.455400e+002,5.696106e+000
8.465043e+002,7.687210e+000
8.474685e+002,8.530655e+000
8.484327e+002,8.202454e+000
8.493970e+002,7.298248e+000
8.503612e+002,6.644608e+000
8.513254e+002,6.176254e+000
8.522897e+002,6.477127e+000
8.532539e+002,8.381378e+000
8.542181e+002,9.765915e+000
8.551824e+002,8.745834e+000
8.561466e+002,5.872253e+000
8.571108e+002,5.047195e+000
8.580751e+002,8.928925e+000
8.590393e+002,1.199368e+001
8.600035e+002,1.215788e+001
8.609678e+002,1.096872e+001
8.619320e+002,1.015442e+001
8.628962e+002,1.041867e+001
8.638605e+002,1.109581e+001
8.648247e+002,1.131610e+001
8.657889e+002,1.115054e+001
8.667532e+002,1.063817e+001
8.677174e+002,9.788788e+000
8.686816e+002,9.097656e+000
8.696459e+002,9.148972e+000
8.706101e+002,1.004251e+001
8.715743e+002,1.140907e+001
8.725386e+002,1.443878e+001
8.735028e+002,1.644250e+001
8.744670e+002,1.568500e+001
8.754313e+002,1.353575e+001
8.763955e+002,1.275932e+001
8.773597e+002,1.457626e+001
8.783240e+002,1.692816e+001
8.792882e+002,1.880693e+001
8.802524e+002,2.007930e+001
8.812167e+002,2.041284e+001
8.821809e+002,1.988312e+001
8.831451e+002,1.888603e+001
8.841094e+002,1.787369e+001
8.850736e+002,1.703139e+001
8.860378e+002,1.770921e+001
8.870021e+002,2.014963e+001
8.879663e+002,2.272067e+001
8.889305e+002,2.481020e+001
8.898948e+002,2.630295e+001
8.908590e+002,2.666983e+001
8.918232e+002,2.521777e+001
8.927875e+002,2.382310e+001
8.937517e+002,2.252574e+001
8.947159e+002,2.169463e+001
8.956802e+002,2.178838e+001
8.966444e+002,2.270966e+001
8.976086e+002,2.362445e+001
8.985729e+002,2.380403e+001
8.995371e+002,2.356339e+001
9.005013e+002,2.294385e+001
9.014656e+002,2.224753e+001
9.024298e+002,2.274428e+001
9.033940e+002,2.553084e+001
9.043583e+002,3.002399e+001
9.053225e+002,3.223186e+001
9.062867e+002,2.913000e+001
9.072510e+002,2.741832e+001
9.082152e+002,2.844971e+001
9.091794e+002,3.037300e+001
9.101437e+002,3.141629e+001
9.111079e+002,3.128844e+001
9.120721e+002,3.073322e+001
9.130364e+002,2.981009e+001
9.140006e+002,2.866594e+001
9.149648e+002,2.723982e+001
9.159291e+002,2.582692e+001
9.168933e+002,2.482013e+001
9.178575e+002,2.444646e+001
9.188218e+002,2.458730e+001
9.197860e+002,2.522911e+001
9.207502e+002,2.636853e+001
9.217145e+002,2.675307e+001
9.226787e+002,2.593556e+001
9.236429e+002,2.471535e+001
9.246072e+002,2.407967e+001
9.255714e+002,2.406451e+001
9.265356e+002,2.400246e+001
9.274999e+002,2.382802e+001
9.284641e+002,2.345171e+001
9.294283e+002,2.284622e+001
9.303926e+002,2.209135e+001
9.313568e+002,2.115552e+001
9.323210e+002,1.997406e+001
9.332853e+002,1.900999e+001
9.342495e+002,1.962416e+001
9.352137e+002,2.081615e+001
9.361780e+002,2.081487e+001
9.371422e+002,1.935054e+001
9.381064e+002,1.798679e+001
9.390707e+002,1.892694e+001
9.400349e+002,2.269270e+001
9.409991e+002,2.440903e+001
9.419634e+002,2.279538e+001
9.429276e+002,2.103722e+001
9.438918e+002,2.000830e+001
9.448561e+002,1.937560e+001
9.458203e+002,1.836517e+001
9.467845e+002,1.663170e+001
9.477488e+002,1.535204e+001
9.487130e+002,1.587892e+001
9.496772e+002,1.684047e+001
9.506415e+002,1.692221e+001
9.516057e+002,1.627174e+001
9.525699e+002,1.621992e+001
9.535342e+002,1.810484e+001
9.544984e+002,2.146945e+001
9.554626e+002,2.243808e+001
9.564269e+002,2.078377e+001
9.573911e+002,1.933304e+001
9.583553e+002,1.919553e+001
9.593196e+002,1.945728e+001
9.602838e+002,1.825247e+001
9.612480e+002,1.476692e+001
9.622123e+002,1.287178e+001
9.631765e+002,1.555077e+001
9.641407e+002,1.822935e+001
9.651050e+002,1.852293e+001
9.660692e+002,1.705199e+001
9.670334e+002,1.577550e+001
9.679977e+002,1.597829e+001
9.689619e+002,1.681418e+001
9.699261e+002,1.568916e+001
9.708904e+002,1.340146e+001
9.718546e+002,1.289680e+001
9.728188e+002,1.506238e+001
9.737831e+002,1.796527e+001
9.747473e+002,1.889088e+001
9.757115e+002,1.730823e+001
9.766758e+002,1.683305e+001
9.776400e+002,1.904504e+001
9.786042e+002,2.061104e+001
9.795685e+002,2.025987e+001
9.805327e+002,1.888239e+001
9.814969e+002,1.802112e+001
9.824612e+002,1.826263e+001
9.834254e+002,1.807307e+001
9.843896e+002,1.437566e+001
9.853539e+002,1.022971e+001
9.863181e+002,9.662079e+000
9.872823e+002,1.222517e+001
9.882466e+002,1.465692e+001
9.892108e+002,1.426590e+001
9.901750e+002,1.167584e+001
9.911393e+002,1.047160e+001
9.921035e+002,1.107829e+001
9.930677e+002,1.197516e+001
9.940320e+002,1.384825e+001
9.949962e+002,1.563232e+001
9.959604e+002,1.610651e+001
9.969247e+002,1.527299e+001
9.978889e+002,1.471065e+001
9.988531e+002,1.533957e+001
9.998174e+002,1.588374e+001
1.000782e+003,1.494553e+001
1.001746e+003,1.379674e+001
1.002710e+003,1.470622e+001
1.003674e+003,1.838049e+001
1.004639e+003,2.279108e+001
1.005603e+003,2.427760e+001
1.006567e+003,2.245897e+001
1.007531e+003,2.161455e+001
1.008495e+003,2.234972e+001
1.009460e+003,2.284645e+001
1.010424e+003,2.168488e+001
1.011388e+003,1.938771e+001
1.012352e+003,1.812143e+001
1.013317e+003,1.885385e+001
1.014281e+003,1.901369e+001
1.015245e+003,1.718149e+001
1.016209e+003,1.505417e+001
1.017174e+003,1.390298e+001
1.018138e+003,1.378294e+001
1.019102e+003,1.403329e+001
1.020066e+003,1.423907e+001
1.021031e+003,1.417609e+001
1.021995e+003,1.272586e+001
1.022959e+003,1.008861e+001
1.023923e+003,7.516022e+000
1.024887e+003,5.213562e+000
1.025852e+003,3.461884e+000
1.026816e+003,2.902588e+000
1.027780e+003,3.914261e+000
1.028744e+003,4.693375e+000
1.029709e+003,4.802307e+000
1.030673e+003,4.984467e+000
1.031637e+003,5.893936e+000
1.032601e+003,6.767380e+000
1.033566e+003,6.503967e+000
1.034530e+003,4.763214e+000
1.035494e+003,2.340607e+000
1.036458e+003,-8.744049e-001
1.037422e+003,-3.588730e+000
1.038387e+003,-3.021133e+000
1.039351e+003,4.978180e-001
1.040315e+003,3.840225e+000
1.041279e+003,4.696121e+000
1.042244e+003,3.593689e+000
1.043208e+003,2.940399e+000
1.044172e+003,3.240662e+000
1.045136e+003,2.907257e+000
1.046101e+003,9.962769e-001
1.047065e+003,-5.330811e-001
1.048029e+003,-3.341675e-002
1.048993e+003,1.993683e+000
1.049958e+003,3.479019e+000
1.050922e+003,3.396957e+000
1.051886e+003,2.838150e+000
1.052850e+003,2.627823e+000
1.053814e+003,2.760864e+000
1.054779e+003,3.445770e+000
1.055743e+003,4.612778e+000
1.056707e+003,5.781036e+000
1.057671e+003,6.426315e+000
1.058636e+003,6.526901e+000
1.059600e+003,5.393082e+000
1.060564e+003,9.302521e-001
1.061528e+003,-1.455215e+000
1.062493e+003,5.445709e-001
1.063457e+003,3.752304e+000
1.064421e+003,4.413193e+000
1.065385e+003,2.201172e+000
1.066349e+003,6.779633e-001
1.067314e+003,2.344894e+000
1.068278e+003,4.436539e+000
1.069242e+003,5.200912e+000
1.070206e+003,5.010330e+000
1.071171e+003,4.228607e+000
1.072135e+003,3.121689e+000
1.073099e+003,2.285889e+000
1.074063e+003,2.893158e+000
1.075028e+003,5.207550e+000
1.075992e+003,5.894241e+000
1.076956e+003,4.135391e+000
1.077920e+003,2.304382e+000
1.078885e+003,1.355942e+000
1.079849e+003,9.920349e-001
1.080813e+003,5.684967e-001
1.081777e+003,-3.521729e-002
1.082741e+003,-4.008331e-001
1.083706e+003,-4.596710e-001
1.084670e+003,-2.628021e-001
1.085634e+003,2.451782e-001
1.086598e+003,9.942474e-001
1.087563e+003,2.177582e+000
1.088527e+003,3.832642e+000
1.089491e+003,5.152115e+000
1.090455e+003,4.172592e+000
1.091420e+003,4.954834e-001
1.092384e+003,-1.174210e+000
1.093348e+003,-1.458282e-001
1.094312e+003,1.403687e+000
1.095276e+003,2.438858e+000
1.096241e+003,3.131851e+000
1.097205e+003,3.861252e+000
1.098169e+003,4.726517e+000
1.099133e+003,5.238525e+000
1.100098e+003,5.450516e+000
1.101062e+003,5.174332e+000
1.102026e+003,3.798676e+000
1.102990e+003,1.876556e+000
1.103955e+003,6.334381e-001
1.104919e+003,7.742767e-001
1.105883e+003,1.546768e+000
1.106847e+003,1.215759e+000
1.107812e+003,-2.076111e-001
1.108776e+003,2.725220e-002
1.109740e+003,3.141739e+000
1.110704e+003,5.628403e+000
1.111668e+003,4.224503e+000
1.112633e+003,6.724548e-002
1.113597e+003,-1.967560e+000
1.114561e+003,-6.562500e-001
1.115525e+003,8.233490e-001
1.116490e+003,1.431519e+000
1.117454e+003,1.870560e+000
1.118418e+003,2.970978e+000
1.119382e+003,4.380600e+000
1.120347e+003,4.828110e+000
1.121311e+003,3.471527e+000
1.122275e+003,1.382965e+000
1.123239e+003,1.010223e+000
1.124203e+003,2.384842e+000
1.125168e+003,3.919205e+000
1.126132e+003,5.627945e+000
1.127096e+003,7.255249e+000
1.128060e+003,8.979340e+000
1.129025e+003,1.047334e+001
1.129989e+003,9.906158e+000
1.130953e+003,5.376465e+000
1.131917e+003,2.845215e+000
1.132882e+003,5.645538e+000
1.133846e+003,8.996078e+000
1.134810e+003,9.665222e+000
1.135774e+003,8.454788e+000
1.136739e+003,8.088882e+000
1.137703e+003,1.008109e+001
1.138667e+003,1.305334e+001
1.139631e+003,1.465543e+001
1.140595e+003,1.496800e+001
1.141560e+003,1.523584e+001
1.142524e+003,1.532040e+001
1.143488e+003,1.630852e+001
1.144452e+003,1.930545e+001
1.145417e+003,2.377522e+001
1.146381e+003,2.751884e+001
1.147345e+003,2.957782e+001
1.148309e+003,3.336252e+001
1.149274e+003,4.155058e+001
1.150238e+003,4.974156e+001
1.151202e+003,5.587686e+001
1.152166e+003,6.036336e+001
1.153130e+003,6.444725e+001
1.154095e+003,6.859483e+001
1.155059e+003,7.189445e+001
1.156023e+003,7.320551e+001
1.156987e+003,7.254083e+001
1.157952e+003,7.071768e+001
1.158916e+003,6.780441e+001
1.159880e+003,6.447255e+001
1.160844e+003,6.104002e+001
1.161809e+003,5.710597e+001
1.162773e+003,5.180609e+001
1.163737e+003,4.469859e+001
1.164701e+003,3.825441e+001
1.165666e+003,3.324786e+001
1.166630e+003,2.903874e+001
1.167594e+003,2.553453e+001
1.168558e+003,2.261183e+001
1.169522e+003,1.992152e+001
1.170487e+003,1.751649e+001
1.171451e+003,1.647466e+001
1.172415e+003,1.837018e+001
1.173379e+003,2.215736e+001
1.174344e+003,2.195732e+001
1.175308e+003,1.763535e+001
1.176272e+003,1.404955e+001
1.177236e+003,1.293138e+001
1.178201e+003,1.322511e+001
1.179165e+003,1.386604e+001
1.180129e+003,1.480664e+001
1.181093e+003,1.493930e+001
1.182057e+003,1.365105e+001
1.183022e+003,1.215056e+001
1.183986e+003,1.062732e+001
1.184950e+003,9.327835e+000
1.185914e+003,8.446396e+000
1.186879e+003,8.048782e+000
1.187843e+003,8.185684e+000
1.188807e+003,8.883667e+000
1.189771e+003,9.935440e+000
1.190736e+003,1.095430e+001
1.191700e+003,1.200081e+001
1.192664e+003,1.202055e+001
1.193628e+003,1.002368e+001
1.194593e+003,8.263367e+000
1.195557e+003,8.737244e+000
1.196521e+003,1.073711e+001
1.197485e+003,1.180724e+001
1.198449e+003,1.148100e+001
1.199414e+003,1.059128e+001
1.200378e+003,9.119370e+000
1.201342e+003,7.589127e+000
1.202306e+003,5.979218e+000
1.203271e+003,4.589767e+000
1.204235e+003,4.197510e+000
1.205199e+003,5.067047e+000
1.206163e+003,6.124100e+000
1.207128e+003,5.452682e+000
1.208092e+003,2.929382e+000
1.209056e+003,1.704666e+000
1.210020e+003,2.405060e+000
1.210984e+003,2.910263e+000
1.211949e+003,2.670990e+000
1.212913e+003,1.845779e+000
1.213877e+003,5.140533e-001
1.214841e+003,-1.262909e+000
1.215806e+003,-2.881317e+000
1.216770e+003,-4.032776e+000
1.217734e+003,-5.139404e+000
1.218698e+003,-6.693878e+000
1.219663e+003,-8.339493e+000
1.220627e+003,-9.679932e+000
1.221591e+003,-1.060168e+001
1.222555e+003,-1.112480e+001
1.223520e+003,-1.124107e+001
1.224484e+003,-1.099707e+001
1.225448e+003,-1.076791e+001
1.226412e+003,-1.050609e+001
1.227376e+003,-1.043958e+001
1.228341e+003,-1.055818e+001
1.229305e+003,-1.092650e+001
1.230269e+003,-1.196205e+001
1.231233e+003,-1.317618e+001
1.232198e+003,-1.329340e+001
1.233162e+003,-1.186639e+001
1.234126e+003,-1.087447e+001
1.235090e+003,-1.226784e+001
1.236055e+003,-1.441925e+001
1.237019e+003,-1.592198e+001
1.237983e+003,-1.667493e+001
1.238947e+003,-1.620898e+001
1.239911e+003,-1.432466e+001
1.240876e+003,-1.239857e+001
1.241840e+003,-1.274779e+001
1.242804e+003,-1.558841e+001
1.243768e+003,-1.664465e+001
1.244733e+003,-1.394344e+001
1.245697e+003,-1.198448e+001
1.246661e+003,-1.147890e+001
1.247625e+003,-1.161459e+001
1.248590e+003,-1.206564e+001
1.249554e+003,-1.249295e+001
1.250518e+003,-1.222687e+001
1.251482e+003,-1.094052e+001
1.252447e+003,-9.650803e+000
1.253411e+003,-9.722778e+000
1.254375e+003,-1.048018e+001
1.255339e+003,-1.050395e+001
1.256303e+003,-9.722778e+000
1.257268e+003,-8.860519e+000
1.258232e+003,-8.383331e+000
1.259196e+003,-8.173843e+000
1.260160e+003,-7.833282e+000
1.261125e+003,-7.232483e+000
1.262089e+003,-6.881943e+000
1.263053e+003,-7.335907e+000
1.264017e+003,-7.565186e+000
1.264982e+003,-6.997711e+000
1.265946e+003,-6.287521e+000
1.266910e+003,-6.160690e+000
1.267874e+003,-6.540634e+000
1.268839e+003,-6.677780e+000
1.269803e+003,-6.060272e+000
1.270767e+003,-5.284042e+000
1.271731e+003,-5.537262e+000
1.272695e+003,-6.788086e+000
1.273660e+003,-8.101074e+000
1.274624e+003,-9.790070e+000
1.275588e+003,-1.095929e+001
1.276552e+003,-1.075418e+001
1.277517e+003,-9.737000e+000
1.278481e+003,-9.013000e+000
1.279445e+003,-8.678009e+000
1.280409e+003,-8.432159e+000
1.281374e+003,-8.067200e+000
1.282338e+003,-7.932663e+000
1.283302e+003,-8.574081e+000
1.284266e+003,-9.319870e+000
1.285230e+003,-9.081528e+000
1.286195e+003,-8.019028e+000
1.287159e+003,-7.531799e+000
1.288123e+003,-8.744705e+000
1.289087e+003,-1.099986e+001
1.290052e+003,-1.244597e+001
1.291016e+003,-1.303717e+001
1.291980e+003,-1.303961e+001
1.292944e+003,-1.209509e+001
1.293909e+003,-1.121547e+001
1.294873e+003,-1.072652e+001
1.295837e+003,-1.044447e+001
1.296801e+003,-1.014812e+001
1.297766e+003,-9.807358e+000
1.298730e+003,-9.502884e+000
1.299694e+003,-9.245972e+000
1.300658e+003,-9.227005e+000
1.301622e+003,-9.686829e+000
1.302587e+003,-1.041818e+001
1.303551e+003,-1.129434e+001
1.304515e+003,-1.220354e+001
1.305479e+003,-1.262064e+001
1.306444e+003,-1.203539e+001
1.307408e+003,-1.088449e+001
1.308372e+003,-1.064778e+001
1.309336e+003,-1.182137e+001
1.310301e+003,-1.238982e+001
1.311265e+003,-1.138988e+001
1.312229e+003,-1.077415e+001
1.313193e+003,-1.141214e+001
1.314157e+003,-1.254575e+001
1.315122e+003,-1.361057e+001
1.316086e+003,-1.434514e+001
1.317050e+003,-1.431770e+001
1.318014e+003,-1.314195e+001
1.318979e+003,-1.164224e+001
1.319943e+003,-1.153622e+001
1.320907e+003,-1.256380e+001
1.321871e+003,-1.261133e+001
1.322836e+003,-1.152411e+001
1.323800e+003,-1.005948e+001
1.324764e+003,-7.948212e+000
1.325728e+003,-6.017242e+000
1.326693e+003,-6.073563e+000
1.327657e+003,-8.242294e+000
1.328621e+003,-9.876175e+000
1.329585e+003,-1.004871e+001
1.330549e+003,-9.538681e+000
1.331514e+003,-8.850784e+000
1.332478e+003,-8.042099e+000
1.333442e+003,-6.798477e+000
1.334406e+003,-5.375290e+000
1.335371e+003,-4.568787e+000
1.336335e+003,-4.857712e+000
1.337299e+003,-5.966446e+000
1.338263e+003,-7.490967e+000
1.339228e+003,-9.593399e+000
1.340192e+003,-1.053665e+001
1.341156e+003,-9.450348e+000
1.342120e+003,-8.584869e+000
1.343084e+003,-8.441040e+000
1.344049e+003,-8.590256e+000
1.345013e+003,-8.529831e+000
1.345977e+003,-8.355148e+000
1.346941e+003,-8.772980e+000
1.347906e+003,-1.011151e+001
1.348870e+003,-1.098651e+001
1.349834e+003,-9.664139e+000
1.350798e+003,-7.449234e+000
1.351763e+003,-6.881927e+000
1.352727e+003,-7.698746e+000
1.353691e+003,-8.389389e+000
1.354655e+003,-8.399475e+000
1.355620e+003,-8.109192e+000
1.356584e+003,-7.855408e+000
1.357548e+003,-7.635452e+000
1.358512e+003,-7.719666e+000
1.359476e+003,-8.466949e+000
1.360441e+003,-8.854889e+000
1.361405e+003,-8.274170e+000
1.362369e+003,-7.587921e+000
1.363333e+003,-7.032059e+000
1.364298e+003,-6.715942e+000
1.365262e+003,-6.871933e+000
1.366226e+003,-7.430359e+000
1.367190e+003,-7.833450e+000
1.368155e+003,-7.568939e+000
1.369119e+003,-7.000854e+000
1.370083e+003,-7.348083e+000
1.371047e+003,-9.091827e+000
1.372011e+003,-9.371017e+000
1.372976e+003,-7.069885e+000
1.373940e+003,-5.012894e+000
1.374904e+003,-4.292374e+000
1.375868e+003,-4.274765e+000
1.376833e+003,-4.284622e+000
1.377797e+003,-4.246384e+000
1.378761e+003,-4.162292e+000
1.379725e+003,-3.908585e+000
1.380690e+003,-3.943237e+000
1.381654e+003,-5.214203e+000
1.382618e+003,-6.801941e+000
1.383582e+003,-7.534409e+000
1.384547e+003,-7.342209e+000
1.385511e+003,-6.290909e+000
1.386475e+003,-4.149933e+000
1.387439e+003,-2.190399e+000
1.388403e+003,-2.685486e+000
1.389368e+003,-5.633057e+000
1.390332e+003,-7.761948e+000
1.391296e+003,-8.817276e+000
1.392260e+003,-9.254471e+000
1.393225e+003,-8.843124e+000
1.394189e+003,-8.323212e+000
1.395153e+003,-8.358597e+000
1.396117e+003,-8.452057e+000
1.397082e+003,-7.462006e+000
1.398046e+003,-5.356247e+000
1.399010e+003,-3.642700e+000
1.399974e+003,-3.774475e+000
1.400938e+003,-5.227570e+000
1.401903e+003,-6.123764e+000
1.402867e+003,-6.113937e+000
1.403831e+003,-6.091782e+000
1.404795e+003,-6.513153e+000
1.405760e+003,-6.504898e+000
1.406724e+003,-5.473007e+000
1.407688e+003,-4.303482e+000
1.408652e+003,-3.895096e+000
1.409617e+003,-4.169083e+000
1.410581e+003,-4.700333e+000
1.411545e+003,-5.446152e+000
1.412509e+003,-5.749451e+000
1.413474e+003,-4.475815e+000
1.414438e+003,-2.797028e+000
1.415402e+003,-2.802322e+000
1.416366e+003,-4.149734e+000
1.417330e+003,-4.794235e+000
1.418295e+003,-3.756409e+000
1.419259e+003,-2.458237e+000
1.420223e+003,-2.545517e+000
1.421187e+003,-3.913162e+000
1.422152e+003,-5.959229e+000
1.423116e+003,-9.402435e+000
1.424080e+003,-1.080080e+001
1.425044e+003,-6.993790e+000
1.426009e+003,-3.453384e+000
1.426973e+003,-2.481689e+000
1.427937e+003,-3.012939e+000
1.428901e+003,-4.139664e+000
1.429865e+003,-5.273621e+000
1.430830e+003,-5.591812e+000
1.431794e+003,-4.609711e+000
1.432758e+003,-3.052689e+000
1.433722e+003,-2.255508e+000
1.434687e+003,-2.150146e+000
1.435651e+003,-2.194855e+000
1.436615e+003,-3.232544e+000
1.437579e+003,-3.661728e+000
1.438544e+003,-2.677353e+000
1.439508e+003,-1.654816e+000
1.440472e+003,-1.495071e+000
1.441436e+003,-1.884171e+000
1.442401e+003,-2.454758e+000
1.443365e+003,-3.000900e+000
1.444329e+003,-2.518188e+000
1.445293e+003,9.448242e-002
1.446257e+003,3.243027e+000
1.447222e+003,3.504211e+000
1.448186e+003,1.435440e+000
1.449150e+003,8.691406e-002
1.450114e+003,-1.784515e-001
1.451079e+003,-2.808228e-001
1.452043e+003,-6.648560e-001
1.453007e+003,-1.057114e+000
1.453971e+003,-1.042023e+000
1.454936e+003,-7.214813e-001
1.455900e+003,-7.732849e-001
1.456864e+003,-1.535599e+000
1.457828e+003,-1.826324e+000
1.458792e+003,-3.588104e-001
1.459757e+003,1.220856e+000
1.460721e+003,1.546783e+000
1.461685e+003,9.564209e-001
1.462649e+003,1.078033e-001
1.463614e+003,-7.186127e-001
1.464578e+003,-1.161331e+000
1.465542e+003,-8.348236e-001
1.466506e+003,-1.214600e-001
1.467471e+003,-1.313171e-001
1.468435e+003,-9.819794e-001
1.469399e+003,-1.521240e+000
1.470363e+003,-1.585144e+000
1.471328e+003,-1.659698e+000
1.472292e+003,-2.319427e+000
1.473256e+003,-2.732407e+000
1.474220e+003,-1.876266e+000
1.475184e+003,-2.773743e-001
1.476149e+003,8.739777e-001
1.477113e+003,1.167770e+000
1.478077e+003,1.264893e+000
1.479041e+003,1.881546e+000
1.480006e+003,2.707977e+000
1.480970e+003,2.509613e+000
1.481934e+003,8.668823e-001
1.482898e+003,-3.930511e-001
1.483863e+003,-1.318192e+000
1.484827e+003,-1.868683e+000
1.485791e+003,-2.244659e+000
1.486755e+003,-1.932602e+000
1.487719e+003,1.811218e-002
1.488684e+003,2.911743e+000
1.489648e+003,5.053619e+000
1.490612e+003,5.932816e+000
1.491576e+003,6.058578e+000
1.492541e+003,5.624161e+000
1.493505e+003,4.992813e+000
1.494469e+003,4.951736e+000
1.495433e+003,5.366791e+000
1.496398e+003,6.065842e+000
1.497362e+003,7.181152e+000
1.498326e+003,8.504059e+000
1.499290e+003,9.938812e+000
1.500255e+003,1.148332e+001
1.501219e+003,1.293571e+001
1.502183e+003,1.439925e+001
1.503147e+003,1.673773e+001
1.504111e+003,2.035446e+001
1.505076e+003,2.369455e+001
1.506040e+003,2.539577e+001
1.507004e+003,2.696291e+001
1.507968e+003,2.989246e+001
1.508933e+003,3.380675e+001
1.509897e+003,3.792592e+001
1.510861e+003,4.221867e+001
1.511825e+003,4.710437e+001
1.512790e+003,5.295845e+001
1.513754e+003,5.917769e+001
1.514718e+003,6.463422e+001
1.515682e+003,6.925739e+001
1.516646e+003,7.424579e+001
1.517611e+003,8.000473e+001
1.518575e+003,8.559758e+001
1.519539e+003,9.132861e+001
1.520503e+003,9.635599e+001
1.521468e+003,1.009636e+002
1.522432e+003,1.041216e+002
1.523396e+003,1.039401e+002
1.524360e+003,1.007245e+002
1.525325e+003,9.692015e+001
1.526289e+003,9.418190e+001
1.527253e+003,9.194034e+001
1.528217e+003,8.917824e+001
1.529182e+003,8.596269e+001
1.530146e+003,8.205568e+001
1.531110e+003,7.764934e+001
1.532074e+003,7.195863e+001
1.533039e+003,6.422710e+001
1.534003e+003,5.585226e+001
1.534967e+003,4.669882e+001
1.535931e+003,3.806665e+001
1.536896e+003,3.148260e+001
1.537860e+003,2.678716e+001
1.538824e+003,2.247523e+001
1.539788e+003,1.779178e+001
1.540752e+003,1.393651e+001
1.541717e+003,1.265604e+001
1.542681e+003,1.345097e+001
1.543645e+003,1.279405e+001
1.544609e+003,9.794983e+000
1.545573e+003,7.834732e+000
1.546538e+003,7.372330e+000
1.547502e+003,7.083923e+000
1.548466e+003,6.332748e+000
1.549430e+003,5.847595e+000
1.550395e+003,6.607208e+000
1.551359e+003,8.190094e+000
1.552323e+003,9.396378e+000
1.553287e+003,9.799835e+000
1.554252e+003,9.700867e+000
1.555216e+003,9.351563e+000
1.556180e+003,8.653305e+000
1.557144e+003,7.189362e+000
1.558109e+003,4.966690e+000
1.559073e+003,3.572678e+000
1.560037e+003,3.222931e+000
1.561001e+003,3.076645e+000
1.561966e+003,2.948288e+000
1.562930e+003,3.025620e+000
1.563894e+003,3.687302e+000
1.564858e+003,4.548904e+000
1.565823e+003,4.581482e+000
1.566787e+003,3.638519e+000
1.567751e+003,2.898224e+000
1.568715e+003,3.097626e+000
1.569679e+003,3.641373e+000
1.570644e+003,3.869797e+000
1.571608e+003,3.735504e+000
1.572572e+003,2.916107e+000
1.573536e+003,1.405975e+000
1.574500e+003,1.439407e+000
1.575465e+003,4.820755e+000
1.576429e+003,8.196304e+000
1.577393e+003,8.622131e+000
1.578357e+003,7.193344e+000
1.579322e+003,5.689224e+000
1.580286e+003,4.385757e+000
1.581250e+003,4.473389e+000
1.582214e+003,6.767426e+000
1.583179e+003,8.770401e+000
1.584143e+003,8.172394e+000
1.585107e+003,6.625153e+000
1.586071e+003,6.817184e+000
1.587036e+003,8.112747e+000
1.588000e+003,7.866531e+000
1.588964e+003,5.306992e+000
1.589928e+003,3.603378e+000
1.590893e+003,5.539978e+000
1.591857e+003,8.865112e+000
1.592821e+003,1.032275e+001
1.593785e+003,1.013327e+001
1.594750e+003,9.234833e+000
1.595714e+003,7.442261e+000
1.596678e+003,6.709213e+000
1.597642e+003,8.541687e+000
1.598606e+003,1.062283e+001
1.599571e+003,1.076613e+001
1.600535e+003,1.028758e+001
1.601499e+003,1.116930e+001
1.602463e+003,1.316780e+001
1.603427e+003,1.423465e+001
1.604392e+003,1.344833e+001
1.605356e+003,1.235092e+001
1.606320e+003,1.282292e+001
1.607284e+003,1.409915e+001
1.608249e+003,1.358939e+001
1.609213e+003,1.119829e+001
1.610177e+003,1.035896e+001
1.611141e+003,1.259123e+001
1.612106e+003,1.401254e+001
1.613070e+003,1.122310e+001
1.614034e+003,8.329773e+000
1.614998e+003,8.723129e+000
1.615963e+003,1.091463e+001
1.616927e+003,1.220248e+001
1.617891e+003,1.219437e+001
1.618855e+003,1.226715e+001
1.619820e+003,1.331506e+001
1.620784e+003,1.417186e+001
1.621748e+003,1.285185e+001
1.622712e+003,9.951157e+000
1.623677e+003,8.641144e+000
1.624641e+003,9.151855e+000
1.625605e+003,1.014815e+001
1.626569e+003,1.174527e+001
1.627533e+003,1.274709e+001
1.628498e+003,1.211324e+001
1.629462e+003,1.125406e+001
1.630426e+003,1.119864e+001
1.631390e+003,1.188647e+001
1.632354e+003,1.337856e+001
1.633319e+003,1.546455e+001
1.634283e+003,1.657405e+001
1.635247e+003,1.535455e+001
1.636211e+003,1.305130e+001
1.637176e+003,1.190491e+001
1.638140e+003,1.188194e+001
1.639104e+003,1.182188e+001
1.640068e+003,1.146132e+001
1.641033e+003,1.191013e+001
1.641997e+003,1.484862e+001
1.642961e+003,1.669444e+001
1.643925e+003,1.454453e+001
1.644890e+003,1.146344e+001
1.645854e+003,1.030107e+001
1.646818e+003,1.084782e+001
1.647782e+003,1.197879e+001
1.648747e+003,1.325560e+001
1.649711e+003,1.433063e+001
1.650675e+003,1.498384e+001
1.651639e+003,1.527855e+001
1.652604e+003,1.528363e+001
1.653568e+003,1.495152e+001
1.654532e+003,1.385008e+001
1.655496e+003,1.146558e+001
1.656460e+003,1.014333e+001
1.657425e+003,1.171973e+001
1.658389e+003,1.298586e+001
1.659353e+003,1.155330e+001
1.660317e+003,9.432632e+000
1.661281e+003,8.870895e+000
1.662246e+003,9.548508e+000
1.663210e+003,9.955292e+000
1.664174e+003,9.616608e+000
1.665138e+003,9.085175e+000
1.666103e+003,8.659103e+000
1.667067e+003,8.518143e+000
1.668031e+003,9.518509e+000
1.668995e+003,1.150012e+001
1.669960e+003,1.161569e+001
1.670924e+003,9.142166e+000
1.671888e+003,7.071457e+000
1.672852e+003,6.026016e+000
1.673817e+003,5.967392e+000
1.674781e+003,7.788620e+000
1.675745e+003,9.821793e+000
1.676709e+003,9.862442e+000
1.677674e+003,8.469498e+000
1.678638e+003,7.996628e+000
1.679602e+003,9.160416e+000
1.680566e+003,9.959824e+000
1.681531e+003,8.606140e+000
1.682495e+003,6.395859e+000
1.683459e+003,5.411133e+000
1.684423e+003,5.473129e+000
1.685387e+003,5.841660e+000
1.686352e+003,6.572571e+000
1.687316e+003,6.771515e+000
1.688280e+003,5.746796e+000
1.689244e+003,4.891266e+000
1.690208e+003,5.908768e+000
1.691173e+003,7.136108e+000
1.692137e+003,6.198135e+000
1.693101e+003,3.955963e+000
1.694065e+003,3.535126e+000
1.695030e+003,5.714996e+000
1.695994e+003,7.337784e+000
1.696958e+003,6.066055e+000
1.697922e+003,3.803375e+000
1.698887e+003,2.757401e+000
1.699851e+003,2.706131e+000
1.700815e+003,3.130615e+000
1.701779e+003,3.922241e+000
1.702744e+003,4.147964e+000
1.703708e+003,3.438583e+000
1.704672e+003,2.738266e+000
1.705636e+003,2.665146e+000
1.706601e+003,2.856339e+000
1.707565e+003,2.822372e+000
1.708529e+003,2.732132e+000
1.709493e+003,3.176361e+000
1.710458e+003,4.347702e+000
1.711422e+003,4.746429e+000
1.712386e+003,2.983475e+000
1.713350e+003,1.272263e+000
1.714314e+003,1.416733e+000
1.715279e+003,2.617233e+000
1.716243e+003,3.937744e+000
1.717207e+003,5.118484e+000
1.718171e+003,5.399750e+000
1.719135e+003,4.589752e+000
1.720100e+003,3.776215e+000
1.721064e+003,3.731171e+000
1.722028e+003,3.771713e+000
1.722992e+003,2.836029e+000
1.723957e+003,1.240677e+000
1.724921e+003,3.786316e-001
1.725885e+003,1.393585e-001
1.726849e+003,4.308929e-001
1.727814e+003,2.063477e+000
1.728778e+003,3.353500e+000
1.729742e+003,3.476761e+000
1.730706e+003,2.982895e+000
1.731671e+003,2.093369e+000
1.732635e+003,1.008240e+000
1.733599e+003,1.287384e-001
1.734563e+003,-4.055023e-001
1.735528e+003,-5.639648e-001
1.736492e+003,-3.696899e-001
1.737456e+003,-5.190125e-001
1.738420e+003,-1.976776e+000
1.739385e+003,-4.160416e+000
1.740349e+003,-4.674667e+000
1.741313e+003,-3.084930e+000
1.742277e+003,-1.780701e+000
1.743241e+003,-5.803680e-001
1.744206e+003,1.851196e-001
1.745170e+003,2.070618e-002
1.746134e+003,-1.376190e-001
1.747098e+003,4.342194e-001
1.748063e+003,1.124161e+000
1.749027e+003,1.230209e+000
1.749991e+003,7.862244e-001
1.750955e+003,-1.080780e-001
1.751919e+003,-1.228043e+000
1.752884e+003,-1.584488e+000
1.753848e+003,-3.321228e-001
1.754812e+003,1.539459e+000
1.755776e+003,2.065598e+000
1.756741e+003,1.341660e+000
1.757705e+003,4.907227e-001
1.758669e+003,-9.193878e-001
1.759633e+003,-1.307419e+000
1.760598e+003,5.728302e-001
1.761562e+003,1.822006e+000
1.762526e+003,1.057617e+000
1.763490e+003,4.266357e-002
1.764455e+003,3.170776e-002
1.765419e+003,6.236572e-001
1.766383e+003,1.220596e+000
1.767347e+003,1.556900e+000
1.768312e+003,1.193481e+000
1.769276e+003,-1.158295e-001
1.770240e+003,-1.304138e+000
1.771204e+003,-8.433990e-001
1.772168e+003,3.049774e-001
1.773133e+003,-8.036194e-001
1.774097e+003,-3.774399e+000
1.775061e+003,-4.112457e+000
1.776025e+003,-9.689941e-001
1.776990e+003,1.132248e+000
1.777954e+003,4.495239e-001
1.778918e+003,-8.291779e-001
1.779882e+003,-1.190308e+000
1.780846e+003,-1.351547e+000
1.781811e+003,-2.672867e+000
1.782775e+003,-4.530457e+000
1.783739e+003,-4.666412e+000
1.784703e+003,-2.588806e+000
1.785668e+003,-6.289063e-001
1.786632e+003,6.985474e-001
1.787596e+003,8.709412e-001
1.788560e+003,-1.188324e+000
1.789525e+003,-3.972984e+000
1.790489e+003,-5.852058e+000
1.791453e+003,-6.621529e+000
1.792417e+003,-5.619438e+000
1.793382e+003,-2.988892e+000
1.794346e+003,-1.284958e+000
1.795310e+003,-1.946381e+000
1.796274e+003,-2.946793e+000
1.797239e+003,-1.801590e+000
1.798203e+003,6.847076e-001
1.799167e+003,1.626831e+000
1.800131e+003,5.665436e-001
1.801095e+003,1.579742e-001
1.802060e+003,1.567764e+000
1.803024e+003,1.955994e+000
1.803988e+003,-5.786133e-002
1.804952e+003,-1.869461e+000
1.805917e+003,-2.082611e+000
1.806881e+003,-1.646317e+000
1.807845e+003,-1.414139e+000
1.808809e+003,-1.389282e+000
1.809773e+003,-1.302216e+000
1.810738e+003,-1.105286e+000
1.811702e+003,-1.031448e+000
1.812666e+003,-1.219055e+000
1.813630e+003,-1.188217e+000
1.814595e+003,-1.010742e-001
1.815559e+003,1.478622e+000
1.816523e+003,8.884430e-001
1.817487e+003,-2.203110e+000
1.818452e+003,-3.341827e+000
1.819416e+003,-1.454544e+000
1.820380e+003,5.271912e-002
1.821344e+003,2.283783e-001
1.822309e+003,-2.733765e-001
1.823273e+003,-1.617310e+000
1.824237e+003,-2.899269e+000
1.825201e+003,-3.233521e+000
1.826166e+003,-2.782204e+000
1.827130e+003,-1.815903e+000
1.828094e+003,-4.502716e-001
1.829058e+003,2.344666e-001
1.830022e+003,-5.710907e-001
1.830987e+003,-1.467560e+000
1.831951e+003,-1.180252e+000
1.832915e+003,-3.644714e-001
1.833879e+003,1.259308e-001
1.834844e+003,2.866516e-001
1.835808e+003,2.170258e-001
1.836772e+003,-2.947998e-002
1.837736e+003,-3.069763e-001
1.838700e+003,-5.853119e-001
1.839665e+003,-8.070526e-001
1.840629e+003,-9.159851e-001
1.841593e+003,-8.181305e-001
1.842557e+003,-3.103333e-001
1.843522e+003,5.954590e-001
1.844486e+003,1.251236e+000
1.845450e+003,1.800003e+000
1.846414e+003,1.950546e+000
1.847379e+003,1.446991e+000
1.848343e+003,6.913910e-001
1.849307e+003,-8.741684e-001
1.850271e+003,-1.881035e+000
1.851236e+003,-7.376633e-001
1.852200e+003,1.233414e+000
1.853164e+003,2.166656e+000
1.854128e+003,1.927734e+000
1.855093e+003,1.326248e+000
1.856057e+003,7.739716e-001
1.857021e+003,1.866302e-001
1.857985e+003,-6.336441e-001
1.858949e+003,-1.133659e+000
1.859914e+003,1.528931e-001
1.860878e+003,2.728943e+000
1.861842e+003,3.513893e+000
1.862806e+003,2.427391e+000
1.863771e+003,1.358658e+000
1.864735e+003,5.040359e-001
1.865699e+003,6.175232e-002
1.866663e+003,3.095093e-001
1.867627e+003,7.348251e-001
1.868592e+003,8.110809e-001
1.869556e+003,6.990967e-001
1.870520e+003,9.215927e-001
1.871484e+003,1.373550e+000
1.872449e+003,1.254181e+000
1.873413e+003,3.008270e-001
1.874377e+003,1.878738e-001
1.875341e+003,2.153435e+000
1.876306e+003,3.786263e+000
1.877270e+003,3.313934e+000
1.878234e+003,2.303383e+000
1.879198e+003,2.401985e+000
1.880163e+003,3.190842e+000
1.881127e+003,3.845421e+000
1.882091e+003,4.116936e+000
1.883055e+003,3.797058e+000
1.884020e+003,2.867805e+000
1.884984e+003,1.909752e+000
1.885948e+003,1.451920e+000
1.886912e+003,1.307854e+000
1.887876e+003,1.064667e+000
1.888841e+003,7.825699e-001
1.889805e+003,1.218491e+000
1.890769e+003,2.543869e+000
1.891733e+003,3.738968e+000
1.892698e+003,4.974861e+000
1.893662e+003,5.259140e+000
1.894626e+003,3.419586e+000
1.895590e+003,1.669220e+000
1.896554e+003,1.779922e+000
1.897519e+003,2.694672e+000
1.898483e+003,3.253532e+000
1.899447e+003,3.415222e+000
1.900411e+003,3.393349e+000
1.901376e+003,3.230690e+000
1.902340e+003,3.115799e+000
1.903304e+003,3.165993e+000
1.904268e+003,3.182060e+000
1.905233e+003,3.070908e+000
1.906197e+003,2.887917e+000
1.907161e+003,2.414101e+000
1.908125e+003,2.076035e+000
1.909090e+003,3.016136e+000
1.910054e+003,4.762184e+000
1.911018e+003,5.151245e+000
1.911982e+003,3.676903e+000
1.912947e+003,2.417923e+000
1.913911e+003,2.882889e+000
1.914875e+003,3.835793e+000
1.915839e+003,3.232117e+000
1.916803e+003,1.527184e+000
1.917768e+003,1.426689e+000
1.918732e+003,3.306992e+000
1.919696e+003,4.643387e+000
1.920660e+003,5.485924e+000
1.921625e+003,5.562775e+000
1.922589e+003,3.989754e+000
1.923553e+003,2.893219e+000
1.924517e+003,4.211365e+000
1.925481e+003,5.779564e+000
1.926446e+003,5.445885e+000
1.927410e+003,4.086243e+000
1.928374e+003,3.339134e+000
1.929338e+003,3.308540e+000
1.930303e+003,3.795380e+000
1.931267e+003,5.196953e+000
1.932231e+003,5.987785e+000
1.933195e+003,4.847916e+000
1.934160e+003,3.478676e+000
1.935124e+003,2.895920e+000
1.936088e+003,2.926689e+000
1.937052e+003,3.851799e+000
1.938017e+003,5.076447e+000
1.938981e+003,5.146881e+000
1.939945e+003,4.104225e+000
1.940909e+003,3.429489e+000
1.941874e+003,3.764435e+000
1.942838e+003,4.335106e+000
1.943802e+003,4.468307e+000
1.944766e+003,4.508789e+000
1.945730e+003,5.205742e+000
1.946695e+003,6.310257e+000
1.947659e+003,5.735817e+000
1.948623e+003,3.182419e+000
1.949587e+003,2.342720e+000
1.950552e+003,4.048347e+000
1.951516e+003,5.844078e+000
1.952480e+003,7.227936e+000
1.953444e+003,7.810249e+000
1.954408e+003,6.595863e+000
1.955373e+003,5.067719e+000
1.956337e+003,5.818474e+000
1.957301e+003,8.112373e+000
1.958265e+003,9.063263e+000
1.959230e+003,8.466652e+000
1.960194e+003,7.804672e+000
1.961158e+003,6.995438e+000
1.962122e+003,6.363319e+000
1.963087e+003,5.650726e+000
1.964051e+003,5.587875e+000
1.965015e+003,7.823891e+000
1.965979e+003,9.941467e+000
1.966944e+003,8.648743e+000
1.967908e+003,5.652473e+000
1.968872e+003,4.453972e+000
1.969836e+003,5.418266e+000
1.970801e+003,6.935539e+000
1.971765e+003,8.213074e+000
1.972729e+003,8.608833e+000
1.973693e+003,7.338097e+000
1.974657e+003,5.609924e+000
1.975622e+003,5.151802e+000
1.976586e+003,5.648155e+000
1.977550e+003,6.492767e+000
1.978514e+003,7.588051e+000
1.979479e+003,8.518425e+000
1.980443e+003,9.181671e+000
1.981407e+003,9.202171e+000
1.982371e+003,8.427292e+000
1.983335e+003,7.705612e+000
1.984300e+003,7.658379e+000
1.985264e+003,7.869888e+000
1.986228e+003,7.747177e+000
1.987192e+003,7.354500e+000
1.988157e+003,6.994339e+000
1.989121e+003,6.550110e+000
1.990085e+003,6.942619e+000
1.991049e+003,9.130310e+000
1.992014e+003,1.028011e+001
1.992978e+003,9.031242e+000
1.993942e+003,8.031296e+000
1.994906e+003,8.425758e+000
1.995871e+003,9.136803e+000
1.996835e+003,9.500824e+000
1.997799e+003,9.645317e+000
1.998763e+003,9.691505e+000
1.999728e+003,9.676620e+000
