5.003444e+002,4.463098e+001
5.013087e+002,4.447574e+001
5.022729e+002,4.174246e+001
5.032371e+002,3.778198e+001
5.042014e+002,3.665430e+001
5.051656e+002,3.795932e+001
5.061298e+002,3.964673e+001
5.070941e+002,3.980280e+001
5.080583e+002,3.792972e+001
5.090225e+002,3.673608e+001
5.099868e+002,3.652991e+001
5.109510e+002,3.642508e+001
5.119152e+002,3.601532e+001
5.128795e+002,3.527985e+001
5.138437e+002,3.447443e+001
5.148079e+002,3.327698e+001
5.157722e+002,3.247592e+001
5.167364e+002,3.277365e+001
5.177006e+002,3.392511e+001
5.186649e+002,3.474448e+001
5.196291e+002,3.366733e+001
5.205933e+002,3.182077e+001
5.215576e+002,2.982095e+001
5.225218e+002,2.780862e+001
5.234860e+002,2.625714e+001
5.244503e+002,2.624579e+001
5.254145e+002,2.865845e+001
5.263787e+002,3.003510e+001
5.273430e+002,3.012842e+001
5.283072e+002,2.937793e+001
5.292714e+002,2.819592e+001
5.302357e+002,2.597333e+001
5.311999e+002,2.409491e+001
5.321641e+002,2.271582e+001
5.331284e+002,2.201340e+001
5.340926e+002,2.227505e+001
5.350568e+002,2.359076e+001
5.360211e+002,2.477292e+001
5.369853e+002,2.500851e+001
5.379495e+002,2.480777e+001
5.389138e+002,2.450644e+001
5.398780e+002,2.418674e+001
5.408422e+002,2.360904e+001
5.418065e+002,2.178207e+001
5.427707e+002,1.896445e+001
5.437349e+002,1.719183e+001
5.446992e+002,1.718411e+001
5.456634e+002,1.842325e+001
5.466276e+002,1.912924e+001
5.475919e+002,1.834229e+001
5.485561e+002,1.838181e+001
5.495203e+002,2.026636e+001
5.504846e+002,2.257825e+001
5.514488e+002,2.311447e+001
5.524130e+002,2.026007e+001
5.533773e+002,1.776929e+001
5.543415e+002,1.792264e+001
5.553057e+002,1.917743e+001
5.562700e+002,1.990750e+001
5.572342e+002,1.909833e+001
5.581984e+002,1.749500e+001
5.591627e+002,1.727975e+001
5.601269e+002,1.793533e+001
5.610911e+002,1.802649e+001
5.620554e+002,1.670578e+001
5.630196e+002,1.416312e+001
5.639838e+002,1.272321e+001
5.649481e+002,1.351102e+001
5.659123e+002,1.377902e+001
5.668765e+002,1.312698e+001
5.678408e+002,1.186099e+001
5.688050e+002,1.046478e+001
5.697692e+002,7.831665e+000
5.707335e+002,6.431610e+000
5.716977e+002,8.417358e+000
5.726619e+002,1.165616e+001
5.736262e+002,1.311938e+001
5.745904e+002,1.049838e+001
5.755546e+002,6.593445e+000
5.765189e+002,5.662872e+000
5.774831e+002,6.581726e+000
5.784473e+002,7.789795e+000
5.794116e+002,8.292358e+000
5.803758e+002,8.253845e+000
5.813400e+002,8.327637e+000
5.823043e+002,8.433197e+000
5.832685e+002,8.216217e+000
5.842327e+002,7.530487e+000
5.851970e+002,6.574738e+000
5.861612e+002,5.962463e+000
5.871254e+002,5.470917e+000
5.880897e+002,5.519226e+000
5.890539e+002,6.524902e+000
5.900181e+002,7.972198e+000
5.909824e+002,9.125549e+000
5.919466e+002,9.610168e+000
5.929108e+002,9.576996e+000
5.938751e+002,9.457947e+000
5.948393e+002,9.067810e+000
5.958035e+002,7.795776e+000
5.967678e+002,5.257324e+000
5.977320e+002,1.991302e+000
5.986962e+002,2.372009e+000
5.996605e+002,6.191528e+000
6.006247e+002,9.675873e+000
6.015889e+002,1.140405e+001
6.025532e+002,1.142090e+001
6.035174e+002,1.029980e+001
6.044816e+002,6.037689e+000
6.054459e+002,2.832184e+000
6.064101e+002,1.343689e+000
6.073743e+002,1.301422e+000
6.083386e+002,2.408691e+000
6.093028e+002,5.435699e+000
6.102670e+002,7.755066e+000
6.112313e+002,7.070892e+000
6.121955e+002,4.714233e+000
6.131597e+002,2.084717e+000
6.141240e+002,1.866150e-001
6.150882e+002,-7.927246e-001
6.160524e+002,8.193359e-001
6.170167e+002,4.611053e+000
6.179809e+002,7.907654e+000
6.189451e+002,9.427490e+000
6.199094e+002,9.256378e+000
6.208736e+002,8.652740e+000
6.218378e+002,7.156097e+000
6.228021e+002,6.076599e+000
6.237663e+002,5.684998e+000
6.247305e+002,5.790314e+000
6.256948e+002,6.104279e+000
6.266590e+002,6.633575e+000
6.276232e+002,6.660614e+000
6.285875e+002,5.581299e+000
6.295517e+002,4.237762e+000
6.305159e+002,3.598419e+000
6.314802e+002,4.099091e+000
6.324444e+002,5.013275e+000
6.334086e+002,4.303467e+000
6.343729e+002,2.600769e+000
6.353371e+002,1.021973e+000
6.363013e+002,-1.779175e-001
6.372656e+002,-9.294128e-001
6.382298e+002,-7.993164e-001
6.391940e+002,2.212738e+000
6.401583e+002,3.205597e+000
6.411225e+002,8.878479e-001
6.420867e+002,-2.504700e+000
6.430510e+002,-4.398163e+000
6.440152e+002,-3.932739e+000
6.449794e+002,-3.190186e+000
6.459437e+002,-3.577271e+000
6.469079e+002,-3.998535e+000
6.478721e+002,-3.084625e+000
6.488364e+002,-5.883179e-001
6.498006e+002,1.914063e+000
6.507648e+002,6.469421e-001
6.517291e+002,-2.768890e+000
6.526933e+002,-4.116211e+000
6.536575e+002,-2.550812e+000
6.546218e+002,7.547302e-001
6.555860e+002,3.659393e+000
6.565502e+002,6.449219e+000
6.575145e+002,7.829407e+000
6.584787e+002,7.756683e+000
6.594429e+002,6.577545e+000
6.604072e+002,4.138672e+000
6.613714e+002,2.319946e-001
6.623356e+002,-3.110443e+000
6.632999e+002,-5.539337e+000
6.642641e+002,-6.870544e+000
6.652283e+002,-6.327728e+000
6.661926e+002,-4.182709e+000
6.671568e+002,-1.491638e+000
6.681210e+002,5.957031e-001
6.690853e+002,1.945892e+000
6.700495e+002,2.660828e+000
6.710137e+002,2.765472e+000
6.719780e+002,2.335083e+000
6.729422e+002,1.291107e+000
6.739064e+002,-7.789612e-001
6.748707e+002,-1.107056e+000
6.758349e+002,1.739990e+000
6.767991e+002,4.089783e+000
6.777634e+002,4.295013e+000
6.787276e+002,2.688660e+000
6.796918e+002,1.306000e+000
6.806561e+002,9.886169e-001
6.816203e+002,5.943298e-001
6.825845e+002,-6.948242e-001
6.835488e+002,-2.281158e+000
6.845130e+002,-3.092743e+000
6.854772e+002,-2.250885e+000
6.864415e+002,-3.601990e-001
6.874057e+002,1.310303e+000
6.883699e+002,2.503174e+000
6.893342e+002,2.621613e+000
6.902984e+002,1.273346e+000
6.912626e+002,-1.186554e+000
6.922269e+002,-2.627533e+000
6.931911e+002,-1.900909e+000
6.941553e+002,-1.265625e+000
6.951196e+002,-1.526001e+000
6.960838e+002,-2.020050e+000
6.970480e+002,-1.419037e+000
6.980123e+002,1.171692e+000
6.989765e+002,3.489105e+000
6.999407e+002,5.168274e+000
7.009050e+002,5.877930e+000
7.018692e+002,4.745117e+000
7.028334e+002,1.772003e+000
7.037977e+002,-1.442596e+000
7.047619e+002,-1.866547e+000
7.057261e+002,-5.913391e-001
7.066904e+002,-2.230835e-001
7.076546e+002,-1.176849e+000
7.086188e+002,-2.426422e+000
7.095831e+002,-2.301514e+000
7.105473e+002,-2.233276e-001
7.115115e+002,1.200989e+000
7.124758e+002,2.263489e+000
7.134400e+002,2.483795e+000
7.144042e+002,9.424438e-001
7.153685e+002,-2.198486e+000
7.163327e+002,-4.029144e+000
7.172969e+002,-1.441925e+000
7.182612e+002,1.190796e+000
7.192254e+002,1.997528e+000
7.201896e+002,1.335358e+000
7.211539e+002,2.922363e-001
7.221181e+002,-2.917175e-001
7.230823e+002,-3.464661e-001
7.240466e+002,5.626526e-001
7.250108e+002,2.261169e+000
7.259750e+002,3.484802e+000
7.269393e+002,3.340515e+000
7.279035e+002,1.810913e+000
7.288677e+002,8.016968e-002
7.298320e+002,-2.866791e+000
7.307962e+002,-4.011292e+000
7.317604e+002,-1.649841e+000
7.327247e+002,2.075287e+000
7.336889e+002,3.873230e+000
7.346531e+002,2.113831e+000
7.356174e+002,1.969299e-001
7.365816e+002,1.007874e+000
7.375458e+002,2.291473e+000
7.385101e+002,1.849060e+000
7.394743e+002,-5.723267e-001
7.404385e+002,-2.981781e+000
7.414028e+002,-1.979919e+000
7.423670e+002,1.204742e+000
7.433312e+002,1.860016e+000
7.442955e+002,-2.935486e-001
7.452597e+002,-2.936371e+000
7.462239e+002,-3.497345e+000
7.471882e+002,-1.452911e+000
7.481524e+002,1.985779e-001
7.491166e+002,1.060913e+000
7.500809e+002,1.634003e+000
7.510451e+002,1.762665e+000
7.520093e+002,1.718597e+000
7.529736e+002,2.557587e+000
7.539378e+002,6.241577e+000
7.549020e+002,8.889557e+000
7.558663e+002,7.306763e+000
7.568306e+002,3.557922e+000
7.577948e+002,1.973877e-001
7.587590e+002,-1.225281e+000
7.597233e+002,-1.157227e+000
7.606875e+002,-6.787109e-002
7.616517e+002,1.982025e+000
7.626160e+002,3.434448e+000
7.635802e+002,3.866272e+000
7.645444e+002,3.582581e+000
7.655087e+002,3.036713e+000
7.664729e+002,1.660858e+000
7.674371e+002,1.269958e+000
7.684014e+002,2.424286e+000
7.693656e+002,3.934357e+000
7.703298e+002,5.290131e+000
7.712941e+002,6.351868e+000
7.722583e+002,6.936249e+000
7.732225e+002,6.701385e+000
7.741868e+002,6.035767e+000
7.751510e+002,4.983459e+000
7.761152e+002,3.789276e+000
7.770795e+002,2.929443e+000
7.780437e+002,2.812286e+000
7.790079e+002,3.253723e+000
7.799722e+002,2.625793e+000
7.809364e+002,5.797119e-001
7.819006e+002,-2.027893e-001
7.828649e+002,2.576752e+000
7.838291e+002,7.603271e+000
7.847933e+002,1.010187e+001
7.857576e+002,8.222534e+000
7.867218e+002,5.982147e+000
7.876860e+002,3.691223e+000
7.886503e+002,1.959259e+000
7.896145e+002,1.486847e+000
7.905787e+002,2.357361e+000
7.915430e+002,3.492401e+000
7.925072e+002,3.544617e+000
7.934714e+002,3.078156e+000
7.944357e+002,2.972504e+000
7.953999e+002,3.309601e+000
7.963641e+002,3.578644e+000
7.973284e+002,3.115051e+000
7.982926e+002,1.842926e+000
7.992568e+002,1.412262e+000
8.002211e+002,1.485565e+000
8.011853e+002,1.946625e+000
8.021495e+002,3.611877e+000
8.031138e+002,6.138611e+000
8.040780e+002,7.492798e+000
8.050422e+002,6.046295e+000
8.060065e+002,5.016266e+000
8.069707e+002,5.959747e+000
8.079349e+002,7.283386e+000
8.088992e+002,7.218140e+000
8.098634e+002,5.331390e+000
8.108276e+002,3.260254e+000
8.117919e+002,3.377502e+000
8.127561e+002,4.670746e+000
8.137203e+002,5.855408e+000
8.146846e+002,6.906067e+000
8.156488e+002,7.426514e+000
8.166130e+002,6.697784e+000
8.175773e+002,4.315521e+000
8.185415e+002,2.847900e+000
8.195057e+002,2.094269e+000
8.204700e+002,1.980103e+000
8.214342e+002,2.850861e+000
8.223984e+002,4.358765e+000
8.233627e+002,5.677612e+000
8.243269e+002,6.687775e+000
8.252911e+002,7.230774e+000
8.262554e+002,6.966125e+000
8.272196e+002,6.444702e+000
8.281838e+002,6.204956e+000
8.291481e+002,6.439301e+000
8.301123e+002,6.956940e+000
8.310765e+002,7.511566e+000
8.320408e+002,8.001953e+000
8.330050e+002,8.058441e+000
8.339692e+002,7.667633e+000
8.349335e+002,6.949890e+000
8.358977e+002,5.932343e+000
8.368619e+002,4.589996e+000
8.378262e+002,3.768982e+000
8.387904e+002,3.456329e+000
8.397546e+002,3.467407e+000
8.407189e+002,4.070099e+000
8.416831e+002,4.926514e+000
8.426473e+002,5.540436e+000
8.436116e+002,5.734283e+000
8.445758e+002,5.549347e+000
8.455400e+002,4.159576e+000
8.465043e+002,2.546234e+000
8.474685e+002,2.193359e+000
8.484327e+002,3.542252e+000
8.493970e+002,5.917419e+000
8.503612e+002,8.038651e+000
8.513254e+002,9.848511e+000
8.522897e+002,1.096469e+001
8.532539e+002,1.106065e+001
8.542181e+002,1.079922e+001
8.551824e+002,1.063020e+001
8.561466e+002,1.070166e+001
8.571108e+002,1.099899e+001
8.580751e+002,1.107393e+001
8.590393e+002,1.123795e+001
8.600035e+002,1.192290e+001
8.609678e+002,1.283777e+001
8.619320e+002,1.365756e+001
8.628962e+002,1.421686e+001
8.638605e+002,1.453772e+001
8.648247e+002,1.455586e+001
8.657889e+002,1.437369e+001
8.667532e+002,1.415614e+001
8.677174e+002,1.392911e+001
8.686816e+002,1.407910e+001
8.696459e+002,1.517921e+001
8.706101e+002,1.748123e+001
8.715743e+002,1.941231e+001
8.725386e+002,2.108124e+001
8.735028e+002,2.233652e+001
8.744670e+002,2.295378e+001
8.754313e+002,2.294925e+001
8.763955e+002,2.235063e+001
8.773597e+002,2.099820e+001
8.783240e+002,1.995782e+001
8.792882e+002,1.997026e+001
8.802524e+002,2.047144e+001
8.812167e+002,2.122041e+001
8.821809e+002,2.203757e+001
8.831451e+002,2.266171e+001
8.841094e+002,2.273296e+001
8.850736e+002,2.242200e+001
8.860378e+002,2.294804e+001
8.870021e+002,2.432114e+001
8.879663e+002,2.595340e+001
8.889305e+002,2.784468e+001
8.898948e+002,2.973892e+001
8.908590e+002,3.043965e+001
8.918232e+002,2.903018e+001
8.927875e+002,2.803537e+001
8.937517e+002,2.848642e+001
8.947159e+002,2.917407e+001
8.956802e+002,2.859554e+001
8.966444e+002,2.660568e+001
8.976086e+002,2.493822e+001
8.985729e+002,2.564880e+001
8.995371e+002,2.793481e+001
9.005013e+002,3.066121e+001
9.014656e+002,3.354291e+001
9.024298e+002,3.518129e+001
9.033940e+002,3.423727e+001
9.043583e+002,3.107330e+001
9.053225e+002,2.958388e+001
9.062867e+002,3.180505e+001
9.072510e+002,3.290846e+001
9.082152e+002,3.199774e+001
9.091794e+002,3.079196e+001
9.101437e+002,3.116844e+001
9.111079e+002,3.342435e+001
9.120721e+002,3.545241e+001
9.130364e+002,3.558316e+001
9.140006e+002,3.519098e+001
9.149648e+002,3.520494e+001
9.159291e+002,3.553720e+001
9.168933e+002,3.570430e+001
9.178575e+002,3.529373e+001
9.188218e+002,3.425162e+001
9.197860e+002,3.229857e+001
9.207502e+002,2.926440e+001
9.217145e+002,2.790825e+001
9.226787e+002,3.004572e+001
9.236429e+002,3.322733e+001
9.246072e+002,3.372249e+001
9.255714e+002,3.073553e+001
9.265356e+002,2.868559e+001
9.274999e+002,2.893143e+001
9.284641e+002,2.939221e+001
9.294283e+002,2.988074e+001
9.303926e+002,3.007071e+001
9.313568e+002,2.939107e+001
9.323210e+002,2.747760e+001
9.332853e+002,2.521742e+001
9.342495e+002,2.376608e+001
9.352137e+002,2.297556e+001
9.361780e+002,2.329558e+001
9.371422e+002,2.488370e+001
9.381064e+002,2.668739e+001
9.390707e+002,2.715112e+001
9.400349e+002,2.597574e+001
9.409991e+002,2.435017e+001
9.419634e+002,2.159482e+001
9.429276e+002,1.924031e+001
9.438918e+002,1.699911e+001
9.448561e+002,1.568347e+001
9.458203e+002,1.724623e+001
9.467845e+002,2.297632e+001
9.477488e+002,2.806267e+001
9.487130e+002,2.770755e+001
9.496772e+002,2.598212e+001
9.506415e+002,2.613228e+001
9.516057e+002,2.821027e+001
9.525699e+002,3.021519e+001
9.535342e+002,3.015491e+001
9.544984e+002,2.829688e+001
9.554626e+002,2.758476e+001
9.564269e+002,2.852939e+001
9.573911e+002,2.906401e+001
9.583553e+002,2.813138e+001
9.593196e+002,2.660303e+001
9.602838e+002,2.597321e+001
9.612480e+002,2.645285e+001
9.622123e+002,2.696342e+001
9.631765e+002,2.766290e+001
9.641407e+002,2.797301e+001
9.651050e+002,2.722110e+001
9.660692e+002,2.579340e+001
9.670334e+002,2.453316e+001
9.679977e+002,2.403842e+001
9.689619e+002,2.427440e+001
9.699261e+002,2.527393e+001
9.708904e+002,2.662552e+001
9.718546e+002,2.737953e+001
9.728188e+002,2.717188e+001
9.737831e+002,2.668492e+001
9.747473e+002,2.674866e+001
9.757115e+002,2.735562e+001
9.766758e+002,2.890562e+001
9.776400e+002,3.292596e+001
9.786042e+002,3.627425e+001
9.795685e+002,3.810776e+001
9.805327e+002,3.865836e+001
9.814969e+002,3.843706e+001
9.824612e+002,3.770685e+001
9.834254e+002,3.635048e+001
9.843896e+002,3.348318e+001
9.853539e+002,3.005588e+001
9.863181e+002,2.692186e+001
9.872823e+002,2.416705e+001
9.882466e+002,2.195088e+001
9.892108e+002,2.057971e+001
9.901750e+002,2.014386e+001
9.911393e+002,1.988106e+001
9.921035e+002,1.924344e+001
9.930677e+002,1.888814e+001
9.940320e+002,1.878757e+001
9.949962e+002,1.930789e+001
9.959604e+002,2.102643e+001
9.969247e+002,2.393848e+001
9.978889e+002,2.685530e+001
9.988531e+002,2.918979e+001
9.998174e+002,3.092751e+001
1.000782e+003,3.216956e+001
1.001746e+003,3.308981e+001
1.002710e+003,3.391115e+001
1.003674e+003,3.467715e+001
1.004639e+003,3.506038e+001
1.005603e+003,3.433521e+001
1.006567e+003,3.232373e+001
1.007531e+003,3.237376e+001
1.008495e+003,3.561362e+001
1.009460e+003,3.861870e+001
1.010424e+003,3.918893e+001
1.011388e+003,3.789551e+001
1.012352e+003,3.682903e+001
1.013317e+003,3.601309e+001
1.014281e+003,3.573717e+001
1.015245e+003,3.751074e+001
1.016209e+003,3.843066e+001
1.017174e+003,3.530644e+001
1.018138e+003,2.901306e+001
1.019102e+003,2.373994e+001
1.020066e+003,2.309018e+001
1.021031e+003,2.538696e+001
1.021995e+003,2.563966e+001
1.022959e+003,2.411591e+001
1.023923e+003,2.227562e+001
1.024887e+003,2.045132e+001
1.025852e+003,1.870352e+001
1.026816e+003,1.726363e+001
1.027780e+003,1.638052e+001
1.028744e+003,1.517961e+001
1.029709e+003,1.280441e+001
1.030673e+003,1.096078e+001
1.031637e+003,1.015779e+001
1.032601e+003,1.010715e+001
1.033566e+003,1.073341e+001
1.034530e+003,1.199472e+001
1.035494e+003,1.290668e+001
1.036458e+003,1.209883e+001
1.037422e+003,1.023157e+001
1.038387e+003,8.263809e+000
1.039351e+003,6.296310e+000
1.040315e+003,4.698837e+000
1.041279e+003,3.754089e+000
1.042244e+003,3.552780e+000
1.043208e+003,4.348099e+000
1.044172e+003,6.887009e+000
1.045136e+003,8.884506e+000
1.046101e+003,1.074265e+001
1.047065e+003,1.180344e+001
1.048029e+003,1.091530e+001
1.048993e+003,8.690247e+000
1.049958e+003,7.573837e+000
1.050922e+003,9.240509e+000
1.051886e+003,1.118039e+001
1.052850e+003,1.017577e+001
1.053814e+003,8.111603e+000
1.054779e+003,7.627869e+000
1.055743e+003,9.142441e+000
1.056707e+003,1.095319e+001
1.057671e+003,1.097777e+001
1.058636e+003,9.172440e+000
1.059600e+003,8.308655e+000
1.060564e+003,9.707657e+000
1.061528e+003,1.043994e+001
1.062493e+003,9.222702e+000
1.063457e+003,7.476913e+000
1.064421e+003,6.832535e+000
1.065385e+003,7.531830e+000
1.066349e+003,8.866119e+000
1.067314e+003,1.193935e+001
1.068278e+003,1.368570e+001
1.069242e+003,1.090184e+001
1.070206e+003,5.904251e+000
1.071171e+003,2.116684e+000
1.072135e+003,1.000671e+000
1.073099e+003,1.630173e+000
1.074063e+003,2.614166e+000
1.075028e+003,4.039337e+000
1.075992e+003,5.566833e+000
1.076956e+003,7.418808e+000
1.077920e+003,8.793488e+000
1.078885e+003,9.514572e+000
1.079849e+003,9.730209e+000
1.080813e+003,9.572723e+000
1.081777e+003,9.043091e+000
1.082741e+003,8.369415e+000
1.083706e+003,6.545029e+000
1.084670e+003,5.325119e+000
1.085634e+003,6.502289e+000
1.086598e+003,8.945404e+000
1.087563e+003,1.034396e+001
1.088527e+003,9.535355e+000
1.089491e+003,7.808258e+000
1.090455e+003,7.570358e+000
1.091420e+003,8.919540e+000
1.092384e+003,9.024902e+000
1.093348e+003,7.110718e+000
1.094312e+003,5.186859e+000
1.095276e+003,4.634491e+000
1.096241e+003,5.125427e+000
1.097205e+003,5.371521e+000
1.098169e+003,4.928131e+000
1.099133e+003,4.798553e+000
1.100098e+003,6.079010e+000
1.101062e+003,7.237961e+000
1.102026e+003,7.017914e+000
1.102990e+003,5.893692e+000
1.103955e+003,5.198013e+000
1.104919e+003,5.701279e+000
1.105883e+003,6.672836e+000
1.106847e+003,6.493301e+000
1.107812e+003,5.141174e+000
1.108776e+003,4.827469e+000
1.109740e+003,6.150909e+000
1.110704e+003,7.469025e+000
1.111668e+003,7.637375e+000
1.112633e+003,6.975830e+000
1.113597e+003,6.335297e+000
1.114561e+003,5.172623e+000
1.115525e+003,5.289398e+000
1.116490e+003,8.522415e+000
1.117454e+003,1.176483e+001
1.118418e+003,1.272536e+001
1.119382e+003,1.210580e+001
1.120347e+003,1.214333e+001
1.121311e+003,1.409816e+001
1.122275e+003,1.668903e+001
1.123239e+003,1.776324e+001
1.124203e+003,1.751512e+001
1.125168e+003,1.665634e+001
1.126132e+003,1.498680e+001
1.127096e+003,1.345692e+001
1.128060e+003,1.245982e+001
1.129025e+003,1.204559e+001
1.129989e+003,1.278743e+001
1.130953e+003,1.501582e+001
1.131917e+003,1.767227e+001
1.132882e+003,2.182837e+001
1.133846e+003,2.509178e+001
1.134810e+003,2.526358e+001
1.135774e+003,2.340483e+001
1.136739e+003,2.206442e+001
1.137703e+003,2.267340e+001
1.138667e+003,2.440468e+001
1.139631e+003,2.594916e+001
1.140595e+003,2.732426e+001
1.141560e+003,2.894275e+001
1.142524e+003,3.089160e+001
1.143488e+003,3.324916e+001
1.144452e+003,3.533994e+001
1.145417e+003,3.780183e+001
1.146381e+003,4.337268e+001
1.147345e+003,5.350967e+001
1.148309e+003,6.291104e+001
1.149274e+003,7.006171e+001
1.150238e+003,7.658958e+001
1.151202e+003,8.287692e+001
1.152166e+003,8.943669e+001
1.153130e+003,9.717484e+001
1.154095e+003,1.062445e+002
1.155059e+003,1.149318e+002
1.156023e+003,1.210834e+002
1.156987e+003,1.247240e+002
1.157952e+003,1.270953e+002
1.158916e+003,1.284797e+002
1.159880e+003,1.287895e+002
1.160844e+003,1.282091e+002
1.161809e+003,1.259285e+002
1.162773e+003,1.200608e+002
1.163737e+003,1.097498e+002
1.164701e+003,9.982777e+001
1.165666e+003,9.201160e+001
1.166630e+003,8.449699e+001
1.167594e+003,7.622369e+001
1.168558e+003,6.796625e+001
1.169522e+003,6.061955e+001
1.170487e+003,5.459375e+001
1.171451e+003,5.021440e+001
1.172415e+003,4.796133e+001
1.173379e+003,4.743628e+001
1.174344e+003,4.653603e+001
1.175308e+003,4.520206e+001
1.176272e+003,4.470650e+001
1.177236e+003,4.650571e+001
1.178201e+003,4.863950e+001
1.179165e+003,4.843436e+001
1.180129e+003,4.576550e+001
1.181093e+003,4.239830e+001
1.182057e+003,3.770966e+001
1.183022e+003,3.400856e+001
1.183986e+003,3.249734e+001
1.184950e+003,3.199393e+001
1.185914e+003,3.156953e+001
1.186879e+003,3.101147e+001
1.187843e+003,3.034654e+001
1.188807e+003,2.952283e+001
1.189771e+003,2.897006e+001
1.190736e+003,3.051082e+001
1.191700e+003,3.446463e+001
1.192664e+003,3.689561e+001
1.193628e+003,3.691251e+001
1.194593e+003,3.625485e+001
1.195557e+003,3.657808e+001
1.196521e+003,3.720694e+001
1.197485e+003,3.530922e+001
1.198449e+003,2.929825e+001
1.199414e+003,2.457907e+001
1.200378e+003,2.432765e+001
1.201342e+003,2.550354e+001
1.202306e+003,2.722456e+001
1.203271e+003,2.862418e+001
1.204235e+003,2.832028e+001
1.205199e+003,2.583229e+001
1.206163e+003,2.266409e+001
1.207128e+003,2.133437e+001
1.208092e+003,2.198151e+001
1.209056e+003,2.208923e+001
1.210020e+003,2.195781e+001
1.210984e+003,2.090076e+001
1.211949e+003,1.802736e+001
1.212913e+003,1.448741e+001
1.213877e+003,1.188908e+001
1.214841e+003,1.034804e+001
1.215806e+003,8.621033e+000
1.216770e+003,5.726715e+000
1.217734e+003,3.298447e+000
1.218698e+003,2.477188e+000
1.219663e+003,2.525894e+000
1.220627e+003,3.075729e+000
1.221591e+003,3.676224e+000
1.222555e+003,3.110352e+000
1.223520e+003,1.993256e-001
1.224484e+003,-4.286179e+000
1.225448e+003,-6.905640e+000
1.226412e+003,-6.586121e+000
1.227376e+003,-6.706406e+000
1.228341e+003,-8.068359e+000
1.229305e+003,-9.046432e+000
1.230269e+003,-8.099899e+000
1.231233e+003,-6.337463e+000
1.232198e+003,-6.275650e+000
1.233162e+003,-8.603394e+000
1.234126e+003,-1.068347e+001
1.235090e+003,-1.043019e+001
1.236055e+003,-9.334015e+000
1.237019e+003,-8.934677e+000
1.237983e+003,-9.099014e+000
1.238947e+003,-9.336761e+000
1.239911e+003,-9.374985e+000
1.240876e+003,-8.970749e+000
1.241840e+003,-7.754120e+000
1.242804e+003,-5.664337e+000
1.243768e+003,-3.800217e+000
1.244733e+003,-1.590881e+000
1.245697e+003,-4.763184e-001
1.246661e+003,-1.509140e+000
1.247625e+003,-3.051804e+000
1.248590e+003,-3.617401e+000
1.249554e+003,-3.443893e+000
1.250518e+003,-4.009094e+000
1.251482e+003,-6.130829e+000
1.252447e+003,-8.425003e+000
1.253411e+003,-9.255310e+000
1.254375e+003,-8.825363e+000
1.255339e+003,-7.631516e+000
1.256303e+003,-5.670929e+000
1.257268e+003,-3.180496e+000
1.258232e+003,2.160645e-002
1.259196e+003,2.949478e+000
1.260160e+003,3.349365e+000
1.261125e+003,6.907806e-001
1.262089e+003,-4.916077e-001
1.263053e+003,1.766739e+000
1.264017e+003,3.440079e+000
1.264982e+003,2.836929e+000
1.265946e+003,1.876862e+000
1.266910e+003,2.662827e+000
1.267874e+003,4.995483e+000
1.268839e+003,7.189102e+000
1.269803e+003,8.144913e+000
1.270767e+003,7.986511e+000
1.271731e+003,6.627655e+000
1.272695e+003,4.208710e+000
1.273660e+003,2.996750e+000
1.274624e+003,3.358200e+000
1.275588e+003,3.565628e+000
1.276552e+003,2.490356e+000
1.277517e+003,9.537201e-001
1.278481e+003,6.296692e-001
1.279445e+003,1.711182e+000
1.280409e+003,1.849228e+000
1.281374e+003,-8.577423e-001
1.282338e+003,-3.048508e+000
1.283302e+003,-2.286896e+000
1.284266e+003,-5.685883e-001
1.285230e+003,-2.684937e-001
1.286195e+003,-1.623230e+000
1.287159e+003,-3.152191e+000
1.288123e+003,-3.586334e+000
1.289087e+003,-3.372284e+000
1.290052e+003,-4.167160e+000
1.291016e+003,-6.716995e+000
1.291980e+003,-7.827377e+000
1.292944e+003,-7.105850e+000
1.293909e+003,-5.827179e+000
1.294873e+003,-3.454727e+000
1.295837e+003,-1.186874e+000
1.296801e+003,-1.199112e+000
1.297766e+003,-3.549515e+000
1.298730e+003,-5.284210e+000
1.299694e+003,-4.602707e+000
1.300658e+003,-3.394119e+000
1.301622e+003,-3.638290e+000
1.302587e+003,-4.725693e+000
1.303551e+003,-6.157333e+000
1.304515e+003,-7.652725e+000
1.305479e+003,-8.015701e+000
1.306444e+003,-5.979568e+000
1.307408e+003,-2.715805e+000
1.308372e+003,-2.392883e+000
1.309336e+003,-6.586060e+000
1.310301e+003,-8.866364e+000
1.311265e+003,-7.226089e+000
1.312229e+003,-5.644043e+000
1.313193e+003,-5.080856e+000
1.314157e+003,-5.309616e+000
1.315122e+003,-6.611160e+000
1.316086e+003,-8.500275e+000
1.317050e+003,-9.139191e+000
1.318014e+003,-7.145279e+000
1.318979e+003,-4.342743e+000
1.319943e+003,-4.387497e+000
1.320907e+003,-6.815659e+000
1.321871e+003,-7.598160e+000
1.322836e+003,-6.317703e+000
1.323800e+003,-4.889297e+000
1.324764e+003,-4.370651e+000
1.325728e+003,-4.263641e+000
1.326693e+003,-3.591675e+000
1.327657e+003,-2.373337e+000
1.328621e+003,-2.032806e+000
1.329585e+003,-3.364273e+000
1.330549e+003,-4.255432e+000
1.331514e+003,-3.610458e+000
1.332478e+003,-2.583801e+000
1.333442e+003,-2.149216e+000
1.334406e+003,-2.266373e+000
1.335371e+003,-2.302994e+000
1.336335e+003,-1.899857e+000
1.337299e+003,-1.577591e+000
1.338263e+003,-2.456100e+000
1.339228e+003,-4.783234e+000
1.340192e+003,-5.918381e+000
1.341156e+003,-4.707886e+000
1.342120e+003,-4.103409e+000
1.343084e+003,-5.107758e+000
1.344049e+003,-6.537476e+000
1.345013e+003,-7.546585e+000
1.345977e+003,-7.956116e+000
1.346941e+003,-7.686142e+000
1.347906e+003,-6.693619e+000
1.348870e+003,-5.411530e+000
1.349834e+003,-4.114243e+000
1.350798e+003,-2.974075e+000
1.351763e+003,-1.981873e+000
1.352727e+003,-1.193558e+000
1.353691e+003,-1.292130e+000
1.354655e+003,-2.826172e+000
1.355620e+003,-4.207474e+000
1.356584e+003,-2.791046e+000
1.357548e+003,9.222260e-001
1.358512e+003,1.686859e+000
1.359476e+003,-2.297348e+000
1.360441e+003,-5.367218e+000
1.361405e+003,-5.389465e+000
1.362369e+003,-4.831039e+000
1.363333e+003,-4.642914e+000
1.364298e+003,-4.738968e+000
1.365262e+003,-4.928818e+000
1.366226e+003,-5.084152e+000
1.367190e+003,-4.915878e+000
1.368155e+003,-4.138535e+000
1.369119e+003,-3.243149e+000
1.370083e+003,-3.896301e+000
1.371047e+003,-6.845230e+000
1.372011e+003,-7.705429e+000
1.372976e+003,-4.704468e+000
1.373940e+003,-2.306915e+000
1.374904e+003,-2.449921e+000
1.375868e+003,-3.787735e+000
1.376833e+003,-5.100464e+000
1.377797e+003,-6.081604e+000
1.378761e+003,-5.804657e+000
1.379725e+003,-3.448868e+000
1.380690e+003,-1.004166e+000
1.381654e+003,-9.211578e-001
1.382618e+003,-1.788544e+000
1.383582e+003,-1.598495e+000
1.384547e+003,-3.802032e-001
1.385511e+003,5.639038e-001
1.386475e+003,4.596863e-001
1.387439e+003,4.257202e-003
1.388403e+003,4.738159e-001
1.389368e+003,1.850769e+000
1.390332e+003,2.354340e+000
1.391296e+003,1.751877e+000
1.392260e+003,7.683716e-001
1.393225e+003,-1.314499e+000
1.394189e+003,-2.819321e+000
1.395153e+003,-2.359238e+000
1.396117e+003,-8.599091e-001
1.397082e+003,2.839050e-001
1.398046e+003,6.699219e-001
1.399010e+003,7.422028e-001
1.399974e+003,8.229218e-001
1.400938e+003,8.375397e-001
1.401903e+003,9.872894e-001
1.402867e+003,1.802948e+000
1.403831e+003,1.669052e+000
1.404795e+003,-6.397552e-001
1.405760e+003,-2.507584e+000
1.406724e+003,-3.005554e+000
1.407688e+003,-3.004807e+000
1.408652e+003,-3.599136e+000
1.409617e+003,-4.465698e+000
1.410581e+003,-3.912125e+000
1.411545e+003,-1.060547e+000
1.412509e+003,2.197952e+000
1.413474e+003,4.256836e+000
1.414438e+003,5.152496e+000
1.415402e+003,4.987823e+000
1.416366e+003,4.025620e+000
1.417330e+003,3.050995e+000
1.418295e+003,2.301590e+000
1.419259e+003,1.903748e+000
1.420223e+003,2.208969e+000
1.421187e+003,2.956009e+000
1.422152e+003,2.844971e+000
1.423116e+003,1.634506e+000
1.424080e+003,7.174530e-001
1.425044e+003,9.679565e-001
1.426009e+003,7.931824e-001
1.426973e+003,-1.646957e+000
1.427937e+003,-4.177246e+000
1.428901e+003,-3.668671e+000
1.429865e+003,-3.112793e-001
1.430830e+003,3.138199e+000
1.431794e+003,4.779877e+000
1.432758e+003,4.971039e+000
1.433722e+003,4.463257e+000
1.434687e+003,3.308212e+000
1.435651e+003,3.047928e+000
1.436615e+003,4.243393e+000
1.437579e+003,4.691025e+000
1.438544e+003,3.276169e+000
1.439508e+003,2.110443e+000
1.440472e+003,3.018784e+000
1.441436e+003,5.211838e+000
1.442401e+003,7.320587e+000
1.443365e+003,8.797256e+000
1.444329e+003,8.668503e+000
1.445293e+003,5.816498e+000
1.446257e+003,2.215073e+000
1.447222e+003,1.900314e+000
1.448186e+003,4.217209e+000
1.449150e+003,5.878632e+000
1.450114e+003,6.648819e+000
1.451079e+003,6.463593e+000
1.452043e+003,4.375977e+000
1.453007e+003,2.103119e+000
1.453971e+003,2.437683e+000
1.454936e+003,4.916595e+000
1.455900e+003,6.013168e+000
1.456864e+003,4.596710e+000
1.457828e+003,3.416931e+000
1.458792e+003,4.851379e+000
1.459757e+003,6.277557e+000
1.460721e+003,4.844269e+000
1.461685e+003,1.947296e+000
1.462649e+003,8.051453e-001
1.463614e+003,2.173035e+000
1.464578e+003,3.764908e+000
1.465542e+003,3.423187e+000
1.466506e+003,1.945282e+000
1.467471e+003,2.000305e+000
1.468435e+003,4.210083e+000
1.469399e+003,5.490280e+000
1.470363e+003,4.676987e+000
1.471328e+003,4.046600e+000
1.472292e+003,4.126877e+000
1.473256e+003,4.298599e+000
1.474220e+003,4.286118e+000
1.475184e+003,4.208389e+000
1.476149e+003,4.040771e+000
1.477113e+003,3.843063e+000
1.478077e+003,4.339462e+000
1.479041e+003,6.398224e+000
1.480006e+003,9.186783e+000
1.480970e+003,9.536728e+000
1.481934e+003,6.365540e+000
1.482898e+003,4.817551e+000
1.483863e+003,6.106079e+000
1.484827e+003,7.072983e+000
1.485791e+003,6.663498e+000
1.486755e+003,5.988708e+000
1.487719e+003,5.821289e+000
1.488684e+003,6.182114e+000
1.489648e+003,6.945435e+000
1.490612e+003,8.130508e+000
1.491576e+003,9.976181e+000
1.492541e+003,1.295338e+001
1.493505e+003,1.610670e+001
1.494469e+003,1.671898e+001
1.495433e+003,1.525148e+001
1.496398e+003,1.571048e+001
1.497362e+003,1.943106e+001
1.498326e+003,2.293286e+001
1.499290e+003,2.391321e+001
1.500255e+003,2.397272e+001
1.501219e+003,2.506694e+001
1.502183e+003,2.713768e+001
1.503147e+003,2.957556e+001
1.504111e+003,3.215817e+001
1.505076e+003,3.563324e+001
1.506040e+003,4.138788e+001
1.507004e+003,4.726508e+001
1.507968e+003,5.046793e+001
1.508933e+003,5.239787e+001
1.509897e+003,5.567023e+001
1.510861e+003,6.104227e+001
1.511825e+003,6.878018e+001
1.512790e+003,7.949292e+001
1.513754e+003,9.152220e+001
1.514718e+003,1.017157e+002
1.515682e+003,1.099599e+002
1.516646e+003,1.189888e+002
1.517611e+003,1.296521e+002
1.518575e+003,1.398689e+002
1.519539e+003,1.487153e+002
1.520503e+003,1.574956e+002
1.521468e+003,1.678982e+002
1.522432e+003,1.780549e+002
1.523396e+003,1.855038e+002
1.524360e+003,1.898519e+002
1.525325e+003,1.925681e+002
1.526289e+003,1.946373e+002
1.527253e+003,1.947134e+002
1.528217e+003,1.899535e+002
1.529182e+003,1.803928e+002
1.530146e+003,1.725433e+002
1.531110e+003,1.690045e+002
1.532074e+003,1.619474e+002
1.533039e+003,1.490925e+002
1.534003e+003,1.344258e+002
1.534967e+003,1.189248e+002
1.535931e+003,1.036628e+002
1.536896e+003,8.923947e+001
1.537860e+003,7.602158e+001
1.538824e+003,6.422577e+001
1.539788e+003,5.391740e+001
1.540752e+003,4.528073e+001
1.541717e+003,3.866010e+001
1.542681e+003,3.392657e+001
1.543645e+003,2.957805e+001
1.544609e+003,2.561868e+001
1.545573e+003,2.251396e+001
1.546538e+003,2.037572e+001
1.547502e+003,1.855385e+001
1.548466e+003,1.693564e+001
1.549430e+003,1.572992e+001
1.550395e+003,1.520860e+001
1.551359e+003,1.512468e+001
1.552323e+003,1.495241e+001
1.553287e+003,1.451965e+001
1.554252e+003,1.390021e+001
1.555216e+003,1.302864e+001
1.556180e+003,1.232639e+001
1.557144e+003,1.319864e+001
1.558109e+003,1.574103e+001
1.559073e+003,1.621411e+001
1.560037e+003,1.331479e+001
1.561001e+003,1.055598e+001
1.561966e+003,8.954269e+000
1.562930e+003,8.410141e+000
1.563894e+003,9.489044e+000
1.564858e+003,1.123412e+001
1.565823e+003,1.113319e+001
1.566787e+003,8.831528e+000
1.567751e+003,7.144241e+000
1.568715e+003,7.810501e+000
1.569679e+003,9.414047e+000
1.570644e+003,1.044644e+001
1.571608e+003,1.079155e+001
1.572572e+003,1.002383e+001
1.573536e+003,8.153152e+000
1.574500e+003,7.723465e+000
1.575465e+003,1.037048e+001
1.576429e+003,1.332666e+001
1.577393e+003,1.421950e+001
1.578357e+003,1.383719e+001
1.579322e+003,1.368135e+001
1.580286e+003,1.391190e+001
1.581250e+003,1.450137e+001
1.582214e+003,1.559521e+001
1.583179e+003,1.642732e+001
1.584143e+003,1.599210e+001
1.585107e+003,1.526595e+001
1.586071e+003,1.605533e+001
1.587036e+003,1.787923e+001
1.588000e+003,1.877444e+001
1.588964e+003,1.820969e+001
1.589928e+003,1.712134e+001
1.590893e+003,1.583929e+001
1.591857e+003,1.470439e+001
1.592821e+003,1.428908e+001
1.593785e+003,1.453156e+001
1.594750e+003,1.495345e+001
1.595714e+003,1.545654e+001
1.596678e+003,1.601825e+001
1.597642e+003,1.646379e+001
1.598606e+003,1.725887e+001
1.599571e+003,1.962837e+001
1.600535e+003,2.212340e+001
1.601499e+003,2.225577e+001
1.602463e+003,2.041156e+001
1.603427e+003,1.967471e+001
1.604392e+003,2.146330e+001
1.605356e+003,2.336746e+001
1.606320e+003,2.234871e+001
1.607284e+003,1.976186e+001
1.608249e+003,2.003127e+001
1.609213e+003,2.330846e+001
1.610177e+003,2.448053e+001
1.611141e+003,2.195490e+001
1.612106e+003,1.917540e+001
1.613070e+003,1.726579e+001
1.614034e+003,1.619832e+001
1.614998e+003,1.635260e+001
1.615963e+003,1.720905e+001
1.616927e+003,1.810466e+001
1.617891e+003,1.877971e+001
1.618855e+003,1.869543e+001
1.619820e+003,1.735074e+001
1.620784e+003,1.567006e+001
1.621748e+003,1.511243e+001
1.622712e+003,1.572279e+001
1.623677e+003,1.710608e+001
1.624641e+003,1.961366e+001
1.625605e+003,2.079999e+001
1.626569e+003,1.904794e+001
1.627533e+003,1.712575e+001
1.628498e+003,1.612105e+001
1.629462e+003,1.599696e+001
1.630426e+003,1.724365e+001
1.631390e+003,1.915773e+001
1.632354e+003,2.037590e+001
1.633319e+003,2.055669e+001
1.634283e+003,2.022099e+001
1.635247e+003,1.971043e+001
1.636211e+003,1.896703e+001
1.637176e+003,1.762981e+001
1.638140e+003,1.586549e+001
1.639104e+003,1.557422e+001
1.640068e+003,1.716907e+001
1.641033e+003,1.864949e+001
1.641997e+003,1.970062e+001
1.642961e+003,2.040790e+001
1.643925e+003,2.121748e+001
1.644890e+003,2.142490e+001
1.645854e+003,1.902859e+001
1.646818e+003,1.560236e+001
1.647782e+003,1.588760e+001
1.648747e+003,2.099722e+001
1.649711e+003,2.553999e+001
1.650675e+003,2.495712e+001
1.651639e+003,2.148624e+001
1.652604e+003,1.931003e+001
1.653568e+003,1.833588e+001
1.654532e+003,1.806750e+001
1.655496e+003,1.871674e+001
1.656460e+003,1.926785e+001
1.657425e+003,1.968077e+001
1.658389e+003,1.967902e+001
1.659353e+003,1.872966e+001
1.660317e+003,1.759940e+001
1.661281e+003,1.714572e+001
1.662246e+003,1.721065e+001
1.663210e+003,1.717697e+001
1.664174e+003,1.688150e+001
1.665138e+003,1.662386e+001
1.666103e+003,1.667615e+001
1.667067e+003,1.674419e+001
1.668031e+003,1.619991e+001
1.668995e+003,1.513095e+001
1.669960e+003,1.447549e+001
1.670924e+003,1.451508e+001
1.671888e+003,1.416685e+001
1.672852e+003,1.269238e+001
1.673817e+003,1.120627e+001
1.674781e+003,1.012259e+001
1.675745e+003,9.581741e+000
1.676709e+003,1.007382e+001
1.677674e+003,1.122993e+001
1.678638e+003,1.193597e+001
1.679602e+003,1.184776e+001
1.680566e+003,1.155894e+001
1.681531e+003,1.156387e+001
1.682495e+003,1.173576e+001
1.683459e+003,1.192624e+001
1.684423e+003,1.197104e+001
1.685387e+003,1.091177e+001
1.686352e+003,8.438568e+000
1.687316e+003,7.166946e+000
1.688280e+003,8.691254e+000
1.689244e+003,1.014796e+001
1.690208e+003,8.671204e+000
1.691173e+003,6.463104e+000
1.692137e+003,6.064301e+000
1.693101e+003,7.153000e+000
1.694065e+003,8.233093e+000
1.695030e+003,8.869492e+000
1.695994e+003,8.993546e+000
1.696958e+003,8.527863e+000
1.697922e+003,7.687195e+000
1.698887e+003,6.332306e+000
1.699851e+003,4.905853e+000
1.700815e+003,5.081650e+000
1.701779e+003,6.884491e+000
1.702744e+003,7.406464e+000
1.703708e+003,5.433151e+000
1.704672e+003,3.758774e+000
1.705636e+003,4.553085e+000
1.706601e+003,6.316788e+000
1.707565e+003,7.551544e+000
1.708529e+003,8.095276e+000
1.709493e+003,6.607422e+000
1.710458e+003,2.601410e+000
1.711422e+003,-4.137573e-001
1.712386e+003,-6.292877e-001
1.713350e+003,3.555603e-001
1.714314e+003,1.727859e+000
1.715279e+003,3.011368e+000
1.716243e+003,3.431274e+000
1.717207e+003,3.084244e+000
1.718171e+003,2.573837e+000
1.719135e+003,2.091141e+000
1.720100e+003,2.010925e+000
1.721064e+003,2.799255e+000
1.722028e+003,3.286942e+000
1.722992e+003,1.430313e+000
1.723957e+003,-2.016129e+000
1.724921e+003,-3.251358e+000
1.725885e+003,-2.197479e+000
1.726849e+003,-9.158936e-001
1.727814e+003,9.795532e-001
1.728778e+003,2.480896e+000
1.729742e+003,3.146393e+000
1.730706e+003,3.163315e+000
1.731671e+003,2.338562e+000
1.732635e+003,9.569855e-001
1.733599e+003,-3.007813e-001
1.734563e+003,-1.183533e+000
1.735528e+003,-1.878448e+000
1.736492e+003,-2.533081e+000
1.737456e+003,-2.582047e+000
1.738420e+003,-1.189865e+000
1.739385e+003,9.121552e-001
1.740349e+003,1.288483e+000
1.741313e+003,-3.250580e-001
1.742277e+003,-1.947174e+000
1.743241e+003,-4.680496e+000
1.744206e+003,-5.565353e+000
1.745170e+003,-2.585800e+000
1.746134e+003,3.262787e-001
1.747098e+003,8.386230e-001
1.748063e+003,2.274780e-001
1.749027e+003,2.127075e-002
1.749991e+003,2.515411e-001
1.750955e+003,1.645050e-001
1.751919e+003,-4.575195e-001
1.752884e+003,-1.015030e+000
1.753848e+003,-1.003891e+000
1.754812e+003,-8.100433e-001
1.755776e+003,-1.157211e+000
1.756741e+003,-1.937637e+000
1.757705e+003,-2.670197e+000
1.758669e+003,-3.897690e+000
1.759633e+003,-3.683289e+000
1.760598e+003,-4.005585e-001
1.761562e+003,2.118347e+000
1.762526e+003,2.880661e+000
1.763490e+003,2.576523e+000
1.764455e+003,9.133911e-001
1.765419e+003,-1.046585e+000
1.766383e+003,-1.604431e+000
1.767347e+003,-8.988953e-001
1.768312e+003,-6.640320e-001
1.769276e+003,-1.755066e+000
1.770240e+003,-3.147858e+000
1.771204e+003,-3.738327e+000
1.772168e+003,-3.620758e+000
1.773133e+003,-3.031570e+000
1.774097e+003,-2.060455e+000
1.775061e+003,-1.651245e+000
1.776025e+003,-2.072876e+000
1.776990e+003,-2.492111e+000
1.777954e+003,-2.469589e+000
1.778918e+003,-2.421555e+000
1.779882e+003,-3.011658e+000
1.780846e+003,-3.635925e+000
1.781811e+003,-3.331802e+000
1.782775e+003,-2.274719e+000
1.783739e+003,-8.928375e-001
1.784703e+003,9.059448e-001
1.785668e+003,1.651520e+000
1.786632e+003,-3.896179e-001
1.787596e+003,-2.404266e+000
1.788560e+003,-1.658554e+000
1.789525e+003,1.390839e-001
1.790489e+003,5.432129e-001
1.791453e+003,-3.404083e-001
1.792417e+003,-1.728867e+000
1.793382e+003,-3.292847e+000
1.794346e+003,-4.064651e+000
1.795310e+003,-3.498352e+000
1.796274e+003,-2.616989e+000
1.797239e+003,-2.558212e+000
1.798203e+003,-2.874374e+000
1.799167e+003,-2.433517e+000
1.800131e+003,-1.187042e+000
1.801095e+003,-9.582214e-001
1.802060e+003,-2.517883e+000
1.803024e+003,-3.369049e+000
1.803988e+003,-3.101135e+000
1.804952e+003,-2.436890e+000
1.805917e+003,-9.645691e-001
1.806881e+003,9.683228e-002
1.807845e+003,-1.269775e+000
1.808809e+003,-3.616470e+000
1.809773e+003,-3.454849e+000
1.810738e+003,-5.569763e-001
1.811702e+003,1.564346e+000
1.812666e+003,7.254486e-001
1.813630e+003,-1.185486e+000
1.814595e+003,-1.589783e+000
1.815559e+003,-1.017197e+000
1.816523e+003,-1.794510e+000
1.817487e+003,-4.151276e+000
1.818452e+003,-4.769730e+000
1.819416e+003,-2.598404e+000
1.820380e+003,-1.067123e+000
1.821344e+003,-1.916229e+000
1.822309e+003,-2.652039e+000
1.823273e+003,-1.260651e+000
1.824237e+003,6.656799e-001
1.825201e+003,1.690170e+000
1.826166e+003,1.764084e+000
1.827130e+003,7.844543e-001
1.828094e+003,-1.239304e+000
1.829058e+003,-2.822998e+000
1.830022e+003,-3.375839e+000
1.830987e+003,-2.874451e+000
1.831951e+003,-2.471161e-001
1.832915e+003,2.686844e+000
1.833879e+003,3.221359e+000
1.834844e+003,1.741776e+000
1.835808e+003,-8.961487e-001
1.836772e+003,-4.153198e+000
1.837736e+003,-5.236572e+000
1.838700e+003,-2.888611e+000
1.839665e+003,-2.378387e-001
1.840629e+003,-1.260376e-001
1.841593e+003,-1.448669e+000
1.842557e+003,-1.987366e+000
1.843522e+003,-1.755569e+000
1.844486e+003,-1.469269e+000
1.845450e+003,-5.839233e-001
1.846414e+003,-4.831848e-001
1.847379e+003,-2.414001e+000
1.848343e+003,-3.729431e+000
1.849307e+003,-2.902176e+000
1.850271e+003,-1.877640e+000
1.851236e+003,-1.970901e+000
1.852200e+003,-2.730194e+000
1.853164e+003,-4.013245e+000
1.854128e+003,-5.306763e+000
1.855093e+003,-5.216507e+000
1.856057e+003,-3.246902e+000
1.857021e+003,-5.247803e-001
1.857985e+003,2.132980e+000
1.858949e+003,4.106110e+000
1.859914e+003,3.964996e+000
1.860878e+003,2.182480e+000
1.861842e+003,1.352890e+000
1.862806e+003,1.482666e+000
1.863771e+003,1.345367e+000
1.864735e+003,5.590515e-001
1.865699e+003,1.624298e-001
1.866663e+003,8.450623e-001
1.867627e+003,1.775345e+000
1.868592e+003,2.141678e+000
1.869556e+003,2.135956e+000
1.870520e+003,2.428375e+000
1.871484e+003,2.893188e+000
1.872449e+003,2.669281e+000
1.873413e+003,1.720627e+000
1.874377e+003,1.037628e+000
1.875341e+003,3.196564e-001
1.876306e+003,1.878510e-001
1.877270e+003,1.640228e+000
1.878234e+003,3.172623e+000
1.879198e+003,3.310059e+000
1.880163e+003,2.437378e+000
1.881127e+003,1.050095e+000
1.882091e+003,-3.589478e-001
1.883055e+003,-5.921936e-001
1.884020e+003,6.805420e-001
1.884984e+003,1.820328e+000
1.885948e+003,1.312683e+000
1.886912e+003,1.545868e-001
1.887876e+003,4.851532e-001
1.888841e+003,2.121841e+000
1.889805e+003,2.544327e+000
1.890769e+003,1.461548e+000
1.891733e+003,7.512512e-001
1.892698e+003,6.586914e-001
1.893662e+003,5.854797e-001
1.894626e+003,4.570770e-001
1.895590e+003,2.033081e-001
1.896554e+003,-3.179932e-001
1.897519e+003,-8.222046e-001
1.898483e+003,-1.383163e+000
1.899447e+003,-1.768982e+000
1.900411e+003,-5.317230e-001
1.901376e+003,2.770874e+000
1.902340e+003,4.512772e+000
1.903304e+003,2.199661e+000
1.904268e+003,-2.408447e-001
1.905233e+003,-3.885651e-001
1.906197e+003,5.303192e-001
1.907161e+003,1.577957e+000
1.908125e+003,2.629898e+000
1.909090e+003,3.892822e+000
1.910054e+003,4.971466e+000
1.911018e+003,4.359879e+000
1.911982e+003,1.895538e+000
1.912947e+003,4.684448e-003
1.913911e+003,4.361267e-001
1.914875e+003,1.840942e+000
1.915839e+003,2.031662e+000
1.916803e+003,1.345139e+000
1.917768e+003,2.176331e+000
1.918732e+003,5.117966e+000
1.919696e+003,5.945587e+000
1.920660e+003,3.587067e+000
1.921625e+003,2.233612e+000
1.922589e+003,3.447891e+000
1.923553e+003,4.592606e+000
1.924517e+003,3.941071e+000
1.925481e+003,2.957336e+000
1.926446e+003,2.805481e+000
1.927410e+003,3.308243e+000
1.928374e+003,4.373672e+000
1.929338e+003,5.789200e+000
1.930303e+003,6.045288e+000
1.931267e+003,4.407562e+000
1.932231e+003,3.238754e+000
1.933195e+003,3.878922e+000
1.934160e+003,4.798492e+000
1.935124e+003,5.213943e+000
1.936088e+003,4.960922e+000
1.937052e+003,3.428909e+000
1.938017e+003,1.435669e+000
1.938981e+003,6.974030e-001
1.939945e+003,1.280457e+000
1.940909e+003,1.908997e+000
1.941874e+003,1.974533e+000
1.942838e+003,2.007507e+000
1.943802e+003,2.607407e+000
1.944766e+003,3.412842e+000
1.945730e+003,3.400223e+000
1.946695e+003,2.669022e+000
1.947659e+003,2.577057e+000
1.948623e+003,3.120316e+000
1.949587e+003,4.298889e+000
1.950552e+003,6.639755e+000
1.951516e+003,7.527435e+000
1.952480e+003,5.278671e+000
1.953444e+003,3.134659e+000
1.954408e+003,3.621948e+000
1.955373e+003,5.063751e+000
1.956337e+003,5.205948e+000
1.957301e+003,4.514786e+000
1.958265e+003,4.193573e+000
1.959230e+003,4.252121e+000
1.960194e+003,4.964310e+000
1.961158e+003,7.422745e+000
1.962122e+003,8.595871e+000
1.963087e+003,6.661194e+000
1.964051e+003,4.565781e+000
1.965015e+003,4.089050e+000
1.965979e+003,4.365463e+000
1.966944e+003,4.408310e+000
1.967908e+003,4.276520e+000
1.968872e+003,4.653687e+000
1.969836e+003,5.366196e+000
1.970801e+003,5.001465e+000
1.971765e+003,3.103973e+000
1.972729e+003,1.935059e+000
1.973693e+003,3.699677e+000
1.974657e+003,6.305939e+000
1.975622e+003,6.515457e+000
1.976586e+003,5.072342e+000
1.977550e+003,3.817673e+000
1.978514e+003,2.926041e+000
1.979479e+003,3.005920e+000
1.980443e+003,4.048065e+000
1.981407e+003,4.593155e+000
1.982371e+003,4.084946e+000
1.983335e+003,4.230011e+000
1.984300e+003,6.463013e+000
1.985264e+003,8.873169e+000
1.986228e+003,8.353455e+000
1.987192e+003,5.732681e+000
1.988157e+003,5.434052e+000
1.989121e+003,8.109787e+000
1.990085e+003,9.959930e+000
1.991049e+003,1.088889e+001
1.992014e+003,1.130122e+001
1.992978e+003,1.086986e+001
1.993942e+003,1.031532e+001
1.994906e+003,9.917633e+000
1.995871e+003,9.460968e+000
1.996835e+003,8.672638e+000
1.997799e+003,7.858429e+000
1.998763e+003,7.078766e+000
1.999728e+003,6.572418e+000
