5.003444e+002,4.099112e+001
5.013087e+002,3.995712e+001
5.022729e+002,3.942900e+001
5.032371e+002,3.906729e+001
5.042014e+002,3.708614e+001
5.051656e+002,3.382452e+001
5.061298e+002,3.098784e+001
5.070941e+002,3.017236e+001
5.080583e+002,3.182364e+001
5.090225e+002,3.276036e+001
5.099868e+002,3.270346e+001
5.109510e+002,3.247650e+001
5.119152e+002,3.241618e+001
5.128795e+002,3.254735e+001
5.138437e+002,3.293140e+001
5.148079e+002,3.403447e+001
5.157722e+002,3.504005e+001
5.167364e+002,3.571788e+001
5.177006e+002,3.591454e+001
5.186649e+002,3.548338e+001
5.196291e+002,3.391557e+001
5.205933e+002,3.198911e+001
5.215576e+002,3.021359e+001
5.225218e+002,2.868123e+001
5.234860e+002,2.761633e+001
5.244503e+002,2.755516e+001
5.254145e+002,2.905240e+001
5.263787e+002,2.990643e+001
5.273430e+002,2.992673e+001
5.283072e+002,2.944691e+001
5.292714e+002,2.877147e+001
5.302357e+002,2.741428e+001
5.311999e+002,2.669052e+001
5.321641e+002,2.729068e+001
5.331284e+002,2.826521e+001
5.340926e+002,2.889998e+001
5.350568e+002,2.888599e+001
5.360211e+002,2.841907e+001
5.369853e+002,2.770822e+001
5.379495e+002,2.688147e+001
5.389138e+002,2.591188e+001
5.398780e+002,2.480937e+001
5.408422e+002,2.367874e+001
5.418065e+002,2.279005e+001
5.427707e+002,2.214537e+001
5.437349e+002,2.200301e+001
5.446992e+002,2.261177e+001
5.456634e+002,2.363770e+001
5.466276e+002,2.393057e+001
5.475919e+002,2.268442e+001
5.485561e+002,2.169159e+001
5.495203e+002,2.075887e+001
5.504846e+002,2.012308e+001
5.514488e+002,2.028798e+001
5.524130e+002,2.195251e+001
5.533773e+002,2.341463e+001
5.543415e+002,2.406226e+001
5.553057e+002,2.400943e+001
5.562700e+002,2.313411e+001
5.572342e+002,2.136279e+001
5.581984e+002,1.925711e+001
5.591627e+002,1.819055e+001
5.601269e+002,1.792319e+001
5.610911e+002,1.808269e+001
5.620554e+002,1.849345e+001
5.630196e+002,1.905267e+001
5.639838e+002,1.912936e+001
5.649481e+002,1.867226e+001
5.659123e+002,1.783972e+001
5.668765e+002,1.628485e+001
5.678408e+002,1.446341e+001
5.688050e+002,1.360555e+001
5.697692e+002,1.481104e+001
5.707335e+002,1.564537e+001
5.716977e+002,1.518925e+001
5.726619e+002,1.407628e+001
5.736262e+002,1.325841e+001
5.745904e+002,1.346779e+001
5.755546e+002,1.389250e+001
5.765189e+002,1.288426e+001
5.774831e+002,1.106572e+001
5.784473e+002,9.658066e+000
5.794116e+002,9.530197e+000
5.803758e+002,1.060551e+001
5.813400e+002,1.120378e+001
5.823043e+002,1.114854e+001
5.832685e+002,1.092841e+001
5.842327e+002,1.057880e+001
5.851970e+002,1.023820e+001
5.861612e+002,1.044908e+001
5.871254e+002,1.182190e+001
5.880897e+002,1.308316e+001
5.890539e+002,1.432611e+001
5.900181e+002,1.518178e+001
5.909824e+002,1.508954e+001
5.919466e+002,1.352165e+001
5.929108e+002,1.128508e+001
5.938751e+002,8.814804e+000
5.948393e+002,6.534592e+000
5.958035e+002,5.185440e+000
5.967678e+002,5.302246e+000
5.977320e+002,6.729279e+000
5.986962e+002,8.370789e+000
5.996605e+002,1.027606e+001
6.006247e+002,1.137494e+001
6.015889e+002,1.092120e+001
6.025532e+002,9.034790e+000
6.035174e+002,7.385651e+000
6.044816e+002,4.942154e+000
6.054459e+002,4.076294e+000
6.064101e+002,6.464844e+000
6.073743e+002,1.046391e+001
6.083386e+002,1.318549e+001
6.093028e+002,1.294159e+001
6.102670e+002,1.140004e+001
6.112313e+002,9.264511e+000
6.121955e+002,7.195572e+000
6.131597e+002,6.143829e+000
6.141240e+002,6.736069e+000
6.150882e+002,8.479660e+000
6.160524e+002,9.371490e+000
6.170167e+002,9.603897e+000
6.179809e+002,9.730682e+000
6.189451e+002,9.933136e+000
6.199094e+002,1.015533e+001
6.208736e+002,1.028610e+001
6.218378e+002,1.064621e+001
6.228021e+002,1.068028e+001
6.237663e+002,9.952042e+000
6.247305e+002,8.993027e+000
6.256948e+002,8.702362e+000
6.266590e+002,9.671524e+000
6.276232e+002,1.056943e+001
6.285875e+002,1.069489e+001
6.295517e+002,1.041133e+001
6.305159e+002,9.927750e+000
6.314802e+002,9.373840e+000
6.324444e+002,8.888947e+000
6.334086e+002,9.586411e+000
6.343729e+002,1.097459e+001
6.353371e+002,1.097620e+001
6.363013e+002,8.559326e+000
6.372656e+002,4.585281e+000
6.382298e+002,2.213425e+000
6.391940e+002,2.881927e+000
6.401583e+002,3.444290e+000
6.411225e+002,4.432495e+000
6.420867e+002,5.191254e+000
6.430510e+002,4.473587e+000
6.440152e+002,1.124420e+000
6.449794e+002,-1.120789e+000
6.459437e+002,5.713806e-001
6.469079e+002,3.276764e+000
6.478721e+002,4.671707e+000
6.488364e+002,4.036545e+000
6.498006e+002,2.782318e+000
6.507648e+002,3.824112e+000
6.517291e+002,6.045654e+000
6.526933e+002,6.428452e+000
6.536575e+002,4.292938e+000
6.546218e+002,1.201797e+000
6.555860e+002,2.314453e-001
6.565502e+002,3.006134e+000
6.575145e+002,4.485977e+000
6.584787e+002,3.855026e+000
6.594429e+002,2.781570e+000
6.604072e+002,2.621048e+000
6.613714e+002,3.648132e+000
6.623356e+002,4.630280e+000
6.632999e+002,5.025497e+000
6.642641e+002,5.086884e+000
6.652283e+002,4.614899e+000
6.661926e+002,3.911774e+000
6.671568e+002,3.799042e+000
6.681210e+002,5.588318e+000
6.690853e+002,8.261475e+000
6.700495e+002,9.229050e+000
6.710137e+002,8.506744e+000
6.719780e+002,7.093491e+000
6.729422e+002,5.993347e+000
6.739064e+002,5.228806e+000
6.748707e+002,4.541061e+000
6.758349e+002,3.737076e+000
6.767991e+002,3.159897e+000
6.777634e+002,3.003693e+000
6.787276e+002,3.310562e+000
6.796918e+002,4.000458e+000
6.806561e+002,5.529526e+000
6.816203e+002,6.740356e+000
6.825845e+002,7.078201e+000
6.835488e+002,6.821976e+000
6.845130e+002,6.477249e+000
6.854772e+002,6.440338e+000
6.864415e+002,6.527740e+000
6.874057e+002,6.183929e+000
6.883699e+002,5.444534e+000
6.893342e+002,4.459061e+000
6.902984e+002,3.278366e+000
6.912626e+002,2.070129e+000
6.922269e+002,1.814850e+000
6.931911e+002,3.764160e+000
6.941553e+002,5.200562e+000
6.951196e+002,5.318680e+000
6.960838e+002,4.872498e+000
6.970480e+002,5.386948e+000
6.980123e+002,8.048355e+000
6.989765e+002,9.427887e+000
6.999407e+002,7.268021e+000
7.009050e+002,4.170914e+000
7.018692e+002,2.056030e+000
7.028334e+002,1.619263e+000
7.037977e+002,2.178818e+000
7.047619e+002,3.207870e+000
7.057261e+002,4.365112e+000
7.066904e+002,4.590836e+000
7.076546e+002,3.709885e+000
7.086188e+002,2.598907e+000
7.095831e+002,2.663269e+000
7.105473e+002,4.299377e+000
7.115115e+002,5.859802e+000
7.124758e+002,8.047745e+000
7.134400e+002,9.478912e+000
7.144042e+002,9.169891e+000
7.153685e+002,7.155731e+000
7.163327e+002,4.811813e+000
7.172969e+002,1.698715e+000
7.182612e+002,-5.751038e-001
7.192254e+002,-1.146759e+000
7.201896e+002,-3.564453e-001
7.211539e+002,1.173538e+000
7.221181e+002,3.056747e+000
7.230823e+002,4.932999e+000
7.240466e+002,5.914459e+000
7.250108e+002,6.224075e+000
7.259750e+002,6.319763e+000
7.269393e+002,6.399048e+000
7.279035e+002,6.347641e+000
7.288677e+002,5.921509e+000
7.298320e+002,4.885361e+000
7.307962e+002,4.085083e+000
7.317604e+002,3.468811e+000
7.327247e+002,3.178085e+000
7.336889e+002,3.537857e+000
7.346531e+002,4.841736e+000
7.356174e+002,5.527451e+000
7.365816e+002,4.450958e+000
7.375458e+002,3.018616e+000
7.385101e+002,2.361069e+000
7.394743e+002,2.698761e+000
7.404385e+002,3.273102e+000
7.414028e+002,2.795013e+000
7.423670e+002,1.421295e+000
7.433312e+002,7.316132e-001
7.442955e+002,9.787903e-001
7.452597e+002,1.728088e+000
7.462239e+002,2.498978e+000
7.471882e+002,3.314789e+000
7.481524e+002,3.838379e+000
7.491166e+002,3.726395e+000
7.500809e+002,3.540771e+000
7.510451e+002,3.464142e+000
7.520093e+002,3.496094e+000
7.529736e+002,3.589096e+000
7.539378e+002,3.915680e+000
7.549020e+002,4.198639e+000
7.558663e+002,4.246689e+000
7.568306e+002,4.134018e+000
7.577948e+002,3.869247e+000
7.587590e+002,3.455338e+000
7.597233e+002,2.988556e+000
7.606875e+002,3.021744e+000
7.616517e+002,3.543427e+000
7.626160e+002,4.050323e+000
7.635802e+002,4.547913e+000
7.645444e+002,4.868896e+000
7.655087e+002,4.481461e+000
7.664729e+002,2.520340e+000
7.674371e+002,1.791290e+000
7.684014e+002,3.266464e+000
7.693656e+002,5.025558e+000
7.703298e+002,5.872864e+000
7.712941e+002,5.686295e+000
7.722583e+002,5.286530e+000
7.732225e+002,5.314102e+000
7.741868e+002,5.272629e+000
7.751510e+002,4.533890e+000
7.761152e+002,3.391968e+000
7.770795e+002,2.602188e+000
7.780437e+002,2.828888e+000
7.790079e+002,3.875793e+000
7.799722e+002,3.990814e+000
7.809364e+002,2.933914e+000
7.819006e+002,2.710602e+000
7.828649e+002,5.017761e+000
7.838291e+002,8.859970e+000
7.847933e+002,1.060677e+001
7.857576e+002,8.396317e+000
7.867218e+002,6.716507e+000
7.876860e+002,7.029068e+000
7.886503e+002,7.798813e+000
7.896145e+002,7.571976e+000
7.905787e+002,6.027512e+000
7.915430e+002,4.420120e+000
7.925072e+002,3.921173e+000
7.934714e+002,4.135345e+000
7.944357e+002,5.175842e+000
7.953999e+002,6.826569e+000
7.963641e+002,8.202194e+000
7.973284e+002,8.258438e+000
7.982926e+002,6.910965e+000
7.992568e+002,5.667419e+000
8.002211e+002,3.798981e+000
8.011853e+002,2.752045e+000
8.021495e+002,3.965363e+000
8.031138e+002,6.748428e+000
8.040780e+002,8.124298e+000
8.050422e+002,6.314774e+000
8.060065e+002,4.840454e+000
8.069707e+002,4.953033e+000
8.079349e+002,5.736160e+000
8.088992e+002,6.334900e+000
8.098634e+002,6.469772e+000
8.108276e+002,6.585739e+000
8.117919e+002,7.543411e+000
8.127561e+002,8.620956e+000
8.137203e+002,8.285660e+000
8.146846e+002,6.497147e+000
8.156488e+002,4.833130e+000
8.166130e+002,5.327591e+000
8.175773e+002,8.584000e+000
8.185415e+002,1.018861e+001
8.195057e+002,8.969513e+000
8.204700e+002,7.738312e+000
8.214342e+002,7.596497e+000
8.223984e+002,8.157135e+000
8.233627e+002,8.214554e+000
8.243269e+002,7.026627e+000
8.252911e+002,6.047379e+000
8.262554e+002,6.279861e+000
8.272196e+002,6.979752e+000
8.281838e+002,7.422073e+000
8.291481e+002,7.316772e+000
8.301123e+002,6.848999e+000
8.310765e+002,6.245422e+000
8.320408e+002,5.555771e+000
8.330050e+002,5.496063e+000
8.339692e+002,6.403320e+000
8.349335e+002,7.093109e+000
8.358977e+002,5.977722e+000
8.368619e+002,2.640945e+000
8.378262e+002,9.412537e-001
8.387904e+002,2.188568e+000
8.397546e+002,3.572083e+000
8.407189e+002,4.570511e+000
8.416831e+002,5.224091e+000
8.426473e+002,5.779343e+000
8.436116e+002,6.380646e+000
8.445758e+002,6.794800e+000
8.455400e+002,6.468872e+000
8.465043e+002,5.818588e+000
8.474685e+002,5.279312e+000
8.484327e+002,5.104477e+000
8.493970e+002,5.525803e+000
8.503612e+002,6.894028e+000
8.513254e+002,9.450806e+000
8.522897e+002,1.071140e+001
8.532539e+002,9.939789e+000
8.542181e+002,8.907806e+000
8.551824e+002,8.736588e+000
8.561466e+002,9.408813e+000
8.571108e+002,1.010503e+001
8.580751e+002,1.043141e+001
8.590393e+002,1.065651e+001
8.600035e+002,1.100893e+001
8.609678e+002,1.138409e+001
8.619320e+002,1.161536e+001
8.628962e+002,1.163290e+001
8.638605e+002,1.156802e+001
8.648247e+002,1.172081e+001
8.657889e+002,1.189212e+001
8.667532e+002,1.143915e+001
8.677174e+002,1.028708e+001
8.686816e+002,9.477661e+000
8.696459e+002,1.038866e+001
8.706101e+002,1.341603e+001
8.715743e+002,1.546208e+001
8.725386e+002,1.612303e+001
8.735028e+002,1.646181e+001
8.744670e+002,1.647346e+001
8.754313e+002,1.627834e+001
8.763955e+002,1.611215e+001
8.773597e+002,1.606517e+001
8.783240e+002,1.618144e+001
8.792882e+002,1.637932e+001
8.802524e+002,1.672377e+001
8.812167e+002,1.759375e+001
8.821809e+002,1.884384e+001
8.831451e+002,1.965337e+001
8.841094e+002,1.887080e+001
8.850736e+002,1.669173e+001
8.860378e+002,1.620155e+001
8.870021e+002,1.760507e+001
8.879663e+002,1.941853e+001
8.889305e+002,2.112468e+001
8.898948e+002,2.260132e+001
8.908590e+002,2.327559e+001
8.918232e+002,2.267902e+001
8.927875e+002,2.206793e+001
8.937517e+002,2.141505e+001
8.947159e+002,2.106873e+001
8.956802e+002,2.125917e+001
8.966444e+002,2.198900e+001
8.976086e+002,2.314053e+001
8.985729e+002,2.495671e+001
8.995371e+002,2.696648e+001
9.005013e+002,2.841667e+001
9.014656e+002,2.931435e+001
9.024298e+002,2.965599e+001
9.033940e+002,2.933163e+001
9.043583e+002,2.837050e+001
9.053225e+002,2.754753e+001
9.062867e+002,2.664381e+001
9.072510e+002,2.610767e+001
9.082152e+002,2.676064e+001
9.091794e+002,2.744354e+001
9.101437e+002,2.654089e+001
9.111079e+002,2.376260e+001
9.120721e+002,2.181082e+001
9.130364e+002,2.339537e+001
9.140006e+002,2.519539e+001
9.149648e+002,2.496786e+001
9.159291e+002,2.353879e+001
9.168933e+002,2.299370e+001
9.178575e+002,2.472809e+001
9.188218e+002,2.778943e+001
9.197860e+002,2.904129e+001
9.207502e+002,2.847308e+001
9.217145e+002,2.707269e+001
9.226787e+002,2.450858e+001
9.236429e+002,2.184514e+001
9.246072e+002,2.050702e+001
9.255714e+002,2.062422e+001
9.265356e+002,2.103848e+001
9.274999e+002,2.222069e+001
9.284641e+002,2.287830e+001
9.294283e+002,2.241060e+001
9.303926e+002,2.118626e+001
9.313568e+002,1.971170e+001
9.323210e+002,1.818997e+001
9.332853e+002,1.701956e+001
9.342495e+002,1.743182e+001
9.352137e+002,1.849817e+001
9.361780e+002,1.880846e+001
9.371422e+002,1.812245e+001
9.381064e+002,1.710045e+001
9.390707e+002,1.650104e+001
9.400349e+002,1.622449e+001
9.409991e+002,1.649844e+001
9.419634e+002,1.818236e+001
9.429276e+002,1.921069e+001
9.438918e+002,1.860880e+001
9.448561e+002,1.718544e+001
9.458203e+002,1.642242e+001
9.467845e+002,1.690227e+001
9.477488e+002,1.727591e+001
9.487130e+002,1.640648e+001
9.496772e+002,1.506601e+001
9.506415e+002,1.334258e+001
9.516057e+002,1.162550e+001
9.525699e+002,1.092946e+001
9.535342e+002,1.227463e+001
9.544984e+002,1.525388e+001
9.554626e+002,1.649129e+001
9.564269e+002,1.594325e+001
9.573911e+002,1.513419e+001
9.583553e+002,1.435829e+001
9.593196e+002,1.353667e+001
9.602838e+002,1.240331e+001
9.612480e+002,1.068329e+001
9.622123e+002,9.683319e+000
9.631765e+002,1.046439e+001
9.641407e+002,1.139276e+001
9.651050e+002,1.167824e+001
9.660692e+002,1.145088e+001
9.670334e+002,1.141170e+001
9.679977e+002,1.206526e+001
9.689619e+002,1.270143e+001
9.699261e+002,1.053352e+001
9.708904e+002,6.793610e+000
9.718546e+002,5.820206e+000
9.728188e+002,8.915970e+000
9.737831e+002,1.340625e+001
9.747473e+002,1.568939e+001
9.757115e+002,1.524205e+001
9.766758e+002,1.555980e+001
9.776400e+002,1.847179e+001
9.786042e+002,2.005206e+001
9.795685e+002,1.846991e+001
9.805327e+002,1.528973e+001
9.814969e+002,1.250630e+001
9.824612e+002,1.082863e+001
9.834254e+002,1.003839e+001
9.843896e+002,1.073367e+001
9.853539e+002,1.156831e+001
9.863181e+002,1.080615e+001
9.872823e+002,8.581345e+000
9.882466e+002,6.251022e+000
9.892108e+002,5.026489e+000
9.901750e+002,4.909622e+000
9.911393e+002,5.240692e+000
9.921035e+002,6.030807e+000
9.930677e+002,6.881409e+000
9.940320e+002,8.453842e+000
9.949962e+002,9.716141e+000
9.959604e+002,9.336502e+000
9.969247e+002,7.342896e+000
9.978889e+002,5.876099e+000
9.988531e+002,6.256348e+000
9.998174e+002,6.825394e+000
1.000782e+003,6.477875e+000
1.001746e+003,5.786453e+000
1.002710e+003,5.802673e+000
1.003674e+003,6.859741e+000
1.004639e+003,8.013367e+000
1.005603e+003,7.490891e+000
1.006567e+003,5.067993e+000
1.007531e+003,4.004227e+000
1.008495e+003,4.882645e+000
1.009460e+003,5.888947e+000
1.010424e+003,5.893799e+000
1.011388e+003,5.166122e+000
1.012352e+003,4.685822e+000
1.013317e+003,4.418167e+000
1.014281e+003,4.675110e+000
1.015245e+003,6.315384e+000
1.016209e+003,7.681519e+000
1.017174e+003,7.143173e+000
1.018138e+003,5.037491e+000
1.019102e+003,3.301605e+000
1.020066e+003,3.619019e+000
1.021031e+003,5.143311e+000
1.021995e+003,5.064499e+000
1.022959e+003,3.691589e+000
1.023923e+003,2.917770e+000
1.024887e+003,3.525253e+000
1.025852e+003,4.686188e+000
1.026816e+003,5.257034e+000
1.027780e+003,5.354813e+000
1.028744e+003,4.553406e+000
1.029709e+003,1.179703e+000
1.030673e+003,-1.206192e+000
1.031637e+003,-7.803192e-001
1.032601e+003,9.158173e-001
1.033566e+003,1.666809e+000
1.034530e+003,7.276611e-001
1.035494e+003,-6.227341e-001
1.036458e+003,-9.495773e-001
1.037422e+003,-8.703461e-001
1.038387e+003,-1.664398e+000
1.039351e+003,-3.233627e+000
1.040315e+003,-4.226334e+000
1.041279e+003,-3.517380e+000
1.042244e+003,-1.492538e+000
1.043208e+003,-2.026215e-001
1.044172e+003,-1.587448e-001
1.045136e+003,-2.105560e-001
1.046101e+003,-3.791351e-001
1.047065e+003,-5.108490e-001
1.048029e+003,-4.248581e-001
1.048993e+003,-2.338104e-001
1.049958e+003,-3.837433e-001
1.050922e+003,-1.269127e+000
1.051886e+003,-1.933739e+000
1.052850e+003,-1.081223e+000
1.053814e+003,3.702545e-001
1.054779e+003,1.275528e+000
1.055743e+003,1.365768e+000
1.056707e+003,1.014603e+000
1.057671e+003,6.539307e-001
1.058636e+003,2.685547e-001
1.059600e+003,6.378937e-002
1.060564e+003,2.778473e-001
1.061528e+003,4.953690e-001
1.062493e+003,4.157944e-001
1.063457e+003,3.400116e-001
1.064421e+003,8.591385e-001
1.065385e+003,2.034920e+000
1.066349e+003,2.715736e+000
1.067314e+003,2.026573e+000
1.068278e+003,9.819717e-001
1.069242e+003,-2.772522e-001
1.070206e+003,-1.154480e+000
1.071171e+003,-2.807007e-001
1.072135e+003,2.598877e+000
1.073099e+003,5.558273e+000
1.074063e+003,5.314957e+000
1.075028e+003,1.505142e+000
1.075992e+003,-9.109192e-001
1.076956e+003,-1.869926e+000
1.077920e+003,-2.029129e+000
1.078885e+003,-9.380875e-001
1.079849e+003,6.492844e-001
1.080813e+003,1.177795e+000
1.081777e+003,2.561951e-001
1.082741e+003,-6.177597e-001
1.083706e+003,-7.858047e-001
1.084670e+003,-7.556458e-001
1.085634e+003,-8.292923e-001
1.086598e+003,-9.023438e-001
1.087563e+003,-6.742706e-001
1.088527e+003,3.810883e-002
1.089491e+003,1.147095e+000
1.090455e+003,2.538277e+000
1.091420e+003,4.202461e+000
1.092384e+003,4.011147e+000
1.093348e+003,9.252548e-001
1.094312e+003,-2.184341e+000
1.095276e+003,-3.818619e+000
1.096241e+003,-4.116112e+000
1.097205e+003,-3.313316e+000
1.098169e+003,-8.117218e-001
1.099133e+003,8.081818e-001
1.100098e+003,-4.951477e-003
1.101062e+003,-1.309929e+000
1.102026e+003,-2.246262e+000
1.102990e+003,-2.601738e+000
1.103955e+003,-2.161873e+000
1.104919e+003,-8.450470e-001
1.105883e+003,5.571747e-001
1.106847e+003,1.970520e-001
1.107812e+003,-1.962250e+000
1.108776e+003,-3.172035e+000
1.109740e+003,-3.096771e+000
1.110704e+003,-2.531265e+000
1.111668e+003,-1.567085e+000
1.112633e+003,-4.279709e-001
1.113597e+003,-4.804611e-001
1.114561e+003,-2.613983e+000
1.115525e+003,-4.284805e+000
1.116490e+003,-4.526878e+000
1.117454e+003,-4.312737e+000
1.118418e+003,-4.084160e+000
1.119382e+003,-3.890060e+000
1.120347e+003,-3.623169e+000
1.121311e+003,-3.271935e+000
1.122275e+003,-3.069679e+000
1.123239e+003,-3.429352e+000
1.124203e+003,-4.190910e+000
1.125168e+003,-4.426208e+000
1.126132e+003,-3.916153e+000
1.127096e+003,-3.215523e+000
1.128060e+003,-2.769493e+000
1.129025e+003,-2.538200e+000
1.129989e+003,-2.265198e+000
1.130953e+003,-2.108337e+000
1.131917e+003,-1.547905e+000
1.132882e+003,1.181030e-001
1.133846e+003,1.678780e+000
1.134810e+003,2.501640e+000
1.135774e+003,2.585846e+000
1.136739e+003,2.021286e+000
1.137703e+003,8.753128e-001
1.138667e+003,-4.199371e-001
1.139631e+003,-1.206383e+000
1.140595e+003,-1.407295e+000
1.141560e+003,-6.984558e-001
1.142524e+003,1.232574e+000
1.143488e+003,3.218864e+000
1.144452e+003,4.178253e+000
1.145417e+003,4.526535e+000
1.146381e+003,5.904617e+000
1.147345e+003,8.786743e+000
1.148309e+003,1.147162e+001
1.149274e+003,1.392274e+001
1.150238e+003,1.577907e+001
1.151202e+003,1.626741e+001
1.152166e+003,1.621356e+001
1.153130e+003,1.728754e+001
1.154095e+003,2.009846e+001
1.155059e+003,2.295193e+001
1.156023e+003,2.333037e+001
1.156987e+003,2.162283e+001
1.157952e+003,2.128616e+001
1.158916e+003,2.285626e+001
1.159880e+003,2.351659e+001
1.160844e+003,2.107442e+001
1.161809e+003,1.671196e+001
1.162773e+003,1.321168e+001
1.163737e+003,1.069028e+001
1.164701e+003,8.612785e+000
1.165666e+003,7.343254e+000
1.166630e+003,6.070839e+000
1.167594e+003,4.269630e+000
1.168558e+003,2.367973e+000
1.169522e+003,7.859879e-001
1.170487e+003,-2.312698e-001
1.171451e+003,-2.938004e-001
1.172415e+003,1.210564e+000
1.173379e+003,3.795197e+000
1.174344e+003,4.973724e+000
1.175308e+003,4.802811e+000
1.176272e+003,4.125519e+000
1.177236e+003,3.044075e+000
1.178201e+003,1.758339e+000
1.179165e+003,3.017426e-001
1.180129e+003,-1.385620e+000
1.181093e+003,-2.474930e+000
1.182057e+003,-2.579498e+000
1.183022e+003,-2.262367e+000
1.183986e+003,-8.805237e-001
1.184950e+003,1.888580e-001
1.185914e+003,-1.075226e+000
1.186879e+003,-4.174545e+000
1.187843e+003,-6.235527e+000
1.188807e+003,-4.891640e+000
1.189771e+003,-1.578308e+000
1.190736e+003,-6.603546e-001
1.191700e+003,-2.454659e+000
1.192664e+003,-3.543137e+000
1.193628e+003,-3.434685e+000
1.194593e+003,-2.761848e+000
1.195557e+003,-1.599159e+000
1.196521e+003,-2.339401e-001
1.197485e+003,2.761765e-001
1.198449e+003,-4.163361e-001
1.199414e+003,-1.336220e+000
1.200378e+003,-2.120445e+000
1.201342e+003,-2.901848e+000
1.202306e+003,-3.992638e+000
1.203271e+003,-5.143394e+000
1.204235e+003,-5.686340e+000
1.205199e+003,-5.357353e+000
1.206163e+003,-4.867752e+000
1.207128e+003,-5.501343e+000
1.208092e+003,-7.345772e+000
1.209056e+003,-7.986511e+000
1.210020e+003,-6.760460e+000
1.210984e+003,-5.872185e+000
1.211949e+003,-6.062988e+000
1.212913e+003,-6.879539e+000
1.213877e+003,-7.942604e+000
1.214841e+003,-9.162987e+000
1.215806e+003,-9.740768e+000
1.216770e+003,-8.671028e+000
1.217734e+003,-8.053314e+000
1.218698e+003,-1.012579e+001
1.219663e+003,-1.298795e+001
1.220627e+003,-1.411272e+001
1.221591e+003,-1.323345e+001
1.222555e+003,-1.203133e+001
1.223520e+003,-1.206383e+001
1.224484e+003,-1.292393e+001
1.225448e+003,-1.274978e+001
1.226412e+003,-1.070090e+001
1.227376e+003,-9.545860e+000
1.228341e+003,-9.736374e+000
1.229305e+003,-1.031451e+001
1.230269e+003,-1.094989e+001
1.231233e+003,-1.156071e+001
1.232198e+003,-1.212003e+001
1.233162e+003,-1.261740e+001
1.234126e+003,-1.257669e+001
1.235090e+003,-1.089252e+001
1.236055e+003,-9.342926e+000
1.237019e+003,-1.038321e+001
1.237983e+003,-1.308105e+001
1.238947e+003,-1.484958e+001
1.239911e+003,-1.458309e+001
1.240876e+003,-1.318175e+001
1.241840e+003,-1.185120e+001
1.242804e+003,-1.053625e+001
1.243768e+003,-1.020830e+001
1.244733e+003,-1.207417e+001
1.245697e+003,-1.335170e+001
1.246661e+003,-1.379260e+001
1.247625e+003,-1.373367e+001
1.248590e+003,-1.302168e+001
1.249554e+003,-1.198300e+001
1.250518e+003,-1.160300e+001
1.251482e+003,-1.242014e+001
1.252447e+003,-1.336416e+001
1.253411e+003,-1.300623e+001
1.254375e+003,-1.182464e+001
1.255339e+003,-1.082313e+001
1.256303e+003,-1.003487e+001
1.257268e+003,-9.458496e+000
1.258232e+003,-9.195999e+000
1.259196e+003,-9.144623e+000
1.260160e+003,-8.942223e+000
1.261125e+003,-8.452789e+000
1.262089e+003,-8.337425e+000
1.263053e+003,-9.165436e+000
1.264017e+003,-9.872353e+000
1.264982e+003,-1.022132e+001
1.265946e+003,-1.029240e+001
1.266910e+003,-1.010809e+001
1.267874e+003,-9.736801e+000
1.268839e+003,-9.245773e+000
1.269803e+003,-8.670776e+000
1.270767e+003,-8.212189e+000
1.271731e+003,-8.400803e+000
1.272695e+003,-9.151749e+000
1.273660e+003,-9.040405e+000
1.274624e+003,-7.669884e+000
1.275588e+003,-6.662239e+000
1.276552e+003,-7.132210e+000
1.277517e+003,-8.332443e+000
1.278481e+003,-8.797188e+000
1.279445e+003,-8.382927e+000
1.280409e+003,-8.503922e+000
1.281374e+003,-1.022942e+001
1.282338e+003,-1.171925e+001
1.283302e+003,-1.201963e+001
1.284266e+003,-1.161168e+001
1.285230e+003,-1.089169e+001
1.286195e+003,-1.006633e+001
1.287159e+003,-9.200012e+000
1.288123e+003,-8.320503e+000
1.289087e+003,-7.697655e+000
1.290052e+003,-8.356316e+000
1.291016e+003,-1.111362e+001
1.291980e+003,-1.228056e+001
1.292944e+003,-1.106165e+001
1.293909e+003,-9.554672e+000
1.294873e+003,-7.864937e+000
1.295837e+003,-6.640892e+000
1.296801e+003,-7.191483e+000
1.297766e+003,-9.500847e+000
1.298730e+003,-1.141663e+001
1.299694e+003,-1.179037e+001
1.300658e+003,-1.146770e+001
1.301622e+003,-1.109983e+001
1.302587e+003,-1.078708e+001
1.303551e+003,-1.085583e+001
1.304515e+003,-1.128637e+001
1.305479e+003,-1.150753e+001
1.306444e+003,-1.106896e+001
1.307408e+003,-1.015305e+001
1.308372e+003,-9.136650e+000
1.309336e+003,-7.563187e+000
1.310301e+003,-7.368256e+000
1.311265e+003,-1.040254e+001
1.312229e+003,-1.254917e+001
1.313193e+003,-1.206055e+001
1.314157e+003,-1.047555e+001
1.315122e+003,-9.244759e+000
1.316086e+003,-8.718742e+000
1.317050e+003,-8.723366e+000
1.318014e+003,-9.163513e+000
1.318979e+003,-9.667290e+000
1.319943e+003,-9.450691e+000
1.320907e+003,-8.644829e+000
1.321871e+003,-8.647400e+000
1.322836e+003,-9.776962e+000
1.323800e+003,-1.104269e+001
1.324764e+003,-1.213919e+001
1.325728e+003,-1.291476e+001
1.326693e+003,-1.305044e+001
1.327657e+003,-1.255904e+001
1.328621e+003,-1.200868e+001
1.329585e+003,-1.147855e+001
1.330549e+003,-1.069633e+001
1.331514e+003,-9.091141e+000
1.332478e+003,-7.746376e+000
1.333442e+003,-7.915779e+000
1.334406e+003,-9.315079e+000
1.335371e+003,-1.070586e+001
1.336335e+003,-1.133044e+001
1.337299e+003,-1.153607e+001
1.338263e+003,-1.205639e+001
1.339228e+003,-1.304099e+001
1.340192e+003,-1.286931e+001
1.341156e+003,-1.055347e+001
1.342120e+003,-8.622322e+000
1.343084e+003,-7.217354e+000
1.344049e+003,-6.612801e+000
1.345013e+003,-7.627113e+000
1.345977e+003,-9.535156e+000
1.346941e+003,-1.023065e+001
1.347906e+003,-8.905495e+000
1.348870e+003,-7.249329e+000
1.349834e+003,-6.839569e+000
1.350798e+003,-7.152443e+000
1.351763e+003,-7.013504e+000
1.352727e+003,-6.501579e+000
1.353691e+003,-6.232498e+000
1.354655e+003,-6.469872e+000
1.355620e+003,-6.846024e+000
1.356584e+003,-6.638557e+000
1.357548e+003,-6.008537e+000
1.358512e+003,-6.856247e+000
1.359476e+003,-1.032737e+001
1.360441e+003,-1.262501e+001
1.361405e+003,-1.197192e+001
1.362369e+003,-1.078802e+001
1.363333e+003,-1.020809e+001
1.364298e+003,-9.851830e+000
1.365262e+003,-8.922356e+000
1.366226e+003,-7.329727e+000
1.367190e+003,-5.641121e+000
1.368155e+003,-4.334381e+000
1.369119e+003,-3.669395e+000
1.370083e+003,-4.582062e+000
1.371047e+003,-7.700180e+000
1.372011e+003,-9.585197e+000
1.372976e+003,-9.611839e+000
1.373940e+003,-9.424698e+000
1.374904e+003,-9.768913e+000
1.375868e+003,-1.008736e+001
1.376833e+003,-9.467804e+000
1.377797e+003,-8.023674e+000
1.378761e+003,-7.052330e+000
1.379725e+003,-7.261719e+000
1.380690e+003,-7.507851e+000
1.381654e+003,-5.664261e+000
1.382618e+003,-3.597824e+000
1.383582e+003,-4.891769e+000
1.384547e+003,-9.064606e+000
1.385511e+003,-1.132969e+001
1.386475e+003,-8.941391e+000
1.387439e+003,-4.819893e+000
1.388403e+003,-3.457977e+000
1.389368e+003,-4.853668e+000
1.390332e+003,-5.896866e+000
1.391296e+003,-6.415009e+000
1.392260e+003,-6.670418e+000
1.393225e+003,-6.859497e+000
1.394189e+003,-6.734131e+000
1.395153e+003,-5.566452e+000
1.396117e+003,-4.238617e+000
1.397082e+003,-4.468864e+000
1.398046e+003,-6.339439e+000
1.399010e+003,-7.731293e+000
1.399974e+003,-6.690491e+000
1.400938e+003,-4.250412e+000
1.401903e+003,-3.525414e+000
1.402867e+003,-4.887329e+000
1.403831e+003,-5.790207e+000
1.404795e+003,-6.559883e+000
1.405760e+003,-6.623413e+000
1.406724e+003,-4.910568e+000
1.407688e+003,-3.184433e+000
1.408652e+003,-3.851295e+000
1.409617e+003,-6.507782e+000
1.410581e+003,-8.337532e+000
1.411545e+003,-8.135872e+000
1.412509e+003,-7.421761e+000
1.413474e+003,-7.885567e+000
1.414438e+003,-8.676018e+000
1.415402e+003,-8.001503e+000
1.416366e+003,-6.071106e+000
1.417330e+003,-4.646576e+000
1.418295e+003,-4.465698e+000
1.419259e+003,-4.801025e+000
1.420223e+003,-4.922272e+000
1.421187e+003,-4.894203e+000
1.422152e+003,-4.871796e+000
1.423116e+003,-4.743515e+000
1.424080e+003,-4.791298e+000
1.425044e+003,-5.596512e+000
1.426009e+003,-6.153923e+000
1.426973e+003,-5.669037e+000
1.427937e+003,-4.933495e+000
1.428901e+003,-5.111420e+000
1.429865e+003,-6.054588e+000
1.430830e+003,-6.576576e+000
1.431794e+003,-5.916405e+000
1.432758e+003,-4.359634e+000
1.433722e+003,-2.245247e+000
1.434687e+003,7.402267e-001
1.435651e+003,1.428871e+000
1.436615e+003,-2.780144e+000
1.437579e+003,-5.790321e+000
1.438544e+003,-6.617538e+000
1.439508e+003,-6.507248e+000
1.440472e+003,-6.016296e+000
1.441436e+003,-5.238556e+000
1.442401e+003,-4.059807e+000
1.443365e+003,-2.552727e+000
1.444329e+003,-1.389839e+000
1.445293e+003,-1.082085e+000
1.446257e+003,-1.290871e+000
1.447222e+003,-1.477715e+000
1.448186e+003,-1.669037e+000
1.449150e+003,-1.906891e+000
1.450114e+003,-2.129631e+000
1.451079e+003,-2.737389e+000
1.452043e+003,-4.821884e+000
1.453007e+003,-6.710167e+000
1.453971e+003,-5.276672e+000
1.454936e+003,-1.160133e+000
1.455900e+003,5.372543e-001
1.456864e+003,-1.956711e+000
1.457828e+003,-4.284225e+000
1.458792e+003,-3.398186e+000
1.459757e+003,-1.876831e+000
1.460721e+003,-1.898331e+000
1.461685e+003,-2.885506e+000
1.462649e+003,-3.443413e+000
1.463614e+003,-3.201820e+000
1.464578e+003,-2.798561e+000
1.465542e+003,-2.744446e+000
1.466506e+003,-3.117615e+000
1.467471e+003,-4.397240e+000
1.468435e+003,-7.058090e+000
1.469399e+003,-7.899101e+000
1.470363e+003,-5.278725e+000
1.471328e+003,-3.012199e+000
1.472292e+003,-1.871773e+000
1.473256e+003,-1.526711e+000
1.474220e+003,-2.063774e+000
1.475184e+003,-2.931236e+000
1.476149e+003,-3.287506e+000
1.477113e+003,-2.929024e+000
1.478077e+003,-2.413147e+000
1.479041e+003,-2.241585e+000
1.480006e+003,-2.168510e+000
1.480970e+003,-1.447243e+000
1.481934e+003,2.448044e-001
1.482898e+003,8.800354e-001
1.483863e+003,-4.855270e-001
1.484827e+003,-1.485420e+000
1.485791e+003,-8.956985e-001
1.486755e+003,-1.092224e-001
1.487719e+003,-7.030029e-001
1.488684e+003,-2.234077e+000
1.489648e+003,-3.138962e+000
1.490612e+003,-2.900070e+000
1.491576e+003,-2.307526e+000
1.492541e+003,-2.008888e+000
1.493505e+003,-1.848656e+000
1.494469e+003,-1.413139e+000
1.495433e+003,-8.248444e-001
1.496398e+003,-5.381699e-001
1.497362e+003,-6.795120e-001
1.498326e+003,-5.794144e-001
1.499290e+003,2.622147e-001
1.500255e+003,1.410599e+000
1.501219e+003,2.158623e+000
1.502183e+003,2.604218e+000
1.503147e+003,3.617271e+000
1.504111e+003,5.550514e+000
1.505076e+003,7.184326e+000
1.506040e+003,7.458336e+000
1.507004e+003,7.517044e+000
1.507968e+003,8.629066e+000
1.508933e+003,1.035341e+001
1.509897e+003,1.157453e+001
1.510861e+003,1.222548e+001
1.511825e+003,1.378138e+001
1.512790e+003,1.758251e+001
1.513754e+003,2.214693e+001
1.514718e+003,2.433187e+001
1.515682e+003,2.411451e+001
1.516646e+003,2.551995e+001
1.517611e+003,3.001875e+001
1.518575e+003,3.349751e+001
1.519539e+003,3.419470e+001
1.520503e+003,3.413889e+001
1.521468e+003,3.405193e+001
1.522432e+003,3.396791e+001
1.523396e+003,3.386807e+001
1.524360e+003,3.370605e+001
1.525325e+003,3.342244e+001
1.526289e+003,3.299434e+001
1.527253e+003,3.235464e+001
1.528217e+003,3.143013e+001
1.529182e+003,3.026970e+001
1.530146e+003,2.794321e+001
1.531110e+003,2.336517e+001
1.532074e+003,1.955757e+001
1.533039e+003,1.704462e+001
1.534003e+003,1.467177e+001
1.534967e+003,1.210565e+001
1.535931e+003,9.493500e+000
1.536896e+003,6.779266e+000
1.537860e+003,4.207832e+000
1.538824e+003,2.355057e+000
1.539788e+003,1.475250e+000
1.540752e+003,1.242905e+000
1.541717e+003,1.357628e+000
1.542681e+003,1.680923e+000
1.543645e+003,1.138351e+000
1.544609e+003,-1.049644e+000
1.545573e+003,-1.878868e+000
1.546538e+003,-6.195755e-001
1.547502e+003,8.219757e-001
1.548466e+003,2.035690e+000
1.549430e+003,3.032753e+000
1.550395e+003,3.988220e+000
1.551359e+003,4.675720e+000
1.552323e+003,4.260361e+000
1.553287e+003,2.569397e+000
1.554252e+003,1.192879e+000
1.555216e+003,1.641342e+000
1.556180e+003,2.993645e+000
1.557144e+003,3.029564e+000
1.558109e+003,1.715523e+000
1.559073e+003,9.697418e-001
1.560037e+003,1.124420e+000
1.561001e+003,1.032715e+000
1.561966e+003,-7.014465e-002
1.562930e+003,-1.055321e+000
1.563894e+003,-6.570892e-001
1.564858e+003,5.611572e-001
1.565823e+003,1.101067e+000
1.566787e+003,7.034531e-001
1.567751e+003,4.754791e-001
1.568715e+003,1.154541e+000
1.569679e+003,1.971725e+000
1.570644e+003,1.884102e+000
1.571608e+003,1.117653e+000
1.572572e+003,3.215179e-001
1.573536e+003,-4.624863e-001
1.574500e+003,-5.601273e-001
1.575465e+003,7.114258e-001
1.576429e+003,1.957382e+000
1.577393e+003,1.466492e+000
1.578357e+003,3.727951e-001
1.579322e+003,1.360092e+000
1.580286e+003,4.405502e+000
1.581250e+003,6.575974e+000
1.582214e+003,6.911652e+000
1.583179e+003,6.473373e+000
1.584143e+003,5.758003e+000
1.585107e+003,4.850914e+000
1.586071e+003,3.888000e+000
1.587036e+003,2.963638e+000
1.588000e+003,2.133217e+000
1.588964e+003,1.346001e+000
1.589928e+003,8.664780e-001
1.590893e+003,8.872910e-001
1.591857e+003,1.321266e+000
1.592821e+003,2.106392e+000
1.593785e+003,3.217690e+000
1.594750e+003,4.537773e+000
1.595714e+003,6.108040e+000
1.596678e+003,7.348145e+000
1.597642e+003,8.013870e+000
1.598606e+003,8.302719e+000
1.599571e+003,8.232101e+000
1.600535e+003,8.034157e+000
1.601499e+003,8.126717e+000
1.602463e+003,8.388618e+000
1.603427e+003,8.009872e+000
1.604392e+003,6.538528e+000
1.605356e+003,5.365044e+000
1.606320e+003,6.161919e+000
1.607284e+003,8.259422e+000
1.608249e+003,9.977165e+000
1.609213e+003,1.132800e+001
1.610177e+003,1.149743e+001
1.611141e+003,9.952248e+000
1.612106e+003,8.221214e+000
1.613070e+003,6.621361e+000
1.614034e+003,5.490921e+000
1.614998e+003,5.280891e+000
1.615963e+003,5.648048e+000
1.616927e+003,6.047363e+000
1.617891e+003,6.356949e+000
1.618855e+003,6.653748e+000
1.619820e+003,6.951317e+000
1.620784e+003,7.227432e+000
1.621748e+003,7.565590e+000
1.622712e+003,8.026634e+000
1.623677e+003,8.471771e+000
1.624641e+003,8.898254e+000
1.625605e+003,9.346588e+000
1.626569e+003,9.544067e+000
1.627533e+003,9.934387e+000
1.628498e+003,1.167665e+001
1.629462e+003,1.302393e+001
1.630426e+003,1.178885e+001
1.631390e+003,9.110031e+000
1.632354e+003,7.612534e+000
1.633319e+003,7.905342e+000
1.634283e+003,8.823021e+000
1.635247e+003,9.612259e+000
1.636211e+003,1.015631e+001
1.637176e+003,1.010346e+001
1.638140e+003,9.550049e+000
1.639104e+003,9.685326e+000
1.640068e+003,1.077581e+001
1.641033e+003,1.153927e+001
1.641997e+003,1.154120e+001
1.642961e+003,1.138200e+001
1.643925e+003,1.156443e+001
1.644890e+003,1.158222e+001
1.645854e+003,1.053548e+001
1.646818e+003,8.933907e+000
1.647782e+003,8.327522e+000
1.648747e+003,9.105911e+000
1.649711e+003,9.782722e+000
1.650675e+003,9.048859e+000
1.651639e+003,7.726646e+000
1.652604e+003,7.548103e+000
1.653568e+003,8.428574e+000
1.654532e+003,8.832527e+000
1.655496e+003,8.459488e+000
1.656460e+003,8.454102e+000
1.657425e+003,9.882393e+000
1.658389e+003,1.077287e+001
1.659353e+003,9.235336e+000
1.660317e+003,7.273613e+000
1.661281e+003,7.331429e+000
1.662246e+003,8.866013e+000
1.663210e+003,9.847946e+000
1.664174e+003,9.610405e+000
1.665138e+003,8.538727e+000
1.666103e+003,6.498848e+000
1.667067e+003,4.503288e+000
1.668031e+003,5.204636e+000
1.668995e+003,8.335007e+000
1.669960e+003,9.563942e+000
1.670924e+003,8.122704e+000
1.671888e+003,6.828300e+000
1.672852e+003,6.691605e+000
1.673817e+003,6.613663e+000
1.674781e+003,5.685287e+000
1.675745e+003,4.594559e+000
1.676709e+003,4.053642e+000
1.677674e+003,4.031364e+000
1.678638e+003,4.291397e+000
1.679602e+003,4.756706e+000
1.680566e+003,5.166908e+000
1.681531e+003,5.316620e+000
1.682495e+003,5.372513e+000
1.683459e+003,5.701805e+000
1.684423e+003,6.155632e+000
1.685387e+003,5.765182e+000
1.686352e+003,4.271698e+000
1.687316e+003,3.609764e+000
1.688280e+003,4.899239e+000
1.689244e+003,6.201355e+000
1.690208e+003,5.994644e+000
1.691173e+003,5.060852e+000
1.692137e+003,3.938629e+000
1.693101e+003,2.883049e+000
1.694065e+003,2.570465e+000
1.695030e+003,3.156044e+000
1.695994e+003,3.487198e+000
1.696958e+003,2.637215e+000
1.697922e+003,1.498871e+000
1.698887e+003,1.234192e+000
1.699851e+003,1.596748e+000
1.700815e+003,1.832130e+000
1.701779e+003,1.845184e+000
1.702744e+003,1.653130e+000
1.703708e+003,1.221703e+000
1.704672e+003,1.003426e+000
1.705636e+003,1.362007e+000
1.706601e+003,1.929344e+000
1.707565e+003,2.172760e+000
1.708529e+003,2.274010e+000
1.709493e+003,2.902008e+000
1.710458e+003,4.269402e+000
1.711422e+003,4.769859e+000
1.712386e+003,2.836563e+000
1.713350e+003,9.860764e-001
1.714314e+003,1.713455e+000
1.715279e+003,3.457291e+000
1.716243e+003,3.370041e+000
1.717207e+003,1.731178e+000
1.718171e+003,1.187431e+000
1.719135e+003,2.481110e+000
1.720100e+003,3.144730e+000
1.721064e+003,1.233215e+000
1.722028e+003,-1.289871e+000
1.722992e+003,-1.454147e+000
1.723957e+003,3.577194e-001
1.724921e+003,1.700127e+000
1.725885e+003,2.573326e+000
1.726849e+003,2.565948e+000
1.727814e+003,4.282913e-001
1.728778e+003,-8.005981e-001
1.729742e+003,1.180214e+000
1.730706e+003,3.713623e+000
1.731671e+003,4.083260e+000
1.732635e+003,2.895683e+000
1.733599e+003,1.652962e+000
1.734563e+003,8.895645e-001
1.735528e+003,1.129128e+000
1.736492e+003,2.611206e+000
1.737456e+003,3.968338e+000
1.738420e+003,3.489929e+000
1.739385e+003,1.767647e+000
1.740349e+003,1.174896e+000
1.741313e+003,2.051125e+000
1.742277e+003,2.542618e+000
1.743241e+003,2.496597e+000
1.744206e+003,2.425186e+000
1.745170e+003,2.552170e+000
1.746134e+003,2.422424e+000
1.747098e+003,1.264954e+000
1.748063e+003,9.105682e-002
1.749027e+003,3.561783e-001
1.749991e+003,1.637772e+000
1.750955e+003,2.561958e+000
1.751919e+003,2.572418e+000
1.752884e+003,1.716278e+000
1.753848e+003,2.906799e-003
1.754812e+003,-1.791679e+000
1.755776e+003,-1.970787e+000
1.756741e+003,-5.493164e-001
1.757705e+003,4.743423e-001
1.758669e+003,8.846283e-001
1.759633e+003,1.402573e+000
1.760598e+003,2.284996e+000
1.761562e+003,2.914246e+000
1.762526e+003,3.298790e+000
1.763490e+003,3.289658e+000
1.764455e+003,2.523506e+000
1.765419e+003,1.441467e+000
1.766383e+003,5.727158e-001
1.767347e+003,3.147888e-002
1.768312e+003,-8.208466e-002
1.769276e+003,2.757874e-001
1.770240e+003,5.470276e-001
1.771204e+003,7.058716e-002
1.772168e+003,-6.677551e-001
1.773133e+003,-5.135727e-001
1.774097e+003,4.086075e-001
1.775061e+003,7.779083e-001
1.776025e+003,3.208923e-001
1.776990e+003,-3.504944e-002
1.777954e+003,-9.131622e-002
1.778918e+003,4.594421e-001
1.779882e+003,2.403618e+000
1.780846e+003,4.536522e+000
1.781811e+003,5.343597e+000
1.782775e+003,5.047089e+000
1.783739e+003,4.135300e+000
1.784703e+003,2.593079e+000
1.785668e+003,1.633827e+000
1.786632e+003,2.485962e+000
1.787596e+003,2.963547e+000
1.788560e+003,6.737518e-001
1.789525e+003,-2.252045e+000
1.790489e+003,-2.765701e+000
1.791453e+003,-1.338814e+000
1.792417e+003,1.483078e-001
1.793382e+003,1.234261e+000
1.794346e+003,2.113884e+000
1.795310e+003,2.890968e+000
1.796274e+003,3.529366e+000
1.797239e+003,4.137283e+000
1.798203e+003,4.439484e+000
1.799167e+003,3.097610e+000
1.800131e+003,-5.850677e-001
1.801095e+003,-1.954170e+000
1.802060e+003,1.310097e+000
1.803024e+003,3.155884e+000
1.803988e+003,1.699501e+000
1.804952e+003,2.520218e-001
1.805917e+003,5.813370e-001
1.806881e+003,1.495926e+000
1.807845e+003,1.963051e+000
1.808809e+003,1.911385e+000
1.809773e+003,1.137718e+000
1.810738e+003,-2.426910e-002
1.811702e+003,9.890747e-002
1.812666e+003,2.487999e+000
1.813630e+003,5.027290e+000
1.814595e+003,4.740356e+000
1.815559e+003,2.381874e+000
1.816523e+003,1.014709e+000
1.817487e+003,6.919785e-001
1.818452e+003,1.065483e+000
1.819416e+003,2.540230e+000
1.820380e+003,3.625099e+000
1.821344e+003,3.844170e+000
1.822309e+003,3.575600e+000
1.823273e+003,2.648178e+000
1.824237e+003,1.749306e+000
1.825201e+003,1.578674e+000
1.826166e+003,1.976204e+000
1.827130e+003,2.624992e+000
1.828094e+003,3.420784e+000
1.829058e+003,3.734016e+000
1.830022e+003,3.215195e+000
1.830987e+003,2.329956e+000
1.831951e+003,1.072411e+000
1.832915e+003,-3.244019e-002
1.833879e+003,-1.244202e-001
1.834844e+003,5.831833e-001
1.835808e+003,1.558144e+000
1.836772e+003,2.610809e+000
1.837736e+003,3.062759e+000
1.838700e+003,2.574684e+000
1.839665e+003,1.821510e+000
1.840629e+003,1.411819e+000
1.841593e+003,1.240974e+000
1.842557e+003,9.981384e-001
1.843522e+003,6.888199e-001
1.844486e+003,1.004044e+000
1.845450e+003,2.569847e+000
1.846414e+003,3.683548e+000
1.847379e+003,4.272896e+000
1.848343e+003,4.329964e+000
1.849307e+003,3.500710e+000
1.850271e+003,2.565781e+000
1.851236e+003,2.018204e+000
1.852200e+003,1.800926e+000
1.853164e+003,1.748741e+000
1.854128e+003,1.768112e+000
1.855093e+003,1.852737e+000
1.856057e+003,2.034721e+000
1.857021e+003,2.321220e+000
1.857985e+003,2.745514e+000
1.858949e+003,2.976952e+000
1.859914e+003,2.149055e+000
1.860878e+003,5.997009e-001
1.861842e+003,2.438049e-001
1.862806e+003,1.097908e+000
1.863771e+003,2.193390e+000
1.864735e+003,3.513237e+000
1.865699e+003,4.359566e+000
1.866663e+003,4.502792e+000
1.867627e+003,4.015739e+000
1.868592e+003,2.395157e+000
1.869556e+003,4.427490e-001
1.870520e+003,-2.031097e-001
1.871484e+003,3.025436e-001
1.872449e+003,1.026047e+000
1.873413e+003,2.084541e+000
1.874377e+003,3.152847e+000
1.875341e+003,4.454575e+000
1.876306e+003,5.088058e+000
1.877270e+003,4.108704e+000
1.878234e+003,2.617126e+000
1.879198e+003,1.181763e+000
1.880163e+003,3.814850e-001
1.881127e+003,1.724243e+000
1.882091e+003,4.595795e+000
1.883055e+003,5.992439e+000
1.884020e+003,4.791931e+000
1.884984e+003,3.129295e+000
1.885948e+003,2.948021e+000
1.886912e+003,3.600082e+000
1.887876e+003,3.837433e+000
1.888841e+003,3.686996e+000
1.889805e+003,3.295212e+000
1.890769e+003,2.493088e+000
1.891733e+003,2.459816e+000
1.892698e+003,3.774376e+000
1.893662e+003,4.591148e+000
1.894626e+003,3.800400e+000
1.895590e+003,3.009018e+000
1.896554e+003,3.947151e+000
1.897519e+003,5.107330e+000
1.898483e+003,4.107262e+000
1.899447e+003,1.669395e+000
1.900411e+003,7.368698e-001
1.901376e+003,1.885529e+000
1.902340e+003,3.029533e+000
1.903304e+003,3.466179e+000
1.904268e+003,3.567093e+000
1.905233e+003,3.274612e+000
1.906197e+003,3.062462e+000
1.907161e+003,3.492599e+000
1.908125e+003,4.347466e+000
1.909090e+003,5.380074e+000
1.910054e+003,6.320763e+000
1.911018e+003,6.568893e+000
1.911982e+003,6.009377e+000
1.912947e+003,5.224190e+000
1.913911e+003,4.623596e+000
1.914875e+003,4.068817e+000
1.915839e+003,3.285912e+000
1.916803e+003,2.382133e+000
1.917768e+003,2.125648e+000
1.918732e+003,2.618935e+000
1.919696e+003,3.400024e+000
1.920660e+003,4.819092e+000
1.921625e+003,5.513054e+000
1.922589e+003,4.308525e+000
1.923553e+003,3.687668e+000
1.924517e+003,6.229591e+000
1.925481e+003,8.791603e+000
1.926446e+003,8.122375e+000
1.927410e+003,5.666206e+000
1.928374e+003,4.285492e+000
1.929338e+003,4.113754e+000
1.930303e+003,3.797462e+000
1.931267e+003,2.849686e+000
1.932231e+003,2.473633e+000
1.933195e+003,3.739120e+000
1.934160e+003,5.027061e+000
1.935124e+003,4.990997e+000
1.936088e+003,4.418388e+000
1.937052e+003,4.460945e+000
1.938017e+003,4.818169e+000
1.938981e+003,4.335342e+000
1.939945e+003,3.093788e+000
1.940909e+003,2.380783e+000
1.941874e+003,2.780655e+000
1.942838e+003,3.988823e+000
1.943802e+003,5.855690e+000
1.944766e+003,7.613632e+000
1.945730e+003,7.414391e+000
1.946695e+003,5.542854e+000
1.947659e+003,4.633507e+000
1.948623e+003,4.720192e+000
1.949587e+003,5.352036e+000
1.950552e+003,6.788528e+000
1.951516e+003,7.619522e+000
1.952480e+003,7.255798e+000
1.953444e+003,6.414726e+000
1.954408e+003,5.259460e+000
1.955373e+003,4.166893e+000
1.956337e+003,3.833527e+000
1.957301e+003,4.102959e+000
1.958265e+003,4.142715e+000
1.959230e+003,3.847481e+000
1.960194e+003,4.161217e+000
1.961158e+003,6.023491e+000
1.962122e+003,7.094284e+000
1.963087e+003,6.072304e+000
1.964051e+003,4.985573e+000
1.965015e+003,5.147713e+000
1.965979e+003,5.766205e+000
1.966944e+003,6.132431e+000
1.967908e+003,6.117714e+000
1.968872e+003,5.661072e+000
1.969836e+003,4.876060e+000
1.970801e+003,3.931747e+000
1.971765e+003,2.966095e+000
1.972729e+003,2.695114e+000
1.973693e+003,3.851814e+000
1.974657e+003,5.616959e+000
1.975622e+003,7.039406e+000
1.976586e+003,7.975365e+000
1.977550e+003,7.733658e+000
1.978514e+003,6.649246e+000
1.979479e+003,6.761322e+000
1.980443e+003,8.251778e+000
1.981407e+003,8.944633e+000
1.982371e+003,8.016006e+000
1.983335e+003,6.867920e+000
1.984300e+003,6.500801e+000
1.985264e+003,6.540306e+000
1.986228e+003,6.438675e+000
1.987192e+003,6.291458e+000
1.988157e+003,6.644478e+000
1.989121e+003,7.698059e+000
1.990085e+003,8.289986e+000
1.991049e+003,8.028656e+000
1.992014e+003,8.166008e+000
1.992978e+003,9.543732e+000
1.993942e+003,1.032322e+001
1.994906e+003,9.411415e+000
1.995871e+003,8.175453e+000
1.996835e+003,7.499962e+000
1.997799e+003,7.238564e+000
1.998763e+003,7.057129e+000
1.999728e+003,6.966263e+000
