5.003444e+002,3.134357e+001
5.013087e+002,3.066145e+001
5.022729e+002,2.911897e+001
5.032371e+002,2.726292e+001
5.042014e+002,2.630161e+001
5.051656e+002,2.615762e+001
5.061298e+002,2.642937e+001
5.070941e+002,2.671497e+001
5.080583e+002,2.684653e+001
5.090225e+002,2.760548e+001
5.099868e+002,3.055727e+001
5.109510e+002,3.238728e+001
5.119152e+002,3.050114e+001
5.128795e+002,2.450865e+001
5.138437e+002,2.028670e+001
5.148079e+002,2.166208e+001
5.157722e+002,2.358687e+001
5.167364e+002,2.388304e+001
5.177006e+002,2.233243e+001
5.186649e+002,2.047882e+001
5.196291e+002,2.038351e+001
5.205933e+002,2.122322e+001
5.215576e+002,2.194475e+001
5.225218e+002,2.230484e+001
5.234860e+002,2.240952e+001
5.244503e+002,2.260617e+001
5.254145e+002,2.311810e+001
5.263787e+002,2.355713e+001
5.273430e+002,2.407063e+001
5.283072e+002,2.442191e+001
5.292714e+002,2.420079e+001
5.302357e+002,2.297762e+001
5.311999e+002,2.156390e+001
5.321641e+002,1.980832e+001
5.331284e+002,1.841237e+001
5.340926e+002,1.802864e+001
5.350568e+002,1.889075e+001
5.360211e+002,1.976198e+001
5.369853e+002,2.008038e+001
5.379495e+002,1.984372e+001
5.389138e+002,1.850128e+001
5.398780e+002,1.602939e+001
5.408422e+002,1.322562e+001
5.418065e+002,1.250304e+001
5.427707e+002,1.359415e+001
5.437349e+002,1.510228e+001
5.446992e+002,1.690167e+001
5.456634e+002,1.870499e+001
5.466276e+002,1.956483e+001
5.475919e+002,1.917537e+001
5.485561e+002,1.804770e+001
5.495203e+002,1.521222e+001
5.504846e+002,1.187750e+001
5.514488e+002,9.941910e+000
5.524130e+002,1.075101e+001
5.533773e+002,1.173026e+001
5.543415e+002,1.140881e+001
5.553057e+002,1.057108e+001
5.562700e+002,9.971313e+000
5.572342e+002,1.005460e+001
5.581984e+002,1.052798e+001
5.591627e+002,1.087781e+001
5.601269e+002,1.119734e+001
5.610911e+002,1.155293e+001
5.620554e+002,1.196623e+001
5.630196e+002,1.231175e+001
5.639838e+002,1.186925e+001
5.649481e+002,9.948181e+000
5.659123e+002,8.268890e+000
5.668765e+002,7.062134e+000
5.678408e+002,6.460175e+000
5.688050e+002,6.781021e+000
5.697692e+002,9.343216e+000
5.707335e+002,1.061923e+001
5.716977e+002,8.821091e+000
5.726619e+002,5.546112e+000
5.736262e+002,2.767014e+000
5.745904e+002,1.751694e+000
5.755546e+002,2.192505e+000
5.765189e+002,3.697800e+000
5.774831e+002,5.700378e+000
5.784473e+002,7.513672e+000
5.794116e+002,8.712936e+000
5.803758e+002,9.357620e+000
5.813400e+002,8.793610e+000
5.823043e+002,6.343475e+000
5.832685e+002,4.296021e+000
5.842327e+002,4.054214e+000
5.851970e+002,5.305542e+000
5.861612e+002,5.416000e+000
5.871254e+002,1.608765e+000
5.880897e+002,-8.152313e-001
5.890539e+002,-1.254120e-001
5.900181e+002,2.414581e+000
5.909824e+002,4.718903e+000
5.919466e+002,5.623566e+000
5.929108e+002,5.668610e+000
5.938751e+002,5.579681e+000
5.948393e+002,5.298004e+000
5.958035e+002,4.671188e+000
5.967678e+002,3.613007e+000
5.977320e+002,2.284058e+000
5.986962e+002,1.436356e+000
5.996605e+002,8.065948e-001
6.006247e+002,6.884460e-001
6.015889e+002,1.646088e+000
6.025532e+002,3.562195e+000
6.035174e+002,4.497498e+000
6.044816e+002,2.637894e+000
6.054459e+002,1.806610e+000
6.064101e+002,3.558411e+000
6.073743e+002,6.538727e+000
6.083386e+002,8.145630e+000
6.093028e+002,6.437347e+000
6.102670e+002,4.349716e+000
6.112313e+002,4.515625e+000
6.121955e+002,5.676453e+000
6.131597e+002,6.015396e+000
6.141240e+002,4.313644e+000
6.150882e+002,1.306122e+000
6.160524e+002,3.890686e-001
6.170167e+002,1.244675e+000
6.179809e+002,2.229263e+000
6.189451e+002,2.562927e+000
6.199094e+002,2.274185e+000
6.208736e+002,2.056061e+000
6.218378e+002,2.044632e+000
6.228021e+002,2.242218e+000
6.237663e+002,2.585510e+000
6.247305e+002,3.199677e+000
6.256948e+002,4.473572e+000
6.266590e+002,7.131454e+000
6.276232e+002,8.704956e+000
6.285875e+002,7.255386e+000
6.295517e+002,4.689911e+000
6.305159e+002,3.018936e+000
6.314802e+002,3.272110e+000
6.324444e+002,4.472015e+000
6.334086e+002,4.077972e+000
6.343729e+002,2.642075e+000
6.353371e+002,9.796143e-001
6.363013e+002,-7.887421e-001
6.372656e+002,-2.469681e+000
6.382298e+002,-3.251663e+000
6.391940e+002,-2.339844e+000
6.401583e+002,-1.532898e+000
6.411225e+002,-3.468018e-001
6.420867e+002,7.361603e-001
6.430510e+002,9.075928e-001
6.440152e+002,-4.515228e-001
6.449794e+002,-1.821411e+000
6.459437e+002,-2.665741e+000
6.469079e+002,-3.034164e+000
6.478721e+002,-2.573669e+000
6.488364e+002,-1.318878e+000
6.498006e+002,-8.293152e-002
6.507648e+002,-1.025635e+000
6.517291e+002,-3.078659e+000
6.526933e+002,-3.188217e+000
6.536575e+002,-6.845551e-001
6.546218e+002,2.949615e+000
6.555860e+002,4.890869e+000
6.565502e+002,4.309586e+000
6.575145e+002,3.432419e+000
6.584787e+002,2.186432e+000
6.594429e+002,7.717438e-001
6.604072e+002,-8.622894e-001
6.613714e+002,-2.812546e+000
6.623356e+002,-4.064346e+000
6.632999e+002,-3.856384e+000
6.642641e+002,-3.253036e+000
6.652283e+002,-2.441101e+000
6.661926e+002,-1.575668e+000
6.671568e+002,-9.078369e-001
6.681210e+002,-9.718475e-001
6.690853e+002,-1.406296e+000
6.700495e+002,-1.058258e+000
6.710137e+002,5.828857e-002
6.719780e+002,1.368332e+000
6.729422e+002,2.305252e+000
6.739064e+002,2.869522e+000
6.748707e+002,2.587311e+000
6.758349e+002,1.015701e+000
6.767991e+002,-6.621552e-001
6.777634e+002,-2.268127e+000
6.787276e+002,-3.562500e+000
6.796918e+002,-3.585327e+000
6.806561e+002,-7.607269e-001
6.816203e+002,1.905365e+000
6.825845e+002,3.564026e+000
6.835488e+002,4.208328e+000
6.845130e+002,3.903778e+000
6.854772e+002,2.640762e+000
6.864415e+002,9.285126e-001
6.874057e+002,-3.284454e-001
6.883699e+002,-1.354218e+000
6.893342e+002,-2.475327e+000
6.902984e+002,-3.887695e+000
6.912626e+002,-5.371704e+000
6.922269e+002,-5.668411e+000
6.931911e+002,-3.683365e+000
6.941553e+002,-1.599655e+000
6.951196e+002,7.152863e-001
6.960838e+002,2.748337e+000
6.970480e+002,3.738098e+000
6.980123e+002,3.353516e+000
6.989765e+002,2.426559e+000
6.999407e+002,7.943268e-001
7.009050e+002,-7.703247e-001
7.018692e+002,-1.569717e+000
7.028334e+002,-1.431305e+000
7.037977e+002,-8.815613e-001
7.047619e+002,-5.377960e-001
7.057261e+002,-3.124695e-001
7.066904e+002,-3.636780e-001
7.076546e+002,-7.239532e-001
7.086188e+002,-9.428864e-001
7.095831e+002,-2.089081e-001
7.105473e+002,2.142715e+000
7.115115e+002,2.974899e+000
7.124758e+002,1.074631e+000
7.134400e+002,-8.941193e-001
7.144042e+002,-8.168335e-001
7.153685e+002,1.333038e+000
7.163327e+002,2.421753e+000
7.172969e+002,-4.334564e-001
7.182612e+002,-3.330658e+000
7.192254e+002,-5.278793e+000
7.201896e+002,-6.007629e+000
7.211539e+002,-5.119720e+000
7.221181e+002,-1.993027e+000
7.230823e+002,1.979401e+000
7.240466e+002,2.913940e+000
7.250108e+002,1.553314e+000
7.259750e+002,1.184692e-001
7.269393e+002,-1.990814e-001
7.279035e+002,3.100586e-001
7.288677e+002,2.562714e-001
7.298320e+002,-9.508209e-001
7.307962e+002,-1.474457e+000
7.317604e+002,-8.029938e-001
7.327247e+002,4.948730e-001
7.336889e+002,1.568237e+000
7.346531e+002,2.014740e+000
7.356174e+002,2.079941e+000
7.365816e+002,2.238098e+000
7.375458e+002,2.346085e+000
7.385101e+002,2.208618e+000
7.394743e+002,1.808914e+000
7.404385e+002,1.334167e+000
7.414028e+002,1.045898e+000
7.423670e+002,6.262817e-001
7.433312e+002,-2.020569e-001
7.442955e+002,-1.313507e+000
7.452597e+002,-2.335129e+000
7.462239e+002,-3.079330e+000
7.471882e+002,-3.795929e+000
7.481524e+002,-3.226410e+000
7.491166e+002,-5.804443e-002
7.500809e+002,2.328827e+000
7.510451e+002,2.156647e+000
7.520093e+002,4.983521e-002
7.529736e+002,-1.506592e+000
7.539378e+002,-8.396149e-001
7.549020e+002,1.775208e-001
7.558663e+002,-9.631348e-002
7.568306e+002,-7.479858e-001
7.577948e+002,-1.490326e-001
7.587590e+002,2.506256e+000
7.597233e+002,5.846695e+000
7.606875e+002,5.360504e+000
7.616517e+002,1.672958e+000
7.626160e+002,-9.218597e-001
7.635802e+002,-1.133255e+000
7.645444e+002,1.502991e-001
7.655087e+002,1.081253e+000
7.664729e+002,1.367996e+000
7.674371e+002,1.843689e+000
7.684014e+002,2.782013e+000
7.693656e+002,3.670319e+000
7.703298e+002,4.189667e+000
7.712941e+002,4.327911e+000
7.722583e+002,4.422287e+000
7.732225e+002,5.489944e+000
7.741868e+002,5.712326e+000
7.751510e+002,2.351913e+000
7.761152e+002,-3.089035e+000
7.770795e+002,-6.924530e+000
7.780437e+002,-5.883102e+000
7.790079e+002,-7.534332e-001
7.799722e+002,2.035690e+000
7.809364e+002,2.570633e+000
7.819006e+002,2.347168e+000
7.828649e+002,1.671875e+000
7.838291e+002,7.682800e-001
7.847933e+002,1.754913e-001
7.857576e+002,-1.719208e-001
7.867218e+002,-3.860931e-001
7.876860e+002,4.682922e-002
7.886503e+002,4.417114e-001
7.896145e+002,-1.554871e-001
7.905787e+002,-1.854309e+000
7.915430e+002,-3.090027e+000
7.925072e+002,-1.693939e+000
7.934714e+002,6.441193e-001
7.944357e+002,2.473709e+000
7.953999e+002,3.647934e+000
7.963641e+002,4.295654e+000
7.973284e+002,4.492981e+000
7.982926e+002,4.211166e+000
7.992568e+002,4.006531e+000
8.002211e+002,3.732605e+000
8.011853e+002,3.224060e+000
8.021495e+002,2.350754e+000
8.031138e+002,1.500656e+000
8.040780e+002,1.575302e+000
8.050422e+002,3.215210e+000
8.060065e+002,4.659897e+000
8.069707e+002,5.189896e+000
8.079349e+002,5.223495e+000
8.088992e+002,5.327240e+000
8.098634e+002,5.710785e+000
8.108276e+002,5.923157e+000
8.117919e+002,5.026169e+000
8.127561e+002,3.241028e+000
8.137203e+002,1.153305e+000
8.146846e+002,-9.985199e-001
8.156488e+002,-2.403229e+000
8.166130e+002,-1.993011e+000
8.175773e+002,6.956787e-001
8.185415e+002,2.182434e+000
8.195057e+002,1.125107e+000
8.204700e+002,5.141754e-001
8.214342e+002,1.603897e+000
8.223984e+002,3.906342e+000
8.233627e+002,6.208405e+000
8.243269e+002,8.694992e+000
8.252911e+002,9.905624e+000
8.262554e+002,8.224274e+000
8.272196e+002,5.643066e+000
8.281838e+002,4.281479e+000
8.291481e+002,4.838593e+000
8.301123e+002,6.281967e+000
8.310765e+002,6.991058e+000
8.320408e+002,6.814377e+000
8.330050e+002,5.441864e+000
8.339692e+002,2.457214e+000
8.349335e+002,-3.860779e-001
8.358977e+002,-1.048889e+000
8.368619e+002,8.775940e-001
8.378262e+002,2.462540e+000
8.387904e+002,3.813812e+000
8.397546e+002,4.375275e+000
8.407189e+002,3.385117e+000
8.416831e+002,1.673630e+000
8.426473e+002,5.737457e-001
8.436116e+002,6.891479e-001
8.445758e+002,1.592682e+000
8.455400e+002,3.066391e+000
8.465043e+002,4.610611e+000
8.474685e+002,6.009750e+000
8.484327e+002,7.190887e+000
8.493970e+002,7.833786e+000
8.503612e+002,7.158157e+000
8.513254e+002,4.717575e+000
8.522897e+002,4.086838e+000
8.532539e+002,6.239838e+000
8.542181e+002,8.521805e+000
8.551824e+002,9.697220e+000
8.561466e+002,9.929962e+000
8.571108e+002,9.475937e+000
8.580751e+002,6.575943e+000
8.590393e+002,4.860138e+000
8.600035e+002,6.385651e+000
8.609678e+002,9.378403e+000
8.619320e+002,1.195514e+001
8.628962e+002,1.328377e+001
8.638605e+002,1.381396e+001
8.648247e+002,1.393341e+001
8.657889e+002,1.380389e+001
8.667532e+002,1.376788e+001
8.677174e+002,1.387144e+001
8.686816e+002,1.427408e+001
8.696459e+002,1.538142e+001
8.706101e+002,1.755559e+001
8.715743e+002,1.807791e+001
8.725386e+002,1.551605e+001
8.735028e+002,1.332590e+001
8.744670e+002,1.207364e+001
8.754313e+002,1.165573e+001
8.763955e+002,1.192050e+001
8.773597e+002,1.295952e+001
8.783240e+002,1.450812e+001
8.792882e+002,1.717360e+001
8.802524e+002,1.958983e+001
8.812167e+002,2.027005e+001
8.821809e+002,1.914052e+001
8.831451e+002,1.730116e+001
8.841094e+002,1.612726e+001
8.850736e+002,1.579008e+001
8.860378e+002,1.666422e+001
8.870021e+002,1.887732e+001
8.879663e+002,2.130940e+001
8.889305e+002,2.372737e+001
8.898948e+002,2.589290e+001
8.908590e+002,2.667255e+001
8.918232e+002,2.532549e+001
8.927875e+002,2.376881e+001
8.937517e+002,2.161172e+001
8.947159e+002,2.000684e+001
8.956802e+002,2.030997e+001
8.966444e+002,2.244147e+001
8.976086e+002,2.438065e+001
8.985729e+002,2.387599e+001
8.995371e+002,2.237772e+001
9.005013e+002,2.243056e+001
9.014656e+002,2.386015e+001
9.024298e+002,2.518616e+001
9.033940e+002,2.516844e+001
9.043583e+002,2.394817e+001
9.053225e+002,2.345924e+001
9.062867e+002,2.462776e+001
9.072510e+002,2.516330e+001
9.082152e+002,2.452983e+001
9.091794e+002,2.384171e+001
9.101437e+002,2.444667e+001
9.111079e+002,2.656264e+001
9.120721e+002,2.819363e+001
9.130364e+002,2.731407e+001
9.140006e+002,2.608969e+001
9.149648e+002,2.606015e+001
9.159291e+002,2.685332e+001
9.168933e+002,2.724030e+001
9.178575e+002,2.631853e+001
9.188218e+002,2.456635e+001
9.197860e+002,2.393021e+001
9.207502e+002,2.437549e+001
9.217145e+002,2.459927e+001
9.226787e+002,2.473196e+001
9.236429e+002,2.449890e+001
9.246072e+002,2.295757e+001
9.255714e+002,1.943108e+001
9.265356e+002,1.770415e+001
9.274999e+002,2.001201e+001
9.284641e+002,2.232951e+001
9.294283e+002,2.390053e+001
9.303926e+002,2.444078e+001
9.313568e+002,2.334102e+001
9.323210e+002,2.013057e+001
9.332853e+002,1.678247e+001
9.342495e+002,1.715414e+001
9.352137e+002,1.939850e+001
9.361780e+002,2.124437e+001
9.371422e+002,2.224879e+001
9.381064e+002,2.239944e+001
9.390707e+002,2.140453e+001
9.400349e+002,1.881660e+001
9.409991e+002,1.723970e+001
9.419634e+002,1.742026e+001
9.429276e+002,1.744321e+001
9.438918e+002,1.651071e+001
9.448561e+002,1.525255e+001
9.458203e+002,1.480746e+001
9.467845e+002,1.562233e+001
9.477488e+002,1.677557e+001
9.487130e+002,1.780446e+001
9.496772e+002,1.865854e+001
9.506415e+002,1.939005e+001
9.516057e+002,1.991066e+001
9.525699e+002,1.985387e+001
9.535342e+002,1.881815e+001
9.544984e+002,1.697243e+001
9.554626e+002,1.638416e+001
9.564269e+002,1.752774e+001
9.573911e+002,1.827626e+001
9.583553e+002,1.764784e+001
9.593196e+002,1.640915e+001
9.602838e+002,1.586009e+001
9.612480e+002,1.617339e+001
9.622123e+002,1.648006e+001
9.631765e+002,1.666806e+001
9.641407e+002,1.674411e+001
9.651050e+002,1.659044e+001
9.660692e+002,1.625439e+001
9.670334e+002,1.589136e+001
9.679977e+002,1.566209e+001
9.689619e+002,1.564232e+001
9.699261e+002,1.577252e+001
9.708904e+002,1.595680e+001
9.718546e+002,1.617160e+001
9.728188e+002,1.629134e+001
9.737831e+002,1.672664e+001
9.747473e+002,1.841711e+001
9.757115e+002,2.192250e+001
9.766758e+002,2.381270e+001
9.776400e+002,2.269569e+001
9.786042e+002,2.185823e+001
9.795685e+002,2.248683e+001
9.805327e+002,2.347664e+001
9.814969e+002,2.319510e+001
9.824612e+002,2.117017e+001
9.834254e+002,1.902470e+001
9.843896e+002,1.849028e+001
9.853539e+002,1.838100e+001
9.863181e+002,1.738458e+001
9.872823e+002,1.546846e+001
9.882466e+002,1.337852e+001
9.892108e+002,1.187167e+001
9.901750e+002,1.100543e+001
9.911393e+002,1.006584e+001
9.921035e+002,8.241776e+000
9.930677e+002,7.063095e+000
9.940320e+002,6.759476e+000
9.949962e+002,7.221848e+000
9.959604e+002,8.753952e+000
9.969247e+002,1.129027e+001
9.978889e+002,1.319753e+001
9.988531e+002,1.265131e+001
9.998174e+002,1.225230e+001
1.000782e+003,1.415385e+001
1.001746e+003,1.721243e+001
1.002710e+003,1.977777e+001
1.003674e+003,2.104668e+001
1.004639e+003,2.126047e+001
1.005603e+003,2.073952e+001
1.006567e+003,1.935371e+001
1.007531e+003,1.879903e+001
1.008495e+003,1.938620e+001
1.009460e+003,2.016205e+001
1.010424e+003,2.097702e+001
1.011388e+003,2.163396e+001
1.012352e+003,2.099265e+001
1.013317e+003,1.781505e+001
1.014281e+003,1.545471e+001
1.015245e+003,1.503134e+001
1.016209e+003,1.539160e+001
1.017174e+003,1.627567e+001
1.018138e+003,1.721840e+001
1.019102e+003,1.735323e+001
1.020066e+003,1.593440e+001
1.021031e+003,1.352890e+001
1.021995e+003,1.137456e+001
1.022959e+003,9.328079e+000
1.023923e+003,7.489136e+000
1.024887e+003,5.810898e+000
1.025852e+003,4.438049e+000
1.026816e+003,3.711273e+000
1.027780e+003,3.852295e+000
1.028744e+003,4.035217e+000
1.029709e+003,4.168823e+000
1.030673e+003,4.323547e+000
1.031637e+003,4.475693e+000
1.032601e+003,4.608963e+000
1.033566e+003,4.934677e+000
1.034530e+003,5.527451e+000
1.035494e+003,5.647751e+000
1.036458e+003,3.913177e+000
1.037422e+003,1.410858e+000
1.038387e+003,9.834290e-002
1.039351e+003,-7.229614e-002
1.040315e+003,-1.206055e-001
1.041279e+003,-8.014984e-001
1.042244e+003,-1.841309e+000
1.043208e+003,-2.082626e+000
1.044172e+003,-1.088120e+000
1.045136e+003,-2.042542e-001
1.046101e+003,7.119751e-001
1.047065e+003,1.457153e+000
1.048029e+003,1.665604e+000
1.048993e+003,1.504990e+000
1.049958e+003,1.736542e+000
1.050922e+003,2.968109e+000
1.051886e+003,4.236069e+000
1.052850e+003,4.450256e+000
1.053814e+003,4.121872e+000
1.054779e+003,3.955994e+000
1.055743e+003,4.041473e+000
1.056707e+003,3.769394e+000
1.057671e+003,2.317444e+000
1.058636e+003,-3.501129e-001
1.059600e+003,-1.219131e+000
1.060564e+003,1.509476e+000
1.061528e+003,3.609711e+000
1.062493e+003,4.017136e+000
1.063457e+003,3.660049e+000
1.064421e+003,3.790146e+000
1.065385e+003,4.568527e+000
1.066349e+003,4.600037e+000
1.067314e+003,2.424423e+000
1.068278e+003,1.844482e-001
1.069242e+003,-7.566071e-001
1.070206e+003,-6.382294e-001
1.071171e+003,3.791199e-001
1.072135e+003,1.994995e+000
1.073099e+003,3.249451e+000
1.074063e+003,2.479568e+000
1.075028e+003,-6.007996e-001
1.075992e+003,-1.081223e+000
1.076956e+003,2.957443e+000
1.077920e+003,5.760529e+000
1.078885e+003,4.279861e+000
1.079849e+003,6.939545e-001
1.080813e+003,-9.116516e-001
1.081777e+003,3.787994e-001
1.082741e+003,1.649307e+000
1.083706e+003,4.933777e-001
1.084670e+003,-4.675293e-001
1.085634e+003,5.916748e-001
1.086598e+003,2.937622e+000
1.087563e+003,5.279556e+000
1.088527e+003,6.834915e+000
1.089491e+003,7.272629e+000
1.090455e+003,5.495834e+000
1.091420e+003,1.102142e+000
1.092384e+003,-1.317993e+000
1.093348e+003,-1.098969e+000
1.094312e+003,-3.800659e-001
1.095276e+003,-1.448059e-002
1.096241e+003,2.415466e-002
1.097205e+003,-5.255585e-001
1.098169e+003,-2.112885e+000
1.099133e+003,-3.331970e+000
1.100098e+003,-3.889877e+000
1.101062e+003,-3.658920e+000
1.102026e+003,-2.186188e+000
1.102990e+003,1.454620e-001
1.103955e+003,2.766693e+000
1.104919e+003,5.286774e+000
1.105883e+003,7.106232e+000
1.106847e+003,6.712524e+000
1.107812e+003,4.051254e+000
1.108776e+003,2.505020e+000
1.109740e+003,2.506378e+000
1.110704e+003,3.017288e+000
1.111668e+003,3.611145e+000
1.112633e+003,4.271515e+000
1.113597e+003,4.545135e+000
1.114561e+003,4.074158e+000
1.115525e+003,3.727997e+000
1.116490e+003,4.304337e+000
1.117454e+003,4.576599e+000
1.118418e+003,3.046890e+000
1.119382e+003,6.853485e-001
1.120347e+003,-4.296875e-002
1.121311e+003,2.276443e+000
1.122275e+003,5.939575e+000
1.123239e+003,7.981171e+000
1.124203e+003,8.530243e+000
1.125168e+003,8.133347e+000
1.126132e+003,6.538040e+000
1.127096e+003,4.819717e+000
1.128060e+003,3.407974e+000
1.129025e+003,2.402206e+000
1.129989e+003,2.676422e+000
1.130953e+003,5.051270e+000
1.131917e+003,6.855087e+000
1.132882e+003,7.077866e+000
1.133846e+003,6.986954e+000
1.134810e+003,7.349106e+000
1.135774e+003,8.071091e+000
1.136739e+003,8.622223e+000
1.137703e+003,8.700241e+000
1.138667e+003,8.642319e+000
1.139631e+003,9.014297e+000
1.140595e+003,9.826157e+000
1.141560e+003,1.099765e+001
1.142524e+003,1.255049e+001
1.143488e+003,1.470650e+001
1.144452e+003,1.740784e+001
1.145417e+003,2.078595e+001
1.146381e+003,2.566093e+001
1.147345e+003,3.310831e+001
1.148309e+003,3.902829e+001
1.149274e+003,4.099352e+001
1.150238e+003,4.288573e+001
1.151202e+003,4.719221e+001
1.152166e+003,5.291443e+001
1.153130e+003,5.774812e+001
1.154095e+003,6.055518e+001
1.155059e+003,6.235254e+001
1.156023e+003,6.505444e+001
1.156987e+003,6.821733e+001
1.157952e+003,6.850500e+001
1.158916e+003,6.577420e+001
1.159880e+003,6.230965e+001
1.160844e+003,5.892764e+001
1.161809e+003,5.535854e+001
1.162773e+003,5.117365e+001
1.163737e+003,4.612125e+001
1.164701e+003,4.166521e+001
1.165666e+003,3.913031e+001
1.166630e+003,3.640488e+001
1.167594e+003,3.254909e+001
1.168558e+003,2.805499e+001
1.169522e+003,2.311136e+001
1.170487e+003,1.814900e+001
1.171451e+003,1.477016e+001
1.172415e+003,1.505487e+001
1.173379e+003,1.804509e+001
1.174344e+003,1.842950e+001
1.175308e+003,1.608760e+001
1.176272e+003,1.461476e+001
1.177236e+003,1.594743e+001
1.178201e+003,1.818254e+001
1.179165e+003,1.870473e+001
1.180129e+003,1.741908e+001
1.181093e+003,1.630887e+001
1.182057e+003,1.589644e+001
1.183022e+003,1.565463e+001
1.183986e+003,1.562646e+001
1.184950e+003,1.550287e+001
1.185914e+003,1.488612e+001
1.186879e+003,1.388086e+001
1.187843e+003,1.297450e+001
1.188807e+003,1.252675e+001
1.189771e+003,1.243251e+001
1.190736e+003,1.255963e+001
1.191700e+003,1.292413e+001
1.192664e+003,1.321767e+001
1.193628e+003,1.318796e+001
1.194593e+003,1.351172e+001
1.195557e+003,1.556189e+001
1.196521e+003,1.837421e+001
1.197485e+003,1.817973e+001
1.198449e+003,1.341566e+001
1.199414e+003,8.893204e+000
1.200378e+003,6.858017e+000
1.201342e+003,5.728271e+000
1.202306e+003,4.376358e+000
1.203271e+003,3.140137e+000
1.204235e+003,3.379181e+000
1.205199e+003,5.573563e+000
1.206163e+003,7.987976e+000
1.207128e+003,7.526016e+000
1.208092e+003,3.976715e+000
1.209056e+003,2.631821e+000
1.210020e+003,4.700592e+000
1.210984e+003,6.161026e+000
1.211949e+003,5.724319e+000
1.212913e+003,4.116104e+000
1.213877e+003,2.099487e+000
1.214841e+003,-2.047119e-001
1.215806e+003,-2.407822e+000
1.216770e+003,-4.591309e+000
1.217734e+003,-6.295135e+000
1.218698e+003,-7.368774e+000
1.219663e+003,-7.903275e+000
1.220627e+003,-7.533051e+000
1.221591e+003,-6.551224e+000
1.222555e+003,-6.425766e+000
1.223520e+003,-8.575623e+000
1.224484e+003,-1.216000e+001
1.225448e+003,-1.334198e+001
1.226412e+003,-1.099403e+001
1.227376e+003,-8.543533e+000
1.228341e+003,-4.661087e+000
1.229305e+003,-2.219986e+000
1.230269e+003,-3.757004e+000
1.231233e+003,-7.589142e+000
1.232198e+003,-1.043874e+001
1.233162e+003,-1.144447e+001
1.234126e+003,-1.115573e+001
1.235090e+003,-8.950058e+000
1.236055e+003,-6.723480e+000
1.237019e+003,-6.770096e+000
1.237983e+003,-8.455658e+000
1.238947e+003,-9.963242e+000
1.239911e+003,-1.048001e+001
1.240876e+003,-1.042082e+001
1.241840e+003,-1.045909e+001
1.242804e+003,-1.061668e+001
1.243768e+003,-1.038101e+001
1.244733e+003,-9.267380e+000
1.245697e+003,-8.383041e+000
1.246661e+003,-8.068375e+000
1.247625e+003,-7.959518e+000
1.248590e+003,-7.522995e+000
1.249554e+003,-6.924255e+000
1.250518e+003,-6.968430e+000
1.251482e+003,-8.120682e+000
1.252447e+003,-9.616074e+000
1.253411e+003,-1.079015e+001
1.254375e+003,-1.134337e+001
1.255339e+003,-1.046896e+001
1.256303e+003,-8.177734e+000
1.257268e+003,-6.058441e+000
1.258232e+003,-5.024246e+000
1.259196e+003,-4.907715e+000
1.260160e+003,-5.613525e+000
1.261125e+003,-7.456589e+000
1.262089e+003,-7.531555e+000
1.263053e+003,-3.066010e+000
1.264017e+003,-1.186371e-001
1.264982e+003,-9.690399e-001
1.265946e+003,-3.230179e+000
1.266910e+003,-5.269592e+000
1.267874e+003,-6.427490e+000
1.268839e+003,-5.852325e+000
1.269803e+003,-2.914215e+000
1.270767e+003,3.401184e-001
1.271731e+003,-6.469421e-001
1.272695e+003,-5.600540e+000
1.273660e+003,-7.274536e+000
1.274624e+003,-4.336426e+000
1.275588e+003,-1.645645e+000
1.276552e+003,-2.250244e+000
1.277517e+003,-4.447525e+000
1.278481e+003,-4.979248e+000
1.279445e+003,-3.562073e+000
1.280409e+003,-2.640762e+000
1.281374e+003,-3.752365e+000
1.282338e+003,-4.438568e+000
1.283302e+003,-2.186874e+000
1.284266e+003,3.722534e-001
1.285230e+003,-4.544220e-001
1.286195e+003,-4.526627e+000
1.287159e+003,-8.300903e+000
1.288123e+003,-8.815506e+000
1.289087e+003,-7.042419e+000
1.290052e+003,-6.141251e+000
1.291016e+003,-6.555695e+000
1.291980e+003,-6.528305e+000
1.292944e+003,-5.350372e+000
1.293909e+003,-4.844711e+000
1.294873e+003,-6.044098e+000
1.295837e+003,-7.975525e+000
1.296801e+003,-9.604309e+000
1.297766e+003,-1.069067e+001
1.298730e+003,-1.075111e+001
1.299694e+003,-9.206284e+000
1.300658e+003,-7.263351e+000
1.301622e+003,-5.809189e+000
1.302587e+003,-4.944962e+000
1.303551e+003,-5.208176e+000
1.304515e+003,-6.541901e+000
1.305479e+003,-7.858856e+000
1.306444e+003,-8.339523e+000
1.307408e+003,-8.222656e+000
1.308372e+003,-8.235275e+000
1.309336e+003,-8.680450e+000
1.310301e+003,-8.314362e+000
1.311265e+003,-5.694916e+000
1.312229e+003,-3.879303e+000
1.313193e+003,-4.553329e+000
1.314157e+003,-5.995117e+000
1.315122e+003,-6.246002e+000
1.316086e+003,-5.262146e+000
1.317050e+003,-4.309509e+000
1.318014e+003,-4.128860e+000
1.318979e+003,-4.794052e+000
1.319943e+003,-7.017029e+000
1.320907e+003,-1.040880e+001
1.321871e+003,-1.194443e+001
1.322836e+003,-1.132251e+001
1.323800e+003,-9.965775e+000
1.324764e+003,-7.902679e+000
1.325728e+003,-5.900757e+000
1.326693e+003,-5.632889e+000
1.327657e+003,-7.228683e+000
1.328621e+003,-8.310760e+000
1.329585e+003,-7.986542e+000
1.330549e+003,-6.949539e+000
1.331514e+003,-4.926025e+000
1.332478e+003,-3.337509e+000
1.333442e+003,-3.978897e+000
1.334406e+003,-6.305038e+000
1.335371e+003,-8.188278e+000
1.336335e+003,-8.346603e+000
1.337299e+003,-7.587677e+000
1.338263e+003,-7.536331e+000
1.339228e+003,-8.403793e+000
1.340192e+003,-7.900009e+000
1.341156e+003,-4.231705e+000
1.342120e+003,-1.920044e+000
1.343084e+003,-2.484070e+000
1.344049e+003,-4.013840e+000
1.345013e+003,-5.031387e+000
1.345977e+003,-5.497162e+000
1.346941e+003,-6.098114e+000
1.347906e+003,-7.136047e+000
1.348870e+003,-7.617981e+000
1.349834e+003,-6.059570e+000
1.350798e+003,-3.876328e+000
1.351763e+003,-3.894073e+000
1.352727e+003,-5.717850e+000
1.353691e+003,-7.151764e+000
1.354655e+003,-7.441086e+000
1.355620e+003,-6.922668e+000
1.356584e+003,-5.357574e+000
1.357548e+003,-3.012253e+000
1.358512e+003,-2.895905e+000
1.359476e+003,-6.382004e+000
1.360441e+003,-9.094772e+000
1.361405e+003,-9.817856e+000
1.362369e+003,-9.565750e+000
1.363333e+003,-7.824677e+000
1.364298e+003,-5.879730e+000
1.365262e+003,-5.723785e+000
1.366226e+003,-7.516006e+000
1.367190e+003,-9.373856e+000
1.368155e+003,-9.622467e+000
1.369119e+003,-8.668762e+000
1.370083e+003,-7.766373e+000
1.371047e+003,-6.964310e+000
1.372011e+003,-5.681427e+000
1.372976e+003,-3.129501e+000
1.373940e+003,-1.356995e+000
1.374904e+003,-1.687469e+000
1.375868e+003,-2.751785e+000
1.376833e+003,-2.663956e+000
1.377797e+003,-1.487640e+000
1.378761e+003,-9.032745e-001
1.379725e+003,-1.628784e+000
1.380690e+003,-3.019455e+000
1.381654e+003,-5.055008e+000
1.382618e+003,-6.979263e+000
1.383582e+003,-7.630417e+000
1.384547e+003,-7.053024e+000
1.385511e+003,-6.120697e+000
1.386475e+003,-5.275940e+000
1.387439e+003,-4.412247e+000
1.388403e+003,-3.107727e+000
1.389368e+003,-1.378098e+000
1.390332e+003,-8.644104e-001
1.391296e+003,-2.384109e+000
1.392260e+003,-3.425873e+000
1.393225e+003,-3.003159e+000
1.394189e+003,-2.502121e+000
1.395153e+003,-2.725327e+000
1.396117e+003,-3.377365e+000
1.397082e+003,-4.056656e+000
1.398046e+003,-4.505478e+000
1.399010e+003,-4.344696e+000
1.399974e+003,-3.243011e+000
1.400938e+003,-1.815063e+000
1.401903e+003,-1.783463e+000
1.402867e+003,-3.457947e+000
1.403831e+003,-3.961838e+000
1.404795e+003,-2.366119e+000
1.405760e+003,-1.150085e+000
1.406724e+003,-1.852905e+000
1.407688e+003,-3.216797e+000
1.408652e+003,-3.337860e+000
1.409617e+003,-2.289169e+000
1.410581e+003,-1.972961e+000
1.411545e+003,-3.304291e+000
1.412509e+003,-4.663177e+000
1.413474e+003,-4.507050e+000
1.414438e+003,-3.496902e+000
1.415402e+003,-2.509918e+000
1.416366e+003,-1.478256e+000
1.417330e+003,-1.653442e-001
1.418295e+003,1.676102e+000
1.419259e+003,3.242065e+000
1.420223e+003,3.409866e+000
1.421187e+003,2.316971e+000
1.422152e+003,1.122650e+000
1.423116e+003,-2.215576e-001
1.424080e+003,-1.048080e+000
1.425044e+003,-3.471375e-001
1.426009e+003,-1.957397e-001
1.426973e+003,-2.549286e+000
1.427937e+003,-5.281860e+000
1.428901e+003,-5.360779e+000
1.429865e+003,-2.945145e+000
1.430830e+003,-8.846283e-001
1.431794e+003,-1.089920e+000
1.432758e+003,-2.208679e+000
1.433722e+003,-1.325150e+000
1.434687e+003,2.005081e+000
1.435651e+003,3.426315e+000
1.436615e+003,9.344940e-001
1.437579e+003,-1.126022e+000
1.438544e+003,-2.861801e+000
1.439508e+003,-3.485870e+000
1.440472e+003,-1.508316e+000
1.441436e+003,1.734497e+000
1.442401e+003,3.818985e+000
1.443365e+003,4.095886e+000
1.444329e+003,3.043808e+000
1.445293e+003,6.418457e-001
1.446257e+003,-1.716431e+000
1.447222e+003,-6.993103e-001
1.448186e+003,2.863052e+000
1.449150e+003,4.306183e+000
1.450114e+003,2.782547e+000
1.451079e+003,8.799591e-001
1.452043e+003,-2.948761e-001
1.453007e+003,-8.462067e-001
1.453971e+003,-6.358032e-001
1.454936e+003,1.074829e-001
1.455900e+003,-2.048950e-001
1.456864e+003,-2.378723e+000
1.457828e+003,-3.749283e+000
1.458792e+003,-1.878021e+000
1.459757e+003,5.095062e-001
1.460721e+003,1.238937e+000
1.461685e+003,7.567444e-001
1.462649e+003,-1.658630e-002
1.463614e+003,-6.981354e-001
1.464578e+003,-8.178864e-001
1.465542e+003,1.412354e-001
1.466506e+003,1.632843e+000
1.467471e+003,2.178787e+000
1.468435e+003,1.800400e+000
1.469399e+003,9.168243e-001
1.470363e+003,-1.853973e+000
1.471328e+003,-3.312149e+000
1.472292e+003,-1.621277e+000
1.473256e+003,3.107758e-001
1.474220e+003,2.698517e-001
1.475184e+003,-9.271088e-001
1.476149e+003,-1.422897e+000
1.477113e+003,-6.922302e-001
1.478077e+003,3.027802e-001
1.479041e+003,6.989899e-001
1.480006e+003,8.466187e-001
1.480970e+003,1.747604e+000
1.481934e+003,3.697098e+000
1.482898e+003,4.648270e+000
1.483863e+003,4.357666e+000
1.484827e+003,3.492676e+000
1.485791e+003,1.633591e+000
1.486755e+003,-5.633545e-002
1.487719e+003,-5.493927e-001
1.488684e+003,-7.014465e-002
1.489648e+003,6.417236e-001
1.490612e+003,1.395599e+000
1.491576e+003,2.606247e+000
1.492541e+003,4.780884e+000
1.493505e+003,7.232056e+000
1.494469e+003,8.341629e+000
1.495433e+003,8.230759e+000
1.496398e+003,8.099640e+000
1.497362e+003,8.077271e+000
1.498326e+003,8.584686e+000
1.499290e+003,9.825165e+000
1.500255e+003,1.169458e+001
1.501219e+003,1.450017e+001
1.502183e+003,1.788527e+001
1.503147e+003,1.984012e+001
1.504111e+003,1.961006e+001
1.505076e+003,1.957320e+001
1.506040e+003,2.120898e+001
1.507004e+003,2.360359e+001
1.507968e+003,2.554982e+001
1.508933e+003,2.755319e+001
1.509897e+003,3.082686e+001
1.510861e+003,3.567789e+001
1.511825e+003,4.115726e+001
1.512790e+003,4.664862e+001
1.513754e+003,5.195985e+001
1.514718e+003,5.688184e+001
1.515682e+003,6.133441e+001
1.516646e+003,6.524626e+001
1.517611e+003,6.807814e+001
1.518575e+003,7.195569e+001
1.519539e+003,7.996606e+001
1.520503e+003,8.683620e+001
1.521468e+003,8.894475e+001
1.522432e+003,8.852390e+001
1.523396e+003,8.864667e+001
1.524360e+003,8.985674e+001
1.525325e+003,9.138620e+001
1.526289e+003,9.274722e+001
1.527253e+003,9.292696e+001
1.528217e+003,8.978703e+001
1.529182e+003,8.334421e+001
1.530146e+003,7.856039e+001
1.531110e+003,7.772826e+001
1.532074e+003,7.402161e+001
1.533039e+003,6.465804e+001
1.534003e+003,5.493086e+001
1.534967e+003,4.693028e+001
1.535931e+003,4.034569e+001
1.536896e+003,3.492581e+001
1.537860e+003,3.029559e+001
1.538824e+003,2.554901e+001
1.539788e+003,2.023994e+001
1.540752e+003,1.534850e+001
1.541717e+003,1.220586e+001
1.542681e+003,1.072086e+001
1.543645e+003,9.929565e+000
1.544609e+003,1.043774e+001
1.545573e+003,1.034567e+001
1.546538e+003,9.184586e+000
1.547502e+003,7.778275e+000
1.548466e+003,6.173828e+000
1.549430e+003,4.915512e+000
1.550395e+003,4.370682e+000
1.551359e+003,4.533737e+000
1.552323e+003,5.639999e+000
1.553287e+003,7.674286e+000
1.554252e+003,9.336197e+000
1.555216e+003,9.428665e+000
1.556180e+003,8.473618e+000
1.557144e+003,7.597885e+000
1.558109e+003,6.847260e+000
1.559073e+003,6.250351e+000
1.560037e+003,5.744125e+000
1.561001e+003,5.205887e+000
1.561966e+003,4.835846e+000
1.562930e+003,4.460068e+000
1.563894e+003,3.616623e+000
1.564858e+003,2.581665e+000
1.565823e+003,2.238998e+000
1.566787e+003,2.695984e+000
1.567751e+003,2.817078e+000
1.568715e+003,1.736832e+000
1.569679e+003,9.320679e-001
1.570644e+003,3.057465e+000
1.571608e+003,6.563339e+000
1.572572e+003,6.717438e+000
1.573536e+003,3.359970e+000
1.574500e+003,1.077896e+000
1.575465e+003,1.390869e+000
1.576429e+003,3.080475e+000
1.577393e+003,6.194550e+000
1.578357e+003,9.506332e+000
1.579322e+003,1.035373e+001
1.580286e+003,8.774673e+000
1.581250e+003,7.358185e+000
1.582214e+003,6.879974e+000
1.583179e+003,6.701813e+000
1.584143e+003,6.256927e+000
1.585107e+003,5.865616e+000
1.586071e+003,6.265549e+000
1.587036e+003,7.246338e+000
1.588000e+003,7.786255e+000
1.588964e+003,7.580246e+000
1.589928e+003,7.167206e+000
1.590893e+003,6.658997e+000
1.591857e+003,6.413971e+000
1.592821e+003,7.287094e+000
1.593785e+003,9.021713e+000
1.594750e+003,9.990311e+000
1.595714e+003,9.886841e+000
1.596678e+003,9.380234e+000
1.597642e+003,8.364044e+000
1.598606e+003,7.605667e+000
1.599571e+003,8.111374e+000
1.600535e+003,9.042450e+000
1.601499e+003,9.263443e+000
1.602463e+003,8.759506e+000
1.603427e+003,8.025711e+000
1.604392e+003,7.187363e+000
1.605356e+003,6.819229e+000
1.606320e+003,7.838776e+000
1.607284e+003,9.675339e+000
1.608249e+003,1.071683e+001
1.609213e+003,1.094330e+001
1.610177e+003,1.075410e+001
1.611141e+003,9.942520e+000
1.612106e+003,9.409286e+000
1.613070e+003,1.014113e+001
1.614034e+003,1.077489e+001
1.614998e+003,1.017561e+001
1.615963e+003,8.861282e+000
1.616927e+003,7.494446e+000
1.617891e+003,6.310379e+000
1.618855e+003,5.848251e+000
1.619820e+003,6.476257e+000
1.620784e+003,7.432693e+000
1.621748e+003,7.791870e+000
1.622712e+003,7.777039e+000
1.623677e+003,8.036942e+000
1.624641e+003,8.710800e+000
1.625605e+003,8.836060e+000
1.626569e+003,7.102371e+000
1.627533e+003,6.182373e+000
1.628498e+003,8.794800e+000
1.629462e+003,1.169786e+001
1.630426e+003,1.172362e+001
1.631390e+003,9.884903e+000
1.632354e+003,8.794205e+000
1.633319e+003,9.069336e+000
1.634283e+003,9.536407e+000
1.635247e+003,9.316681e+000
1.636211e+003,8.762787e+000
1.637176e+003,8.371429e+000
1.638140e+003,8.226425e+000
1.639104e+003,9.138733e+000
1.640068e+003,1.145844e+001
1.641033e+003,1.344153e+001
1.641997e+003,1.509344e+001
1.642961e+003,1.577525e+001
1.643925e+003,1.478477e+001
1.644890e+003,1.309087e+001
1.645854e+003,1.110307e+001
1.646818e+003,9.300934e+000
1.647782e+003,8.842560e+000
1.648747e+003,9.957443e+000
1.649711e+003,1.096255e+001
1.650675e+003,1.035341e+001
1.651639e+003,9.192902e+000
1.652604e+003,1.000452e+001
1.653568e+003,1.260857e+001
1.654532e+003,1.302570e+001
1.655496e+003,1.027814e+001
1.656460e+003,8.146683e+000
1.657425e+003,8.119370e+000
1.658389e+003,8.466034e+000
1.659353e+003,8.170715e+000
1.660317e+003,7.772659e+000
1.661281e+003,7.850662e+000
1.662246e+003,8.323135e+000
1.663210e+003,8.980698e+000
1.664174e+003,9.755066e+000
1.665138e+003,1.013817e+001
1.666103e+003,9.588181e+000
1.667067e+003,8.436798e+000
1.668031e+003,7.285431e+000
1.668995e+003,6.184219e+000
1.669960e+003,5.375061e+000
1.670924e+003,4.761917e+000
1.671888e+003,5.148239e+000
1.672852e+003,7.788177e+000
1.673817e+003,9.923431e+000
1.674781e+003,9.295624e+000
1.675745e+003,7.660080e+000
1.676709e+003,6.821793e+000
1.677674e+003,6.710861e+000
1.678638e+003,6.615723e+000
1.679602e+003,6.317184e+000
1.680566e+003,5.810333e+000
1.681531e+003,5.011642e+000
1.682495e+003,4.230225e+000
1.683459e+003,3.876755e+000
1.684423e+003,3.876740e+000
1.685387e+003,4.197098e+000
1.686352e+003,4.945053e+000
1.687316e+003,5.382538e+000
1.688280e+003,5.277756e+000
1.689244e+003,4.796310e+000
1.690208e+003,3.657410e+000
1.691173e+003,2.429733e+000
1.692137e+003,1.768951e+000
1.693101e+003,1.667465e+000
1.694065e+003,1.883865e+000
1.695030e+003,2.301636e+000
1.695994e+003,2.526291e+000
1.696958e+003,2.296646e+000
1.697922e+003,1.870361e+000
1.698887e+003,1.549438e+000
1.699851e+003,1.319504e+000
1.700815e+003,1.032867e+000
1.701779e+003,6.408539e-001
1.702744e+003,2.793121e-001
1.703708e+003,9.902954e-003
1.704672e+003,1.358795e-001
1.705636e+003,1.020523e+000
1.706601e+003,2.025497e+000
1.707565e+003,2.184570e+000
1.708529e+003,1.861588e+000
1.709493e+003,2.240372e+000
1.710458e+003,3.615417e+000
1.711422e+003,4.024841e+000
1.712386e+003,1.871170e+000
1.713350e+003,-4.303436e-001
1.714314e+003,-1.134567e+000
1.715279e+003,-7.975464e-001
1.716243e+003,4.025269e-002
1.717207e+003,1.137558e+000
1.718171e+003,1.688004e+000
1.719135e+003,1.488708e+000
1.720100e+003,1.216873e+000
1.721064e+003,1.258255e+000
1.722028e+003,1.512848e+000
1.722992e+003,2.179077e+000
1.723957e+003,3.074478e+000
1.724921e+003,2.430069e+000
1.725885e+003,-2.814178e-001
1.726849e+003,-2.067017e+000
1.727814e+003,-1.854660e+000
1.728778e+003,-1.147614e+000
1.729742e+003,-4.889069e-001
1.730706e+003,2.249146e-001
1.731671e+003,1.450409e+000
1.732635e+003,2.525574e+000
1.733599e+003,2.002853e+000
1.734563e+003,1.806641e-002
1.735528e+003,-1.698654e+000
1.736492e+003,-2.275360e+000
1.737456e+003,-1.934219e+000
1.738420e+003,-8.166504e-001
1.739385e+003,7.003937e-001
1.740349e+003,1.519089e+000
1.741313e+003,1.745056e+000
1.742277e+003,1.039444e+000
1.743241e+003,-1.711456e+000
1.744206e+003,-3.447906e+000
1.745170e+003,-2.876251e+000
1.746134e+003,-2.349167e+000
1.747098e+003,-3.685165e+000
1.748063e+003,-5.394348e+000
1.749027e+003,-5.913208e+000
1.749991e+003,-5.074707e+000
1.750955e+003,-2.706848e+000
1.751919e+003,7.797852e-001
1.752884e+003,3.157257e+000
1.753848e+003,2.550171e+000
1.754812e+003,3.646240e-001
1.755776e+003,-5.157471e-001
1.756741e+003,-6.237793e-002
1.757705e+003,1.268158e-001
1.758669e+003,-1.801453e-001
1.759633e+003,-2.751007e-001
1.760598e+003,9.375000e-002
1.761562e+003,2.820892e-001
1.762526e+003,-1.450348e-001
1.763490e+003,-4.071960e-001
1.764455e+003,7.868805e-001
1.765419e+003,2.160782e+000
1.766383e+003,9.858093e-001
1.767347e+003,-2.360840e+000
1.768312e+003,-4.331940e+000
1.769276e+003,-3.271484e+000
1.770240e+003,-8.701019e-001
1.771204e+003,1.931564e+000
1.772168e+003,4.304626e+000
1.773133e+003,3.325912e+000
1.774097e+003,-4.927826e-001
1.775061e+003,-1.386948e+000
1.776025e+003,1.679504e+000
1.776990e+003,3.164398e+000
1.777954e+003,4.868011e-001
1.778918e+003,-2.195511e+000
1.779882e+003,-1.475494e+000
1.780846e+003,4.244690e-001
1.781811e+003,4.742889e-001
1.782775e+003,-7.615051e-001
1.783739e+003,-1.414658e+000
1.784703e+003,-1.147675e+000
1.785668e+003,-8.879395e-001
1.786632e+003,-1.197464e+000
1.787596e+003,-1.597183e+000
1.788560e+003,-1.453217e+000
1.789525e+003,-1.162476e+000
1.790489e+003,-1.774979e+000
1.791453e+003,-2.846069e+000
1.792417e+003,-2.455917e+000
1.793382e+003,-4.017639e-001
1.794346e+003,1.025909e+000
1.795310e+003,5.782776e-001
1.796274e+003,-6.404266e-001
1.797239e+003,-1.354813e+000
1.798203e+003,-1.669617e+000
1.799167e+003,-2.381302e+000
1.800131e+003,-3.981140e+000
1.801095e+003,-3.842087e+000
1.802060e+003,7.978821e-001
1.803024e+003,2.929123e+000
1.803988e+003,-4.778137e-001
1.804952e+003,-3.733948e+000
1.805917e+003,-4.010696e+000
1.806881e+003,-2.970856e+000
1.807845e+003,-1.943283e+000
1.808809e+003,-1.223145e+000
1.809773e+003,-9.126892e-001
1.810738e+003,-9.834595e-001
1.811702e+003,-1.313049e+000
1.812666e+003,-1.814957e+000
1.813630e+003,-2.059341e+000
1.814595e+003,-1.331970e+000
1.815559e+003,-6.190491e-002
1.816523e+003,-3.442383e-002
1.817487e+003,-1.361725e+000
1.818452e+003,-2.442215e+000
1.819416e+003,-3.159576e+000
1.820380e+003,-3.531174e+000
1.821344e+003,-3.848801e+000
1.822309e+003,-3.576569e+000
1.823273e+003,-1.778702e+000
1.824237e+003,3.685303e-001
1.825201e+003,1.943207e+000
1.826166e+003,2.731644e+000
1.827130e+003,1.931824e+000
1.828094e+003,-5.209351e-001
1.829058e+003,-1.710541e+000
1.830022e+003,3.569794e-001
1.830987e+003,2.914032e+000
1.831951e+003,3.897446e+000
1.832915e+003,3.820358e+000
1.833879e+003,3.201126e+000
1.834844e+003,2.199722e+000
1.835808e+003,9.701843e-001
1.836772e+003,-3.485413e-001
1.837736e+003,-1.013687e+000
1.838700e+003,-7.170410e-001
1.839665e+003,-2.855682e-001
1.840629e+003,-4.628448e-001
1.841593e+003,-8.697815e-001
1.842557e+003,-7.511597e-001
1.843522e+003,-1.190338e-001
1.844486e+003,4.385376e-001
1.845450e+003,1.297745e+000
1.846414e+003,1.537048e+000
1.847379e+003,5.133057e-001
1.848343e+003,-5.241394e-001
1.849307e+003,-1.480728e+000
1.850271e+003,-1.953568e+000
1.851236e+003,-1.260391e+000
1.852200e+003,-9.741211e-002
1.853164e+003,5.379944e-001
1.854128e+003,5.267029e-001
1.855093e+003,3.394470e-001
1.856057e+003,2.230682e-001
1.857021e+003,-3.105164e-002
1.857985e+003,-6.437836e-001
1.858949e+003,-1.550552e+000
1.859914e+003,-3.064209e+000
1.860878e+003,-4.790436e+000
1.861842e+003,-4.186768e+000
1.862806e+003,-1.197006e+000
1.863771e+003,5.332489e-001
1.864735e+003,9.428406e-002
1.865699e+003,-2.456055e-001
1.866663e+003,9.676361e-001
1.867627e+003,1.792831e+000
1.868592e+003,-3.857880e-001
1.869556e+003,-3.672775e+000
1.870520e+003,-4.067215e+000
1.871484e+003,-2.036987e+000
1.872449e+003,-6.797028e-001
1.873413e+003,-2.907715e-001
1.874377e+003,4.013519e-001
1.875341e+003,1.610947e+000
1.876306e+003,2.984177e+000
1.877270e+003,5.031250e+000
1.878234e+003,6.463913e+000
1.879198e+003,5.659790e+000
1.880163e+003,3.488373e+000
1.881127e+003,1.179413e+000
1.882091e+003,-6.654205e-001
1.883055e+003,-1.058121e+000
1.884020e+003,2.257690e-001
1.884984e+003,1.620438e+000
1.885948e+003,1.706207e+000
1.886912e+003,1.006454e+000
1.887876e+003,5.094147e-001
1.888841e+003,2.336578e-001
1.889805e+003,4.028168e-001
1.890769e+003,1.166550e+000
1.891733e+003,1.569550e+000
1.892698e+003,1.428955e+000
1.893662e+003,9.759064e-001
1.894626e+003,8.267212e-002
1.895590e+003,-7.673950e-001
1.896554e+003,-1.607010e+000
1.897519e+003,-1.888260e+000
1.898483e+003,-4.474030e-001
1.899447e+003,1.999817e+000
1.900411e+003,3.169418e+000
1.901376e+003,2.663895e+000
1.902340e+003,1.945450e+000
1.903304e+003,1.378525e+000
1.904268e+003,9.863586e-001
1.905233e+003,9.363861e-001
1.906197e+003,9.861755e-001
1.907161e+003,6.511383e-001
1.908125e+003,3.843231e-001
1.909090e+003,1.366791e+000
1.910054e+003,3.143509e+000
1.911018e+003,3.517120e+000
1.911982e+003,2.037506e+000
1.912947e+003,1.178223e+000
1.913911e+003,2.733643e+000
1.914875e+003,5.172684e+000
1.915839e+003,6.147934e+000
1.916803e+003,5.720428e+000
1.917768e+003,4.206314e+000
1.918732e+003,1.218994e+000
1.919696e+003,2.778625e-001
1.920660e+003,2.609238e+000
1.921625e+003,3.648911e+000
1.922589e+003,9.870300e-001
1.923553e+003,-9.187927e-001
1.924517e+003,1.275879e+000
1.925481e+003,4.378342e+000
1.926446e+003,5.789490e+000
1.927410e+003,6.011734e+000
1.928374e+003,6.180450e+000
1.929338e+003,6.279419e+000
1.930303e+003,5.412445e+000
1.931267e+003,3.015366e+000
1.932231e+003,1.160294e+000
1.933195e+003,5.630188e-001
1.934160e+003,8.760986e-001
1.935124e+003,2.753052e+000
1.936088e+003,4.620453e+000
1.937052e+003,4.260132e+000
1.938017e+003,2.597549e+000
1.938981e+003,2.053802e+000
1.939945e+003,2.731613e+000
1.940909e+003,2.505798e+000
1.941874e+003,5.459595e-001
1.942838e+003,-9.431305e-001
1.943802e+003,2.236481e-001
1.944766e+003,2.653214e+000
1.945730e+003,3.334549e+000
1.946695e+003,2.458420e+000
1.947659e+003,1.969513e+000
1.948623e+003,1.826477e+000
1.949587e+003,2.522278e+000
1.950552e+003,4.643173e+000
1.951516e+003,5.488052e+000
1.952480e+003,3.524017e+000
1.953444e+003,1.413895e+000
1.954408e+003,7.476807e-001
1.955373e+003,1.112366e+000
1.956337e+003,2.671265e+000
1.957301e+003,4.914215e+000
1.958265e+003,5.524490e+000
1.959230e+003,4.208038e+000
1.960194e+003,3.455795e+000
1.961158e+003,4.088608e+000
1.962122e+003,4.294113e+000
1.963087e+003,3.410278e+000
1.964051e+003,2.273438e+000
1.965015e+003,7.080994e-001
1.965979e+003,-1.518707e-001
1.966944e+003,1.325638e+000
1.967908e+003,3.944153e+000
1.968872e+003,5.674988e+000
1.969836e+003,6.179382e+000
1.970801e+003,6.046326e+000
1.971765e+003,5.582047e+000
1.972729e+003,4.942978e+000
1.973693e+003,4.117416e+000
1.974657e+003,3.581070e+000
1.975622e+003,4.346878e+000
1.976586e+003,5.800003e+000
1.977550e+003,6.142487e+000
1.978514e+003,5.659119e+000
1.979479e+003,6.316742e+000
1.980443e+003,8.263062e+000
1.981407e+003,9.052277e+000
1.982371e+003,7.749908e+000
1.983335e+003,6.281769e+000
1.984300e+003,6.000397e+000
1.985264e+003,6.537476e+000
1.986228e+003,7.550934e+000
1.987192e+003,8.760269e+000
1.988157e+003,8.609451e+000
1.989121e+003,6.655746e+000
1.990085e+003,5.855972e+000
1.991049e+003,7.128189e+000
1.992014e+003,7.793716e+000
1.992978e+003,7.063232e+000
1.993942e+003,6.235596e+000
1.994906e+003,5.655563e+000
1.995871e+003,5.242584e+000
1.996835e+003,4.941711e+000
1.997799e+003,4.824066e+000
1.998763e+003,5.107025e+000
1.999728e+003,5.601349e+000
