5.003444e+002,1.841659e+002
5.013087e+002,1.819377e+002
5.022729e+002,1.813560e+002
5.032371e+002,1.819605e+002
5.042014e+002,1.800544e+002
5.051656e+002,1.761478e+002
5.061298e+002,1.719904e+002
5.070941e+002,1.689915e+002
5.080583e+002,1.670272e+002
5.090225e+002,1.655350e+002
5.099868e+002,1.654369e+002
5.109510e+002,1.647094e+002
5.119152e+002,1.615789e+002
5.128795e+002,1.557789e+002
5.138437e+002,1.520135e+002
5.148079e+002,1.549764e+002
5.157722e+002,1.577169e+002
5.167364e+002,1.568624e+002
5.177006e+002,1.521162e+002
5.186649e+002,1.458925e+002
5.196291e+002,1.400034e+002
5.205933e+002,1.362502e+002
5.215576e+002,1.371157e+002
5.225218e+002,1.418818e+002
5.234860e+002,1.475668e+002
5.244503e+002,1.494095e+002
5.254145e+002,1.467867e+002
5.263787e+002,1.430468e+002
5.273430e+002,1.368083e+002
5.283072e+002,1.303596e+002
5.292714e+002,1.272048e+002
5.302357e+002,1.295056e+002
5.311999e+002,1.286725e+002
5.321641e+002,1.219482e+002
5.331284e+002,1.146859e+002
5.340926e+002,1.112248e+002
5.350568e+002,1.131241e+002
5.360211e+002,1.152272e+002
5.369853e+002,1.131575e+002
5.379495e+002,1.097842e+002
5.389138e+002,1.072037e+002
5.398780e+002,1.061206e+002
5.408422e+002,1.056187e+002
5.418065e+002,1.030137e+002
5.427707e+002,9.867548e+001
5.437349e+002,9.524847e+001
5.446992e+002,9.344800e+001
5.456634e+002,9.287061e+001
5.466276e+002,9.227069e+001
5.475919e+002,9.228992e+001
5.485561e+002,9.176709e+001
5.495203e+002,8.998407e+001
5.504846e+002,8.748438e+001
5.514488e+002,8.516302e+001
5.524130e+002,8.347778e+001
5.533773e+002,8.248895e+001
5.543415e+002,8.311273e+001
5.553057e+002,8.384448e+001
5.562700e+002,8.233020e+001
5.572342e+002,7.712103e+001
5.581984e+002,7.098755e+001
5.591627e+002,7.231512e+001
5.601269e+002,7.841589e+001
5.610911e+002,8.335199e+001
5.620554e+002,8.389136e+001
5.630196e+002,8.037891e+001
5.639838e+002,7.746552e+001
5.649481e+002,7.667053e+001
5.659123e+002,7.435797e+001
5.668765e+002,6.901587e+001
5.678408e+002,6.227380e+001
5.688050e+002,5.816888e+001
5.697692e+002,5.898267e+001
5.707335e+002,5.947461e+001
5.716977e+002,5.779425e+001
5.726619e+002,5.528064e+001
5.736262e+002,5.406750e+001
5.745904e+002,5.591913e+001
5.755546e+002,5.863269e+001
5.765189e+002,5.822632e+001
5.774831e+002,5.550714e+001
5.784473e+002,5.221088e+001
5.794116e+002,4.972095e+001
5.803758e+002,4.825787e+001
5.813400e+002,4.698566e+001
5.823043e+002,4.513080e+001
5.832685e+002,4.354309e+001
5.842327e+002,4.298914e+001
5.851970e+002,4.363715e+001
5.861612e+002,4.471442e+001
5.871254e+002,4.605969e+001
5.880897e+002,4.729828e+001
5.890539e+002,4.828204e+001
5.900181e+002,4.887213e+001
5.909824e+002,4.908118e+001
5.919466e+002,4.918811e+001
5.929108e+002,4.863989e+001
5.938751e+002,4.665631e+001
5.948393e+002,4.387848e+001
5.958035e+002,4.142572e+001
5.967678e+002,4.015375e+001
5.977320e+002,3.997583e+001
5.986962e+002,3.845679e+001
5.996605e+002,3.503058e+001
6.006247e+002,3.201147e+001
6.015889e+002,3.061615e+001
6.025532e+002,3.079797e+001
6.035174e+002,3.096149e+001
6.044816e+002,3.089734e+001
6.054459e+002,3.123962e+001
6.064101e+002,3.226093e+001
6.073743e+002,3.368024e+001
6.083386e+002,3.516840e+001
6.093028e+002,3.696698e+001
6.102670e+002,3.813794e+001
6.112313e+002,3.778888e+001
6.121955e+002,3.650806e+001
6.131597e+002,3.500665e+001
6.141240e+002,3.376135e+001
6.150882e+002,3.263391e+001
6.160524e+002,3.110760e+001
6.170167e+002,2.947260e+001
6.179809e+002,2.837622e+001
6.189451e+002,2.797198e+001
6.199094e+002,2.797614e+001
6.208736e+002,2.778564e+001
6.218378e+002,2.746112e+001
6.228021e+002,2.781604e+001
6.237663e+002,2.987427e+001
6.247305e+002,3.256091e+001
6.256948e+002,3.387836e+001
6.266590e+002,3.224127e+001
6.276232e+002,2.986145e+001
6.285875e+002,2.872015e+001
6.295517e+002,2.812653e+001
6.305159e+002,2.704132e+001
6.314802e+002,2.482965e+001
6.324444e+002,2.201880e+001
6.334086e+002,2.128223e+001
6.343729e+002,2.209021e+001
6.353371e+002,2.147919e+001
6.363013e+002,1.784711e+001
6.372656e+002,1.248132e+001
6.382298e+002,1.043176e+001
6.391940e+002,1.636505e+001
6.401583e+002,1.925928e+001
6.411225e+002,1.786072e+001
6.420867e+002,1.484143e+001
6.430510e+002,1.309125e+001
6.440152e+002,1.334692e+001
6.449794e+002,1.326691e+001
6.459437e+002,1.090265e+001
6.469079e+002,8.294006e+000
6.478721e+002,7.455139e+000
6.488364e+002,8.991455e+000
6.498006e+002,1.145685e+001
6.507648e+002,1.217279e+001
6.517291e+002,1.144598e+001
6.526933e+002,9.990723e+000
6.536575e+002,7.832397e+000
6.546218e+002,5.666199e+000
6.555860e+002,4.890930e+000
6.565502e+002,6.417053e+000
6.575145e+002,7.374084e+000
6.584787e+002,7.801025e+000
6.594429e+002,7.790344e+000
6.604072e+002,7.171204e+000
6.613714e+002,5.821960e+000
6.623356e+002,5.015747e+000
6.632999e+002,4.864563e+000
6.642641e+002,5.266968e+000
6.652283e+002,7.331055e+000
6.661926e+002,1.064911e+001
6.671568e+002,1.341754e+001
6.681210e+002,1.294812e+001
6.690853e+002,1.014594e+001
6.700495e+002,8.160034e+000
6.710137e+002,7.079041e+000
6.719780e+002,6.637329e+000
6.729422e+002,6.537659e+000
6.739064e+002,6.746033e+000
6.748707e+002,6.580872e+000
6.758349e+002,5.304688e+000
6.767991e+002,4.416626e+000
6.777634e+002,5.288452e+000
6.787276e+002,7.886230e+000
6.796918e+002,1.011743e+001
6.806561e+002,1.044818e+001
6.816203e+002,1.025439e+001
6.825845e+002,9.952881e+000
6.835488e+002,9.568298e+000
6.845130e+002,9.070251e+000
6.854772e+002,8.502625e+000
6.864415e+002,8.141479e+000
6.874057e+002,7.772827e+000
6.883699e+002,7.109009e+000
6.893342e+002,6.362976e+000
6.902984e+002,5.678162e+000
6.912626e+002,5.417419e+000
6.922269e+002,7.251648e+000
6.931911e+002,1.595685e+001
6.941553e+002,2.130853e+001
6.951196e+002,1.963934e+001
6.960838e+002,1.442987e+001
6.970480e+002,1.163275e+001
6.980123e+002,1.359222e+001
6.989765e+002,1.574866e+001
6.999407e+002,1.609814e+001
7.009050e+002,1.571832e+001
7.018692e+002,1.564313e+001
7.028334e+002,1.605591e+001
7.037977e+002,1.587128e+001
7.047619e+002,1.296887e+001
7.057261e+002,8.838623e+000
7.066904e+002,5.791260e+000
7.076546e+002,4.185730e+000
7.086188e+002,3.644958e+000
7.095831e+002,3.617004e+000
7.105473e+002,3.993530e+000
7.115115e+002,4.657043e+000
7.124758e+002,5.607483e+000
7.134400e+002,6.518616e+000
7.144042e+002,7.783264e+000
7.153685e+002,9.475220e+000
7.163327e+002,1.002240e+001
7.172969e+002,7.211914e+000
7.182612e+002,4.500183e+000
7.192254e+002,3.250854e+000
7.201896e+002,3.031433e+000
7.211539e+002,2.704346e+000
7.221181e+002,1.315186e+000
7.230823e+002,-4.597168e-001
7.240466e+002,-1.036804e+000
7.250108e+002,-2.421265e-001
7.259750e+002,1.929077e+000
7.269393e+002,5.382568e+000
7.279035e+002,9.413391e+000
7.288677e+002,1.158124e+001
7.298320e+002,1.179083e+001
7.307962e+002,1.173242e+001
7.317604e+002,1.152075e+001
7.327247e+002,1.118512e+001
7.336889e+002,1.029932e+001
7.346531e+002,7.927734e+000
7.356174e+002,5.272217e+000
7.365816e+002,4.049500e+000
7.375458e+002,3.516968e+000
7.385101e+002,2.844604e+000
7.394743e+002,1.942505e+000
7.404385e+002,1.645996e+000
7.414028e+002,3.541382e+000
7.423670e+002,6.109924e+000
7.433312e+002,5.941833e+000
7.442955e+002,3.173157e+000
7.452597e+002,3.381958e-001
7.462239e+002,-1.172485e-001
7.471882e+002,1.896973e+000
7.481524e+002,5.414368e+000
7.491166e+002,1.261438e+001
7.500809e+002,1.748413e+001
7.510451e+002,1.652600e+001
7.520093e+002,1.114063e+001
7.529736e+002,6.550171e+000
7.539378e+002,5.645996e+000
7.549020e+002,6.603577e+000
7.558663e+002,9.300903e+000
7.568306e+002,1.228699e+001
7.577948e+002,1.320270e+001
7.587590e+002,1.064124e+001
7.597233e+002,5.906311e+000
7.606875e+002,3.915344e+000
7.616517e+002,4.598328e+000
7.626160e+002,5.066711e+000
7.635802e+002,4.359070e+000
7.645444e+002,3.505859e+000
7.655087e+002,4.783997e+000
7.664729e+002,9.681702e+000
7.674371e+002,1.317358e+001
7.684014e+002,1.490198e+001
7.693656e+002,1.542987e+001
7.703298e+002,1.423505e+001
7.712941e+002,1.175873e+001
7.722583e+002,1.091022e+001
7.732225e+002,1.607813e+001
7.741868e+002,2.150842e+001
7.751510e+002,2.191168e+001
7.761152e+002,1.864154e+001
7.770795e+002,1.573254e+001
7.780437e+002,1.670947e+001
7.790079e+002,2.075311e+001
7.799722e+002,2.104340e+001
7.809364e+002,1.711774e+001
7.819006e+002,1.449854e+001
7.828649e+002,1.687183e+001
7.838291e+002,2.260913e+001
7.847933e+002,2.545935e+001
7.857576e+002,2.300055e+001
7.867218e+002,1.990393e+001
7.876860e+002,1.625598e+001
7.886503e+002,1.367462e+001
7.896145e+002,1.415442e+001
7.905787e+002,1.792206e+001
7.915430e+002,2.180450e+001
7.925072e+002,2.142926e+001
7.934714e+002,1.912781e+001
7.944357e+002,1.774823e+001
7.953999e+002,1.778699e+001
7.963641e+002,1.860382e+001
7.973284e+002,1.933093e+001
7.982926e+002,1.994250e+001
7.992568e+002,2.116406e+001
8.002211e+002,2.282611e+001
8.011853e+002,2.346344e+001
8.021495e+002,2.321997e+001
8.031138e+002,2.265881e+001
8.040780e+002,2.177911e+001
8.050422e+002,1.885156e+001
8.060065e+002,1.740601e+001
8.069707e+002,1.957190e+001
8.079349e+002,2.246069e+001
8.088992e+002,2.292444e+001
8.098634e+002,2.026227e+001
8.108276e+002,1.764545e+001
8.117919e+002,2.070288e+001
8.127561e+002,2.561755e+001
8.137203e+002,2.513708e+001
8.146846e+002,1.897369e+001
8.156488e+002,1.206885e+001
8.166130e+002,1.036560e+001
8.175773e+002,1.491870e+001
8.185415e+002,1.763745e+001
8.195057e+002,1.646045e+001
8.204700e+002,1.560315e+001
8.214342e+002,1.687775e+001
8.223984e+002,1.956104e+001
8.233627e+002,2.163068e+001
8.243269e+002,2.247174e+001
8.252911e+002,2.274988e+001
8.262554e+002,2.259302e+001
8.272196e+002,2.231403e+001
8.281838e+002,2.220630e+001
8.291481e+002,2.235077e+001
8.301123e+002,2.260345e+001
8.310765e+002,2.281812e+001
8.320408e+002,2.279742e+001
8.330050e+002,2.185541e+001
8.339692e+002,1.964862e+001
8.349335e+002,1.780847e+001
8.358977e+002,1.869293e+001
8.368619e+002,2.317145e+001
8.378262e+002,2.560663e+001
8.387904e+002,2.340399e+001
8.397546e+002,2.130005e+001
8.407189e+002,2.040979e+001
8.416831e+002,2.048529e+001
8.426473e+002,2.082178e+001
8.436116e+002,2.111060e+001
8.445758e+002,2.191455e+001
8.455400e+002,2.342926e+001
8.465043e+002,2.508759e+001
8.474685e+002,2.688336e+001
8.484327e+002,2.907336e+001
8.493970e+002,3.188293e+001
8.503612e+002,3.526007e+001
8.513254e+002,3.928351e+001
8.522897e+002,4.130389e+001
8.532539e+002,4.035590e+001
8.542181e+002,3.845447e+001
8.551824e+002,3.670117e+001
8.561466e+002,3.558038e+001
8.571108e+002,3.586218e+001
8.580751e+002,3.702734e+001
8.590393e+002,3.870062e+001
8.600035e+002,4.163916e+001
8.609678e+002,4.521735e+001
8.619320e+002,4.890070e+001
8.628962e+002,5.233411e+001
8.638605e+002,5.507001e+001
8.648247e+002,5.582025e+001
8.657889e+002,5.549707e+001
8.667532e+002,5.643988e+001
8.677174e+002,5.894147e+001
8.686816e+002,6.166705e+001
8.696459e+002,6.301465e+001
8.706101e+002,6.278467e+001
8.715743e+002,6.434808e+001
8.725386e+002,6.979102e+001
8.735028e+002,7.430249e+001
8.744670e+002,7.547906e+001
8.754313e+002,7.461224e+001
8.763955e+002,7.473975e+001
8.773597e+002,7.737524e+001
8.783240e+002,8.002887e+001
8.792882e+002,8.022339e+001
8.802524e+002,7.968970e+001
8.812167e+002,7.990814e+001
8.821809e+002,8.123535e+001
8.831451e+002,8.322284e+001
8.841094e+002,8.536041e+001
8.850736e+002,8.797516e+001
8.860378e+002,9.151862e+001
8.870021e+002,9.628839e+001
8.879663e+002,1.000563e+002
8.889305e+002,1.009387e+002
8.898948e+002,9.938110e+001
8.908590e+002,9.817303e+001
8.918232e+002,9.680725e+001
8.927875e+002,9.796338e+001
8.937517e+002,1.045549e+002
8.947159e+002,1.118832e+002
8.956802e+002,1.152872e+002
8.966444e+002,1.139235e+002
8.976086e+002,1.114572e+002
8.985729e+002,1.116188e+002
8.995371e+002,1.139386e+002
9.005013e+002,1.175485e+002
9.014656e+002,1.221464e+002
9.024298e+002,1.258283e+002
9.033940e+002,1.267847e+002
9.043583e+002,1.250883e+002
9.053225e+002,1.239966e+002
9.062867e+002,1.237319e+002
9.072510e+002,1.232589e+002
9.082152e+002,1.226942e+002
9.091794e+002,1.227570e+002
9.101437e+002,1.246062e+002
9.111079e+002,1.284144e+002
9.120721e+002,1.310928e+002
9.130364e+002,1.294670e+002
9.140006e+002,1.264587e+002
9.149648e+002,1.230507e+002
9.159291e+002,1.202708e+002
9.168933e+002,1.196076e+002
9.178575e+002,1.218464e+002
9.188218e+002,1.254259e+002
9.197860e+002,1.254135e+002
9.207502e+002,1.215992e+002
9.217145e+002,1.174216e+002
9.226787e+002,1.131570e+002
9.236429e+002,1.100678e+002
9.246072e+002,1.101826e+002
9.255714e+002,1.141352e+002
9.265356e+002,1.162497e+002
9.274999e+002,1.142626e+002
9.284641e+002,1.114095e+002
9.294283e+002,1.085406e+002
9.303926e+002,1.059564e+002
9.313568e+002,1.037289e+002
9.323210e+002,1.018669e+002
9.332853e+002,1.002014e+002
9.342495e+002,9.844287e+001
9.352137e+002,9.662195e+001
9.361780e+002,9.536249e+001
9.371422e+002,9.506903e+001
9.381064e+002,9.521521e+001
9.390707e+002,9.476489e+001
9.400349e+002,9.331207e+001
9.409991e+002,9.102051e+001
9.419634e+002,8.534766e+001
9.429276e+002,8.194171e+001
9.438918e+002,8.480481e+001
9.448561e+002,9.021106e+001
9.458203e+002,9.132483e+001
9.467845e+002,8.555621e+001
9.477488e+002,7.976770e+001
9.487130e+002,7.934076e+001
9.496772e+002,8.070166e+001
9.506415e+002,8.146661e+001
9.516057e+002,8.127252e+001
9.525699e+002,8.083685e+001
9.535342e+002,8.082520e+001
9.544984e+002,8.094678e+001
9.554626e+002,7.988373e+001
9.564269e+002,7.805609e+001
9.573911e+002,7.632971e+001
9.583553e+002,7.455676e+001
9.593196e+002,7.293170e+001
9.602838e+002,7.193536e+001
9.612480e+002,7.162823e+001
9.622123e+002,7.117151e+001
9.631765e+002,7.138989e+001
9.641407e+002,7.064075e+001
9.651050e+002,6.670105e+001
9.660692e+002,6.105505e+001
9.670334e+002,5.714160e+001
9.679977e+002,5.734344e+001
9.689619e+002,5.996582e+001
9.699261e+002,5.992865e+001
9.708904e+002,5.833942e+001
9.718546e+002,5.990997e+001
9.728188e+002,6.578552e+001
9.737831e+002,7.396362e+001
9.747473e+002,8.260449e+001
9.757115e+002,9.235400e+001
9.766758e+002,9.966766e+001
9.776400e+002,1.055875e+002
9.786042e+002,1.084445e+002
9.795685e+002,1.067798e+002
9.805327e+002,1.016248e+002
9.814969e+002,9.403943e+001
9.824612e+002,8.461737e+001
9.834254e+002,7.522595e+001
9.843896e+002,6.617108e+001
9.853539e+002,5.841992e+001
9.863181e+002,5.399561e+001
9.872823e+002,5.221649e+001
9.882466e+002,5.049036e+001
9.892108e+002,4.696759e+001
9.901750e+002,4.257825e+001
9.911393e+002,4.055878e+001
9.921035e+002,4.027966e+001
9.930677e+002,4.168768e+001
9.940320e+002,4.730060e+001
9.949962e+002,5.343060e+001
9.959604e+002,5.611285e+001
9.969247e+002,5.530811e+001
9.978889e+002,5.544128e+001
9.988531e+002,5.877130e+001
9.998174e+002,6.220093e+001
1.000782e+003,6.513550e+001
1.001746e+003,6.709442e+001
1.002710e+003,6.679126e+001
1.003674e+003,6.391998e+001
1.004639e+003,6.030908e+001
1.005603e+003,5.938678e+001
1.006567e+003,6.132104e+001
1.007531e+003,6.091193e+001
1.008495e+003,5.716626e+001
1.009460e+003,5.333069e+001
1.010424e+003,5.166052e+001
1.011388e+003,5.167242e+001
1.012352e+003,5.096625e+001
1.013317e+003,4.835425e+001
1.014281e+003,4.645905e+001
1.015245e+003,4.768555e+001
1.016209e+003,4.812506e+001
1.017174e+003,4.389209e+001
1.018138e+003,3.588782e+001
1.019102e+003,2.889795e+001
1.020066e+003,2.712500e+001
1.021031e+003,2.855341e+001
1.021995e+003,2.620844e+001
1.022959e+003,2.062970e+001
1.023923e+003,1.620062e+001
1.024887e+003,1.453668e+001
1.025852e+003,1.417010e+001
1.026816e+003,1.295081e+001
1.027780e+003,1.095728e+001
1.028744e+003,9.083984e+000
1.029709e+003,6.162415e+000
1.030673e+003,4.645874e+000
1.031637e+003,6.927734e+000
1.032601e+003,1.016486e+001
1.033566e+003,1.011609e+001
1.034530e+003,5.492371e+000
1.035494e+003,1.360474e-001
1.036458e+003,-2.189392e+000
1.037422e+003,-2.426575e+000
1.038387e+003,-1.663940e+000
1.039351e+003,-2.407227e-001
1.040315e+003,7.540283e-001
1.041279e+003,5.405273e-001
1.042244e+003,-3.877563e-001
1.043208e+003,-2.681885e-001
1.044172e+003,1.258789e+000
1.045136e+003,2.593201e+000
1.046101e+003,3.884155e+000
1.047065e+003,5.139221e+000
1.048029e+003,6.312317e+000
1.048993e+003,7.294250e+000
1.049958e+003,7.986816e+000
1.050922e+003,8.485046e+000
1.051886e+003,8.934387e+000
1.052850e+003,1.000275e+001
1.053814e+003,1.077789e+001
1.054779e+003,9.170837e+000
1.055743e+003,5.138977e+000
1.056707e+003,1.708801e+000
1.057671e+003,2.693359e+000
1.058636e+003,8.058838e+000
1.059600e+003,1.105054e+001
1.060564e+003,1.141675e+001
1.061528e+003,1.085327e+001
1.062493e+003,7.312927e+000
1.063457e+003,3.708069e+000
1.064421e+003,4.718872e+000
1.065385e+003,1.081128e+001
1.066349e+003,1.452563e+001
1.067314e+003,1.002435e+001
1.068278e+003,4.409302e+000
1.069242e+003,2.306335e+000
1.070206e+003,2.896851e+000
1.071171e+003,5.036743e+000
1.072135e+003,7.785889e+000
1.073099e+003,9.875793e+000
1.074063e+003,9.343201e+000
1.075028e+003,5.995300e+000
1.075992e+003,3.962952e+000
1.076956e+003,2.986389e+000
1.077920e+003,2.821960e+000
1.078885e+003,4.767029e+000
1.079849e+003,7.461304e+000
1.080813e+003,7.676941e+000
1.081777e+003,4.417969e+000
1.082741e+003,2.184021e+000
1.083706e+003,4.477966e+000
1.084670e+003,6.654236e+000
1.085634e+003,5.893738e+000
1.086598e+003,3.056946e+000
1.087563e+003,7.849121e-002
1.088527e+003,-1.708923e+000
1.089491e+003,-2.000488e+000
1.090455e+003,-4.289551e-001
1.091420e+003,2.994019e+000
1.092384e+003,4.390259e+000
1.093348e+003,2.573914e+000
1.094312e+003,4.454956e-001
1.095276e+003,7.287598e-002
1.096241e+003,1.077393e+000
1.097205e+003,1.666382e+000
1.098169e+003,1.215149e+000
1.099133e+003,7.742920e-001
1.100098e+003,1.383484e+000
1.101062e+003,1.860779e+000
1.102026e+003,1.146973e+000
1.102990e+003,-2.716675e-001
1.103955e+003,-1.411865e+000
1.104919e+003,-1.722290e+000
1.105883e+003,-1.069580e+000
1.106847e+003,1.537781e+000
1.107812e+003,5.989136e+000
1.108776e+003,7.500732e+000
1.109740e+003,4.735046e+000
1.110704e+003,1.403320e+000
1.111668e+003,9.051514e-002
1.112633e+003,7.816772e-001
1.113597e+003,2.926453e+000
1.114561e+003,7.719299e+000
1.115525e+003,1.026569e+001
1.116490e+003,6.761230e+000
1.117454e+003,2.936462e+000
1.118418e+003,3.447266e+000
1.119382e+003,7.216858e+000
1.120347e+003,9.822815e+000
1.121311e+003,8.294983e+000
1.122275e+003,4.571533e+000
1.123239e+003,3.388916e+000
1.124203e+003,5.066528e+000
1.125168e+003,7.266663e+000
1.126132e+003,1.010022e+001
1.127096e+003,1.304395e+001
1.128060e+003,1.570520e+001
1.129025e+003,1.790900e+001
1.129989e+003,1.937341e+001
1.130953e+003,1.996985e+001
1.131917e+003,1.962561e+001
1.132882e+003,1.699414e+001
1.133846e+003,1.512823e+001
1.134810e+003,1.630048e+001
1.135774e+003,1.982672e+001
1.136739e+003,2.357031e+001
1.137703e+003,2.630469e+001
1.138667e+003,2.898999e+001
1.139631e+003,3.347540e+001
1.140595e+003,3.959821e+001
1.141560e+003,4.618024e+001
1.142524e+003,5.366412e+001
1.143488e+003,6.083850e+001
1.144452e+003,6.490405e+001
1.145417e+003,6.779651e+001
1.146381e+003,7.725623e+001
1.147345e+003,9.584460e+001
1.148309e+003,1.144412e+002
1.149274e+003,1.313143e+002
1.150238e+003,1.474465e+002
1.151202e+003,1.641646e+002
1.152166e+003,1.806598e+002
1.153130e+003,1.958142e+002
1.154095e+003,2.085912e+002
1.155059e+003,2.170161e+002
1.156023e+003,2.185356e+002
1.156987e+003,2.134497e+002
1.157952e+003,2.059409e+002
1.158916e+003,1.965850e+002
1.159880e+003,1.854840e+002
1.160844e+003,1.714272e+002
1.161809e+003,1.548734e+002
1.162773e+003,1.375005e+002
1.163737e+003,1.188412e+002
1.164701e+003,1.016700e+002
1.165666e+003,8.609509e+001
1.166630e+003,7.337366e+001
1.167594e+003,6.534045e+001
1.168558e+003,5.981433e+001
1.169522e+003,5.360162e+001
1.170487e+003,4.600970e+001
1.171451e+003,3.994080e+001
1.172415e+003,3.893616e+001
1.173379e+003,4.166248e+001
1.174344e+003,4.112024e+001
1.175308e+003,3.727112e+001
1.176272e+003,3.415613e+001
1.177236e+003,3.384869e+001
1.178201e+003,3.452081e+001
1.179165e+003,3.355444e+001
1.180129e+003,3.070129e+001
1.181093e+003,2.768280e+001
1.182057e+003,2.451581e+001
1.183022e+003,2.210571e+001
1.183986e+003,2.072552e+001
1.184950e+003,2.022321e+001
1.185914e+003,2.095941e+001
1.186879e+003,2.262256e+001
1.187843e+003,2.409088e+001
1.188807e+003,2.434900e+001
1.189771e+003,2.368152e+001
1.190736e+003,2.328210e+001
1.191700e+003,2.314581e+001
1.192664e+003,2.306244e+001
1.193628e+003,2.372296e+001
1.194593e+003,2.391193e+001
1.195557e+003,2.256360e+001
1.196521e+003,1.992487e+001
1.197485e+003,1.709595e+001
1.198449e+003,1.448950e+001
1.199414e+003,1.108716e+001
1.200378e+003,4.434143e+000
1.201342e+003,-1.310547e+000
1.202306e+003,-2.994446e+000
1.203271e+003,-1.866943e+000
1.204235e+003,-3.704224e-001
1.205199e+003,1.284790e-001
1.206163e+003,-7.323608e-001
1.207128e+003,-3.780762e+000
1.208092e+003,-9.120239e+000
1.209056e+003,-1.406964e+001
1.210020e+003,-1.888586e+001
1.210984e+003,-2.287964e+001
1.211949e+003,-2.540472e+001
1.212913e+003,-2.742657e+001
1.213877e+003,-3.013586e+001
1.214841e+003,-3.351367e+001
1.215806e+003,-3.660077e+001
1.216770e+003,-3.909406e+001
1.217734e+003,-4.123102e+001
1.218698e+003,-4.342896e+001
1.219663e+003,-4.555524e+001
1.220627e+003,-4.711499e+001
1.221591e+003,-4.822241e+001
1.222555e+003,-4.997015e+001
1.223520e+003,-5.339838e+001
1.224484e+003,-5.762280e+001
1.225448e+003,-5.895428e+001
1.226412e+003,-5.557751e+001
1.227376e+003,-5.336786e+001
1.228341e+003,-5.263049e+001
1.229305e+003,-5.285687e+001
1.230269e+003,-5.432599e+001
1.231233e+003,-5.644659e+001
1.232198e+003,-5.810193e+001
1.233162e+003,-5.889441e+001
1.234126e+003,-5.882507e+001
1.235090e+003,-5.742487e+001
1.236055e+003,-5.598822e+001
1.237019e+003,-5.612549e+001
1.237983e+003,-5.738428e+001
1.238947e+003,-5.838672e+001
1.239911e+003,-5.841168e+001
1.240876e+003,-5.740033e+001
1.241840e+003,-5.516071e+001
1.242804e+003,-5.152014e+001
1.243768e+003,-4.952319e+001
1.244733e+003,-5.070795e+001
1.245697e+003,-5.158588e+001
1.246661e+003,-5.282813e+001
1.247625e+003,-5.338818e+001
1.248590e+003,-5.156219e+001
1.249554e+003,-4.803436e+001
1.250518e+003,-4.534045e+001
1.251482e+003,-4.478503e+001
1.252447e+003,-4.537164e+001
1.253411e+003,-4.607043e+001
1.254375e+003,-4.655780e+001
1.255339e+003,-4.626837e+001
1.256303e+003,-4.510211e+001
1.257268e+003,-4.404193e+001
1.258232e+003,-4.415344e+001
1.259196e+003,-4.467395e+001
1.260160e+003,-4.321539e+001
1.261125e+003,-3.897528e+001
1.262089e+003,-3.624261e+001
1.263053e+003,-3.841235e+001
1.264017e+003,-3.892297e+001
1.264982e+003,-3.365021e+001
1.265946e+003,-2.773792e+001
1.266910e+003,-2.630121e+001
1.267874e+003,-2.922992e+001
1.268839e+003,-3.326709e+001
1.269803e+003,-3.627826e+001
1.270767e+003,-3.809943e+001
1.271731e+003,-3.795520e+001
1.272695e+003,-3.582306e+001
1.273660e+003,-3.498901e+001
1.274624e+003,-3.610217e+001
1.275588e+003,-3.818756e+001
1.276552e+003,-4.168707e+001
1.277517e+003,-4.494543e+001
1.278481e+003,-4.445819e+001
1.279445e+003,-3.977618e+001
1.280409e+003,-3.648560e+001
1.281374e+003,-3.677441e+001
1.282338e+003,-3.833679e+001
1.283302e+003,-4.095123e+001
1.284266e+003,-4.352313e+001
1.285230e+003,-4.437134e+001
1.286195e+003,-4.374762e+001
1.287159e+003,-4.385309e+001
1.288123e+003,-4.639191e+001
1.289087e+003,-5.004541e+001
1.290052e+003,-5.124854e+001
1.291016e+003,-4.937091e+001
1.291980e+003,-4.789673e+001
1.292944e+003,-4.712659e+001
1.293909e+003,-4.680334e+001
1.294873e+003,-4.617358e+001
1.295837e+003,-4.586963e+001
1.296801e+003,-4.755707e+001
1.297766e+003,-5.115894e+001
1.298730e+003,-5.345471e+001
1.299694e+003,-5.262152e+001
1.300658e+003,-5.047803e+001
1.301622e+003,-4.828320e+001
1.302587e+003,-4.628326e+001
1.303551e+003,-4.507892e+001
1.304515e+003,-4.466125e+001
1.305479e+003,-4.462640e+001
1.306444e+003,-4.482141e+001
1.307408e+003,-4.533179e+001
1.308372e+003,-4.618445e+001
1.309336e+003,-4.784192e+001
1.310301e+003,-4.844324e+001
1.311265e+003,-4.679755e+001
1.312229e+003,-4.516901e+001
1.313193e+003,-4.417023e+001
1.314157e+003,-4.365796e+001
1.315122e+003,-4.340759e+001
1.316086e+003,-4.349396e+001
1.317050e+003,-4.428918e+001
1.318014e+003,-4.598303e+001
1.318979e+003,-4.781940e+001
1.319943e+003,-4.871466e+001
1.320907e+003,-4.854974e+001
1.321871e+003,-4.758649e+001
1.322836e+003,-4.587103e+001
1.323800e+003,-4.449164e+001
1.324764e+003,-4.404834e+001
1.325728e+003,-4.417920e+001
1.326693e+003,-4.471100e+001
1.327657e+003,-4.580084e+001
1.328621e+003,-4.580835e+001
1.329585e+003,-4.290204e+001
1.330549e+003,-3.968591e+001
1.331514e+003,-3.778534e+001
1.332478e+003,-3.712372e+001
1.333442e+003,-3.825739e+001
1.334406e+003,-4.024158e+001
1.335371e+003,-4.045508e+001
1.336335e+003,-3.743115e+001
1.337299e+003,-3.349811e+001
1.338263e+003,-3.332446e+001
1.339228e+003,-3.750531e+001
1.340192e+003,-3.973822e+001
1.341156e+003,-3.843127e+001
1.342120e+003,-3.770105e+001
1.343084e+003,-3.972516e+001
1.344049e+003,-4.157098e+001
1.345013e+003,-3.961469e+001
1.345977e+003,-3.503900e+001
1.346941e+003,-3.238611e+001
1.347906e+003,-3.337549e+001
1.348870e+003,-3.532324e+001
1.349834e+003,-3.611560e+001
1.350798e+003,-3.618781e+001
1.351763e+003,-3.601031e+001
1.352727e+003,-3.561639e+001
1.353691e+003,-3.558881e+001
1.354655e+003,-3.612842e+001
1.355620e+003,-3.700977e+001
1.356584e+003,-3.834369e+001
1.357548e+003,-3.985559e+001
1.358512e+003,-3.967255e+001
1.359476e+003,-3.739606e+001
1.360441e+003,-3.522485e+001
1.361405e+003,-3.280383e+001
1.362369e+003,-3.129956e+001
1.363333e+003,-3.186829e+001
1.364298e+003,-3.342010e+001
1.365262e+003,-3.464270e+001
1.366226e+003,-3.505780e+001
1.367190e+003,-3.453320e+001
1.368155e+003,-3.290045e+001
1.369119e+003,-3.094635e+001
1.370083e+003,-3.123883e+001
1.371047e+003,-3.455573e+001
1.372011e+003,-3.619122e+001
1.372976e+003,-3.637799e+001
1.373940e+003,-3.527795e+001
1.374904e+003,-3.162781e+001
1.375868e+003,-2.733960e+001
1.376833e+003,-2.517163e+001
1.377797e+003,-2.515735e+001
1.378761e+003,-2.487170e+001
1.379725e+003,-2.298151e+001
1.380690e+003,-2.129889e+001
1.381654e+003,-2.220166e+001
1.382618e+003,-2.412433e+001
1.383582e+003,-2.500250e+001
1.384547e+003,-2.480078e+001
1.385511e+003,-2.445758e+001
1.386475e+003,-2.450989e+001
1.387439e+003,-2.484064e+001
1.388403e+003,-2.549750e+001
1.389368e+003,-2.650256e+001
1.390332e+003,-2.607434e+001
1.391296e+003,-2.331775e+001
1.392260e+003,-2.041650e+001
1.393225e+003,-1.648712e+001
1.394189e+003,-1.411017e+001
1.395153e+003,-1.576093e+001
1.396117e+003,-1.950073e+001
1.397082e+003,-2.251434e+001
1.398046e+003,-2.382849e+001
1.399010e+003,-2.409149e+001
1.399974e+003,-2.401355e+001
1.400938e+003,-2.403809e+001
1.401903e+003,-2.478473e+001
1.402867e+003,-2.600867e+001
1.403831e+003,-2.549469e+001
1.404795e+003,-2.203546e+001
1.405760e+003,-1.922272e+001
1.406724e+003,-1.904102e+001
1.407688e+003,-2.052374e+001
1.408652e+003,-2.252997e+001
1.409617e+003,-2.437494e+001
1.410581e+003,-2.501312e+001
1.411545e+003,-2.396344e+001
1.412509e+003,-2.200885e+001
1.413474e+003,-1.909808e+001
1.414438e+003,-1.679083e+001
1.415402e+003,-1.774744e+001
1.416366e+003,-2.118274e+001
1.417330e+003,-2.348730e+001
1.418295e+003,-2.309454e+001
1.419259e+003,-2.171802e+001
1.420223e+003,-2.162158e+001
1.421187e+003,-2.263782e+001
1.422152e+003,-2.263763e+001
1.423116e+003,-2.115906e+001
1.424080e+003,-1.900110e+001
1.425044e+003,-1.510675e+001
1.426009e+003,-1.254053e+001
1.426973e+003,-1.385956e+001
1.427937e+003,-1.649420e+001
1.428901e+003,-1.738855e+001
1.429865e+003,-1.609631e+001
1.430830e+003,-1.374896e+001
1.431794e+003,-1.126947e+001
1.432758e+003,-9.357544e+000
1.433722e+003,-9.216064e+000
1.434687e+003,-1.073810e+001
1.435651e+003,-1.006195e+001
1.436615e+003,-5.734680e+000
1.437579e+003,-3.256531e+000
1.438544e+003,-4.338257e+000
1.439508e+003,-5.898132e+000
1.440472e+003,-5.008057e+000
1.441436e+003,-3.037354e+000
1.442401e+003,-3.640930e+000
1.443365e+003,-7.466553e+000
1.444329e+003,-1.076715e+001
1.445293e+003,-1.070917e+001
1.446257e+003,-8.375000e+000
1.447222e+003,-4.908020e+000
1.448186e+003,-9.203491e-001
1.449150e+003,-3.771973e-001
1.450114e+003,-4.742004e+000
1.451079e+003,-8.346252e+000
1.452043e+003,-7.041626e+000
1.453007e+003,-3.888794e+000
1.453971e+003,-3.462158e+000
1.454936e+003,-5.549927e+000
1.455900e+003,-7.162537e+000
1.456864e+003,-7.506348e+000
1.457828e+003,-7.437256e+000
1.458792e+003,-7.503906e+000
1.459757e+003,-7.648865e+000
1.460721e+003,-7.736267e+000
1.461685e+003,-7.875732e+000
1.462649e+003,-8.239807e+000
1.463614e+003,-8.754456e+000
1.464578e+003,-9.340027e+000
1.465542e+003,-1.026837e+001
1.466506e+003,-1.093280e+001
1.467471e+003,-8.635437e+000
1.468435e+003,-1.945313e+000
1.469399e+003,2.102417e+000
1.470363e+003,5.325317e-001
1.471328e+003,-7.428589e-001
1.472292e+003,-3.750000e-001
1.473256e+003,1.326294e-001
1.474220e+003,2.141724e-001
1.475184e+003,1.708984e-003
1.476149e+003,-5.628662e-001
1.477113e+003,-1.513733e+000
1.478077e+003,-2.340759e+000
1.479041e+003,-2.321533e+000
1.480006e+003,-1.464233e+000
1.480970e+003,-3.402100e-001
1.481934e+003,8.314209e-001
1.482898e+003,1.967468e+000
1.483863e+003,3.422852e+000
1.484827e+003,4.222595e+000
1.485791e+003,3.094849e+000
1.486755e+003,2.536926e+000
1.487719e+003,5.483887e+000
1.488684e+003,1.056744e+001
1.489648e+003,1.393042e+001
1.490612e+003,1.451379e+001
1.491576e+003,1.483380e+001
1.492541e+003,1.685675e+001
1.493505e+003,1.973236e+001
1.494469e+003,2.145685e+001
1.495433e+003,2.203357e+001
1.496398e+003,2.336005e+001
1.497362e+003,2.593506e+001
1.498326e+003,2.985260e+001
1.499290e+003,3.591473e+001
1.500255e+003,4.271161e+001
1.501219e+003,4.794830e+001
1.502183e+003,5.188531e+001
1.503147e+003,5.660175e+001
1.504111e+003,6.240674e+001
1.505076e+003,6.973096e+001
1.506040e+003,7.906342e+001
1.507004e+003,9.003247e+001
1.507968e+003,1.027839e+002
1.508933e+003,1.165535e+002
1.509897e+003,1.294543e+002
1.510861e+003,1.416861e+002
1.511825e+003,1.558394e+002
1.512790e+003,1.736990e+002
1.513754e+003,1.936401e+002
1.514718e+003,2.134182e+002
1.515682e+003,2.327556e+002
1.516646e+003,2.507477e+002
1.517611e+003,2.681191e+002
1.518575e+003,2.830638e+002
1.519539e+003,2.951813e+002
1.520503e+003,3.051245e+002
1.521468e+003,3.138312e+002
1.522432e+003,3.198951e+002
1.523396e+003,3.213724e+002
1.524360e+003,3.181005e+002
1.525325e+003,3.115209e+002
1.526289e+003,3.026758e+002
1.527253e+003,2.907147e+002
1.528217e+003,2.732672e+002
1.529182e+003,2.504568e+002
1.530146e+003,2.316580e+002
1.531110e+003,2.211684e+002
1.532074e+003,2.060325e+002
1.533039e+003,1.818019e+002
1.534003e+003,1.562062e+002
1.534967e+003,1.309858e+002
1.535931e+003,1.084315e+002
1.536896e+003,9.113208e+001
1.537860e+003,7.860718e+001
1.538824e+003,6.816852e+001
1.539788e+003,5.824786e+001
1.540752e+003,4.932678e+001
1.541717e+003,4.218359e+001
1.542681e+003,3.693469e+001
1.543645e+003,3.326819e+001
1.544609e+003,3.168329e+001
1.545573e+003,3.141425e+001
1.546538e+003,3.325946e+001
1.547502e+003,3.451532e+001
1.548466e+003,3.336328e+001
1.549430e+003,3.256055e+001
1.550395e+003,3.557239e+001
1.551359e+003,4.103314e+001
1.552323e+003,4.515479e+001
1.553287e+003,4.652765e+001
1.554252e+003,4.509753e+001
1.555216e+003,4.044128e+001
1.556180e+003,3.377197e+001
1.557144e+003,2.738635e+001
1.558109e+003,2.145685e+001
1.559073e+003,1.869910e+001
1.560037e+003,2.074896e+001
1.561001e+003,2.170959e+001
1.561966e+003,1.865332e+001
1.562930e+003,1.539636e+001
1.563894e+003,1.547906e+001
1.564858e+003,1.781079e+001
1.565823e+003,1.980762e+001
1.566787e+003,2.087665e+001
1.567751e+003,2.129419e+001
1.568715e+003,2.128772e+001
1.569679e+003,2.079584e+001
1.570644e+003,1.904590e+001
1.571608e+003,1.663605e+001
1.572572e+003,1.571277e+001
1.573536e+003,1.652856e+001
1.574500e+003,1.851648e+001
1.575465e+003,2.214783e+001
1.576429e+003,2.564172e+001
1.577393e+003,2.726611e+001
1.578357e+003,2.766382e+001
1.579322e+003,2.835431e+001
1.580286e+003,2.947412e+001
1.581250e+003,3.022961e+001
1.582214e+003,3.047382e+001
1.583179e+003,2.980646e+001
1.584143e+003,2.650128e+001
1.585107e+003,2.315320e+001
1.586071e+003,2.405725e+001
1.587036e+003,2.824701e+001
1.588000e+003,3.181982e+001
1.588964e+003,3.374512e+001
1.589928e+003,3.507599e+001
1.590893e+003,3.635083e+001
1.591857e+003,3.765973e+001
1.592821e+003,3.935803e+001
1.593785e+003,4.132611e+001
1.594750e+003,4.249432e+001
1.595714e+003,4.249988e+001
1.596678e+003,4.224780e+001
1.597642e+003,4.140869e+001
1.598606e+003,4.154852e+001
1.599571e+003,4.566309e+001
1.600535e+003,5.057526e+001
1.601499e+003,5.106506e+001
1.602463e+003,4.780377e+001
1.603427e+003,4.670477e+001
1.604392e+003,5.047974e+001
1.605356e+003,5.463074e+001
1.606320e+003,5.422028e+001
1.607284e+003,5.082172e+001
1.608249e+003,4.856061e+001
1.609213e+003,4.744159e+001
1.610177e+003,4.804559e+001
1.611141e+003,5.130975e+001
1.612106e+003,5.421838e+001
1.613070e+003,5.500421e+001
1.614034e+003,5.510706e+001
1.614998e+003,5.551636e+001
1.615963e+003,5.599548e+001
1.616927e+003,5.559552e+001
1.617891e+003,5.439780e+001
1.618855e+003,5.429697e+001
1.619820e+003,5.650598e+001
1.620784e+003,5.897430e+001
1.621748e+003,5.876657e+001
1.622712e+003,5.687637e+001
1.623677e+003,5.750641e+001
1.624641e+003,6.135095e+001
1.625605e+003,6.395212e+001
1.626569e+003,6.312454e+001
1.627533e+003,6.153766e+001
1.628498e+003,6.001428e+001
1.629462e+003,5.937296e+001
1.630426e+003,6.119400e+001
1.631390e+003,6.408478e+001
1.632354e+003,6.460101e+001
1.633319e+003,6.221121e+001
1.634283e+003,6.068948e+001
1.635247e+003,6.312939e+001
1.636211e+003,6.690344e+001
1.637176e+003,6.731223e+001
1.638140e+003,6.469162e+001
1.639104e+003,6.207349e+001
1.640068e+003,5.911359e+001
1.641033e+003,5.725894e+001
1.641997e+003,5.731442e+001
1.642961e+003,5.824142e+001
1.643925e+003,6.006427e+001
1.644890e+003,6.192511e+001
1.645854e+003,6.286636e+001
1.646818e+003,6.304379e+001
1.647782e+003,6.291522e+001
1.648747e+003,6.269293e+001
1.649711e+003,6.328738e+001
1.650675e+003,6.607297e+001
1.651639e+003,6.934216e+001
1.652604e+003,6.852124e+001
1.653568e+003,6.366959e+001
1.654532e+003,6.110916e+001
1.655496e+003,6.205054e+001
1.656460e+003,6.209619e+001
1.657425e+003,5.939218e+001
1.658389e+003,5.658322e+001
1.659353e+003,5.512103e+001
1.660317e+003,5.421857e+001
1.661281e+003,5.278055e+001
1.662246e+003,5.105301e+001
1.663210e+003,5.032825e+001
1.664174e+003,5.108105e+001
1.665138e+003,5.211990e+001
1.666103e+003,5.247916e+001
1.667067e+003,5.204782e+001
1.668031e+003,5.049176e+001
1.668995e+003,4.799371e+001
1.669960e+003,4.630057e+001
1.670924e+003,4.590738e+001
1.671888e+003,4.499243e+001
1.672852e+003,4.180591e+001
1.673817e+003,3.940988e+001
1.674781e+003,4.038528e+001
1.675745e+003,4.257147e+001
1.676709e+003,4.406189e+001
1.677674e+003,4.458377e+001
1.678638e+003,4.395511e+001
1.679602e+003,4.213666e+001
1.680566e+003,3.974646e+001
1.681531e+003,3.690945e+001
1.682495e+003,3.460190e+001
1.683459e+003,3.485425e+001
1.684423e+003,3.694452e+001
1.685387e+003,3.689761e+001
1.686352e+003,3.412875e+001
1.687316e+003,3.196173e+001
1.688280e+003,3.163501e+001
1.689244e+003,3.177219e+001
1.690208e+003,3.139139e+001
1.691173e+003,3.078741e+001
1.692137e+003,3.027197e+001
1.693101e+003,3.009589e+001
1.694065e+003,3.063162e+001
1.695030e+003,3.179709e+001
1.695994e+003,3.209174e+001
1.696958e+003,3.002789e+001
1.697922e+003,2.759708e+001
1.698887e+003,2.793155e+001
1.699851e+003,2.989203e+001
1.700815e+003,2.938190e+001
1.701779e+003,2.600558e+001
1.702744e+003,2.328311e+001
1.703708e+003,2.263440e+001
1.704672e+003,2.271796e+001
1.705636e+003,2.216544e+001
1.706601e+003,2.154227e+001
1.707565e+003,2.288208e+001
1.708529e+003,2.536108e+001
1.709493e+003,2.521970e+001
1.710458e+003,2.159396e+001
1.711422e+003,1.913489e+001
1.712386e+003,2.109436e+001
1.713350e+003,2.365738e+001
1.714314e+003,2.360391e+001
1.715279e+003,2.180774e+001
1.716243e+003,1.922116e+001
1.717207e+003,1.648221e+001
1.718171e+003,1.603238e+001
1.719135e+003,1.859207e+001
1.720100e+003,2.061444e+001
1.721064e+003,1.928378e+001
1.722028e+003,1.730206e+001
1.722992e+003,1.958783e+001
1.723957e+003,2.505212e+001
1.724921e+003,2.560223e+001
1.725885e+003,1.999777e+001
1.726849e+003,1.519531e+001
1.727814e+003,1.234341e+001
1.728778e+003,1.126648e+001
1.729742e+003,1.262189e+001
1.730706e+003,1.487836e+001
1.731671e+003,1.732483e+001
1.732635e+003,1.875455e+001
1.733599e+003,1.676877e+001
1.734563e+003,1.195486e+001
1.735528e+003,8.541992e+000
1.736492e+003,8.633545e+000
1.737456e+003,1.003891e+001
1.738420e+003,1.019714e+001
1.739385e+003,9.379791e+000
1.740349e+003,9.300934e+000
1.741313e+003,1.026056e+001
1.742277e+003,1.136371e+001
1.743241e+003,1.437683e+001
1.744206e+003,1.520514e+001
1.745170e+003,1.083203e+001
1.746134e+003,6.780670e+000
1.747098e+003,6.316681e+000
1.748063e+003,7.600769e+000
1.749027e+003,8.569275e+000
1.749991e+003,9.135529e+000
1.750955e+003,1.034595e+001
1.751919e+003,1.227896e+001
1.752884e+003,1.335370e+001
1.753848e+003,1.224747e+001
1.754812e+003,9.752869e+000
1.755776e+003,7.481781e+000
1.756741e+003,5.666595e+000
1.757705e+003,5.189270e+000
1.758669e+003,6.206177e+000
1.759633e+003,7.555786e+000
1.760598e+003,9.644043e+000
1.761562e+003,1.091739e+001
1.762526e+003,1.087201e+001
1.763490e+003,1.038052e+001
1.764455e+003,9.602875e+000
1.765419e+003,9.091980e+000
1.766383e+003,9.865662e+000
1.767347e+003,1.151779e+001
1.768312e+003,1.212012e+001
1.769276e+003,1.067932e+001
1.770240e+003,8.670349e+000
1.771204e+003,7.879181e+000
1.772168e+003,8.062012e+000
1.773133e+003,8.371155e+000
1.774097e+003,8.717621e+000
1.775061e+003,7.805267e+000
1.776025e+003,4.816315e+000
1.776990e+003,4.303894e+000
1.777954e+003,9.572540e+000
1.778918e+003,1.445059e+001
1.779882e+003,1.376355e+001
1.780846e+003,1.029312e+001
1.781811e+003,6.976715e+000
1.782775e+003,4.481781e+000
1.783739e+003,5.708954e+000
1.784703e+003,1.167188e+001
1.785668e+003,1.507928e+001
1.786632e+003,1.047842e+001
1.787596e+003,5.131195e+000
1.788560e+003,4.756927e+000
1.789525e+003,7.160339e+000
1.790489e+003,9.616547e+000
1.791453e+003,1.159232e+001
1.792417e+003,1.256668e+001
1.793382e+003,1.255219e+001
1.794346e+003,1.258676e+001
1.795310e+003,1.321219e+001
1.796274e+003,1.366550e+001
1.797239e+003,1.306201e+001
1.798203e+003,1.229001e+001
1.799167e+003,1.354205e+001
1.800131e+003,1.701071e+001
1.801095e+003,1.778043e+001
1.802060e+003,1.380484e+001
1.803024e+003,1.159933e+001
1.803988e+003,1.325949e+001
1.804952e+003,1.465057e+001
1.805917e+003,1.297226e+001
1.806881e+003,1.078860e+001
1.807845e+003,1.106671e+001
1.808809e+003,1.304837e+001
1.809773e+003,1.467505e+001
1.810738e+003,1.533179e+001
1.811702e+003,1.534384e+001
1.812666e+003,1.491647e+001
1.813630e+003,1.445276e+001
1.814595e+003,1.448764e+001
1.815559e+003,1.489035e+001
1.816523e+003,1.563757e+001
1.817487e+003,1.692880e+001
1.818452e+003,1.669727e+001
1.819416e+003,1.407269e+001
1.820380e+003,1.293683e+001
1.821344e+003,1.561710e+001
1.822309e+003,1.771591e+001
1.823273e+003,1.622208e+001
1.824237e+003,1.360049e+001
1.825201e+003,1.149127e+001
1.826166e+003,1.027173e+001
1.827130e+003,1.097305e+001
1.828094e+003,1.362097e+001
1.829058e+003,1.622946e+001
1.830022e+003,1.825537e+001
1.830987e+003,1.950760e+001
1.831951e+003,1.956015e+001
1.832915e+003,1.894525e+001
1.833879e+003,1.841751e+001
1.834844e+003,1.787338e+001
1.835808e+003,1.652271e+001
1.836772e+003,1.449118e+001
1.837736e+003,1.369012e+001
1.838700e+003,1.487985e+001
1.839665e+003,1.654144e+001
1.840629e+003,1.748660e+001
1.841593e+003,1.787137e+001
1.842557e+003,1.781873e+001
1.843522e+003,1.732031e+001
1.844486e+003,1.664459e+001
1.845450e+003,1.520352e+001
1.846414e+003,1.537103e+001
1.847379e+003,1.812448e+001
1.848343e+003,2.035629e+001
1.849307e+003,2.112842e+001
1.850271e+003,2.138089e+001
1.851236e+003,2.186441e+001
1.852200e+003,2.247751e+001
1.853164e+003,2.273895e+001
1.854128e+003,2.245490e+001
1.855093e+003,2.191302e+001
1.856057e+003,2.139954e+001
1.857021e+003,2.065237e+001
1.857985e+003,1.924725e+001
1.858949e+003,1.768869e+001
1.859914e+003,1.668762e+001
1.860878e+003,1.641824e+001
1.861842e+003,1.803943e+001
1.862806e+003,2.155115e+001
1.863771e+003,2.284018e+001
1.864735e+003,2.038721e+001
1.865699e+003,1.929001e+001
1.866663e+003,2.287277e+001
1.867627e+003,2.676181e+001
1.868592e+003,2.659650e+001
1.869556e+003,2.406091e+001
1.870520e+003,2.260965e+001
1.871484e+003,2.209534e+001
1.872449e+003,2.167346e+001
1.873413e+003,2.175479e+001
1.874377e+003,2.264166e+001
1.875341e+003,2.418759e+001
1.876306e+003,2.571976e+001
1.877270e+003,2.714343e+001
1.878234e+003,2.799841e+001
1.879198e+003,2.760876e+001
1.880163e+003,2.658673e+001
1.881127e+003,2.579074e+001
1.882091e+003,2.557858e+001
1.883055e+003,2.674667e+001
1.884020e+003,2.929413e+001
1.884984e+003,3.047690e+001
1.885948e+003,2.770651e+001
1.886912e+003,2.348248e+001
1.887876e+003,2.294937e+001
1.888841e+003,2.582101e+001
1.889805e+003,2.838190e+001
1.890769e+003,3.066748e+001
1.891733e+003,3.260120e+001
1.892698e+003,3.467139e+001
1.893662e+003,3.460175e+001
1.894626e+003,2.962643e+001
1.895590e+003,2.508270e+001
1.896554e+003,2.573077e+001
1.897519e+003,2.827606e+001
1.898483e+003,2.842786e+001
1.899447e+003,2.667313e+001
1.900411e+003,2.604169e+001
1.901376e+003,2.717761e+001
1.902340e+003,2.805835e+001
1.903304e+003,2.742889e+001
1.904268e+003,2.705408e+001
1.905233e+003,2.918665e+001
1.906197e+003,3.115961e+001
1.907161e+003,2.903537e+001
1.908125e+003,2.541873e+001
1.909090e+003,2.527252e+001
1.910054e+003,2.830219e+001
1.911018e+003,3.139606e+001
1.911982e+003,3.338763e+001
1.912947e+003,3.393951e+001
1.913911e+003,3.273776e+001
1.914875e+003,3.163779e+001
1.915839e+003,3.368350e+001
1.916803e+003,3.777618e+001
1.917768e+003,3.899841e+001
1.918732e+003,3.695224e+001
1.919696e+003,3.568665e+001
1.920660e+003,3.541745e+001
1.921625e+003,3.593823e+001
1.922589e+003,3.750772e+001
1.923553e+003,3.904254e+001
1.924517e+003,3.996878e+001
1.925481e+003,4.067499e+001
1.926446e+003,4.164575e+001
1.927410e+003,4.261502e+001
1.928374e+003,4.292471e+001
1.929338e+003,4.243973e+001
1.930303e+003,4.174591e+001
1.931267e+003,4.119632e+001
1.932231e+003,4.093094e+001
1.933195e+003,4.055869e+001
1.934160e+003,4.051044e+001
1.935124e+003,4.183441e+001
1.936088e+003,4.293954e+001
1.937052e+003,4.154376e+001
1.938017e+003,3.885318e+001
1.938981e+003,3.734720e+001
1.939945e+003,3.745175e+001
1.940909e+003,3.877917e+001
1.941874e+003,4.086661e+001
1.942838e+003,4.185324e+001
1.943802e+003,4.006992e+001
1.944766e+003,3.763147e+001
1.945730e+003,3.853619e+001
1.946695e+003,4.216357e+001
1.947659e+003,4.490222e+001
1.948623e+003,4.675937e+001
1.949587e+003,4.677625e+001
1.950552e+003,4.441672e+001
1.951516e+003,4.251263e+001
1.952480e+003,4.203711e+001
1.953444e+003,4.211069e+001
1.954408e+003,4.214673e+001
1.955373e+003,4.209488e+001
1.956337e+003,4.216150e+001
1.957301e+003,4.253482e+001
1.958265e+003,4.304330e+001
1.959230e+003,4.371268e+001
1.960194e+003,4.454706e+001
1.961158e+003,4.545102e+001
1.962122e+003,4.589682e+001
1.963087e+003,4.588028e+001
1.964051e+003,4.533344e+001
1.965015e+003,4.293994e+001
1.965979e+003,4.154248e+001
1.966944e+003,4.539908e+001
1.967908e+003,5.132092e+001
1.968872e+003,5.305075e+001
1.969836e+003,5.051370e+001
1.970801e+003,4.850089e+001
1.971765e+003,4.906805e+001
1.972729e+003,5.010782e+001
1.973693e+003,4.983255e+001
1.974657e+003,4.898843e+001
1.975622e+003,4.814517e+001
1.976586e+003,4.764789e+001
1.977550e+003,4.935214e+001
1.978514e+003,5.273727e+001
1.979479e+003,5.399301e+001
1.980443e+003,5.266022e+001
1.981407e+003,5.209961e+001
1.982371e+003,5.369357e+001
1.983335e+003,5.543604e+001
1.984300e+003,5.570258e+001
1.985264e+003,5.504739e+001
1.986228e+003,5.441101e+001
1.987192e+003,5.379895e+001
1.988157e+003,5.322318e+001
1.989121e+003,5.256076e+001
1.990085e+003,5.319363e+001
1.991049e+003,5.701569e+001
1.992014e+003,5.854041e+001
1.992978e+003,5.362585e+001
1.993942e+003,5.086407e+001
1.994906e+003,5.610617e+001
1.995871e+003,6.153174e+001
1.996835e+003,6.054037e+001
1.997799e+003,5.676291e+001
1.998763e+003,5.531760e+001
1.999728e+003,5.617715e+001
