5.003444e+002,2.308252e+002
5.013087e+002,2.354432e+002
5.022729e+002,2.358031e+002
5.032371e+002,2.322405e+002
5.042014e+002,2.282456e+002
5.051656e+002,2.230317e+002
5.061298e+002,2.182085e+002
5.070941e+002,2.157889e+002
5.080583e+002,2.170267e+002
5.090225e+002,2.160564e+002
5.099868e+002,2.109821e+002
5.109510e+002,2.044949e+002
5.119152e+002,1.978442e+002
5.128795e+002,1.915802e+002
5.138437e+002,1.876221e+002
5.148079e+002,1.904579e+002
5.157722e+002,1.951698e+002
5.167364e+002,1.975985e+002
5.177006e+002,1.957488e+002
5.186649e+002,1.900674e+002
5.196291e+002,1.818333e+002
5.205933e+002,1.721245e+002
5.215576e+002,1.667172e+002
5.225218e+002,1.676230e+002
5.234860e+002,1.725662e+002
5.244503e+002,1.743148e+002
5.254145e+002,1.715930e+002
5.263787e+002,1.692235e+002
5.273430e+002,1.674263e+002
5.283072e+002,1.660842e+002
5.292714e+002,1.646598e+002
5.302357e+002,1.617941e+002
5.311999e+002,1.591852e+002
5.321641e+002,1.607179e+002
5.331284e+002,1.635804e+002
5.340926e+002,1.634137e+002
5.350568e+002,1.564811e+002
5.360211e+002,1.445945e+002
5.369853e+002,1.358134e+002
5.379495e+002,1.301581e+002
5.389138e+002,1.263463e+002
5.398780e+002,1.232578e+002
5.408422e+002,1.206810e+002
5.418065e+002,1.216429e+002
5.427707e+002,1.306095e+002
5.437349e+002,1.369706e+002
5.446992e+002,1.362748e+002
5.456634e+002,1.293828e+002
5.466276e+002,1.226005e+002
5.475919e+002,1.183774e+002
5.485561e+002,1.151318e+002
5.495203e+002,1.118639e+002
5.504846e+002,1.086436e+002
5.514488e+002,1.064670e+002
5.524130e+002,1.073832e+002
5.533773e+002,1.094021e+002
5.543415e+002,1.078904e+002
5.553057e+002,1.034685e+002
5.562700e+002,9.815747e+001
5.572342e+002,9.394434e+001
5.581984e+002,9.052136e+001
5.591627e+002,8.859009e+001
5.601269e+002,8.962207e+001
5.610911e+002,9.128589e+001
5.620554e+002,9.226575e+001
5.630196e+002,9.224451e+001
5.639838e+002,9.007544e+001
5.649481e+002,8.339636e+001
5.659123e+002,7.702808e+001
5.668765e+002,7.359985e+001
5.678408e+002,7.338733e+001
5.688050e+002,7.448242e+001
5.697692e+002,7.441846e+001
5.707335e+002,7.294763e+001
5.716977e+002,7.115771e+001
5.726619e+002,6.959436e+001
5.736262e+002,6.845154e+001
5.745904e+002,6.759888e+001
5.755546e+002,6.698376e+001
5.765189e+002,6.513281e+001
5.774831e+002,6.077612e+001
5.784473e+002,5.605554e+001
5.794116e+002,5.364868e+001
5.803758e+002,5.502490e+001
5.813400e+002,5.560022e+001
5.823043e+002,5.353467e+001
5.832685e+002,5.061243e+001
5.842327e+002,4.763025e+001
5.851970e+002,4.541162e+001
5.861612e+002,4.528601e+001
5.871254e+002,4.923462e+001
5.880897e+002,5.367456e+001
5.890539e+002,5.788953e+001
5.900181e+002,6.083691e+001
5.909824e+002,6.058069e+001
5.919466e+002,5.389075e+001
5.929108e+002,4.180737e+001
5.938751e+002,3.602271e+001
5.948393e+002,3.748157e+001
5.958035e+002,4.154846e+001
5.967678e+002,4.287573e+001
5.977320e+002,4.020825e+001
5.986962e+002,3.968127e+001
5.996605e+002,4.078748e+001
6.006247e+002,4.210852e+001
6.015889e+002,4.330432e+001
6.025532e+002,4.437292e+001
6.035174e+002,4.481604e+001
6.044816e+002,4.434680e+001
6.054459e+002,4.320557e+001
6.064101e+002,4.085486e+001
6.073743e+002,3.764380e+001
6.083386e+002,3.458142e+001
6.093028e+002,3.310767e+001
6.102670e+002,3.329456e+001
6.112313e+002,3.318665e+001
6.121955e+002,3.255896e+001
6.131597e+002,3.219556e+001
6.141240e+002,3.310693e+001
6.150882e+002,3.558765e+001
6.160524e+002,3.783301e+001
6.170167e+002,4.148328e+001
6.179809e+002,4.418884e+001
6.189451e+002,4.370276e+001
6.199094e+002,3.963123e+001
6.208736e+002,3.539233e+001
6.218378e+002,3.385388e+001
6.228021e+002,3.305798e+001
6.237663e+002,3.229651e+001
6.247305e+002,3.146594e+001
6.256948e+002,3.075464e+001
6.266590e+002,3.029932e+001
6.276232e+002,2.910608e+001
6.285875e+002,2.590967e+001
6.295517e+002,2.157007e+001
6.305159e+002,1.872839e+001
6.314802e+002,1.984216e+001
6.324444e+002,2.518494e+001
6.334086e+002,2.750378e+001
6.343729e+002,2.739221e+001
6.353371e+002,2.643555e+001
6.363013e+002,2.428967e+001
6.372656e+002,2.096216e+001
6.382298e+002,1.846875e+001
6.391940e+002,1.990979e+001
6.401583e+002,1.946338e+001
6.411225e+002,1.400403e+001
6.420867e+002,6.517822e+000
6.430510e+002,1.812378e+000
6.440152e+002,3.497803e+000
6.449794e+002,8.010132e+000
6.459437e+002,9.786865e+000
6.469079e+002,9.570068e+000
6.478721e+002,9.291138e+000
6.488364e+002,1.061633e+001
6.498006e+002,1.368237e+001
6.507648e+002,1.279956e+001
6.517291e+002,3.525757e+000
6.526933e+002,-2.826782e+000
6.536575e+002,-1.557739e+000
6.546218e+002,4.885254e+000
6.555860e+002,8.612915e+000
6.565502e+002,6.512085e+000
6.575145e+002,3.091431e+000
6.584787e+002,-2.578003e+000
6.594429e+002,-7.546387e+000
6.604072e+002,-7.767212e+000
6.613714e+002,-7.763672e-001
6.623356e+002,8.139648e+000
6.632999e+002,9.634033e+000
6.642641e+002,6.895630e+000
6.652283e+002,5.173218e+000
6.661926e+002,7.064087e+000
6.671568e+002,1.135925e+001
6.681210e+002,1.185669e+001
6.690853e+002,4.659058e+000
6.700495e+002,3.081055e-001
6.710137e+002,1.200073e+000
6.719780e+002,4.611572e+000
6.729422e+002,6.327515e+000
6.739064e+002,4.742920e+000
6.748707e+002,3.435425e+000
6.758349e+002,4.122314e+000
6.767991e+002,4.780396e+000
6.777634e+002,4.409790e+000
6.787276e+002,3.072876e+000
6.796918e+002,1.707153e+000
6.806561e+002,-5.653076e-001
6.816203e+002,-2.789551e+000
6.825845e+002,-1.945068e+000
6.835488e+002,2.099487e+000
6.845130e+002,7.002075e+000
6.854772e+002,9.146851e+000
6.864415e+002,8.533325e+000
6.874057e+002,7.962036e+000
6.883699e+002,5.078003e+000
6.893342e+002,2.157471e+000
6.902984e+002,1.901123e+000
6.912626e+002,4.970581e+000
6.922269e+002,5.946167e+000
6.931911e+002,1.658081e+000
6.941553e+002,-1.734863e+000
6.951196e+002,-3.052612e+000
6.960838e+002,-2.698975e+000
6.970480e+002,-1.507568e+000
6.980123e+002,5.228271e-001
6.989765e+002,3.431396e+000
6.999407e+002,6.946289e+000
7.009050e+002,1.028186e+001
7.018692e+002,1.176111e+001
7.028334e+002,1.011438e+001
7.037977e+002,5.481445e+000
7.047619e+002,1.406860e+000
7.057261e+002,-1.413940e+000
7.066904e+002,-3.198242e+000
7.076546e+002,-3.878784e+000
7.086188e+002,-3.596313e+000
7.095831e+002,-2.617798e+000
7.105473e+002,-8.944092e-001
7.115115e+002,4.129639e-001
7.124758e+002,1.120728e+000
7.134400e+002,1.052124e+000
7.144042e+002,1.512451e-001
7.153685e+002,-1.376465e+000
7.163327e+002,-2.935547e+000
7.172969e+002,-3.974854e+000
7.182612e+002,-4.389282e+000
7.192254e+002,-4.383301e+000
7.201896e+002,-4.380371e+000
7.211539e+002,-4.438843e+000
7.221181e+002,-3.964111e+000
7.230823e+002,-1.693237e+000
7.240466e+002,-2.032593e+000
7.250108e+002,-6.701050e+000
7.259750e+002,-1.093860e+001
7.269393e+002,-1.211853e+001
7.279035e+002,-1.080786e+001
7.288677e+002,-8.933716e+000
7.298320e+002,-3.396606e+000
7.307962e+002,1.982544e+000
7.317604e+002,5.769531e+000
7.327247e+002,7.783691e+000
7.336889e+002,7.682129e+000
7.346531e+002,4.121338e+000
7.356174e+002,-2.163452e+000
7.365816e+002,-5.050537e+000
7.375458e+002,-4.070801e+000
7.385101e+002,-2.157715e+000
7.394743e+002,-1.446899e+000
7.404385e+002,-1.852539e+000
7.414028e+002,-1.062500e+000
7.423670e+002,6.469727e-003
7.433312e+002,-2.727051e-001
7.442955e+002,-1.159546e+000
7.452597e+002,-1.653076e+000
7.462239e+002,-9.626465e-001
7.471882e+002,1.124878e+000
7.481524e+002,2.855591e+000
7.491166e+002,1.504517e+000
7.500809e+002,-6.331787e-001
7.510451e+002,-1.111572e+000
7.520093e+002,4.692383e-001
7.529736e+002,2.114746e+000
7.539378e+002,1.003906e+000
7.549020e+002,-8.502197e-001
7.558663e+002,2.360840e-001
7.568306e+002,4.387695e+000
7.577948e+002,8.605225e+000
7.587590e+002,8.807983e+000
7.597233e+002,2.814453e+000
7.606875e+002,1.613770e-001
7.616517e+002,4.284302e+000
7.626160e+002,8.433105e+000
7.635802e+002,1.039233e+001
7.645444e+002,1.070862e+001
7.655087e+002,1.127222e+001
7.664729e+002,1.291650e+001
7.674371e+002,1.431982e+001
7.684014e+002,1.425354e+001
7.693656e+002,1.367017e+001
7.703298e+002,1.424329e+001
7.712941e+002,1.678369e+001
7.722583e+002,2.002136e+001
7.732225e+002,1.975867e+001
7.741868e+002,1.636926e+001
7.751510e+002,1.466382e+001
7.761152e+002,1.601892e+001
7.770795e+002,1.923132e+001
7.780437e+002,2.226672e+001
7.790079e+002,2.506152e+001
7.799722e+002,2.591870e+001
7.809364e+002,2.463123e+001
7.819006e+002,2.235596e+001
7.828649e+002,1.911047e+001
7.838291e+002,1.578577e+001
7.847933e+002,1.481689e+001
7.857576e+002,1.914282e+001
7.867218e+002,2.292920e+001
7.876860e+002,2.163464e+001
7.886503e+002,1.764722e+001
7.896145e+002,1.503479e+001
7.905787e+002,1.652161e+001
7.915430e+002,2.107910e+001
7.925072e+002,2.322034e+001
7.934714e+002,2.125586e+001
7.944357e+002,1.914368e+001
7.953999e+002,1.952759e+001
7.963641e+002,2.147961e+001
7.973284e+002,2.156299e+001
7.982926e+002,1.733826e+001
7.992568e+002,1.650891e+001
8.002211e+002,2.159094e+001
8.011853e+002,2.652588e+001
8.021495e+002,2.864807e+001
8.031138e+002,2.848450e+001
8.040780e+002,2.861194e+001
8.050422e+002,3.015112e+001
8.060065e+002,3.082031e+001
8.069707e+002,2.863318e+001
8.079349e+002,2.428516e+001
8.088992e+002,2.014294e+001
8.098634e+002,1.832751e+001
8.108276e+002,1.912158e+001
8.117919e+002,2.066870e+001
8.127561e+002,2.235901e+001
8.137203e+002,2.262463e+001
8.146846e+002,2.194641e+001
8.156488e+002,2.113367e+001
8.166130e+002,2.063794e+001
8.175773e+002,2.015833e+001
8.185415e+002,2.012793e+001
8.195057e+002,2.012671e+001
8.204700e+002,1.996899e+001
8.214342e+002,1.942346e+001
8.223984e+002,1.871875e+001
8.233627e+002,1.864136e+001
8.243269e+002,2.034009e+001
8.252911e+002,2.351868e+001
8.262554e+002,2.604028e+001
8.272196e+002,2.782288e+001
8.281838e+002,2.918079e+001
8.291481e+002,3.044592e+001
8.301123e+002,3.151062e+001
8.310765e+002,3.097522e+001
8.320408e+002,2.627966e+001
8.330050e+002,2.243616e+001
8.339692e+002,2.112158e+001
8.349335e+002,2.081458e+001
8.358977e+002,1.927686e+001
8.368619e+002,1.582129e+001
8.378262e+002,1.369373e+001
8.387904e+002,1.507349e+001
8.397546e+002,1.752148e+001
8.407189e+002,1.982153e+001
8.416831e+002,2.195422e+001
8.426473e+002,2.465784e+001
8.436116e+002,2.869922e+001
8.445758e+002,3.392102e+001
8.455400e+002,3.709192e+001
8.465043e+002,3.678979e+001
8.474685e+002,3.508630e+001
8.484327e+002,3.376270e+001
8.493970e+002,3.371826e+001
8.503612e+002,3.518152e+001
8.513254e+002,3.934656e+001
8.522897e+002,4.157849e+001
8.532539e+002,3.900171e+001
8.542181e+002,3.536047e+001
8.551824e+002,3.453125e+001
8.561466e+002,3.799731e+001
8.571108e+002,4.387964e+001
8.580751e+002,5.017395e+001
8.590393e+002,5.466553e+001
8.600035e+002,5.569519e+001
8.609678e+002,5.448010e+001
8.619320e+002,5.424866e+001
8.628962e+002,5.781726e+001
8.638605e+002,6.498596e+001
8.648247e+002,7.048047e+001
8.657889e+002,7.443835e+001
8.667532e+002,7.648792e+001
8.677174e+002,7.523059e+001
8.686816e+002,7.239111e+001
8.696459e+002,7.089746e+001
8.706101e+002,7.175024e+001
8.715743e+002,7.418616e+001
8.725386e+002,7.903760e+001
8.735028e+002,8.388477e+001
8.744670e+002,8.609094e+001
8.754313e+002,8.563379e+001
8.763955e+002,8.494910e+001
8.773597e+002,8.707532e+001
8.783240e+002,9.163342e+001
8.792882e+002,9.407861e+001
8.802524e+002,9.411658e+001
8.812167e+002,9.444629e+001
8.821809e+002,9.687097e+001
8.831451e+002,1.008535e+002
8.841094e+002,1.037109e+002
8.850736e+002,1.052153e+002
8.860378e+002,1.077745e+002
8.870021e+002,1.112052e+002
8.879663e+002,1.151630e+002
8.889305e+002,1.195332e+002
8.898948e+002,1.239727e+002
8.908590e+002,1.275227e+002
8.918232e+002,1.294995e+002
8.927875e+002,1.316663e+002
8.937517e+002,1.355527e+002
8.947159e+002,1.403497e+002
8.956802e+002,1.438947e+002
8.966444e+002,1.443948e+002
8.976086e+002,1.421500e+002
8.985729e+002,1.415449e+002
8.995371e+002,1.453254e+002
9.005013e+002,1.480652e+002
9.014656e+002,1.496208e+002
9.024298e+002,1.507572e+002
9.033940e+002,1.514642e+002
9.043583e+002,1.509774e+002
9.053225e+002,1.500984e+002
9.062867e+002,1.467393e+002
9.072510e+002,1.447975e+002
9.082152e+002,1.488248e+002
9.091794e+002,1.564026e+002
9.101437e+002,1.621541e+002
9.111079e+002,1.623424e+002
9.120721e+002,1.595493e+002
9.130364e+002,1.611697e+002
9.140006e+002,1.649222e+002
9.149648e+002,1.642255e+002
9.159291e+002,1.575397e+002
9.168933e+002,1.496266e+002
9.178575e+002,1.468226e+002
9.188218e+002,1.498859e+002
9.197860e+002,1.519467e+002
9.207502e+002,1.531101e+002
9.217145e+002,1.526084e+002
9.226787e+002,1.498027e+002
9.236429e+002,1.464042e+002
9.246072e+002,1.451759e+002
9.255714e+002,1.473080e+002
9.265356e+002,1.488416e+002
9.274999e+002,1.450272e+002
9.284641e+002,1.386191e+002
9.294283e+002,1.327164e+002
9.303926e+002,1.285050e+002
9.313568e+002,1.251931e+002
9.323210e+002,1.210773e+002
9.332853e+002,1.154009e+002
9.342495e+002,1.130823e+002
9.352137e+002,1.163989e+002
9.361780e+002,1.184901e+002
9.371422e+002,1.177448e+002
9.381064e+002,1.151937e+002
9.390707e+002,1.112932e+002
9.400349e+002,1.037614e+002
9.409991e+002,9.905164e+001
9.419634e+002,1.034993e+002
9.429276e+002,1.085592e+002
9.438918e+002,1.071907e+002
9.448561e+002,1.002677e+002
9.458203e+002,9.448230e+001
9.467845e+002,9.621155e+001
9.477488e+002,1.033726e+002
9.487130e+002,1.066438e+002
9.496772e+002,1.063588e+002
9.506415e+002,1.054003e+002
9.516057e+002,1.043148e+002
9.525699e+002,1.033878e+002
9.535342e+002,1.036732e+002
9.544984e+002,1.059622e+002
9.554626e+002,1.060972e+002
9.564269e+002,1.042798e+002
9.573911e+002,1.020442e+002
9.583553e+002,9.836438e+001
9.593196e+002,9.438599e+001
9.602838e+002,9.352173e+001
9.612480e+002,9.850891e+001
9.622123e+002,1.048136e+002
9.631765e+002,1.055227e+002
9.641407e+002,1.028612e+002
9.651050e+002,1.003682e+002
9.660692e+002,9.903052e+001
9.670334e+002,9.796484e+001
9.679977e+002,9.604907e+001
9.689619e+002,9.359619e+001
9.699261e+002,9.395264e+001
9.708904e+002,9.554504e+001
9.718546e+002,9.948401e+001
9.728188e+002,1.055917e+002
9.737831e+002,1.138777e+002
9.747473e+002,1.259523e+002
9.757115e+002,1.439698e+002
9.766758e+002,1.601774e+002
9.776400e+002,1.702166e+002
9.786042e+002,1.759846e+002
9.795685e+002,1.786647e+002
9.805327e+002,1.773282e+002
9.814969e+002,1.690288e+002
9.824612e+002,1.514805e+002
9.834254e+002,1.277565e+002
9.843896e+002,1.108672e+002
9.853539e+002,9.956055e+001
9.863181e+002,9.043298e+001
9.872823e+002,8.287927e+001
9.882466e+002,7.647400e+001
9.892108e+002,7.142212e+001
9.901750e+002,6.873950e+001
9.911393e+002,6.844202e+001
9.921035e+002,6.990588e+001
9.930677e+002,7.120752e+001
9.940320e+002,7.232837e+001
9.949962e+002,7.415259e+001
9.959604e+002,7.753369e+001
9.969247e+002,8.269678e+001
9.978889e+002,8.920825e+001
9.988531e+002,9.709949e+001
9.998174e+002,1.046012e+002
1.000782e+003,1.077915e+002
1.001746e+003,1.064468e+002
1.002710e+003,1.040076e+002
1.003674e+003,1.033855e+002
1.004639e+003,1.045493e+002
1.005603e+003,1.054673e+002
1.006567e+003,1.041323e+002
1.007531e+003,1.046306e+002
1.008495e+003,1.110088e+002
1.009460e+003,1.172977e+002
1.010424e+003,1.167789e+002
1.011388e+003,1.093120e+002
1.012352e+003,1.024979e+002
1.013317e+003,1.029651e+002
1.014281e+003,1.065419e+002
1.015245e+003,1.073176e+002
1.016209e+003,1.047996e+002
1.017174e+003,9.779089e+001
1.018138e+003,8.561157e+001
1.019102e+003,7.127209e+001
1.020066e+003,6.231519e+001
1.021031e+003,6.257080e+001
1.021995e+003,6.118762e+001
1.022959e+003,5.583618e+001
1.023923e+003,4.991553e+001
1.024887e+003,4.548462e+001
1.025852e+003,4.164050e+001
1.026816e+003,3.559058e+001
1.027780e+003,2.585059e+001
1.028744e+003,1.740271e+001
1.029709e+003,1.499573e+001
1.030673e+003,1.512683e+001
1.031637e+003,1.436597e+001
1.032601e+003,1.222620e+001
1.033566e+003,1.096008e+001
1.034530e+003,1.335388e+001
1.035494e+003,1.927942e+001
1.036458e+003,2.040967e+001
1.037422e+003,1.191614e+001
1.038387e+003,6.662964e+000
1.039351e+003,7.906738e+000
1.040315e+003,1.170862e+001
1.041279e+003,1.460730e+001
1.042244e+003,1.650415e+001
1.043208e+003,1.727002e+001
1.044172e+003,1.505688e+001
1.045136e+003,1.278979e+001
1.046101e+003,1.246155e+001
1.047065e+003,1.349756e+001
1.048029e+003,1.504919e+001
1.048993e+003,1.659241e+001
1.049958e+003,1.792407e+001
1.050922e+003,1.890002e+001
1.051886e+003,1.980420e+001
1.052850e+003,2.133203e+001
1.053814e+003,2.434460e+001
1.054779e+003,2.637219e+001
1.055743e+003,2.445801e+001
1.056707e+003,2.037158e+001
1.057671e+003,1.968396e+001
1.058636e+003,2.444556e+001
1.059600e+003,2.759338e+001
1.060564e+003,2.662061e+001
1.061528e+003,2.469482e+001
1.062493e+003,2.200220e+001
1.063457e+003,1.906360e+001
1.064421e+003,1.724854e+001
1.065385e+003,1.762549e+001
1.066349e+003,1.930774e+001
1.067314e+003,2.042883e+001
1.068278e+003,2.123535e+001
1.069242e+003,2.119617e+001
1.070206e+003,1.988818e+001
1.071171e+003,1.867542e+001
1.072135e+003,1.838916e+001
1.073099e+003,1.864673e+001
1.074063e+003,1.889978e+001
1.075028e+003,1.878870e+001
1.075992e+003,1.994470e+001
1.076956e+003,2.462158e+001
1.077920e+003,2.824487e+001
1.078885e+003,2.688855e+001
1.079849e+003,2.168933e+001
1.080813e+003,1.737244e+001
1.081777e+003,1.735449e+001
1.082741e+003,1.974646e+001
1.083706e+003,1.933838e+001
1.084670e+003,1.618494e+001
1.085634e+003,1.306848e+001
1.086598e+003,1.068298e+001
1.087563e+003,8.832886e+000
1.088527e+003,7.808594e+000
1.089491e+003,8.451172e+000
1.090455e+003,9.934204e+000
1.091420e+003,1.195740e+001
1.092384e+003,1.346411e+001
1.093348e+003,1.380347e+001
1.094312e+003,1.346912e+001
1.095276e+003,1.357556e+001
1.096241e+003,1.442346e+001
1.097205e+003,1.481543e+001
1.098169e+003,1.302417e+001
1.099133e+003,1.006067e+001
1.100098e+003,9.178101e+000
1.101062e+003,1.031116e+001
1.102026e+003,1.192432e+001
1.102990e+003,1.341968e+001
1.103955e+003,1.535999e+001
1.104919e+003,1.901770e+001
1.105883e+003,2.487048e+001
1.106847e+003,2.801587e+001
1.107812e+003,2.618628e+001
1.108776e+003,2.380103e+001
1.109740e+003,2.121924e+001
1.110704e+003,1.886694e+001
1.111668e+003,1.785925e+001
1.112633e+003,1.851208e+001
1.113597e+003,1.896851e+001
1.114561e+003,1.620239e+001
1.115525e+003,1.274194e+001
1.116490e+003,1.582068e+001
1.117454e+003,2.359106e+001
1.118418e+003,2.866882e+001
1.119382e+003,2.806812e+001
1.120347e+003,2.567493e+001
1.121311e+003,2.745447e+001
1.122275e+003,3.336377e+001
1.123239e+003,3.691431e+001
1.124203e+003,3.851514e+001
1.125168e+003,3.970544e+001
1.126132e+003,4.015808e+001
1.127096e+003,4.094458e+001
1.128060e+003,4.325415e+001
1.129025e+003,4.685754e+001
1.129989e+003,4.967529e+001
1.130953e+003,4.943750e+001
1.131917e+003,4.865991e+001
1.132882e+003,5.219458e+001
1.133846e+003,5.877588e+001
1.134810e+003,6.442773e+001
1.135774e+003,6.766394e+001
1.136739e+003,7.020166e+001
1.137703e+003,7.448633e+001
1.138667e+003,8.039124e+001
1.139631e+003,8.683752e+001
1.140595e+003,9.271851e+001
1.141560e+003,1.004437e+002
1.142524e+003,1.116464e+002
1.143488e+003,1.249120e+002
1.144452e+003,1.379761e+002
1.145417e+003,1.508293e+002
1.146381e+003,1.661957e+002
1.147345e+003,1.862272e+002
1.148309e+003,2.088455e+002
1.149274e+003,2.325320e+002
1.150238e+003,2.571606e+002
1.151202e+003,2.818833e+002
1.152166e+003,3.067390e+002
1.153130e+003,3.318551e+002
1.154095e+003,3.573733e+002
1.155059e+003,3.821760e+002
1.156023e+003,3.992914e+002
1.156987e+003,4.101118e+002
1.157952e+003,4.130098e+002
1.158916e+003,4.064546e+002
1.159880e+003,3.952378e+002
1.160844e+003,3.824137e+002
1.161809e+003,3.666150e+002
1.162773e+003,3.433080e+002
1.163737e+003,3.089866e+002
1.164701e+003,2.712086e+002
1.165666e+003,2.384811e+002
1.166630e+003,2.108706e+002
1.167594e+003,1.895537e+002
1.168558e+003,1.745624e+002
1.169522e+003,1.642085e+002
1.170487e+003,1.576390e+002
1.171451e+003,1.545065e+002
1.172415e+003,1.508513e+002
1.173379e+003,1.444739e+002
1.174344e+003,1.408151e+002
1.175308e+003,1.439409e+002
1.176272e+003,1.465306e+002
1.177236e+003,1.445813e+002
1.178201e+003,1.389908e+002
1.179165e+003,1.320305e+002
1.180129e+003,1.242704e+002
1.181093e+003,1.153608e+002
1.182057e+003,1.044692e+002
1.183022e+003,9.325330e+001
1.183986e+003,8.426306e+001
1.184950e+003,7.771265e+001
1.185914e+003,7.404736e+001
1.186879e+003,7.383740e+001
1.187843e+003,7.668591e+001
1.188807e+003,8.180273e+001
1.189771e+003,9.015344e+001
1.190736e+003,9.507263e+001
1.191700e+003,9.416809e+001
1.192664e+003,9.192981e+001
1.193628e+003,8.920251e+001
1.194593e+003,8.673682e+001
1.195557e+003,8.573083e+001
1.196521e+003,8.583252e+001
1.197485e+003,8.427893e+001
1.198449e+003,7.863916e+001
1.199414e+003,7.044836e+001
1.200378e+003,6.216089e+001
1.201342e+003,5.394348e+001
1.202306e+003,4.825574e+001
1.203271e+003,4.600671e+001
1.204235e+003,4.534607e+001
1.205199e+003,4.517346e+001
1.206163e+003,4.552856e+001
1.207128e+003,4.333972e+001
1.208092e+003,3.769653e+001
1.209056e+003,3.077502e+001
1.210020e+003,2.166443e+001
1.210984e+003,1.294727e+001
1.211949e+003,7.260010e+000
1.212913e+003,3.429688e+000
1.213877e+003,-2.064209e+000
1.214841e+003,-1.105981e+001
1.215806e+003,-2.104639e+001
1.216770e+003,-2.848364e+001
1.217734e+003,-3.333691e+001
1.218698e+003,-3.729138e+001
1.219663e+003,-4.083191e+001
1.220627e+003,-4.351294e+001
1.221591e+003,-4.380347e+001
1.222555e+003,-4.331677e+001
1.223520e+003,-4.600891e+001
1.224484e+003,-5.246582e+001
1.225448e+003,-5.672351e+001
1.226412e+003,-5.507715e+001
1.227376e+003,-5.323914e+001
1.228341e+003,-5.455115e+001
1.229305e+003,-5.699683e+001
1.230269e+003,-5.707129e+001
1.231233e+003,-5.459058e+001
1.232198e+003,-5.319128e+001
1.233162e+003,-5.640710e+001
1.234126e+003,-6.235510e+001
1.235090e+003,-6.443945e+001
1.236055e+003,-6.284949e+001
1.237019e+003,-6.069910e+001
1.237983e+003,-5.691357e+001
1.238947e+003,-5.423242e+001
1.239911e+003,-5.468018e+001
1.240876e+003,-5.721228e+001
1.241840e+003,-5.960205e+001
1.242804e+003,-6.163696e+001
1.243768e+003,-6.218884e+001
1.244733e+003,-5.900891e+001
1.245697e+003,-5.554126e+001
1.246661e+003,-5.477637e+001
1.247625e+003,-5.600037e+001
1.248590e+003,-5.662085e+001
1.249554e+003,-5.512183e+001
1.250518e+003,-5.250391e+001
1.251482e+003,-5.115967e+001
1.252447e+003,-5.197302e+001
1.253411e+003,-5.277209e+001
1.254375e+003,-5.451208e+001
1.255339e+003,-5.294702e+001
1.256303e+003,-4.467554e+001
1.257268e+003,-3.511548e+001
1.258232e+003,-2.921692e+001
1.259196e+003,-2.701868e+001
1.260160e+003,-2.544702e+001
1.261125e+003,-2.279529e+001
1.262089e+003,-2.026294e+001
1.263053e+003,-2.125012e+001
1.264017e+003,-2.323792e+001
1.264982e+003,-2.133960e+001
1.265946e+003,-1.559802e+001
1.266910e+003,-1.037708e+001
1.267874e+003,-8.479980e+000
1.268839e+003,-9.029297e+000
1.269803e+003,-9.579590e+000
1.270767e+003,-9.342285e+000
1.271731e+003,-1.121045e+001
1.272695e+003,-1.831152e+001
1.273660e+003,-2.345215e+001
1.274624e+003,-2.450049e+001
1.275588e+003,-2.477942e+001
1.276552e+003,-2.708728e+001
1.277517e+003,-3.085962e+001
1.278481e+003,-3.345605e+001
1.279445e+003,-3.352490e+001
1.280409e+003,-3.299890e+001
1.281374e+003,-3.482471e+001
1.282338e+003,-3.821448e+001
1.283302e+003,-4.048926e+001
1.284266e+003,-4.159631e+001
1.285230e+003,-4.237402e+001
1.286195e+003,-4.280688e+001
1.287159e+003,-4.355225e+001
1.288123e+003,-4.607117e+001
1.289087e+003,-5.020801e+001
1.290052e+003,-5.251746e+001
1.291016e+003,-5.111865e+001
1.291980e+003,-5.042297e+001
1.292944e+003,-5.373779e+001
1.293909e+003,-5.798083e+001
1.294873e+003,-5.903430e+001
1.295837e+003,-5.678589e+001
1.296801e+003,-5.425842e+001
1.297766e+003,-5.385291e+001
1.298730e+003,-5.489441e+001
1.299694e+003,-5.585950e+001
1.300658e+003,-5.746130e+001
1.301622e+003,-5.763306e+001
1.302587e+003,-5.427502e+001
1.303551e+003,-5.161902e+001
1.304515e+003,-5.168030e+001
1.305479e+003,-5.235657e+001
1.306444e+003,-5.120374e+001
1.307408e+003,-4.842590e+001
1.308372e+003,-4.587976e+001
1.309336e+003,-4.396179e+001
1.310301e+003,-4.309827e+001
1.311265e+003,-4.516077e+001
1.312229e+003,-4.728101e+001
1.313193e+003,-4.459998e+001
1.314157e+003,-3.789026e+001
1.315122e+003,-3.399780e+001
1.316086e+003,-3.810352e+001
1.317050e+003,-4.719226e+001
1.318014e+003,-5.311597e+001
1.318979e+003,-5.444006e+001
1.319943e+003,-5.428784e+001
1.320907e+003,-5.170959e+001
1.321871e+003,-4.891321e+001
1.322836e+003,-4.687537e+001
1.323800e+003,-4.525635e+001
1.324764e+003,-4.318250e+001
1.325728e+003,-4.110986e+001
1.326693e+003,-4.094617e+001
1.327657e+003,-4.373157e+001
1.328621e+003,-4.698401e+001
1.329585e+003,-4.671143e+001
1.330549e+003,-4.267432e+001
1.331514e+003,-3.994849e+001
1.332478e+003,-4.009802e+001
1.333442e+003,-4.100537e+001
1.334406e+003,-4.169507e+001
1.335371e+003,-4.162830e+001
1.336335e+003,-3.969287e+001
1.337299e+003,-3.603589e+001
1.338263e+003,-3.410168e+001
1.339228e+003,-3.559912e+001
1.340192e+003,-3.615771e+001
1.341156e+003,-3.277209e+001
1.342120e+003,-2.897449e+001
1.343084e+003,-2.764990e+001
1.344049e+003,-2.857776e+001
1.345013e+003,-2.973511e+001
1.345977e+003,-2.985449e+001
1.346941e+003,-3.006506e+001
1.347906e+003,-3.282324e+001
1.348870e+003,-3.804541e+001
1.349834e+003,-3.962634e+001
1.350798e+003,-3.449585e+001
1.351763e+003,-3.137830e+001
1.352727e+003,-3.088074e+001
1.353691e+003,-3.171277e+001
1.354655e+003,-3.296387e+001
1.355620e+003,-3.479382e+001
1.356584e+003,-3.895288e+001
1.357548e+003,-4.543958e+001
1.358512e+003,-4.838538e+001
1.359476e+003,-4.269250e+001
1.360441e+003,-3.389429e+001
1.361405e+003,-2.985266e+001
1.362369e+003,-2.933472e+001
1.363333e+003,-3.014575e+001
1.364298e+003,-3.185925e+001
1.365262e+003,-3.307214e+001
1.366226e+003,-3.260608e+001
1.367190e+003,-3.102881e+001
1.368155e+003,-2.944861e+001
1.369119e+003,-2.741736e+001
1.370083e+003,-2.713416e+001
1.371047e+003,-3.084900e+001
1.372011e+003,-3.376880e+001
1.372976e+003,-3.442004e+001
1.373940e+003,-3.418933e+001
1.374904e+003,-3.450830e+001
1.375868e+003,-3.493018e+001
1.376833e+003,-3.335791e+001
1.377797e+003,-2.883887e+001
1.378761e+003,-2.410010e+001
1.379725e+003,-2.391919e+001
1.380690e+003,-2.845740e+001
1.381654e+003,-3.022729e+001
1.382618e+003,-2.741614e+001
1.383582e+003,-2.473633e+001
1.384547e+003,-2.309094e+001
1.385511e+003,-2.170117e+001
1.386475e+003,-2.010889e+001
1.387439e+003,-1.863074e+001
1.388403e+003,-1.785168e+001
1.389368e+003,-1.795459e+001
1.390332e+003,-1.854089e+001
1.391296e+003,-1.916992e+001
1.392260e+003,-1.961108e+001
1.393225e+003,-2.074829e+001
1.394189e+003,-2.232776e+001
1.395153e+003,-2.168811e+001
1.396117e+003,-1.754285e+001
1.397082e+003,-1.363586e+001
1.398046e+003,-1.411255e+001
1.399010e+003,-1.752295e+001
1.399974e+003,-1.863110e+001
1.400938e+003,-1.732959e+001
1.401903e+003,-1.799341e+001
1.402867e+003,-2.198181e+001
1.403831e+003,-2.381104e+001
1.404795e+003,-2.145789e+001
1.405760e+003,-1.791321e+001
1.406724e+003,-1.625488e+001
1.407688e+003,-1.706628e+001
1.408652e+003,-1.888098e+001
1.409617e+003,-1.998853e+001
1.410581e+003,-1.964441e+001
1.411545e+003,-1.792981e+001
1.412509e+003,-1.507922e+001
1.413474e+003,-1.375854e+001
1.414438e+003,-1.666516e+001
1.415402e+003,-1.933862e+001
1.416366e+003,-2.132129e+001
1.417330e+003,-2.151160e+001
1.418295e+003,-1.836023e+001
1.419259e+003,-1.338977e+001
1.420223e+003,-8.952026e+000
1.421187e+003,-6.046265e+000
1.422152e+003,-6.321167e+000
1.423116e+003,-1.177441e+001
1.424080e+003,-1.726648e+001
1.425044e+003,-1.331555e+001
1.426009e+003,-4.492432e+000
1.426973e+003,-1.001709e+000
1.427937e+003,-4.173706e+000
1.428901e+003,-7.567261e+000
1.429865e+003,-6.935181e+000
1.430830e+003,-4.349243e+000
1.431794e+003,-3.658325e+000
1.432758e+003,-4.883667e+000
1.433722e+003,-5.002197e+000
1.434687e+003,-2.454224e+000
1.435651e+003,1.367188e+000
1.436615e+003,6.136841e+000
1.437579e+003,8.389404e+000
1.438544e+003,3.947388e+000
1.439508e+003,-3.230957e+000
1.440472e+003,-5.240967e+000
1.441436e+003,1.590576e-001
1.442401e+003,7.394897e+000
1.443365e+003,1.051318e+001
1.444329e+003,1.007507e+001
1.445293e+003,1.036560e+001
1.446257e+003,1.274780e+001
1.447222e+003,1.347461e+001
1.448186e+003,9.829834e+000
1.449150e+003,7.611328e+000
1.450114e+003,9.385254e+000
1.451079e+003,1.216589e+001
1.452043e+003,1.430212e+001
1.453007e+003,1.532361e+001
1.453971e+003,1.411279e+001
1.454936e+003,1.017932e+001
1.455900e+003,5.755737e+000
1.456864e+003,3.571167e+000
1.457828e+003,3.700073e+000
1.458792e+003,5.197144e+000
1.459757e+003,7.757568e+000
1.460721e+003,8.058350e+000
1.461685e+003,4.448364e+000
1.462649e+003,2.507324e-001
1.463614e+003,-3.688965e+000
1.464578e+003,-6.149292e+000
1.465542e+003,-4.596313e+000
1.466506e+003,4.437256e-001
1.467471e+003,4.349365e+000
1.468435e+003,5.861328e+000
1.469399e+003,6.723389e+000
1.470363e+003,7.038208e+000
1.471328e+003,6.426514e+000
1.472292e+003,4.935059e+000
1.473256e+003,2.960693e+000
1.474220e+003,2.758423e+000
1.475184e+003,6.148438e+000
1.476149e+003,1.045178e+001
1.477113e+003,1.170020e+001
1.478077e+003,1.040076e+001
1.479041e+003,1.072778e+001
1.480006e+003,1.357751e+001
1.480970e+003,1.609436e+001
1.481934e+003,1.603845e+001
1.482898e+003,1.625256e+001
1.483863e+003,1.887903e+001
1.484827e+003,2.185925e+001
1.485791e+003,2.291748e+001
1.486755e+003,2.297827e+001
1.487719e+003,2.448096e+001
1.488684e+003,2.816968e+001
1.489648e+003,3.298804e+001
1.490612e+003,3.861450e+001
1.491576e+003,4.505627e+001
1.492541e+003,4.740161e+001
1.493505e+003,4.034668e+001
1.494469e+003,3.952283e+001
1.495433e+003,4.887854e+001
1.496398e+003,5.743835e+001
1.497362e+003,6.171265e+001
1.498326e+003,6.527771e+001
1.499290e+003,7.065991e+001
1.500255e+003,7.837915e+001
1.501219e+003,8.869543e+001
1.502183e+003,1.013463e+002
1.503147e+003,1.143295e+002
1.504111e+003,1.256129e+002
1.505076e+003,1.359818e+002
1.506040e+003,1.476404e+002
1.507004e+003,1.596742e+002
1.507968e+003,1.760522e+002
1.508933e+003,1.997598e+002
1.509897e+003,2.241857e+002
1.510861e+003,2.460803e+002
1.511825e+003,2.696748e+002
1.512790e+003,2.985243e+002
1.513754e+003,3.322019e+002
1.514718e+003,3.705345e+002
1.515682e+003,4.133109e+002
1.516646e+003,4.564132e+002
1.517611e+003,4.977833e+002
1.518575e+003,5.367308e+002
1.519539e+003,5.719019e+002
1.520503e+003,6.033872e+002
1.521468e+003,6.287401e+002
1.522432e+003,6.469481e+002
1.523396e+003,6.569922e+002
1.524360e+003,6.573036e+002
1.525325e+003,6.496560e+002
1.526289e+003,6.360469e+002
1.527253e+003,6.170624e+002
1.528217e+003,5.946652e+002
1.529182e+003,5.700436e+002
1.530146e+003,5.416320e+002
1.531110e+003,5.071509e+002
1.532074e+003,4.679705e+002
1.533039e+003,4.250326e+002
1.534003e+003,3.784312e+002
1.534967e+003,3.283594e+002
1.535931e+003,2.765327e+002
1.536896e+003,2.295563e+002
1.537860e+003,1.910537e+002
1.538824e+003,1.604907e+002
1.539788e+003,1.379156e+002
1.540752e+003,1.222151e+002
1.541717e+003,1.075157e+002
1.542681e+003,9.416113e+001
1.543645e+003,8.243567e+001
1.544609e+003,7.187280e+001
1.545573e+003,6.430090e+001
1.546538e+003,6.030627e+001
1.547502e+003,5.904712e+001
1.548466e+003,6.189197e+001
1.549430e+003,6.756116e+001
1.550395e+003,7.104175e+001
1.551359e+003,6.949377e+001
1.552323e+003,6.535254e+001
1.553287e+003,6.204065e+001
1.554252e+003,5.937195e+001
1.555216e+003,5.650134e+001
1.556180e+003,5.354749e+001
1.557144e+003,5.086890e+001
1.558109e+003,4.944836e+001
1.559073e+003,4.721387e+001
1.560037e+003,4.125427e+001
1.561001e+003,3.520972e+001
1.561966e+003,3.328162e+001
1.562930e+003,3.490076e+001
1.563894e+003,3.686865e+001
1.564858e+003,3.760681e+001
1.565823e+003,3.818652e+001
1.566787e+003,4.003027e+001
1.567751e+003,4.234595e+001
1.568715e+003,4.230981e+001
1.569679e+003,3.937122e+001
1.570644e+003,3.824170e+001
1.571608e+003,3.859521e+001
1.572572e+003,4.030676e+001
1.573536e+003,4.650891e+001
1.574500e+003,5.176978e+001
1.575465e+003,5.104248e+001
1.576429e+003,4.751978e+001
1.577393e+003,4.593665e+001
1.578357e+003,4.706238e+001
1.579322e+003,4.962817e+001
1.580286e+003,5.311584e+001
1.581250e+003,5.647717e+001
1.582214e+003,5.735254e+001
1.583179e+003,5.570166e+001
1.584143e+003,5.495276e+001
1.585107e+003,5.542053e+001
1.586071e+003,5.531995e+001
1.587036e+003,5.485693e+001
1.588000e+003,5.550513e+001
1.588964e+003,5.796509e+001
1.589928e+003,6.066003e+001
1.590893e+003,6.186877e+001
1.591857e+003,6.211511e+001
1.592821e+003,6.332275e+001
1.593785e+003,6.612720e+001
1.594750e+003,6.882642e+001
1.595714e+003,6.949536e+001
1.596678e+003,6.957776e+001
1.597642e+003,7.358801e+001
1.598606e+003,8.204956e+001
1.599571e+003,8.686133e+001
1.600535e+003,8.601196e+001
1.601499e+003,8.665674e+001
1.602463e+003,9.222363e+001
1.603427e+003,9.740479e+001
1.604392e+003,9.722888e+001
1.605356e+003,9.474426e+001
1.606320e+003,9.599915e+001
1.607284e+003,1.010946e+002
1.608249e+003,1.050751e+002
1.609213e+003,1.055590e+002
1.610177e+003,1.030249e+002
1.611141e+003,9.704236e+001
1.612106e+003,8.936377e+001
1.613070e+003,8.653394e+001
1.614034e+003,8.856860e+001
1.614998e+003,8.912280e+001
1.615963e+003,8.627820e+001
1.616927e+003,8.442871e+001
1.617891e+003,8.512183e+001
1.618855e+003,8.733960e+001
1.619820e+003,9.068970e+001
1.620784e+003,9.402026e+001
1.621748e+003,9.597400e+001
1.622712e+003,9.705811e+001
1.623677e+003,9.747559e+001
1.624641e+003,9.657532e+001
1.625605e+003,9.546680e+001
1.626569e+003,9.543787e+001
1.627533e+003,9.557300e+001
1.628498e+003,9.575232e+001
1.629462e+003,9.687927e+001
1.630426e+003,9.716687e+001
1.631390e+003,9.538611e+001
1.632354e+003,9.395288e+001
1.633319e+003,9.422815e+001
1.634283e+003,9.517639e+001
1.635247e+003,9.572925e+001
1.636211e+003,9.570288e+001
1.637176e+003,9.487927e+001
1.638140e+003,9.340930e+001
1.639104e+003,9.288501e+001
1.640068e+003,9.454150e+001
1.641033e+003,9.654004e+001
1.641997e+003,9.587878e+001
1.642961e+003,9.343945e+001
1.643925e+003,9.349438e+001
1.644890e+003,9.683154e+001
1.645854e+003,9.904724e+001
1.646818e+003,9.759497e+001
1.647782e+003,9.546741e+001
1.648747e+003,9.396155e+001
1.649711e+003,9.346887e+001
1.650675e+003,9.566052e+001
1.651639e+003,1.000360e+002
1.652604e+003,1.029315e+002
1.653568e+003,1.028801e+002
1.654532e+003,1.012667e+002
1.655496e+003,9.915576e+001
1.656460e+003,9.647644e+001
1.657425e+003,9.278137e+001
1.658389e+003,8.875305e+001
1.659353e+003,8.690735e+001
1.660317e+003,8.762610e+001
1.661281e+003,8.798828e+001
1.662246e+003,8.730908e+001
1.663210e+003,8.562878e+001
1.664174e+003,8.239404e+001
1.665138e+003,7.900873e+001
1.666103e+003,7.743555e+001
1.667067e+003,7.722766e+001
1.668031e+003,7.637769e+001
1.668995e+003,7.440515e+001
1.669960e+003,7.261633e+001
1.670924e+003,7.198285e+001
1.671888e+003,7.238904e+001
1.672852e+003,7.371851e+001
1.673817e+003,7.539551e+001
1.674781e+003,7.429077e+001
1.675745e+003,6.931244e+001
1.676709e+003,6.560498e+001
1.677674e+003,6.536926e+001
1.678638e+003,6.508862e+001
1.679602e+003,6.206616e+001
1.680566e+003,5.849774e+001
1.681531e+003,5.813104e+001
1.682495e+003,6.026001e+001
1.683459e+003,6.058215e+001
1.684423e+003,5.755249e+001
1.685387e+003,5.398132e+001
1.686352e+003,5.234662e+001
1.687316e+003,5.199951e+001
1.688280e+003,5.117883e+001
1.689244e+003,4.972754e+001
1.690208e+003,4.913745e+001
1.691173e+003,4.985101e+001
1.692137e+003,4.971826e+001
1.693101e+003,4.878503e+001
1.694065e+003,4.786096e+001
1.695030e+003,4.645471e+001
1.695994e+003,4.453375e+001
1.696958e+003,4.206488e+001
1.697922e+003,3.983667e+001
1.698887e+003,3.922742e+001
1.699851e+003,4.036279e+001
1.700815e+003,4.223938e+001
1.701779e+003,4.426593e+001
1.702744e+003,4.497888e+001
1.703708e+003,4.169995e+001
1.704672e+003,3.527576e+001
1.705636e+003,3.180872e+001
1.706601e+003,3.170990e+001
1.707565e+003,3.128900e+001
1.708529e+003,3.042004e+001
1.709493e+003,3.030334e+001
1.710458e+003,3.217578e+001
1.711422e+003,3.398352e+001
1.712386e+003,3.471808e+001
1.713350e+003,3.453687e+001
1.714314e+003,3.266675e+001
1.715279e+003,2.929614e+001
1.716243e+003,2.699487e+001
1.717207e+003,2.749213e+001
1.718171e+003,2.818811e+001
1.719135e+003,2.501099e+001
1.720100e+003,1.912219e+001
1.721064e+003,1.727661e+001
1.722028e+003,2.074982e+001
1.722992e+003,2.312335e+001
1.723957e+003,2.469385e+001
1.724921e+003,2.604004e+001
1.725885e+003,2.756567e+001
1.726849e+003,2.665405e+001
1.727814e+003,2.058234e+001
1.728778e+003,1.399414e+001
1.729742e+003,1.173572e+001
1.730706e+003,1.315985e+001
1.731671e+003,1.481567e+001
1.732635e+003,1.504865e+001
1.733599e+003,1.549292e+001
1.734563e+003,1.901343e+001
1.735528e+003,2.336511e+001
1.736492e+003,1.981836e+001
1.737456e+003,7.961182e+000
1.738420e+003,3.381958e+000
1.739385e+003,7.884827e+000
1.740349e+003,1.148627e+001
1.741313e+003,1.285577e+001
1.742277e+003,1.281274e+001
1.743241e+003,1.107153e+001
1.744206e+003,9.224121e+000
1.745170e+003,7.952698e+000
1.746134e+003,7.359985e+000
1.747098e+003,8.112366e+000
1.748063e+003,1.012714e+001
1.749027e+003,1.181555e+001
1.749991e+003,1.245068e+001
1.750955e+003,1.268829e+001
1.751919e+003,1.288837e+001
1.752884e+003,1.286926e+001
1.753848e+003,1.260052e+001
1.754812e+003,1.200360e+001
1.755776e+003,1.113440e+001
1.756741e+003,1.046667e+001
1.757705e+003,9.887085e+000
1.758669e+003,8.730896e+000
1.759633e+003,7.426880e+000
1.760598e+003,6.662476e+000
1.761562e+003,5.937927e+000
1.762526e+003,4.650635e+000
1.763490e+003,3.362305e+000
1.764455e+003,3.731995e+000
1.765419e+003,7.153870e+000
1.766383e+003,1.005884e+001
1.767347e+003,9.318604e+000
1.768312e+003,7.521240e+000
1.769276e+003,7.246277e+000
1.770240e+003,7.342529e+000
1.771204e+003,5.616882e+000
1.772168e+003,3.045044e+000
1.773133e+003,3.501038e+000
1.774097e+003,7.991943e+000
1.775061e+003,1.157318e+001
1.776025e+003,9.912659e+000
1.776990e+003,5.370605e+000
1.777954e+003,3.142883e+000
1.778918e+003,3.843140e+000
1.779882e+003,4.020569e+000
1.780846e+003,7.257690e-001
1.781811e+003,6.770630e-001
1.782775e+003,8.840759e+000
1.783739e+003,1.471747e+001
1.784703e+003,1.311688e+001
1.785668e+003,9.833923e+000
1.786632e+003,8.911377e+000
1.787596e+003,9.117188e+000
1.788560e+003,8.297058e+000
1.789525e+003,6.786926e+000
1.790489e+003,6.402710e+000
1.791453e+003,7.773376e+000
1.792417e+003,9.653259e+000
1.793382e+003,1.063513e+001
1.794346e+003,1.055914e+001
1.795310e+003,9.563049e+000
1.796274e+003,7.770447e+000
1.797239e+003,8.020447e+000
1.798203e+003,1.194214e+001
1.799167e+003,1.505524e+001
1.800131e+003,1.596533e+001
1.801095e+003,1.434546e+001
1.802060e+003,8.708801e+000
1.803024e+003,3.711914e+000
1.803988e+003,2.861450e+000
1.804952e+003,4.629333e+000
1.805917e+003,7.053650e+000
1.806881e+003,9.414368e+000
1.807845e+003,1.007422e+001
1.808809e+003,8.175781e+000
1.809773e+003,6.572876e+000
1.810738e+003,8.832886e+000
1.811702e+003,1.209302e+001
1.812666e+003,9.871582e+000
1.813630e+003,4.344543e+000
1.814595e+003,5.371460e+000
1.815559e+003,1.364526e+001
1.816523e+003,1.853766e+001
1.817487e+003,1.609027e+001
1.818452e+003,1.132294e+001
1.819416e+003,7.294739e+000
1.820380e+003,4.911804e+000
1.821344e+003,5.782410e+000
1.822309e+003,9.190796e+000
1.823273e+003,1.202112e+001
1.824237e+003,1.523138e+001
1.825201e+003,1.653699e+001
1.826166e+003,1.257019e+001
1.827130e+003,1.021558e+001
1.828094e+003,1.418561e+001
1.829058e+003,1.809802e+001
1.830022e+003,1.603741e+001
1.830987e+003,1.120636e+001
1.831951e+003,8.736877e+000
1.832915e+003,8.951355e+000
1.833879e+003,9.142761e+000
1.834844e+003,8.453674e+000
1.835808e+003,9.298523e+000
1.836772e+003,1.381195e+001
1.837736e+003,1.960864e+001
1.838700e+003,2.159515e+001
1.839665e+003,1.974359e+001
1.840629e+003,1.822876e+001
1.841593e+003,1.738623e+001
1.842557e+003,1.622058e+001
1.843522e+003,1.391785e+001
1.844486e+003,1.274500e+001
1.845450e+003,1.504852e+001
1.846414e+003,1.800366e+001
1.847379e+003,1.938416e+001
1.848343e+003,1.920105e+001
1.849307e+003,1.865240e+001
1.850271e+003,1.814087e+001
1.851236e+003,1.609186e+001
1.852200e+003,1.185266e+001
1.853164e+003,9.284607e+000
1.854128e+003,1.082111e+001
1.855093e+003,1.335284e+001
1.856057e+003,1.479810e+001
1.857021e+003,1.585510e+001
1.857985e+003,1.757275e+001
1.858949e+003,1.937183e+001
1.859914e+003,1.878473e+001
1.860878e+003,1.565424e+001
1.861842e+003,1.323633e+001
1.862806e+003,1.298547e+001
1.863771e+003,1.398907e+001
1.864735e+003,1.546063e+001
1.865699e+003,1.719513e+001
1.866663e+003,1.961121e+001
1.867627e+003,2.363867e+001
1.868592e+003,2.453314e+001
1.869556e+003,1.639960e+001
1.870520e+003,1.219775e+001
1.871484e+003,1.496075e+001
1.872449e+003,1.826849e+001
1.873413e+003,2.266376e+001
1.874377e+003,2.681909e+001
1.875341e+003,2.734497e+001
1.876306e+003,2.618329e+001
1.877270e+003,2.756909e+001
1.878234e+003,3.083893e+001
1.879198e+003,3.157062e+001
1.880163e+003,2.840625e+001
1.881127e+003,2.485382e+001
1.882091e+003,2.360645e+001
1.883055e+003,2.397223e+001
1.884020e+003,2.528290e+001
1.884984e+003,2.700427e+001
1.885948e+003,2.707233e+001
1.886912e+003,2.565741e+001
1.887876e+003,2.610553e+001
1.888841e+003,2.931647e+001
1.889805e+003,3.122449e+001
1.890769e+003,2.966132e+001
1.891733e+003,2.726904e+001
1.892698e+003,2.605023e+001
1.893662e+003,2.539038e+001
1.894626e+003,2.500854e+001
1.895590e+003,2.529962e+001
1.896554e+003,2.578241e+001
1.897519e+003,2.680524e+001
1.898483e+003,2.798071e+001
1.899447e+003,2.823010e+001
1.900411e+003,2.858289e+001
1.901376e+003,3.061743e+001
1.902340e+003,3.210590e+001
1.903304e+003,3.003595e+001
1.904268e+003,2.705334e+001
1.905233e+003,2.745251e+001
1.906197e+003,3.081836e+001
1.907161e+003,3.419684e+001
1.908125e+003,3.640460e+001
1.909090e+003,3.745532e+001
1.910054e+003,3.696399e+001
1.911018e+003,3.542841e+001
1.911982e+003,3.401581e+001
1.912947e+003,3.322150e+001
1.913911e+003,3.351080e+001
1.914875e+003,3.475854e+001
1.915839e+003,3.604230e+001
1.916803e+003,3.688525e+001
1.917768e+003,3.733832e+001
1.918732e+003,3.785535e+001
1.919696e+003,3.779584e+001
1.920660e+003,3.584637e+001
1.921625e+003,3.496350e+001
1.922589e+003,4.062109e+001
1.923553e+003,5.006848e+001
1.924517e+003,5.074054e+001
1.925481e+003,4.111041e+001
1.926446e+003,3.530011e+001
1.927410e+003,3.485016e+001
1.928374e+003,3.662231e+001
1.929338e+003,4.240601e+001
1.930303e+003,4.677924e+001
1.931267e+003,4.663696e+001
1.932231e+003,4.531848e+001
1.933195e+003,4.529456e+001
1.934160e+003,4.595197e+001
1.935124e+003,4.597565e+001
1.936088e+003,4.508539e+001
1.937052e+003,4.413092e+001
1.938017e+003,4.396466e+001
1.938981e+003,4.382825e+001
1.939945e+003,4.188837e+001
1.940909e+003,4.014465e+001
1.941874e+003,4.412305e+001
1.942838e+003,5.072253e+001
1.943802e+003,4.890302e+001
1.944766e+003,4.018121e+001
1.945730e+003,3.766620e+001
1.946695e+003,4.345422e+001
1.947659e+003,4.874542e+001
1.948623e+003,4.972577e+001
1.949587e+003,4.865002e+001
1.950552e+003,4.761090e+001
1.951516e+003,4.662689e+001
1.952480e+003,4.470837e+001
1.953444e+003,4.189435e+001
1.954408e+003,4.181006e+001
1.955373e+003,4.558990e+001
1.956337e+003,4.776770e+001
1.957301e+003,4.811145e+001
1.958265e+003,4.906848e+001
1.959230e+003,5.197614e+001
1.960194e+003,5.456665e+001
1.961158e+003,5.532849e+001
1.962122e+003,5.417108e+001
1.963087e+003,5.001331e+001
1.964051e+003,4.524683e+001
1.965015e+003,4.466803e+001
1.965979e+003,4.844257e+001
1.966944e+003,5.119684e+001
1.967908e+003,5.007336e+001
1.968872e+003,4.920880e+001
1.969836e+003,5.302881e+001
1.970801e+003,5.744171e+001
1.971765e+003,5.762897e+001
1.972729e+003,5.613165e+001
1.973693e+003,5.731372e+001
1.974657e+003,6.029639e+001
1.975622e+003,6.153577e+001
1.976586e+003,6.052167e+001
1.977550e+003,5.917566e+001
1.978514e+003,5.859515e+001
1.979479e+003,5.979767e+001
1.980443e+003,6.376465e+001
1.981407e+003,6.836548e+001
1.982371e+003,6.977338e+001
1.983335e+003,6.840393e+001
1.984300e+003,6.530493e+001
1.985264e+003,5.950977e+001
1.986228e+003,5.615192e+001
1.987192e+003,5.573767e+001
1.988157e+003,5.699890e+001
1.989121e+003,6.144189e+001
1.990085e+003,6.428967e+001
1.991049e+003,6.220062e+001
1.992014e+003,5.836914e+001
1.992978e+003,5.467761e+001
1.993942e+003,5.190015e+001
1.994906e+003,5.394934e+001
1.995871e+003,6.069092e+001
1.996835e+003,6.133966e+001
1.997799e+003,4.941522e+001
1.998763e+003,4.547681e+001
1.999728e+003,6.014655e+001
