5.003444e+002,4.780667e+001
5.013087e+002,4.687419e+001
5.022729e+002,4.718965e+001
5.032371e+002,4.803696e+001
5.042014e+002,4.634126e+001
5.051656e+002,4.256963e+001
5.061298e+002,3.887540e+001
5.070941e+002,3.717998e+001
5.080583e+002,3.778764e+001
5.090225e+002,3.856897e+001
5.099868e+002,3.977029e+001
5.109510e+002,4.083231e+001
5.119152e+002,4.140915e+001
5.128795e+002,4.146883e+001
5.138437e+002,4.158194e+001
5.148079e+002,4.242117e+001
5.157722e+002,4.299034e+001
5.167364e+002,4.296271e+001
5.177006e+002,4.217285e+001
5.186649e+002,4.047972e+001
5.196291e+002,3.675301e+001
5.205933e+002,3.291656e+001
5.215576e+002,3.105992e+001
5.225218e+002,3.127032e+001
5.234860e+002,3.282042e+001
5.244503e+002,3.461293e+001
5.254145e+002,3.703363e+001
5.263787e+002,3.781929e+001
5.273430e+002,3.634398e+001
5.283072e+002,3.368065e+001
5.292714e+002,3.097758e+001
5.302357e+002,2.729614e+001
5.311999e+002,2.558853e+001
5.321641e+002,2.737987e+001
5.331284e+002,3.018587e+001
5.340926e+002,3.216229e+001
5.350568e+002,3.256995e+001
5.360211e+002,3.221407e+001
5.369853e+002,3.200560e+001
5.379495e+002,3.164178e+001
5.389138e+002,3.042265e+001
5.398780e+002,2.824805e+001
5.408422e+002,2.593530e+001
5.418065e+002,2.624255e+001
5.427707e+002,2.873807e+001
5.437349e+002,3.048146e+001
5.446992e+002,3.064497e+001
5.456634e+002,2.955161e+001
5.466276e+002,2.835979e+001
5.475919e+002,2.637447e+001
5.485561e+002,2.537532e+001
5.495203e+002,2.630028e+001
5.504846e+002,2.786322e+001
5.514488e+002,2.808072e+001
5.524130e+002,2.555952e+001
5.533773e+002,2.345245e+001
5.543415e+002,2.395332e+001
5.553057e+002,2.533371e+001
5.562700e+002,2.571567e+001
5.572342e+002,2.394266e+001
5.581984e+002,2.106229e+001
5.591627e+002,1.960674e+001
5.601269e+002,1.917796e+001
5.610911e+002,1.893083e+001
5.620554e+002,1.838887e+001
5.630196e+002,1.761584e+001
5.639838e+002,1.759494e+001
5.649481e+002,1.961440e+001
5.659123e+002,2.054266e+001
5.668765e+002,1.928978e+001
5.678408e+002,1.668304e+001
5.688050e+002,1.489795e+001
5.697692e+002,1.458360e+001
5.707335e+002,1.476898e+001
5.716977e+002,1.573352e+001
5.726619e+002,1.686674e+001
5.736262e+002,1.741698e+001
5.745904e+002,1.685190e+001
5.755546e+002,1.567101e+001
5.765189e+002,1.426367e+001
5.774831e+002,1.283771e+001
5.784473e+002,1.205228e+001
5.794116e+002,1.239584e+001
5.803758e+002,1.376762e+001
5.813400e+002,1.392964e+001
5.823043e+002,1.238531e+001
5.832685e+002,1.095107e+001
5.842327e+002,1.034944e+001
5.851970e+002,1.054010e+001
5.861612e+002,1.083252e+001
5.871254e+002,1.080276e+001
5.880897e+002,1.117128e+001
5.890539e+002,1.261099e+001
5.900181e+002,1.438348e+001
5.909824e+002,1.533676e+001
5.919466e+002,1.471155e+001
5.929108e+002,1.311389e+001
5.938751e+002,1.068542e+001
5.948393e+002,8.137833e+000
5.958035e+002,6.719238e+000
5.967678e+002,7.328232e+000
5.977320e+002,9.659637e+000
5.986962e+002,1.128479e+001
5.996605e+002,1.226913e+001
6.006247e+002,1.240201e+001
6.015889e+002,1.108363e+001
6.025532e+002,8.484726e+000
6.035174e+002,6.935760e+000
6.044816e+002,7.750565e+000
6.054459e+002,8.318817e+000
6.064101e+002,7.843506e+000
6.073743e+002,6.933807e+000
6.083386e+002,6.918518e+000
6.093028e+002,9.090668e+000
6.102670e+002,1.108163e+001
6.112313e+002,1.078708e+001
6.121955e+002,9.306793e+000
6.131597e+002,8.080261e+000
6.141240e+002,8.085999e+000
6.150882e+002,8.942032e+000
6.160524e+002,8.993759e+000
6.170167e+002,8.435486e+000
6.179809e+002,8.093948e+000
6.189451e+002,8.403778e+000
6.199094e+002,9.186340e+000
6.208736e+002,9.416824e+000
6.218378e+002,8.220596e+000
6.228021e+002,7.689697e+000
6.237663e+002,8.599396e+000
6.247305e+002,1.016617e+001
6.256948e+002,1.099481e+001
6.266590e+002,1.012834e+001
6.276232e+002,9.192886e+000
6.285875e+002,9.616394e+000
6.295517e+002,1.046049e+001
6.305159e+002,1.066962e+001
6.314802e+002,9.656555e+000
6.324444e+002,7.870346e+000
6.334086e+002,6.323547e+000
6.343729e+002,5.120651e+000
6.353371e+002,4.762405e+000
6.363013e+002,5.566055e+000
6.372656e+002,7.073044e+000
6.382298e+002,7.713867e+000
6.391940e+002,6.546799e+000
6.401583e+002,5.579147e+000
6.411225e+002,5.296326e+000
6.420867e+002,5.195526e+000
6.430510e+002,4.295517e+000
6.440152e+002,1.702957e+000
6.449794e+002,2.463837e-001
6.459437e+002,2.728378e+000
6.469079e+002,5.787628e+000
6.478721e+002,6.442383e+000
6.488364e+002,3.910950e+000
6.498006e+002,4.771118e-001
6.507648e+002,3.930206e-001
6.517291e+002,2.488800e+000
6.526933e+002,4.164230e+000
6.536575e+002,4.945023e+000
6.546218e+002,5.008759e+000
6.555860e+002,4.656067e+000
6.565502e+002,3.410751e+000
6.575145e+002,2.800537e+000
6.584787e+002,3.121902e+000
6.594429e+002,3.758026e+000
6.604072e+002,4.450821e+000
6.613714e+002,5.247009e+000
6.623356e+002,5.322952e+000
6.632999e+002,3.628983e+000
6.642641e+002,1.582458e+000
6.652283e+002,-5.428162e-001
6.661926e+002,-2.304672e+000
6.671568e+002,-2.934219e+000
6.681210e+002,-1.066437e+000
6.690853e+002,2.161575e+000
6.700495e+002,3.778778e+000
6.710137e+002,3.780075e+000
6.719780e+002,3.054657e+000
6.729422e+002,2.488968e+000
6.739064e+002,2.059357e+000
6.748707e+002,1.789352e+000
6.758349e+002,1.585953e+000
6.767991e+002,1.547333e+000
6.777634e+002,1.862549e+000
6.787276e+002,2.541367e+000
6.796918e+002,3.284103e+000
6.806561e+002,4.230011e+000
6.816203e+002,4.716492e+000
6.825845e+002,4.068512e+000
6.835488e+002,2.883377e+000
6.845130e+002,2.257156e+000
6.854772e+002,3.113693e+000
6.864415e+002,4.521210e+000
6.874057e+002,4.193146e+000
6.883699e+002,2.516388e+000
6.893342e+002,3.088531e-001
6.902984e+002,-2.080811e+000
6.912626e+002,-4.336777e+000
6.922269e+002,-4.474594e+000
6.931911e+002,5.000000e-001
6.941553e+002,3.750229e+000
6.951196e+002,3.450470e+000
6.960838e+002,1.427811e+000
6.970480e+002,9.515839e-001
6.980123e+002,3.858353e+000
6.989765e+002,5.320679e+000
6.999407e+002,2.059128e+000
7.009050e+002,-2.220291e+000
7.018692e+002,-4.645721e+000
7.028334e+002,-4.246964e+000
7.037977e+002,-2.331131e+000
7.047619e+002,-3.310089e-001
7.057261e+002,1.572418e+000
7.066904e+002,2.741577e+000
7.076546e+002,3.058334e+000
7.086188e+002,3.047760e+000
7.095831e+002,3.598907e+000
7.105473e+002,5.215744e+000
7.115115e+002,5.463974e+000
7.124758e+002,3.347717e+000
7.134400e+002,1.094528e+000
7.144042e+002,2.607880e-001
7.153685e+002,8.974304e-001
7.163327e+002,1.180374e+000
7.172969e+002,-7.281189e-001
7.182612e+002,-2.168121e+000
7.192254e+002,-1.631638e+000
7.201896e+002,1.980438e-001
7.211539e+002,1.768433e+000
7.221181e+002,1.759354e+000
7.230823e+002,8.364563e-001
7.240466e+002,9.921112e-001
7.250108e+002,2.031082e+000
7.259750e+002,2.961746e+000
7.269393e+002,3.147964e+000
7.279035e+002,2.553680e+000
7.288677e+002,1.659729e+000
7.298320e+002,-1.287842e-001
7.307962e+002,-1.076370e+000
7.317604e+002,-8.414459e-001
7.327247e+002,2.314301e-001
7.336889e+002,1.919266e+000
7.346531e+002,4.523270e+000
7.356174e+002,5.875977e+000
7.365816e+002,3.914764e+000
7.375458e+002,1.397507e+000
7.385101e+002,4.048309e-001
7.394743e+002,1.445099e+000
7.404385e+002,3.524841e+000
7.414028e+002,5.420303e+000
7.423670e+002,6.753006e+000
7.433312e+002,6.799347e+000
7.442955e+002,5.519058e+000
7.452597e+002,4.153229e+000
7.462239e+002,4.211380e+000
7.471882e+002,6.264847e+000
7.481524e+002,7.024567e+000
7.491166e+002,5.461929e+000
7.500809e+002,3.780151e+000
7.510451e+002,2.555450e+000
7.520093e+002,1.881775e+000
7.529736e+002,1.875763e+000
7.539378e+002,3.281052e+000
7.549020e+002,4.536011e+000
7.558663e+002,4.516724e+000
7.568306e+002,3.776627e+000
7.577948e+002,2.982346e+000
7.587590e+002,2.529129e+000
7.597233e+002,2.309937e+000
7.606875e+002,2.273605e+000
7.616517e+002,2.458664e+000
7.626160e+002,2.691895e+000
7.635802e+002,3.031555e+000
7.645444e+002,3.335098e+000
7.655087e+002,3.248398e+000
7.664729e+002,2.525406e+000
7.674371e+002,1.860779e+000
7.684014e+002,1.073181e+000
7.693656e+002,5.185699e-001
7.703298e+002,4.742432e-001
7.712941e+002,9.608002e-001
7.722583e+002,1.721588e+000
7.732225e+002,2.916214e+000
7.741868e+002,3.961731e+000
7.751510e+002,4.342514e+000
7.761152e+002,4.183655e+000
7.770795e+002,3.814896e+000
7.780437e+002,3.511124e+000
7.790079e+002,3.249283e+000
7.799722e+002,3.003525e+000
7.809364e+002,2.728195e+000
7.819006e+002,2.625214e+000
7.828649e+002,2.892853e+000
7.838291e+002,3.483475e+000
7.847933e+002,4.096176e+000
7.857576e+002,4.595291e+000
7.867218e+002,5.071411e+000
7.876860e+002,5.821121e+000
7.886503e+002,6.532257e+000
7.896145e+002,6.887375e+000
7.905787e+002,6.822189e+000
7.915430e+002,6.649796e+000
7.925072e+002,6.489304e+000
7.934714e+002,6.396072e+000
7.944357e+002,6.963776e+000
7.953999e+002,8.008423e+000
7.963641e+002,8.292236e+000
7.973284e+002,6.263763e+000
7.982926e+002,1.662506e+000
7.992568e+002,2.098999e-001
8.002211e+002,2.886581e+000
8.011853e+002,5.622803e+000
8.021495e+002,7.355331e+000
8.031138e+002,8.260147e+000
8.040780e+002,8.532639e+000
8.050422e+002,7.620758e+000
8.060065e+002,6.719147e+000
8.069707e+002,5.985229e+000
8.079349e+002,5.472580e+000
8.088992e+002,5.337219e+000
8.098634e+002,5.632385e+000
8.108276e+002,6.165985e+000
8.117919e+002,6.738632e+000
8.127561e+002,7.079483e+000
8.137203e+002,6.800964e+000
8.146846e+002,5.971924e+000
8.156488e+002,5.214249e+000
8.166130e+002,5.320618e+000
8.175773e+002,6.582367e+000
8.185415e+002,6.740189e+000
8.195057e+002,4.348511e+000
8.204700e+002,2.656784e+000
8.214342e+002,3.316284e+000
8.223984e+002,5.509964e+000
8.233627e+002,6.992310e+000
8.243269e+002,6.865143e+000
8.252911e+002,6.229599e+000
8.262554e+002,5.366669e+000
8.272196e+002,4.659241e+000
8.281838e+002,4.600708e+000
8.291481e+002,5.297485e+000
8.301123e+002,6.335480e+000
8.310765e+002,7.028427e+000
8.320408e+002,7.340271e+000
8.330050e+002,7.448288e+000
8.339692e+002,7.302261e+000
8.349335e+002,7.198410e+000
8.358977e+002,7.770538e+000
8.368619e+002,9.357910e+000
8.378262e+002,9.452209e+000
8.387904e+002,6.066315e+000
8.397546e+002,3.258774e+000
8.407189e+002,2.098663e+000
8.416831e+002,2.190277e+000
8.426473e+002,2.760498e+000
8.436116e+002,3.565414e+000
8.445758e+002,4.446915e+000
8.455400e+002,5.584412e+000
8.465043e+002,6.372833e+000
8.474685e+002,5.756897e+000
8.484327e+002,3.752029e+000
8.493970e+002,1.730057e+000
8.503612e+002,1.941345e+000
8.513254e+002,4.852539e+000
8.522897e+002,6.537399e+000
8.532539e+002,6.229126e+000
8.542181e+002,5.746414e+000
8.551824e+002,6.448792e+000
8.561466e+002,8.228317e+000
8.571108e+002,9.425247e+000
8.580751e+002,8.858917e+000
8.590393e+002,8.322662e+000
8.600035e+002,8.744858e+000
8.609678e+002,9.478668e+000
8.619320e+002,9.585922e+000
8.628962e+002,8.735626e+000
8.638605e+002,7.782242e+000
8.648247e+002,8.207581e+000
8.657889e+002,9.456345e+000
8.667532e+002,1.044312e+001
8.677174e+002,1.102365e+001
8.686816e+002,1.131560e+001
8.696459e+002,1.137439e+001
8.706101e+002,1.111247e+001
8.715743e+002,1.168065e+001
8.725386e+002,1.427859e+001
8.735028e+002,1.613805e+001
8.744670e+002,1.568404e+001
8.754313e+002,1.410150e+001
8.763955e+002,1.400352e+001
8.773597e+002,1.683266e+001
8.783240e+002,1.927255e+001
8.792882e+002,1.803354e+001
8.802524e+002,1.586235e+001
8.812167e+002,1.522256e+001
8.821809e+002,1.652284e+001
8.831451e+002,1.851730e+001
8.841094e+002,1.961142e+001
8.850736e+002,1.990057e+001
8.860378e+002,2.063960e+001
8.870021e+002,2.194612e+001
8.879663e+002,2.304889e+001
8.889305e+002,2.339413e+001
8.898948e+002,2.309384e+001
8.908590e+002,2.283900e+001
8.918232e+002,2.258868e+001
8.927875e+002,2.272736e+001
8.937517e+002,2.310062e+001
8.947159e+002,2.399571e+001
8.956802e+002,2.606726e+001
8.966444e+002,2.911899e+001
8.976086e+002,3.160651e+001
8.985729e+002,3.173604e+001
8.995371e+002,3.066740e+001
9.005013e+002,3.062076e+001
9.014656e+002,3.140768e+001
9.024298e+002,3.146867e+001
9.033940e+002,2.940712e+001
9.043583e+002,2.562340e+001
9.053225e+002,2.390596e+001
9.062867e+002,2.673373e+001
9.072510e+002,2.838139e+001
9.082152e+002,2.811688e+001
9.091794e+002,2.722580e+001
9.101437e+002,2.682877e+001
9.111079e+002,2.708981e+001
9.120721e+002,2.774992e+001
9.130364e+002,2.939896e+001
9.140006e+002,3.057916e+001
9.149648e+002,3.002817e+001
9.159291e+002,2.847185e+001
9.168933e+002,2.728685e+001
9.178575e+002,2.740411e+001
9.188218e+002,2.861226e+001
9.197860e+002,3.087442e+001
9.207502e+002,3.429425e+001
9.217145e+002,3.516113e+001
9.226787e+002,3.112923e+001
9.236429e+002,2.600255e+001
9.246072e+002,2.551169e+001
9.255714e+002,3.091148e+001
9.265356e+002,3.386880e+001
9.274999e+002,3.075757e+001
9.284641e+002,2.740121e+001
9.294283e+002,2.579848e+001
9.303926e+002,2.544659e+001
9.313568e+002,2.493837e+001
9.323210e+002,2.352109e+001
9.332853e+002,2.193945e+001
9.342495e+002,2.161732e+001
9.352137e+002,2.188461e+001
9.361780e+002,2.189510e+001
9.371422e+002,2.151959e+001
9.381064e+002,2.089282e+001
9.390707e+002,2.001903e+001
9.400349e+002,1.862889e+001
9.409991e+002,1.822307e+001
9.419634e+002,1.976476e+001
9.429276e+002,2.087444e+001
9.438918e+002,2.059784e+001
9.448561e+002,1.964386e+001
9.458203e+002,1.941440e+001
9.467845e+002,2.053857e+001
9.477488e+002,2.129155e+001
9.487130e+002,1.991183e+001
9.496772e+002,1.792197e+001
9.506415e+002,1.606192e+001
9.516057e+002,1.469873e+001
9.525699e+002,1.436490e+001
9.535342e+002,1.560031e+001
9.544984e+002,1.808864e+001
9.554626e+002,1.934303e+001
9.564269e+002,1.947841e+001
9.573911e+002,1.908188e+001
9.583553e+002,1.771640e+001
9.593196e+002,1.609671e+001
9.602838e+002,1.555118e+001
9.612480e+002,1.641371e+001
9.622123e+002,1.701411e+001
9.631765e+002,1.656680e+001
9.641407e+002,1.612015e+001
9.651050e+002,1.617960e+001
9.660692e+002,1.657387e+001
9.670334e+002,1.703069e+001
9.679977e+002,1.744974e+001
9.689619e+002,1.756770e+001
9.699261e+002,1.598213e+001
9.708904e+002,1.335265e+001
9.718546e+002,1.176547e+001
9.728188e+002,1.159131e+001
9.737831e+002,1.277753e+001
9.747473e+002,1.584734e+001
9.757115e+002,2.156439e+001
9.766758e+002,2.510353e+001
9.776400e+002,2.519238e+001
9.786042e+002,2.478993e+001
9.795685e+002,2.449779e+001
9.805327e+002,2.399069e+001
9.814969e+002,2.270525e+001
9.824612e+002,2.050859e+001
9.834254e+002,1.812875e+001
9.843896e+002,1.597205e+001
9.853539e+002,1.404164e+001
9.863181e+002,1.232068e+001
9.872823e+002,1.081413e+001
9.882466e+002,9.716980e+000
9.892108e+002,9.290588e+000
9.901750e+002,9.555634e+000
9.911393e+002,9.872055e+000
9.921035e+002,1.008247e+001
9.930677e+002,1.013481e+001
9.940320e+002,9.962708e+000
9.949962e+002,9.841415e+000
9.959604e+002,1.021577e+001
9.969247e+002,1.107767e+001
9.978889e+002,1.145294e+001
9.988531e+002,1.054889e+001
9.998174e+002,9.156601e+000
1.000782e+003,7.547577e+000
1.001746e+003,6.026428e+000
1.002710e+003,4.748596e+000
1.003674e+003,3.859802e+000
1.004639e+003,3.805420e+000
1.005603e+003,5.605988e+000
1.006567e+003,9.450302e+000
1.007531e+003,1.077727e+001
1.008495e+003,8.510345e+000
1.009460e+003,6.067657e+000
1.010424e+003,5.779449e+000
1.011388e+003,7.052505e+000
1.012352e+003,7.325638e+000
1.013317e+003,5.657257e+000
1.014281e+003,4.178772e+000
1.015245e+003,3.527664e+000
1.016209e+003,3.208969e+000
1.017174e+003,2.942413e+000
1.018138e+003,2.676514e+000
1.019102e+003,2.525894e+000
1.020066e+003,2.631744e+000
1.021031e+003,2.870697e+000
1.021995e+003,2.550262e+000
1.022959e+003,1.754364e+000
1.023923e+003,1.495285e+000
1.024887e+003,2.394592e+000
1.025852e+003,3.438583e+000
1.026816e+003,2.809814e+000
1.027780e+003,2.177429e-002
1.028744e+003,-1.835068e+000
1.029709e+003,-2.181824e+000
1.030673e+003,-2.032669e+000
1.031637e+003,-1.321808e+000
1.032601e+003,-4.776611e-001
1.033566e+003,-5.645752e-003
1.034530e+003,-5.584717e-002
1.035494e+003,-2.896423e-001
1.036458e+003,-2.122498e-001
1.037422e+003,-2.589264e-001
1.038387e+003,-1.474869e+000
1.039351e+003,-3.706741e+000
1.040315e+003,-5.386673e+000
1.041279e+003,-5.254974e+000
1.042244e+003,-3.665100e+000
1.043208e+003,-2.494965e+000
1.044172e+003,-2.081482e+000
1.045136e+003,-1.715088e+000
1.046101e+003,-1.286331e+000
1.047065e+003,-9.141235e-001
1.048029e+003,-7.808990e-001
1.048993e+003,-8.200684e-001
1.049958e+003,-7.318573e-001
1.050922e+003,-3.337250e-001
1.051886e+003,2.617950e-001
1.052850e+003,8.894958e-001
1.053814e+003,1.609207e+000
1.054779e+003,2.880173e+000
1.055743e+003,4.584259e+000
1.056707e+003,5.490723e+000
1.057671e+003,4.018524e+000
1.058636e+003,1.308136e-001
1.059600e+003,-2.293579e+000
1.060564e+003,-2.339310e+000
1.061528e+003,-2.172211e+000
1.062493e+003,-2.523682e+000
1.063457e+003,-2.619202e+000
1.064421e+003,-1.042679e+000
1.065385e+003,2.314194e+000
1.066349e+003,4.660126e+000
1.067314e+003,4.042404e+000
1.068278e+003,2.553238e+000
1.069242e+003,1.218811e+000
1.070206e+003,2.966461e-001
1.071171e+003,1.015167e-001
1.072135e+003,7.003174e-001
1.073099e+003,1.849854e+000
1.074063e+003,3.269348e+000
1.075028e+003,5.085922e+000
1.075992e+003,5.512756e+000
1.076956e+003,3.529648e+000
1.077920e+003,1.986938e+000
1.078885e+003,2.717575e+000
1.079849e+003,4.393631e+000
1.080813e+003,4.223663e+000
1.081777e+003,1.440903e+000
1.082741e+003,-8.768311e-001
1.083706e+003,-9.351807e-001
1.084670e+003,-4.287262e-001
1.085634e+003,1.172333e-001
1.086598e+003,4.558563e-001
1.087563e+003,3.196106e-001
1.088527e+003,-3.754425e-001
1.089491e+003,-1.296982e+000
1.090455e+003,-1.917587e+000
1.091420e+003,-2.254883e+000
1.092384e+003,-2.430679e+000
1.093348e+003,-2.340866e+000
1.094312e+003,-2.387802e+000
1.095276e+003,-3.073807e+000
1.096241e+003,-3.983368e+000
1.097205e+003,-3.763931e+000
1.098169e+003,-1.720230e+000
1.099133e+003,-2.936096e-001
1.100098e+003,-8.155823e-001
1.101062e+003,-1.729492e+000
1.102026e+003,-2.339722e+000
1.102990e+003,-2.480118e+000
1.103955e+003,-1.985367e+000
1.104919e+003,-7.973938e-001
1.105883e+003,4.314728e-001
1.106847e+003,1.938324e-001
1.107812e+003,-1.547363e+000
1.108776e+003,-2.537888e+000
1.109740e+003,-2.332397e+000
1.110704e+003,-2.105820e+000
1.111668e+003,-3.054016e+000
1.112633e+003,-4.671074e+000
1.113597e+003,-4.661621e+000
1.114561e+003,-1.776505e+000
1.115525e+003,1.298218e-001
1.116490e+003,-1.031693e+000
1.117454e+003,-2.581696e+000
1.118418e+003,-2.671097e+000
1.119382e+003,-1.550797e+000
1.120347e+003,-4.412231e-001
1.121311e+003,-1.516724e-001
1.122275e+003,-6.405487e-001
1.123239e+003,-1.922775e+000
1.124203e+003,-3.764557e+000
1.125168e+003,-4.534286e+000
1.126132e+003,-3.889923e+000
1.127096e+003,-2.683807e+000
1.128060e+003,-1.211105e+000
1.129025e+003,3.069153e-001
1.129989e+003,7.745819e-001
1.130953e+003,-5.402374e-001
1.131917e+003,-1.475647e+000
1.132882e+003,-1.132294e+000
1.133846e+003,-5.424805e-001
1.134810e+003,-4.013367e-001
1.135774e+003,-5.317841e-001
1.136739e+003,-2.016144e-001
1.137703e+003,9.733582e-001
1.138667e+003,2.173264e+000
1.139631e+003,1.756531e+000
1.140595e+003,-5.526733e-002
1.141560e+003,-9.730225e-001
1.142524e+003,-6.918182e-001
1.143488e+003,-4.458618e-002
1.144452e+003,1.592407e-001
1.145417e+003,2.427063e-001
1.146381e+003,1.431763e+000
1.147345e+003,3.915894e+000
1.148309e+003,7.078491e+000
1.149274e+003,1.229005e+001
1.150238e+003,1.661246e+001
1.151202e+003,1.769867e+001
1.152166e+003,1.701231e+001
1.153130e+003,1.746678e+001
1.154095e+003,2.029875e+001
1.155059e+003,2.381006e+001
1.156023e+003,2.583945e+001
1.156987e+003,2.633774e+001
1.157952e+003,2.570142e+001
1.158916e+003,2.394106e+001
1.159880e+003,2.175313e+001
1.160844e+003,1.922618e+001
1.161809e+003,1.638010e+001
1.162773e+003,1.324915e+001
1.163737e+003,9.548233e+000
1.164701e+003,6.909866e+000
1.165666e+003,7.017075e+000
1.166630e+003,7.037460e+000
1.167594e+003,5.828934e+000
1.168558e+003,3.922348e+000
1.169522e+003,1.819046e+000
1.170487e+003,-1.072388e-001
1.171451e+003,-1.114502e+000
1.172415e+003,-2.017670e-001
1.173379e+003,2.096649e+000
1.174344e+003,2.990982e+000
1.175308e+003,2.511444e+000
1.176272e+003,1.745911e+000
1.177236e+003,1.025940e+000
1.178201e+003,2.455368e-001
1.179165e+003,-1.075722e+000
1.180129e+003,-3.006218e+000
1.181093e+003,-3.782455e+000
1.182057e+003,-2.006134e+000
1.183022e+003,-4.890366e-001
1.183986e+003,-2.048111e-001
1.184950e+003,-6.686325e-001
1.185914e+003,-1.724571e+000
1.186879e+003,-3.044350e+000
1.187843e+003,-3.971710e+000
1.188807e+003,-3.984085e+000
1.189771e+003,-3.392059e+000
1.190736e+003,-2.973747e+000
1.191700e+003,-2.720863e+000
1.192664e+003,-2.946205e+000
1.193628e+003,-4.265984e+000
1.194593e+003,-5.224304e+000
1.195557e+003,-4.200455e+000
1.196521e+003,-1.963417e+000
1.197485e+003,-1.357201e+000
1.198449e+003,-3.251312e+000
1.199414e+003,-5.322617e+000
1.200378e+003,-7.207779e+000
1.201342e+003,-8.297928e+000
1.202306e+003,-7.560966e+000
1.203271e+003,-5.825096e+000
1.204235e+003,-4.824951e+000
1.205199e+003,-5.347298e+000
1.206163e+003,-6.386101e+000
1.207128e+003,-6.207481e+000
1.208092e+003,-4.702614e+000
1.209056e+003,-4.514381e+000
1.210020e+003,-6.225388e+000
1.210984e+003,-7.812149e+000
1.211949e+003,-8.637924e+000
1.212913e+003,-9.103119e+000
1.213877e+003,-9.647049e+000
1.214841e+003,-1.029238e+001
1.215806e+003,-1.100336e+001
1.216770e+003,-1.189986e+001
1.217734e+003,-1.267165e+001
1.218698e+003,-1.298996e+001
1.219663e+003,-1.320205e+001
1.220627e+003,-1.383537e+001
1.221591e+003,-1.488200e+001
1.222555e+003,-1.586647e+001
1.223520e+003,-1.635158e+001
1.224484e+003,-1.627328e+001
1.225448e+003,-1.542318e+001
1.226412e+003,-1.312321e+001
1.227376e+003,-1.164014e+001
1.228341e+003,-1.119592e+001
1.229305e+003,-1.132046e+001
1.230269e+003,-1.174081e+001
1.231233e+003,-1.256086e+001
1.232198e+003,-1.445257e+001
1.233162e+003,-1.768395e+001
1.234126e+003,-1.975028e+001
1.235090e+003,-1.781036e+001
1.236055e+003,-1.485302e+001
1.237019e+003,-1.423045e+001
1.237983e+003,-1.530917e+001
1.238947e+003,-1.614204e+001
1.239911e+003,-1.588519e+001
1.240876e+003,-1.513541e+001
1.241840e+003,-1.477193e+001
1.242804e+003,-1.480009e+001
1.243768e+003,-1.502821e+001
1.244733e+003,-1.561398e+001
1.245697e+003,-1.620375e+001
1.246661e+003,-1.743082e+001
1.247625e+003,-1.817580e+001
1.248590e+003,-1.695498e+001
1.249554e+003,-1.444889e+001
1.250518e+003,-1.298185e+001
1.251482e+003,-1.369315e+001
1.252447e+003,-1.503293e+001
1.253411e+003,-1.507461e+001
1.254375e+003,-1.436908e+001
1.255339e+003,-1.428604e+001
1.256303e+003,-1.481637e+001
1.257268e+003,-1.493554e+001
1.258232e+003,-1.403065e+001
1.259196e+003,-1.255728e+001
1.260160e+003,-1.112085e+001
1.261125e+003,-9.501114e+000
1.262089e+003,-9.033966e+000
1.263053e+003,-1.119714e+001
1.264017e+003,-1.300455e+001
1.264982e+003,-1.401134e+001
1.265946e+003,-1.413795e+001
1.266910e+003,-1.272459e+001
1.267874e+003,-1.034991e+001
1.268839e+003,-8.841446e+000
1.269803e+003,-9.427452e+000
1.270767e+003,-1.097274e+001
1.271731e+003,-1.122247e+001
1.272695e+003,-1.019835e+001
1.273660e+003,-9.795921e+000
1.274624e+003,-1.022505e+001
1.275588e+003,-1.108450e+001
1.276552e+003,-1.267614e+001
1.277517e+003,-1.424676e+001
1.278481e+003,-1.414886e+001
1.279445e+003,-1.216254e+001
1.280409e+003,-1.072096e+001
1.281374e+003,-1.096830e+001
1.282338e+003,-1.143925e+001
1.283302e+003,-1.147706e+001
1.284266e+003,-1.125385e+001
1.285230e+003,-1.072140e+001
1.286195e+003,-1.011235e+001
1.287159e+003,-1.020496e+001
1.288123e+003,-1.162470e+001
1.289087e+003,-1.366584e+001
1.290052e+003,-1.423454e+001
1.291016e+003,-1.279574e+001
1.291980e+003,-1.190109e+001
1.292944e+003,-1.167802e+001
1.293909e+003,-1.186667e+001
1.294873e+003,-1.280053e+001
1.295837e+003,-1.376412e+001
1.296801e+003,-1.352167e+001
1.297766e+003,-1.204044e+001
1.298730e+003,-1.107487e+001
1.299694e+003,-1.190248e+001
1.300658e+003,-1.299796e+001
1.301622e+003,-1.228511e+001
1.302587e+003,-1.078933e+001
1.303551e+003,-1.019212e+001
1.304515e+003,-1.073741e+001
1.305479e+003,-1.163604e+001
1.306444e+003,-1.238090e+001
1.307408e+003,-1.290994e+001
1.308372e+003,-1.281637e+001
1.309336e+003,-1.174013e+001
1.310301e+003,-1.117556e+001
1.311265e+003,-1.139320e+001
1.312229e+003,-1.181087e+001
1.313193e+003,-1.241905e+001
1.314157e+003,-1.306950e+001
1.315122e+003,-1.384073e+001
1.316086e+003,-1.456627e+001
1.317050e+003,-1.455085e+001
1.318014e+003,-1.323900e+001
1.318979e+003,-1.157594e+001
1.319943e+003,-1.138549e+001
1.320907e+003,-1.248817e+001
1.321871e+003,-1.325775e+001
1.322836e+003,-1.366717e+001
1.323800e+003,-1.388850e+001
1.324764e+003,-1.402045e+001
1.325728e+003,-1.399600e+001
1.326693e+003,-1.373168e+001
1.327657e+003,-1.325455e+001
1.328621e+003,-1.253805e+001
1.329585e+003,-1.123779e+001
1.330549e+003,-9.951912e+000
1.331514e+003,-8.432121e+000
1.332478e+003,-7.673355e+000
1.333442e+003,-9.477859e+000
1.334406e+003,-1.296033e+001
1.335371e+003,-1.496278e+001
1.336335e+003,-1.364336e+001
1.337299e+003,-1.096338e+001
1.338263e+003,-1.075568e+001
1.339228e+003,-1.342754e+001
1.340192e+003,-1.470679e+001
1.341156e+003,-1.433376e+001
1.342120e+003,-1.308645e+001
1.343084e+003,-9.660439e+000
1.344049e+003,-6.747887e+000
1.345013e+003,-7.189804e+000
1.345977e+003,-9.982468e+000
1.346941e+003,-1.179307e+001
1.347906e+003,-1.141500e+001
1.348870e+003,-1.026952e+001
1.349834e+003,-9.579025e+000
1.350798e+003,-9.059799e+000
1.351763e+003,-7.878532e+000
1.352727e+003,-6.215080e+000
1.353691e+003,-5.221832e+000
1.354655e+003,-5.348770e+000
1.355620e+003,-6.116150e+000
1.356584e+003,-7.168365e+000
1.357548e+003,-8.416794e+000
1.358512e+003,-9.149330e+000
1.359476e+003,-9.133980e+000
1.360441e+003,-9.342041e+000
1.361405e+003,-1.035390e+001
1.362369e+003,-1.121797e+001
1.363333e+003,-1.131420e+001
1.364298e+003,-1.103798e+001
1.365262e+003,-1.089892e+001
1.366226e+003,-1.107995e+001
1.367190e+003,-1.164356e+001
1.368155e+003,-1.267033e+001
1.369119e+003,-1.377847e+001
1.370083e+003,-1.366197e+001
1.371047e+003,-1.176895e+001
1.372011e+003,-1.092395e+001
1.372976e+003,-1.229779e+001
1.373940e+003,-1.324211e+001
1.374904e+003,-1.256544e+001
1.375868e+003,-1.103013e+001
1.376833e+003,-9.229340e+000
1.377797e+003,-7.454208e+000
1.378761e+003,-6.734840e+000
1.379725e+003,-7.710571e+000
1.380690e+003,-9.155617e+000
1.381654e+003,-1.002993e+001
1.382618e+003,-1.044828e+001
1.383582e+003,-1.044881e+001
1.384547e+003,-1.009423e+001
1.385511e+003,-9.737640e+000
1.386475e+003,-9.610550e+000
1.387439e+003,-9.464981e+000
1.388403e+003,-8.699738e+000
1.389368e+003,-7.325584e+000
1.390332e+003,-6.929131e+000
1.391296e+003,-8.266602e+000
1.392260e+003,-9.055199e+000
1.393225e+003,-8.703186e+000
1.394189e+003,-7.859558e+000
1.395153e+003,-6.465179e+000
1.396117e+003,-5.000847e+000
1.397082e+003,-3.899170e+000
1.398046e+003,-3.402039e+000
1.399010e+003,-3.958023e+000
1.399974e+003,-6.073250e+000
1.400938e+003,-9.039001e+000
1.401903e+003,-1.041846e+001
1.402867e+003,-9.719910e+000
1.403831e+003,-8.608589e+000
1.404795e+003,-7.108276e+000
1.405760e+003,-5.321411e+000
1.406724e+003,-2.154015e+000
1.407688e+003,3.104477e-001
1.408652e+003,-1.000854e+000
1.409617e+003,-5.455574e+000
1.410581e+003,-9.219704e+000
1.411545e+003,-1.089895e+001
1.412509e+003,-1.094491e+001
1.413474e+003,-8.834763e+000
1.414438e+003,-5.998383e+000
1.415402e+003,-4.675766e+000
1.416366e+003,-4.735161e+000
1.417330e+003,-5.385277e+000
1.418295e+003,-6.483383e+000
1.419259e+003,-7.455887e+000
1.420223e+003,-7.625816e+000
1.421187e+003,-7.117516e+000
1.422152e+003,-6.407776e+000
1.423116e+003,-5.256149e+000
1.424080e+003,-4.528252e+000
1.425044e+003,-4.594162e+000
1.426009e+003,-5.138832e+000
1.426973e+003,-6.846848e+000
1.427937e+003,-8.487892e+000
1.428901e+003,-8.041763e+000
1.429865e+003,-5.871384e+000
1.430830e+003,-4.602043e+000
1.431794e+003,-5.964157e+000
1.432758e+003,-8.496666e+000
1.433722e+003,-9.212906e+000
1.434687e+003,-7.879753e+000
1.435651e+003,-6.797661e+000
1.436615e+003,-6.378387e+000
1.437579e+003,-5.959152e+000
1.438544e+003,-5.332626e+000
1.439508e+003,-4.800583e+000
1.440472e+003,-4.485794e+000
1.441436e+003,-4.370804e+000
1.442401e+003,-4.602448e+000
1.443365e+003,-5.151253e+000
1.444329e+003,-5.373055e+000
1.445293e+003,-4.723892e+000
1.446257e+003,-3.591766e+000
1.447222e+003,-2.491478e+000
1.448186e+003,-1.547012e+000
1.449150e+003,-1.647743e+000
1.450114e+003,-3.167244e+000
1.451079e+003,-4.595016e+000
1.452043e+003,-5.201927e+000
1.453007e+003,-5.189110e+000
1.453971e+003,-4.610115e+000
1.454936e+003,-3.621101e+000
1.455900e+003,-3.217613e+000
1.456864e+003,-3.761024e+000
1.457828e+003,-4.248802e+000
1.458792e+003,-4.102020e+000
1.459757e+003,-3.729080e+000
1.460721e+003,-3.489845e+000
1.461685e+003,-3.273499e+000
1.462649e+003,-2.623711e+000
1.463614e+003,-1.489708e+000
1.464578e+003,-7.358932e-001
1.465542e+003,-1.228966e+000
1.466506e+003,-2.538261e+000
1.467471e+003,-3.338043e+000
1.468435e+003,-3.481071e+000
1.469399e+003,-3.542191e+000
1.470363e+003,-3.532761e+000
1.471328e+003,-3.604446e+000
1.472292e+003,-3.843506e+000
1.473256e+003,-4.224586e+000
1.474220e+003,-4.887138e+000
1.475184e+003,-5.503471e+000
1.476149e+003,-5.506462e+000
1.477113e+003,-4.808983e+000
1.478077e+003,-3.905937e+000
1.479041e+003,-3.226662e+000
1.480006e+003,-2.706764e+000
1.480970e+003,-2.251534e+000
1.481934e+003,-1.842453e+000
1.482898e+003,-1.883186e+000
1.483863e+003,-2.889351e+000
1.484827e+003,-3.592651e+000
1.485791e+003,-3.410454e+000
1.486755e+003,-2.911720e+000
1.487719e+003,-2.722191e+000
1.488684e+003,-2.718704e+000
1.489648e+003,-2.167831e+000
1.490612e+003,-8.521271e-001
1.491576e+003,-1.927948e-002
1.492541e+003,-9.682922e-001
1.493505e+003,-2.646301e+000
1.494469e+003,-2.589592e+000
1.495433e+003,-1.145912e+000
1.496398e+003,4.492950e-002
1.497362e+003,8.456192e-001
1.498326e+003,1.528313e+000
1.499290e+003,2.071228e+000
1.500255e+003,2.667625e+000
1.501219e+003,3.602180e+000
1.502183e+003,4.814323e+000
1.503147e+003,6.077782e+000
1.504111e+003,7.412628e+000
1.505076e+003,8.413551e+000
1.506040e+003,8.534386e+000
1.507004e+003,8.566162e+000
1.507968e+003,9.122063e+000
1.508933e+003,1.021790e+001
1.509897e+003,1.200435e+001
1.510861e+003,1.453762e+001
1.511825e+003,1.740012e+001
1.512790e+003,2.041259e+001
1.513754e+003,2.319059e+001
1.514718e+003,2.478215e+001
1.515682e+003,2.515900e+001
1.516646e+003,2.656619e+001
1.517611e+003,2.976728e+001
1.518575e+003,3.274301e+001
1.519539e+003,3.551721e+001
1.520503e+003,3.731405e+001
1.521468e+003,3.723444e+001
1.522432e+003,3.609682e+001
1.523396e+003,3.475206e+001
1.524360e+003,3.356179e+001
1.525325e+003,3.296204e+001
1.526289e+003,3.326041e+001
1.527253e+003,3.365491e+001
1.528217e+003,3.262344e+001
1.529182e+003,3.018356e+001
1.530146e+003,2.799715e+001
1.531110e+003,2.644628e+001
1.532074e+003,2.433393e+001
1.533039e+003,2.101411e+001
1.534003e+003,1.761469e+001
1.534967e+003,1.460426e+001
1.535931e+003,1.199325e+001
1.536896e+003,9.607925e+000
1.537860e+003,7.556229e+000
1.538824e+003,6.322899e+000
1.539788e+003,6.067604e+000
1.540752e+003,5.959435e+000
1.541717e+003,4.915237e+000
1.542681e+003,3.187500e+000
1.543645e+003,2.224792e+000
1.544609e+003,2.408760e+000
1.545573e+003,2.588516e+000
1.546538e+003,2.587906e+000
1.547502e+003,2.653336e+000
1.548466e+003,2.662247e+000
1.549430e+003,3.089043e+000
1.550395e+003,4.929375e+000
1.551359e+003,7.486008e+000
1.552323e+003,8.786186e+000
1.553287e+003,8.184029e+000
1.554252e+003,6.765152e+000
1.555216e+003,5.355156e+000
1.556180e+003,4.077057e+000
1.557144e+003,3.315544e+000
1.558109e+003,3.115936e+000
1.559073e+003,2.561958e+000
1.560037e+003,1.209442e+000
1.561001e+003,2.306213e-001
1.561966e+003,3.445435e-002
1.562930e+003,4.930267e-001
1.563894e+003,1.758232e+000
1.564858e+003,3.446526e+000
1.565823e+003,4.986855e+000
1.566787e+003,6.180641e+000
1.567751e+003,6.020760e+000
1.568715e+003,3.544395e+000
1.569679e+003,7.326202e-001
1.570644e+003,-2.310181e-002
1.571608e+003,8.494492e-001
1.572572e+003,2.438972e+000
1.573536e+003,4.797295e+000
1.574500e+003,6.096916e+000
1.575465e+003,5.090179e+000
1.576429e+003,3.830910e+000
1.577393e+003,4.024811e+000
1.578357e+003,5.058540e+000
1.579322e+003,5.832520e+000
1.580286e+003,6.288506e+000
1.581250e+003,6.721184e+000
1.582214e+003,7.279602e+000
1.583179e+003,7.566063e+000
1.584143e+003,6.774246e+000
1.585107e+003,5.968857e+000
1.586071e+003,7.094421e+000
1.587036e+003,9.463692e+000
1.588000e+003,1.068942e+001
1.588964e+003,1.019418e+001
1.589928e+003,9.008926e+000
1.590893e+003,7.111069e+000
1.591857e+003,5.602882e+000
1.592821e+003,6.789413e+000
1.593785e+003,1.006931e+001
1.594750e+003,1.168201e+001
1.595714e+003,1.087956e+001
1.596678e+003,1.017970e+001
1.597642e+003,1.080844e+001
1.598606e+003,1.152259e+001
1.599571e+003,1.113132e+001
1.600535e+003,1.038289e+001
1.601499e+003,1.018671e+001
1.602463e+003,1.056043e+001
1.603427e+003,1.125588e+001
1.604392e+003,1.224451e+001
1.605356e+003,1.299627e+001
1.606320e+003,1.274495e+001
1.607284e+003,1.192461e+001
1.608249e+003,1.196700e+001
1.609213e+003,1.292391e+001
1.610177e+003,1.295390e+001
1.611141e+003,1.118330e+001
1.612106e+003,9.902168e+000
1.613070e+003,1.052769e+001
1.614034e+003,1.177967e+001
1.614998e+003,1.302976e+001
1.615963e+003,1.415949e+001
1.616927e+003,1.513228e+001
1.617891e+003,1.586675e+001
1.618855e+003,1.593181e+001
1.619820e+003,1.493957e+001
1.620784e+003,1.365451e+001
1.621748e+003,1.330307e+001
1.622712e+003,1.381683e+001
1.623677e+003,1.427221e+001
1.624641e+003,1.463717e+001
1.625605e+003,1.517119e+001
1.626569e+003,1.611353e+001
1.627533e+003,1.660905e+001
1.628498e+003,1.609824e+001
1.629462e+003,1.526463e+001
1.630426e+003,1.442365e+001
1.631390e+003,1.376002e+001
1.632354e+003,1.364664e+001
1.633319e+003,1.411078e+001
1.634283e+003,1.460664e+001
1.635247e+003,1.467088e+001
1.636211e+003,1.468542e+001
1.637176e+003,1.569772e+001
1.638140e+003,1.758979e+001
1.639104e+003,1.786742e+001
1.640068e+003,1.573699e+001
1.641033e+003,1.472960e+001
1.641997e+003,1.678076e+001
1.642961e+003,1.865975e+001
1.643925e+003,1.881903e+001
1.644890e+003,1.801801e+001
1.645854e+003,1.635281e+001
1.646818e+003,1.447678e+001
1.647782e+003,1.400007e+001
1.648747e+003,1.529369e+001
1.649711e+003,1.652205e+001
1.650675e+003,1.616701e+001
1.651639e+003,1.490578e+001
1.652604e+003,1.388123e+001
1.653568e+003,1.307230e+001
1.654532e+003,1.288817e+001
1.655496e+003,1.339408e+001
1.656460e+003,1.441257e+001
1.657425e+003,1.659665e+001
1.658389e+003,1.837157e+001
1.659353e+003,1.923644e+001
1.660317e+003,1.906070e+001
1.661281e+003,1.708128e+001
1.662246e+003,1.398088e+001
1.663210e+003,1.156169e+001
1.664174e+003,1.044585e+001
1.665138e+003,1.026064e+001
1.666103e+003,1.082093e+001
1.667067e+003,1.179951e+001
1.668031e+003,1.280795e+001
1.668995e+003,1.379425e+001
1.669960e+003,1.364593e+001
1.670924e+003,1.193165e+001
1.671888e+003,1.066935e+001
1.672852e+003,1.079815e+001
1.673817e+003,1.099337e+001
1.674781e+003,1.012003e+001
1.675745e+003,9.075302e+000
1.676709e+003,8.999039e+000
1.677674e+003,9.631050e+000
1.678638e+003,9.772888e+000
1.679602e+003,9.067139e+000
1.680566e+003,8.875488e+000
1.681531e+003,1.083984e+001
1.682495e+003,1.321910e+001
1.683459e+003,1.236907e+001
1.684423e+003,8.947899e+000
1.685387e+003,7.649643e+000
1.686352e+003,9.207817e+000
1.687316e+003,1.032436e+001
1.688280e+003,9.685921e+000
1.689244e+003,8.866859e+000
1.690208e+003,9.490387e+000
1.691173e+003,1.019009e+001
1.692137e+003,9.088737e+000
1.693101e+003,6.811211e+000
1.694065e+003,5.546783e+000
1.695030e+003,5.824715e+000
1.695994e+003,5.860893e+000
1.696958e+003,4.021683e+000
1.697922e+003,2.099937e+000
1.698887e+003,2.850105e+000
1.699851e+003,5.277840e+000
1.700815e+003,6.191620e+000
1.701779e+003,5.317993e+000
1.702744e+003,4.422050e+000
1.703708e+003,4.088715e+000
1.704672e+003,3.921432e+000
1.705636e+003,3.458916e+000
1.706601e+003,3.055847e+000
1.707565e+003,3.551819e+000
1.708529e+003,4.637352e+000
1.709493e+003,5.209854e+000
1.710458e+003,5.108391e+000
1.711422e+003,4.754990e+000
1.712386e+003,3.981895e+000
1.713350e+003,3.503761e+000
1.714314e+003,4.230598e+000
1.715279e+003,5.339951e+000
1.716243e+003,5.369194e+000
1.717207e+003,4.457031e+000
1.718171e+003,3.714897e+000
1.719135e+003,3.460999e+000
1.720100e+003,3.847618e+000
1.721064e+003,5.282242e+000
1.722028e+003,6.419098e+000
1.722992e+003,4.954842e+000
1.723957e+003,1.577919e+000
1.724921e+003,1.250458e-002
1.725885e+003,3.529816e-001
1.726849e+003,1.054169e+000
1.727814e+003,2.242126e+000
1.728778e+003,3.436607e+000
1.729742e+003,4.852364e+000
1.730706e+003,5.774040e+000
1.731671e+003,5.031387e+000
1.732635e+003,3.329605e+000
1.733599e+003,2.347435e+000
1.734563e+003,2.338425e+000
1.735528e+003,2.281181e+000
1.736492e+003,1.610374e+000
1.737456e+003,7.983932e-001
1.738420e+003,3.925323e-001
1.739385e+003,2.820358e-001
1.740349e+003,1.787796e-001
1.741313e+003,1.321411e-002
1.742277e+003,4.016190e-001
1.743241e+003,2.172020e+000
1.744206e+003,3.247185e+000
1.745170e+003,2.714020e+000
1.746134e+003,2.129051e+000
1.747098e+003,2.841011e+000
1.748063e+003,3.595589e+000
1.749027e+003,2.388367e+000
1.749991e+003,-4.341888e-002
1.750955e+003,-1.143547e+000
1.751919e+003,-2.467880e-001
1.752884e+003,5.759201e-001
1.753848e+003,-4.122009e-001
1.754812e+003,-1.987633e+000
1.755776e+003,-1.507095e+000
1.756741e+003,9.746246e-001
1.757705e+003,2.167610e+000
1.758669e+003,1.370071e+000
1.759633e+003,1.244003e+000
1.760598e+003,2.862282e+000
1.761562e+003,3.915596e+000
1.762526e+003,3.543678e+000
1.763490e+003,2.670731e+000
1.764455e+003,1.739067e+000
1.765419e+003,8.664856e-001
1.766383e+003,-1.461182e-001
1.767347e+003,-1.111168e+000
1.768312e+003,-9.425583e-001
1.769276e+003,8.927612e-001
1.770240e+003,2.500313e+000
1.771204e+003,1.568802e+000
1.772168e+003,-5.059280e-001
1.773133e+003,-2.624512e-001
1.774097e+003,1.980515e+000
1.775061e+003,2.959755e+000
1.776025e+003,2.206322e+000
1.776990e+003,8.438568e-001
1.777954e+003,-1.304398e+000
1.778918e+003,-2.585930e+000
1.779882e+003,-9.883270e-001
1.780846e+003,1.404984e+000
1.781811e+003,1.579941e+000
1.782775e+003,2.260437e-001
1.783739e+003,-2.881699e-001
1.784703e+003,4.720993e-001
1.785668e+003,9.900970e-001
1.786632e+003,3.858566e-001
1.787596e+003,-4.162827e-001
1.788560e+003,-7.917709e-001
1.789525e+003,-8.014755e-001
1.790489e+003,-5.940857e-001
1.791453e+003,-1.775131e-001
1.792417e+003,7.466125e-001
1.793382e+003,2.124069e+000
1.794346e+003,2.821991e+000
1.795310e+003,2.174713e+000
1.796274e+003,1.438293e+000
1.797239e+003,2.190636e+000
1.798203e+003,3.851440e+000
1.799167e+003,4.360207e+000
1.800131e+003,3.435974e+000
1.801095e+003,2.563866e+000
1.802060e+003,1.609451e+000
1.803024e+003,1.102837e+000
1.803988e+003,1.103729e+000
1.804952e+003,1.483459e+000
1.805917e+003,2.495193e+000
1.806881e+003,3.587639e+000
1.807845e+003,4.525421e+000
1.808809e+003,5.031822e+000
1.809773e+003,4.485397e+000
1.810738e+003,2.981476e+000
1.811702e+003,1.577866e+000
1.812666e+003,9.313354e-001
1.813630e+003,6.144028e-001
1.814595e+003,-1.966858e-002
1.815559e+003,-7.226639e-001
1.816523e+003,-2.158661e-001
1.817487e+003,1.675659e+000
1.818452e+003,2.862373e+000
1.819416e+003,3.084457e+000
1.820380e+003,3.226112e+000
1.821344e+003,3.755630e+000
1.822309e+003,3.832321e+000
1.823273e+003,2.069389e+000
1.824237e+003,3.960114e-001
1.825201e+003,1.470329e+000
1.826166e+003,4.121346e+000
1.827130e+003,4.938934e+000
1.828094e+003,3.361809e+000
1.829058e+003,1.837585e+000
1.830022e+003,1.455246e+000
1.830987e+003,1.678093e+000
1.831951e+003,2.430618e+000
1.832915e+003,3.253540e+000
1.833879e+003,3.386612e+000
1.834844e+003,3.013428e+000
1.835808e+003,2.731613e+000
1.836772e+003,2.660431e+000
1.837736e+003,2.792328e+000
1.838700e+003,3.115578e+000
1.839665e+003,3.340332e+000
1.840629e+003,3.240112e+000
1.841593e+003,2.804672e+000
1.842557e+003,1.801392e+000
1.843522e+003,2.537766e-001
1.844486e+003,1.798630e-001
1.845450e+003,2.987045e+000
1.846414e+003,4.666412e+000
1.847379e+003,4.608185e+000
1.848343e+003,4.106316e+000
1.849307e+003,3.149254e+000
1.850271e+003,2.331329e+000
1.851236e+003,2.307907e+000
1.852200e+003,2.563393e+000
1.853164e+003,2.134041e+000
1.854128e+003,1.172592e+000
1.855093e+003,6.538849e-001
1.856057e+003,9.812164e-001
1.857021e+003,1.849632e+000
1.857985e+003,3.096451e+000
1.858949e+003,4.149002e+000
1.859914e+003,3.680473e+000
1.860878e+003,2.105583e+000
1.861842e+003,1.798347e+000
1.862806e+003,2.783722e+000
1.863771e+003,3.943756e+000
1.864735e+003,5.301506e+000
1.865699e+003,5.757736e+000
1.866663e+003,4.549118e+000
1.867627e+003,2.905144e+000
1.868592e+003,1.483803e+000
1.869556e+003,5.281448e-001
1.870520e+003,8.034668e-001
1.871484e+003,2.089607e+000
1.872449e+003,2.919167e+000
1.873413e+003,3.136948e+000
1.874377e+003,3.478477e+000
1.875341e+003,4.327568e+000
1.876306e+003,4.903481e+000
1.877270e+003,4.365875e+000
1.878234e+003,3.713570e+000
1.879198e+003,4.243568e+000
1.880163e+003,5.317345e+000
1.881127e+003,5.620728e+000
1.882091e+003,5.092865e+000
1.883055e+003,4.404724e+000
1.884020e+003,3.900818e+000
1.884984e+003,3.801338e+000
1.885948e+003,4.324547e+000
1.886912e+003,5.165520e+000
1.887876e+003,5.793907e+000
1.888841e+003,6.181221e+000
1.889805e+003,5.717560e+000
1.890769e+003,4.099052e+000
1.891733e+003,3.293808e+000
1.892698e+003,3.643448e+000
1.893662e+003,4.382111e+000
1.894626e+003,5.939735e+000
1.895590e+003,6.941833e+000
1.896554e+003,5.877464e+000
1.897519e+003,4.199989e+000
1.898483e+003,3.489029e+000
1.899447e+003,3.623924e+000
1.900411e+003,4.235672e+000
1.901376e+003,5.343086e+000
1.902340e+003,5.818947e+000
1.903304e+003,4.533066e+000
1.904268e+003,3.614738e+000
1.905233e+003,5.128258e+000
1.906197e+003,6.943184e+000
1.907161e+003,6.710800e+000
1.908125e+003,5.252518e+000
1.909090e+003,3.745575e+000
1.910054e+003,2.688103e+000
1.911018e+003,3.202644e+000
1.911982e+003,5.404167e+000
1.912947e+003,7.158279e+000
1.913911e+003,6.888786e+000
1.914875e+003,5.764244e+000
1.915839e+003,5.604683e+000
1.916803e+003,6.115715e+000
1.917768e+003,5.850616e+000
1.918732e+003,4.598961e+000
1.919696e+003,4.212013e+000
1.920660e+003,5.091553e+000
1.921625e+003,5.821915e+000
1.922589e+003,5.830788e+000
1.923553e+003,6.014389e+000
1.924517e+003,7.128319e+000
1.925481e+003,8.375595e+000
1.926446e+003,9.124931e+000
1.927410e+003,9.481590e+000
1.928374e+003,9.662025e+000
1.929338e+003,9.655655e+000
1.930303e+003,9.393265e+000
1.931267e+003,8.842079e+000
1.932231e+003,8.312614e+000
1.933195e+003,7.854820e+000
1.934160e+003,7.466576e+000
1.935124e+003,7.188889e+000
1.936088e+003,6.920692e+000
1.937052e+003,6.394852e+000
1.938017e+003,5.905106e+000
1.938981e+003,6.126297e+000
1.939945e+003,7.038292e+000
1.940909e+003,8.119446e+000
1.941874e+003,9.056793e+000
1.942838e+003,9.540215e+000
1.943802e+003,9.312263e+000
1.944766e+003,8.595261e+000
1.945730e+003,7.643646e+000
1.946695e+003,6.501289e+000
1.947659e+003,5.719681e+000
1.948623e+003,5.251976e+000
1.949587e+003,5.709900e+000
1.950552e+003,7.557838e+000
1.951516e+003,8.754547e+000
1.952480e+003,8.391083e+000
1.953444e+003,7.702499e+000
1.954408e+003,7.291145e+000
1.955373e+003,7.223953e+000
1.956337e+003,7.863785e+000
1.957301e+003,9.006210e+000
1.958265e+003,9.872726e+000
1.959230e+003,1.049664e+001
1.960194e+003,1.042644e+001
1.961158e+003,8.698097e+000
1.962122e+003,7.501610e+000
1.963087e+003,7.671494e+000
1.964051e+003,8.208618e+000
1.965015e+003,8.677757e+000
1.965979e+003,9.196938e+000
1.966944e+003,1.009438e+001
1.967908e+003,1.099619e+001
1.968872e+003,1.113692e+001
1.969836e+003,1.060815e+001
1.970801e+003,1.027511e+001
1.971765e+003,1.050295e+001
1.972729e+003,1.084281e+001
1.973693e+003,1.090726e+001
1.974657e+003,1.088412e+001
1.975622e+003,1.121140e+001
1.976586e+003,1.158707e+001
1.977550e+003,1.085780e+001
1.978514e+003,9.387009e+000
1.979479e+003,9.506058e+000
1.980443e+003,1.141929e+001
1.981407e+003,1.263054e+001
1.982371e+003,1.221667e+001
1.983335e+003,1.123102e+001
1.984300e+003,1.037212e+001
1.985264e+003,9.609772e+000
1.986228e+003,8.848312e+000
1.987192e+003,8.280838e+000
1.988157e+003,9.042480e+000
1.989121e+003,1.165640e+001
1.990085e+003,1.293404e+001
1.991049e+003,1.211958e+001
1.992014e+003,1.155212e+001
1.992978e+003,1.163425e+001
1.993942e+003,1.177160e+001
1.994906e+003,1.193492e+001
1.995871e+003,1.191069e+001
1.996835e+003,1.116478e+001
1.997799e+003,1.038598e+001
1.998763e+003,1.081622e+001
1.999728e+003,1.214281e+001
