5.003444e+002,2.729364e+001
5.013087e+002,2.906476e+001
5.022729e+002,2.868848e+001
5.032371e+002,2.690314e+001
5.042014e+002,2.508807e+001
5.051656e+002,2.334991e+001
5.061298e+002,2.177661e+001
5.070941e+002,2.031897e+001
5.080583e+002,1.867493e+001
5.090225e+002,1.777356e+001
5.099868e+002,1.784955e+001
5.109510e+002,1.811731e+001
5.119152e+002,1.845428e+001
5.128795e+002,1.892328e+001
5.138437e+002,1.867542e+001
5.148079e+002,1.601996e+001
5.157722e+002,1.405310e+001
5.167364e+002,1.475763e+001
5.177006e+002,1.771356e+001
5.186649e+002,2.011652e+001
5.196291e+002,1.761725e+001
5.205933e+002,1.411395e+001
5.215576e+002,1.399969e+001
5.225218e+002,1.713043e+001
5.234860e+002,2.088959e+001
5.244503e+002,2.093396e+001
5.254145e+002,1.622009e+001
5.263787e+002,1.381134e+001
5.273430e+002,1.466589e+001
5.283072e+002,1.714929e+001
5.292714e+002,1.899475e+001
5.302357e+002,1.954376e+001
5.311999e+002,1.945917e+001
5.321641e+002,1.881769e+001
5.331284e+002,1.859235e+001
5.340926e+002,1.984808e+001
5.350568e+002,2.293488e+001
5.360211e+002,2.483069e+001
5.369853e+002,2.210919e+001
5.379495e+002,1.821252e+001
5.389138e+002,1.580176e+001
5.398780e+002,1.580688e+001
5.408422e+002,1.710864e+001
5.418065e+002,1.668506e+001
5.427707e+002,1.482703e+001
5.437349e+002,1.368860e+001
5.446992e+002,1.390808e+001
5.456634e+002,1.504785e+001
5.466276e+002,1.571722e+001
5.475919e+002,1.576019e+001
5.485561e+002,1.574457e+001
5.495203e+002,1.573828e+001
5.504846e+002,1.535547e+001
5.514488e+002,1.397687e+001
5.524130e+002,1.088751e+001
5.533773e+002,8.610840e+000
5.543415e+002,9.239441e+000
5.553057e+002,1.074768e+001
5.562700e+002,1.069073e+001
5.572342e+002,7.543396e+000
5.581984e+002,3.078186e+000
5.591627e+002,2.062439e+000
5.601269e+002,3.528503e+000
5.610911e+002,5.417542e+000
5.620554e+002,6.606628e+000
5.630196e+002,6.977051e+000
5.639838e+002,6.786133e+000
5.649481e+002,6.513306e+000
5.659123e+002,5.075745e+000
5.668765e+002,1.311890e+000
5.678408e+002,-3.302307e+000
5.688050e+002,-4.955627e+000
5.697692e+002,-4.608154e-001
5.707335e+002,2.818359e+000
5.716977e+002,2.120544e+000
5.726619e+002,-5.747070e-001
5.736262e+002,-2.377441e+000
5.745904e+002,-1.113342e+000
5.755546e+002,1.123779e+000
5.765189e+002,-8.758545e-002
5.774831e+002,-3.311707e+000
5.784473e+002,-5.331604e+000
5.794116e+002,-3.809265e+000
5.803758e+002,1.072388e+000
5.813400e+002,3.517090e+000
5.823043e+002,2.609680e+000
5.832685e+002,1.089722e+000
5.842327e+002,-8.489990e-002
5.851970e+002,-6.555176e-001
5.861612e+002,-5.732422e-001
5.871254e+002,9.218750e-001
5.880897e+002,1.641907e+000
5.890539e+002,3.739014e-001
5.900181e+002,-2.020813e+000
5.909824e+002,-4.070435e+000
5.919466e+002,-4.861511e+000
5.929108e+002,-4.466797e+000
5.938751e+002,-3.242249e+000
5.948393e+002,-1.339050e+000
5.958035e+002,1.350830e+000
5.967678e+002,4.941956e+000
5.977320e+002,9.225098e+000
5.986962e+002,1.126685e+001
5.996605e+002,1.087756e+001
6.006247e+002,9.305908e+000
6.015889e+002,6.428467e+000
6.025532e+002,2.475159e+000
6.035174e+002,4.882813e-002
6.044816e+002,7.979126e-001
6.054459e+002,1.609436e+000
6.064101e+002,2.018250e+000
6.073743e+002,2.164734e+000
6.083386e+002,2.562622e+000
6.093028e+002,3.879333e+000
6.102670e+002,4.857178e+000
6.112313e+002,3.908081e+000
6.121955e+002,2.199341e+000
6.131597e+002,1.460266e+000
6.141240e+002,2.823853e+000
6.150882e+002,5.428162e+000
6.160524e+002,5.345459e+000
6.170167e+002,3.259216e+000
6.179809e+002,2.061035e+000
6.189451e+002,3.161621e+000
6.199094e+002,5.973511e+000
6.208736e+002,7.407654e+000
6.218378e+002,7.117432e+000
6.228021e+002,6.482483e+000
6.237663e+002,5.539429e+000
6.247305e+002,4.464111e+000
6.256948e+002,3.170898e+000
6.266590e+002,8.601685e-001
6.276232e+002,-7.890625e-001
6.285875e+002,7.281494e-002
6.295517e+002,2.041260e+000
6.305159e+002,3.703369e+000
6.314802e+002,4.128967e+000
6.324444e+002,3.331604e+000
6.334086e+002,1.149780e+000
6.343729e+002,-1.615479e+000
6.353371e+002,-3.592529e+000
6.363013e+002,-4.387207e+000
6.372656e+002,-4.271362e+000
6.382298e+002,-3.833984e+000
6.391940e+002,-1.723267e+000
6.401583e+002,-1.583984e+000
6.411225e+002,-4.780579e+000
6.420867e+002,-8.479248e+000
6.430510e+002,-9.200806e+000
6.440152e+002,-5.361145e+000
6.449794e+002,-2.339111e+000
6.459437e+002,-3.396118e+000
6.469079e+002,-5.837708e+000
6.478721e+002,-7.656921e+000
6.488364e+002,-8.006165e+000
6.498006e+002,-7.484680e+000
6.507648e+002,-7.290833e+000
6.517291e+002,-7.334473e+000
6.526933e+002,-7.220215e+000
6.536575e+002,-6.926880e+000
6.546218e+002,-6.099304e+000
6.555860e+002,-3.879272e+000
6.565502e+002,1.309326e+000
6.575145e+002,4.158997e+000
6.584787e+002,3.754150e+000
6.594429e+002,2.166748e+000
6.604072e+002,8.114014e-001
6.613714e+002,-1.262817e-001
6.623356e+002,-7.431030e-001
6.632999e+002,-1.060486e+000
6.642641e+002,-1.609253e+000
6.652283e+002,-2.806030e+000
6.661926e+002,-4.207092e+000
6.671568e+002,-4.675354e+000
6.681210e+002,-2.708313e+000
6.690853e+002,6.001587e-001
6.700495e+002,3.175598e+000
6.710137e+002,4.895203e+000
6.719780e+002,4.900391e+000
6.729422e+002,1.882446e+000
6.739064e+002,-5.374268e+000
6.748707e+002,-8.914856e+000
6.758349e+002,-7.453918e+000
6.767991e+002,-5.165344e+000
6.777634e+002,-2.689880e+000
6.787276e+002,-6.286621e-002
6.796918e+002,1.313904e+000
6.806561e+002,-1.605469e+000
6.816203e+002,-3.847351e+000
6.825845e+002,-2.714172e+000
6.835488e+002,2.996216e-001
6.845130e+002,2.449158e+000
6.854772e+002,1.633179e+000
6.864415e+002,-7.598877e-002
6.874057e+002,1.879822e+000
6.883699e+002,5.881836e+000
6.893342e+002,8.864685e+000
6.902984e+002,9.188538e+000
6.912626e+002,7.356201e+000
6.922269e+002,6.028625e+000
6.931911e+002,7.165039e+000
6.941553e+002,7.207886e+000
6.951196e+002,4.022644e+000
6.960838e+002,-4.959717e-001
6.970480e+002,-2.877075e+000
6.980123e+002,-1.441467e+000
6.989765e+002,3.389893e-001
6.999407e+002,9.385376e-001
7.009050e+002,1.082703e+000
7.018692e+002,1.239807e+000
7.028334e+002,1.560120e+000
7.037977e+002,1.905518e+000
7.047619e+002,2.532715e+000
7.057261e+002,3.345825e+000
7.066904e+002,3.159485e+000
7.076546e+002,1.761597e+000
7.086188e+002,4.531860e-001
7.095831e+002,1.465942e+000
7.105473e+002,6.085205e+000
7.115115e+002,8.099731e+000
7.124758e+002,5.940247e+000
7.134400e+002,3.077209e+000
7.144042e+002,1.734131e+000
7.153685e+002,2.137573e+000
7.163327e+002,2.611450e+000
7.172969e+002,2.542969e+000
7.182612e+002,2.341064e+000
7.192254e+002,2.426636e+000
7.201896e+002,2.270996e+000
7.211539e+002,6.834717e-001
7.221181e+002,-3.533020e+000
7.230823e+002,-8.792542e+000
7.240466e+002,-1.125684e+001
7.250108e+002,-1.099878e+001
7.259750e+002,-8.404053e+000
7.269393e+002,-3.558960e+000
7.279035e+002,2.561462e+000
7.288677e+002,5.214478e+000
7.298320e+002,1.830933e+000
7.307962e+002,-3.687744e-001
7.317604e+002,-5.925293e-001
7.327247e+002,5.813599e-001
7.336889e+002,2.182678e+000
7.346531e+002,3.583008e+000
7.356174e+002,4.201660e+000
7.365816e+002,4.441223e+000
7.375458e+002,4.781433e+000
7.385101e+002,5.814026e+000
7.394743e+002,7.471497e+000
7.404385e+002,8.795288e+000
7.414028e+002,7.836182e+000
7.423670e+002,4.413818e+000
7.433312e+002,1.742126e+000
7.442955e+002,6.027222e-001
7.452597e+002,9.317627e-001
7.462239e+002,2.656250e+000
7.471882e+002,6.218384e+000
7.481524e+002,8.316345e+000
7.491166e+002,6.637817e+000
7.500809e+002,5.239441e+000
7.510451e+002,6.270020e+000
7.520093e+002,9.018494e+000
7.529736e+002,1.069342e+001
7.539378e+002,1.001605e+001
7.549020e+002,8.892212e+000
7.558663e+002,8.148621e+000
7.568306e+002,7.824585e+000
7.577948e+002,7.933655e+000
7.587590e+002,8.315979e+000
7.597233e+002,8.481445e+000
7.606875e+002,7.525330e+000
7.616517e+002,5.906372e+000
7.626160e+002,5.149597e+000
7.635802e+002,6.014404e+000
7.645444e+002,7.750732e+000
7.655087e+002,8.670227e+000
7.664729e+002,8.245117e+000
7.674371e+002,7.790588e+000
7.684014e+002,6.543274e+000
7.693656e+002,5.940674e+000
7.703298e+002,7.505859e+000
7.712941e+002,1.118835e+001
7.722583e+002,1.463916e+001
7.732225e+002,1.637787e+001
7.741868e+002,1.677954e+001
7.751510e+002,1.542291e+001
7.761152e+002,1.304077e+001
7.770795e+002,1.107233e+001
7.780437e+002,1.074121e+001
7.790079e+002,1.170477e+001
7.799722e+002,1.197827e+001
7.809364e+002,1.155646e+001
7.819006e+002,1.095184e+001
7.828649e+002,1.056677e+001
7.838291e+002,1.055841e+001
7.847933e+002,1.087170e+001
7.857576e+002,1.166931e+001
7.867218e+002,1.113745e+001
7.876860e+002,8.299438e+000
7.886503e+002,5.448730e+000
7.896145e+002,4.621460e+000
7.905787e+002,6.262329e+000
7.915430e+002,8.636597e+000
7.925072e+002,9.733704e+000
7.934714e+002,9.924194e+000
7.944357e+002,1.034265e+001
7.953999e+002,1.113300e+001
7.963641e+002,1.127435e+001
7.973284e+002,9.321838e+000
7.982926e+002,5.007629e+000
7.992568e+002,4.514465e+000
8.002211e+002,9.558594e+000
8.011853e+002,1.268372e+001
8.021495e+002,1.005750e+001
8.031138e+002,4.247559e+000
8.040780e+002,3.039185e+000
8.050422e+002,1.070325e+001
8.060065e+002,1.718622e+001
8.069707e+002,1.835217e+001
8.079349e+002,1.699335e+001
8.088992e+002,1.620081e+001
8.098634e+002,1.717285e+001
8.108276e+002,1.815643e+001
8.117919e+002,1.521094e+001
8.127561e+002,9.971130e+000
8.137203e+002,7.588318e+000
8.146846e+002,9.020142e+000
8.156488e+002,1.158826e+001
8.166130e+002,1.151898e+001
8.175773e+002,7.782288e+000
8.185415e+002,7.035034e+000
8.195057e+002,1.112341e+001
8.204700e+002,1.455408e+001
8.214342e+002,1.500055e+001
8.223984e+002,1.341473e+001
8.233627e+002,1.241254e+001
8.243269e+002,1.282568e+001
8.252911e+002,1.453235e+001
8.262554e+002,1.909827e+001
8.272196e+002,2.356567e+001
8.281838e+002,2.387830e+001
8.291481e+002,1.915771e+001
8.301123e+002,1.314520e+001
8.310765e+002,1.291083e+001
8.320408e+002,1.775403e+001
8.330050e+002,1.901312e+001
8.339692e+002,1.551660e+001
8.349335e+002,1.104791e+001
8.358977e+002,9.795105e+000
8.368619e+002,1.254523e+001
8.378262e+002,1.439563e+001
8.387904e+002,1.321149e+001
8.397546e+002,1.274609e+001
8.407189e+002,1.505566e+001
8.416831e+002,1.852307e+001
8.426473e+002,1.982166e+001
8.436116e+002,1.693347e+001
8.445758e+002,1.426434e+001
8.455400e+002,1.712061e+001
8.465043e+002,2.164935e+001
8.474685e+002,2.406165e+001
8.484327e+002,2.365845e+001
8.493970e+002,2.225677e+001
8.503612e+002,2.239362e+001
8.513254e+002,2.423004e+001
8.522897e+002,2.508527e+001
8.532539e+002,2.476563e+001
8.542181e+002,2.337329e+001
8.551824e+002,2.051691e+001
8.561466e+002,1.696490e+001
8.571108e+002,1.586975e+001
8.580751e+002,1.840051e+001
8.590393e+002,2.090027e+001
8.600035e+002,2.325739e+001
8.609678e+002,2.514197e+001
8.619320e+002,2.569672e+001
8.628962e+002,2.469299e+001
8.638605e+002,2.376123e+001
8.648247e+002,2.620245e+001
8.657889e+002,3.028992e+001
8.667532e+002,3.245068e+001
8.677174e+002,3.221289e+001
8.686816e+002,3.087299e+001
8.696459e+002,2.998853e+001
8.706101e+002,2.991748e+001
8.715743e+002,2.928223e+001
8.725386e+002,2.587372e+001
8.735028e+002,2.476764e+001
8.744670e+002,2.831683e+001
8.754313e+002,3.421887e+001
8.763955e+002,3.848553e+001
8.773597e+002,3.975586e+001
8.783240e+002,4.037775e+001
8.792882e+002,4.266626e+001
8.802524e+002,4.447827e+001
8.812167e+002,4.333521e+001
8.821809e+002,3.925049e+001
8.831451e+002,3.450592e+001
8.841094e+002,3.210205e+001
8.850736e+002,3.236359e+001
8.860378e+002,3.348938e+001
8.870021e+002,3.536792e+001
8.879663e+002,3.741937e+001
8.889305e+002,3.990076e+001
8.898948e+002,4.224530e+001
8.908590e+002,4.176727e+001
8.918232e+002,3.510010e+001
8.927875e+002,3.178113e+001
8.937517e+002,3.613086e+001
8.947159e+002,4.253326e+001
8.956802e+002,4.621826e+001
8.966444e+002,4.591699e+001
8.976086e+002,4.372638e+001
8.985729e+002,4.145276e+001
8.995371e+002,3.974384e+001
9.005013e+002,3.901538e+001
9.014656e+002,3.941498e+001
9.024298e+002,4.082593e+001
9.033940e+002,4.301947e+001
9.043583e+002,4.553290e+001
9.053225e+002,4.720477e+001
9.062867e+002,4.655383e+001
9.072510e+002,4.637689e+001
9.082152e+002,4.848602e+001
9.091794e+002,5.082220e+001
9.101437e+002,5.069037e+001
9.111079e+002,4.758801e+001
9.120721e+002,4.515997e+001
9.130364e+002,4.590442e+001
9.140006e+002,4.698615e+001
9.149648e+002,4.698828e+001
9.159291e+002,4.655115e+001
9.168933e+002,4.720270e+001
9.178575e+002,4.977594e+001
9.188218e+002,5.285498e+001
9.197860e+002,5.151996e+001
9.207502e+002,4.543903e+001
9.217145e+002,4.121796e+001
9.226787e+002,4.100653e+001
9.236429e+002,4.322742e+001
9.246072e+002,4.582977e+001
9.255714e+002,4.879712e+001
9.265356e+002,5.065619e+001
9.274999e+002,5.101105e+001
9.284641e+002,5.004578e+001
9.294283e+002,4.674652e+001
9.303926e+002,4.270703e+001
9.313568e+002,4.074103e+001
9.323210e+002,4.239825e+001
9.332853e+002,4.493787e+001
9.342495e+002,4.345319e+001
9.352137e+002,3.986218e+001
9.361780e+002,3.697382e+001
9.371422e+002,3.573907e+001
9.381064e+002,3.637054e+001
9.390707e+002,3.906006e+001
9.400349e+002,4.400012e+001
9.409991e+002,4.673584e+001
9.419634e+002,4.627368e+001
9.429276e+002,4.503162e+001
9.438918e+002,4.327515e+001
9.448561e+002,4.140430e+001
9.458203e+002,3.976337e+001
9.467845e+002,3.835223e+001
9.477488e+002,3.832758e+001
9.487130e+002,4.219403e+001
9.496772e+002,4.644360e+001
9.506415e+002,4.790753e+001
9.516057e+002,4.675391e+001
9.525699e+002,4.537518e+001
9.535342e+002,4.608972e+001
9.544984e+002,4.834937e+001
9.554626e+002,4.847583e+001
9.564269e+002,4.635614e+001
9.573911e+002,4.578979e+001
9.583553e+002,4.865991e+001
9.593196e+002,5.302258e+001
9.602838e+002,5.612335e+001
9.612480e+002,5.799823e+001
9.622123e+002,5.724579e+001
9.631765e+002,5.017719e+001
9.641407e+002,4.401318e+001
9.651050e+002,4.288177e+001
9.660692e+002,4.502313e+001
9.670334e+002,4.623193e+001
9.679977e+002,4.409265e+001
9.689619e+002,4.099213e+001
9.699261e+002,4.153265e+001
9.708904e+002,4.436182e+001
9.718546e+002,4.712506e+001
9.728188e+002,4.929974e+001
9.737831e+002,5.055792e+001
9.747473e+002,5.012177e+001
9.757115e+002,4.740533e+001
9.766758e+002,4.703888e+001
9.776400e+002,5.231439e+001
9.786042e+002,5.660413e+001
9.795685e+002,5.809052e+001
9.805327e+002,5.724084e+001
9.814969e+002,5.467969e+001
9.824612e+002,5.085260e+001
9.834254e+002,4.755945e+001
9.843896e+002,4.632770e+001
9.853539e+002,4.606305e+001
9.863181e+002,4.569092e+001
9.872823e+002,4.500940e+001
9.882466e+002,4.466461e+001
9.892108e+002,4.560284e+001
9.901750e+002,4.825909e+001
9.911393e+002,5.161371e+001
9.921035e+002,5.579071e+001
9.930677e+002,5.798077e+001
9.940320e+002,5.653265e+001
9.949962e+002,5.506128e+001
9.959604e+002,5.725238e+001
9.969247e+002,6.329919e+001
9.978889e+002,6.939276e+001
9.988531e+002,7.289093e+001
9.998174e+002,7.579608e+001
1.000782e+003,8.059808e+001
1.001746e+003,8.593140e+001
1.002710e+003,8.945801e+001
1.003674e+003,9.016449e+001
1.004639e+003,8.909894e+001
1.005603e+003,8.807825e+001
1.006567e+003,8.694464e+001
1.007531e+003,8.554443e+001
1.008495e+003,8.338684e+001
1.009460e+003,8.204077e+001
1.010424e+003,8.244751e+001
1.011388e+003,8.458923e+001
1.012352e+003,8.861786e+001
1.013317e+003,9.714612e+001
1.014281e+003,1.014155e+002
1.015245e+003,9.725055e+001
1.016209e+003,8.988806e+001
1.017174e+003,8.240662e+001
1.018138e+003,7.573230e+001
1.019102e+003,6.942206e+001
1.020066e+003,6.308423e+001
1.021031e+003,5.760669e+001
1.021995e+003,5.534058e+001
1.022959e+003,5.523041e+001
1.023923e+003,5.476337e+001
1.024887e+003,5.332434e+001
1.025852e+003,5.062457e+001
1.026816e+003,4.569196e+001
1.027780e+003,3.775708e+001
1.028744e+003,3.290393e+001
1.029709e+003,3.349213e+001
1.030673e+003,3.474506e+001
1.031637e+003,3.579828e+001
1.032601e+003,3.621118e+001
1.033566e+003,3.538342e+001
1.034530e+003,3.329968e+001
1.035494e+003,3.176007e+001
1.036458e+003,3.346997e+001
1.037422e+003,3.618970e+001
1.038387e+003,3.580475e+001
1.039351e+003,3.243353e+001
1.040315e+003,2.928064e+001
1.041279e+003,2.887579e+001
1.042244e+003,3.090186e+001
1.043208e+003,3.308722e+001
1.044172e+003,3.601068e+001
1.045136e+003,3.702448e+001
1.046101e+003,3.539600e+001
1.047065e+003,3.310236e+001
1.048029e+003,3.054791e+001
1.048993e+003,2.818054e+001
1.049958e+003,2.754010e+001
1.050922e+003,3.013190e+001
1.051886e+003,3.337054e+001
1.052850e+003,3.419238e+001
1.053814e+003,3.403131e+001
1.054779e+003,3.488031e+001
1.055743e+003,3.700629e+001
1.056707e+003,3.904755e+001
1.057671e+003,3.935315e+001
1.058636e+003,3.782361e+001
1.059600e+003,3.685199e+001
1.060564e+003,3.743396e+001
1.061528e+003,3.815912e+001
1.062493e+003,3.871106e+001
1.063457e+003,3.860742e+001
1.064421e+003,3.736145e+001
1.065385e+003,3.512622e+001
1.066349e+003,3.317395e+001
1.067314e+003,3.219855e+001
1.068278e+003,3.171967e+001
1.069242e+003,3.104230e+001
1.070206e+003,3.088184e+001
1.071171e+003,3.313495e+001
1.072135e+003,3.790442e+001
1.073099e+003,4.165594e+001
1.074063e+003,3.843054e+001
1.075028e+003,2.739838e+001
1.075992e+003,2.225476e+001
1.076956e+003,2.550592e+001
1.077920e+003,2.853021e+001
1.078885e+003,2.805231e+001
1.079849e+003,2.591730e+001
1.080813e+003,2.537445e+001
1.081777e+003,2.719843e+001
1.082741e+003,2.905084e+001
1.083706e+003,2.880566e+001
1.084670e+003,2.823969e+001
1.085634e+003,2.811853e+001
1.086598e+003,2.850043e+001
1.087563e+003,2.963733e+001
1.088527e+003,3.174591e+001
1.089491e+003,3.433527e+001
1.090455e+003,3.589563e+001
1.091420e+003,3.595490e+001
1.092384e+003,3.481464e+001
1.093348e+003,3.140149e+001
1.094312e+003,2.812634e+001
1.095276e+003,2.706415e+001
1.096241e+003,2.769092e+001
1.097205e+003,2.750690e+001
1.098169e+003,2.536725e+001
1.099133e+003,2.396863e+001
1.100098e+003,2.443427e+001
1.101062e+003,2.612964e+001
1.102026e+003,2.957269e+001
1.102990e+003,3.389893e+001
1.103955e+003,3.749847e+001
1.104919e+003,3.931781e+001
1.105883e+003,3.951172e+001
1.106847e+003,3.828949e+001
1.107812e+003,3.559882e+001
1.108776e+003,3.435944e+001
1.109740e+003,3.538580e+001
1.110704e+003,3.643976e+001
1.111668e+003,3.545135e+001
1.112633e+003,3.351904e+001
1.113597e+003,3.471619e+001
1.114561e+003,4.081140e+001
1.115525e+003,4.592365e+001
1.116490e+003,4.821552e+001
1.117454e+003,4.901672e+001
1.118418e+003,4.880011e+001
1.119382e+003,4.835089e+001
1.120347e+003,4.846790e+001
1.121311e+003,4.930597e+001
1.122275e+003,5.011334e+001
1.123239e+003,5.056696e+001
1.124203e+003,5.116980e+001
1.125168e+003,5.147864e+001
1.126132e+003,5.132501e+001
1.127096e+003,5.158484e+001
1.128060e+003,5.269977e+001
1.129025e+003,5.445166e+001
1.129989e+003,5.652112e+001
1.130953e+003,5.875348e+001
1.131917e+003,6.121442e+001
1.132882e+003,6.450623e+001
1.133846e+003,6.778546e+001
1.134810e+003,7.046466e+001
1.135774e+003,7.276813e+001
1.136739e+003,7.504150e+001
1.137703e+003,7.747101e+001
1.138667e+003,8.051270e+001
1.139631e+003,8.524927e+001
1.140595e+003,9.149487e+001
1.141560e+003,9.764825e+001
1.142524e+003,1.033967e+002
1.143488e+003,1.111798e+002
1.144452e+003,1.225234e+002
1.145417e+003,1.370621e+002
1.146381e+003,1.539645e+002
1.147345e+003,1.745143e+002
1.148309e+003,1.934138e+002
1.149274e+003,2.091003e+002
1.150238e+003,2.237196e+002
1.151202e+003,2.374908e+002
1.152166e+003,2.516561e+002
1.153130e+003,2.691396e+002
1.154095e+003,2.903846e+002
1.155059e+003,3.092390e+002
1.156023e+003,3.174996e+002
1.156987e+003,3.155898e+002
1.157952e+003,3.101078e+002
1.158916e+003,3.014456e+002
1.159880e+003,2.918733e+002
1.160844e+003,2.825770e+002
1.161809e+003,2.717145e+002
1.162773e+003,2.556228e+002
1.163737e+003,2.329036e+002
1.164701e+003,2.115300e+002
1.165666e+003,1.945272e+002
1.166630e+003,1.788036e+002
1.167594e+003,1.609384e+002
1.168558e+003,1.445901e+002
1.169522e+003,1.357892e+002
1.170487e+003,1.356218e+002
1.171451e+003,1.386359e+002
1.172415e+003,1.387972e+002
1.173379e+003,1.365645e+002
1.174344e+003,1.355352e+002
1.175308e+003,1.360817e+002
1.176272e+003,1.350693e+002
1.177236e+003,1.309128e+002
1.178201e+003,1.254395e+002
1.179165e+003,1.201593e+002
1.180129e+003,1.147301e+002
1.181093e+003,1.109970e+002
1.182057e+003,1.113365e+002
1.183022e+003,1.109058e+002
1.183986e+003,1.073127e+002
1.184950e+003,1.026868e+002
1.185914e+003,9.821588e+001
1.186879e+003,9.491064e+001
1.187843e+003,9.459888e+001
1.188807e+003,9.874152e+001
1.189771e+003,1.051945e+002
1.190736e+003,1.078091e+002
1.191700e+003,1.060657e+002
1.192664e+003,1.051829e+002
1.193628e+003,1.068942e+002
1.194593e+003,1.083904e+002
1.195557e+003,1.074122e+002
1.196521e+003,1.044413e+002
1.197485e+003,1.012457e+002
1.198449e+003,9.791876e+001
1.199414e+003,9.516296e+001
1.200378e+003,9.403931e+001
1.201342e+003,9.297766e+001
1.202306e+003,9.119885e+001
1.203271e+003,8.837042e+001
1.204235e+003,8.377045e+001
1.205199e+003,7.740314e+001
1.206163e+003,7.130969e+001
1.207128e+003,6.910498e+001
1.208092e+003,7.116882e+001
1.209056e+003,6.868500e+001
1.210020e+003,5.881384e+001
1.210984e+003,5.092761e+001
1.211949e+003,4.920386e+001
1.212913e+003,4.975159e+001
1.213877e+003,4.753760e+001
1.214841e+003,4.240265e+001
1.215806e+003,3.787939e+001
1.216770e+003,3.493939e+001
1.217734e+003,3.346368e+001
1.218698e+003,3.424451e+001
1.219663e+003,3.529260e+001
1.220627e+003,3.363635e+001
1.221591e+003,2.930505e+001
1.222555e+003,2.535297e+001
1.223520e+003,2.472693e+001
1.224484e+003,2.671875e+001
1.225448e+003,2.710205e+001
1.226412e+003,2.445490e+001
1.227376e+003,2.316492e+001
1.228341e+003,2.458398e+001
1.229305e+003,2.551392e+001
1.230269e+003,2.348590e+001
1.231233e+003,1.989435e+001
1.232198e+003,1.776697e+001
1.233162e+003,1.807709e+001
1.234126e+003,1.967047e+001
1.235090e+003,2.269104e+001
1.236055e+003,2.507819e+001
1.237019e+003,2.439886e+001
1.237983e+003,2.131439e+001
1.238947e+003,1.750171e+001
1.239911e+003,1.390186e+001
1.240876e+003,1.192346e+001
1.241840e+003,1.387775e+001
1.242804e+003,2.012256e+001
1.243768e+003,2.406171e+001
1.244733e+003,2.278790e+001
1.245697e+003,2.304272e+001
1.246661e+003,2.655981e+001
1.247625e+003,2.990869e+001
1.248590e+003,3.085675e+001
1.249554e+003,2.981982e+001
1.250518e+003,2.797241e+001
1.251482e+003,2.551031e+001
1.252447e+003,2.313959e+001
1.253411e+003,2.175659e+001
1.254375e+003,2.174890e+001
1.255339e+003,2.414252e+001
1.256303e+003,2.897375e+001
1.257268e+003,3.302441e+001
1.258232e+003,3.382324e+001
1.259196e+003,3.270300e+001
1.260160e+003,3.294751e+001
1.261125e+003,3.507166e+001
1.262089e+003,3.761517e+001
1.263053e+003,3.968311e+001
1.264017e+003,4.239288e+001
1.264982e+003,4.858539e+001
1.265946e+003,5.396033e+001
1.266910e+003,5.290558e+001
1.267874e+003,4.677887e+001
1.268839e+003,4.280884e+001
1.269803e+003,4.587317e+001
1.270767e+003,5.152234e+001
1.271731e+003,5.074695e+001
1.272695e+003,4.392847e+001
1.273660e+003,3.990857e+001
1.274624e+003,3.889886e+001
1.275588e+003,3.898444e+001
1.276552e+003,4.102179e+001
1.277517e+003,4.340106e+001
1.278481e+003,4.196063e+001
1.279445e+003,3.601239e+001
1.280409e+003,3.117450e+001
1.281374e+003,3.012067e+001
1.282338e+003,2.955811e+001
1.283302e+003,2.728107e+001
1.284266e+003,2.470551e+001
1.285230e+003,2.388641e+001
1.286195e+003,2.468146e+001
1.287159e+003,2.504352e+001
1.288123e+003,2.344818e+001
1.289087e+003,2.086121e+001
1.290052e+003,1.955359e+001
1.291016e+003,1.996979e+001
1.291980e+003,1.882166e+001
1.292944e+003,1.390234e+001
1.293909e+003,9.715576e+000
1.294873e+003,8.556824e+000
1.295837e+003,9.402344e+000
1.296801e+003,1.106140e+001
1.297766e+003,1.321759e+001
1.298730e+003,1.488928e+001
1.299694e+003,1.499561e+001
1.300658e+003,1.488599e+001
1.301622e+003,1.687085e+001
1.302587e+003,1.970020e+001
1.303551e+003,2.131689e+001
1.304515e+003,2.146088e+001
1.305479e+003,2.042487e+001
1.306444e+003,1.775043e+001
1.307408e+003,1.446844e+001
1.308372e+003,1.517944e+001
1.309336e+003,2.195837e+001
1.310301e+003,2.619684e+001
1.311265e+003,2.725500e+001
1.312229e+003,2.649988e+001
1.313193e+003,2.243048e+001
1.314157e+003,1.777118e+001
1.315122e+003,1.545880e+001
1.316086e+003,1.548218e+001
1.317050e+003,1.544446e+001
1.318014e+003,1.384991e+001
1.318979e+003,1.255890e+001
1.319943e+003,1.545917e+001
1.320907e+003,2.197644e+001
1.321871e+003,2.534790e+001
1.322836e+003,2.442737e+001
1.323800e+003,2.169348e+001
1.324764e+003,1.676782e+001
1.325728e+003,1.184985e+001
1.326693e+003,1.135779e+001
1.327657e+003,1.529089e+001
1.328621e+003,1.724310e+001
1.329585e+003,1.460962e+001
1.330549e+003,1.356506e+001
1.331514e+003,1.807373e+001
1.332478e+003,2.321960e+001
1.333442e+003,2.444208e+001
1.334406e+003,2.215057e+001
1.335371e+003,1.919299e+001
1.336335e+003,1.735956e+001
1.337299e+003,1.663220e+001
1.338263e+003,1.692352e+001
1.339228e+003,1.840692e+001
1.340192e+003,1.944403e+001
1.341156e+003,2.001978e+001
1.342120e+003,2.018268e+001
1.343084e+003,1.886908e+001
1.344049e+003,1.740674e+001
1.345013e+003,1.776947e+001
1.345977e+003,1.944122e+001
1.346941e+003,1.966492e+001
1.347906e+003,1.728149e+001
1.348870e+003,1.552936e+001
1.349834e+003,1.806104e+001
1.350798e+003,2.236993e+001
1.351763e+003,2.413538e+001
1.352727e+003,2.369177e+001
1.353691e+003,2.247986e+001
1.354655e+003,2.090887e+001
1.355620e+003,1.931262e+001
1.356584e+003,1.807611e+001
1.357548e+003,1.731628e+001
1.358512e+003,1.697485e+001
1.359476e+003,1.667181e+001
1.360441e+003,1.643555e+001
1.361405e+003,1.674249e+001
1.362369e+003,1.702545e+001
1.363333e+003,1.700140e+001
1.364298e+003,1.681799e+001
1.365262e+003,1.671503e+001
1.366226e+003,1.675256e+001
1.367190e+003,1.684399e+001
1.368155e+003,1.691510e+001
1.369119e+003,1.692731e+001
1.370083e+003,1.684943e+001
1.371047e+003,1.691479e+001
1.372011e+003,1.668402e+001
1.372976e+003,1.486871e+001
1.373940e+003,1.361646e+001
1.374904e+003,1.446735e+001
1.375868e+003,1.616180e+001
1.376833e+003,1.694214e+001
1.377797e+003,1.664899e+001
1.378761e+003,1.621210e+001
1.379725e+003,1.602814e+001
1.380690e+003,1.616382e+001
1.381654e+003,1.746136e+001
1.382618e+003,1.888879e+001
1.383582e+003,1.815625e+001
1.384547e+003,1.564679e+001
1.385511e+003,1.503125e+001
1.386475e+003,1.853583e+001
1.387439e+003,2.280121e+001
1.388403e+003,2.188184e+001
1.389368e+003,1.576361e+001
1.390332e+003,1.343817e+001
1.391296e+003,1.765308e+001
1.392260e+003,2.116736e+001
1.393225e+003,2.153766e+001
1.394189e+003,2.151953e+001
1.395153e+003,2.331726e+001
1.396117e+003,2.550623e+001
1.397082e+003,2.522229e+001
1.398046e+003,2.227869e+001
1.399010e+003,1.974866e+001
1.399974e+003,2.025659e+001
1.400938e+003,2.231903e+001
1.401903e+003,2.248761e+001
1.402867e+003,2.119208e+001
1.403831e+003,2.078381e+001
1.404795e+003,2.026971e+001
1.405760e+003,2.090881e+001
1.406724e+003,2.363470e+001
1.407688e+003,2.608789e+001
1.408652e+003,2.617218e+001
1.409617e+003,2.437354e+001
1.410581e+003,2.219385e+001
1.411545e+003,2.008362e+001
1.412509e+003,1.832068e+001
1.413474e+003,1.644043e+001
1.414438e+003,1.499194e+001
1.415402e+003,1.628967e+001
1.416366e+003,2.012250e+001
1.417330e+003,2.312823e+001
1.418295e+003,2.393127e+001
1.419259e+003,2.379370e+001
1.420223e+003,2.372913e+001
1.421187e+003,2.353461e+001
1.422152e+003,2.351453e+001
1.423116e+003,2.416693e+001
1.424080e+003,2.485303e+001
1.425044e+003,2.386981e+001
1.426009e+003,2.380408e+001
1.426973e+003,2.759210e+001
1.427937e+003,3.174652e+001
1.428901e+003,3.131958e+001
1.429865e+003,2.696466e+001
1.430830e+003,2.385132e+001
1.431794e+003,2.519440e+001
1.432758e+003,2.867255e+001
1.433722e+003,3.019116e+001
1.434687e+003,3.014905e+001
1.435651e+003,3.079675e+001
1.436615e+003,3.082001e+001
1.437579e+003,3.079370e+001
1.438544e+003,3.115747e+001
1.439508e+003,3.145166e+001
1.440472e+003,3.179498e+001
1.441436e+003,3.219604e+001
1.442401e+003,3.243420e+001
1.443365e+003,3.229926e+001
1.444329e+003,3.139886e+001
1.445293e+003,2.926489e+001
1.446257e+003,2.724414e+001
1.447222e+003,2.871350e+001
1.448186e+003,3.257513e+001
1.449150e+003,3.230377e+001
1.450114e+003,2.585175e+001
1.451079e+003,2.081158e+001
1.452043e+003,2.266052e+001
1.453007e+003,2.747095e+001
1.453971e+003,2.987939e+001
1.454936e+003,2.982684e+001
1.455900e+003,2.839941e+001
1.456864e+003,2.506708e+001
1.457828e+003,2.382971e+001
1.458792e+003,2.945105e+001
1.459757e+003,3.540137e+001
1.460721e+003,3.639032e+001
1.461685e+003,3.360034e+001
1.462649e+003,2.916650e+001
1.463614e+003,2.421240e+001
1.464578e+003,2.099817e+001
1.465542e+003,2.162335e+001
1.466506e+003,2.470288e+001
1.467471e+003,2.671356e+001
1.468435e+003,2.795416e+001
1.469399e+003,2.897290e+001
1.470363e+003,2.824957e+001
1.471328e+003,2.857996e+001
1.472292e+003,3.183624e+001
1.473256e+003,3.434778e+001
1.474220e+003,3.296429e+001
1.475184e+003,2.984711e+001
1.476149e+003,2.916602e+001
1.477113e+003,3.180511e+001
1.478077e+003,3.485773e+001
1.479041e+003,3.581970e+001
1.480006e+003,3.559167e+001
1.480970e+003,3.624304e+001
1.481934e+003,3.740137e+001
1.482898e+003,3.932654e+001
1.483863e+003,4.409039e+001
1.484827e+003,4.644348e+001
1.485791e+003,4.280438e+001
1.486755e+003,3.875739e+001
1.487719e+003,3.995056e+001
1.488684e+003,4.461890e+001
1.489648e+003,4.687274e+001
1.490612e+003,4.513611e+001
1.491576e+003,4.447675e+001
1.492541e+003,4.921301e+001
1.493505e+003,5.685919e+001
1.494469e+003,6.279431e+001
1.495433e+003,6.664984e+001
1.496398e+003,6.775946e+001
1.497362e+003,6.553284e+001
1.498326e+003,6.438312e+001
1.499290e+003,6.645209e+001
1.500255e+003,7.083502e+001
1.501219e+003,7.638141e+001
1.502183e+003,8.294470e+001
1.503147e+003,9.063538e+001
1.504111e+003,9.950940e+001
1.505076e+003,1.093408e+002
1.506040e+003,1.203124e+002
1.507004e+003,1.320923e+002
1.507968e+003,1.443238e+002
1.508933e+003,1.570380e+002
1.509897e+003,1.696860e+002
1.510861e+003,1.829568e+002
1.511825e+003,2.002867e+002
1.512790e+003,2.241948e+002
1.513754e+003,2.519770e+002
1.514718e+003,2.794092e+002
1.515682e+003,3.061078e+002
1.516646e+003,3.330280e+002
1.517611e+003,3.625883e+002
1.518575e+003,3.878477e+002
1.519539e+003,4.059914e+002
1.520503e+003,4.207603e+002
1.521468e+003,4.346451e+002
1.522432e+003,4.456041e+002
1.523396e+003,4.505776e+002
1.524360e+003,4.493483e+002
1.525325e+003,4.443087e+002
1.526289e+003,4.371595e+002
1.527253e+003,4.268669e+002
1.528217e+003,4.110639e+002
1.529182e+003,3.900181e+002
1.530146e+003,3.685314e+002
1.531110e+003,3.489423e+002
1.532074e+003,3.235011e+002
1.533039e+003,2.874290e+002
1.534003e+003,2.493410e+002
1.534967e+003,2.098507e+002
1.535931e+003,1.741416e+002
1.536896e+003,1.488032e+002
1.537860e+003,1.325159e+002
1.538824e+003,1.183064e+002
1.539788e+003,1.023027e+002
1.540752e+003,8.608746e+001
1.541717e+003,7.168243e+001
1.542681e+003,5.980347e+001
1.543645e+003,5.350244e+001
1.544609e+003,5.677655e+001
1.545573e+003,5.657867e+001
1.546538e+003,4.844794e+001
1.547502e+003,4.164001e+001
1.548466e+003,4.020514e+001
1.549430e+003,4.212036e+001
1.550395e+003,4.676025e+001
1.551359e+003,5.203101e+001
1.552323e+003,5.342664e+001
1.553287e+003,4.962567e+001
1.554252e+003,4.438849e+001
1.555216e+003,4.083490e+001
1.556180e+003,3.829919e+001
1.557144e+003,3.506476e+001
1.558109e+003,3.128467e+001
1.559073e+003,2.977777e+001
1.560037e+003,3.182391e+001
1.561001e+003,3.219702e+001
1.561966e+003,2.754901e+001
1.562930e+003,2.316553e+001
1.563894e+003,2.446173e+001
1.564858e+003,2.926593e+001
1.565823e+003,3.240277e+001
1.566787e+003,3.277441e+001
1.567751e+003,3.155652e+001
1.568715e+003,2.907526e+001
1.569679e+003,2.675720e+001
1.570644e+003,2.608801e+001
1.571608e+003,2.666272e+001
1.572572e+003,2.848035e+001
1.573536e+003,3.186517e+001
1.574500e+003,3.378845e+001
1.575465e+003,3.212531e+001
1.576429e+003,3.017310e+001
1.577393e+003,3.078467e+001
1.578357e+003,3.260535e+001
1.579322e+003,3.315222e+001
1.580286e+003,3.248627e+001
1.581250e+003,3.230902e+001
1.582214e+003,3.319214e+001
1.583179e+003,3.444025e+001
1.584143e+003,3.608850e+001
1.585107e+003,3.686676e+001
1.586071e+003,3.476184e+001
1.587036e+003,3.135223e+001
1.588000e+003,3.071143e+001
1.588964e+003,3.362415e+001
1.589928e+003,3.566229e+001
1.590893e+003,3.335455e+001
1.591857e+003,2.922333e+001
1.592821e+003,2.644336e+001
1.593785e+003,2.520807e+001
1.594750e+003,2.646967e+001
1.595714e+003,3.049207e+001
1.596678e+003,3.497998e+001
1.597642e+003,4.016992e+001
1.598606e+003,4.392065e+001
1.599571e+003,4.340991e+001
1.600535e+003,4.149518e+001
1.601499e+003,4.203748e+001
1.602463e+003,4.471484e+001
1.603427e+003,4.669708e+001
1.604392e+003,4.689435e+001
1.605356e+003,4.596277e+001
1.606320e+003,4.426263e+001
1.607284e+003,4.209344e+001
1.608249e+003,4.052222e+001
1.609213e+003,3.962115e+001
1.610177e+003,3.669128e+001
1.611141e+003,2.949713e+001
1.612106e+003,2.476831e+001
1.613070e+003,2.818634e+001
1.614034e+003,3.302319e+001
1.614998e+003,3.478809e+001
1.615963e+003,3.450177e+001
1.616927e+003,3.403308e+001
1.617891e+003,3.363171e+001
1.618855e+003,3.243964e+001
1.619820e+003,2.960260e+001
1.620784e+003,2.629877e+001
1.621748e+003,2.506134e+001
1.622712e+003,2.605591e+001
1.623677e+003,2.698016e+001
1.624641e+003,2.787134e+001
1.625605e+003,2.858862e+001
1.626569e+003,2.761249e+001
1.627533e+003,2.694757e+001
1.628498e+003,2.929504e+001
1.629462e+003,3.175391e+001
1.630426e+003,3.102484e+001
1.631390e+003,2.843408e+001
1.632354e+003,2.748853e+001
1.633319e+003,2.886108e+001
1.634283e+003,3.000226e+001
1.635247e+003,2.879669e+001
1.636211e+003,2.674701e+001
1.637176e+003,2.723895e+001
1.638140e+003,3.017194e+001
1.639104e+003,3.111261e+001
1.640068e+003,2.925769e+001
1.641033e+003,2.722070e+001
1.641997e+003,2.478467e+001
1.642961e+003,2.395349e+001
1.643925e+003,2.689148e+001
1.644890e+003,3.070862e+001
1.645854e+003,3.289410e+001
1.646818e+003,3.329663e+001
1.647782e+003,3.202710e+001
1.648747e+003,2.927832e+001
1.649711e+003,2.689502e+001
1.650675e+003,2.662781e+001
1.651639e+003,2.794397e+001
1.652604e+003,2.946411e+001
1.653568e+003,3.096271e+001
1.654532e+003,3.207642e+001
1.655496e+003,3.298395e+001
1.656460e+003,3.276385e+001
1.657425e+003,3.027478e+001
1.658389e+003,2.809796e+001
1.659353e+003,2.815033e+001
1.660317e+003,2.873993e+001
1.661281e+003,2.747858e+001
1.662246e+003,2.501941e+001
1.663210e+003,2.436530e+001
1.664174e+003,2.654120e+001
1.665138e+003,2.863141e+001
1.666103e+003,2.801605e+001
1.667067e+003,2.547290e+001
1.668031e+003,2.242786e+001
1.668995e+003,1.907672e+001
1.669960e+003,1.675024e+001
1.670924e+003,1.574670e+001
1.671888e+003,1.544092e+001
1.672852e+003,1.573505e+001
1.673817e+003,1.613239e+001
1.674781e+003,1.640027e+001
1.675745e+003,1.647449e+001
1.676709e+003,1.589478e+001
1.677674e+003,1.504370e+001
1.678638e+003,1.538507e+001
1.679602e+003,1.735553e+001
1.680566e+003,1.883130e+001
1.681531e+003,1.831805e+001
1.682495e+003,1.665552e+001
1.683459e+003,1.379364e+001
1.684423e+003,1.019464e+001
1.685387e+003,1.105219e+001
1.686352e+003,1.766364e+001
1.687316e+003,2.293854e+001
1.688280e+003,2.461621e+001
1.689244e+003,2.445520e+001
1.690208e+003,2.245050e+001
1.691173e+003,1.992542e+001
1.692137e+003,1.858081e+001
1.693101e+003,1.840338e+001
1.694065e+003,1.817316e+001
1.695030e+003,1.724762e+001
1.695994e+003,1.644781e+001
1.696958e+003,1.694342e+001
1.697922e+003,1.743207e+001
1.698887e+003,1.576703e+001
1.699851e+003,1.293628e+001
1.700815e+003,1.198175e+001
1.701779e+003,1.292340e+001
1.702744e+003,1.234100e+001
1.703708e+003,8.777649e+000
1.704672e+003,6.950012e+000
1.705636e+003,1.116180e+001
1.706601e+003,1.700696e+001
1.707565e+003,1.868115e+001
1.708529e+003,1.732111e+001
1.709493e+003,1.508002e+001
1.710458e+003,1.194580e+001
1.711422e+003,9.781555e+000
1.712386e+003,1.084082e+001
1.713350e+003,1.195428e+001
1.714314e+003,9.156067e+000
1.715279e+003,4.861877e+000
1.716243e+003,3.717529e+000
1.717207e+003,5.503662e+000
1.718171e+003,7.394958e+000
1.719135e+003,8.687927e+000
1.720100e+003,8.663696e+000
1.721064e+003,6.249451e+000
1.722028e+003,3.383423e+000
1.722992e+003,3.440430e+000
1.723957e+003,6.179810e+000
1.724921e+003,8.090027e+000
1.725885e+003,8.716309e+000
1.726849e+003,7.521912e+000
1.727814e+003,2.207092e+000
1.728778e+003,-5.418701e-001
1.729742e+003,4.549255e+000
1.730706e+003,1.104150e+001
1.731671e+003,1.206671e+001
1.732635e+003,9.016907e+000
1.733599e+003,6.473816e+000
1.734563e+003,5.685608e+000
1.735528e+003,5.195435e+000
1.736492e+003,4.053711e+000
1.737456e+003,2.984680e+000
1.738420e+003,2.912354e+000
1.739385e+003,3.210571e+000
1.740349e+003,2.656555e+000
1.741313e+003,1.276733e+000
1.742277e+003,3.599243e-001
1.743241e+003,8.028564e-001
1.744206e+003,9.028931e-001
1.745170e+003,-4.608154e-001
1.746134e+003,-1.573181e+000
1.747098e+003,-1.337219e+000
1.748063e+003,-5.181274e-001
1.749027e+003,-9.521484e-002
1.749991e+003,1.544800e-001
1.750955e+003,1.157166e+000
1.751919e+003,3.044128e+000
1.752884e+003,5.066772e+000
1.753848e+003,6.635681e+000
1.754812e+003,7.048828e+000
1.755776e+003,4.859985e+000
1.756741e+003,5.239868e-001
1.757705e+003,-1.950745e+000
1.758669e+003,-2.615662e+000
1.759633e+003,-2.125427e+000
1.760598e+003,6.104736e-001
1.761562e+003,2.250610e+000
1.762526e+003,1.450928e+000
1.763490e+003,3.214722e-001
1.764455e+003,4.568481e-001
1.765419e+003,1.318054e+000
1.766383e+003,1.646484e+000
1.767347e+003,1.196533e+000
1.768312e+003,7.172241e-001
1.769276e+003,4.595947e-001
1.770240e+003,-8.129883e-002
1.771204e+003,-1.179932e+000
1.772168e+003,-2.047119e+000
1.773133e+003,-1.389709e+000
1.774097e+003,5.701904e-001
1.775061e+003,1.648682e+000
1.776025e+003,1.146423e+000
1.776990e+003,4.505615e-001
1.777954e+003,2.490845e-001
1.778918e+003,7.539673e-001
1.779882e+003,2.390930e+000
1.780846e+003,3.885681e+000
1.781811e+003,4.090149e+000
1.782775e+003,3.184875e+000
1.783739e+003,8.607178e-001
1.784703e+003,-3.113403e+000
1.785668e+003,-4.735168e+000
1.786632e+003,-7.289429e-001
1.787596e+003,3.006226e+000
1.788560e+003,1.996216e+000
1.789525e+003,-7.647705e-001
1.790489e+003,-1.926575e+000
1.791453e+003,-1.702271e+000
1.792417e+003,-1.015198e+000
1.793382e+003,-9.790039e-002
1.794346e+003,1.096863e+000
1.795310e+003,2.629883e+000
1.796274e+003,3.200378e+000
1.797239e+003,1.212708e+000
1.798203e+003,-1.661499e+000
1.799167e+003,-1.332581e+000
1.800131e+003,2.126160e+000
1.801095e+003,3.858521e+000
1.802060e+003,3.762146e+000
1.803024e+003,3.764160e+000
1.803988e+003,4.040039e+000
1.804952e+003,3.912231e+000
1.805917e+003,3.106812e+000
1.806881e+003,1.681519e+000
1.807845e+003,-1.282654e+000
1.808809e+003,-4.176636e+000
1.809773e+003,-3.583618e+000
1.810738e+003,5.856934e-001
1.811702e+003,4.751282e+000
1.812666e+003,6.611084e+000
1.813630e+003,6.762756e+000
1.814595e+003,5.760315e+000
1.815559e+003,3.951233e+000
1.816523e+003,3.476318e+000
1.817487e+003,4.653320e+000
1.818452e+003,4.424561e+000
1.819416e+003,2.039551e+000
1.820380e+003,1.257874e+000
1.821344e+003,5.245361e+000
1.822309e+003,7.198975e+000
1.823273e+003,-2.034912e-001
1.824237e+003,-8.338623e+000
1.825201e+003,-7.036072e+000
1.826166e+003,2.940063e-001
1.827130e+003,3.971802e+000
1.828094e+003,2.204407e+000
1.829058e+003,-7.680054e-001
1.830022e+003,-3.222473e+000
1.830987e+003,-5.069458e+000
1.831951e+003,-6.708069e+000
1.832915e+003,-7.341797e+000
1.833879e+003,-4.854431e+000
1.834844e+003,-5.363770e-001
1.835808e+003,1.778992e+000
1.836772e+003,1.570129e+000
1.837736e+003,-1.289063e-001
1.838700e+003,-3.146118e+000
1.839665e+003,-5.290466e+000
1.840629e+003,-4.093933e+000
1.841593e+003,-1.288696e+000
1.842557e+003,-8.099976e-001
1.843522e+003,-2.653870e+000
1.844486e+003,-4.895142e+000
1.845450e+003,-9.488892e+000
1.846414e+003,-9.561157e+000
1.847379e+003,-6.186523e-001
1.848343e+003,5.354004e+000
1.849307e+003,2.971191e+000
1.850271e+003,-1.128479e+000
1.851236e+003,-2.562134e+000
1.852200e+003,-1.972351e+000
1.853164e+003,-7.254639e-001
1.854128e+003,2.345581e-001
1.855093e+003,3.436279e-001
1.856057e+003,-3.255615e-001
1.857021e+003,-1.924927e+000
1.857985e+003,-5.033630e+000
1.858949e+003,-8.234558e+000
1.859914e+003,-8.705078e+000
1.860878e+003,-6.806702e+000
1.861842e+003,-4.832886e+000
1.862806e+003,-2.898438e+000
1.863771e+003,-2.957458e+000
1.864735e+003,-6.232910e+000
1.865699e+003,-8.067505e+000
1.866663e+003,-5.624573e+000
1.867627e+003,-1.981201e+000
1.868592e+003,3.994751e-001
1.869556e+003,1.317566e+000
1.870520e+003,8.531494e-001
1.871484e+003,-8.560181e-001
1.872449e+003,-2.916870e+000
1.873413e+003,-4.895874e+000
1.874377e+003,-4.314331e+000
1.875341e+003,1.131409e+000
1.876306e+003,5.380615e+000
1.877270e+003,4.369202e+000
1.878234e+003,1.146179e+000
1.879198e+003,-1.768066e+000
1.880163e+003,-3.948608e+000
1.881127e+003,-5.244934e+000
1.882091e+003,-5.616333e+000
1.883055e+003,-4.943848e+000
1.884020e+003,-3.340393e+000
1.884984e+003,-1.641907e+000
1.885948e+003,-5.496826e-001
1.886912e+003,-2.994385e-001
1.887876e+003,-1.654053e+000
1.888841e+003,-4.284424e+000
1.889805e+003,-4.088440e+000
1.890769e+003,-8.526611e-002
1.891733e+003,1.030823e+000
1.892698e+003,-3.896240e+000
1.893662e+003,-6.096802e+000
1.894626e+003,8.132324e-001
1.895590e+003,7.068054e+000
1.896554e+003,4.109741e+000
1.897519e+003,-1.482727e+000
1.898483e+003,-1.558960e+000
1.899447e+003,2.019348e+000
1.900411e+003,2.467957e+000
1.901376e+003,-1.408691e+000
1.902340e+003,-3.882813e+000
1.903304e+003,-2.044495e+000
1.904268e+003,3.503418e-001
1.905233e+003,1.925049e+000
1.906197e+003,2.391663e+000
1.907161e+003,5.109863e-001
1.908125e+003,-2.060181e+000
1.909090e+003,-2.644226e+000
1.910054e+003,-1.456909e+000
1.911018e+003,2.087402e-001
1.911982e+003,1.847900e+000
1.912947e+003,2.395874e+000
1.913911e+003,9.616089e-001
1.914875e+003,-8.085938e-001
1.915839e+003,-3.999634e-001
1.916803e+003,1.429932e+000
1.917768e+003,2.155090e+000
1.918732e+003,1.699097e+000
1.919696e+003,2.706787e+000
1.920660e+003,6.826599e+000
1.921625e+003,8.255493e+000
1.922589e+003,3.118286e+000
1.923553e+003,-1.174438e+000
1.924517e+003,9.822388e-001
1.925481e+003,4.257813e+000
1.926446e+003,3.911621e+000
1.927410e+003,1.352356e+000
1.928374e+003,-1.237000e+000
1.929338e+003,-3.668762e+000
1.930303e+003,-4.142761e+000
1.931267e+003,-9.509277e-001
1.932231e+003,2.033386e+000
1.933195e+003,2.350403e+000
1.934160e+003,1.908508e+000
1.935124e+003,2.035950e+000
1.936088e+003,2.025757e+000
1.937052e+003,1.455078e+000
1.938017e+003,4.499512e-001
1.938981e+003,-1.446716e+000
1.939945e+003,-3.886719e+000
1.940909e+003,-5.052368e+000
1.941874e+003,-4.306702e+000
1.942838e+003,-3.281311e+000
1.943802e+003,-3.211426e+000
1.944766e+003,-2.960388e+000
1.945730e+003,-4.854126e-001
1.946695e+003,3.366577e+000
1.947659e+003,3.039795e+000
1.948623e+003,-2.120483e+000
1.949587e+003,-4.966248e+000
1.950552e+003,-4.117493e+000
1.951516e+003,-2.598267e+000
1.952480e+003,-8.684082e-001
1.953444e+003,8.953857e-002
1.954408e+003,-1.011841e+000
1.955373e+003,-3.132507e+000
1.956337e+003,-4.470642e+000
1.957301e+003,-4.852966e+000
1.958265e+003,-5.067505e+000
1.959230e+003,-5.100708e+000
1.960194e+003,-4.749390e+000
1.961158e+003,-5.218262e+000
1.962122e+003,-4.669861e+000
1.963087e+003,-1.435730e+000
1.964051e+003,1.673218e+000
1.965015e+003,3.649109e+000
1.965979e+003,4.894226e+000
1.966944e+003,5.072510e+000
1.967908e+003,4.583252e+000
1.968872e+003,4.394043e+000
1.969836e+003,4.663452e+000
1.970801e+003,4.820557e+000
1.971765e+003,4.671387e+000
1.972729e+003,4.651672e+000
1.973693e+003,5.148987e+000
1.974657e+003,5.783386e+000
1.975622e+003,5.954651e+000
1.976586e+003,5.567932e+000
1.977550e+003,4.553101e+000
1.978514e+003,3.227783e+000
1.979479e+003,2.622864e+000
1.980443e+003,2.777527e+000
1.981407e+003,2.938782e+000
1.982371e+003,2.965393e+000
1.983335e+003,3.253967e+000
1.984300e+003,3.895142e+000
1.985264e+003,4.654907e+000
1.986228e+003,5.517456e+000
1.987192e+003,6.306641e+000
1.988157e+003,6.085754e+000
1.989121e+003,4.685608e+000
1.990085e+003,3.922668e+000
1.991049e+003,4.093018e+000
1.992014e+003,4.767334e+000
1.992978e+003,7.431702e+000
1.993942e+003,8.039185e+000
1.994906e+003,2.931396e+000
1.995871e+003,-2.319946e+000
1.996835e+003,-3.362000e+000
1.997799e+003,-1.870239e+000
1.998763e+003,1.285400e-001
1.999728e+003,1.778015e+000
