5.003444e+002,4.299127e+001
5.013087e+002,4.201669e+001
5.022729e+002,4.055533e+001
5.032371e+002,3.895866e+001
5.042014e+002,3.766823e+001
5.051656e+002,3.671371e+001
5.061298e+002,3.629486e+001
5.070941e+002,3.665704e+001
5.080583e+002,3.802419e+001
5.090225e+002,3.833601e+001
5.099868e+002,3.697177e+001
5.109510e+002,3.555515e+001
5.119152e+002,3.499413e+001
5.128795e+002,3.539507e+001
5.138437e+002,3.570015e+001
5.148079e+002,3.565265e+001
5.157722e+002,3.541794e+001
5.167364e+002,3.488870e+001
5.177006e+002,3.408870e+001
5.186649e+002,3.322061e+001
5.196291e+002,3.275029e+001
5.205933e+002,3.249794e+001
5.215576e+002,3.191081e+001
5.225218e+002,3.089905e+001
5.234860e+002,2.983032e+001
5.244503e+002,2.954642e+001
5.254145e+002,3.060854e+001
5.263787e+002,3.077203e+001
5.273430e+002,2.932301e+001
5.283072e+002,2.745911e+001
5.292714e+002,2.690474e+001
5.302357e+002,2.842000e+001
5.311999e+002,2.916776e+001
5.321641e+002,2.864998e+001
5.331284e+002,2.783517e+001
5.340926e+002,2.737253e+001
5.350568e+002,2.743446e+001
5.360211e+002,2.756215e+001
5.369853e+002,2.747983e+001
5.379495e+002,2.745158e+001
5.389138e+002,2.786423e+001
5.398780e+002,2.872931e+001
5.408422e+002,2.952715e+001
5.418065e+002,2.861354e+001
5.427707e+002,2.624217e+001
5.437349e+002,2.396924e+001
5.446992e+002,2.209061e+001
5.456634e+002,2.060333e+001
5.466276e+002,1.953242e+001
5.475919e+002,1.899818e+001
5.485561e+002,1.899393e+001
5.495203e+002,2.034332e+001
5.504846e+002,2.183517e+001
5.514488e+002,2.146111e+001
5.524130e+002,1.738486e+001
5.533773e+002,1.426273e+001
5.543415e+002,1.529716e+001
5.553057e+002,1.786751e+001
5.562700e+002,1.923569e+001
5.572342e+002,1.771271e+001
5.581984e+002,1.459883e+001
5.591627e+002,1.284514e+001
5.601269e+002,1.217339e+001
5.610911e+002,1.219177e+001
5.620554e+002,1.272189e+001
5.630196e+002,1.360229e+001
5.639838e+002,1.382439e+001
5.649481e+002,1.258882e+001
5.659123e+002,1.187053e+001
5.668765e+002,1.272008e+001
5.678408e+002,1.453908e+001
5.688050e+002,1.530368e+001
5.697692e+002,1.310007e+001
5.707335e+002,1.134785e+001
5.716977e+002,1.145728e+001
5.726619e+002,1.258871e+001
5.736262e+002,1.368727e+001
5.745904e+002,1.414221e+001
5.755546e+002,1.397163e+001
5.765189e+002,1.287799e+001
5.774831e+002,1.120528e+001
5.784473e+002,9.694183e+000
5.794116e+002,8.910538e+000
5.803758e+002,8.880325e+000
5.813400e+002,8.889801e+000
5.823043e+002,8.691803e+000
5.832685e+002,8.606949e+000
5.842327e+002,8.900421e+000
5.851970e+002,9.611282e+000
5.861612e+002,1.043933e+001
5.871254e+002,1.151053e+001
5.880897e+002,1.231125e+001
5.890539e+002,1.262637e+001
5.900181e+002,1.255008e+001
5.909824e+002,1.228914e+001
5.919466e+002,1.200412e+001
5.929108e+002,1.160713e+001
5.938751e+002,1.110754e+001
5.948393e+002,1.044965e+001
5.958035e+002,9.468414e+000
5.967678e+002,8.068939e+000
5.977320e+002,6.438858e+000
5.986962e+002,5.561096e+000
5.996605e+002,5.138702e+000
6.006247e+002,5.346405e+000
6.015889e+002,6.926926e+000
6.025532e+002,9.696655e+000
6.035174e+002,1.076649e+001
6.044816e+002,7.680847e+000
6.054459e+002,5.498520e+000
6.064101e+002,5.637161e+000
6.073743e+002,7.041290e+000
6.083386e+002,7.687134e+000
6.093028e+002,6.311996e+000
6.102670e+002,4.454346e+000
6.112313e+002,3.014893e+000
6.121955e+002,2.026123e+000
6.131597e+002,1.431320e+000
6.141240e+002,1.202621e+000
6.150882e+002,1.455231e+000
6.160524e+002,3.415756e+000
6.170167e+002,6.818741e+000
6.179809e+002,9.385925e+000
6.189451e+002,9.835175e+000
6.199094e+002,8.388397e+000
6.208736e+002,7.254089e+000
6.218378e+002,7.239777e+000
6.228021e+002,6.866730e+000
6.237663e+002,5.547913e+000
6.247305e+002,3.950348e+000
6.256948e+002,3.197586e+000
6.266590e+002,3.984009e+000
6.276232e+002,4.756866e+000
6.285875e+002,4.666992e+000
6.295517e+002,4.193619e+000
6.305159e+002,3.723801e+000
6.314802e+002,3.450699e+000
6.324444e+002,3.286163e+000
6.334086e+002,3.087769e+000
6.343729e+002,3.013779e+000
6.353371e+002,3.446075e+000
6.363013e+002,4.572113e+000
6.372656e+002,6.114334e+000
6.382298e+002,7.221375e+000
6.391940e+002,8.551315e+000
6.401583e+002,8.163574e+000
6.411225e+002,4.556412e+000
6.420867e+002,2.517242e-001
6.430510e+002,-1.566956e+000
6.440152e+002,6.070862e-001
6.449794e+002,2.475204e+000
6.459437e+002,1.117416e+000
6.469079e+002,-9.261169e-001
6.478721e+002,-1.523270e+000
6.488364e+002,5.783081e-003
6.498006e+002,2.380249e+000
6.507648e+002,3.342697e+000
6.517291e+002,3.262527e+000
6.526933e+002,3.140610e+000
6.536575e+002,3.169296e+000
6.546218e+002,2.985779e+000
6.555860e+002,1.804672e+000
6.565502e+002,-1.504578e+000
6.575145e+002,-3.284058e+000
6.584787e+002,-2.604675e+000
6.594429e+002,-1.342880e+000
6.604072e+002,-1.164764e+000
6.613714e+002,-2.455124e+000
6.623356e+002,-3.037521e+000
6.632999e+002,-9.570160e-001
6.642641e+002,1.135559e+000
6.652283e+002,1.978531e+000
6.661926e+002,1.524338e+000
6.671568e+002,4.743347e-001
6.681210e+002,-6.448517e-001
6.690853e+002,-1.636444e+000
6.700495e+002,-1.918869e+000
6.710137e+002,-1.506378e+000
6.719780e+002,-7.715302e-001
6.729422e+002,-8.546448e-002
6.739064e+002,5.483093e-001
6.748707e+002,7.922058e-001
6.758349e+002,2.195587e-001
6.767991e+002,-1.953125e-001
6.777634e+002,2.037048e-001
6.787276e+002,1.378082e+000
6.796918e+002,2.457062e+000
6.806561e+002,3.197037e+000
6.816203e+002,3.386688e+000
6.825845e+002,2.267380e+000
6.835488e+002,6.960144e-001
6.845130e+002,3.013763e-001
6.854772e+002,2.513077e+000
6.864415e+002,5.581238e+000
6.874057e+002,4.746170e+000
6.883699e+002,1.241959e+000
6.893342e+002,-1.479675e+000
6.902984e+002,-1.417618e+000
6.912626e+002,1.039658e+000
6.922269e+002,2.920837e+000
6.931911e+002,4.634506e+000
6.941553e+002,5.510315e+000
6.951196e+002,5.024902e+000
6.960838e+002,3.601349e+000
6.970480e+002,1.719131e+000
6.980123e+002,-1.155945e+000
6.989765e+002,-2.544662e+000
6.999407e+002,-4.594269e-001
7.009050e+002,2.385193e+000
7.018692e+002,3.950500e+000
7.028334e+002,3.487732e+000
7.037977e+002,1.693512e+000
7.047619e+002,-1.196442e+000
7.057261e+002,-4.113403e+000
7.066904e+002,-4.658676e+000
7.076546e+002,-2.448380e+000
7.086188e+002,8.809814e-001
7.095831e+002,2.742065e+000
7.105473e+002,2.535873e+000
7.115115e+002,2.340775e+000
7.124758e+002,2.453415e+000
7.134400e+002,2.224319e+000
7.144042e+002,9.566193e-001
7.153685e+002,-1.257736e+000
7.163327e+002,-2.733902e+000
7.172969e+002,-1.775742e+000
7.182612e+002,-7.024536e-001
7.192254e+002,-7.371216e-001
7.201896e+002,-1.460999e+000
7.211539e+002,-1.776016e+000
7.221181e+002,-7.131500e-001
7.230823e+002,1.228790e+000
7.240466e+002,2.935226e+000
7.250108e+002,4.456070e+000
7.259750e+002,5.358444e+000
7.269393e+002,5.279282e+000
7.279035e+002,4.134628e+000
7.288677e+002,2.325653e+000
7.298320e+002,-1.762802e+000
7.307962e+002,-3.900558e+000
7.317604e+002,-2.712967e+000
7.327247e+002,1.795349e-001
7.336889e+002,2.627289e+000
7.346531e+002,4.041046e+000
7.356174e+002,4.323807e+000
7.365816e+002,3.341705e+000
7.375458e+002,1.955627e+000
7.385101e+002,3.951263e-001
7.394743e+002,-1.034485e+000
7.404385e+002,-1.670303e+000
7.414028e+002,-5.731201e-002
7.423670e+002,2.837418e+000
7.433312e+002,3.419266e+000
7.442955e+002,1.429626e+000
7.452597e+002,-8.111420e-001
7.462239e+002,-4.778137e-001
7.471882e+002,3.436508e+000
7.481524e+002,5.227982e+000
7.491166e+002,2.893799e+000
7.500809e+002,7.664795e-001
7.510451e+002,9.680634e-001
7.520093e+002,2.849686e+000
7.529736e+002,3.615906e+000
7.539378e+002,9.946136e-001
7.549020e+002,-1.139984e+000
7.558663e+002,2.997131e-001
7.568306e+002,3.438477e+000
7.577948e+002,5.608704e+000
7.587590e+002,5.195007e+000
7.597233e+002,3.080276e+000
7.606875e+002,2.174683e+000
7.616517e+002,2.396835e+000
7.626160e+002,2.127823e+000
7.635802e+002,7.515717e-001
7.645444e+002,-1.050659e+000
7.655087e+002,-1.822571e+000
7.664729e+002,-9.963074e-001
7.674371e+002,-4.029388e-001
7.684014e+002,-4.670258e-001
7.693656e+002,-5.176086e-001
7.703298e+002,-7.644653e-002
7.712941e+002,9.069214e-001
7.722583e+002,2.060440e+000
7.732225e+002,3.434494e+000
7.741868e+002,4.518860e+000
7.751510e+002,4.823486e+000
7.761152e+002,4.504349e+000
7.770795e+002,3.931671e+000
7.780437e+002,3.410370e+000
7.790079e+002,2.909851e+000
7.799722e+002,2.374588e+000
7.809364e+002,1.717865e+000
7.819006e+002,1.392990e+000
7.828649e+002,1.634445e+000
7.838291e+002,2.460129e+000
7.847933e+002,3.886047e+000
7.857576e+002,6.841843e+000
7.867218e+002,8.284637e+000
7.876860e+002,7.338104e+000
7.886503e+002,5.427048e+000
7.896145e+002,3.457626e+000
7.905787e+002,1.761505e+000
7.915430e+002,4.287415e-001
7.925072e+002,-8.925629e-001
7.934714e+002,-1.598206e+000
7.944357e+002,-1.721802e-001
7.953999e+002,3.101486e+000
7.963641e+002,6.286682e+000
7.973284e+002,7.142853e+000
7.982926e+002,5.509689e+000
7.992568e+002,4.314194e+000
8.002211e+002,3.280731e+000
8.011853e+002,2.421555e+000
8.021495e+002,1.876892e+000
8.031138e+002,1.843185e+000
8.040780e+002,2.552139e+000
8.050422e+002,4.578522e+000
8.060065e+002,6.073914e+000
8.069707e+002,6.138046e+000
8.079349e+002,5.509094e+000
8.088992e+002,5.018295e+000
8.098634e+002,4.986053e+000
8.108276e+002,4.909103e+000
8.117919e+002,3.585892e+000
8.127561e+002,1.569153e+000
8.137203e+002,4.994354e-001
8.146846e+002,6.812439e-001
8.156488e+002,1.404327e+000
8.166130e+002,1.708298e+000
8.175773e+002,1.434601e+000
8.185415e+002,1.497894e+000
8.195057e+002,1.449982e+000
8.204700e+002,1.949875e+000
8.214342e+002,3.910416e+000
8.223984e+002,6.590469e+000
8.233627e+002,7.921234e+000
8.243269e+002,6.530457e+000
8.252911e+002,5.136963e+000
8.262554e+002,5.626678e+000
8.272196e+002,6.736572e+000
8.281838e+002,7.068924e+000
8.291481e+002,6.172928e+000
8.301123e+002,4.797256e+000
8.310765e+002,4.225418e+000
8.320408e+002,4.429352e+000
8.330050e+002,4.878723e+000
8.339692e+002,5.725403e+000
8.349335e+002,6.378983e+000
8.358977e+002,6.110352e+000
8.368619e+002,4.797134e+000
8.378262e+002,4.007492e+000
8.387904e+002,4.495712e+000
8.397546e+002,4.485474e+000
8.407189e+002,3.214691e+000
8.416831e+002,1.242157e+000
8.426473e+002,-7.492828e-001
8.436116e+002,-2.730606e+000
8.445758e+002,-3.343536e+000
8.455400e+002,-2.512970e-001
8.465043e+002,4.165924e+000
8.474685e+002,7.730637e+000
8.484327e+002,9.773560e+000
8.493970e+002,1.050294e+001
8.503612e+002,1.001640e+001
8.513254e+002,7.921524e+000
8.522897e+002,7.183975e+000
8.532539e+002,8.673767e+000
8.542181e+002,1.005258e+001
8.551824e+002,9.408508e+000
8.561466e+002,7.283920e+000
8.571108e+002,7.373520e+000
8.580751e+002,1.255513e+001
8.590393e+002,1.661858e+001
8.600035e+002,1.742165e+001
8.609678e+002,1.643622e+001
8.619320e+002,1.516183e+001
8.628962e+002,1.426602e+001
8.638605e+002,1.357637e+001
8.648247e+002,1.283238e+001
8.657889e+002,1.213730e+001
8.667532e+002,1.191374e+001
8.677174e+002,1.221471e+001
8.686816e+002,1.244394e+001
8.696459e+002,1.175734e+001
8.706101e+002,9.879501e+000
8.715743e+002,9.787933e+000
8.725386e+002,1.310291e+001
8.735028e+002,1.598596e+001
8.744670e+002,1.713405e+001
8.754313e+002,1.711470e+001
8.763955e+002,1.737857e+001
8.773597e+002,1.875148e+001
8.783240e+002,1.938161e+001
8.792882e+002,1.679848e+001
8.802524e+002,1.358049e+001
8.812167e+002,1.191496e+001
8.821809e+002,1.228519e+001
8.831451e+002,1.401144e+001
8.841094e+002,1.634198e+001
8.850736e+002,1.927243e+001
8.860378e+002,2.109613e+001
8.870021e+002,2.150110e+001
8.879663e+002,2.181186e+001
8.889305e+002,2.280420e+001
8.898948e+002,2.426160e+001
8.908590e+002,2.530949e+001
8.918232e+002,2.627505e+001
8.927875e+002,2.625885e+001
8.937517e+002,2.388004e+001
8.947159e+002,2.143909e+001
8.956802e+002,2.103973e+001
8.966444e+002,2.288272e+001
8.976086e+002,2.510397e+001
8.985729e+002,2.610744e+001
8.995371e+002,2.630164e+001
9.005013e+002,2.618523e+001
9.014656e+002,2.591571e+001
9.024298e+002,2.581862e+001
9.033940e+002,2.606160e+001
9.043583e+002,2.653271e+001
9.053225e+002,2.712883e+001
9.062867e+002,2.849898e+001
9.072510e+002,2.887454e+001
9.082152e+002,2.769121e+001
9.091794e+002,2.612442e+001
9.101437e+002,2.514134e+001
9.111079e+002,2.487752e+001
9.120721e+002,2.527119e+001
9.130364e+002,2.744739e+001
9.140006e+002,2.902267e+001
9.149648e+002,2.767534e+001
9.159291e+002,2.484779e+001
9.168933e+002,2.371036e+001
9.178575e+002,2.637930e+001
9.188218e+002,3.132213e+001
9.197860e+002,3.335156e+001
9.207502e+002,3.239236e+001
9.217145e+002,3.127557e+001
9.226787e+002,3.047327e+001
9.236429e+002,3.005511e+001
9.246072e+002,3.020532e+001
9.255714e+002,3.106775e+001
9.265356e+002,3.120183e+001
9.274999e+002,2.991032e+001
9.284641e+002,2.825677e+001
9.294283e+002,2.629454e+001
9.303926e+002,2.438992e+001
9.313568e+002,2.309653e+001
9.323210e+002,2.272366e+001
9.332853e+002,2.261394e+001
9.342495e+002,2.156844e+001
9.352137e+002,2.006944e+001
9.361780e+002,1.897752e+001
9.371422e+002,1.856529e+001
9.381064e+002,1.852109e+001
9.390707e+002,1.829094e+001
9.400349e+002,1.765546e+001
9.409991e+002,1.745599e+001
9.419634e+002,1.777806e+001
9.429276e+002,1.828935e+001
9.438918e+002,1.911118e+001
9.448561e+002,2.005347e+001
9.458203e+002,2.098038e+001
9.467845e+002,2.203705e+001
9.477488e+002,2.236995e+001
9.487130e+002,2.016278e+001
9.496772e+002,1.774982e+001
9.506415e+002,1.725275e+001
9.516057e+002,1.854736e+001
9.525699e+002,1.993773e+001
9.535342e+002,1.972234e+001
9.544984e+002,1.818512e+001
9.554626e+002,1.845752e+001
9.564269e+002,2.112245e+001
9.573911e+002,2.327016e+001
9.583553e+002,2.429834e+001
9.593196e+002,2.421581e+001
9.602838e+002,2.269194e+001
9.612480e+002,1.916614e+001
9.622123e+002,1.634886e+001
9.631765e+002,1.526826e+001
9.641407e+002,1.486052e+001
9.651050e+002,1.474164e+001
9.660692e+002,1.482182e+001
9.670334e+002,1.531915e+001
9.679977e+002,1.645720e+001
9.689619e+002,1.779681e+001
9.699261e+002,1.792758e+001
9.708904e+002,1.715991e+001
9.718546e+002,1.649988e+001
9.728188e+002,1.604996e+001
9.737831e+002,1.601147e+001
9.747473e+002,1.677112e+001
9.757115e+002,1.850996e+001
9.766758e+002,2.031712e+001
9.776400e+002,2.281233e+001
9.786042e+002,2.481883e+001
9.795685e+002,2.642258e+001
9.805327e+002,2.702702e+001
9.814969e+002,2.548573e+001
9.824612e+002,2.147519e+001
9.834254e+002,1.753917e+001
9.843896e+002,1.630884e+001
9.853539e+002,1.623653e+001
9.863181e+002,1.582123e+001
9.872823e+002,1.491301e+001
9.882466e+002,1.389279e+001
9.892108e+002,1.317001e+001
9.901750e+002,1.299091e+001
9.911393e+002,1.400572e+001
9.921035e+002,1.746660e+001
9.930677e+002,1.935936e+001
9.940320e+002,1.896021e+001
9.949962e+002,1.762465e+001
9.959604e+002,1.607034e+001
9.969247e+002,1.449266e+001
9.978889e+002,1.419307e+001
9.988531e+002,1.650639e+001
9.998174e+002,1.909833e+001
1.000782e+003,2.075845e+001
1.001746e+003,2.185619e+001
1.002710e+003,2.298671e+001
1.003674e+003,2.438017e+001
1.004639e+003,2.579527e+001
1.005603e+003,2.689400e+001
1.006567e+003,2.758527e+001
1.007531e+003,2.684171e+001
1.008495e+003,2.403392e+001
1.009460e+003,2.117389e+001
1.010424e+003,1.930202e+001
1.011388e+003,1.837555e+001
1.012352e+003,1.829268e+001
1.013317e+003,1.967906e+001
1.014281e+003,2.044225e+001
1.015245e+003,1.979955e+001
1.016209e+003,1.847816e+001
1.017174e+003,1.693393e+001
1.018138e+003,1.529669e+001
1.019102e+003,1.339415e+001
1.020066e+003,1.102290e+001
1.021031e+003,8.678253e+000
1.021995e+003,7.712723e+000
1.022959e+003,7.752731e+000
1.023923e+003,7.940552e+000
1.024887e+003,8.093246e+000
1.025852e+003,8.049820e+000
1.026816e+003,7.542282e+000
1.027780e+003,6.532623e+000
1.028744e+003,5.682922e+000
1.029709e+003,5.128067e+000
1.030673e+003,4.580566e+000
1.031637e+003,3.901749e+000
1.032601e+003,3.129562e+000
1.033566e+003,2.305954e+000
1.034530e+003,1.488953e+000
1.035494e+003,9.268188e-001
1.036458e+003,8.955078e-001
1.037422e+003,1.228714e+000
1.038387e+003,1.907501e+000
1.039351e+003,2.787003e+000
1.040315e+003,3.066772e+000
1.041279e+003,2.045105e+000
1.042244e+003,2.075958e-001
1.043208e+003,-1.449585e-001
1.044172e+003,2.810425e+000
1.045136e+003,3.805923e+000
1.046101e+003,1.201279e+000
1.047065e+003,-1.618286e+000
1.048029e+003,-2.525696e+000
1.048993e+003,-1.742081e+000
1.049958e+003,-6.939087e-001
1.050922e+003,1.036835e-001
1.051886e+003,8.204041e-001
1.052850e+003,1.822403e+000
1.053814e+003,2.742279e+000
1.054779e+003,2.738739e+000
1.055743e+003,1.804138e+000
1.056707e+003,1.239456e+000
1.057671e+003,2.739594e+000
1.058636e+003,6.300903e+000
1.059600e+003,7.596497e+000
1.060564e+003,5.011276e+000
1.061528e+003,2.937805e+000
1.062493e+003,2.075272e+000
1.063457e+003,1.676697e+000
1.064421e+003,9.883728e-001
1.065385e+003,-2.687073e-002
1.066349e+003,-8.131561e-001
1.067314e+003,-1.149170e+000
1.068278e+003,-1.039871e+000
1.069242e+003,-2.192535e-001
1.070206e+003,9.595032e-001
1.071171e+003,1.899094e+000
1.072135e+003,2.308258e+000
1.073099e+003,2.383301e+000
1.074063e+003,2.533737e+000
1.075028e+003,2.811249e+000
1.075992e+003,3.119904e+000
1.076956e+003,3.449249e+000
1.077920e+003,3.641403e+000
1.078885e+003,4.105331e+000
1.079849e+003,4.397964e+000
1.080813e+003,3.204880e+000
1.081777e+003,-7.899475e-002
1.082741e+003,-2.329269e+000
1.083706e+003,-9.969025e-001
1.084670e+003,7.825775e-001
1.085634e+003,1.394226e+000
1.086598e+003,1.100586e+000
1.087563e+003,8.103790e-001
1.088527e+003,1.073669e+000
1.089491e+003,1.597336e+000
1.090455e+003,1.575790e+000
1.091420e+003,8.388062e-001
1.092384e+003,9.008942e-001
1.093348e+003,2.082870e+000
1.094312e+003,3.286530e+000
1.095276e+003,4.056000e+000
1.096241e+003,4.491531e+000
1.097205e+003,4.760422e+000
1.098169e+003,5.014999e+000
1.099133e+003,4.410400e+000
1.100098e+003,1.986237e+000
1.101062e+003,-6.133423e-001
1.102026e+003,-2.775391e+000
1.102990e+003,-4.183029e+000
1.103955e+003,-4.410400e+000
1.104919e+003,-3.250702e+000
1.105883e+003,-1.396118e+000
1.106847e+003,-2.435303e-001
1.107812e+003,1.598511e-001
1.108776e+003,6.104126e-001
1.109740e+003,1.164841e+000
1.110704e+003,1.725937e+000
1.111668e+003,2.407104e+000
1.112633e+003,3.191742e+000
1.113597e+003,3.625885e+000
1.114561e+003,3.347076e+000
1.115525e+003,3.243713e+000
1.116490e+003,3.653107e+000
1.117454e+003,4.204758e+000
1.118418e+003,5.148193e+000
1.119382e+003,6.115967e+000
1.120347e+003,6.098846e+000
1.121311e+003,4.394180e+000
1.122275e+003,1.801086e+000
1.123239e+003,-6.060791e-002
1.124203e+003,-9.127350e-001
1.125168e+003,2.658997e-001
1.126132e+003,4.379196e+000
1.127096e+003,8.492462e+000
1.128060e+003,1.008516e+001
1.129025e+003,9.658707e+000
1.129989e+003,9.784470e+000
1.130953e+003,1.082082e+001
1.131917e+003,1.185449e+001
1.132882e+003,1.314839e+001
1.133846e+003,1.399097e+001
1.134810e+003,1.358139e+001
1.135774e+003,1.240575e+001
1.136739e+003,1.151407e+001
1.137703e+003,1.149419e+001
1.138667e+003,1.210747e+001
1.139631e+003,1.310173e+001
1.140595e+003,1.440024e+001
1.141560e+003,1.532309e+001
1.142524e+003,1.557036e+001
1.143488e+003,1.673929e+001
1.144452e+003,2.011356e+001
1.145417e+003,2.524132e+001
1.146381e+003,3.043019e+001
1.147345e+003,3.537814e+001
1.148309e+003,4.103447e+001
1.149274e+003,4.862288e+001
1.150238e+003,5.603294e+001
1.151202e+003,6.218999e+001
1.152166e+003,6.747147e+001
1.153130e+003,7.279926e+001
1.154095e+003,7.845795e+001
1.155059e+003,8.360829e+001
1.156023e+003,8.752855e+001
1.156987e+003,8.987335e+001
1.157952e+003,8.919739e+001
1.158916e+003,8.545569e+001
1.159880e+003,8.044273e+001
1.160844e+003,7.424535e+001
1.161809e+003,6.725095e+001
1.162773e+003,6.071649e+001
1.163737e+003,5.472513e+001
1.164701e+003,4.887587e+001
1.165666e+003,4.292105e+001
1.166630e+003,3.743086e+001
1.167594e+003,3.238139e+001
1.168558e+003,2.800186e+001
1.169522e+003,2.462389e+001
1.170487e+003,2.231483e+001
1.171451e+003,2.092970e+001
1.172415e+003,2.039801e+001
1.173379e+003,2.046873e+001
1.174344e+003,1.977496e+001
1.175308e+003,1.825031e+001
1.176272e+003,1.747049e+001
1.177236e+003,1.880588e+001
1.178201e+003,2.054581e+001
1.179165e+003,2.026721e+001
1.180129e+003,1.786740e+001
1.181093e+003,1.541010e+001
1.182057e+003,1.262833e+001
1.183022e+003,1.106131e+001
1.183986e+003,1.184024e+001
1.184950e+003,1.353833e+001
1.185914e+003,1.518083e+001
1.186879e+003,1.638780e+001
1.187843e+003,1.690497e+001
1.188807e+003,1.647943e+001
1.189771e+003,1.534709e+001
1.190736e+003,1.422540e+001
1.191700e+003,1.305652e+001
1.192664e+003,1.256812e+001
1.193628e+003,1.342880e+001
1.194593e+003,1.432877e+001
1.195557e+003,1.442715e+001
1.196521e+003,1.378070e+001
1.197485e+003,1.253221e+001
1.198449e+003,1.050145e+001
1.199414e+003,8.573883e+000
1.200378e+003,7.218292e+000
1.201342e+003,6.052612e+000
1.202306e+003,4.538376e+000
1.203271e+003,3.022568e+000
1.204235e+003,2.437851e+000
1.205199e+003,3.172394e+000
1.206163e+003,4.401321e+000
1.207128e+003,4.713989e+000
1.208092e+003,4.064697e+000
1.209056e+003,3.412735e+000
1.210020e+003,2.480560e+000
1.210984e+003,2.068985e+000
1.211949e+003,3.262283e+000
1.212913e+003,4.523743e+000
1.213877e+003,3.706833e+000
1.214841e+003,7.530823e-001
1.215806e+003,-2.384521e+000
1.216770e+003,-5.548126e+000
1.217734e+003,-7.780441e+000
1.218698e+003,-8.026627e+000
1.219663e+003,-7.495621e+000
1.220627e+003,-7.812683e+000
1.221591e+003,-9.108414e+000
1.222555e+003,-1.001617e+001
1.223520e+003,-9.188950e+000
1.224484e+003,-7.321594e+000
1.225448e+003,-7.999054e+000
1.226412e+003,-1.349074e+001
1.227376e+003,-1.641635e+001
1.228341e+003,-1.539240e+001
1.229305e+003,-1.353935e+001
1.230269e+003,-1.206129e+001
1.231233e+003,-1.109651e+001
1.232198e+003,-1.081889e+001
1.233162e+003,-1.126636e+001
1.234126e+003,-1.166983e+001
1.235090e+003,-1.138834e+001
1.236055e+003,-1.102792e+001
1.237019e+003,-1.134210e+001
1.237983e+003,-1.212209e+001
1.238947e+003,-1.262770e+001
1.239911e+003,-1.250874e+001
1.240876e+003,-1.227544e+001
1.241840e+003,-1.285152e+001
1.242804e+003,-1.433147e+001
1.243768e+003,-1.478908e+001
1.244733e+003,-1.290419e+001
1.245697e+003,-1.171727e+001
1.246661e+003,-1.221068e+001
1.247625e+003,-1.297284e+001
1.248590e+003,-1.274702e+001
1.249554e+003,-1.171561e+001
1.250518e+003,-1.099353e+001
1.251482e+003,-1.116486e+001
1.252447e+003,-1.149461e+001
1.253411e+003,-1.079109e+001
1.254375e+003,-9.626312e+000
1.255339e+003,-9.478333e+000
1.256303e+003,-1.031158e+001
1.257268e+003,-1.086430e+001
1.258232e+003,-1.049544e+001
1.259196e+003,-9.559982e+000
1.260160e+003,-8.423889e+000
1.261125e+003,-6.840332e+000
1.262089e+003,-6.099625e+000
1.263053e+003,-7.616501e+000
1.264017e+003,-8.581558e+000
1.264982e+003,-7.753250e+000
1.265946e+003,-6.446564e+000
1.266910e+003,-5.910583e+000
1.267874e+003,-6.190842e+000
1.268839e+003,-6.489319e+000
1.269803e+003,-6.264999e+000
1.270767e+003,-6.028275e+000
1.271731e+003,-6.878433e+000
1.272695e+003,-8.738373e+000
1.273660e+003,-1.023019e+001
1.274624e+003,-1.168019e+001
1.275588e+003,-1.220251e+001
1.276552e+003,-1.043994e+001
1.277517e+003,-7.638199e+000
1.278481e+003,-6.335632e+000
1.279445e+003,-6.793945e+000
1.280409e+003,-7.321671e+000
1.281374e+003,-7.165771e+000
1.282338e+003,-7.269958e+000
1.283302e+003,-8.664444e+000
1.284266e+003,-1.025496e+001
1.285230e+003,-1.060663e+001
1.286195e+003,-9.718552e+000
1.287159e+003,-8.699036e+000
1.288123e+003,-8.416382e+000
1.289087e+003,-8.772354e+000
1.290052e+003,-9.725647e+000
1.291016e+003,-1.188986e+001
1.291980e+003,-1.256364e+001
1.292944e+003,-1.071388e+001
1.293909e+003,-9.027176e+000
1.294873e+003,-8.509430e+000
1.295837e+003,-8.607651e+000
1.296801e+003,-8.527740e+000
1.297766e+003,-8.191818e+000
1.298730e+003,-8.221039e+000
1.299694e+003,-9.049255e+000
1.300658e+003,-1.033018e+001
1.301622e+003,-1.215141e+001
1.302587e+003,-1.388087e+001
1.303551e+003,-1.429886e+001
1.304515e+003,-1.326254e+001
1.305479e+003,-1.196672e+001
1.306444e+003,-1.145955e+001
1.307408e+003,-1.142691e+001
1.308372e+003,-1.050479e+001
1.309336e+003,-8.007355e+000
1.310301e+003,-6.798798e+000
1.311265e+003,-7.388824e+000
1.312229e+003,-8.683716e+000
1.313193e+003,-1.158293e+001
1.314157e+003,-1.428017e+001
1.315122e+003,-1.436671e+001
1.316086e+003,-1.216972e+001
1.317050e+003,-1.055356e+001
1.318014e+003,-1.142076e+001
1.318979e+003,-1.317653e+001
1.319943e+003,-1.295399e+001
1.320907e+003,-1.092365e+001
1.321871e+003,-9.294220e+000
1.322836e+003,-8.285400e+000
1.323800e+003,-7.624054e+000
1.324764e+003,-6.941803e+000
1.325728e+003,-6.592041e+000
1.326693e+003,-7.565964e+000
1.327657e+003,-9.968872e+000
1.328621e+003,-1.159094e+001
1.329585e+003,-1.136317e+001
1.330549e+003,-1.053708e+001
1.331514e+003,-9.841797e+000
1.332478e+003,-9.295471e+000
1.333442e+003,-8.756805e+000
1.334406e+003,-8.255798e+000
1.335371e+003,-8.119415e+000
1.336335e+003,-8.519333e+000
1.337299e+003,-8.948929e+000
1.338263e+003,-8.412216e+000
1.339228e+003,-6.714600e+000
1.340192e+003,-5.852310e+000
1.341156e+003,-6.346817e+000
1.342120e+003,-6.848526e+000
1.343084e+003,-7.213638e+000
1.344049e+003,-7.649078e+000
1.345013e+003,-8.374374e+000
1.345977e+003,-9.185074e+000
1.346941e+003,-9.725128e+000
1.347906e+003,-9.905365e+000
1.348870e+003,-9.284485e+000
1.349834e+003,-6.646347e+000
1.350798e+003,-3.674713e+000
1.351763e+003,-3.715454e+000
1.352727e+003,-6.257034e+000
1.353691e+003,-8.372223e+000
1.354655e+003,-8.981079e+000
1.355620e+003,-8.881805e+000
1.356584e+003,-9.024490e+000
1.357548e+003,-9.301590e+000
1.358512e+003,-8.979477e+000
1.359476e+003,-7.988632e+000
1.360441e+003,-6.838898e+000
1.361405e+003,-4.497833e+000
1.362369e+003,-3.169815e+000
1.363333e+003,-4.950409e+000
1.364298e+003,-7.944199e+000
1.365262e+003,-9.368286e+000
1.366226e+003,-8.677856e+000
1.367190e+003,-7.530502e+000
1.368155e+003,-7.407303e+000
1.369119e+003,-7.893173e+000
1.370083e+003,-7.606949e+000
1.371047e+003,-6.090271e+000
1.372011e+003,-5.652573e+000
1.372976e+003,-7.340393e+000
1.373940e+003,-8.876007e+000
1.374904e+003,-9.412735e+000
1.375868e+003,-9.271729e+000
1.376833e+003,-8.735184e+000
1.377797e+003,-7.942474e+000
1.378761e+003,-7.251602e+000
1.379725e+003,-6.783981e+000
1.380690e+003,-6.467621e+000
1.381654e+003,-6.328491e+000
1.382618e+003,-6.206665e+000
1.383582e+003,-5.957947e+000
1.384547e+003,-5.547745e+000
1.385511e+003,-4.780212e+000
1.386475e+003,-3.476959e+000
1.387439e+003,-2.214447e+000
1.388403e+003,-1.813675e+000
1.389368e+003,-2.284393e+000
1.390332e+003,-3.406754e+000
1.391296e+003,-5.827042e+000
1.392260e+003,-7.431412e+000
1.393225e+003,-7.312439e+000
1.394189e+003,-6.870102e+000
1.395153e+003,-7.121841e+000
1.396117e+003,-7.469223e+000
1.397082e+003,-6.403412e+000
1.398046e+003,-3.914108e+000
1.399010e+003,-2.230133e+000
1.399974e+003,-3.521729e+000
1.400938e+003,-6.625320e+000
1.401903e+003,-7.497086e+000
1.402867e+003,-5.183121e+000
1.403831e+003,-3.471695e+000
1.404795e+003,-2.569855e+000
1.405760e+003,-2.180420e+000
1.406724e+003,-2.694550e+000
1.407688e+003,-3.649277e+000
1.408652e+003,-4.449799e+000
1.409617e+003,-4.900223e+000
1.410581e+003,-4.761490e+000
1.411545e+003,-3.768860e+000
1.412509e+003,-3.138596e+000
1.413474e+003,-4.933334e+000
1.414438e+003,-7.413345e+000
1.415402e+003,-7.080215e+000
1.416366e+003,-4.288239e+000
1.417330e+003,-2.055664e+000
1.418295e+003,-1.562531e+000
1.419259e+003,-1.956711e+000
1.420223e+003,-2.541016e+000
1.421187e+003,-3.307983e+000
1.422152e+003,-3.861313e+000
1.423116e+003,-4.146118e+000
1.424080e+003,-4.005844e+000
1.425044e+003,-2.809021e+000
1.426009e+003,-2.012924e+000
1.426973e+003,-2.615219e+000
1.427937e+003,-3.731857e+000
1.428901e+003,-4.406891e+000
1.429865e+003,-4.391449e+000
1.430830e+003,-3.678757e+000
1.431794e+003,-2.341492e+000
1.432758e+003,-1.061249e+000
1.433722e+003,-1.157791e+000
1.434687e+003,-2.682846e+000
1.435651e+003,-3.018341e+000
1.436615e+003,-1.554245e+000
1.437579e+003,-4.696808e-001
1.438544e+003,1.505737e-001
1.439508e+003,3.225403e-001
1.440472e+003,-1.064911e-001
1.441436e+003,-7.904510e-001
1.442401e+003,-1.231491e+000
1.443365e+003,-1.334610e+000
1.444329e+003,-1.265594e+000
1.445293e+003,-1.096024e+000
1.446257e+003,-8.395996e-001
1.447222e+003,-5.795898e-001
1.448186e+003,-3.211365e-001
1.449150e+003,3.541565e-002
1.450114e+003,5.755310e-001
1.451079e+003,7.657776e-001
1.452043e+003,2.168274e-001
1.453007e+003,-6.207733e-001
1.453971e+003,-1.250595e+000
1.454936e+003,-1.710968e+000
1.455900e+003,-2.120865e+000
1.456864e+003,-2.549332e+000
1.457828e+003,-2.572571e+000
1.458792e+003,-1.338760e+000
1.459757e+003,-2.809753e-001
1.460721e+003,-9.255676e-001
1.461685e+003,-2.549210e+000
1.462649e+003,-3.730942e+000
1.463614e+003,-4.004501e+000
1.464578e+003,-3.441940e+000
1.465542e+003,-2.005600e+000
1.466506e+003,-1.094818e-001
1.467471e+003,1.180923e+000
1.468435e+003,1.958893e+000
1.469399e+003,2.231720e+000
1.470363e+003,9.158936e-001
1.471328e+003,4.250641e-001
1.472292e+003,2.461197e+000
1.473256e+003,4.178146e+000
1.474220e+003,2.928986e+000
1.475184e+003,1.691589e-001
1.476149e+003,-1.150970e+000
1.477113e+003,-1.660461e-001
1.478077e+003,1.797241e+000
1.479041e+003,3.589966e+000
1.480006e+003,5.004303e+000
1.480970e+003,5.021088e+000
1.481934e+003,3.003098e+000
1.482898e+003,1.838379e+000
1.483863e+003,2.055908e+000
1.484827e+003,2.242126e+000
1.485791e+003,1.864365e+000
1.486755e+003,1.609283e+000
1.487719e+003,2.078354e+000
1.488684e+003,3.112457e+000
1.489648e+003,4.399719e+000
1.490612e+003,5.858627e+000
1.491576e+003,7.013870e+000
1.492541e+003,7.319901e+000
1.493505e+003,7.226257e+000
1.494469e+003,7.751678e+000
1.495433e+003,8.703705e+000
1.496398e+003,9.669724e+000
1.497362e+003,1.085460e+001
1.498326e+003,1.178511e+001
1.499290e+003,1.142513e+001
1.500255e+003,1.119548e+001
1.501219e+003,1.328981e+001
1.502183e+003,1.734212e+001
1.503147e+003,2.116809e+001
1.504111e+003,2.428073e+001
1.505076e+003,2.717862e+001
1.506040e+003,2.990651e+001
1.507004e+003,3.287050e+001
1.507968e+003,3.674185e+001
1.508933e+003,4.104781e+001
1.509897e+003,4.442639e+001
1.510861e+003,4.690431e+001
1.511825e+003,5.084012e+001
1.512790e+003,5.810938e+001
1.513754e+003,6.706442e+001
1.514718e+003,7.471117e+001
1.515682e+003,8.095871e+001
1.516646e+003,8.745694e+001
1.517611e+003,9.475815e+001
1.518575e+003,1.015523e+002
1.519539e+003,1.082992e+002
1.520503e+003,1.137276e+002
1.521468e+003,1.170244e+002
1.522432e+003,1.185314e+002
1.523396e+003,1.187740e+002
1.524360e+003,1.178308e+002
1.525325e+003,1.152710e+002
1.526289e+003,1.108473e+002
1.527253e+003,1.056748e+002
1.528217e+003,1.018260e+002
1.529182e+003,9.941832e+001
1.530146e+003,9.537860e+001
1.531110e+003,8.924121e+001
1.532074e+003,8.205997e+001
1.533039e+003,7.351076e+001
1.534003e+003,6.412140e+001
1.534967e+003,5.287007e+001
1.535931e+003,4.216760e+001
1.536896e+003,3.499573e+001
1.537860e+003,3.101654e+001
1.538824e+003,2.760382e+001
1.539788e+003,2.335078e+001
1.540752e+003,1.919757e+001
1.541717e+003,1.645914e+001
1.542681e+003,1.496741e+001
1.543645e+003,1.322409e+001
1.544609e+003,1.089891e+001
1.545573e+003,9.523315e+000
1.546538e+003,9.536026e+000
1.547502e+003,9.598160e+000
1.548466e+003,9.556335e+000
1.549430e+003,9.326538e+000
1.550395e+003,8.260437e+000
1.551359e+003,6.873016e+000
1.552323e+003,6.991440e+000
1.553287e+003,9.137329e+000
1.554252e+003,1.115256e+001
1.555216e+003,1.110683e+001
1.556180e+003,9.701233e+000
1.557144e+003,8.355911e+000
1.558109e+003,7.124695e+000
1.559073e+003,6.804367e+000
1.560037e+003,7.891937e+000
1.561001e+003,8.538391e+000
1.561966e+003,8.248169e+000
1.562930e+003,7.442703e+000
1.563894e+003,6.038315e+000
1.564858e+003,4.413284e+000
1.565823e+003,3.401871e+000
1.566787e+003,3.169556e+000
1.567751e+003,3.757690e+000
1.568715e+003,5.519180e+000
1.569679e+003,7.262299e+000
1.570644e+003,7.316269e+000
1.571608e+003,6.080368e+000
1.572572e+003,4.709534e+000
1.573536e+003,3.273926e+000
1.574500e+003,2.965668e+000
1.575465e+003,4.996689e+000
1.576429e+003,6.893097e+000
1.577393e+003,6.054077e+000
1.578357e+003,3.878510e+000
1.579322e+003,3.274948e+000
1.580286e+003,4.372223e+000
1.581250e+003,5.446686e+000
1.582214e+003,5.939240e+000
1.583179e+003,6.486038e+000
1.584143e+003,7.991516e+000
1.585107e+003,9.277969e+000
1.586071e+003,8.546387e+000
1.587036e+003,6.559860e+000
1.588000e+003,5.267975e+000
1.588964e+003,4.993958e+000
1.589928e+003,5.616913e+000
1.590893e+003,7.637787e+000
1.591857e+003,9.988800e+000
1.592821e+003,1.116939e+001
1.593785e+003,1.126035e+001
1.594750e+003,1.028862e+001
1.595714e+003,7.865051e+000
1.596678e+003,6.721024e+000
1.597642e+003,8.915894e+000
1.598606e+003,1.131505e+001
1.599571e+003,1.089842e+001
1.600535e+003,9.553406e+000
1.601499e+003,9.876389e+000
1.602463e+003,1.170804e+001
1.603427e+003,1.320715e+001
1.604392e+003,1.365508e+001
1.605356e+003,1.346265e+001
1.606320e+003,1.269135e+001
1.607284e+003,1.172849e+001
1.608249e+003,1.176836e+001
1.609213e+003,1.284593e+001
1.610177e+003,1.400394e+001
1.611141e+003,1.545923e+001
1.612106e+003,1.606303e+001
1.613070e+003,1.456873e+001
1.614034e+003,1.259682e+001
1.614998e+003,1.056300e+001
1.615963e+003,9.177689e+000
1.616927e+003,1.005264e+001
1.617891e+003,1.301974e+001
1.618855e+003,1.550735e+001
1.619820e+003,1.595197e+001
1.620784e+003,1.512161e+001
1.621748e+003,1.388181e+001
1.622712e+003,1.253323e+001
1.623677e+003,1.227858e+001
1.624641e+003,1.336063e+001
1.625605e+003,1.422263e+001
1.626569e+003,1.427306e+001
1.627533e+003,1.399103e+001
1.628498e+003,1.369052e+001
1.629462e+003,1.333784e+001
1.630426e+003,1.243797e+001
1.631390e+003,1.153157e+001
1.632354e+003,1.206963e+001
1.633319e+003,1.420987e+001
1.634283e+003,1.608755e+001
1.635247e+003,1.624309e+001
1.636211e+003,1.554391e+001
1.637176e+003,1.583597e+001
1.638140e+003,1.702470e+001
1.639104e+003,1.667110e+001
1.640068e+003,1.398450e+001
1.641033e+003,1.239442e+001
1.641997e+003,1.363013e+001
1.642961e+003,1.497115e+001
1.643925e+003,1.517189e+001
1.644890e+003,1.472433e+001
1.645854e+003,1.377826e+001
1.646818e+003,1.263811e+001
1.647782e+003,1.200298e+001
1.648747e+003,1.203525e+001
1.649711e+003,1.200871e+001
1.650675e+003,1.129877e+001
1.651639e+003,1.038637e+001
1.652604e+003,1.009804e+001
1.653568e+003,1.037354e+001
1.654532e+003,1.120149e+001
1.655496e+003,1.295209e+001
1.656460e+003,1.392014e+001
1.657425e+003,1.327211e+001
1.658389e+003,1.226015e+001
1.659353e+003,1.136819e+001
1.660317e+003,1.061967e+001
1.661281e+003,9.830002e+000
1.662246e+003,9.184174e+000
1.663210e+003,9.430832e+000
1.664174e+003,1.080022e+001
1.665138e+003,1.213878e+001
1.666103e+003,1.245724e+001
1.667067e+003,1.202640e+001
1.668031e+003,1.129828e+001
1.668995e+003,1.033829e+001
1.669960e+003,9.702194e+000
1.670924e+003,9.437332e+000
1.671888e+003,9.658615e+000
1.672852e+003,1.110287e+001
1.673817e+003,1.190549e+001
1.674781e+003,1.001199e+001
1.675745e+003,7.537369e+000
1.676709e+003,6.862091e+000
1.677674e+003,7.694504e+000
1.678638e+003,8.752258e+000
1.679602e+003,9.620850e+000
1.680566e+003,9.670593e+000
1.681531e+003,7.999023e+000
1.682495e+003,5.900299e+000
1.683459e+003,5.889084e+000
1.684423e+003,7.450378e+000
1.685387e+003,7.218719e+000
1.686352e+003,4.546967e+000
1.687316e+003,3.475830e+000
1.688280e+003,6.447876e+000
1.689244e+003,9.116074e+000
1.690208e+003,7.388718e+000
1.691173e+003,4.190704e+000
1.692137e+003,2.379547e+000
1.693101e+003,1.975327e+000
1.694065e+003,2.536667e+000
1.695030e+003,3.927963e+000
1.695994e+003,5.143021e+000
1.696958e+003,5.588806e+000
1.697922e+003,5.605621e+000
1.698887e+003,5.640213e+000
1.699851e+003,5.618652e+000
1.700815e+003,5.058212e+000
1.701779e+003,3.905228e+000
1.702744e+003,3.231735e+000
1.703708e+003,3.526108e+000
1.704672e+003,4.247375e+000
1.705636e+003,5.575928e+000
1.706601e+003,6.255234e+000
1.707565e+003,3.381790e+000
1.708529e+003,-1.444046e+000
1.709493e+003,-2.746140e+000
1.710458e+003,5.470123e-001
1.711422e+003,2.918213e+000
1.712386e+003,1.033936e+000
1.713350e+003,-1.123337e+000
1.714314e+003,1.392975e-001
1.715279e+003,2.756439e+000
1.716243e+003,2.938782e+000
1.717207e+003,1.091827e+000
1.718171e+003,8.867035e-001
1.719135e+003,3.353500e+000
1.720100e+003,5.135895e+000
1.721064e+003,3.717468e+000
1.722028e+003,1.226563e+000
1.722992e+003,9.277802e-001
1.723957e+003,2.405899e+000
1.724921e+003,2.635193e+000
1.725885e+003,1.240097e+000
1.726849e+003,1.363525e-001
1.727814e+003,-4.234467e-001
1.728778e+003,-2.629242e-001
1.729742e+003,1.621002e+000
1.730706e+003,3.362793e+000
1.731671e+003,2.639755e+000
1.732635e+003,3.602448e-001
1.733599e+003,-1.370895e+000
1.734563e+003,-1.976212e+000
1.735528e+003,-1.447037e+000
1.736492e+003,1.639709e-001
1.737456e+003,1.241287e+000
1.738420e+003,-3.307953e-001
1.739385e+003,-3.568283e+000
1.740349e+003,-4.538300e+000
1.741313e+003,-2.711426e+000
1.742277e+003,-9.521179e-001
1.743241e+003,1.046677e+000
1.744206e+003,2.649231e+000
1.745170e+003,3.942749e+000
1.746134e+003,4.528839e+000
1.747098e+003,4.023834e+000
1.748063e+003,2.808197e+000
1.749027e+003,8.655396e-001
1.749991e+003,-1.263962e+000
1.750955e+003,-2.532944e+000
1.751919e+003,-2.645355e+000
1.752884e+003,-2.186996e+000
1.753848e+003,-1.633255e+000
1.754812e+003,-1.044220e+000
1.755776e+003,-3.789825e-001
1.756741e+003,4.028778e-001
1.757705e+003,-1.609955e-001
1.758669e+003,-3.063934e+000
1.759633e+003,-4.595840e+000
1.760598e+003,-3.866776e+000
1.761562e+003,-2.564682e+000
1.762526e+003,-2.796631e-001
1.763490e+003,1.616455e+000
1.764455e+003,1.945648e+000
1.765419e+003,1.392029e+000
1.766383e+003,9.221039e-001
1.767347e+003,6.959381e-001
1.768312e+003,6.343231e-001
1.769276e+003,6.846771e-001
1.770240e+003,4.390411e-001
1.771204e+003,-5.405884e-001
1.772168e+003,-1.840149e+000
1.773133e+003,-2.897644e+000
1.774097e+003,-3.658783e+000
1.775061e+003,-3.365784e+000
1.776025e+003,-1.881912e+000
1.776990e+003,-3.705902e-001
1.777954e+003,1.228104e+000
1.778918e+003,2.073898e+000
1.779882e+003,1.004501e+000
1.780846e+003,-8.964996e-001
1.781811e+003,-2.422638e+000
1.782775e+003,-3.403381e+000
1.783739e+003,-3.189209e+000
1.784703e+003,-1.561600e+000
1.785668e+003,1.193085e-001
1.786632e+003,1.685104e+000
1.787596e+003,2.397736e+000
1.788560e+003,1.477921e+000
1.789525e+003,-2.182007e-001
1.790489e+003,-2.122772e+000
1.791453e+003,-3.816818e+000
1.792417e+003,-3.983536e+000
1.793382e+003,-2.504807e+000
1.794346e+003,-1.119736e+000
1.795310e+003,-7.652435e-001
1.796274e+003,-7.076416e-001
1.797239e+003,1.640320e-002
1.798203e+003,1.114258e+000
1.799167e+003,1.230316e+000
1.800131e+003,-6.864929e-002
1.801095e+003,-6.660004e-001
1.802060e+003,2.903900e-001
1.803024e+003,8.579254e-001
1.803988e+003,3.277283e-001
1.804952e+003,-1.054382e-001
1.805917e+003,3.004456e-001
1.806881e+003,9.189148e-001
1.807845e+003,1.204132e+000
1.808809e+003,1.186447e+000
1.809773e+003,1.016968e+000
1.810738e+003,7.744446e-001
1.811702e+003,4.248657e-001
1.812666e+003,-3.991699e-002
1.813630e+003,2.851868e-002
1.814595e+003,1.809570e+000
1.815559e+003,4.432220e+000
1.816523e+003,3.901474e+000
1.817487e+003,-2.094727e-001
1.818452e+003,-2.272568e+000
1.819416e+003,-1.341522e+000
1.820380e+003,-5.966187e-002
1.821344e+003,1.338531e+000
1.822309e+003,2.061920e+000
1.823273e+003,9.738007e-001
1.824237e+003,-3.259583e-001
1.825201e+003,1.951294e-001
1.826166e+003,1.715057e+000
1.827130e+003,1.719574e+000
1.828094e+003,-2.025757e-001
1.829058e+003,-1.672607e+000
1.830022e+003,-1.305359e+000
1.830987e+003,-5.697479e-001
1.831951e+003,-6.981049e-001
1.832915e+003,-1.180084e+000
1.833879e+003,-1.515213e+000
1.834844e+003,-1.527176e+000
1.835808e+003,-4.363708e-001
1.836772e+003,1.658188e+000
1.837736e+003,2.764175e+000
1.838700e+003,1.942429e+000
1.839665e+003,6.386108e-001
1.840629e+003,1.657715e-001
1.841593e+003,2.489166e-001
1.842557e+003,2.646027e-001
1.843522e+003,2.092133e-001
1.844486e+003,1.426544e-001
1.845450e+003,6.127930e-002
1.846414e+003,2.001801e-001
1.847379e+003,8.463440e-001
1.848343e+003,1.028641e+000
1.849307e+003,1.662750e-001
1.850271e+003,-8.450317e-001
1.851236e+003,-1.033890e+000
1.852200e+003,-1.088242e+000
1.853164e+003,-2.846527e+000
1.854128e+003,-5.575485e+000
1.855093e+003,-5.961090e+000
1.856057e+003,-2.975449e+000
1.857021e+003,9.053040e-002
1.857985e+003,4.199066e-001
1.858949e+003,-6.385345e-001
1.859914e+003,-7.847290e-001
1.860878e+003,-1.848755e-001
1.861842e+003,8.552551e-002
1.862806e+003,-1.469421e-002
1.863771e+003,-2.379150e-001
1.864735e+003,-6.452179e-001
1.865699e+003,-8.861237e-001
1.866663e+003,-7.163544e-001
1.867627e+003,-3.576660e-001
1.868592e+003,-4.209900e-002
1.869556e+003,1.988983e-001
1.870520e+003,4.851837e-001
1.871484e+003,7.831268e-001
1.872449e+003,9.098663e-001
1.873413e+003,1.016373e+000
1.874377e+003,1.275314e+000
1.875341e+003,1.651367e+000
1.876306e+003,1.878510e+000
1.877270e+003,1.615143e+000
1.878234e+003,1.263062e+000
1.879198e+003,1.379456e+000
1.880163e+003,1.706924e+000
1.881127e+003,1.576447e+000
1.882091e+003,1.099731e+000
1.883055e+003,1.252838e+000
1.884020e+003,2.316101e+000
1.884984e+003,2.970963e+000
1.885948e+003,1.990662e+000
1.886912e+003,2.887268e-001
1.887876e+003,-3.289032e-001
1.888841e+003,9.269714e-002
1.889805e+003,1.106033e+000
1.890769e+003,3.017456e+000
1.891733e+003,3.771469e+000
1.892698e+003,2.569931e+000
1.893662e+003,1.512756e+000
1.894626e+003,1.322968e+000
1.895590e+003,1.526276e+000
1.896554e+003,2.054199e+000
1.897519e+003,2.690659e+000
1.898483e+003,3.315308e+000
1.899447e+003,3.680023e+000
1.900411e+003,3.013611e+000
1.901376e+003,1.127213e+000
1.902340e+003,-4.435730e-002
1.903304e+003,6.891022e-001
1.904268e+003,1.538177e+000
1.905233e+003,1.100220e+000
1.906197e+003,6.105804e-001
1.907161e+003,1.657272e+000
1.908125e+003,3.468689e+000
1.909090e+003,4.609894e+000
1.910054e+003,4.867859e+000
1.911018e+003,4.456360e+000
1.911982e+003,3.612839e+000
1.912947e+003,2.930984e+000
1.913911e+003,2.818054e+000
1.914875e+003,3.309052e+000
1.915839e+003,4.532639e+000
1.916803e+003,6.162140e+000
1.917768e+003,6.844360e+000
1.918732e+003,6.537277e+000
1.919696e+003,5.926895e+000
1.920660e+003,4.933960e+000
1.921625e+003,4.014038e+000
1.922589e+003,2.877502e+000
1.923553e+003,2.336899e+000
1.924517e+003,3.156097e+000
1.925481e+003,4.497635e+000
1.926446e+003,6.148209e+000
1.927410e+003,7.602463e+000
1.928374e+003,7.497406e+000
1.929338e+003,5.896912e+000
1.930303e+003,5.352707e+000
1.931267e+003,7.126205e+000
1.932231e+003,8.395050e+000
1.933195e+003,7.370850e+000
1.934160e+003,5.839996e+000
1.935124e+003,4.822540e+000
1.936088e+003,4.210480e+000
1.937052e+003,4.063766e+000
1.938017e+003,4.221741e+000
1.938981e+003,4.354294e+000
1.939945e+003,4.360580e+000
1.940909e+003,4.265305e+000
1.941874e+003,4.060852e+000
1.942838e+003,3.697952e+000
1.943802e+003,3.179489e+000
1.944766e+003,2.741226e+000
1.945730e+003,2.617645e+000
1.946695e+003,2.795425e+000
1.947659e+003,3.802155e+000
1.948623e+003,5.734024e+000
1.949587e+003,7.281281e+000
1.950552e+003,8.524399e+000
1.951516e+003,8.548096e+000
1.952480e+003,6.329514e+000
1.953444e+003,4.353683e+000
1.954408e+003,4.532196e+000
1.955373e+003,5.619217e+000
1.956337e+003,6.070251e+000
1.957301e+003,6.121979e+000
1.958265e+003,6.380829e+000
1.959230e+003,6.946335e+000
1.960194e+003,7.053986e+000
1.961158e+003,5.898514e+000
1.962122e+003,5.064743e+000
1.963087e+003,5.061874e+000
1.964051e+003,5.403687e+000
1.965015e+003,6.325607e+000
1.965979e+003,7.161575e+000
1.966944e+003,6.939102e+000
1.967908e+003,6.126892e+000
1.968872e+003,5.837875e+000
1.969836e+003,6.113983e+000
1.970801e+003,6.067856e+000
1.971765e+003,5.349899e+000
1.972729e+003,4.565659e+000
1.973693e+003,4.128677e+000
1.974657e+003,4.157440e+000
1.975622e+003,5.034027e+000
1.976586e+003,6.387024e+000
1.977550e+003,7.522690e+000
1.978514e+003,8.338257e+000
1.979479e+003,7.985107e+000
1.980443e+003,6.427261e+000
1.981407e+003,5.455719e+000
1.982371e+003,5.781540e+000
1.983335e+003,6.523178e+000
1.984300e+003,6.977676e+000
1.985264e+003,7.446121e+000
1.986228e+003,8.569855e+000
1.987192e+003,1.001871e+001
1.988157e+003,9.984329e+000
1.989121e+003,8.036621e+000
1.990085e+003,7.015900e+000
1.991049e+003,7.371918e+000
1.992014e+003,7.844772e+000
1.992978e+003,8.384720e+000
1.993942e+003,8.795166e+000
1.994906e+003,8.722244e+000
1.995871e+003,8.795746e+000
1.996835e+003,9.837875e+000
1.997799e+003,1.115852e+001
1.998763e+003,1.161884e+001
1.999728e+003,1.129134e+001
