5.003444e+002,3.744092e+001
5.013087e+002,3.584317e+001
5.022729e+002,3.445139e+001
5.032371e+002,3.336560e+001
5.042014e+002,3.179953e+001
5.051656e+002,2.994241e+001
5.061298e+002,2.879590e+001
5.070941e+002,2.934659e+001
5.080583e+002,3.200043e+001
5.090225e+002,3.339490e+001
5.099868e+002,3.305844e+001
5.109510e+002,3.240167e+001
5.119152e+002,3.204623e+001
5.128795e+002,3.204681e+001
5.138437e+002,3.230008e+001
5.148079e+002,3.391827e+001
5.157722e+002,3.485388e+001
5.167364e+002,3.378036e+001
5.177006e+002,3.074399e+001
5.186649e+002,2.706500e+001
5.196291e+002,2.385004e+001
5.205933e+002,2.171393e+001
5.215576e+002,2.148669e+001
5.225218e+002,2.290222e+001
5.234860e+002,2.491479e+001
5.244503e+002,2.587219e+001
5.254145e+002,2.564529e+001
5.263787e+002,2.536810e+001
5.273430e+002,2.472095e+001
5.283072e+002,2.423169e+001
5.292714e+002,2.476422e+001
5.302357e+002,2.708325e+001
5.311999e+002,2.804373e+001
5.321641e+002,2.712958e+001
5.331284e+002,2.558215e+001
5.340926e+002,2.440546e+001
5.350568e+002,2.392813e+001
5.360211e+002,2.269824e+001
5.369853e+002,1.794800e+001
5.379495e+002,1.305899e+001
5.389138e+002,1.117978e+001
5.398780e+002,1.330377e+001
5.408422e+002,1.776523e+001
5.418065e+002,2.039972e+001
5.427707e+002,2.139072e+001
5.437349e+002,2.152649e+001
5.446992e+002,2.067865e+001
5.456634e+002,1.922006e+001
5.466276e+002,1.855121e+001
5.475919e+002,1.996555e+001
5.485561e+002,2.074982e+001
5.495203e+002,2.046033e+001
5.504846e+002,1.945013e+001
5.514488e+002,1.829654e+001
5.524130e+002,1.729279e+001
5.533773e+002,1.619690e+001
5.543415e+002,1.433105e+001
5.553057e+002,1.258038e+001
5.562700e+002,1.207983e+001
5.572342e+002,1.347888e+001
5.581984e+002,1.560324e+001
5.591627e+002,1.559042e+001
5.601269e+002,1.430969e+001
5.610911e+002,1.324475e+001
5.620554e+002,1.313147e+001
5.630196e+002,1.371866e+001
5.639838e+002,1.335483e+001
5.649481e+002,1.073999e+001
5.659123e+002,9.077332e+000
5.668765e+002,9.975311e+000
5.678408e+002,1.250894e+001
5.688050e+002,1.366318e+001
5.697692e+002,1.121887e+001
5.707335e+002,8.720886e+000
5.716977e+002,7.506287e+000
5.726619e+002,6.967804e+000
5.736262e+002,5.884827e+000
5.745904e+002,3.174500e+000
5.755546e+002,1.008118e+000
5.765189e+002,3.697723e+000
5.774831e+002,8.755981e+000
5.784473e+002,1.178195e+001
5.794116e+002,9.873138e+000
5.803758e+002,3.754089e+000
5.813400e+002,1.230469e+000
5.823043e+002,2.660583e+000
5.832685e+002,4.570587e+000
5.842327e+002,6.420471e+000
5.851970e+002,8.226898e+000
5.861612e+002,9.314423e+000
5.871254e+002,8.668488e+000
5.880897e+002,7.944397e+000
5.890539e+002,7.308136e+000
5.900181e+002,6.725616e+000
5.909824e+002,6.128723e+000
5.919466e+002,5.543091e+000
5.929108e+002,4.972809e+000
5.938751e+002,4.089203e+000
5.948393e+002,3.248474e+000
5.958035e+002,3.185059e+000
5.967678e+002,4.439575e+000
5.977320e+002,6.784027e+000
5.986962e+002,7.758362e+000
5.996605e+002,7.192108e+000
6.006247e+002,6.542053e+000
6.015889e+002,6.995453e+000
6.025532e+002,8.377533e+000
6.035174e+002,7.818420e+000
6.044816e+002,1.772034e+000
6.054459e+002,-2.341278e+000
6.064101e+002,-2.398468e+000
6.073743e+002,2.084351e-002
6.083386e+002,1.972290e+000
6.093028e+002,1.856934e+000
6.102670e+002,1.251556e+000
6.112313e+002,1.387756e+000
6.121955e+002,1.886078e+000
6.131597e+002,2.230072e+000
6.141240e+002,2.062439e+000
6.150882e+002,1.512390e+000
6.160524e+002,1.231262e+000
6.170167e+002,1.256897e+000
6.179809e+002,1.379669e+000
6.189451e+002,1.357208e+000
6.199094e+002,1.169891e+000
6.208736e+002,1.325531e+000
6.218378e+002,3.241608e+000
6.228021e+002,4.173157e+000
6.237663e+002,3.253876e+000
6.247305e+002,1.421051e+000
6.256948e+002,4.843140e-002
6.266590e+002,-5.554504e-001
6.276232e+002,-5.028992e-001
6.285875e+002,4.030151e-001
6.295517e+002,1.790955e+000
6.305159e+002,3.318024e+000
6.314802e+002,4.720276e+000
6.324444e+002,5.847076e+000
6.334086e+002,6.647797e+000
6.343729e+002,7.226654e+000
6.353371e+002,7.106354e+000
6.363013e+002,6.036621e+000
6.372656e+002,4.104950e+000
6.382298e+002,1.708252e+000
6.391940e+002,-3.252655e+000
6.401583e+002,-5.738586e+000
6.411225e+002,-3.523499e+000
6.420867e+002,4.256897e-001
6.430510e+002,2.339722e+000
6.440152e+002,5.617371e-001
6.449794e+002,-1.553467e+000
6.459437e+002,-2.513550e+000
6.469079e+002,-2.837891e+000
6.478721e+002,-2.753357e+000
6.488364e+002,-2.356323e+000
6.498006e+002,-1.644592e+000
6.507648e+002,-3.293152e-001
6.517291e+002,1.100128e+000
6.526933e+002,1.306732e+000
6.536575e+002,-4.492188e-002
6.546218e+002,-1.997894e+000
6.555860e+002,-2.607330e+000
6.565502e+002,-4.176331e-001
6.575145e+002,-2.494202e-001
6.584787e+002,-3.942963e+000
6.594429e+002,-7.892059e+000
6.604072e+002,-8.944916e+000
6.613714e+002,-6.381073e+000
6.623356e+002,-3.987640e+000
6.632999e+002,-3.984833e+000
6.642641e+002,-4.474701e+000
6.652283e+002,-4.508179e+000
6.661926e+002,-3.864105e+000
6.671568e+002,-2.824066e+000
6.681210e+002,-1.722443e+000
6.690853e+002,-6.937561e-001
6.700495e+002,1.029053e-001
6.710137e+002,6.929626e-001
6.719780e+002,1.309265e+000
6.729422e+002,2.228485e+000
6.739064e+002,3.537384e+000
6.748707e+002,4.133850e+000
6.758349e+002,4.067963e+000
6.767991e+002,3.424713e+000
6.777634e+002,1.775055e+000
6.787276e+002,-4.778137e-001
6.796918e+002,-1.319214e+000
6.806561e+002,2.060150e+000
6.816203e+002,4.307098e+000
6.825845e+002,2.409943e+000
6.835488e+002,-1.832947e+000
6.845130e+002,-5.484314e+000
6.854772e+002,-6.387970e+000
6.864415e+002,-5.086487e+000
6.874057e+002,-2.819061e+000
6.883699e+002,-1.050720e-001
6.893342e+002,2.255707e+000
6.902984e+002,3.884125e+000
6.912626e+002,4.829041e+000
6.922269e+002,5.080536e+000
6.931911e+002,4.630127e+000
6.941553e+002,3.951996e+000
6.951196e+002,2.560150e+000
6.960838e+002,8.136292e-001
6.970480e+002,-6.616821e-001
6.980123e+002,-1.792267e+000
6.989765e+002,-2.160675e+000
6.999407e+002,-8.146362e-001
7.009050e+002,5.595398e-001
7.018692e+002,4.083252e-002
7.028334e+002,-2.722870e+000
7.037977e+002,-5.585266e+000
7.047619e+002,-4.297272e+000
7.057261e+002,-6.230469e-001
7.066904e+002,1.492584e+000
7.076546e+002,1.407654e+000
7.086188e+002,2.762146e-001
7.095831e+002,-1.278381e-001
7.105473e+002,3.077698e-001
7.115115e+002,9.564819e-001
7.124758e+002,2.490051e+000
7.134400e+002,3.452240e+000
7.144042e+002,2.907806e+000
7.153685e+002,9.144287e-001
7.163327e+002,-1.355225e+000
7.172969e+002,-4.714661e+000
7.182612e+002,-6.873871e+000
7.192254e+002,-6.153015e+000
7.201896e+002,-3.553040e+000
7.211539e+002,-9.730530e-001
7.221181e+002,9.945679e-002
7.230823e+002,-1.258240e-001
7.240466e+002,-1.306030e+000
7.250108e+002,-3.002747e+000
7.259750e+002,-3.747803e+000
7.269393e+002,-2.632660e+000
7.279035e+002,-2.009888e-001
7.288677e+002,4.626465e-001
7.298320e+002,-3.027222e+000
7.307962e+002,-4.589355e+000
7.317604e+002,-2.460419e+000
7.327247e+002,1.318207e+000
7.336889e+002,3.743622e+000
7.346531e+002,3.527679e+000
7.356174e+002,2.640686e+000
7.365816e+002,2.570374e+000
7.375458e+002,2.739044e+000
7.385101e+002,2.637878e+000
7.394743e+002,2.157745e+000
7.404385e+002,1.556000e+000
7.414028e+002,1.001160e+000
7.423670e+002,3.684387e-001
7.433312e+002,8.657837e-001
7.442955e+002,3.030670e+000
7.452597e+002,4.951538e+000
7.462239e+002,3.851654e+000
7.471882e+002,-1.717743e+000
7.481524e+002,-4.228455e+000
7.491166e+002,-2.650940e+000
7.500809e+002,-3.266296e-001
7.510451e+002,2.560242e+000
7.520093e+002,5.330017e+000
7.529736e+002,5.997986e+000
7.539378e+002,2.173706e+000
7.549020e+002,-1.265808e+000
7.558663e+002,-1.059448e+000
7.568306e+002,1.285614e+000
7.577948e+002,3.799438e+000
7.587590e+002,5.188202e+000
7.597233e+002,5.608429e+000
7.606875e+002,5.766449e+000
7.616517e+002,5.801941e+000
7.626160e+002,5.536163e+000
7.635802e+002,4.964233e+000
7.645444e+002,4.099152e+000
7.655087e+002,2.778992e+000
7.664729e+002,2.436218e-001
7.674371e+002,-1.077393e+000
7.684014e+002,-7.400818e-001
7.693656e+002,2.613220e-001
7.703298e+002,1.509064e+000
7.712941e+002,2.889801e+000
7.722583e+002,4.289520e+000
7.732225e+002,6.105927e+000
7.741868e+002,7.338257e+000
7.751510e+002,6.766693e+000
7.761152e+002,4.947632e+000
7.770795e+002,3.120178e+000
7.780437e+002,2.348663e+000
7.790079e+002,2.536499e+000
7.799722e+002,3.681335e+000
7.809364e+002,5.974548e+000
7.819006e+002,7.523041e+000
7.828649e+002,7.254700e+000
7.838291e+002,5.854523e+000
7.847933e+002,5.439453e+000
7.857576e+002,6.920868e+000
7.867218e+002,7.357910e+000
7.876860e+002,5.404297e+000
7.886503e+002,3.273895e+000
7.896145e+002,3.105255e+000
7.905787e+002,5.327148e+000
7.915430e+002,7.795166e+000
7.925072e+002,7.756256e+000
7.934714e+002,6.648926e+000
7.944357e+002,6.258881e+000
7.953999e+002,6.770355e+000
7.963641e+002,7.525208e+000
7.973284e+002,7.721924e+000
7.982926e+002,7.332611e+000
7.992568e+002,6.840210e+000
8.002211e+002,5.596954e+000
8.011853e+002,4.552490e+000
8.021495e+002,4.588440e+000
8.031138e+002,5.614746e+000
8.040780e+002,6.581482e+000
8.050422e+002,7.414185e+000
8.060065e+002,7.322357e+000
8.069707e+002,4.834015e+000
8.079349e+002,1.958740e+000
8.088992e+002,1.097900e+000
8.098634e+002,2.979218e+000
8.108276e+002,5.548950e+000
8.117919e+002,5.439850e+000
8.127561e+002,3.585785e+000
8.137203e+002,2.432617e+000
8.146846e+002,2.446442e+000
8.156488e+002,3.183105e+000
8.166130e+002,4.089355e+000
8.175773e+002,5.311066e+000
8.185415e+002,5.458099e+000
8.195057e+002,2.906769e+000
8.204700e+002,1.133392e+000
8.214342e+002,1.929962e+000
8.223984e+002,4.401978e+000
8.233627e+002,6.055481e+000
8.243269e+002,5.770081e+000
8.252911e+002,5.242889e+000
8.262554e+002,5.606537e+000
8.272196e+002,6.204773e+000
8.281838e+002,6.194611e+000
8.291481e+002,5.358856e+000
8.301123e+002,4.340820e+000
8.310765e+002,4.282501e+000
8.320408e+002,5.138123e+000
8.330050e+002,6.278503e+000
8.339692e+002,7.951019e+000
8.349335e+002,9.191559e+000
8.358977e+002,8.713715e+000
8.368619e+002,6.230652e+000
8.378262e+002,4.915955e+000
8.387904e+002,5.383545e+000
8.397546e+002,6.148987e+000
8.407189e+002,7.157501e+000
8.416831e+002,8.187317e+000
8.426473e+002,8.882904e+000
8.436116e+002,9.016907e+000
8.445758e+002,9.216644e+000
8.455400e+002,1.020117e+001
8.465043e+002,1.123843e+001
8.474685e+002,1.163275e+001
8.484327e+002,1.137595e+001
8.493970e+002,1.102701e+001
8.503612e+002,1.130231e+001
8.513254e+002,1.223209e+001
8.522897e+002,1.319632e+001
8.532539e+002,1.444263e+001
8.542181e+002,1.519733e+001
8.551824e+002,1.474164e+001
8.561466e+002,1.348019e+001
8.571108e+002,1.347650e+001
8.580751e+002,1.617450e+001
8.590393e+002,1.791351e+001
8.600035e+002,1.692538e+001
8.609678e+002,1.503091e+001
8.619320e+002,1.428528e+001
8.628962e+002,1.547415e+001
8.638605e+002,1.752780e+001
8.648247e+002,1.933362e+001
8.657889e+002,2.059839e+001
8.667532e+002,2.042380e+001
8.677174e+002,1.869757e+001
8.686816e+002,1.679639e+001
8.696459e+002,1.645462e+001
8.706101e+002,1.810699e+001
8.715743e+002,1.875180e+001
8.725386e+002,1.693161e+001
8.735028e+002,1.607080e+001
8.744670e+002,1.756436e+001
8.754313e+002,2.022986e+001
8.763955e+002,2.197391e+001
8.773597e+002,2.209225e+001
8.783240e+002,2.167374e+001
8.792882e+002,2.102496e+001
8.802524e+002,2.043585e+001
8.812167e+002,2.023550e+001
8.821809e+002,2.047318e+001
8.831451e+002,2.097403e+001
8.841094e+002,2.153412e+001
8.850736e+002,2.230560e+001
8.860378e+002,2.364603e+001
8.870021e+002,2.568365e+001
8.879663e+002,2.741403e+001
8.889305e+002,2.828592e+001
8.898948e+002,2.829501e+001
8.908590e+002,2.752850e+001
8.918232e+002,2.480890e+001
8.927875e+002,2.369943e+001
8.937517e+002,2.572510e+001
8.947159e+002,2.887534e+001
8.956802e+002,3.168982e+001
8.966444e+002,3.359125e+001
8.976086e+002,3.459290e+001
8.985729e+002,3.467908e+001
8.995371e+002,3.416650e+001
9.005013e+002,3.316223e+001
9.014656e+002,3.194595e+001
9.024298e+002,3.138583e+001
9.033940e+002,3.210068e+001
9.043583e+002,3.376865e+001
9.053225e+002,3.489124e+001
9.062867e+002,3.489163e+001
9.072510e+002,3.477731e+001
9.082152e+002,3.493704e+001
9.091794e+002,3.513098e+001
9.101437e+002,3.488806e+001
9.111079e+002,3.410596e+001
9.120721e+002,3.372617e+001
9.130364e+002,3.509650e+001
9.140006e+002,3.600623e+001
9.149648e+002,3.446521e+001
9.159291e+002,3.171713e+001
9.168933e+002,3.047818e+001
9.178575e+002,3.252786e+001
9.188218e+002,3.644220e+001
9.197860e+002,3.737549e+001
9.207502e+002,3.519522e+001
9.217145e+002,3.348376e+001
9.226787e+002,3.313651e+001
9.236429e+002,3.370398e+001
9.246072e+002,3.476492e+001
9.255714e+002,3.651883e+001
9.265356e+002,3.699408e+001
9.274999e+002,3.453851e+001
9.284641e+002,3.206491e+001
9.294283e+002,3.061591e+001
9.303926e+002,2.998743e+001
9.313568e+002,2.964148e+001
9.323210e+002,2.931821e+001
9.332853e+002,2.881235e+001
9.342495e+002,2.720810e+001
9.352137e+002,2.528690e+001
9.361780e+002,2.469070e+001
9.371422e+002,2.587421e+001
9.381064e+002,2.783340e+001
9.390707e+002,2.904846e+001
9.400349e+002,2.918713e+001
9.409991e+002,2.963321e+001
9.419634e+002,3.125491e+001
9.429276e+002,3.196512e+001
9.438918e+002,3.071347e+001
9.448561e+002,2.843726e+001
9.458203e+002,2.660086e+001
9.467845e+002,2.559442e+001
9.477488e+002,2.535306e+001
9.487130e+002,2.604102e+001
9.496772e+002,2.722110e+001
9.506415e+002,2.903259e+001
9.516057e+002,3.112775e+001
9.525699e+002,3.245358e+001
9.535342e+002,3.192798e+001
9.544984e+002,2.983627e+001
9.554626e+002,2.951630e+001
9.564269e+002,3.175272e+001
9.573911e+002,3.303369e+001
9.583553e+002,3.133859e+001
9.593196e+002,2.851743e+001
9.602838e+002,2.787869e+001
9.612480e+002,3.015143e+001
9.622123e+002,3.178314e+001
9.631765e+002,3.171045e+001
9.641407e+002,3.096643e+001
9.651050e+002,2.930438e+001
9.660692e+002,2.731006e+001
9.670334e+002,2.619928e+001
9.679977e+002,2.685001e+001
9.689619e+002,2.837054e+001
9.699261e+002,2.825812e+001
9.708904e+002,2.700235e+001
9.718546e+002,2.631769e+001
9.728188e+002,2.646945e+001
9.737831e+002,2.741962e+001
9.747473e+002,2.955334e+001
9.757115e+002,3.341034e+001
9.766758e+002,3.578796e+001
9.776400e+002,3.490518e+001
9.786042e+002,3.499872e+001
9.795685e+002,3.856741e+001
9.805327e+002,4.278619e+001
9.814969e+002,4.354977e+001
9.824612e+002,3.958112e+001
9.834254e+002,3.480408e+001
9.843896e+002,3.284314e+001
9.853539e+002,3.197018e+001
9.863181e+002,3.058014e+001
9.872823e+002,2.843973e+001
9.882466e+002,2.562454e+001
9.892108e+002,2.227695e+001
9.901750e+002,1.902786e+001
9.911393e+002,1.901071e+001
9.921035e+002,2.489047e+001
9.930677e+002,2.882538e+001
9.940320e+002,2.996115e+001
9.949962e+002,2.982715e+001
9.959604e+002,2.906363e+001
9.969247e+002,2.792584e+001
9.978889e+002,2.851776e+001
9.988531e+002,3.278436e+001
9.998174e+002,3.745648e+001
1.000782e+003,4.117722e+001
1.001746e+003,4.401520e+001
1.002710e+003,4.616513e+001
1.003674e+003,4.768335e+001
1.004639e+003,4.837009e+001
1.005603e+003,4.773349e+001
1.006567e+003,4.555496e+001
1.007531e+003,4.486496e+001
1.008495e+003,4.644299e+001
1.009460e+003,4.793530e+001
1.010424e+003,4.777222e+001
1.011388e+003,4.642218e+001
1.012352e+003,4.580231e+001
1.013317e+003,4.704840e+001
1.014281e+003,4.681479e+001
1.015245e+003,4.298199e+001
1.016209e+003,3.844052e+001
1.017174e+003,3.526373e+001
1.018138e+003,3.362155e+001
1.019102e+003,3.237933e+001
1.020066e+003,3.064713e+001
1.021031e+003,2.882315e+001
1.021995e+003,2.797134e+001
1.022959e+003,2.769864e+001
1.023923e+003,2.678256e+001
1.024887e+003,2.458969e+001
1.025852e+003,2.190701e+001
1.026816e+003,2.012195e+001
1.027780e+003,1.961472e+001
1.028744e+003,1.884610e+001
1.029709e+003,1.718018e+001
1.030673e+003,1.577362e+001
1.031637e+003,1.512933e+001
1.032601e+003,1.478217e+001
1.033566e+003,1.401874e+001
1.034530e+003,1.265485e+001
1.035494e+003,1.146942e+001
1.036458e+003,1.126614e+001
1.037422e+003,1.173776e+001
1.038387e+003,1.264859e+001
1.039351e+003,1.382870e+001
1.040315e+003,1.456293e+001
1.041279e+003,1.432010e+001
1.042244e+003,1.339316e+001
1.043208e+003,1.288708e+001
1.044172e+003,1.276550e+001
1.045136e+003,1.287070e+001
1.046101e+003,1.347769e+001
1.047065e+003,1.417139e+001
1.048029e+003,1.489746e+001
1.048993e+003,1.542636e+001
1.049958e+003,1.513654e+001
1.050922e+003,1.355145e+001
1.051886e+003,1.182117e+001
1.052850e+003,1.099481e+001
1.053814e+003,1.072479e+001
1.054779e+003,1.073077e+001
1.055743e+003,1.085263e+001
1.056707e+003,1.082358e+001
1.057671e+003,1.029077e+001
1.058636e+003,9.215942e+000
1.059600e+003,8.919495e+000
1.060564e+003,1.061688e+001
1.061528e+003,1.170102e+001
1.062493e+003,1.087894e+001
1.063457e+003,9.592743e+000
1.064421e+003,9.865906e+000
1.065385e+003,1.193710e+001
1.066349e+003,1.333710e+001
1.067314e+003,1.212561e+001
1.068278e+003,1.070026e+001
1.069242e+003,1.085220e+001
1.070206e+003,1.200790e+001
1.071171e+003,1.323080e+001
1.072135e+003,1.399475e+001
1.073099e+003,1.429498e+001
1.074063e+003,1.427332e+001
1.075028e+003,1.401004e+001
1.075992e+003,1.275430e+001
1.076956e+003,9.323273e+000
1.077920e+003,6.733673e+000
1.078885e+003,6.796814e+000
1.079849e+003,8.376862e+000
1.080813e+003,9.211395e+000
1.081777e+003,8.852692e+000
1.082741e+003,8.732819e+000
1.083706e+003,9.529358e+000
1.084670e+003,1.047937e+001
1.085634e+003,1.160544e+001
1.086598e+003,1.248792e+001
1.087563e+003,1.243088e+001
1.088527e+003,1.116458e+001
1.089491e+003,9.266663e+000
1.090455e+003,7.518494e+000
1.091420e+003,5.807892e+000
1.092384e+003,5.192322e+000
1.093348e+003,5.992371e+000
1.094312e+003,7.020416e+000
1.095276e+003,7.677185e+000
1.096241e+003,8.220276e+000
1.097205e+003,9.434082e+000
1.098169e+003,1.207788e+001
1.099133e+003,1.302594e+001
1.100098e+003,9.450592e+000
1.101062e+003,5.639069e+000
1.102026e+003,3.906219e+000
1.102990e+003,4.290283e+000
1.103955e+003,6.247437e+000
1.104919e+003,9.368378e+000
1.105883e+003,1.275018e+001
1.106847e+003,1.458795e+001
1.107812e+003,1.475516e+001
1.108776e+003,1.412122e+001
1.109740e+003,1.215451e+001
1.110704e+003,1.056680e+001
1.111668e+003,1.129709e+001
1.112633e+003,1.372885e+001
1.113597e+003,1.442831e+001
1.114561e+003,1.172534e+001
1.115525e+003,1.019022e+001
1.116490e+003,1.197827e+001
1.117454e+003,1.444754e+001
1.118418e+003,1.641919e+001
1.119382e+003,1.771646e+001
1.120347e+003,1.828613e+001
1.121311e+003,1.797852e+001
1.122275e+003,1.719769e+001
1.123239e+003,1.727875e+001
1.124203e+003,1.833224e+001
1.125168e+003,1.887787e+001
1.126132e+003,1.846042e+001
1.127096e+003,1.858469e+001
1.128060e+003,2.097952e+001
1.129025e+003,2.489426e+001
1.129989e+003,2.678989e+001
1.130953e+003,2.530164e+001
1.131917e+003,2.419080e+001
1.132882e+003,2.418298e+001
1.133846e+003,2.518106e+001
1.134810e+003,2.779462e+001
1.135774e+003,3.131760e+001
1.136739e+003,3.424432e+001
1.137703e+003,3.572687e+001
1.138667e+003,3.662671e+001
1.139631e+003,3.861096e+001
1.140595e+003,4.145441e+001
1.141560e+003,4.317328e+001
1.142524e+003,4.313632e+001
1.143488e+003,4.440540e+001
1.144452e+003,4.962723e+001
1.145417e+003,5.777261e+001
1.146381e+003,6.469363e+001
1.147345e+003,6.878424e+001
1.148309e+003,7.571155e+001
1.149274e+003,8.964368e+001
1.150238e+003,1.038457e+002
1.151202e+003,1.147318e+002
1.152166e+003,1.235129e+002
1.153130e+003,1.335977e+002
1.154095e+003,1.461685e+002
1.155059e+003,1.574745e+002
1.156023e+003,1.620640e+002
1.156987e+003,1.605681e+002
1.157952e+003,1.598744e+002
1.158916e+003,1.607713e+002
1.159880e+003,1.601464e+002
1.160844e+003,1.560000e+002
1.161809e+003,1.486998e+002
1.162773e+003,1.392238e+002
1.163737e+003,1.270699e+002
1.164701e+003,1.151456e+002
1.165666e+003,1.037620e+002
1.166630e+003,9.348074e+001
1.167594e+003,8.436011e+001
1.168558e+003,7.649515e+001
1.169522e+003,7.006064e+001
1.170487e+003,6.507401e+001
1.171451e+003,6.155502e+001
1.172415e+003,5.965579e+001
1.173379e+003,5.897571e+001
1.174344e+003,5.751999e+001
1.175308e+003,5.530414e+001
1.176272e+003,5.335028e+001
1.177236e+003,5.235272e+001
1.178201e+003,5.160385e+001
1.179165e+003,4.987970e+001
1.180129e+003,4.703952e+001
1.181093e+003,4.478598e+001
1.182057e+003,4.405978e+001
1.183022e+003,4.325742e+001
1.183986e+003,4.121164e+001
1.184950e+003,3.922510e+001
1.185914e+003,3.873303e+001
1.186879e+003,3.974225e+001
1.187843e+003,4.123035e+001
1.188807e+003,4.233356e+001
1.189771e+003,4.298886e+001
1.190736e+003,4.303192e+001
1.191700e+003,4.231638e+001
1.192664e+003,4.249863e+001
1.193628e+003,4.495511e+001
1.194593e+003,4.692999e+001
1.195557e+003,4.621548e+001
1.196521e+003,4.336572e+001
1.197485e+003,4.024695e+001
1.198449e+003,3.690338e+001
1.199414e+003,3.414099e+001
1.200378e+003,3.217899e+001
1.201342e+003,3.105948e+001
1.202306e+003,3.151144e+001
1.203271e+003,3.265097e+001
1.204235e+003,3.275034e+001
1.205199e+003,3.106183e+001
1.206163e+003,2.862219e+001
1.207128e+003,2.709259e+001
1.208092e+003,2.653656e+001
1.209056e+003,2.638007e+001
1.210020e+003,2.734024e+001
1.210984e+003,2.729013e+001
1.211949e+003,2.551593e+001
1.212913e+003,2.240378e+001
1.213877e+003,1.789044e+001
1.214841e+003,1.214072e+001
1.215806e+003,7.772125e+000
1.216770e+003,6.402222e+000
1.217734e+003,5.655975e+000
1.218698e+003,3.467316e+000
1.219663e+003,9.235840e-001
1.220627e+003,-4.447937e-001
1.221591e+003,-5.119019e-001
1.222555e+003,-3.868713e-001
1.223520e+003,-1.070435e+000
1.224484e+003,-2.336121e+000
1.225448e+003,-3.395447e+000
1.226412e+003,-4.483917e+000
1.227376e+003,-4.777924e+000
1.228341e+003,-3.388519e+000
1.229305e+003,-2.327911e+000
1.230269e+003,-3.097168e+000
1.231233e+003,-4.873413e+000
1.232198e+003,-5.898285e+000
1.233162e+003,-5.647583e+000
1.234126e+003,-4.803772e+000
1.235090e+003,-3.282379e+000
1.236055e+003,-2.175232e+000
1.237019e+003,-3.026886e+000
1.237983e+003,-5.204010e+000
1.238947e+003,-6.811005e+000
1.239911e+003,-6.995667e+000
1.240876e+003,-6.700989e+000
1.241840e+003,-7.550110e+000
1.242804e+003,-9.681030e+000
1.243768e+003,-1.029254e+001
1.244733e+003,-8.457611e+000
1.245697e+003,-6.146057e+000
1.246661e+003,-2.763519e+000
1.247625e+003,1.381226e-001
1.248590e+003,1.446472e+000
1.249554e+003,1.426056e+000
1.250518e+003,8.038330e-001
1.251482e+003,-2.384338e-001
1.252447e+003,-1.193848e+000
1.253411e+003,-1.011047e+000
1.254375e+003,-3.027039e-001
1.255339e+003,-9.704590e-001
1.256303e+003,-2.901550e+000
1.257268e+003,-3.422607e+000
1.258232e+003,-6.347656e-001
1.259196e+003,3.587158e+000
1.260160e+003,5.574738e+000
1.261125e+003,5.060913e+000
1.262089e+003,4.690979e+000
1.263053e+003,4.521790e+000
1.264017e+003,4.505524e+000
1.264982e+003,4.441132e+000
1.265946e+003,4.760651e+000
1.266910e+003,6.455627e+000
1.267874e+003,8.995667e+000
1.268839e+003,1.060300e+001
1.269803e+003,1.010825e+001
1.270767e+003,8.012390e+000
1.271731e+003,4.846893e+000
1.272695e+003,8.017883e-001
1.273660e+003,-1.578644e+000
1.274624e+003,-2.045929e+000
1.275588e+003,-1.935089e+000
1.276552e+003,-1.459045e+000
1.277517e+003,-8.376465e-001
1.278481e+003,-8.738708e-001
1.279445e+003,-1.757629e+000
1.280409e+003,-1.764526e+000
1.281374e+003,8.503113e-001
1.282338e+003,2.856262e+000
1.283302e+003,1.870911e+000
1.284266e+003,-1.725464e-001
1.285230e+003,-1.095947e+000
1.286195e+003,-6.097412e-001
1.287159e+003,3.350830e-001
1.288123e+003,1.019928e+000
1.289087e+003,1.445374e+000
1.290052e+003,1.319855e+000
1.291016e+003,2.904663e-001
1.291980e+003,-4.274597e-001
1.292944e+003,-5.119324e-001
1.293909e+003,-9.663391e-001
1.294873e+003,-2.500153e+000
1.295837e+003,-4.228210e+000
1.296801e+003,-4.814941e+000
1.297766e+003,-4.164978e+000
1.298730e+003,-3.594849e+000
1.299694e+003,-3.872833e+000
1.300658e+003,-4.548706e+000
1.301622e+003,-5.166290e+000
1.302587e+003,-5.678192e+000
1.303551e+003,-6.188477e+000
1.304515e+003,-6.614197e+000
1.305479e+003,-6.396057e+000
1.306444e+003,-5.020630e+000
1.307408e+003,-2.965668e+000
1.308372e+003,-1.613800e+000
1.309336e+003,-9.636230e-001
1.310301e+003,-1.102844e+000
1.311265e+003,-2.928375e+000
1.312229e+003,-4.259705e+000
1.313193e+003,-3.806641e+000
1.314157e+003,-3.036987e+000
1.315122e+003,-4.099792e+000
1.316086e+003,-6.706726e+000
1.317050e+003,-8.019775e+000
1.318014e+003,-5.981781e+000
1.318979e+003,-2.863220e+000
1.319943e+003,-3.218140e+000
1.320907e+003,-6.463226e+000
1.321871e+003,-7.526428e+000
1.322836e+003,-5.840942e+000
1.323800e+003,-3.947418e+000
1.324764e+003,-3.007568e+000
1.325728e+003,-2.732452e+000
1.326693e+003,-2.851837e+000
1.327657e+003,-3.438110e+000
1.328621e+003,-3.785614e+000
1.329585e+003,-3.233398e+000
1.330549e+003,-2.461823e+000
1.331514e+003,-2.281189e+000
1.332478e+003,-2.296051e+000
1.333442e+003,-1.889343e+000
1.334406e+003,-1.116455e+000
1.335371e+003,-5.766296e-001
1.336335e+003,-6.263428e-001
1.337299e+003,-8.930969e-001
1.338263e+003,-6.704407e-001
1.339228e+003,1.769409e-001
1.340192e+003,2.702332e-001
1.341156e+003,-8.156738e-001
1.342120e+003,-1.983337e+000
1.343084e+003,-4.002930e+000
1.344049e+003,-5.463104e+000
1.345013e+003,-4.659393e+000
1.345977e+003,-2.116119e+000
1.346941e+003,3.577576e-001
1.347906e+003,2.149231e+000
1.348870e+003,3.193665e+000
1.349834e+003,3.275360e+000
1.350798e+003,2.521637e+000
1.351763e+003,1.183197e+000
1.352727e+003,-5.449829e-001
1.353691e+003,-1.760010e+000
1.354655e+003,-2.080841e+000
1.355620e+003,-1.935425e+000
1.356584e+003,-1.751892e+000
1.357548e+003,-1.483826e+000
1.358512e+003,-1.009216e+000
1.359476e+003,-1.292114e-001
1.360441e+003,-3.079224e-002
1.361405e+003,-1.957855e+000
1.362369e+003,-3.553802e+000
1.363333e+003,-3.272552e+000
1.364298e+003,-2.106995e+000
1.365262e+003,-1.589691e+000
1.366226e+003,-2.030243e+000
1.367190e+003,-2.546783e+000
1.368155e+003,-2.353760e+000
1.369119e+003,-1.642181e+000
1.370083e+003,-9.453430e-001
1.371047e+003,-7.760620e-002
1.372011e+003,1.586914e-001
1.372976e+003,-6.940918e-001
1.373940e+003,-1.825256e+000
1.374904e+003,-3.242798e+000
1.375868e+003,-4.466827e+000
1.376833e+003,-4.966461e+000
1.377797e+003,-4.736267e+000
1.378761e+003,-3.795074e+000
1.379725e+003,-1.749451e+000
1.380690e+003,-1.688232e-001
1.381654e+003,-1.678162e+000
1.382618e+003,-4.110229e+000
1.383582e+003,-4.314697e+000
1.384547e+003,-2.344788e+000
1.385511e+003,-7.302856e-002
1.386475e+003,1.690765e+000
1.387439e+003,2.659607e+000
1.388403e+003,2.081451e+000
1.389368e+003,-5.038452e-002
1.390332e+003,-1.474274e+000
1.391296e+003,-2.132050e+000
1.392260e+003,-1.833221e+000
1.393225e+003,7.639465e-001
1.394189e+003,2.774139e+000
1.395153e+003,1.920105e+000
1.396117e+003,-3.301697e-001
1.397082e+003,-1.521088e+000
1.398046e+003,-1.035248e+000
1.399010e+003,-2.323914e-001
1.399974e+003,-4.420776e-001
1.400938e+003,-1.362061e+000
1.401903e+003,-1.603577e+000
1.402867e+003,-6.448059e-001
1.403831e+003,4.300537e-001
1.404795e+003,1.498810e+000
1.405760e+003,2.513062e+000
1.406724e+003,3.351440e+000
1.407688e+003,3.753571e+000
1.408652e+003,3.702484e+000
1.409617e+003,3.321564e+000
1.410581e+003,2.393372e+000
1.411545e+003,6.335144e-001
1.412509e+003,-6.459656e-001
1.413474e+003,2.651978e-001
1.414438e+003,1.987305e+000
1.415402e+003,2.290497e+000
1.416366e+003,1.502533e+000
1.417330e+003,1.354401e+000
1.418295e+003,2.687012e+000
1.419259e+003,4.243988e+000
1.420223e+003,4.494873e+000
1.421187e+003,3.522766e+000
1.422152e+003,2.137970e+000
1.423116e+003,-3.750610e-002
1.424080e+003,-7.908020e-001
1.425044e+003,2.067841e+000
1.426009e+003,4.507874e+000
1.426973e+003,4.422638e+000
1.427937e+003,3.243347e+000
1.428901e+003,2.667999e+000
1.429865e+003,3.006592e+000
1.430830e+003,3.668976e+000
1.431794e+003,4.195343e+000
1.432758e+003,4.621094e+000
1.433722e+003,5.178986e+000
1.434687e+003,6.066406e+000
1.435651e+003,7.157806e+000
1.436615e+003,8.535522e+000
1.437579e+003,9.072052e+000
1.438544e+003,7.936249e+000
1.439508e+003,6.797272e+000
1.440472e+003,6.987488e+000
1.441436e+003,8.085052e+000
1.442401e+003,9.019318e+000
1.443365e+003,9.495789e+000
1.444329e+003,1.010788e+001
1.445293e+003,1.150192e+001
1.446257e+003,1.286023e+001
1.447222e+003,1.211313e+001
1.448186e+003,9.726318e+000
1.449150e+003,8.497101e+000
1.450114e+003,8.910980e+000
1.451079e+003,9.263458e+000
1.452043e+003,8.594055e+000
1.453007e+003,7.633423e+000
1.453971e+003,7.311554e+000
1.454936e+003,7.510742e+000
1.455900e+003,7.610931e+000
1.456864e+003,7.460114e+000
1.457828e+003,7.557007e+000
1.458792e+003,8.492340e+000
1.459757e+003,9.339752e+000
1.460721e+003,9.459595e+000
1.461685e+003,8.884552e+000
1.462649e+003,7.471588e+000
1.463614e+003,5.392822e+000
1.464578e+003,3.890594e+000
1.465542e+003,4.089020e+000
1.466506e+003,5.428772e+000
1.467471e+003,6.546783e+000
1.468435e+003,7.681549e+000
1.469399e+003,8.198059e+000
1.470363e+003,7.342438e+000
1.471328e+003,6.530243e+000
1.472292e+003,5.570679e+000
1.473256e+003,4.967438e+000
1.474220e+003,5.590637e+000
1.475184e+003,6.972992e+000
1.476149e+003,8.070404e+000
1.477113e+003,8.439880e+000
1.478077e+003,8.344757e+000
1.479041e+003,8.117218e+000
1.480006e+003,8.031982e+000
1.480970e+003,8.786682e+000
1.481934e+003,1.064926e+001
1.482898e+003,1.155249e+001
1.483863e+003,1.057507e+001
1.484827e+003,9.978668e+000
1.485791e+003,1.065659e+001
1.486755e+003,1.192392e+001
1.487719e+003,1.325903e+001
1.488684e+003,1.446292e+001
1.489648e+003,1.527344e+001
1.490612e+003,1.570172e+001
1.491576e+003,1.643799e+001
1.492541e+003,1.800745e+001
1.493505e+003,2.014249e+001
1.494469e+003,2.249040e+001
1.495433e+003,2.484137e+001
1.496398e+003,2.668378e+001
1.497362e+003,2.792593e+001
1.498326e+003,2.949791e+001
1.499290e+003,3.227814e+001
1.500255e+003,3.532297e+001
1.501219e+003,3.655618e+001
1.502183e+003,3.656354e+001
1.503147e+003,3.946523e+001
1.504111e+003,4.674228e+001
1.505076e+003,5.386584e+001
1.506040e+003,5.760126e+001
1.507004e+003,6.075870e+001
1.507968e+003,6.631129e+001
1.508933e+003,7.338184e+001
1.509897e+003,7.961017e+001
1.510861e+003,8.494882e+001
1.511825e+003,9.278023e+001
1.512790e+003,1.058911e+002
1.513754e+003,1.216823e+002
1.514718e+003,1.352204e+002
1.515682e+003,1.463633e+002
1.516646e+003,1.589685e+002
1.517611e+003,1.744171e+002
1.518575e+003,1.890546e+002
1.519539e+003,2.028521e+002
1.520503e+003,2.147001e+002
1.521468e+003,2.245635e+002
1.522432e+003,2.316714e+002
1.523396e+003,2.349077e+002
1.524360e+003,2.342968e+002
1.525325e+003,2.306231e+002
1.526289e+003,2.244579e+002
1.527253e+003,2.170592e+002
1.528217e+003,2.107568e+002
1.529182e+003,2.057256e+002
1.530146e+003,1.982493e+002
1.531110e+003,1.884430e+002
1.532074e+003,1.754363e+002
1.533039e+003,1.563507e+002
1.534003e+003,1.371434e+002
1.534967e+003,1.206053e+002
1.535931e+003,1.058511e+002
1.536896e+003,9.131952e+001
1.537860e+003,7.725677e+001
1.538824e+003,6.500676e+001
1.539788e+003,5.518890e+001
1.540752e+003,4.739957e+001
1.541717e+003,4.126520e+001
1.542681e+003,3.666437e+001
1.543645e+003,3.210435e+001
1.544609e+003,2.720734e+001
1.545573e+003,2.389264e+001
1.546538e+003,2.314984e+001
1.547502e+003,2.222652e+001
1.548466e+003,1.956108e+001
1.549430e+003,1.705304e+001
1.550395e+003,1.697055e+001
1.551359e+003,1.859399e+001
1.552323e+003,1.966130e+001
1.553287e+003,1.936710e+001
1.554252e+003,1.813080e+001
1.555216e+003,1.609848e+001
1.556180e+003,1.389624e+001
1.557144e+003,1.313435e+001
1.558109e+003,1.393073e+001
1.559073e+003,1.451288e+001
1.560037e+003,1.496500e+001
1.561001e+003,1.448769e+001
1.561966e+003,1.202524e+001
1.562930e+003,9.639587e+000
1.563894e+003,9.350464e+000
1.564858e+003,1.045007e+001
1.565823e+003,1.114873e+001
1.566787e+003,1.108972e+001
1.567751e+003,1.098624e+001
1.568715e+003,1.118240e+001
1.569679e+003,1.185532e+001
1.570644e+003,1.360530e+001
1.571608e+003,1.573587e+001
1.572572e+003,1.659650e+001
1.573536e+003,1.621686e+001
1.574500e+003,1.502348e+001
1.575465e+003,1.215460e+001
1.576429e+003,9.974396e+000
1.577393e+003,1.145142e+001
1.578357e+003,1.442621e+001
1.579322e+003,1.412550e+001
1.580286e+003,1.062274e+001
1.581250e+003,8.876007e+000
1.582214e+003,1.072147e+001
1.583179e+003,1.333411e+001
1.584143e+003,1.485454e+001
1.585107e+003,1.569147e+001
1.586071e+003,1.679190e+001
1.587036e+003,1.801788e+001
1.588000e+003,1.826625e+001
1.588964e+003,1.713596e+001
1.589928e+003,1.605624e+001
1.590893e+003,1.602148e+001
1.591857e+003,1.656903e+001
1.592821e+003,1.696629e+001
1.593785e+003,1.733124e+001
1.594750e+003,1.847263e+001
1.595714e+003,2.069998e+001
1.596678e+003,2.180692e+001
1.597642e+003,2.008815e+001
1.598606e+003,1.823642e+001
1.599571e+003,1.787225e+001
1.600535e+003,1.902423e+001
1.601499e+003,2.309004e+001
1.602463e+003,2.901501e+001
1.603427e+003,3.171698e+001
1.604392e+003,2.886926e+001
1.605356e+003,2.465979e+001
1.606320e+003,2.324892e+001
1.607284e+003,2.379431e+001
1.608249e+003,2.395685e+001
1.609213e+003,2.373096e+001
1.610177e+003,2.328633e+001
1.611141e+003,2.271889e+001
1.612106e+003,2.177530e+001
1.613070e+003,1.972852e+001
1.614034e+003,1.778632e+001
1.614998e+003,1.684886e+001
1.615963e+003,1.663412e+001
1.616927e+003,1.655286e+001
1.617891e+003,1.651288e+001
1.618855e+003,1.695920e+001
1.619820e+003,1.820335e+001
1.620784e+003,1.938983e+001
1.621748e+003,1.937839e+001
1.622712e+003,1.855807e+001
1.623677e+003,1.827318e+001
1.624641e+003,1.867781e+001
1.625605e+003,1.882742e+001
1.626569e+003,1.787875e+001
1.627533e+003,1.706085e+001
1.628498e+003,1.733940e+001
1.629462e+003,1.796634e+001
1.630426e+003,1.837006e+001
1.631390e+003,1.852786e+001
1.632354e+003,1.853421e+001
1.633319e+003,1.841307e+001
1.634283e+003,1.813348e+001
1.635247e+003,1.756073e+001
1.636211e+003,1.707846e+001
1.637176e+003,1.771227e+001
1.638140e+003,1.939549e+001
1.639104e+003,2.001413e+001
1.640068e+003,1.895813e+001
1.641033e+003,1.878815e+001
1.641997e+003,2.132503e+001
1.642961e+003,2.329196e+001
1.643925e+003,2.266092e+001
1.644890e+003,2.105505e+001
1.645854e+003,1.971017e+001
1.646818e+003,1.880907e+001
1.647782e+003,1.843271e+001
1.648747e+003,1.855969e+001
1.649711e+003,1.886942e+001
1.650675e+003,1.921474e+001
1.651639e+003,1.957266e+001
1.652604e+003,1.959714e+001
1.653568e+003,1.924762e+001
1.654532e+003,1.945340e+001
1.655496e+003,2.040370e+001
1.656460e+003,2.145795e+001
1.657425e+003,2.333429e+001
1.658389e+003,2.412546e+001
1.659353e+003,2.195673e+001
1.660317e+003,1.890456e+001
1.661281e+003,1.691028e+001
1.662246e+003,1.602972e+001
1.663210e+003,1.600970e+001
1.664174e+003,1.674416e+001
1.665138e+003,1.720190e+001
1.666103e+003,1.627258e+001
1.667067e+003,1.472498e+001
1.668031e+003,1.437384e+001
1.668995e+003,1.513329e+001
1.669960e+003,1.513177e+001
1.670924e+003,1.402832e+001
1.671888e+003,1.322937e+001
1.672852e+003,1.327191e+001
1.673817e+003,1.342488e+001
1.674781e+003,1.298004e+001
1.675745e+003,1.254730e+001
1.676709e+003,1.316125e+001
1.677674e+003,1.436748e+001
1.678638e+003,1.455463e+001
1.679602e+003,1.323499e+001
1.680566e+003,1.163321e+001
1.681531e+003,1.051805e+001
1.682495e+003,1.008209e+001
1.683459e+003,1.080780e+001
1.684423e+003,1.240387e+001
1.685387e+003,1.366714e+001
1.686352e+003,1.466309e+001
1.687316e+003,1.412459e+001
1.688280e+003,1.077258e+001
1.689244e+003,7.426163e+000
1.690208e+003,6.176849e+000
1.691173e+003,5.992081e+000
1.692137e+003,6.013474e+000
1.693101e+003,6.279449e+000
1.694065e+003,6.850555e+000
1.695030e+003,7.642426e+000
1.695994e+003,8.427734e+000
1.696958e+003,9.517181e+000
1.697922e+003,1.010574e+001
1.698887e+003,8.545303e+000
1.699851e+003,5.793121e+000
1.700815e+003,4.907486e+000
1.701779e+003,6.050751e+000
1.702744e+003,6.871201e+000
1.703708e+003,6.769821e+000
1.704672e+003,6.207611e+000
1.705636e+003,5.026093e+000
1.706601e+003,3.721466e+000
1.707565e+003,3.253281e+000
1.708529e+003,3.519943e+000
1.709493e+003,4.097061e+000
1.710458e+003,4.992416e+000
1.711422e+003,5.474197e+000
1.712386e+003,5.078339e+000
1.713350e+003,4.555466e+000
1.714314e+003,4.261490e+000
1.715279e+003,4.147461e+000
1.716243e+003,4.504181e+000
1.717207e+003,5.129852e+000
1.718171e+003,4.910248e+000
1.719135e+003,3.567551e+000
1.720100e+003,2.116165e+000
1.721064e+003,9.903564e-001
1.722028e+003,6.577759e-001
1.722992e+003,2.424393e+000
1.723957e+003,5.779663e+000
1.724921e+003,7.040176e+000
1.725885e+003,5.829147e+000
1.726849e+003,3.962143e+000
1.727814e+003,4.884491e-001
1.728778e+003,-1.494156e+000
1.729742e+003,6.642609e-001
1.730706e+003,3.627502e+000
1.731671e+003,3.974274e+000
1.732635e+003,2.387482e+000
1.733599e+003,9.574127e-001
1.734563e+003,2.381744e-001
1.735528e+003,-2.683868e-001
1.736492e+003,-8.863831e-001
1.737456e+003,-1.543381e+000
1.738420e+003,-2.212570e+000
1.739385e+003,-2.784576e+000
1.740349e+003,-2.449341e+000
1.741313e+003,-8.422394e-001
1.742277e+003,2.578430e-001
1.743241e+003,9.504242e-001
1.744206e+003,1.222900e+000
1.745170e+003,6.104279e-001
1.746134e+003,-1.953125e-002
1.747098e+003,-2.270966e-001
1.748063e+003,-1.884766e-001
1.749027e+003,1.189270e-001
1.749991e+003,4.337311e-001
1.750955e+003,-4.182434e-002
1.751919e+003,-1.401901e+000
1.752884e+003,-2.361816e+000
1.753848e+003,-1.841049e+000
1.754812e+003,-6.752625e-001
1.755776e+003,-4.903870e-001
1.756741e+003,-1.148743e+000
1.757705e+003,-1.514282e+000
1.758669e+003,-1.732422e+000
1.759633e+003,-1.502869e+000
1.760598e+003,-5.987549e-001
1.761562e+003,3.040619e-001
1.762526e+003,1.450272e+000
1.763490e+003,2.292053e+000
1.764455e+003,2.298904e+000
1.765419e+003,1.857330e+000
1.766383e+003,1.572815e+000
1.767347e+003,1.400848e+000
1.768312e+003,7.382813e-001
1.769276e+003,-7.492065e-001
1.770240e+003,-2.160141e+000
1.771204e+003,-2.255600e+000
1.772168e+003,-1.564697e+000
1.773133e+003,-1.736115e+000
1.774097e+003,-2.624893e+000
1.775061e+003,-2.628510e+000
1.776025e+003,-1.604568e+000
1.776990e+003,-3.964844e-001
1.777954e+003,1.230988e+000
1.778918e+003,2.231766e+000
1.779882e+003,1.342972e+000
1.780846e+003,-4.267731e-001
1.781811e+003,-2.075348e+000
1.782775e+003,-3.272797e+000
1.783739e+003,-2.698517e+000
1.784703e+003,6.668091e-002
1.785668e+003,2.307938e+000
1.786632e+003,2.839081e+000
1.787596e+003,2.317703e+000
1.788560e+003,8.020325e-001
1.789525e+003,-8.696747e-001
1.790489e+003,-1.954575e+000
1.791453e+003,-2.310730e+000
1.792417e+003,-9.443054e-001
1.793382e+003,1.979828e+000
1.794346e+003,2.926559e+000
1.795310e+003,-1.500092e-001
1.796274e+003,-3.989670e+000
1.797239e+003,-4.795593e+000
1.798203e+003,-3.285706e+000
1.799167e+003,-2.073959e+000
1.800131e+003,-1.337250e+000
1.801095e+003,-1.345596e+000
1.802060e+003,-2.469406e+000
1.803024e+003,-3.221008e+000
1.803988e+003,-3.979324e+000
1.804952e+003,-3.862808e+000
1.805917e+003,-1.391602e+000
1.806881e+003,1.246490e+000
1.807845e+003,1.673309e+000
1.808809e+003,6.523438e-001
1.809773e+003,2.437134e-001
1.810738e+003,7.975311e-001
1.811702e+003,8.376007e-001
1.812666e+003,-5.367279e-001
1.813630e+003,-1.880203e+000
1.814595e+003,-1.053040e+000
1.815559e+003,1.147171e+000
1.816523e+003,1.399933e+000
1.817487e+003,-4.879913e-001
1.818452e+003,-1.840256e+000
1.819416e+003,-2.397583e+000
1.820380e+003,-2.453827e+000
1.821344e+003,-1.730820e+000
1.822309e+003,-1.269943e+000
1.823273e+003,-2.094177e+000
1.824237e+003,-2.980576e+000
1.825201e+003,-2.565323e+000
1.826166e+003,-1.297241e+000
1.827130e+003,-3.222046e-001
1.828094e+003,1.044312e-001
1.829058e+003,-1.426697e-002
1.830022e+003,-8.241730e-001
1.830987e+003,-1.672134e+000
1.831951e+003,-1.977493e+000
1.832915e+003,-2.017761e+000
1.833879e+003,-2.365509e+000
1.834844e+003,-2.791763e+000
1.835808e+003,-2.205658e+000
1.836772e+003,-6.404419e-001
1.837736e+003,-2.938538e-001
1.838700e+003,-2.242859e+000
1.839665e+003,-3.907715e+000
1.840629e+003,-2.728989e+000
1.841593e+003,-4.341125e-002
1.842557e+003,1.370712e+000
1.843522e+003,1.506744e+000
1.844486e+003,4.061279e-001
1.845450e+003,-4.327667e+000
1.846414e+003,-5.253143e+000
1.847379e+003,2.045624e+000
1.848343e+003,6.657349e+000
1.849307e+003,3.340195e+000
1.850271e+003,-1.438202e+000
1.851236e+003,-3.353683e+000
1.852200e+003,-3.388535e+000
1.853164e+003,-3.704025e+000
1.854128e+003,-4.328659e+000
1.855093e+003,-3.301956e+000
1.856057e+003,-1.288910e-001
1.857021e+003,1.980804e+000
1.857985e+003,7.168579e-002
1.858949e+003,-3.420593e+000
1.859914e+003,-4.150330e+000
1.860878e+003,-2.607529e+000
1.861842e+003,-1.833252e+000
1.862806e+003,-1.910950e+000
1.863771e+003,-1.346390e+000
1.864735e+003,3.529510e-001
1.865699e+003,1.226547e+000
1.866663e+003,-7.254028e-002
1.867627e+003,-1.272629e+000
1.868592e+003,5.912781e-002
1.869556e+003,2.328903e+000
1.870520e+003,2.667145e+000
1.871484e+003,1.312225e+000
1.872449e+003,-2.538452e-001
1.873413e+003,-1.936096e+000
1.874377e+003,-2.407166e+000
1.875341e+003,-6.679535e-001
1.876306e+003,1.017838e+000
1.877270e+003,9.935913e-001
1.878234e+003,6.851044e-001
1.879198e+003,2.186050e+000
1.880163e+003,4.273224e+000
1.881127e+003,4.194458e+000
1.882091e+003,2.143738e+000
1.883055e+003,6.359558e-001
1.884020e+003,7.062683e-001
1.884984e+003,1.414719e+000
1.885948e+003,1.961227e+000
1.886912e+003,1.878601e+000
1.887876e+003,-8.551025e-002
1.888841e+003,-3.614944e+000
1.889805e+003,-4.657913e+000
1.890769e+003,-2.710495e+000
1.891733e+003,-1.008453e+000
1.892698e+003,-1.344452e-001
1.893662e+003,1.004471e+000
1.894626e+003,3.506638e+000
1.895590e+003,5.477478e+000
1.896554e+003,5.294357e+000
1.897519e+003,4.224258e+000
1.898483e+003,3.712296e+000
1.899447e+003,3.453064e+000
1.900411e+003,2.320831e+000
1.901376e+003,9.844971e-002
1.902340e+003,-1.542313e+000
1.903304e+003,-1.878448e+000
1.904268e+003,-1.689026e+000
1.905233e+003,-1.041718e+000
1.906197e+003,-3.979492e-001
1.907161e+003,-5.110931e-001
1.908125e+003,-7.923279e-001
1.909090e+003,-4.043579e-002
1.910054e+003,1.501495e+000
1.911018e+003,2.691406e+000
1.911982e+003,3.143875e+000
1.912947e+003,2.809631e+000
1.913911e+003,1.616821e+000
1.914875e+003,6.569214e-001
1.915839e+003,1.700424e+000
1.916803e+003,4.193527e+000
1.917768e+003,5.779053e+000
1.918732e+003,6.457230e+000
1.919696e+003,6.745941e+000
1.920660e+003,6.642487e+000
1.921625e+003,6.389587e+000
1.922589e+003,6.050400e+000
1.923553e+003,5.396805e+000
1.924517e+003,4.056641e+000
1.925481e+003,2.608124e+000
1.926446e+003,1.163879e+000
1.927410e+003,1.349792e-001
1.928374e+003,5.441437e-001
1.929338e+003,2.249939e+000
1.930303e+003,3.488159e+000
1.931267e+003,3.917587e+000
1.932231e+003,4.106339e+000
1.933195e+003,4.014297e+000
1.934160e+003,3.872360e+000
1.935124e+003,3.825470e+000
1.936088e+003,3.779144e+000
1.937052e+003,3.572525e+000
1.938017e+003,3.467178e+000
1.938981e+003,4.362183e+000
1.939945e+003,5.894363e+000
1.940909e+003,5.803726e+000
1.941874e+003,3.244095e+000
1.942838e+003,7.304382e-001
1.943802e+003,6.939545e-001
1.944766e+003,2.279205e+000
1.945730e+003,3.675217e+000
1.946695e+003,4.808167e+000
1.947659e+003,5.732712e+000
1.948623e+003,6.455276e+000
1.949587e+003,6.422333e+000
1.950552e+003,5.269028e+000
1.951516e+003,5.001038e+000
1.952480e+003,6.979416e+000
1.953444e+003,8.430161e+000
1.954408e+003,6.618011e+000
1.955373e+003,3.880020e+000
1.956337e+003,4.185425e+000
1.957301e+003,6.524780e+000
1.958265e+003,6.570206e+000
1.959230e+003,3.837845e+000
1.960194e+003,2.344284e+000
1.961158e+003,3.104599e+000
1.962122e+003,4.061478e+000
1.963087e+003,4.586136e+000
1.964051e+003,5.362717e+000
1.965015e+003,7.906830e+000
1.965979e+003,1.011053e+001
1.966944e+003,8.810547e+000
1.967908e+003,5.813705e+000
1.968872e+003,5.076065e+000
1.969836e+003,6.701752e+000
1.970801e+003,7.591370e+000
1.971765e+003,6.478897e+000
1.972729e+003,5.236710e+000
1.973693e+003,5.497040e+000
1.974657e+003,6.297562e+000
1.975622e+003,5.734131e+000
1.976586e+003,4.663116e+000
1.977550e+003,6.177505e+000
1.978514e+003,9.678467e+000
1.979479e+003,1.099226e+001
1.980443e+003,9.619690e+000
1.981407e+003,8.857208e+000
1.982371e+003,1.002133e+001
1.983335e+003,1.091983e+001
1.984300e+003,9.723450e+000
1.985264e+003,7.954575e+000
1.986228e+003,8.238586e+000
1.987192e+003,9.828217e+000
1.988157e+003,8.597977e+000
1.989121e+003,3.393311e+000
1.990085e+003,1.716446e+000
1.991049e+003,5.908676e+000
1.992014e+003,9.021332e+000
1.992978e+003,9.860626e+000
1.993942e+003,9.891556e+000
1.994906e+003,9.112198e+000
1.995871e+003,8.237350e+000
1.996835e+003,7.462906e+000
1.997799e+003,7.188095e+000
1.998763e+003,8.136932e+000
1.999728e+003,1.000256e+001
