5.003444e+002,3.734549e+001
5.013087e+002,3.991090e+001
5.022729e+002,4.064819e+001
5.032371e+002,3.992815e+001
5.042014e+002,3.915335e+001
5.051656e+002,3.833470e+001
5.061298e+002,3.720039e+001
5.070941e+002,3.530757e+001
5.080583e+002,3.207481e+001
5.090225e+002,3.146191e+001
5.099868e+002,3.521375e+001
5.109510e+002,3.886760e+001
5.119152e+002,3.985417e+001
5.128795e+002,3.789439e+001
5.138437e+002,3.643214e+001
5.148079e+002,3.789821e+001
5.157722e+002,3.902419e+001
5.167364e+002,3.808475e+001
5.177006e+002,3.507773e+001
5.186649e+002,3.157115e+001
5.196291e+002,2.910306e+001
5.205933e+002,2.772832e+001
5.215576e+002,2.777998e+001
5.225218e+002,2.901541e+001
5.234860e+002,3.059372e+001
5.244503e+002,3.111102e+001
5.254145e+002,3.029924e+001
5.263787e+002,2.955643e+001
5.273430e+002,2.861592e+001
5.283072e+002,2.791243e+001
5.292714e+002,2.818295e+001
5.302357e+002,3.014786e+001
5.311999e+002,3.118367e+001
5.321641e+002,3.098820e+001
5.331284e+002,3.018687e+001
5.340926e+002,2.899413e+001
5.350568e+002,2.738667e+001
5.360211e+002,2.597151e+001
5.369853e+002,2.542644e+001
5.379495e+002,2.541295e+001
5.389138e+002,2.586580e+001
5.398780e+002,2.664113e+001
5.408422e+002,2.744225e+001
5.418065e+002,2.744635e+001
5.427707e+002,2.673987e+001
5.437349e+002,2.561752e+001
5.446992e+002,2.387283e+001
5.456634e+002,2.190298e+001
5.466276e+002,2.116321e+001
5.475919e+002,2.355891e+001
5.485561e+002,2.494536e+001
5.495203e+002,2.484529e+001
5.504846e+002,2.369403e+001
5.514488e+002,2.201128e+001
5.524130e+002,1.960141e+001
5.533773e+002,1.766281e+001
5.543415e+002,1.646388e+001
5.553057e+002,1.604570e+001
5.562700e+002,1.678168e+001
5.572342e+002,1.886484e+001
5.581984e+002,2.129190e+001
5.591627e+002,2.160553e+001
5.601269e+002,2.053860e+001
5.610911e+002,1.920122e+001
5.620554e+002,1.810620e+001
5.630196e+002,1.721111e+001
5.639838e+002,1.645366e+001
5.649481e+002,1.548376e+001
5.659123e+002,1.514905e+001
5.668765e+002,1.627983e+001
5.678408e+002,1.830774e+001
5.688050e+002,1.943504e+001
5.697692e+002,1.845537e+001
5.707335e+002,1.723100e+001
5.716977e+002,1.629152e+001
5.726619e+002,1.556004e+001
5.736262e+002,1.478070e+001
5.745904e+002,1.372173e+001
5.755546e+002,1.293338e+001
5.765189e+002,1.335707e+001
5.774831e+002,1.442551e+001
5.784473e+002,1.531758e+001
5.794116e+002,1.550847e+001
5.803758e+002,1.509409e+001
5.813400e+002,1.444789e+001
5.823043e+002,1.322504e+001
5.832685e+002,1.234488e+001
5.842327e+002,1.260051e+001
5.851970e+002,1.377734e+001
5.861612e+002,1.408784e+001
5.871254e+002,1.180486e+001
5.880897e+002,1.014650e+001
5.890539e+002,1.010948e+001
5.900181e+002,1.098621e+001
5.909824e+002,1.146025e+001
5.919466e+002,1.049010e+001
5.929108e+002,9.509857e+000
5.938751e+002,1.044814e+001
5.948393e+002,1.228374e+001
5.958035e+002,1.337845e+001
5.967678e+002,1.256285e+001
5.977320e+002,1.022165e+001
5.986962e+002,9.139877e+000
5.996605e+002,9.214813e+000
6.006247e+002,9.182648e+000
6.015889e+002,8.225403e+000
6.025532e+002,6.467926e+000
6.035174e+002,5.586670e+000
6.044816e+002,6.392792e+000
6.054459e+002,7.343643e+000
6.064101e+002,8.233902e+000
6.073743e+002,9.119537e+000
6.083386e+002,1.034572e+001
6.093028e+002,1.262724e+001
6.102670e+002,1.410838e+001
6.112313e+002,1.278596e+001
6.121955e+002,1.019644e+001
6.131597e+002,8.412399e+000
6.141240e+002,8.832474e+000
6.150882e+002,1.076517e+001
6.160524e+002,1.135094e+001
6.170167e+002,1.087265e+001
6.179809e+002,1.004785e+001
6.189451e+002,9.016800e+000
6.199094e+002,7.807159e+000
6.208736e+002,6.939575e+000
6.218378e+002,6.873199e+000
6.228021e+002,6.823288e+000
6.237663e+002,6.879120e+000
6.247305e+002,6.898834e+000
6.256948e+002,6.509888e+000
6.266590e+002,5.129623e+000
6.276232e+002,4.191544e+000
6.285875e+002,4.808548e+000
6.295517e+002,6.160492e+000
6.305159e+002,7.386917e+000
6.314802e+002,7.995590e+000
6.324444e+002,8.244247e+000
6.334086e+002,9.270233e+000
6.343729e+002,1.076450e+001
6.353371e+002,1.136179e+001
6.363013e+002,1.037862e+001
6.372656e+002,8.367691e+000
6.382298e+002,7.400696e+000
6.391940e+002,9.061966e+000
6.401583e+002,9.630157e+000
6.411225e+002,8.153030e+000
6.420867e+002,6.190231e+000
6.430510e+002,5.809174e+000
6.440152e+002,8.111343e+000
6.449794e+002,9.718185e+000
6.459437e+002,8.433029e+000
6.469079e+002,6.231674e+000
6.478721e+002,4.518112e+000
6.488364e+002,3.853378e+000
6.498006e+002,3.793854e+000
6.507648e+002,3.542267e+000
6.517291e+002,3.234131e+000
6.526933e+002,3.448349e+000
6.536575e+002,4.335983e+000
6.546218e+002,5.276962e+000
6.555860e+002,4.977325e+000
6.565502e+002,2.020187e+000
6.575145e+002,1.031189e+000
6.584787e+002,3.728287e+000
6.594429e+002,6.767700e+000
6.604072e+002,7.167892e+000
6.613714e+002,4.229996e+000
6.623356e+002,1.825958e+000
6.632999e+002,2.151245e+000
6.642641e+002,3.059021e+000
6.652283e+002,3.771286e+000
6.661926e+002,4.086517e+000
6.671568e+002,4.115509e+000
6.681210e+002,3.817612e+000
6.690853e+002,3.370026e+000
6.700495e+002,3.415192e+000
6.710137e+002,3.927216e+000
6.719780e+002,4.396225e+000
6.729422e+002,4.255768e+000
6.739064e+002,3.358047e+000
6.748707e+002,2.520157e+000
6.758349e+002,1.688644e+000
6.767991e+002,9.285736e-001
6.777634e+002,1.782532e-001
6.787276e+002,-4.467163e-001
6.796918e+002,-5.041046e-001
6.806561e+002,4.012909e-001
6.816203e+002,1.595123e+000
6.825845e+002,3.256973e+000
6.835488e+002,4.937881e+000
6.845130e+002,5.913300e+000
6.854772e+002,5.595291e+000
6.864415e+002,4.670517e+000
6.874057e+002,4.686569e+000
6.883699e+002,5.249664e+000
6.893342e+002,5.554382e+000
6.902984e+002,5.166412e+000
6.912626e+002,4.203690e+000
6.922269e+002,3.318344e+000
6.931911e+002,2.011688e+000
6.941553e+002,1.736786e+000
6.951196e+002,3.340744e+000
6.960838e+002,5.673279e+000
6.970480e+002,7.006226e+000
6.980123e+002,6.896439e+000
6.989765e+002,5.988953e+000
6.999407e+002,3.872894e+000
7.009050e+002,1.747055e+000
7.018692e+002,6.584473e-001
7.028334e+002,8.960571e-001
7.037977e+002,1.769455e+000
7.047619e+002,2.595383e+000
7.057261e+002,3.188019e+000
7.066904e+002,2.735405e+000
7.076546e+002,1.104752e+000
7.086188e+002,-6.938019e-001
7.095831e+002,-1.034073e+000
7.105473e+002,5.611115e-001
7.115115e+002,2.178909e+000
7.124758e+002,4.273491e+000
7.134400e+002,5.917114e+000
7.144042e+002,6.369118e+000
7.153685e+002,5.674858e+000
7.163327e+002,5.114578e+000
7.172969e+002,5.589302e+000
7.182612e+002,6.028549e+000
7.192254e+002,6.061050e+000
7.201896e+002,5.657616e+000
7.211539e+002,4.827393e+000
7.221181e+002,3.515884e+000
7.230823e+002,2.055489e+000
7.240466e+002,1.288452e+000
7.250108e+002,1.151184e+000
7.259750e+002,1.351936e+000
7.269393e+002,1.730652e+000
7.279035e+002,2.138107e+000
7.288677e+002,1.967766e+000
7.298320e+002,5.487289e-001
7.307962e+002,-3.142166e-001
7.317604e+002,-3.393936e-001
7.327247e+002,2.080841e-001
7.336889e+002,9.969635e-001
7.346531e+002,1.964180e+000
7.356174e+002,2.634521e+000
7.365816e+002,2.908112e+000
7.375458e+002,2.986092e+000
7.385101e+002,2.929855e+000
7.394743e+002,2.797249e+000
7.404385e+002,2.675934e+000
7.414028e+002,2.698151e+000
7.423670e+002,2.665672e+000
7.433312e+002,2.363586e+000
7.442955e+002,1.860626e+000
7.452597e+002,1.430122e+000
7.462239e+002,1.250092e+000
7.471882e+002,1.192963e+000
7.481524e+002,1.892891e+000
7.491166e+002,4.423584e+000
7.500809e+002,6.159607e+000
7.510451e+002,5.588203e+000
7.520093e+002,3.300858e+000
7.529736e+002,1.579613e+000
7.539378e+002,1.973984e+000
7.549020e+002,2.628677e+000
7.558663e+002,1.964378e+000
7.568306e+002,8.563919e-001
7.577948e+002,6.237259e-001
7.587590e+002,1.988655e+000
7.597233e+002,4.254082e+000
7.606875e+002,5.497635e+000
7.616517e+002,5.890404e+000
7.626160e+002,6.248703e+000
7.635802e+002,6.920303e+000
7.645444e+002,7.535583e+000
7.655087e+002,7.223221e+000
7.664729e+002,5.415283e+000
7.674371e+002,3.813347e+000
7.684014e+002,2.007385e+000
7.693656e+002,8.166504e-001
7.703298e+002,1.077324e+000
7.712941e+002,2.739990e+000
7.722583e+002,4.472916e+000
7.732225e+002,5.364937e+000
7.741868e+002,5.852921e+000
7.751510e+002,6.188370e+000
7.761152e+002,6.430702e+000
7.770795e+002,6.562286e+000
7.780437e+002,6.552383e+000
7.790079e+002,6.446373e+000
7.799722e+002,7.146973e+000
7.809364e+002,8.898651e+000
7.819006e+002,9.715416e+000
7.828649e+002,8.089630e+000
7.838291e+002,4.997482e+000
7.847933e+002,3.733643e+000
7.857576e+002,5.829376e+000
7.867218e+002,7.141251e+000
7.876860e+002,6.525772e+000
7.886503e+002,5.393707e+000
7.896145e+002,4.937859e+000
7.905787e+002,5.459686e+000
7.915430e+002,6.184250e+000
7.925072e+002,6.076454e+000
7.934714e+002,5.728363e+000
7.944357e+002,6.104691e+000
7.953999e+002,7.152702e+000
7.963641e+002,8.019241e+000
7.973284e+002,7.684875e+000
7.982926e+002,6.050011e+000
7.992568e+002,5.139450e+000
8.002211e+002,5.085281e+000
8.011853e+002,4.970284e+000
8.021495e+002,4.545456e+000
8.031138e+002,3.995369e+000
8.040780e+002,3.591011e+000
8.050422e+002,3.018234e+000
8.060065e+002,3.065506e+000
8.069707e+002,4.538940e+000
8.079349e+002,6.238312e+000
8.088992e+002,6.810120e+000
8.098634e+002,5.916412e+000
8.108276e+002,4.846970e+000
8.117919e+002,5.770699e+000
8.127561e+002,7.541580e+000
8.137203e+002,8.017441e+000
8.146846e+002,7.040642e+000
8.156488e+002,5.433426e+000
8.166130e+002,4.037315e+000
8.175773e+002,2.686401e+000
8.185415e+002,2.481438e+000
8.195057e+002,4.127884e+000
8.204700e+002,5.673347e+000
8.214342e+002,6.661285e+000
8.223984e+002,7.051407e+000
8.233627e+002,6.700920e+000
8.243269e+002,5.041214e+000
8.252911e+002,3.753464e+000
8.262554e+002,4.189682e+000
8.272196e+002,5.158745e+000
8.281838e+002,5.273987e+000
8.291481e+002,4.131775e+000
8.301123e+002,2.644279e+000
8.310765e+002,2.495171e+000
8.320408e+002,3.563522e+000
8.330050e+002,4.098625e+000
8.339692e+002,3.930237e+000
8.349335e+002,3.544151e+000
8.358977e+002,3.425323e+000
8.368619e+002,3.639847e+000
8.378262e+002,3.946404e+000
8.387904e+002,4.166557e+000
8.397546e+002,4.557716e+000
8.407189e+002,5.487953e+000
8.416831e+002,6.577026e+000
8.426473e+002,7.106224e+000
8.436116e+002,6.653214e+000
8.445758e+002,6.075516e+000
8.455400e+002,6.184898e+000
8.465043e+002,6.585724e+000
8.474685e+002,7.068619e+000
8.484327e+002,7.567879e+000
8.493970e+002,7.981445e+000
8.503612e+002,8.042816e+000
8.513254e+002,7.661125e+000
8.522897e+002,7.122314e+000
8.532539e+002,5.991371e+000
8.542181e+002,5.169144e+000
8.551824e+002,5.262352e+000
8.561466e+002,6.286942e+000
8.571108e+002,7.842896e+000
8.580751e+002,1.055678e+001
8.590393e+002,1.244044e+001
8.600035e+002,1.255263e+001
8.609678e+002,1.184360e+001
8.619320e+002,1.122240e+001
8.628962e+002,1.109595e+001
8.638605e+002,1.141574e+001
8.648247e+002,1.242718e+001
8.657889e+002,1.373906e+001
8.667532e+002,1.450430e+001
8.677174e+002,1.461030e+001
8.686816e+002,1.445218e+001
8.696459e+002,1.452428e+001
8.706101e+002,1.495121e+001
8.715743e+002,1.495605e+001
8.725386e+002,1.371809e+001
8.735028e+002,1.313888e+001
8.744670e+002,1.406403e+001
8.754313e+002,1.578107e+001
8.763955e+002,1.695470e+001
8.773597e+002,1.704451e+001
8.783240e+002,1.710414e+001
8.792882e+002,1.813280e+001
8.802524e+002,1.927419e+001
8.812167e+002,1.970972e+001
8.821809e+002,1.934813e+001
8.831451e+002,1.870718e+001
8.841094e+002,1.845947e+001
8.850736e+002,1.866270e+001
8.860378e+002,1.899614e+001
8.870021e+002,1.946812e+001
8.879663e+002,1.986423e+001
8.889305e+002,1.984889e+001
8.898948e+002,1.955669e+001
8.908590e+002,1.986212e+001
8.918232e+002,2.146242e+001
8.927875e+002,2.273766e+001
8.937517e+002,2.327278e+001
8.947159e+002,2.345291e+001
8.956802e+002,2.353230e+001
8.966444e+002,2.354164e+001
8.976086e+002,2.333289e+001
8.985729e+002,2.263839e+001
8.995371e+002,2.193698e+001
9.005013e+002,2.195621e+001
9.014656e+002,2.265042e+001
9.024298e+002,2.355704e+001
9.033940e+002,2.428732e+001
9.043583e+002,2.481740e+001
9.053225e+002,2.545898e+001
9.062867e+002,2.660471e+001
9.072510e+002,2.718777e+001
9.082152e+002,2.676155e+001
9.091794e+002,2.621247e+001
9.101437e+002,2.670465e+001
9.111079e+002,2.843231e+001
9.120721e+002,2.941883e+001
9.130364e+002,2.729295e+001
9.140006e+002,2.495467e+001
9.149648e+002,2.411533e+001
9.159291e+002,2.454317e+001
9.168933e+002,2.540436e+001
9.178575e+002,2.606519e+001
9.188218e+002,2.651526e+001
9.197860e+002,2.682857e+001
9.207502e+002,2.698351e+001
9.217145e+002,2.685060e+001
9.226787e+002,2.637033e+001
9.236429e+002,2.580528e+001
9.246072e+002,2.541179e+001
9.255714e+002,2.513095e+001
9.265356e+002,2.502014e+001
9.274999e+002,2.540446e+001
9.284641e+002,2.554871e+001
9.294283e+002,2.528654e+001
9.303926e+002,2.463527e+001
9.313568e+002,2.351629e+001
9.323210e+002,2.183777e+001
9.332853e+002,2.015128e+001
9.342495e+002,1.927590e+001
9.352137e+002,1.900575e+001
9.361780e+002,1.957112e+001
9.371422e+002,2.103132e+001
9.381064e+002,2.238037e+001
9.390707e+002,2.206477e+001
9.400349e+002,1.960217e+001
9.409991e+002,1.822495e+001
9.419634e+002,1.882253e+001
9.429276e+002,1.916958e+001
9.438918e+002,1.861829e+001
9.448561e+002,1.750526e+001
9.458203e+002,1.623585e+001
9.467845e+002,1.476477e+001
9.477488e+002,1.403772e+001
9.487130e+002,1.597350e+001
9.496772e+002,1.805428e+001
9.506415e+002,1.788399e+001
9.516057e+002,1.566451e+001
9.525699e+002,1.339224e+001
9.535342e+002,1.302053e+001
9.544984e+002,1.422815e+001
9.554626e+002,1.443156e+001
9.564269e+002,1.358491e+001
9.573911e+002,1.280238e+001
9.583553e+002,1.214673e+001
9.593196e+002,1.177645e+001
9.602838e+002,1.215222e+001
9.612480e+002,1.356442e+001
9.622123e+002,1.443983e+001
9.631765e+002,1.396617e+001
9.641407e+002,1.328593e+001
9.651050e+002,1.273440e+001
9.660692e+002,1.237573e+001
9.670334e+002,1.220868e+001
9.679977e+002,1.227135e+001
9.689619e+002,1.259937e+001
9.699261e+002,1.332930e+001
9.708904e+002,1.423654e+001
9.718546e+002,1.462633e+001
9.728188e+002,1.414226e+001
9.737831e+002,1.383649e+001
9.747473e+002,1.558797e+001
9.757115e+002,2.018481e+001
9.766758e+002,2.262697e+001
9.776400e+002,2.149042e+001
9.786042e+002,2.004679e+001
9.795685e+002,1.884564e+001
9.805327e+002,1.774405e+001
9.814969e+002,1.645564e+001
9.824612e+002,1.493436e+001
9.834254e+002,1.351425e+001
9.843896e+002,1.244625e+001
9.853539e+002,1.158067e+001
9.863181e+002,1.087636e+001
9.872823e+002,1.023584e+001
9.882466e+002,9.498184e+000
9.892108e+002,8.602303e+000
9.901750e+002,7.638977e+000
9.911393e+002,6.617683e+000
9.921035e+002,5.039696e+000
9.930677e+002,3.876358e+000
9.940320e+002,3.364510e+000
9.949962e+002,3.261986e+000
9.959604e+002,3.271835e+000
9.969247e+002,3.405098e+000
9.978889e+002,4.206848e+000
9.988531e+002,6.721001e+000
9.998174e+002,8.773018e+000
1.000782e+003,8.594994e+000
1.001746e+003,7.406799e+000
1.002710e+003,7.046577e+000
1.003674e+003,8.266083e+000
1.004639e+003,1.028719e+001
1.005603e+003,1.187109e+001
1.006567e+003,1.293221e+001
1.007531e+003,1.230462e+001
1.008495e+003,9.469711e+000
1.009460e+003,6.137375e+000
1.010424e+003,2.615303e+000
1.011388e+003,-6.652145e-001
1.012352e+003,-1.741707e+000
1.013317e+003,7.336273e-001
1.014281e+003,3.162918e+000
1.015245e+003,4.718208e+000
1.016209e+003,5.525200e+000
1.017174e+003,5.453644e+000
1.018138e+003,4.721664e+000
1.019102e+003,3.908356e+000
1.020066e+003,3.521973e+000
1.021031e+003,3.348442e+000
1.021995e+003,2.499107e+000
1.022959e+003,1.074257e+000
1.023923e+003,-6.085205e-002
1.024887e+003,-5.610580e-001
1.025852e+003,-7.846451e-001
1.026816e+003,-1.389511e+000
1.027780e+003,-2.557610e+000
1.028744e+003,-2.989616e+000
1.029709e+003,-1.865715e+000
1.030673e+003,-8.767319e-001
1.031637e+003,-6.086426e-001
1.032601e+003,-7.776184e-001
1.033566e+003,-1.001228e+000
1.034530e+003,-1.110298e+000
1.035494e+003,-9.418335e-001
1.036458e+003,2.352905e-002
1.037422e+003,1.100853e+000
1.038387e+003,8.650742e-001
1.039351e+003,-5.559998e-001
1.040315e+003,-1.515251e+000
1.041279e+003,-5.821533e-001
1.042244e+003,1.621788e+000
1.043208e+003,1.741829e+000
1.044172e+003,-2.684029e+000
1.045136e+003,-5.053825e+000
1.046101e+003,-4.102219e+000
1.047065e+003,-2.285233e+000
1.048029e+003,-9.117508e-001
1.048993e+003,-8.496094e-002
1.049958e+003,5.270462e-001
1.050922e+003,1.087624e+000
1.051886e+003,1.562523e+000
1.052850e+003,1.896423e+000
1.053814e+003,2.125984e+000
1.054779e+003,2.332268e+000
1.055743e+003,2.498520e+000
1.056707e+003,2.481384e+000
1.057671e+003,2.116791e+000
1.058636e+003,1.389038e+000
1.059600e+003,3.486404e-001
1.060564e+003,-1.946320e+000
1.061528e+003,-3.036667e+000
1.062493e+003,-1.982246e+000
1.063457e+003,-7.788086e-002
1.064421e+003,1.586739e+000
1.065385e+003,2.872231e+000
1.066349e+003,3.282074e+000
1.067314e+003,1.577576e+000
1.068278e+003,1.164932e-001
1.069242e+003,1.349525e+000
1.070206e+003,3.705154e+000
1.071171e+003,4.416138e+000
1.072135e+003,2.426292e+000
1.073099e+003,-7.006531e-001
1.074063e+003,-2.284935e+000
1.075028e+003,-2.146828e+000
1.075992e+003,-2.055130e+000
1.076956e+003,-2.123650e+000
1.077920e+003,-2.145691e+000
1.078885e+003,-1.947708e+000
1.079849e+003,-1.605141e+000
1.080813e+003,-1.342201e+000
1.081777e+003,-1.234886e+000
1.082741e+003,-8.999481e-001
1.083706e+003,-1.748657e-001
1.084670e+003,7.460022e-001
1.085634e+003,2.305466e+000
1.086598e+003,3.885376e+000
1.087563e+003,4.321594e+000
1.088527e+003,3.049248e+000
1.089491e+003,8.220291e-001
1.090455e+003,-1.045952e+000
1.091420e+003,-2.555031e+000
1.092384e+003,-3.756744e+000
1.093348e+003,-5.016960e+000
1.094312e+003,-5.450859e+000
1.095276e+003,-3.929649e+000
1.096241e+003,-1.134453e+000
1.097205e+003,8.215408e-001
1.098169e+003,1.746674e+000
1.099133e+003,1.511368e+000
1.100098e+003,-1.518440e+000
1.101062e+003,-4.114960e+000
1.102026e+003,-3.735008e+000
1.102990e+003,-1.218414e+000
1.103955e+003,1.057945e+000
1.104919e+003,1.637627e+000
1.105883e+003,1.247414e+000
1.106847e+003,1.594208e+000
1.107812e+003,2.635933e+000
1.108776e+003,2.234764e+000
1.109740e+003,-4.749527e-001
1.110704e+003,-3.021675e+000
1.111668e+003,-3.170532e+000
1.112633e+003,-1.532272e+000
1.113597e+003,-1.155037e+000
1.114561e+003,-3.333786e+000
1.115525e+003,-4.460846e+000
1.116490e+003,-2.650665e+000
1.117454e+003,-3.490143e-001
1.118418e+003,1.564720e+000
1.119382e+003,2.597260e+000
1.120347e+003,1.805687e+000
1.121311e+003,-1.418655e+000
1.122275e+003,-5.339584e+000
1.123239e+003,-6.008072e+000
1.124203e+003,-3.601501e+000
1.125168e+003,-1.922096e+000
1.126132e+003,-1.185715e+000
1.127096e+003,-1.267601e+000
1.128060e+003,-2.808380e+000
1.129025e+003,-5.287643e+000
1.129989e+003,-5.843643e+000
1.130953e+003,-3.076233e+000
1.131917e+003,-1.229141e+000
1.132882e+003,-2.338867e+000
1.133846e+003,-3.655670e+000
1.134810e+003,-3.287621e+000
1.135774e+003,-1.715630e+000
1.136739e+003,-5.731125e-001
1.137703e+003,-7.765579e-001
1.138667e+003,-1.480301e+000
1.139631e+003,-1.099998e+000
1.140595e+003,1.955261e-001
1.141560e+003,7.779770e-001
1.142524e+003,3.540115e-001
1.143488e+003,1.834106e-001
1.144452e+003,1.199638e+000
1.145417e+003,3.129982e+000
1.146381e+003,5.153976e+000
1.147345e+003,7.653107e+000
1.148309e+003,9.000534e+000
1.149274e+003,7.010918e+000
1.150238e+003,5.734871e+000
1.151202e+003,8.165329e+000
1.152166e+003,1.271150e+001
1.153130e+003,1.614570e+001
1.154095e+003,1.693839e+001
1.155059e+003,1.644646e+001
1.156023e+003,1.683016e+001
1.156987e+003,1.776735e+001
1.157952e+003,1.660320e+001
1.158916e+003,1.299725e+001
1.159880e+003,9.773972e+000
1.160844e+003,8.629883e+000
1.161809e+003,8.641754e+000
1.162773e+003,7.750771e+000
1.163737e+003,5.623230e+000
1.164701e+003,4.110397e+000
1.165666e+003,4.545525e+000
1.166630e+003,4.839676e+000
1.167594e+003,3.930878e+000
1.168558e+003,2.528351e+000
1.169522e+003,1.745872e+000
1.170487e+003,1.863632e+000
1.171451e+003,2.140724e+000
1.172415e+003,1.750069e+000
1.173379e+003,7.670059e-001
1.174344e+003,-3.417282e-001
1.175308e+003,-1.564194e+000
1.176272e+003,-2.730019e+000
1.177236e+003,-4.194077e+000
1.178201e+003,-5.232147e+000
1.179165e+003,-4.516098e+000
1.180129e+003,-2.049049e+000
1.181093e+003,-7.002335e-001
1.182057e+003,-1.569229e+000
1.183022e+003,-2.867439e+000
1.183986e+003,-4.914673e+000
1.184950e+003,-6.330780e+000
1.185914e+003,-5.081909e+000
1.186879e+003,-1.647217e+000
1.187843e+003,1.363472e+000
1.188807e+003,1.816551e+000
1.189771e+003,2.359085e-001
1.190736e+003,-2.145370e+000
1.191700e+003,-5.542923e+000
1.192664e+003,-7.190224e+000
1.193628e+003,-5.684700e+000
1.194593e+003,-3.841942e+000
1.195557e+003,-3.619576e+000
1.196521e+003,-4.693718e+000
1.197485e+003,-6.048630e+000
1.198449e+003,-7.790314e+000
1.199414e+003,-8.960297e+000
1.200378e+003,-9.054054e+000
1.201342e+003,-8.505081e+000
1.202306e+003,-6.857620e+000
1.203271e+003,-4.919159e+000
1.204235e+003,-4.294083e+000
1.205199e+003,-5.660286e+000
1.206163e+003,-7.862671e+000
1.207128e+003,-8.986015e+000
1.208092e+003,-8.954384e+000
1.209056e+003,-9.119850e+000
1.210020e+003,-9.521332e+000
1.210984e+003,-9.987251e+000
1.211949e+003,-1.049757e+001
1.212913e+003,-1.105269e+001
1.213877e+003,-1.164526e+001
1.214841e+003,-1.225909e+001
1.215806e+003,-1.287215e+001
1.216770e+003,-1.365671e+001
1.217734e+003,-1.415334e+001
1.218698e+003,-1.414053e+001
1.219663e+003,-1.372604e+001
1.220627e+003,-1.282388e+001
1.221591e+003,-1.158313e+001
1.222555e+003,-1.050484e+001
1.223520e+003,-1.003871e+001
1.224484e+003,-1.013840e+001
1.225448e+003,-1.068189e+001
1.226412e+003,-1.191760e+001
1.227376e+003,-1.310314e+001
1.228341e+003,-1.480253e+001
1.229305e+003,-1.586594e+001
1.230269e+003,-1.516325e+001
1.231233e+003,-1.352395e+001
1.232198e+003,-1.269556e+001
1.233162e+003,-1.314021e+001
1.234126e+003,-1.363463e+001
1.235090e+003,-1.342345e+001
1.236055e+003,-1.276955e+001
1.237019e+003,-1.149667e+001
1.237983e+003,-1.008298e+001
1.238947e+003,-9.857910e+000
1.239911e+003,-1.133143e+001
1.240876e+003,-1.328467e+001
1.241840e+003,-1.382650e+001
1.242804e+003,-1.281974e+001
1.243768e+003,-1.285654e+001
1.244733e+003,-1.590865e+001
1.245697e+003,-1.732148e+001
1.246661e+003,-1.550508e+001
1.247625e+003,-1.314962e+001
1.248590e+003,-1.225072e+001
1.249554e+003,-1.256784e+001
1.250518e+003,-1.278673e+001
1.251482e+003,-1.234623e+001
1.252447e+003,-1.162057e+001
1.253411e+003,-1.069623e+001
1.254375e+003,-9.923416e+000
1.255339e+003,-1.020990e+001
1.256303e+003,-1.152686e+001
1.257268e+003,-1.297150e+001
1.258232e+003,-1.432822e+001
1.259196e+003,-1.522219e+001
1.260160e+003,-1.467001e+001
1.261125e+003,-1.241360e+001
1.262089e+003,-1.004667e+001
1.263053e+003,-6.727570e+000
1.264017e+003,-4.750420e+000
1.264982e+003,-5.509102e+000
1.265946e+003,-7.149178e+000
1.266910e+003,-8.068024e+000
1.267874e+003,-8.089249e+000
1.268839e+003,-7.759789e+000
1.269803e+003,-7.420464e+000
1.270767e+003,-7.342026e+000
1.271731e+003,-8.211205e+000
1.272695e+003,-9.957451e+000
1.273660e+003,-1.100797e+001
1.274624e+003,-1.112398e+001
1.275588e+003,-1.128637e+001
1.276552e+003,-1.237305e+001
1.277517e+003,-1.361861e+001
1.278481e+003,-1.349068e+001
1.279445e+003,-1.183155e+001
1.280409e+003,-1.010277e+001
1.281374e+003,-8.103104e+000
1.282338e+003,-7.097305e+000
1.283302e+003,-8.306313e+000
1.284266e+003,-1.041467e+001
1.285230e+003,-1.229899e+001
1.286195e+003,-1.350426e+001
1.287159e+003,-1.356049e+001
1.288123e+003,-1.204391e+001
1.289087e+003,-9.817101e+000
1.290052e+003,-9.715446e+000
1.291016e+003,-1.289241e+001
1.291980e+003,-1.410261e+001
1.292944e+003,-1.160447e+001
1.293909e+003,-9.659019e+000
1.294873e+003,-1.042023e+001
1.295837e+003,-1.230354e+001
1.296801e+003,-1.296909e+001
1.297766e+003,-1.218867e+001
1.298730e+003,-1.184414e+001
1.299694e+003,-1.341356e+001
1.300658e+003,-1.490727e+001
1.301622e+003,-1.351846e+001
1.302587e+003,-1.079507e+001
1.303551e+003,-9.190262e+000
1.304515e+003,-9.093132e+000
1.305479e+003,-9.449440e+000
1.306444e+003,-9.444267e+000
1.307408e+003,-9.288750e+000
1.308372e+003,-9.646622e+000
1.309336e+003,-1.066692e+001
1.310301e+003,-1.176259e+001
1.311265e+003,-1.359016e+001
1.312229e+003,-1.458604e+001
1.313193e+003,-1.380788e+001
1.314157e+003,-1.229787e+001
1.315122e+003,-1.101054e+001
1.316086e+003,-1.017984e+001
1.317050e+003,-9.673378e+000
1.318014e+003,-9.406685e+000
1.318979e+003,-9.202217e+000
1.319943e+003,-8.674141e+000
1.320907e+003,-7.894936e+000
1.321871e+003,-7.693665e+000
1.322836e+003,-8.342575e+000
1.323800e+003,-8.936302e+000
1.324764e+003,-8.877998e+000
1.325728e+003,-8.508537e+000
1.326693e+003,-8.208427e+000
1.327657e+003,-8.002350e+000
1.328621e+003,-8.974449e+000
1.329585e+003,-1.261577e+001
1.330549e+003,-1.514555e+001
1.331514e+003,-1.396246e+001
1.332478e+003,-1.165867e+001
1.333442e+003,-1.050968e+001
1.334406e+003,-1.062498e+001
1.335371e+003,-1.118923e+001
1.336335e+003,-1.166437e+001
1.337299e+003,-1.175587e+001
1.338263e+003,-1.082801e+001
1.339228e+003,-8.654594e+000
1.340192e+003,-7.585815e+000
1.341156e+003,-8.313858e+000
1.342120e+003,-9.040474e+000
1.343084e+003,-9.750320e+000
1.344049e+003,-1.024563e+001
1.345013e+003,-1.021555e+001
1.345977e+003,-9.771492e+000
1.346941e+003,-9.398857e+000
1.347906e+003,-9.295212e+000
1.348870e+003,-8.887924e+000
1.349834e+003,-7.070152e+000
1.350798e+003,-5.132576e+000
1.351763e+003,-5.925858e+000
1.352727e+003,-8.877319e+000
1.353691e+003,-1.059251e+001
1.354655e+003,-9.693970e+000
1.355620e+003,-7.700119e+000
1.356584e+003,-6.103561e+000
1.357548e+003,-4.906906e+000
1.358512e+003,-4.346451e+000
1.359476e+003,-4.667931e+000
1.360441e+003,-5.187927e+000
1.361405e+003,-6.048065e+000
1.362369e+003,-6.671234e+000
1.363333e+003,-6.503685e+000
1.364298e+003,-6.044441e+000
1.365262e+003,-6.003555e+000
1.366226e+003,-6.536896e+000
1.367190e+003,-7.337158e+000
1.368155e+003,-8.144707e+000
1.369119e+003,-8.818611e+000
1.370083e+003,-8.849136e+000
1.371047e+003,-7.940033e+000
1.372011e+003,-7.566177e+000
1.372976e+003,-8.407722e+000
1.373940e+003,-8.964920e+000
1.374904e+003,-8.509262e+000
1.375868e+003,-7.546532e+000
1.376833e+003,-6.577240e+000
1.377797e+003,-5.736588e+000
1.378761e+003,-5.210823e+000
1.379725e+003,-5.017319e+000
1.380690e+003,-5.322395e+000
1.381654e+003,-7.035583e+000
1.382618e+003,-8.964989e+000
1.383582e+003,-8.989906e+000
1.384547e+003,-7.342018e+000
1.385511e+003,-6.660103e+000
1.386475e+003,-8.593803e+000
1.387439e+003,-1.104430e+001
1.388403e+003,-1.031118e+001
1.389368e+003,-6.414085e+000
1.390332e+003,-4.299744e+000
1.391296e+003,-4.726662e+000
1.392260e+003,-5.664406e+000
1.393225e+003,-7.412849e+000
1.394189e+003,-8.703384e+000
1.395153e+003,-8.384781e+000
1.396117e+003,-7.306175e+000
1.397082e+003,-6.774696e+000
1.398046e+003,-7.139488e+000
1.399010e+003,-7.942245e+000
1.399974e+003,-8.822693e+000
1.400938e+003,-9.572281e+000
1.401903e+003,-9.315010e+000
1.402867e+003,-7.574112e+000
1.403831e+003,-6.326958e+000
1.404795e+003,-5.801537e+000
1.405760e+003,-5.541405e+000
1.406724e+003,-5.616112e+000
1.407688e+003,-5.876755e+000
1.408652e+003,-6.066185e+000
1.409617e+003,-6.131424e+000
1.410581e+003,-6.186089e+000
1.411545e+003,-6.272049e+000
1.412509e+003,-6.383217e+000
1.413474e+003,-6.579163e+000
1.414438e+003,-6.832108e+000
1.415402e+003,-7.012070e+000
1.416366e+003,-7.079269e+000
1.417330e+003,-7.090744e+000
1.418295e+003,-7.119720e+000
1.419259e+003,-6.903450e+000
1.420223e+003,-5.942139e+000
1.421187e+003,-4.447296e+000
1.422152e+003,-3.565880e+000
1.423116e+003,-3.324387e+000
1.424080e+003,-3.512711e+000
1.425044e+003,-4.811661e+000
1.426009e+003,-5.834206e+000
1.426973e+003,-5.764412e+000
1.427937e+003,-5.242859e+000
1.428901e+003,-4.932068e+000
1.429865e+003,-4.964630e+000
1.430830e+003,-5.284882e+000
1.431794e+003,-5.861565e+000
1.432758e+003,-6.414650e+000
1.433722e+003,-6.278389e+000
1.434687e+003,-5.283440e+000
1.435651e+003,-4.915131e+000
1.436615e+003,-6.413254e+000
1.437579e+003,-6.993912e+000
1.438544e+003,-5.505760e+000
1.439508e+003,-3.918869e+000
1.440472e+003,-3.509399e+000
1.441436e+003,-3.922234e+000
1.442401e+003,-4.521370e+000
1.443365e+003,-5.077049e+000
1.444329e+003,-5.226395e+000
1.445293e+003,-4.628563e+000
1.446257e+003,-3.611740e+000
1.447222e+003,-2.688339e+000
1.448186e+003,-1.902344e+000
1.449150e+003,-1.548088e+000
1.450114e+003,-1.705139e+000
1.451079e+003,-2.136894e+000
1.452043e+003,-2.911644e+000
1.453007e+003,-3.699417e+000
1.453971e+003,-4.074638e+000
1.454936e+003,-4.080902e+000
1.455900e+003,-3.873558e+000
1.456864e+003,-3.321960e+000
1.457828e+003,-3.047333e+000
1.458792e+003,-3.869942e+000
1.459757e+003,-4.762177e+000
1.460721e+003,-4.775787e+000
1.461685e+003,-4.237839e+000
1.462649e+003,-3.901924e+000
1.463614e+003,-3.927147e+000
1.464578e+003,-3.800240e+000
1.465542e+003,-2.989937e+000
1.466506e+003,-1.917656e+000
1.467471e+003,-1.884247e+000
1.468435e+003,-3.117867e+000
1.469399e+003,-3.949562e+000
1.470363e+003,-3.936073e+000
1.471328e+003,-4.147400e+000
1.472292e+003,-5.506058e+000
1.473256e+003,-6.603348e+000
1.474220e+003,-5.876541e+000
1.475184e+003,-4.171593e+000
1.476149e+003,-3.301971e+000
1.477113e+003,-3.860458e+000
1.478077e+003,-5.021873e+000
1.479041e+003,-5.971695e+000
1.480006e+003,-6.671577e+000
1.480970e+003,-7.077049e+000
1.481934e+003,-7.291420e+000
1.482898e+003,-6.890526e+000
1.483863e+003,-5.155624e+000
1.484827e+003,-3.910614e+000
1.485791e+003,-4.084534e+000
1.486755e+003,-4.481850e+000
1.487719e+003,-3.770500e+000
1.488684e+003,-2.417030e+000
1.489648e+003,-2.043411e+000
1.490612e+003,-3.102013e+000
1.491576e+003,-3.943993e+000
1.492541e+003,-3.085045e+000
1.493505e+003,-1.448990e+000
1.494469e+003,-1.268906e+000
1.495433e+003,-2.282768e+000
1.496398e+003,-2.495522e+000
1.497362e+003,-1.427505e+000
1.498326e+003,-1.093750e-001
1.499290e+003,1.301796e+000
1.500255e+003,2.381050e+000
1.501219e+003,2.192558e+000
1.502183e+003,1.005836e+000
1.503147e+003,4.840317e-001
1.504111e+003,1.027084e+000
1.505076e+003,2.076103e+000
1.506040e+003,3.603630e+000
1.507004e+003,5.207733e+000
1.507968e+003,6.427536e+000
1.508933e+003,7.440735e+000
1.509897e+003,8.544579e+000
1.510861e+003,9.881851e+000
1.511825e+003,1.174731e+001
1.512790e+003,1.450694e+001
1.513754e+003,1.746862e+001
1.514718e+003,1.915320e+001
1.515682e+003,1.953694e+001
1.516646e+003,2.067764e+001
1.517611e+003,2.307436e+001
1.518575e+003,2.554236e+001
1.519539e+003,2.837009e+001
1.520503e+003,3.056551e+001
1.521468e+003,3.148275e+001
1.522432e+003,3.144816e+001
1.523396e+003,3.094082e+001
1.524360e+003,3.003702e+001
1.525325e+003,2.835270e+001
1.526289e+003,2.565359e+001
1.527253e+003,2.280782e+001
1.528217e+003,2.145969e+001
1.529182e+003,2.167095e+001
1.530146e+003,2.090927e+001
1.531110e+003,1.838593e+001
1.532074e+003,1.629363e+001
1.533039e+003,1.503934e+001
1.534003e+003,1.371783e+001
1.534967e+003,1.208793e+001
1.535931e+003,1.024034e+001
1.536896e+003,8.131409e+000
1.537860e+003,5.922333e+000
1.538824e+003,3.784599e+000
1.539788e+003,1.850800e+000
1.540752e+003,7.667770e-001
1.541717e+003,1.553650e+000
1.542681e+003,3.770592e+000
1.543645e+003,4.463921e+000
1.544609e+003,2.946060e+000
1.545573e+003,1.707108e+000
1.546538e+003,6.000519e-002
1.547502e+003,-5.627670e-001
1.548466e+003,1.026520e+000
1.549430e+003,3.457397e+000
1.550395e+003,5.840187e+000
1.551359e+003,7.677277e+000
1.552323e+003,8.122856e+000
1.553287e+003,6.945114e+000
1.554252e+003,4.905975e+000
1.555216e+003,2.451736e+000
1.556180e+003,1.744461e-001
1.557144e+003,-2.521133e-001
1.558109e+003,1.267395e+000
1.559073e+003,1.674614e+000
1.560037e+003,5.419922e-002
1.561001e+003,-1.019897e+000
1.561966e+003,-1.403961e-001
1.562930e+003,1.236992e+000
1.563894e+003,1.964722e+000
1.564858e+003,2.009476e+000
1.565823e+003,1.105980e+000
1.566787e+003,-6.671295e-001
1.567751e+003,-1.375298e+000
1.568715e+003,3.813477e-001
1.569679e+003,2.769409e+000
1.570644e+003,3.532669e+000
1.571608e+003,3.026100e+000
1.572572e+003,2.333870e+000
1.573536e+003,1.502739e+000
1.574500e+003,9.820938e-001
1.575465e+003,8.445892e-001
1.576429e+003,1.139404e+000
1.577393e+003,2.154976e+000
1.578357e+003,3.495819e+000
1.579322e+003,4.497047e+000
1.580286e+003,5.112602e+000
1.581250e+003,5.302521e+000
1.582214e+003,4.952164e+000
1.583179e+003,4.550537e+000
1.584143e+003,4.413452e+000
1.585107e+003,4.410225e+000
1.586071e+003,4.597160e+000
1.587036e+003,4.852531e+000
1.588000e+003,4.512848e+000
1.588964e+003,3.353989e+000
1.589928e+003,2.299644e+000
1.590893e+003,1.783569e+000
1.591857e+003,1.903679e+000
1.592821e+003,3.124367e+000
1.593785e+003,5.215034e+000
1.594750e+003,6.936943e+000
1.595714e+003,8.234268e+000
1.596678e+003,8.237526e+000
1.597642e+003,5.268730e+000
1.598606e+003,2.900230e+000
1.599571e+003,4.965683e+000
1.600535e+003,8.710617e+000
1.601499e+003,1.077882e+001
1.602463e+003,1.099066e+001
1.603427e+003,1.018058e+001
1.604392e+003,8.538086e+000
1.605356e+003,7.205276e+000
1.606320e+003,7.707657e+000
1.607284e+003,9.294235e+000
1.608249e+003,9.736397e+000
1.609213e+003,8.992706e+000
1.610177e+003,8.246613e+000
1.611141e+003,7.480743e+000
1.612106e+003,7.256111e+000
1.613070e+003,8.557961e+000
1.614034e+003,9.838768e+000
1.614998e+003,9.903908e+000
1.615963e+003,9.203003e+000
1.616927e+003,8.311485e+000
1.617891e+003,7.460335e+000
1.618855e+003,7.212395e+000
1.619820e+003,7.956985e+000
1.620784e+003,9.019745e+000
1.621748e+003,9.531670e+000
1.622712e+003,9.639999e+000
1.623677e+003,9.802277e+000
1.624641e+003,1.000632e+001
1.625605e+003,1.038689e+001
1.626569e+003,1.081281e+001
1.627533e+003,1.144297e+001
1.628498e+003,1.335877e+001
1.629462e+003,1.475837e+001
1.630426e+003,1.332687e+001
1.631390e+003,1.031806e+001
1.632354e+003,8.563156e+000
1.633319e+003,8.738327e+000
1.634283e+003,9.663712e+000
1.635247e+003,1.051632e+001
1.636211e+003,1.143130e+001
1.637176e+003,1.307435e+001
1.638140e+003,1.531678e+001
1.639104e+003,1.559135e+001
1.640068e+003,1.312872e+001
1.641033e+003,1.128290e+001
1.641997e+003,1.099808e+001
1.642961e+003,1.138631e+001
1.643925e+003,1.276765e+001
1.644890e+003,1.392443e+001
1.645854e+003,1.310269e+001
1.646818e+003,1.109125e+001
1.647782e+003,1.014676e+001
1.648747e+003,1.093415e+001
1.649711e+003,1.235661e+001
1.650675e+003,1.379395e+001
1.651639e+003,1.475805e+001
1.652604e+003,1.376714e+001
1.653568e+003,1.089614e+001
1.654532e+003,9.121109e+000
1.655496e+003,8.776009e+000
1.656460e+003,8.906609e+000
1.657425e+003,9.692642e+000
1.658389e+003,1.034424e+001
1.659353e+003,1.047646e+001
1.660317e+003,1.024032e+001
1.661281e+003,9.480141e+000
1.662246e+003,8.513756e+000
1.663210e+003,8.282318e+000
1.664174e+003,9.079216e+000
1.665138e+003,1.003375e+001
1.666103e+003,1.060426e+001
1.667067e+003,1.048569e+001
1.668031e+003,8.429314e+000
1.668995e+003,4.715042e+000
1.669960e+003,3.572655e+000
1.670924e+003,6.103249e+000
1.671888e+003,7.822617e+000
1.672852e+003,6.715431e+000
1.673817e+003,5.350815e+000
1.674781e+003,5.290680e+000
1.675745e+003,5.875961e+000
1.676709e+003,6.760521e+000
1.677674e+003,7.620163e+000
1.678638e+003,7.506905e+000
1.679602e+003,6.145279e+000
1.680566e+003,5.124207e+000
1.681531e+003,6.018280e+000
1.682495e+003,7.571884e+000
1.683459e+003,7.413536e+000
1.684423e+003,5.826752e+000
1.685387e+003,4.790535e+000
1.686352e+003,4.527168e+000
1.687316e+003,4.573654e+000
1.688280e+003,5.041061e+000
1.689244e+003,5.290405e+000
1.690208e+003,4.447899e+000
1.691173e+003,3.386360e+000
1.692137e+003,3.136024e+000
1.693101e+003,3.550774e+000
1.694065e+003,4.025146e+000
1.695030e+003,4.393127e+000
1.695994e+003,4.348289e+000
1.696958e+003,3.400284e+000
1.697922e+003,2.361862e+000
1.698887e+003,2.444778e+000
1.699851e+003,3.244675e+000
1.700815e+003,3.442894e+000
1.701779e+003,2.916603e+000
1.702744e+003,2.360016e+000
1.703708e+003,1.969849e+000
1.704672e+003,1.890816e+000
1.705636e+003,2.395180e+000
1.706601e+003,2.980446e+000
1.707565e+003,3.003159e+000
1.708529e+003,2.580147e+000
1.709493e+003,1.773544e+000
1.710458e+003,4.746475e-001
1.711422e+003,-1.707840e-001
1.712386e+003,8.330917e-001
1.713350e+003,2.086090e+000
1.714314e+003,2.506935e+000
1.715279e+003,2.353363e+000
1.716243e+003,1.778763e+000
1.717207e+003,1.051865e+000
1.718171e+003,1.483917e+000
1.719135e+003,3.442482e+000
1.720100e+003,4.590073e+000
1.721064e+003,3.067230e+000
1.722028e+003,8.089142e-001
1.722992e+003,8.833008e-001
1.723957e+003,2.739037e+000
1.724921e+003,2.827461e+000
1.725885e+003,7.732620e-001
1.726849e+003,-9.257202e-001
1.727814e+003,-2.003281e+000
1.728778e+003,-2.353958e+000
1.729742e+003,-1.287674e+000
1.730706e+003,-8.411407e-002
1.731671e+003,-3.318100e-001
1.732635e+003,-1.376999e+000
1.733599e+003,-1.606506e+000
1.734563e+003,-7.405624e-001
1.735528e+003,5.986786e-001
1.736492e+003,2.059944e+000
1.737456e+003,3.038391e+000
1.738420e+003,2.767540e+000
1.739385e+003,1.502007e+000
1.740349e+003,1.929474e-001
1.741313e+003,-1.464600e+000
1.742277e+003,-1.412689e+000
1.743241e+003,2.407158e+000
1.744206e+003,4.674217e+000
1.745170e+003,3.474571e+000
1.746134e+003,1.969582e+000
1.747098e+003,1.883408e+000
1.748063e+003,2.441399e+000
1.749027e+003,2.913979e+000
1.749991e+003,3.029816e+000
1.750955e+003,2.438545e+000
1.751919e+003,1.140038e+000
1.752884e+003,-1.932373e-001
1.753848e+003,-1.006378e+000
1.754812e+003,-1.423210e+000
1.755776e+003,-1.653313e+000
1.756741e+003,-1.660477e+000
1.757705e+003,-1.331100e+000
1.758669e+003,-4.474335e-001
1.759633e+003,3.507233e-002
1.760598e+003,-1.194229e-001
1.761562e+003,-5.624161e-001
1.762526e+003,-1.621567e+000
1.763490e+003,-2.411972e+000
1.764455e+003,-2.227844e+000
1.765419e+003,-1.395271e+000
1.766383e+003,-1.856613e-001
1.767347e+003,1.071686e+000
1.768312e+003,1.453621e+000
1.769276e+003,4.950562e-001
1.770240e+003,-6.186142e-001
1.771204e+003,-4.873123e-001
1.772168e+003,3.149033e-001
1.773133e+003,3.387222e-001
1.774097e+003,-3.365784e-001
1.775061e+003,-9.806824e-001
1.776025e+003,-1.627922e+000
1.776990e+003,-1.687180e+000
1.777954e+003,-5.469360e-001
1.778918e+003,4.320602e-001
1.779882e+003,4.956055e-002
1.780846e+003,-9.519806e-001
1.781811e+003,-1.800522e+000
1.782775e+003,-2.343376e+000
1.783739e+003,-1.895393e+000
1.784703e+003,-2.206802e-001
1.785668e+003,9.380646e-001
1.786632e+003,2.313080e-001
1.787596e+003,-4.568634e-001
1.788560e+003,9.550781e-001
1.789525e+003,2.823082e+000
1.790489e+003,2.439728e+000
1.791453e+003,4.130859e-001
1.792417e+003,-9.013519e-001
1.793382e+003,-9.985962e-001
1.794346e+003,-6.297150e-001
1.795310e+003,-1.620255e-001
1.796274e+003,1.514511e-001
1.797239e+003,3.311157e-003
1.798203e+003,-3.867874e-001
1.799167e+003,-4.865112e-001
1.800131e+003,-3.739395e-001
1.801095e+003,4.119873e-003
1.802060e+003,1.045677e+000
1.803024e+003,1.842400e+000
1.803988e+003,2.163429e+000
1.804952e+003,2.344246e+000
1.805917e+003,2.715775e+000
1.806881e+003,2.874901e+000
1.807845e+003,1.956329e+000
1.808809e+003,6.916199e-001
1.809773e+003,8.821411e-001
1.810738e+003,2.571243e+000
1.811702e+003,3.665512e+000
1.812666e+003,2.870117e+000
1.813630e+003,1.418121e+000
1.814595e+003,9.891891e-001
1.815559e+003,1.253616e+000
1.816523e+003,7.533951e-001
1.817487e+003,-6.507416e-001
1.818452e+003,-1.060539e+000
1.819416e+003,-6.814575e-002
1.820380e+003,1.145897e+000
1.821344e+003,2.778908e+000
1.822309e+003,3.741852e+000
1.823273e+003,2.923683e+000
1.824237e+003,1.593544e+000
1.825201e+003,8.038330e-001
1.826166e+003,5.835495e-001
1.827130e+003,9.698563e-001
1.828094e+003,1.925209e+000
1.829058e+003,2.725815e+000
1.830022e+003,2.960228e+000
1.830987e+003,3.149139e+000
1.831951e+003,4.128113e+000
1.832915e+003,5.032135e+000
1.833879e+003,4.438171e+000
1.834844e+003,2.685265e+000
1.835808e+003,4.677429e-001
1.836772e+003,-1.832214e+000
1.837736e+003,-2.218102e+000
1.838700e+003,2.483749e-001
1.839665e+003,2.666359e+000
1.840629e+003,2.280708e+000
1.841593e+003,4.950333e-001
1.842557e+003,3.459549e-001
1.843522e+003,1.796196e+000
1.844486e+003,2.111725e+000
1.845450e+003,2.573395e-002
1.846414e+003,-6.267624e-001
1.847379e+003,1.379456e+000
1.848343e+003,2.993568e+000
1.849307e+003,3.103401e+000
1.850271e+003,2.804504e+000
1.851236e+003,2.684212e+000
1.852200e+003,2.855484e+000
1.853164e+003,3.624123e+000
1.854128e+003,4.616768e+000
1.855093e+003,4.748299e+000
1.856057e+003,3.736595e+000
1.857021e+003,2.653481e+000
1.857985e+003,2.377426e+000
1.858949e+003,2.470901e+000
1.859914e+003,2.070839e+000
1.860878e+003,1.367241e+000
1.861842e+003,1.474777e+000
1.862806e+003,2.405716e+000
1.863771e+003,3.219116e+000
1.864735e+003,3.744514e+000
1.865699e+003,4.198624e+000
1.866663e+003,4.873093e+000
1.867627e+003,5.188980e+000
1.868592e+003,4.285851e+000
1.869556e+003,2.827293e+000
1.870520e+003,2.253296e+000
1.871484e+003,2.395851e+000
1.872449e+003,2.049202e+000
1.873413e+003,9.193726e-001
1.874377e+003,4.175568e-001
1.875341e+003,1.117867e+000
1.876306e+003,2.126877e+000
1.877270e+003,3.261703e+000
1.878234e+003,4.192078e+000
1.879198e+003,4.557632e+000
1.880163e+003,4.518181e+000
1.881127e+003,4.504272e+000
1.882091e+003,4.449928e+000
1.883055e+003,3.516632e+000
1.884020e+003,1.534302e+000
1.884984e+003,2.411194e-001
1.885948e+003,1.260986e+000
1.886912e+003,3.386261e+000
1.887876e+003,4.207596e+000
1.888841e+003,3.832306e+000
1.889805e+003,3.416725e+000
1.890769e+003,2.874016e+000
1.891733e+003,2.766159e+000
1.892698e+003,3.168068e+000
1.893662e+003,3.913795e+000
1.894626e+003,5.547707e+000
1.895590e+003,6.743675e+000
1.896554e+003,6.149666e+000
1.897519e+003,4.980980e+000
1.898483e+003,4.749611e+000
1.899447e+003,5.152290e+000
1.900411e+003,4.951042e+000
1.901376e+003,3.908813e+000
1.902340e+003,3.262566e+000
1.903304e+003,3.888977e+000
1.904268e+003,4.352806e+000
1.905233e+003,3.281998e+000
1.906197e+003,2.126160e+000
1.907161e+003,2.772781e+000
1.908125e+003,4.253860e+000
1.909090e+003,4.626099e+000
1.910054e+003,3.869431e+000
1.911018e+003,3.025772e+000
1.911982e+003,2.544632e+000
1.912947e+003,2.503433e+000
1.913911e+003,2.946236e+000
1.914875e+003,3.739723e+000
1.915839e+003,4.737968e+000
1.916803e+003,5.744446e+000
1.917768e+003,5.763130e+000
1.918732e+003,4.568298e+000
1.919696e+003,4.062622e+000
1.920660e+003,4.465324e+000
1.921625e+003,5.130180e+000
1.922589e+003,6.406525e+000
1.923553e+003,7.077164e+000
1.924517e+003,5.623093e+000
1.925481e+003,4.074234e+000
1.926446e+003,4.526001e+000
1.927410e+003,6.059395e+000
1.928374e+003,6.916718e+000
1.929338e+003,6.936783e+000
1.930303e+003,6.495621e+000
1.931267e+003,5.583534e+000
1.932231e+003,4.741264e+000
1.933195e+003,3.967598e+000
1.934160e+003,3.539497e+000
1.935124e+003,3.681900e+000
1.936088e+003,4.241066e+000
1.937052e+003,5.449348e+000
1.938017e+003,6.819885e+000
1.938981e+003,7.201859e+000
1.939945e+003,6.602455e+000
1.940909e+003,6.168640e+000
1.941874e+003,6.366737e+000
1.942838e+003,6.200592e+000
1.943802e+003,4.686913e+000
1.944766e+003,3.061127e+000
1.945730e+003,4.070160e+000
1.946695e+003,7.188789e+000
1.947659e+003,8.026039e+000
1.948623e+003,6.310890e+000
1.949587e+003,5.359108e+000
1.950552e+003,5.702454e+000
1.951516e+003,6.131950e+000
1.952480e+003,6.261703e+000
1.953444e+003,6.371887e+000
1.954408e+003,6.804840e+000
1.955373e+003,7.131287e+000
1.956337e+003,6.649170e+000
1.957301e+003,5.635475e+000
1.958265e+003,4.707855e+000
1.959230e+003,3.749207e+000
1.960194e+003,4.109627e+000
1.961158e+003,7.737236e+000
1.962122e+003,9.870720e+000
1.963087e+003,8.178139e+000
1.964051e+003,6.053307e+000
1.965015e+003,5.224030e+000
1.965979e+003,5.162888e+000
1.966944e+003,5.315147e+000
1.967908e+003,5.614075e+000
1.968872e+003,6.346146e+000
1.969836e+003,7.336578e+000
1.970801e+003,7.813515e+000
1.971765e+003,7.474541e+000
1.972729e+003,6.784920e+000
1.973693e+003,5.940674e+000
1.974657e+003,5.530045e+000
1.975622e+003,6.819435e+000
1.976586e+003,9.074699e+000
1.977550e+003,1.046040e+001
1.978514e+003,1.099313e+001
1.979479e+003,1.097005e+001
1.980443e+003,1.044474e+001
1.981407e+003,9.441948e+000
1.982371e+003,7.935066e+000
1.983335e+003,6.916679e+000
1.984300e+003,7.187637e+000
1.985264e+003,7.962379e+000
1.986228e+003,8.083992e+000
1.987192e+003,7.647118e+000
1.988157e+003,7.107346e+000
1.989121e+003,6.353600e+000
1.990085e+003,6.184647e+000
1.991049e+003,6.999596e+000
1.992014e+003,7.635605e+000
1.992978e+003,7.818886e+000
1.993942e+003,7.948616e+000
1.994906e+003,8.244232e+000
1.995871e+003,8.454170e+000
1.996835e+003,8.116631e+000
1.997799e+003,7.764648e+000
1.998763e+003,8.338020e+000
1.999728e+003,9.614883e+000
