5.003444e+002,2.334230e+002
5.013087e+002,2.346290e+002
5.022729e+002,2.332428e+002
5.032371e+002,2.302800e+002
5.042014e+002,2.264706e+002
5.051656e+002,2.221785e+002
5.061298e+002,2.184861e+002
5.070941e+002,2.163073e+002
5.080583e+002,2.157296e+002
5.090225e+002,2.135892e+002
5.099868e+002,2.092826e+002
5.109510e+002,2.045593e+002
5.119152e+002,2.000791e+002
5.128795e+002,1.959000e+002
5.138437e+002,1.926953e+002
5.148079e+002,1.903293e+002
5.157722e+002,1.896216e+002
5.167364e+002,1.927942e+002
5.177006e+002,1.985128e+002
5.186649e+002,2.016272e+002
5.196291e+002,1.937396e+002
5.205933e+002,1.825234e+002
5.215576e+002,1.750853e+002
5.225218e+002,1.717797e+002
5.234860e+002,1.709454e+002
5.244503e+002,1.705114e+002
5.254145e+002,1.718547e+002
5.263787e+002,1.709698e+002
5.273430e+002,1.664226e+002
5.283072e+002,1.606295e+002
5.292714e+002,1.566224e+002
5.302357e+002,1.540834e+002
5.311999e+002,1.518796e+002
5.321641e+002,1.520160e+002
5.331284e+002,1.525092e+002
5.340926e+002,1.507170e+002
5.350568e+002,1.450413e+002
5.360211e+002,1.397496e+002
5.369853e+002,1.420032e+002
5.379495e+002,1.461586e+002
5.389138e+002,1.471532e+002
5.398780e+002,1.429706e+002
5.408422e+002,1.353488e+002
5.418065e+002,1.282262e+002
5.427707e+002,1.218070e+002
5.437349e+002,1.189602e+002
5.446992e+002,1.213108e+002
5.456634e+002,1.270486e+002
5.466276e+002,1.300659e+002
5.475919e+002,1.283354e+002
5.485561e+002,1.264866e+002
5.495203e+002,1.247526e+002
5.504846e+002,1.224003e+002
5.514488e+002,1.181003e+002
5.524130e+002,1.101068e+002
5.533773e+002,1.044598e+002
5.543415e+002,1.052355e+002
5.553057e+002,1.087684e+002
5.562700e+002,1.116677e+002
5.572342e+002,1.117281e+002
5.581984e+002,1.091937e+002
5.591627e+002,1.038832e+002
5.601269e+002,9.751892e+001
5.610911e+002,9.316797e+001
5.620554e+002,9.234692e+001
5.630196e+002,9.423108e+001
5.639838e+002,9.383801e+001
5.649481e+002,9.009204e+001
5.659123e+002,8.578369e+001
5.668765e+002,8.169080e+001
5.678408e+002,7.830347e+001
5.688050e+002,7.575830e+001
5.697692e+002,7.229700e+001
5.707335e+002,7.029053e+001
5.716977e+002,7.176953e+001
5.726619e+002,7.510938e+001
5.736262e+002,7.839490e+001
5.745904e+002,8.055078e+001
5.755546e+002,8.184180e+001
5.765189e+002,8.237012e+001
5.774831e+002,8.162549e+001
5.784473e+002,7.942468e+001
5.794116e+002,7.595764e+001
5.803758e+002,7.172852e+001
5.813400e+002,6.697083e+001
5.823043e+002,5.945264e+001
5.832685e+002,5.414172e+001
5.842327e+002,5.508093e+001
5.851970e+002,6.150110e+001
5.861612e+002,6.534119e+001
5.871254e+002,6.118860e+001
5.880897e+002,5.808020e+001
5.890539e+002,5.819250e+001
5.900181e+002,6.000610e+001
5.909824e+002,6.109729e+001
5.919466e+002,6.036157e+001
5.929108e+002,5.808533e+001
5.938751e+002,5.361816e+001
5.948393e+002,4.847363e+001
5.958035e+002,4.537000e+001
5.967678e+002,4.633472e+001
5.977320e+002,5.087646e+001
5.986962e+002,5.290527e+001
5.996605e+002,5.170618e+001
6.006247e+002,5.021826e+001
6.015889e+002,5.008923e+001
6.025532e+002,5.124402e+001
6.035174e+002,5.130591e+001
6.044816e+002,5.047375e+001
6.054459e+002,4.829602e+001
6.064101e+002,4.233386e+001
6.073743e+002,3.526208e+001
6.083386e+002,3.230823e+001
6.093028e+002,3.832300e+001
6.102670e+002,4.520178e+001
6.112313e+002,4.657751e+001
6.121955e+002,4.454565e+001
6.131597e+002,4.134167e+001
6.141240e+002,3.855554e+001
6.150882e+002,3.649695e+001
6.160524e+002,3.783691e+001
6.170167e+002,4.227039e+001
6.179809e+002,4.633850e+001
6.189451e+002,4.809521e+001
6.199094e+002,4.747900e+001
6.208736e+002,4.656299e+001
6.218378e+002,4.629944e+001
6.228021e+002,4.602332e+001
6.237663e+002,4.608521e+001
6.247305e+002,4.622119e+001
6.256948e+002,4.567554e+001
6.266590e+002,4.336926e+001
6.276232e+002,4.038269e+001
6.285875e+002,3.824841e+001
6.295517e+002,3.657166e+001
6.305159e+002,3.436145e+001
6.314802e+002,3.098914e+001
6.324444e+002,2.716699e+001
6.334086e+002,2.651392e+001
6.343729e+002,2.844080e+001
6.353371e+002,3.018640e+001
6.363013e+002,3.070276e+001
6.372656e+002,2.990173e+001
6.382298e+002,2.800500e+001
6.391940e+002,2.351794e+001
6.401583e+002,1.931042e+001
6.411225e+002,1.585315e+001
6.420867e+002,1.382385e+001
6.430510e+002,1.387549e+001
6.440152e+002,1.631555e+001
6.449794e+002,1.800366e+001
6.459437e+002,1.753101e+001
6.469079e+002,1.579016e+001
6.478721e+002,1.306018e+001
6.488364e+002,9.868042e+000
6.498006e+002,7.337158e+000
6.507648e+002,7.587280e+000
6.517291e+002,9.526611e+000
6.526933e+002,1.123608e+001
6.536575e+002,1.234436e+001
6.546218e+002,1.279578e+001
6.555860e+002,1.253271e+001
6.565502e+002,1.134412e+001
6.575145e+002,9.420288e+000
6.584787e+002,4.321167e+000
6.594429e+002,5.517578e-001
6.604072e+002,3.431885e+000
6.613714e+002,1.470361e+001
6.623356e+002,2.238550e+001
6.632999e+002,1.600134e+001
6.642641e+002,7.890381e+000
6.652283e+002,5.167847e+000
6.661926e+002,8.255493e+000
6.671568e+002,1.249573e+001
6.681210e+002,1.170398e+001
6.690853e+002,7.839233e+000
6.700495e+002,7.309204e+000
6.710137e+002,1.011365e+001
6.719780e+002,1.384131e+001
6.729422e+002,1.594934e+001
6.739064e+002,1.606323e+001
6.748707e+002,1.492981e+001
6.758349e+002,1.123792e+001
6.767991e+002,7.907715e+000
6.777634e+002,6.723267e+000
6.787276e+002,7.932007e+000
6.796918e+002,1.013464e+001
6.806561e+002,1.310986e+001
6.816203e+002,1.543628e+001
6.825845e+002,1.697021e+001
6.835488e+002,1.746680e+001
6.845130e+002,1.624951e+001
6.854772e+002,1.266101e+001
6.864415e+002,9.009399e+000
6.874057e+002,1.004016e+001
6.883699e+002,1.359155e+001
6.893342e+002,1.593982e+001
6.902984e+002,1.518164e+001
6.912626e+002,1.188757e+001
6.922269e+002,8.630737e+000
6.931911e+002,4.835571e+000
6.941553e+002,3.848022e+000
6.951196e+002,7.125854e+000
6.960838e+002,1.184875e+001
6.970480e+002,1.367688e+001
6.980123e+002,1.050537e+001
6.989765e+002,8.495483e+000
6.999407e+002,1.153064e+001
7.009050e+002,1.536719e+001
7.018692e+002,1.605334e+001
7.028334e+002,1.250488e+001
7.037977e+002,7.784668e+000
7.047619e+002,7.814453e+000
7.057261e+002,1.073608e+001
7.066904e+002,1.141248e+001
7.076546e+002,8.993652e+000
7.086188e+002,5.560181e+000
7.095831e+002,4.432861e+000
7.105473e+002,6.266602e+000
7.115115e+002,7.409180e+000
7.124758e+002,7.299683e+000
7.134400e+002,6.804443e+000
7.144042e+002,6.623169e+000
7.153685e+002,7.028809e+000
7.163327e+002,7.807861e+000
7.172969e+002,9.697998e+000
7.182612e+002,1.130225e+001
7.192254e+002,1.157227e+001
7.201896e+002,1.076062e+001
7.211539e+002,9.584351e+000
7.221181e+002,8.652100e+000
7.230823e+002,8.094238e+000
7.240466e+002,8.284058e+000
7.250108e+002,9.564453e+000
7.259750e+002,1.156348e+001
7.269393e+002,1.377429e+001
7.279035e+002,1.525073e+001
7.288677e+002,1.366809e+001
7.298320e+002,6.064941e+000
7.307962e+002,1.724609e+000
7.317604e+002,3.060669e+000
7.327247e+002,7.431885e+000
7.336889e+002,1.075781e+001
7.346531e+002,1.092029e+001
7.356174e+002,9.662964e+000
7.365816e+002,1.013599e+001
7.375458e+002,1.060742e+001
7.385101e+002,8.816040e+000
7.394743e+002,4.693115e+000
7.404385e+002,7.686768e-001
7.414028e+002,1.033936e+000
7.423670e+002,3.365356e+000
7.433312e+002,3.546875e+000
7.442955e+002,2.166260e+000
7.452597e+002,6.003418e-001
7.462239e+002,-4.841309e-001
7.471882e+002,-1.924805e+000
7.481524e+002,-1.666260e-001
7.491166e+002,5.682007e+000
7.500809e+002,1.123279e+001
7.510451e+002,1.564429e+001
7.520093e+002,1.855420e+001
7.529736e+002,1.930457e+001
7.539378e+002,1.728992e+001
7.549020e+002,1.498474e+001
7.558663e+002,1.339417e+001
7.568306e+002,1.255090e+001
7.577948e+002,1.231433e+001
7.587590e+002,1.238147e+001
7.597233e+002,1.233105e+001
7.606875e+002,1.229297e+001
7.616517e+002,1.272034e+001
7.626160e+002,1.339404e+001
7.635802e+002,1.416284e+001
7.645444e+002,1.553564e+001
7.655087e+002,1.884070e+001
7.664729e+002,2.628674e+001
7.674371e+002,3.004065e+001
7.684014e+002,2.777368e+001
7.693656e+002,2.403662e+001
7.703298e+002,2.141675e+001
7.712941e+002,2.045935e+001
7.722583e+002,2.048718e+001
7.732225e+002,2.185046e+001
7.741868e+002,2.314990e+001
7.751510e+002,2.253882e+001
7.761152e+002,2.094092e+001
7.770795e+002,2.071057e+001
7.780437e+002,2.387427e+001
7.790079e+002,2.962146e+001
7.799722e+002,3.243250e+001
7.809364e+002,3.242371e+001
7.819006e+002,3.132739e+001
7.828649e+002,2.962976e+001
7.838291e+002,2.796948e+001
7.847933e+002,2.749426e+001
7.857576e+002,2.828955e+001
7.867218e+002,2.824756e+001
7.876860e+002,2.769641e+001
7.886503e+002,2.702979e+001
7.896145e+002,2.593372e+001
7.905787e+002,2.452380e+001
7.915430e+002,2.452734e+001
7.925072e+002,2.917761e+001
7.934714e+002,3.429797e+001
7.944357e+002,3.575635e+001
7.953999e+002,3.397888e+001
7.963641e+002,3.147449e+001
7.973284e+002,3.075354e+001
7.982926e+002,3.190137e+001
7.992568e+002,3.404346e+001
8.002211e+002,3.788184e+001
8.011853e+002,3.863904e+001
8.021495e+002,3.360059e+001
8.031138e+002,2.563098e+001
8.040780e+002,2.223218e+001
8.050422e+002,2.605273e+001
8.060065e+002,3.080859e+001
8.069707e+002,3.475830e+001
8.079349e+002,3.753210e+001
8.088992e+002,3.912512e+001
8.098634e+002,3.981335e+001
8.108276e+002,3.993665e+001
8.117919e+002,3.913953e+001
8.127561e+002,3.671375e+001
8.137203e+002,3.316528e+001
8.146846e+002,2.927002e+001
8.156488e+002,2.597681e+001
8.166130e+002,2.388184e+001
8.175773e+002,2.265417e+001
8.185415e+002,2.366113e+001
8.195057e+002,2.819202e+001
8.204700e+002,3.173328e+001
8.214342e+002,3.214880e+001
8.223984e+002,3.045776e+001
8.233627e+002,2.952197e+001
8.243269e+002,3.076306e+001
8.252911e+002,3.255408e+001
8.262554e+002,3.424951e+001
8.272196e+002,3.553833e+001
8.281838e+002,3.591125e+001
8.291481e+002,3.523718e+001
8.301123e+002,3.380493e+001
8.310765e+002,3.167517e+001
8.320408e+002,2.914966e+001
8.330050e+002,3.041260e+001
8.339692e+002,3.711475e+001
8.349335e+002,4.373389e+001
8.358977e+002,4.383081e+001
8.368619e+002,3.640625e+001
8.378262e+002,3.273291e+001
8.387904e+002,3.588318e+001
8.397546e+002,3.859766e+001
8.407189e+002,3.935779e+001
8.416831e+002,3.854004e+001
8.426473e+002,3.651038e+001
8.436116e+002,3.287720e+001
8.445758e+002,3.097314e+001
8.455400e+002,3.506653e+001
8.465043e+002,4.097900e+001
8.474685e+002,4.497302e+001
8.484327e+002,4.648633e+001
8.493970e+002,4.740918e+001
8.503612e+002,5.019910e+001
8.513254e+002,5.517017e+001
8.522897e+002,5.652637e+001
8.532539e+002,5.090137e+001
8.542181e+002,4.562183e+001
8.551824e+002,4.624634e+001
8.561466e+002,5.269543e+001
8.571108e+002,5.896252e+001
8.580751e+002,6.140564e+001
8.590393e+002,6.355188e+001
8.600035e+002,6.843274e+001
8.609678e+002,7.380945e+001
8.619320e+002,7.625415e+001
8.628962e+002,7.455884e+001
8.638605e+002,7.216248e+001
8.648247e+002,7.536804e+001
8.657889e+002,8.139014e+001
8.667532e+002,8.418640e+001
8.677174e+002,8.297424e+001
8.686816e+002,8.082751e+001
8.696459e+002,8.145337e+001
8.706101e+002,8.560925e+001
8.715743e+002,8.952283e+001
8.725386e+002,9.318213e+001
8.735028e+002,9.679187e+001
8.744670e+002,1.001560e+002
8.754313e+002,1.026354e+002
8.763955e+002,1.033093e+002
8.773597e+002,1.015363e+002
8.783240e+002,1.004789e+002
8.792882e+002,1.028934e+002
8.802524e+002,1.060931e+002
8.812167e+002,1.074711e+002
8.821809e+002,1.068741e+002
8.831451e+002,1.064325e+002
8.841094e+002,1.090618e+002
8.850736e+002,1.151621e+002
8.860378e+002,1.212261e+002
8.870021e+002,1.271376e+002
8.879663e+002,1.321329e+002
8.889305e+002,1.354032e+002
8.898948e+002,1.369480e+002
8.908590e+002,1.376890e+002
8.918232e+002,1.374817e+002
8.927875e+002,1.379283e+002
8.937517e+002,1.400225e+002
8.947159e+002,1.424003e+002
8.956802e+002,1.429001e+002
8.966444e+002,1.411381e+002
8.976086e+002,1.396263e+002
8.985729e+002,1.419113e+002
8.995371e+002,1.466578e+002
9.005013e+002,1.512069e+002
9.014656e+002,1.555209e+002
9.024298e+002,1.585962e+002
9.033940e+002,1.590535e+002
9.043583e+002,1.569175e+002
9.053225e+002,1.565461e+002
9.062867e+002,1.600474e+002
9.072510e+002,1.616481e+002
9.082152e+002,1.609390e+002
9.091794e+002,1.599191e+002
9.101437e+002,1.606678e+002
9.111079e+002,1.634670e+002
9.120721e+002,1.655602e+002
9.130364e+002,1.625587e+002
9.140006e+002,1.596642e+002
9.149648e+002,1.621035e+002
9.159291e+002,1.678445e+002
9.168933e+002,1.711768e+002
9.178575e+002,1.678806e+002
9.188218e+002,1.602679e+002
9.197860e+002,1.577435e+002
9.207502e+002,1.601151e+002
9.217145e+002,1.612875e+002
9.226787e+002,1.611385e+002
9.236429e+002,1.599562e+002
9.246072e+002,1.568038e+002
9.255714e+002,1.503669e+002
9.265356e+002,1.462920e+002
9.274999e+002,1.470892e+002
9.284641e+002,1.480746e+002
9.294283e+002,1.492069e+002
9.303926e+002,1.495148e+002
9.313568e+002,1.467776e+002
9.323210e+002,1.395276e+002
9.332853e+002,1.317520e+002
9.342495e+002,1.315045e+002
9.352137e+002,1.346489e+002
9.361780e+002,1.354741e+002
9.371422e+002,1.332202e+002
9.381064e+002,1.305569e+002
9.390707e+002,1.305270e+002
9.400349e+002,1.329622e+002
9.409991e+002,1.345262e+002
9.419634e+002,1.349304e+002
9.429276e+002,1.346556e+002
9.438918e+002,1.333773e+002
9.448561e+002,1.318955e+002
9.458203e+002,1.318011e+002
9.467845e+002,1.340547e+002
9.477488e+002,1.361316e+002
9.487130e+002,1.352919e+002
9.496772e+002,1.337916e+002
9.506415e+002,1.336493e+002
9.516057e+002,1.347177e+002
9.525699e+002,1.352094e+002
9.535342e+002,1.332461e+002
9.544984e+002,1.290414e+002
9.554626e+002,1.268025e+002
9.564269e+002,1.276503e+002
9.573911e+002,1.289691e+002
9.583553e+002,1.297722e+002
9.593196e+002,1.303903e+002
9.602838e+002,1.315568e+002
9.612480e+002,1.333341e+002
9.622123e+002,1.345479e+002
9.631765e+002,1.358994e+002
9.641407e+002,1.360858e+002
9.651050e+002,1.333032e+002
9.660692e+002,1.285234e+002
9.670334e+002,1.238945e+002
9.679977e+002,1.210620e+002
9.689619e+002,1.205079e+002
9.699261e+002,1.227679e+002
9.708904e+002,1.267188e+002
9.718546e+002,1.307343e+002
9.728188e+002,1.338905e+002
9.737831e+002,1.383059e+002
9.747473e+002,1.477660e+002
9.757115e+002,1.637676e+002
9.766758e+002,1.779326e+002
9.776400e+002,1.927026e+002
9.786042e+002,2.037244e+002
9.795685e+002,2.112214e+002
9.805327e+002,2.127328e+002
9.814969e+002,2.036581e+002
9.824612e+002,1.828101e+002
9.834254e+002,1.605571e+002
9.843896e+002,1.451316e+002
9.853539e+002,1.338531e+002
9.863181e+002,1.244260e+002
9.872823e+002,1.163822e+002
9.882466e+002,1.106407e+002
9.892108e+002,1.086967e+002
9.901750e+002,1.108512e+002
9.911393e+002,1.131061e+002
9.921035e+002,1.119308e+002
9.930677e+002,1.133188e+002
9.940320e+002,1.199320e+002
9.949962e+002,1.285631e+002
9.959604e+002,1.362313e+002
9.969247e+002,1.428541e+002
9.978889e+002,1.503235e+002
9.988531e+002,1.591904e+002
9.998174e+002,1.675543e+002
1.000782e+003,1.761815e+002
1.001746e+003,1.840070e+002
1.002710e+003,1.893464e+002
1.003674e+003,1.913654e+002
1.004639e+003,1.904738e+002
1.005603e+003,1.872999e+002
1.006567e+003,1.812969e+002
1.007531e+003,1.746184e+002
1.008495e+003,1.660685e+002
1.009460e+003,1.593212e+002
1.010424e+003,1.580891e+002
1.011388e+003,1.609418e+002
1.012352e+003,1.613635e+002
1.013317e+003,1.571660e+002
1.014281e+003,1.524926e+002
1.015245e+003,1.496132e+002
1.016209e+003,1.455515e+002
1.017174e+003,1.372764e+002
1.018138e+003,1.256700e+002
1.019102e+003,1.147218e+002
1.020066e+003,1.079562e+002
1.021031e+003,1.040656e+002
1.021995e+003,9.796082e+001
1.022959e+003,8.956152e+001
1.023923e+003,8.146204e+001
1.024887e+003,7.439490e+001
1.025852e+003,6.792236e+001
1.026816e+003,6.137988e+001
1.027780e+003,5.487878e+001
1.028744e+003,5.013391e+001
1.029709e+003,4.804919e+001
1.030673e+003,4.651831e+001
1.031637e+003,4.539246e+001
1.032601e+003,4.389514e+001
1.033566e+003,4.057703e+001
1.034530e+003,3.523132e+001
1.035494e+003,3.134741e+001
1.036458e+003,3.372766e+001
1.037422e+003,3.908130e+001
1.038387e+003,4.208423e+001
1.039351e+003,4.250513e+001
1.040315e+003,4.225745e+001
1.041279e+003,4.300269e+001
1.042244e+003,4.461646e+001
1.043208e+003,4.520081e+001
1.044172e+003,4.294897e+001
1.045136e+003,4.157288e+001
1.046101e+003,4.201501e+001
1.047065e+003,4.300879e+001
1.048029e+003,4.384033e+001
1.048993e+003,4.424896e+001
1.049958e+003,4.396143e+001
1.050922e+003,4.264648e+001
1.051886e+003,4.220844e+001
1.052850e+003,4.623108e+001
1.053814e+003,5.123511e+001
1.054779e+003,5.166730e+001
1.055743e+003,4.679211e+001
1.056707e+003,4.141174e+001
1.057671e+003,4.150763e+001
1.058636e+003,4.700537e+001
1.059600e+003,4.904626e+001
1.060564e+003,4.540607e+001
1.061528e+003,4.324731e+001
1.062493e+003,4.404126e+001
1.063457e+003,4.525385e+001
1.064421e+003,4.398132e+001
1.065385e+003,4.022144e+001
1.066349e+003,3.794550e+001
1.067314e+003,4.068701e+001
1.068278e+003,4.377942e+001
1.069242e+003,4.389087e+001
1.070206e+003,4.240405e+001
1.071171e+003,4.123499e+001
1.072135e+003,4.101099e+001
1.073099e+003,4.107520e+001
1.074063e+003,4.081958e+001
1.075028e+003,4.045898e+001
1.075992e+003,3.979578e+001
1.076956e+003,3.787732e+001
1.077920e+003,3.629407e+001
1.078885e+003,3.631714e+001
1.079849e+003,3.760223e+001
1.080813e+003,3.928101e+001
1.081777e+003,4.142480e+001
1.082741e+003,4.346161e+001
1.083706e+003,4.451758e+001
1.084670e+003,4.463953e+001
1.085634e+003,4.333661e+001
1.086598e+003,4.120068e+001
1.087563e+003,3.965002e+001
1.088527e+003,3.964484e+001
1.089491e+003,4.044214e+001
1.090455e+003,3.966199e+001
1.091420e+003,3.662091e+001
1.092384e+003,3.382056e+001
1.093348e+003,2.995691e+001
1.094312e+003,2.772455e+001
1.095276e+003,3.042529e+001
1.096241e+003,3.659949e+001
1.097205e+003,4.065802e+001
1.098169e+003,4.106360e+001
1.099133e+003,4.059949e+001
1.100098e+003,4.050958e+001
1.101062e+003,4.033875e+001
1.102026e+003,3.922156e+001
1.102990e+003,3.789532e+001
1.103955e+003,3.801587e+001
1.104919e+003,4.044482e+001
1.105883e+003,4.384540e+001
1.106847e+003,4.575598e+001
1.107812e+003,4.600073e+001
1.108776e+003,4.556195e+001
1.109740e+003,4.366760e+001
1.110704e+003,4.279407e+001
1.111668e+003,4.577087e+001
1.112633e+003,5.205652e+001
1.113597e+003,5.778235e+001
1.114561e+003,6.235583e+001
1.115525e+003,6.565833e+001
1.116490e+003,6.768530e+001
1.117454e+003,6.850415e+001
1.118418e+003,6.725073e+001
1.119382e+003,6.554944e+001
1.120347e+003,6.644531e+001
1.121311e+003,7.132983e+001
1.122275e+003,7.733502e+001
1.123239e+003,7.983386e+001
1.124203e+003,7.996155e+001
1.125168e+003,8.291022e+001
1.126132e+003,9.021985e+001
1.127096e+003,9.782178e+001
1.128060e+003,1.020939e+002
1.129025e+003,1.035295e+002
1.129989e+003,1.054015e+002
1.130953e+003,1.077697e+002
1.131917e+003,1.103141e+002
1.132882e+003,1.133204e+002
1.133846e+003,1.165854e+002
1.134810e+003,1.193368e+002
1.135774e+003,1.224166e+002
1.136739e+003,1.275444e+002
1.137703e+003,1.356213e+002
1.138667e+003,1.454935e+002
1.139631e+003,1.550469e+002
1.140595e+003,1.646393e+002
1.141560e+003,1.779529e+002
1.142524e+003,1.961965e+002
1.143488e+003,2.162009e+002
1.144452e+003,2.336306e+002
1.145417e+003,2.508177e+002
1.146381e+003,2.766360e+002
1.147345e+003,3.131232e+002
1.148309e+003,3.533807e+002
1.149274e+003,3.994170e+002
1.150238e+003,4.453046e+002
1.151202e+003,4.906577e+002
1.152166e+003,5.336621e+002
1.153130e+003,5.725479e+002
1.154095e+003,6.055563e+002
1.155059e+003,6.294330e+002
1.156023e+003,6.411428e+002
1.156987e+003,6.395776e+002
1.157952e+003,6.231715e+002
1.158916e+003,5.914510e+002
1.159880e+003,5.556307e+002
1.160844e+003,5.182168e+002
1.161809e+003,4.793822e+002
1.162773e+003,4.418372e+002
1.163737e+003,4.058999e+002
1.164701e+003,3.699321e+002
1.165666e+003,3.312511e+002
1.166630e+003,2.958900e+002
1.167594e+003,2.651790e+002
1.168558e+003,2.393961e+002
1.169522e+003,2.186907e+002
1.170487e+003,2.030978e+002
1.171451e+003,1.933005e+002
1.172415e+003,1.905198e+002
1.173379e+003,1.932730e+002
1.174344e+003,1.948326e+002
1.175308e+003,1.955823e+002
1.176272e+003,1.947282e+002
1.177236e+003,1.919996e+002
1.178201e+003,1.879546e+002
1.179165e+003,1.827525e+002
1.180129e+003,1.759414e+002
1.181093e+003,1.680607e+002
1.182057e+003,1.577625e+002
1.183022e+003,1.493027e+002
1.183986e+003,1.444413e+002
1.184950e+003,1.418094e+002
1.185914e+003,1.399919e+002
1.186879e+003,1.391398e+002
1.187843e+003,1.411898e+002
1.188807e+003,1.476790e+002
1.189771e+003,1.559447e+002
1.190736e+003,1.582337e+002
1.191700e+003,1.537749e+002
1.192664e+003,1.502517e+002
1.193628e+003,1.490941e+002
1.194593e+003,1.486843e+002
1.195557e+003,1.487325e+002
1.196521e+003,1.484539e+002
1.197485e+003,1.450422e+002
1.198449e+003,1.373816e+002
1.199414e+003,1.291509e+002
1.200378e+003,1.209153e+002
1.201342e+003,1.137477e+002
1.202306e+003,1.085087e+002
1.203271e+003,1.045718e+002
1.204235e+003,1.010601e+002
1.205199e+003,9.753821e+001
1.206163e+003,9.379626e+001
1.207128e+003,8.936438e+001
1.208092e+003,8.429736e+001
1.209056e+003,7.780090e+001
1.210020e+003,6.853290e+001
1.210984e+003,6.080408e+001
1.211949e+003,5.830017e+001
1.212913e+003,5.620245e+001
1.213877e+003,4.744031e+001
1.214841e+003,3.194257e+001
1.215806e+003,1.794543e+001
1.216770e+003,7.889099e+000
1.217734e+003,1.177307e+000
1.218698e+003,-1.674866e+000
1.219663e+003,-3.170776e+000
1.220627e+003,-6.157837e+000
1.221591e+003,-1.114703e+001
1.222555e+003,-1.725372e+001
1.223520e+003,-2.365662e+001
1.224484e+003,-2.968536e+001
1.225448e+003,-3.318140e+001
1.226412e+003,-3.341443e+001
1.227376e+003,-3.258044e+001
1.228341e+003,-3.038617e+001
1.229305e+003,-2.786163e+001
1.230269e+003,-2.438226e+001
1.231233e+003,-2.135577e+001
1.232198e+003,-2.185657e+001
1.233162e+003,-2.661902e+001
1.234126e+003,-3.151947e+001
1.235090e+003,-3.492041e+001
1.236055e+003,-3.631793e+001
1.237019e+003,-3.350958e+001
1.237983e+003,-2.859613e+001
1.238947e+003,-2.709271e+001
1.239911e+003,-3.100061e+001
1.240876e+003,-3.605078e+001
1.241840e+003,-3.586304e+001
1.242804e+003,-2.999542e+001
1.243768e+003,-2.656598e+001
1.244733e+003,-2.813232e+001
1.245697e+003,-2.883319e+001
1.246661e+003,-2.843530e+001
1.247625e+003,-2.779272e+001
1.248590e+003,-2.747876e+001
1.249554e+003,-2.688977e+001
1.250518e+003,-2.482770e+001
1.251482e+003,-2.094537e+001
1.252447e+003,-1.646625e+001
1.253411e+003,-1.150763e+001
1.254375e+003,-6.944275e+000
1.255339e+003,-5.865234e+000
1.256303e+003,-7.943848e+000
1.257268e+003,-8.474182e+000
1.258232e+003,-4.813110e+000
1.259196e+003,7.867432e-001
1.260160e+003,4.502686e+000
1.261125e+003,6.381348e+000
1.262089e+003,8.796143e+000
1.263053e+003,1.142645e+001
1.264017e+003,1.436334e+001
1.264982e+003,1.934485e+001
1.265946e+003,2.377380e+001
1.266910e+003,2.505304e+001
1.267874e+003,2.329498e+001
1.268839e+003,2.014874e+001
1.269803e+003,1.670441e+001
1.270767e+003,1.356506e+001
1.271731e+003,1.248456e+001
1.272695e+003,1.346216e+001
1.273660e+003,1.122418e+001
1.274624e+003,3.219421e+000
1.275588e+003,-3.625732e+000
1.276552e+003,-3.719482e+000
1.277517e+003,-1.477051e-001
1.278481e+003,8.348999e-001
1.279445e+003,-1.357727e+000
1.280409e+003,-4.773010e+000
1.281374e+003,-1.031732e+001
1.282338e+003,-1.469507e+001
1.283302e+003,-1.594446e+001
1.284266e+003,-1.551868e+001
1.285230e+003,-1.414447e+001
1.286195e+003,-1.279059e+001
1.287159e+003,-1.356573e+001
1.288123e+003,-1.802686e+001
1.289087e+003,-2.418970e+001
1.290052e+003,-2.683264e+001
1.291016e+003,-2.510211e+001
1.291980e+003,-2.405823e+001
1.292944e+003,-2.479865e+001
1.293909e+003,-2.559363e+001
1.294873e+003,-2.479626e+001
1.295837e+003,-2.347089e+001
1.296801e+003,-2.354675e+001
1.297766e+003,-2.515491e+001
1.298730e+003,-2.652820e+001
1.299694e+003,-2.698883e+001
1.300658e+003,-2.714935e+001
1.301622e+003,-2.721722e+001
1.302587e+003,-2.722412e+001
1.303551e+003,-2.783307e+001
1.304515e+003,-2.882892e+001
1.305479e+003,-2.837781e+001
1.306444e+003,-2.483276e+001
1.307408e+003,-1.973029e+001
1.308372e+003,-1.780048e+001
1.309336e+003,-2.020422e+001
1.310301e+003,-2.237207e+001
1.311265e+003,-2.474329e+001
1.312229e+003,-2.548572e+001
1.313193e+003,-2.238763e+001
1.314157e+003,-1.868842e+001
1.315122e+003,-1.845111e+001
1.316086e+003,-2.156287e+001
1.317050e+003,-2.400720e+001
1.318014e+003,-2.284058e+001
1.318979e+003,-2.036993e+001
1.319943e+003,-2.159558e+001
1.320907e+003,-2.566632e+001
1.321871e+003,-2.655286e+001
1.322836e+003,-2.380951e+001
1.323800e+003,-2.091217e+001
1.324764e+003,-1.954688e+001
1.325728e+003,-1.905829e+001
1.326693e+003,-1.851764e+001
1.327657e+003,-1.814612e+001
1.328621e+003,-1.848212e+001
1.329585e+003,-1.887628e+001
1.330549e+003,-1.867999e+001
1.331514e+003,-1.872119e+001
1.332478e+003,-1.919257e+001
1.333442e+003,-2.005798e+001
1.334406e+003,-2.089917e+001
1.335371e+003,-2.105676e+001
1.336335e+003,-2.017365e+001
1.337299e+003,-1.873676e+001
1.338263e+003,-1.782593e+001
1.339228e+003,-1.748932e+001
1.340192e+003,-1.703674e+001
1.341156e+003,-1.603094e+001
1.342120e+003,-1.559534e+001
1.343084e+003,-1.670319e+001
1.344049e+003,-1.854242e+001
1.345013e+003,-2.062146e+001
1.345977e+003,-2.217712e+001
1.346941e+003,-2.196210e+001
1.347906e+003,-1.953094e+001
1.348870e+003,-1.585309e+001
1.349834e+003,-1.079248e+001
1.350798e+003,-6.311768e+000
1.351763e+003,-5.646729e+000
1.352727e+003,-8.189392e+000
1.353691e+003,-1.107367e+001
1.354655e+003,-1.328125e+001
1.355620e+003,-1.524213e+001
1.356584e+003,-1.810809e+001
1.357548e+003,-2.133649e+001
1.358512e+003,-2.080267e+001
1.359476e+003,-1.473779e+001
1.360441e+003,-1.082745e+001
1.361405e+003,-1.129193e+001
1.362369e+003,-1.345953e+001
1.363333e+003,-1.795447e+001
1.364298e+003,-2.239697e+001
1.365262e+003,-2.333881e+001
1.366226e+003,-2.038110e+001
1.367190e+003,-1.618445e+001
1.368155e+003,-1.307141e+001
1.369119e+003,-1.122345e+001
1.370083e+003,-1.137970e+001
1.371047e+003,-1.440167e+001
1.372011e+003,-1.436682e+001
1.372976e+003,-8.425171e+000
1.373940e+003,-4.348999e+000
1.374904e+003,-6.604797e+000
1.375868e+003,-1.081866e+001
1.376833e+003,-1.120679e+001
1.377797e+003,-7.897583e+000
1.378761e+003,-5.773865e+000
1.379725e+003,-7.255920e+000
1.380690e+003,-8.845886e+000
1.381654e+003,-5.513855e+000
1.382618e+003,-5.613403e-001
1.383582e+003,9.094238e-001
1.384547e+003,-9.497070e-001
1.385511e+003,-2.583984e+000
1.386475e+003,-2.421631e+000
1.387439e+003,-1.296692e+000
1.388403e+003,3.625488e-002
1.389368e+003,1.522705e+000
1.390332e+003,1.562317e+000
1.391296e+003,-7.128906e-001
1.392260e+003,-2.107788e+000
1.393225e+003,-1.529541e-001
1.394189e+003,7.239380e-001
1.395153e+003,-3.665405e+000
1.396117e+003,-1.004980e+001
1.397082e+003,-1.316931e+001
1.398046e+003,-1.164960e+001
1.399010e+003,-7.961121e+000
1.399974e+003,-4.547791e+000
1.400938e+003,-2.275574e+000
1.401903e+003,-2.575989e+000
1.402867e+003,-5.256836e+000
1.403831e+003,-5.503479e+000
1.404795e+003,-2.109253e+000
1.405760e+003,7.800903e-001
1.406724e+003,3.666382e-001
1.407688e+003,-1.899597e+000
1.408652e+003,-3.734924e+000
1.409617e+003,-4.390320e+000
1.410581e+003,-3.939575e+000
1.411545e+003,-2.342712e+000
1.412509e+003,-8.587646e-002
1.413474e+003,2.945679e+000
1.414438e+003,5.086487e+000
1.415402e+003,3.586670e+000
1.416366e+003,-4.002686e-001
1.417330e+003,-1.863037e+000
1.418295e+003,1.748718e+000
1.419259e+003,6.270264e+000
1.420223e+003,6.096252e+000
1.421187e+003,1.855042e+000
1.422152e+003,-7.255859e-001
1.423116e+003,-9.882813e-001
1.424080e+003,4.459839e-001
1.425044e+003,4.589783e+000
1.426009e+003,8.227295e+000
1.426973e+003,8.986816e+000
1.427937e+003,9.075867e+000
1.428901e+003,1.242493e+001
1.429865e+003,1.849182e+001
1.430830e+003,2.217889e+001
1.431794e+003,1.997748e+001
1.432758e+003,1.476587e+001
1.433722e+003,1.277142e+001
1.434687e+003,1.480432e+001
1.435651e+003,1.856409e+001
1.436615e+003,2.315894e+001
1.437579e+003,2.758533e+001
1.438544e+003,3.276447e+001
1.439508e+003,3.712891e+001
1.440472e+003,4.034509e+001
1.441436e+003,4.235571e+001
1.442401e+003,4.231763e+001
1.443365e+003,4.012659e+001
1.444329e+003,3.772583e+001
1.445293e+003,3.670953e+001
1.446257e+003,3.646826e+001
1.447222e+003,3.525482e+001
1.448186e+003,3.338434e+001
1.449150e+003,3.349615e+001
1.450114e+003,3.644073e+001
1.451079e+003,3.813715e+001
1.452043e+003,3.632416e+001
1.453007e+003,3.289166e+001
1.453971e+003,2.939777e+001
1.454936e+003,2.592188e+001
1.455900e+003,2.416235e+001
1.456864e+003,2.480090e+001
1.457828e+003,2.699139e+001
1.458792e+003,3.218774e+001
1.459757e+003,3.633667e+001
1.460721e+003,3.502722e+001
1.461685e+003,3.043091e+001
1.462649e+003,2.737952e+001
1.463614e+003,2.724768e+001
1.464578e+003,2.754083e+001
1.465542e+003,2.576703e+001
1.466506e+003,2.272351e+001
1.467471e+003,2.118030e+001
1.468435e+003,2.163776e+001
1.469399e+003,2.388116e+001
1.470363e+003,2.921747e+001
1.471328e+003,3.329999e+001
1.472292e+003,3.388971e+001
1.473256e+003,3.322882e+001
1.474220e+003,3.376184e+001
1.475184e+003,3.517413e+001
1.476149e+003,3.513495e+001
1.477113e+003,3.310437e+001
1.478077e+003,3.225262e+001
1.479041e+003,3.614648e+001
1.480006e+003,4.323926e+001
1.480970e+003,4.728198e+001
1.481934e+003,4.689539e+001
1.482898e+003,4.694037e+001
1.483863e+003,4.662927e+001
1.484827e+003,4.756226e+001
1.485791e+003,5.170172e+001
1.486755e+003,5.673981e+001
1.487719e+003,5.980511e+001
1.488684e+003,6.150104e+001
1.489648e+003,6.455835e+001
1.490612e+003,7.008435e+001
1.491576e+003,7.678705e+001
1.492541e+003,8.344403e+001
1.493505e+003,9.031055e+001
1.494469e+003,9.843481e+001
1.495433e+003,1.070473e+002
1.496398e+003,1.145648e+002
1.497362e+003,1.210938e+002
1.498326e+003,1.282550e+002
1.499290e+003,1.360400e+002
1.500255e+003,1.453289e+002
1.501219e+003,1.574294e+002
1.502183e+003,1.719245e+002
1.503147e+003,1.867335e+002
1.504111e+003,2.009236e+002
1.505076e+003,2.177994e+002
1.506040e+003,2.393586e+002
1.507004e+003,2.649415e+002
1.507968e+003,2.939591e+002
1.508933e+003,3.259846e+002
1.509897e+003,3.602335e+002
1.510861e+003,3.974194e+002
1.511825e+003,4.381144e+002
1.512790e+003,4.825516e+002
1.513754e+003,5.293984e+002
1.514718e+003,5.774497e+002
1.515682e+003,6.261004e+002
1.516646e+003,6.741930e+002
1.517611e+003,7.246927e+002
1.518575e+003,7.687286e+002
1.519539e+003,8.049191e+002
1.520503e+003,8.336674e+002
1.521468e+003,8.555599e+002
1.522432e+003,8.691973e+002
1.523396e+003,8.723522e+002
1.524360e+003,8.651520e+002
1.525325e+003,8.500712e+002
1.526289e+003,8.289335e+002
1.527253e+003,8.013891e+002
1.528217e+003,7.660482e+002
1.529182e+003,7.233451e+002
1.530146e+003,6.774448e+002
1.531110e+003,6.276158e+002
1.532074e+003,5.744298e+002
1.533039e+003,5.150745e+002
1.534003e+003,4.539200e+002
1.534967e+003,3.900959e+002
1.535931e+003,3.296152e+002
1.536896e+003,2.777385e+002
1.537860e+003,2.355693e+002
1.538824e+003,2.029063e+002
1.539788e+003,1.789666e+002
1.540752e+003,1.597334e+002
1.541717e+003,1.401752e+002
1.542681e+003,1.212345e+002
1.543645e+003,1.067505e+002
1.544609e+003,9.841333e+001
1.545573e+003,9.217133e+001
1.546538e+003,8.765063e+001
1.547502e+003,8.419708e+001
1.548466e+003,8.184387e+001
1.549430e+003,8.147058e+001
1.550395e+003,8.515820e+001
1.551359e+003,9.083203e+001
1.552323e+003,9.355090e+001
1.553287e+003,9.165881e+001
1.554252e+003,8.679468e+001
1.555216e+003,7.986768e+001
1.556180e+003,7.208972e+001
1.557144e+003,6.613605e+001
1.558109e+003,6.231793e+001
1.559073e+003,6.072095e+001
1.560037e+003,6.199158e+001
1.561001e+003,6.251569e+001
1.561966e+003,6.137476e+001
1.562930e+003,6.009314e+001
1.563894e+003,5.947913e+001
1.564858e+003,5.936554e+001
1.565823e+003,5.992773e+001
1.566787e+003,6.101440e+001
1.567751e+003,6.070258e+001
1.568715e+003,5.757941e+001
1.569679e+003,5.426099e+001
1.570644e+003,5.375598e+001
1.571608e+003,5.521985e+001
1.572572e+003,5.683984e+001
1.573536e+003,5.885687e+001
1.574500e+003,6.258325e+001
1.575465e+003,7.032373e+001
1.576429e+003,7.652844e+001
1.577393e+003,7.451227e+001
1.578357e+003,6.840906e+001
1.579322e+003,6.706390e+001
1.580286e+003,7.088922e+001
1.581250e+003,7.451343e+001
1.582214e+003,7.658026e+001
1.583179e+003,7.694952e+001
1.584143e+003,7.371454e+001
1.585107e+003,6.983118e+001
1.586071e+003,6.989722e+001
1.587036e+003,7.352692e+001
1.588000e+003,7.843768e+001
1.588964e+003,8.398602e+001
1.589928e+003,8.770386e+001
1.590893e+003,8.698309e+001
1.591857e+003,8.462585e+001
1.592821e+003,8.514679e+001
1.593785e+003,8.804517e+001
1.594750e+003,8.985522e+001
1.595714e+003,8.985620e+001
1.596678e+003,8.911078e+001
1.597642e+003,8.709222e+001
1.598606e+003,8.601392e+001
1.599571e+003,8.803333e+001
1.600535e+003,9.199969e+001
1.601499e+003,9.723871e+001
1.602463e+003,1.029286e+002
1.603427e+003,1.064399e+002
1.604392e+003,1.066122e+002
1.605356e+003,1.055786e+002
1.606320e+003,1.052720e+002
1.607284e+003,1.055582e+002
1.608249e+003,1.063480e+002
1.609213e+003,1.077059e+002
1.610177e+003,1.071322e+002
1.611141e+003,1.030149e+002
1.612106e+003,9.999591e+001
1.613070e+003,1.020374e+002
1.614034e+003,1.043107e+002
1.614998e+003,1.025595e+002
1.615963e+003,9.897839e+001
1.616927e+003,9.690857e+001
1.617891e+003,9.700635e+001
1.618855e+003,9.949377e+001
1.619820e+003,1.048348e+002
1.620784e+003,1.094266e+002
1.621748e+003,1.073911e+002
1.622712e+003,1.009792e+002
1.623677e+003,1.011840e+002
1.624641e+003,1.097337e+002
1.625605e+003,1.153684e+002
1.626569e+003,1.129991e+002
1.627533e+003,1.094160e+002
1.628498e+003,1.076216e+002
1.629462e+003,1.074324e+002
1.630426e+003,1.095993e+002
1.631390e+003,1.127690e+002
1.632354e+003,1.144326e+002
1.633319e+003,1.139225e+002
1.634283e+003,1.119329e+002
1.635247e+003,1.085642e+002
1.636211e+003,1.049819e+002
1.637176e+003,1.035759e+002
1.638140e+003,1.044526e+002
1.639104e+003,1.061847e+002
1.640068e+003,1.090513e+002
1.641033e+003,1.106387e+002
1.641997e+003,1.099066e+002
1.642961e+003,1.088856e+002
1.643925e+003,1.080114e+002
1.644890e+003,1.077144e+002
1.645854e+003,1.082984e+002
1.646818e+003,1.096855e+002
1.647782e+003,1.124096e+002
1.648747e+003,1.163248e+002
1.649711e+003,1.183399e+002
1.650675e+003,1.156833e+002
1.651639e+003,1.109974e+002
1.652604e+003,1.092336e+002
1.653568e+003,1.100175e+002
1.654532e+003,1.103783e+002
1.655496e+003,1.102275e+002
1.656460e+003,1.095227e+002
1.657425e+003,1.087809e+002
1.658389e+003,1.071083e+002
1.659353e+003,1.034609e+002
1.660317e+003,9.907196e+001
1.661281e+003,9.455811e+001
1.662246e+003,9.039679e+001
1.663210e+003,8.797388e+001
1.664174e+003,8.783240e+001
1.665138e+003,8.844775e+001
1.666103e+003,8.858960e+001
1.667067e+003,8.792670e+001
1.668031e+003,8.554370e+001
1.668995e+003,8.177826e+001
1.669960e+003,8.016571e+001
1.670924e+003,8.178809e+001
1.671888e+003,8.256012e+001
1.672852e+003,8.034241e+001
1.673817e+003,7.773566e+001
1.674781e+003,7.615814e+001
1.675745e+003,7.517255e+001
1.676709e+003,7.481226e+001
1.677674e+003,7.455914e+001
1.678638e+003,7.269794e+001
1.679602e+003,6.875085e+001
1.680566e+003,6.531854e+001
1.681531e+003,6.495471e+001
1.682495e+003,6.615710e+001
1.683459e+003,6.595837e+001
1.684423e+003,6.430524e+001
1.685387e+003,6.259521e+001
1.686352e+003,6.118231e+001
1.687316e+003,5.890906e+001
1.688280e+003,5.456122e+001
1.689244e+003,5.080505e+001
1.690208e+003,5.069147e+001
1.691173e+003,5.125507e+001
1.692137e+003,4.870331e+001
1.693101e+003,4.448920e+001
1.694065e+003,4.316296e+001
1.695030e+003,4.558783e+001
1.695994e+003,4.668237e+001
1.696958e+003,4.214948e+001
1.697922e+003,3.661151e+001
1.698887e+003,3.633368e+001
1.699851e+003,3.978876e+001
1.700815e+003,4.238080e+001
1.701779e+003,4.345227e+001
1.702744e+003,4.212750e+001
1.703708e+003,3.773767e+001
1.704672e+003,3.461237e+001
1.705636e+003,3.650494e+001
1.706601e+003,3.955811e+001
1.707565e+003,3.825195e+001
1.708529e+003,3.422748e+001
1.709493e+003,3.185602e+001
1.710458e+003,3.180365e+001
1.711422e+003,3.110193e+001
1.712386e+003,2.772803e+001
1.713350e+003,2.492346e+001
1.714314e+003,2.516437e+001
1.715279e+003,2.693622e+001
1.716243e+003,2.846619e+001
1.717207e+003,2.953387e+001
1.718171e+003,2.993933e+001
1.719135e+003,2.972260e+001
1.720100e+003,2.871698e+001
1.721064e+003,2.624774e+001
1.722028e+003,2.400629e+001
1.722992e+003,2.572614e+001
1.723957e+003,3.053137e+001
1.724921e+003,3.042249e+001
1.725885e+003,2.374182e+001
1.726849e+003,1.850714e+001
1.727814e+003,1.774542e+001
1.728778e+003,1.775708e+001
1.729742e+003,1.668695e+001
1.730706e+003,1.561621e+001
1.731671e+003,1.532214e+001
1.732635e+003,1.519263e+001
1.733599e+003,1.514935e+001
1.734563e+003,1.524243e+001
1.735528e+003,1.379041e+001
1.736492e+003,9.732666e+000
1.737456e+003,6.221069e+000
1.738420e+003,7.176941e+000
1.739385e+003,1.098163e+001
1.740349e+003,1.285626e+001
1.741313e+003,1.261755e+001
1.742277e+003,1.293365e+001
1.743241e+003,1.577527e+001
1.744206e+003,1.676636e+001
1.745170e+003,1.353101e+001
1.746134e+003,9.982056e+000
1.747098e+003,8.170715e+000
1.748063e+003,7.218201e+000
1.749027e+003,6.065979e+000
1.749991e+003,4.773376e+000
1.750955e+003,3.860535e+000
1.751919e+003,3.403687e+000
1.752884e+003,2.862915e+000
1.753848e+003,1.764954e+000
1.754812e+003,9.400635e-001
1.755776e+003,2.641785e+000
1.756741e+003,7.083862e+000
1.757705e+003,9.348145e+000
1.758669e+003,8.222412e+000
1.759633e+003,7.488953e+000
1.760598e+003,7.612244e+000
1.761562e+003,7.389893e+000
1.762526e+003,7.312073e+000
1.763490e+003,6.703186e+000
1.764455e+003,4.033020e+000
1.765419e+003,1.150146e+000
1.766383e+003,8.457031e-001
1.767347e+003,2.959961e+000
1.768312e+003,5.576599e+000
1.769276e+003,7.720276e+000
1.770240e+003,8.488037e+000
1.771204e+003,6.894043e+000
1.772168e+003,4.525940e+000
1.773133e+003,4.617188e+000
1.774097e+003,6.780334e+000
1.775061e+003,6.902954e+000
1.776025e+003,3.795227e+000
1.776990e+003,1.498962e+000
1.777954e+003,1.939453e+000
1.778918e+003,3.562134e+000
1.779882e+003,5.653503e+000
1.780846e+003,7.214478e+000
1.781811e+003,7.200867e+000
1.782775e+003,6.056641e+000
1.783739e+003,4.809570e+000
1.784703e+003,3.694275e+000
1.785668e+003,3.002380e+000
1.786632e+003,2.762085e+000
1.787596e+003,2.118835e+000
1.788560e+003,1.302490e-001
1.789525e+003,-1.358887e+000
1.790489e+003,-1.988525e-001
1.791453e+003,3.065186e+000
1.792417e+003,7.970337e+000
1.793382e+003,1.387152e+001
1.794346e+003,1.622723e+001
1.795310e+003,1.235431e+001
1.796274e+003,6.652222e+000
1.797239e+003,4.186279e+000
1.798203e+003,4.816162e+000
1.799167e+003,6.831116e+000
1.800131e+003,9.850525e+000
1.801095e+003,1.108551e+001
1.802060e+003,1.120319e+001
1.803024e+003,1.023822e+001
1.803988e+003,6.059509e+000
1.804952e+003,2.847900e+000
1.805917e+003,3.037842e+000
1.806881e+003,4.727539e+000
1.807845e+003,6.488220e+000
1.808809e+003,8.157166e+000
1.809773e+003,1.042694e+001
1.810738e+003,1.291376e+001
1.811702e+003,1.305865e+001
1.812666e+003,9.318787e+000
1.813630e+003,4.957764e+000
1.814595e+003,4.591003e+000
1.815559e+003,6.882751e+000
1.816523e+003,6.475037e+000
1.817487e+003,3.054810e+000
1.818452e+003,1.690918e+000
1.819416e+003,3.520996e+000
1.820380e+003,5.989136e+000
1.821344e+003,9.117065e+000
1.822309e+003,1.089709e+001
1.823273e+003,9.475830e+000
1.824237e+003,7.316284e+000
1.825201e+003,5.964233e+000
1.826166e+003,5.754517e+000
1.827130e+003,8.190796e+000
1.828094e+003,1.323267e+001
1.829058e+003,1.636902e+001
1.830022e+003,1.541223e+001
1.830987e+003,1.273059e+001
1.831951e+003,8.892212e+000
1.832915e+003,5.539001e+000
1.833879e+003,5.985352e+000
1.834844e+003,8.814819e+000
1.835808e+003,9.098328e+000
1.836772e+003,6.438416e+000
1.837736e+003,4.741943e+000
1.838700e+003,5.534485e+000
1.839665e+003,7.234497e+000
1.840629e+003,8.807983e+000
1.841593e+003,9.902039e+000
1.842557e+003,9.263367e+000
1.843522e+003,6.908203e+000
1.844486e+003,5.753723e+000
1.845450e+003,6.059570e+000
1.846414e+003,8.182434e+000
1.847379e+003,1.472827e+001
1.848343e+003,1.815210e+001
1.849307e+003,1.373608e+001
1.850271e+003,8.547852e+000
1.851236e+003,8.171143e+000
1.852200e+003,1.032117e+001
1.853164e+003,1.101178e+001
1.854128e+003,9.722290e+000
1.855093e+003,8.222595e+000
1.856057e+003,7.560791e+000
1.857021e+003,7.269531e+000
1.857985e+003,6.624878e+000
1.858949e+003,6.405701e+000
1.859914e+003,9.054443e+000
1.860878e+003,1.372046e+001
1.861842e+003,1.395618e+001
1.862806e+003,9.425964e+000
1.863771e+003,9.008301e+000
1.864735e+003,1.523981e+001
1.865699e+003,1.967157e+001
1.866663e+003,1.789423e+001
1.867627e+003,1.541315e+001
1.868592e+003,1.769421e+001
1.869556e+003,2.133179e+001
1.870520e+003,1.970038e+001
1.871484e+003,1.378796e+001
1.872449e+003,1.087250e+001
1.873413e+003,1.381714e+001
1.874377e+003,1.578912e+001
1.875341e+003,1.099353e+001
1.876306e+003,7.805603e+000
1.877270e+003,1.309894e+001
1.878234e+003,1.968689e+001
1.879198e+003,1.994928e+001
1.880163e+003,1.643713e+001
1.881127e+003,1.454395e+001
1.882091e+003,1.502631e+001
1.883055e+003,1.589600e+001
1.884020e+003,1.621875e+001
1.884984e+003,1.639984e+001
1.885948e+003,1.682715e+001
1.886912e+003,1.744556e+001
1.887876e+003,1.814386e+001
1.888841e+003,1.900659e+001
1.889805e+003,2.065314e+001
1.890769e+003,2.333344e+001
1.891733e+003,2.566968e+001
1.892698e+003,2.820325e+001
1.893662e+003,2.780011e+001
1.894626e+003,2.029962e+001
1.895590e+003,1.392682e+001
1.896554e+003,1.654047e+001
1.897519e+003,2.219293e+001
1.898483e+003,2.306171e+001
1.899447e+003,2.013361e+001
1.900411e+003,1.886841e+001
1.901376e+003,2.031659e+001
1.902340e+003,2.281555e+001
1.903304e+003,2.697229e+001
1.904268e+003,2.994214e+001
1.905233e+003,2.984888e+001
1.906197e+003,2.818286e+001
1.907161e+003,2.500012e+001
1.908125e+003,2.229395e+001
1.909090e+003,2.391809e+001
1.910054e+003,2.883722e+001
1.911018e+003,3.240552e+001
1.911982e+003,3.329828e+001
1.912947e+003,3.387805e+001
1.913911e+003,3.577954e+001
1.914875e+003,3.764642e+001
1.915839e+003,3.717444e+001
1.916803e+003,3.451642e+001
1.917768e+003,3.157806e+001
1.918732e+003,2.813190e+001
1.919696e+003,2.804150e+001
1.920660e+003,3.343323e+001
1.921625e+003,3.682648e+001
1.922589e+003,3.513422e+001
1.923553e+003,3.304724e+001
1.924517e+003,3.337714e+001
1.925481e+003,3.415997e+001
1.926446e+003,3.316541e+001
1.927410e+003,3.159998e+001
1.928374e+003,3.248218e+001
1.929338e+003,3.541736e+001
1.930303e+003,3.547009e+001
1.931267e+003,3.068079e+001
1.932231e+003,2.724219e+001
1.933195e+003,2.776007e+001
1.934160e+003,2.990198e+001
1.935124e+003,3.337799e+001
1.936088e+003,3.616724e+001
1.937052e+003,3.570123e+001
1.938017e+003,3.331940e+001
1.938981e+003,3.147577e+001
1.939945e+003,3.076471e+001
1.940909e+003,3.114398e+001
1.941874e+003,3.239886e+001
1.942838e+003,3.384674e+001
1.943802e+003,3.524811e+001
1.944766e+003,3.629419e+001
1.945730e+003,3.507898e+001
1.946695e+003,3.193713e+001
1.947659e+003,3.241309e+001
1.948623e+003,3.689630e+001
1.949587e+003,3.921301e+001
1.950552e+003,3.832281e+001
1.951516e+003,3.776685e+001
1.952480e+003,3.876447e+001
1.953444e+003,4.022723e+001
1.954408e+003,4.169220e+001
1.955373e+003,4.244397e+001
1.956337e+003,4.161566e+001
1.957301e+003,4.000989e+001
1.958265e+003,3.895789e+001
1.959230e+003,3.854547e+001
1.960194e+003,3.870673e+001
1.961158e+003,3.853223e+001
1.962122e+003,3.901697e+001
1.963087e+003,4.204944e+001
1.964051e+003,4.402667e+001
1.965015e+003,4.160394e+001
1.965979e+003,3.897351e+001
1.966944e+003,4.097235e+001
1.967908e+003,4.508545e+001
1.968872e+003,4.607050e+001
1.969836e+003,4.389740e+001
1.970801e+003,4.268951e+001
1.971765e+003,4.418884e+001
1.972729e+003,4.604773e+001
1.973693e+003,4.615967e+001
1.974657e+003,4.577783e+001
1.975622e+003,4.670081e+001
1.976586e+003,4.837231e+001
1.977550e+003,4.989209e+001
1.978514e+003,5.130194e+001
1.979479e+003,5.202423e+001
1.980443e+003,5.197906e+001
1.981407e+003,5.306512e+001
1.982371e+003,5.626746e+001
1.983335e+003,5.811792e+001
1.984300e+003,5.544293e+001
1.985264e+003,5.147742e+001
1.986228e+003,5.171021e+001
1.987192e+003,5.498535e+001
1.988157e+003,5.517090e+001
1.989121e+003,5.138684e+001
1.990085e+003,4.997321e+001
1.991049e+003,5.315295e+001
1.992014e+003,5.463995e+001
1.992978e+003,5.133160e+001
1.993942e+003,4.903925e+001
1.994906e+003,4.970508e+001
1.995871e+003,5.211969e+001
1.996835e+003,5.734485e+001
1.997799e+003,6.285101e+001
1.998763e+003,6.400818e+001
1.999728e+003,6.158630e+001
