5.003444e+002,4.147148e+001
5.013087e+002,4.266699e+001
5.022729e+002,4.183806e+001
5.032371e+002,3.960364e+001
5.042014e+002,3.759622e+001
5.051656e+002,3.589905e+001
5.061298e+002,3.524113e+001
5.070941e+002,3.645767e+001
5.080583e+002,4.016109e+001
5.090225e+002,4.174155e+001
5.099868e+002,4.041084e+001
5.109510e+002,3.855086e+001
5.119152e+002,3.727953e+001
5.128795e+002,3.668864e+001
5.138437e+002,3.619911e+001
5.148079e+002,3.585297e+001
5.157722e+002,3.539963e+001
5.167364e+002,3.473921e+001
5.177006e+002,3.379852e+001
5.186649e+002,3.245769e+001
5.196291e+002,2.988374e+001
5.205933e+002,2.758400e+001
5.215576e+002,2.766528e+001
5.225218e+002,2.997202e+001
5.234860e+002,3.285301e+001
5.244503e+002,3.345714e+001
5.254145e+002,3.108937e+001
5.263787e+002,2.882957e+001
5.273430e+002,2.605632e+001
5.283072e+002,2.378020e+001
5.292714e+002,2.371735e+001
5.302357e+002,2.752510e+001
5.311999e+002,2.958548e+001
5.321641e+002,2.849005e+001
5.331284e+002,2.655183e+001
5.340926e+002,2.541194e+001
5.350568e+002,2.562955e+001
5.360211e+002,2.629526e+001
5.369853e+002,2.710928e+001
5.379495e+002,2.782507e+001
5.389138e+002,2.829283e+001
5.398780e+002,2.837375e+001
5.408422e+002,2.786403e+001
5.418065e+002,2.563081e+001
5.427707e+002,2.204158e+001
5.437349e+002,2.002808e+001
5.446992e+002,2.066479e+001
5.456634e+002,2.318666e+001
5.466276e+002,2.496037e+001
5.475919e+002,2.628354e+001
5.485561e+002,2.622189e+001
5.495203e+002,2.348102e+001
5.504846e+002,1.968886e+001
5.514488e+002,1.723509e+001
5.524130e+002,1.739023e+001
5.533773e+002,1.821117e+001
5.543415e+002,1.871504e+001
5.553057e+002,1.912379e+001
5.562700e+002,1.977815e+001
5.572342e+002,2.086462e+001
5.581984e+002,2.191064e+001
5.591627e+002,2.175284e+001
5.601269e+002,2.083885e+001
5.610911e+002,1.981120e+001
5.620554e+002,1.895972e+001
5.630196e+002,1.822517e+001
5.639838e+002,1.742061e+001
5.649481e+002,1.603619e+001
5.659123e+002,1.531651e+001
5.668765e+002,1.625688e+001
5.678408e+002,1.819060e+001
5.688050e+002,1.900331e+001
5.697692e+002,1.718221e+001
5.707335e+002,1.515839e+001
5.716977e+002,1.343579e+001
5.726619e+002,1.213353e+001
5.736262e+002,1.141672e+001
5.745904e+002,1.151302e+001
5.755546e+002,1.187372e+001
5.765189e+002,1.098396e+001
5.774831e+002,9.598114e+000
5.784473e+002,9.571472e+000
5.794116e+002,1.218463e+001
5.803758e+002,1.706398e+001
5.813400e+002,1.819119e+001
5.823043e+002,1.426712e+001
5.832685e+002,1.090034e+001
5.842327e+002,1.045819e+001
5.851970e+002,1.251942e+001
5.861612e+002,1.392305e+001
5.871254e+002,1.389708e+001
5.880897e+002,1.335368e+001
5.890539e+002,1.156145e+001
5.900181e+002,9.479218e+000
5.909824e+002,8.801849e+000
5.919466e+002,1.117218e+001
5.929108e+002,1.408356e+001
5.938751e+002,1.512051e+001
5.948393e+002,1.474187e+001
5.958035e+002,1.342340e+001
5.967678e+002,1.155243e+001
5.977320e+002,9.338593e+000
5.986962e+002,8.155548e+000
5.996605e+002,7.825058e+000
6.006247e+002,7.725250e+000
6.015889e+002,7.721680e+000
6.025532e+002,7.804123e+000
6.035174e+002,7.659988e+000
6.044816e+002,6.245987e+000
6.054459e+002,5.852066e+000
6.064101e+002,7.773499e+000
6.073743e+002,1.078458e+001
6.083386e+002,1.266606e+001
6.093028e+002,1.198701e+001
6.102670e+002,1.047137e+001
6.112313e+002,9.212341e+000
6.121955e+002,8.253265e+000
6.131597e+002,7.656906e+000
6.141240e+002,7.458374e+000
6.150882e+002,7.566177e+000
6.160524e+002,7.769547e+000
6.170167e+002,8.093643e+000
6.179809e+002,8.222412e+000
6.189451e+002,7.980515e+000
6.199094e+002,7.335541e+000
6.208736e+002,6.382813e+000
6.218378e+002,4.234222e+000
6.228021e+002,3.050980e+000
6.237663e+002,3.607803e+000
6.247305e+002,5.127548e+000
6.256948e+002,6.284653e+000
6.266590e+002,6.313126e+000
6.276232e+002,6.320557e+000
6.285875e+002,7.464920e+000
6.295517e+002,8.858597e+000
6.305159e+002,9.431274e+000
6.314802e+002,8.610428e+000
6.324444e+002,6.982544e+000
6.334086e+002,6.518372e+000
6.343729e+002,6.816559e+000
6.353371e+002,6.201584e+000
6.363013e+002,3.768494e+000
6.372656e+002,3.712311e-001
6.382298e+002,-8.114624e-001
6.391940e+002,2.994858e+000
6.401583e+002,5.455292e+000
6.411225e+002,5.981766e+000
6.420867e+002,5.591049e+000
6.430510e+002,5.433823e+000
6.440152e+002,5.840637e+000
6.449794e+002,5.951660e+000
6.459437e+002,5.005798e+000
6.469079e+002,3.873123e+000
6.478721e+002,3.400192e+000
6.488364e+002,3.813843e+000
6.498006e+002,4.415726e+000
6.507648e+002,3.541519e+000
6.517291e+002,1.890198e+000
6.526933e+002,1.436981e+000
6.536575e+002,2.606033e+000
6.546218e+002,4.508682e+000
6.555860e+002,5.438629e+000
6.565502e+002,4.802109e+000
6.575145e+002,4.305069e+000
6.584787e+002,3.946930e+000
6.594429e+002,3.718109e+000
6.604072e+002,3.815414e+000
6.613714e+002,4.359177e+000
6.623356e+002,4.283112e+000
6.632999e+002,1.959747e+000
6.642641e+002,-2.621918e-001
6.652283e+002,-8.748779e-001
6.661926e+002,8.204651e-002
6.671568e+002,1.367889e+000
6.681210e+002,1.325577e+000
6.690853e+002,6.532593e-001
6.700495e+002,1.642014e+000
6.710137e+002,4.189941e+000
6.719780e+002,6.361526e+000
6.729422e+002,5.951584e+000
6.739064e+002,2.216507e+000
6.748707e+002,1.544037e-001
6.758349e+002,4.850464e-001
6.767991e+002,1.079529e+000
6.777634e+002,1.063644e+000
6.787276e+002,5.869141e-001
6.796918e+002,5.566864e-001
6.806561e+002,1.630234e+000
6.816203e+002,2.716461e+000
6.825845e+002,3.432480e+000
6.835488e+002,3.865555e+000
6.845130e+002,4.267349e+000
6.854772e+002,4.866287e+000
6.864415e+002,5.453186e+000
6.874057e+002,5.466446e+000
6.883699e+002,4.939026e+000
6.893342e+002,4.028381e+000
6.902984e+002,2.815277e+000
6.912626e+002,1.394547e+000
6.922269e+002,2.224579e-001
6.931911e+002,-1.308548e+000
6.941553e+002,-1.431488e+000
6.951196e+002,1.279480e+000
6.960838e+002,4.916763e+000
6.970480e+002,6.227249e+000
6.980123e+002,3.436234e+000
6.989765e+002,1.255325e+000
6.999407e+002,1.966049e+000
7.009050e+002,3.663330e+000
7.018692e+002,4.927139e+000
7.028334e+002,5.234818e+000
7.037977e+002,5.182938e+000
7.047619e+002,6.246536e+000
7.057261e+002,7.499496e+000
7.066904e+002,6.287582e+000
7.076546e+002,2.190048e+000
7.086188e+002,-2.528336e+000
7.095831e+002,-4.185287e+000
7.105473e+002,-1.517136e+000
7.115115e+002,3.351593e-001
7.124758e+002,9.995880e-001
7.134400e+002,1.356400e+000
7.144042e+002,1.890366e+000
7.153685e+002,2.665680e+000
7.163327e+002,3.554199e+000
7.172969e+002,5.012909e+000
7.182612e+002,6.084366e+000
7.192254e+002,6.106812e+000
7.201896e+002,5.374893e+000
7.211539e+002,4.537170e+000
7.221181e+002,4.131927e+000
7.230823e+002,4.014450e+000
7.240466e+002,3.940125e+000
7.250108e+002,3.902039e+000
7.259750e+002,3.320114e+000
7.269393e+002,1.578568e+000
7.279035e+002,-1.093521e+000
7.288677e+002,-2.062119e+000
7.298320e+002,1.095123e+000
7.307962e+002,3.337738e+000
7.317604e+002,3.813217e+000
7.327247e+002,3.434265e+000
7.336889e+002,3.492798e+000
7.346531e+002,4.414322e+000
7.356174e+002,4.812546e+000
7.365816e+002,3.630539e+000
7.375458e+002,2.227570e+000
7.385101e+002,1.554092e+000
7.394743e+002,1.885269e+000
7.404385e+002,2.910645e+000
7.414028e+002,4.395981e+000
7.423670e+002,5.904480e+000
7.433312e+002,6.281616e+000
7.442955e+002,5.488266e+000
7.452597e+002,4.516586e+000
7.462239e+002,4.570068e+000
7.471882e+002,6.110764e+000
7.481524e+002,6.418091e+000
7.491166e+002,4.172791e+000
7.500809e+002,2.180191e+000
7.510451e+002,1.494461e+000
7.520093e+002,1.967667e+000
7.529736e+002,2.906067e+000
7.539378e+002,4.798950e+000
7.549020e+002,5.973862e+000
7.558663e+002,5.062057e+000
7.568306e+002,3.000458e+000
7.577948e+002,8.866425e-001
7.587590e+002,-5.993958e-001
7.597233e+002,-1.559647e+000
7.606875e+002,-1.988586e+000
7.616517e+002,-1.879730e+000
7.626160e+002,-1.376953e+000
7.635802e+002,-3.357086e-001
7.645444e+002,9.457703e-001
7.655087e+002,1.734039e+000
7.664729e+002,1.473755e+000
7.674371e+002,1.924545e+000
7.684014e+002,4.151978e+000
7.693656e+002,6.124939e+000
7.703298e+002,6.121552e+000
7.712941e+002,4.181030e+000
7.722583e+002,2.655716e+000
7.732225e+002,3.856384e+000
7.741868e+002,5.604813e+000
7.751510e+002,5.977203e+000
7.761152e+002,5.389145e+000
7.770795e+002,5.300034e+000
7.780437e+002,7.006104e+000
7.790079e+002,1.006758e+001
7.799722e+002,1.048248e+001
7.809364e+002,8.121643e+000
7.819006e+002,5.929413e+000
7.828649e+002,5.359604e+000
7.838291e+002,5.903473e+000
7.847933e+002,5.635147e+000
7.857576e+002,3.656784e+000
7.867218e+002,2.016098e+000
7.876860e+002,9.026337e-001
7.886503e+002,4.760590e-001
7.896145e+002,1.026077e+000
7.905787e+002,2.555038e+000
7.915430e+002,4.447922e+000
7.925072e+002,6.496948e+000
7.934714e+002,8.060013e+000
7.944357e+002,8.310059e+000
7.953999e+002,7.390579e+000
7.963641e+002,6.013794e+000
7.973284e+002,4.900589e+000
7.982926e+002,4.036270e+000
7.992568e+002,4.083374e+000
8.002211e+002,5.595596e+000
8.011853e+002,6.481400e+000
8.021495e+002,5.640213e+000
8.031138e+002,3.742188e+000
8.040780e+002,2.838745e+000
8.050422e+002,3.629898e+000
8.060065e+002,4.730942e+000
8.069707e+002,6.100754e+000
8.079349e+002,7.170273e+000
8.088992e+002,7.241470e+000
8.098634e+002,6.201950e+000
8.108276e+002,4.926285e+000
8.117919e+002,4.544601e+000
8.127561e+002,4.695999e+000
8.137203e+002,5.043640e+000
8.146846e+002,5.623703e+000
8.156488e+002,6.228348e+000
8.166130e+002,6.526031e+000
8.175773e+002,6.424881e+000
8.185415e+002,6.420486e+000
8.195057e+002,6.408295e+000
8.204700e+002,6.434692e+000
8.214342e+002,6.804337e+000
8.223984e+002,7.226517e+000
8.233627e+002,6.764023e+000
8.243269e+002,4.344391e+000
8.252911e+002,2.654495e+000
8.262554e+002,4.146225e+000
8.272196e+002,6.439301e+000
8.281838e+002,6.682419e+000
8.291481e+002,4.094437e+000
8.301123e+002,7.061920e-001
8.310765e+002,2.595520e-001
8.320408e+002,2.504639e+000
8.330050e+002,3.539246e+000
8.339692e+002,2.940063e+000
8.349335e+002,1.904327e+000
8.358977e+002,1.670609e+000
8.368619e+002,2.405182e+000
8.378262e+002,3.063324e+000
8.387904e+002,3.024017e+000
8.397546e+002,3.454468e+000
8.407189e+002,5.557068e+000
8.416831e+002,8.126083e+000
8.426473e+002,8.822906e+000
8.436116e+002,6.225937e+000
8.445758e+002,3.263550e+000
8.455400e+002,3.004684e+000
8.465043e+002,4.000687e+000
8.474685e+002,4.892303e+000
8.484327e+002,5.329483e+000
8.493970e+002,5.790100e+000
8.503612e+002,7.007675e+000
8.513254e+002,9.169388e+000
8.522897e+002,1.025893e+001
8.532539e+002,9.894012e+000
8.542181e+002,9.017700e+000
8.551824e+002,8.008957e+000
8.561466e+002,7.016342e+000
8.571108e+002,6.608917e+000
8.580751e+002,7.146210e+000
8.590393e+002,7.565353e+000
8.600035e+002,7.196625e+000
8.609678e+002,6.840881e+000
8.619320e+002,7.673523e+000
8.628962e+002,1.004599e+001
8.638605e+002,1.259937e+001
8.648247e+002,1.295129e+001
8.657889e+002,1.201454e+001
8.667532e+002,1.184738e+001
8.677174e+002,1.271223e+001
8.686816e+002,1.376483e+001
8.696459e+002,1.400584e+001
8.706101e+002,1.330409e+001
8.715743e+002,1.312636e+001
8.725386e+002,1.367442e+001
8.735028e+002,1.444012e+001
8.744670e+002,1.566551e+001
8.754313e+002,1.682013e+001
8.763955e+002,1.671181e+001
8.773597e+002,1.442809e+001
8.783240e+002,1.290005e+001
8.792882e+002,1.515807e+001
8.802524e+002,1.836505e+001
8.812167e+002,2.007512e+001
8.821809e+002,1.984128e+001
8.831451e+002,1.874521e+001
8.841094e+002,1.813898e+001
8.850736e+002,1.813571e+001
8.860378e+002,1.893649e+001
8.870021e+002,2.071030e+001
8.879663e+002,2.237566e+001
8.889305e+002,2.321776e+001
8.898948e+002,2.337102e+001
8.908590e+002,2.369638e+001
8.918232e+002,2.472694e+001
8.927875e+002,2.523065e+001
8.937517e+002,2.471548e+001
8.947159e+002,2.382370e+001
8.956802e+002,2.284967e+001
8.966444e+002,2.192435e+001
8.976086e+002,2.130440e+001
8.985729e+002,2.149446e+001
8.995371e+002,2.216431e+001
9.005013e+002,2.248985e+001
9.014656e+002,2.260144e+001
9.024298e+002,2.310101e+001
9.033940e+002,2.444279e+001
9.043583e+002,2.640428e+001
9.053225e+002,2.776593e+001
9.062867e+002,2.788618e+001
9.072510e+002,2.804672e+001
9.082152e+002,2.900348e+001
9.091794e+002,2.972231e+001
9.101437e+002,2.849632e+001
9.111079e+002,2.500926e+001
9.120721e+002,2.284383e+001
9.130364e+002,2.572206e+001
9.140006e+002,2.907570e+001
9.149648e+002,3.068622e+001
9.159291e+002,3.070396e+001
9.168933e+002,2.967339e+001
9.178575e+002,2.797871e+001
9.188218e+002,2.605962e+001
9.197860e+002,2.582661e+001
9.207502e+002,2.727061e+001
9.217145e+002,2.844168e+001
9.226787e+002,2.936792e+001
9.236429e+002,2.973094e+001
9.246072e+002,2.867961e+001
9.255714e+002,2.571036e+001
9.265356e+002,2.362454e+001
9.274999e+002,2.338933e+001
9.284641e+002,2.347137e+001
9.294283e+002,2.368987e+001
9.303926e+002,2.384149e+001
9.313568e+002,2.372247e+001
9.323210e+002,2.322472e+001
9.332853e+002,2.237003e+001
9.342495e+002,2.041788e+001
9.352137e+002,1.828136e+001
9.361780e+002,1.803630e+001
9.371422e+002,2.013612e+001
9.381064e+002,2.266592e+001
9.390707e+002,2.287520e+001
9.400349e+002,2.021069e+001
9.409991e+002,1.836052e+001
9.419634e+002,1.762781e+001
9.429276e+002,1.714481e+001
9.438918e+002,1.667029e+001
9.448561e+002,1.634361e+001
9.458203e+002,1.657593e+001
9.467845e+002,1.767026e+001
9.477488e+002,1.850586e+001
9.487130e+002,1.777939e+001
9.496772e+002,1.673621e+001
9.506415e+002,1.643799e+001
9.516057e+002,1.685385e+001
9.525699e+002,1.723224e+001
9.535342e+002,1.681981e+001
9.544984e+002,1.570209e+001
9.554626e+002,1.495566e+001
9.564269e+002,1.487350e+001
9.573911e+002,1.440656e+001
9.583553e+002,1.260307e+001
9.593196e+002,1.049698e+001
9.602838e+002,1.001761e+001
9.612480e+002,1.168501e+001
9.622123e+002,1.295866e+001
9.631765e+002,1.269041e+001
9.641407e+002,1.235127e+001
9.651050e+002,1.286659e+001
9.660692e+002,1.377412e+001
9.670334e+002,1.383873e+001
9.679977e+002,1.230214e+001
9.689619e+002,1.038313e+001
9.699261e+002,1.087062e+001
9.708904e+002,1.297189e+001
9.718546e+002,1.482211e+001
9.728188e+002,1.597217e+001
9.737831e+002,1.682544e+001
9.747473e+002,1.808601e+001
9.757115e+002,2.000826e+001
9.766758e+002,2.107494e+001
9.776400e+002,2.063698e+001
9.786042e+002,2.027129e+001
9.795685e+002,2.091924e+001
9.805327e+002,2.147949e+001
9.814969e+002,2.006569e+001
9.824612e+002,1.608708e+001
9.834254e+002,1.231361e+001
9.843896e+002,1.196286e+001
9.853539e+002,1.287074e+001
9.863181e+002,1.292625e+001
9.872823e+002,1.193806e+001
9.882466e+002,1.039243e+001
9.892108e+002,8.758820e+000
9.901750e+002,7.191238e+000
9.911393e+002,6.104477e+000
9.921035e+002,5.134903e+000
9.930677e+002,4.922440e+000
9.940320e+002,6.391159e+000
9.949962e+002,8.097458e+000
9.959604e+002,8.399780e+000
9.969247e+002,7.289612e+000
9.978889e+002,6.978088e+000
9.988531e+002,9.492920e+000
9.998174e+002,1.156287e+001
1.000782e+003,1.070016e+001
1.001746e+003,8.443329e+000
1.002710e+003,7.246826e+000
1.003674e+003,8.061981e+000
1.004639e+003,9.461609e+000
1.005603e+003,8.824738e+000
1.006567e+003,5.882202e+000
1.007531e+003,4.520691e+000
1.008495e+003,5.484741e+000
1.009460e+003,6.471207e+000
1.010424e+003,5.831848e+000
1.011388e+003,4.081161e+000
1.012352e+003,3.393143e+000
1.013317e+003,4.842728e+000
1.014281e+003,5.556290e+000
1.015245e+003,3.318939e+000
1.016209e+003,1.211441e+000
1.017174e+003,2.204147e+000
1.018138e+003,5.808197e+000
1.019102e+003,8.955933e+000
1.020066e+003,9.166260e+000
1.021031e+003,7.253128e+000
1.021995e+003,4.940201e+000
1.022959e+003,2.275101e+000
1.023923e+003,1.349640e-001
1.024887e+003,-1.201279e+000
1.025852e+003,-1.908981e+000
1.026816e+003,-2.063766e+000
1.027780e+003,-1.367050e+000
1.028744e+003,-1.266525e+000
1.029709e+003,-2.393265e+000
1.030673e+003,-3.542358e+000
1.031637e+003,-4.784363e+000
1.032601e+003,-5.705879e+000
1.033566e+003,-5.632675e+000
1.034530e+003,-4.336319e+000
1.035494e+003,-2.581055e+000
1.036458e+003,-7.404022e-001
1.037422e+003,6.120758e-001
1.038387e+003,9.066772e-002
1.039351e+003,-2.082581e+000
1.040315e+003,-3.755173e+000
1.041279e+003,-3.193115e+000
1.042244e+003,-9.237213e-001
1.043208e+003,2.860107e-001
1.044172e+003,-3.807678e-001
1.045136e+003,-9.571838e-001
1.046101e+003,-1.775894e+000
1.047065e+003,-2.073730e+000
1.048029e+003,-9.933472e-001
1.048993e+003,1.065872e+000
1.049958e+003,2.643738e+000
1.050922e+003,2.994034e+000
1.051886e+003,2.987061e+000
1.052850e+003,3.628876e+000
1.053814e+003,4.423401e+000
1.054779e+003,4.716293e+000
1.055743e+003,4.357483e+000
1.056707e+003,3.581955e+000
1.057671e+003,2.648590e+000
1.058636e+003,1.539673e+000
1.059600e+003,7.450714e-001
1.060564e+003,3.892212e-001
1.061528e+003,3.251953e-001
1.062493e+003,5.627136e-001
1.063457e+003,9.323883e-001
1.064421e+003,1.481018e+000
1.065385e+003,2.215347e+000
1.066349e+003,2.395584e+000
1.067314e+003,1.077042e+000
1.068278e+003,-2.272644e-001
1.069242e+003,-2.336426e-001
1.070206e+003,4.603271e-001
1.071171e+003,8.503876e-001
1.072135e+003,4.826508e-001
1.073099e+003,-3.849030e-001
1.074063e+003,-1.324280e+000
1.075028e+003,-2.382050e+000
1.075992e+003,-2.074951e+000
1.076956e+003,5.661469e-001
1.077920e+003,2.599243e+000
1.078885e+003,2.623749e+000
1.079849e+003,1.564911e+000
1.080813e+003,1.024017e+000
1.081777e+003,1.254150e+000
1.082741e+003,1.822235e+000
1.083706e+003,3.027832e+000
1.084670e+003,3.911926e+000
1.085634e+003,3.933258e+000
1.086598e+003,3.199356e+000
1.087563e+003,1.830551e+000
1.088527e+003,1.206970e-002
1.089491e+003,-1.678223e+000
1.090455e+003,-2.115128e+000
1.091420e+003,-1.180450e+000
1.092384e+003,-1.077560e+000
1.093348e+003,-2.550079e+000
1.094312e+003,-3.606308e+000
1.095276e+003,-2.512688e+000
1.096241e+003,-4.766846e-002
1.097205e+003,1.222000e+000
1.098169e+003,6.639099e-001
1.099133e+003,-2.864227e-001
1.100098e+003,-2.146729e+000
1.101062e+003,-3.181671e+000
1.102026e+003,-1.332428e+000
1.102990e+003,2.211029e+000
1.103955e+003,4.565918e+000
1.104919e+003,3.985260e+000
1.105883e+003,1.734543e+000
1.106847e+003,5.487976e-001
1.107812e+003,4.370728e-001
1.108776e+003,-3.717499e-001
1.109740e+003,-2.432152e+000
1.110704e+003,-4.198692e+000
1.111668e+003,-4.101814e+000
1.112633e+003,-2.630478e+000
1.113597e+003,-2.298393e+000
1.114561e+003,-4.199371e+000
1.115525e+003,-5.321747e+000
1.116490e+003,-3.993881e+000
1.117454e+003,-2.420197e+000
1.118418e+003,-1.975853e+000
1.119382e+003,-2.467049e+000
1.120347e+003,-3.120987e+000
1.121311e+003,-3.513039e+000
1.122275e+003,-3.581268e+000
1.123239e+003,-2.797714e+000
1.124203e+003,-1.200111e+000
1.125168e+003,-3.124847e-001
1.126132e+003,-2.504578e-001
1.127096e+003,-8.348846e-001
1.128060e+003,-2.508728e+000
1.129025e+003,-4.887207e+000
1.129989e+003,-5.859863e+000
1.130953e+003,-4.628548e+000
1.131917e+003,-3.534477e+000
1.132882e+003,-3.294296e+000
1.133846e+003,-3.223755e+000
1.134810e+003,-2.984047e+000
1.135774e+003,-2.539299e+000
1.136739e+003,-1.981964e+000
1.137703e+003,-1.369911e+000
1.138667e+003,-6.447754e-001
1.139631e+003,4.790649e-001
1.140595e+003,1.839264e+000
1.141560e+003,2.236374e+000
1.142524e+003,1.333847e+000
1.143488e+003,6.745300e-001
1.144452e+003,1.411469e+000
1.145417e+003,3.200470e+000
1.146381e+003,4.779930e+000
1.147345e+003,5.920845e+000
1.148309e+003,7.300407e+000
1.149274e+003,9.153038e+000
1.150238e+003,1.125375e+001
1.151202e+003,1.369746e+001
1.152166e+003,1.631300e+001
1.153130e+003,1.904673e+001
1.154095e+003,2.172889e+001
1.155059e+003,2.355415e+001
1.156023e+003,2.340955e+001
1.156987e+003,2.137356e+001
1.157952e+003,1.853013e+001
1.158916e+003,1.473132e+001
1.159880e+003,1.157601e+001
1.160844e+003,1.005761e+001
1.161809e+003,9.508080e+000
1.162773e+003,8.700050e+000
1.163737e+003,7.677650e+000
1.164701e+003,6.201454e+000
1.165666e+003,2.846931e+000
1.166630e+003,5.654602e-001
1.167594e+003,1.374664e+000
1.168558e+003,3.523865e+000
1.169522e+003,4.751648e+000
1.170487e+003,4.303467e+000
1.171451e+003,2.796204e+000
1.172415e+003,6.509323e-001
1.173379e+003,-1.684410e+000
1.174344e+003,-1.196480e+000
1.175308e+003,2.386307e+000
1.176272e+003,4.386368e+000
1.177236e+003,2.261505e+000
1.178201e+003,-1.334175e+000
1.179165e+003,-3.148643e+000
1.180129e+003,-3.219727e+000
1.181093e+003,-2.822769e+000
1.182057e+003,-1.465073e+000
1.183022e+003,-7.385635e-001
1.183986e+003,-1.972137e+000
1.184950e+003,-3.502869e+000
1.185914e+003,-3.532257e+000
1.186879e+003,-2.079498e+000
1.187843e+003,-5.145950e-001
1.188807e+003,3.733826e-002
1.189771e+003,-2.469254e-001
1.190736e+003,-8.996582e-001
1.191700e+003,-1.998268e+000
1.192664e+003,-2.659836e+000
1.193628e+003,-2.608017e+000
1.194593e+003,-2.289810e+000
1.195557e+003,-1.650810e+000
1.196521e+003,-1.000565e+000
1.197485e+003,-1.661453e+000
1.198449e+003,-4.412651e+000
1.199414e+003,-6.577042e+000
1.200378e+003,-6.650154e+000
1.201342e+003,-6.007996e+000
1.202306e+003,-5.093239e+000
1.203271e+003,-4.241531e+000
1.204235e+003,-3.764099e+000
1.205199e+003,-3.823639e+000
1.206163e+003,-4.489456e+000
1.207128e+003,-6.006134e+000
1.208092e+003,-8.446121e+000
1.209056e+003,-9.571251e+000
1.210020e+003,-8.830910e+000
1.210984e+003,-8.138184e+000
1.211949e+003,-8.030983e+000
1.212913e+003,-8.289360e+000
1.213877e+003,-8.553215e+000
1.214841e+003,-8.793533e+000
1.215806e+003,-9.444267e+000
1.216770e+003,-1.088199e+001
1.217734e+003,-1.249742e+001
1.218698e+003,-1.431905e+001
1.219663e+003,-1.585159e+001
1.220627e+003,-1.621519e+001
1.221591e+003,-1.547191e+001
1.222555e+003,-1.476768e+001
1.223520e+003,-1.518721e+001
1.224484e+003,-1.624030e+001
1.225448e+003,-1.565136e+001
1.226412e+003,-1.198798e+001
1.227376e+003,-9.978569e+000
1.228341e+003,-1.064362e+001
1.229305e+003,-1.178708e+001
1.230269e+003,-1.264968e+001
1.231233e+003,-1.303886e+001
1.232198e+003,-1.242548e+001
1.233162e+003,-1.057272e+001
1.234126e+003,-9.002083e+000
1.235090e+003,-9.094467e+000
1.236055e+003,-9.842026e+000
1.237019e+003,-1.007088e+001
1.237983e+003,-1.001684e+001
1.238947e+003,-1.037700e+001
1.239911e+003,-1.140907e+001
1.240876e+003,-1.272586e+001
1.241840e+003,-1.386362e+001
1.242804e+003,-1.484843e+001
1.243768e+003,-1.513399e+001
1.244733e+003,-1.360288e+001
1.245697e+003,-1.286398e+001
1.246661e+003,-1.405253e+001
1.247625e+003,-1.535744e+001
1.248590e+003,-1.524392e+001
1.249554e+003,-1.395792e+001
1.250518e+003,-1.269305e+001
1.251482e+003,-1.199142e+001
1.252447e+003,-1.171806e+001
1.253411e+003,-1.177312e+001
1.254375e+003,-1.204256e+001
1.255339e+003,-1.241395e+001
1.256303e+003,-1.283675e+001
1.257268e+003,-1.300588e+001
1.258232e+003,-1.272649e+001
1.259196e+003,-1.225986e+001
1.260160e+003,-1.226313e+001
1.261125e+003,-1.296044e+001
1.262089e+003,-1.236513e+001
1.263053e+003,-7.868637e+000
1.264017e+003,-5.261528e+000
1.264982e+003,-7.490685e+000
1.265946e+003,-1.096526e+001
1.266910e+003,-1.218085e+001
1.267874e+003,-1.113695e+001
1.268839e+003,-1.013833e+001
1.269803e+003,-1.070180e+001
1.270767e+003,-1.208730e+001
1.271731e+003,-1.300152e+001
1.272695e+003,-1.336788e+001
1.273660e+003,-1.304436e+001
1.274624e+003,-1.179771e+001
1.275588e+003,-1.072327e+001
1.276552e+003,-1.054044e+001
1.277517e+003,-1.076445e+001
1.278481e+003,-1.035878e+001
1.279445e+003,-9.192894e+000
1.280409e+003,-8.800072e+000
1.281374e+003,-1.038149e+001
1.282338e+003,-1.187653e+001
1.283302e+003,-1.184613e+001
1.284266e+003,-1.139099e+001
1.285230e+003,-1.226060e+001
1.286195e+003,-1.426082e+001
1.287159e+003,-1.518019e+001
1.288123e+003,-1.316397e+001
1.289087e+003,-9.381607e+000
1.290052e+003,-7.539200e+000
1.291016e+003,-8.283951e+000
1.291980e+003,-8.978142e+000
1.292944e+003,-9.563110e+000
1.293909e+003,-1.027673e+001
1.294873e+003,-1.148836e+001
1.295837e+003,-1.263618e+001
1.296801e+003,-1.279688e+001
1.297766e+003,-1.192822e+001
1.298730e+003,-1.117178e+001
1.299694e+003,-1.131515e+001
1.300658e+003,-1.151038e+001
1.301622e+003,-1.015421e+001
1.302587e+003,-8.407730e+000
1.303551e+003,-8.716660e+000
1.304515e+003,-1.123572e+001
1.305479e+003,-1.304469e+001
1.306444e+003,-1.157432e+001
1.307408e+003,-8.051697e+000
1.308372e+003,-6.623924e+000
1.309336e+003,-7.966316e+000
1.310301e+003,-9.378510e+000
1.311265e+003,-1.153416e+001
1.312229e+003,-1.267277e+001
1.313193e+003,-1.135008e+001
1.314157e+003,-9.378288e+000
1.315122e+003,-8.857437e+000
1.316086e+003,-9.816154e+000
1.317050e+003,-1.061833e+001
1.318014e+003,-1.016029e+001
1.318979e+003,-9.009613e+000
1.319943e+003,-7.948326e+000
1.320907e+003,-7.091080e+000
1.321871e+003,-7.528130e+000
1.322836e+003,-9.835938e+000
1.323800e+003,-1.180512e+001
1.324764e+003,-1.182542e+001
1.325728e+003,-1.098466e+001
1.326693e+003,-1.135706e+001
1.327657e+003,-1.305509e+001
1.328621e+003,-1.408372e+001
1.329585e+003,-1.339733e+001
1.330549e+003,-1.253393e+001
1.331514e+003,-1.258008e+001
1.332478e+003,-1.286585e+001
1.333442e+003,-1.273834e+001
1.334406e+003,-1.214381e+001
1.335371e+003,-1.131421e+001
1.336335e+003,-1.040514e+001
1.337299e+003,-9.476349e+000
1.338263e+003,-8.629013e+000
1.339228e+003,-7.811279e+000
1.340192e+003,-7.556595e+000
1.341156e+003,-8.286423e+000
1.342120e+003,-8.921165e+000
1.343084e+003,-9.481842e+000
1.344049e+003,-9.840073e+000
1.345013e+003,-9.687477e+000
1.345977e+003,-9.170784e+000
1.346941e+003,-8.801987e+000
1.347906e+003,-8.771973e+000
1.348870e+003,-8.871391e+000
1.349834e+003,-9.004555e+000
1.350798e+003,-9.107819e+000
1.351763e+003,-8.869598e+000
1.352727e+003,-8.387299e+000
1.353691e+003,-8.417099e+000
1.354655e+003,-9.391487e+000
1.355620e+003,-1.037914e+001
1.356584e+003,-1.026438e+001
1.357548e+003,-9.119972e+000
1.358512e+003,-7.566002e+000
1.359476e+003,-5.037949e+000
1.360441e+003,-3.840683e+000
1.361405e+003,-5.399185e+000
1.362369e+003,-7.402031e+000
1.363333e+003,-9.252220e+000
1.364298e+003,-1.058628e+001
1.365262e+003,-1.081868e+001
1.366226e+003,-1.003525e+001
1.367190e+003,-9.283386e+000
1.368155e+003,-9.517723e+000
1.369119e+003,-1.020896e+001
1.370083e+003,-9.618088e+000
1.371047e+003,-7.222122e+000
1.372011e+003,-5.613960e+000
1.372976e+003,-4.985428e+000
1.373940e+003,-4.960716e+000
1.374904e+003,-5.898285e+000
1.375868e+003,-6.996681e+000
1.376833e+003,-7.128731e+000
1.377797e+003,-6.349060e+000
1.378761e+003,-5.672455e+000
1.379725e+003,-5.411942e+000
1.380690e+003,-5.695457e+000
1.381654e+003,-7.646729e+000
1.382618e+003,-9.694267e+000
1.383582e+003,-8.959244e+000
1.384547e+003,-5.783264e+000
1.385511e+003,-3.729599e+000
1.386475e+003,-4.828583e+000
1.387439e+003,-7.128304e+000
1.388403e+003,-7.610329e+000
1.389368e+003,-6.285881e+000
1.390332e+003,-5.151649e+000
1.391296e+003,-4.028976e+000
1.392260e+003,-3.516937e+000
1.393225e+003,-3.872223e+000
1.394189e+003,-4.671585e+000
1.395153e+003,-6.321617e+000
1.396117e+003,-7.974579e+000
1.397082e+003,-8.092018e+000
1.398046e+003,-6.556168e+000
1.399010e+003,-5.146545e+000
1.399974e+003,-5.555618e+000
1.400938e+003,-7.106316e+000
1.401903e+003,-7.444458e+000
1.402867e+003,-6.014381e+000
1.403831e+003,-5.051537e+000
1.404795e+003,-4.878830e+000
1.405760e+003,-4.848076e+000
1.406724e+003,-4.892883e+000
1.407688e+003,-5.046265e+000
1.408652e+003,-5.351242e+000
1.409617e+003,-5.667976e+000
1.410581e+003,-5.536377e+000
1.411545e+003,-4.678474e+000
1.412509e+003,-3.862015e+000
1.413474e+003,-3.897675e+000
1.414438e+003,-4.525269e+000
1.415402e+003,-5.305992e+000
1.416366e+003,-6.124344e+000
1.417330e+003,-6.793839e+000
1.418295e+003,-7.357185e+000
1.419259e+003,-7.306786e+000
1.420223e+003,-5.446556e+000
1.421187e+003,-2.313812e+000
1.422152e+003,-1.331535e+000
1.423116e+003,-3.282944e+000
1.424080e+003,-4.805946e+000
1.425044e+003,-4.589867e+000
1.426009e+003,-4.314003e+000
1.426973e+003,-5.173485e+000
1.427937e+003,-6.049904e+000
1.428901e+003,-5.060890e+000
1.429865e+003,-2.512169e+000
1.430830e+003,-6.897430e-001
1.431794e+003,-1.116730e+000
1.432758e+003,-2.824509e+000
1.433722e+003,-3.849594e+000
1.434687e+003,-4.074493e+000
1.435651e+003,-4.119797e+000
1.436615e+003,-4.142693e+000
1.437579e+003,-4.135025e+000
1.438544e+003,-3.933098e+000
1.439508e+003,-3.813263e+000
1.440472e+003,-4.203392e+000
1.441436e+003,-4.654396e+000
1.442401e+003,-4.043076e+000
1.443365e+003,-2.295311e+000
1.444329e+003,-1.249161e+000
1.445293e+003,-2.424988e+000
1.446257e+003,-4.542549e+000
1.447222e+003,-5.240456e+000
1.448186e+003,-4.745865e+000
1.449150e+003,-4.025017e+000
1.450114e+003,-2.976402e+000
1.451079e+003,-2.508789e+000
1.452043e+003,-3.684433e+000
1.453007e+003,-5.207092e+000
1.453971e+003,-5.031380e+000
1.454936e+003,-3.445869e+000
1.455900e+003,-2.712082e+000
1.456864e+003,-3.491173e+000
1.457828e+003,-4.367607e+000
1.458792e+003,-4.870552e+000
1.459757e+003,-4.879471e+000
1.460721e+003,-3.766205e+000
1.461685e+003,-2.221886e+000
1.462649e+003,-1.659149e+000
1.463614e+003,-2.379173e+000
1.464578e+003,-3.508316e+000
1.465542e+003,-4.367813e+000
1.466506e+003,-4.972618e+000
1.467471e+003,-5.329025e+000
1.468435e+003,-5.426468e+000
1.469399e+003,-4.993370e+000
1.470363e+003,-3.348419e+000
1.471328e+003,-2.270149e+000
1.472292e+003,-2.594543e+000
1.473256e+003,-3.282265e+000
1.474220e+003,-3.750183e+000
1.475184e+003,-3.802422e+000
1.476149e+003,-3.005310e+000
1.477113e+003,-1.526733e+000
1.478077e+003,-8.077469e-001
1.479041e+003,-2.257034e+000
1.480006e+003,-4.991547e+000
1.480970e+003,-6.160172e+000
1.481934e+003,-5.447411e+000
1.482898e+003,-4.638603e+000
1.483863e+003,-3.377022e+000
1.484827e+003,-2.559052e+000
1.485791e+003,-2.868195e+000
1.486755e+003,-3.241707e+000
1.487719e+003,-2.492195e+000
1.488684e+003,-1.059830e+000
1.489648e+003,-3.223419e-001
1.490612e+003,-6.757813e-001
1.491576e+003,-1.158386e+000
1.492541e+003,-1.008881e+000
1.493505e+003,-5.232468e-001
1.494469e+003,-5.507126e-001
1.495433e+003,-9.662094e-001
1.496398e+003,-2.907715e-001
1.497362e+003,2.199989e+000
1.498326e+003,4.318253e+000
1.499290e+003,4.762268e+000
1.500255e+003,4.294846e+000
1.501219e+003,3.593277e+000
1.502183e+003,2.811005e+000
1.503147e+003,2.668839e+000
1.504111e+003,3.327515e+000
1.505076e+003,4.671173e+000
1.506040e+003,7.338753e+000
1.507004e+003,9.923073e+000
1.507968e+003,1.077943e+001
1.508933e+003,1.061541e+001
1.509897e+003,1.071635e+001
1.510861e+003,1.145374e+001
1.511825e+003,1.316400e+001
1.512790e+003,1.630042e+001
1.513754e+003,1.995367e+001
1.514718e+003,2.225949e+001
1.515682e+003,2.318665e+001
1.516646e+003,2.496414e+001
1.517611e+003,2.840349e+001
1.518575e+003,3.130699e+001
1.519539e+003,3.278751e+001
1.520503e+003,3.386227e+001
1.521468e+003,3.526314e+001
1.522432e+003,3.641780e+001
1.523396e+003,3.644240e+001
1.524360e+003,3.529822e+001
1.525325e+003,3.356870e+001
1.526289e+003,3.166043e+001
1.527253e+003,2.973405e+001
1.528217e+003,2.807037e+001
1.529182e+003,2.671390e+001
1.530146e+003,2.510094e+001
1.531110e+003,2.280197e+001
1.532074e+003,2.099124e+001
1.533039e+003,2.053093e+001
1.534003e+003,1.936189e+001
1.534967e+003,1.599400e+001
1.535931e+003,1.204616e+001
1.536896e+003,9.204987e+000
1.537860e+003,7.661385e+000
1.538824e+003,7.032967e+000
1.539788e+003,6.991867e+000
1.540752e+003,6.581841e+000
1.541717e+003,4.459167e+000
1.542681e+003,1.141335e+000
1.543645e+003,-2.398834e-001
1.544609e+003,1.326553e+000
1.545573e+003,2.496460e+000
1.546538e+003,2.739479e+000
1.547502e+003,3.133163e+000
1.548466e+003,4.606636e+000
1.549430e+003,6.129051e+000
1.550395e+003,6.498886e+000
1.551359e+003,5.897400e+000
1.552323e+003,5.160080e+000
1.553287e+003,4.617332e+000
1.554252e+003,4.282013e+000
1.555216e+003,4.232658e+000
1.556180e+003,4.189865e+000
1.557144e+003,3.349525e+000
1.558109e+003,1.707222e+000
1.559073e+003,8.649063e-001
1.560037e+003,1.115440e+000
1.561001e+003,1.431091e+000
1.561966e+003,1.693764e+000
1.562930e+003,1.834450e+000
1.563894e+003,1.435562e+000
1.564858e+003,8.753967e-001
1.565823e+003,1.178909e+000
1.566787e+003,2.497856e+000
1.567751e+003,4.171600e+000
1.568715e+003,6.181351e+000
1.569679e+003,7.376892e+000
1.570644e+003,5.440269e+000
1.571608e+003,1.717293e+000
1.572572e+003,3.749008e-001
1.573536e+003,1.616386e+000
1.574500e+003,2.903297e+000
1.575465e+003,3.393730e+000
1.576429e+003,3.679283e+000
1.577393e+003,4.328606e+000
1.578357e+003,5.017082e+000
1.579322e+003,5.053505e+000
1.580286e+003,4.462418e+000
1.581250e+003,3.862877e+000
1.582214e+003,3.281738e+000
1.583179e+003,3.372147e+000
1.584143e+003,5.353302e+000
1.585107e+003,7.536804e+000
1.586071e+003,7.478729e+000
1.587036e+003,5.902351e+000
1.588000e+003,4.865395e+000
1.588964e+003,4.777428e+000
1.589928e+003,4.927689e+000
1.590893e+003,4.989044e+000
1.591857e+003,4.915543e+000
1.592821e+003,4.423096e+000
1.593785e+003,3.685402e+000
1.594750e+003,3.844170e+000
1.595714e+003,5.226738e+000
1.596678e+003,6.020332e+000
1.597642e+003,4.874763e+000
1.598606e+003,3.875008e+000
1.599571e+003,5.019142e+000
1.600535e+003,7.113914e+000
1.601499e+003,8.746155e+000
1.602463e+003,9.797859e+000
1.603427e+003,1.052125e+001
1.604392e+003,1.099351e+001
1.605356e+003,1.145661e+001
1.606320e+003,1.251073e+001
1.607284e+003,1.364268e+001
1.608249e+003,1.304050e+001
1.609213e+003,1.062489e+001
1.610177e+003,9.041611e+000
1.611141e+003,8.839569e+000
1.612106e+003,9.208565e+000
1.613070e+003,1.025645e+001
1.614034e+003,1.127801e+001
1.614998e+003,1.166805e+001
1.615963e+003,1.171811e+001
1.616927e+003,1.200153e+001
1.617891e+003,1.254126e+001
1.618855e+003,1.279028e+001
1.619820e+003,1.236417e+001
1.620784e+003,1.162923e+001
1.621748e+003,1.110522e+001
1.622712e+003,1.088503e+001
1.623677e+003,1.126387e+001
1.624641e+003,1.250666e+001
1.625605e+003,1.271419e+001
1.626569e+003,1.023645e+001
1.627533e+003,8.474937e+000
1.628498e+003,9.970116e+000
1.629462e+003,1.217978e+001
1.630426e+003,1.311961e+001
1.631390e+003,1.296723e+001
1.632354e+003,1.231473e+001
1.633319e+003,1.141589e+001
1.634283e+003,1.071929e+001
1.635247e+003,1.051546e+001
1.636211e+003,1.078859e+001
1.637176e+003,1.185999e+001
1.638140e+003,1.363868e+001
1.639104e+003,1.422862e+001
1.640068e+003,1.322628e+001
1.641033e+003,1.224387e+001
1.641997e+003,1.127458e+001
1.642961e+003,1.105183e+001
1.643925e+003,1.275766e+001
1.644890e+003,1.463898e+001
1.645854e+003,1.479314e+001
1.646818e+003,1.362933e+001
1.647782e+003,1.239743e+001
1.648747e+003,1.156370e+001
1.649711e+003,1.156196e+001
1.650675e+003,1.305515e+001
1.651639e+003,1.503483e+001
1.652604e+003,1.503234e+001
1.653568e+003,1.311945e+001
1.654532e+003,1.238456e+001
1.655496e+003,1.348330e+001
1.656460e+003,1.395435e+001
1.657425e+003,1.263832e+001
1.658389e+003,1.121301e+001
1.659353e+003,1.035780e+001
1.660317e+003,1.001412e+001
1.661281e+003,1.032074e+001
1.662246e+003,1.103468e+001
1.663210e+003,1.157741e+001
1.664174e+003,1.178135e+001
1.665138e+003,1.192773e+001
1.666103e+003,1.232579e+001
1.667067e+003,1.263306e+001
1.668031e+003,1.193925e+001
1.668995e+003,1.037650e+001
1.669960e+003,9.817528e+000
1.670924e+003,1.075360e+001
1.671888e+003,1.123077e+001
1.672852e+003,1.044279e+001
1.673817e+003,9.277000e+000
1.674781e+003,7.606239e+000
1.675745e+003,6.364914e+000
1.676709e+003,7.239731e+000
1.677674e+003,9.442917e+000
1.678638e+003,1.020122e+001
1.679602e+003,8.669899e+000
1.680566e+003,7.082489e+000
1.681531e+003,7.218407e+000
1.682495e+003,8.314751e+000
1.683459e+003,9.319580e+000
1.684423e+003,1.009641e+001
1.685387e+003,9.809479e+000
1.686352e+003,8.260727e+000
1.687316e+003,6.795601e+000
1.688280e+003,5.754982e+000
1.689244e+003,5.041084e+000
1.690208e+003,4.347015e+000
1.691173e+003,4.102196e+000
1.692137e+003,5.243576e+000
1.693101e+003,7.319458e+000
1.694065e+003,8.797020e+000
1.695030e+003,9.256607e+000
1.695994e+003,9.045883e+000
1.696958e+003,8.065529e+000
1.697922e+003,6.965988e+000
1.698887e+003,6.799362e+000
1.699851e+003,7.150635e+000
1.700815e+003,6.425179e+000
1.701779e+003,4.511566e+000
1.702744e+003,3.491333e+000
1.703708e+003,4.253815e+000
1.704672e+003,5.331207e+000
1.705636e+003,5.745659e+000
1.706601e+003,5.654030e+000
1.707565e+003,5.352142e+000
1.708529e+003,4.875572e+000
1.709493e+003,4.069267e+000
1.710458e+003,2.825836e+000
1.711422e+003,2.029686e+000
1.712386e+003,2.522980e+000
1.713350e+003,3.093727e+000
1.714314e+003,2.421410e+000
1.715279e+003,1.297577e+000
1.716243e+003,1.209274e+000
1.717207e+003,2.047386e+000
1.718171e+003,2.685539e+000
1.719135e+003,2.822273e+000
1.720100e+003,2.868835e+000
1.721064e+003,3.075134e+000
1.722028e+003,3.313225e+000
1.722992e+003,3.570168e+000
1.723957e+003,3.777512e+000
1.724921e+003,3.046104e+000
1.725885e+003,9.594269e-001
1.726849e+003,6.210327e-003
1.727814e+003,1.448540e+000
1.728778e+003,3.080475e+000
1.729742e+003,4.611481e+000
1.730706e+003,5.290199e+000
1.731671e+003,3.399643e+000
1.732635e+003,3.565674e-001
1.733599e+003,-5.741806e-001
1.734563e+003,9.421692e-001
1.735528e+003,2.562317e+000
1.736492e+003,3.023727e+000
1.737456e+003,2.856537e+000
1.738420e+003,2.631401e+000
1.739385e+003,2.379555e+000
1.740349e+003,2.402351e+000
1.741313e+003,2.890610e+000
1.742277e+003,2.868065e+000
1.743241e+003,1.984428e+000
1.744206e+003,1.261581e+000
1.745170e+003,7.187805e-001
1.746134e+003,4.359436e-001
1.747098e+003,4.684830e-001
1.748063e+003,7.631378e-001
1.749027e+003,1.537605e+000
1.749991e+003,2.478813e+000
1.750955e+003,2.808647e+000
1.751919e+003,2.313080e+000
1.752884e+003,1.522301e+000
1.753848e+003,8.672867e-001
1.754812e+003,4.100418e-001
1.755776e+003,3.609161e-001
1.756741e+003,7.431259e-001
1.757705e+003,8.241196e-001
1.758669e+003,2.406540e-001
1.759633e+003,3.232803e-001
1.760598e+003,1.915199e+000
1.761562e+003,3.077766e+000
1.762526e+003,3.466759e+000
1.763490e+003,3.118813e+000
1.764455e+003,1.089561e+000
1.765419e+003,-1.144539e+000
1.766383e+003,-9.199982e-001
1.767347e+003,1.497147e+000
1.768312e+003,3.148987e+000
1.769276e+003,2.622208e+000
1.770240e+003,1.337395e+000
1.771204e+003,6.700439e-001
1.772168e+003,5.326157e-001
1.773133e+003,8.544846e-001
1.774097e+003,1.523529e+000
1.775061e+003,1.332695e+000
1.776025e+003,1.618195e-002
1.776990e+003,-1.562202e+000
1.777954e+003,-3.571266e+000
1.778918e+003,-4.614708e+000
1.779882e+003,-3.359444e+000
1.780846e+003,-8.864517e-001
1.781811e+003,1.958954e+000
1.782775e+003,4.766548e+000
1.783739e+003,5.998756e+000
1.784703e+003,5.354660e+000
1.785668e+003,4.378654e+000
1.786632e+003,3.266731e+000
1.787596e+003,2.475784e+000
1.788560e+003,2.977074e+000
1.789525e+003,3.680573e+000
1.790489e+003,2.517075e+000
1.791453e+003,1.539612e-001
1.792417e+003,-8.203888e-001
1.793382e+003,1.176453e-002
1.794346e+003,6.601868e-001
1.795310e+003,3.808594e-002
1.796274e+003,-8.446808e-001
1.797239e+003,-7.959824e-001
1.798203e+003,-5.123901e-002
1.799167e+003,4.460907e-001
1.800131e+003,5.214844e-001
1.801095e+003,8.595352e-001
1.802060e+003,1.923378e+000
1.803024e+003,2.670235e+000
1.803988e+003,2.824013e+000
1.804952e+003,2.790657e+000
1.805917e+003,2.548157e+000
1.806881e+003,2.387901e+000
1.807845e+003,2.599716e+000
1.808809e+003,3.140961e+000
1.809773e+003,4.163345e+000
1.810738e+003,5.403542e+000
1.811702e+003,5.647011e+000
1.812666e+003,4.162262e+000
1.813630e+003,2.119438e+000
1.814595e+003,9.839401e-001
1.815559e+003,7.353516e-001
1.816523e+003,1.674210e+000
1.817487e+003,4.014526e+000
1.818452e+003,5.185661e+000
1.819416e+003,4.893333e+000
1.820380e+003,3.987633e+000
1.821344e+003,1.471153e+000
1.822309e+003,5.252075e-002
1.823273e+003,2.880341e+000
1.824237e+003,6.371109e+000
1.825201e+003,6.319038e+000
1.826166e+003,3.923218e+000
1.827130e+003,2.950493e+000
1.828094e+003,4.001602e+000
1.829058e+003,4.643089e+000
1.830022e+003,3.520035e+000
1.830987e+003,2.191925e+000
1.831951e+003,1.891258e+000
1.832915e+003,2.211380e+000
1.833879e+003,3.142303e+000
1.834844e+003,4.081268e+000
1.835808e+003,2.587639e+000
1.836772e+003,-1.225174e+000
1.837736e+003,-2.833282e+000
1.838700e+003,-2.159576e-001
1.839665e+003,3.210388e+000
1.840629e+003,4.464256e+000
1.841593e+003,4.167244e+000
1.842557e+003,3.443115e+000
1.843522e+003,2.304489e+000
1.844486e+003,1.863045e+000
1.845450e+003,2.811256e+000
1.846414e+003,3.241425e+000
1.847379e+003,2.459251e+000
1.848343e+003,1.960274e+000
1.849307e+003,2.341057e+000
1.850271e+003,3.036324e+000
1.851236e+003,3.906815e+000
1.852200e+003,4.697662e+000
1.853164e+003,5.211205e+000
1.854128e+003,5.272034e+000
1.855093e+003,4.381256e+000
1.856057e+003,2.576447e+000
1.857021e+003,1.347984e+000
1.857985e+003,1.990417e+000
1.858949e+003,3.483299e+000
1.859914e+003,4.101540e+000
1.860878e+003,4.022636e+000
1.861842e+003,4.273804e+000
1.862806e+003,4.860779e+000
1.863771e+003,4.899239e+000
1.864735e+003,4.124466e+000
1.865699e+003,3.179337e+000
1.866663e+003,2.105080e+000
1.867627e+003,1.490219e+000
1.868592e+003,2.095848e+000
1.869556e+003,3.264900e+000
1.870520e+003,3.980270e+000
1.871484e+003,4.225769e+000
1.872449e+003,3.747978e+000
1.873413e+003,2.262451e+000
1.874377e+003,1.587418e+000
1.875341e+003,2.605354e+000
1.876306e+003,3.849754e+000
1.877270e+003,4.913353e+000
1.878234e+003,5.466454e+000
1.879198e+003,4.708588e+000
1.880163e+003,3.469872e+000
1.881127e+003,3.442894e+000
1.882091e+003,4.540726e+000
1.883055e+003,5.233459e+000
1.884020e+003,4.896683e+000
1.884984e+003,4.253838e+000
1.885948e+003,3.949135e+000
1.886912e+003,4.014275e+000
1.887876e+003,4.633423e+000
1.888841e+003,5.716530e+000
1.889805e+003,6.006439e+000
1.890769e+003,5.364159e+000
1.891733e+003,4.579720e+000
1.892698e+003,3.254829e+000
1.893662e+003,2.906303e+000
1.894626e+003,5.088203e+000
1.895590e+003,7.065857e+000
1.896554e+003,6.491135e+000
1.897519e+003,5.066536e+000
1.898483e+003,4.671494e+000
1.899447e+003,5.137260e+000
1.900411e+003,5.921936e+000
1.901376e+003,7.021263e+000
1.902340e+003,7.272812e+000
1.903304e+003,5.787338e+000
1.904268e+003,4.047768e+000
1.905233e+003,2.359505e+000
1.906197e+003,1.445610e+000
1.907161e+003,2.769882e+000
1.908125e+003,5.069756e+000
1.909090e+003,6.038834e+000
1.910054e+003,5.584854e+000
1.911018e+003,4.709671e+000
1.911982e+003,3.902382e+000
1.912947e+003,3.532417e+000
1.913911e+003,3.854851e+000
1.914875e+003,4.620209e+000
1.915839e+003,5.486710e+000
1.916803e+003,6.308212e+000
1.917768e+003,6.426003e+000
1.918732e+003,5.703362e+000
1.919696e+003,5.382790e+000
1.920660e+003,5.535820e+000
1.921625e+003,6.070747e+000
1.922589e+003,7.443359e+000
1.923553e+003,8.356598e+000
1.924517e+003,7.560326e+000
1.925481e+003,6.520821e+000
1.926446e+003,6.771622e+000
1.927410e+003,7.623566e+000
1.928374e+003,7.373528e+000
1.929338e+003,6.044029e+000
1.930303e+003,5.887703e+000
1.931267e+003,8.047935e+000
1.932231e+003,9.764305e+000
1.933195e+003,9.557755e+000
1.934160e+003,8.673439e+000
1.935124e+003,7.367439e+000
1.936088e+003,6.391205e+000
1.937052e+003,7.147881e+000
1.938017e+003,8.831558e+000
1.938981e+003,9.379112e+000
1.939945e+003,8.684563e+000
1.940909e+003,8.443237e+000
1.941874e+003,9.336205e+000
1.942838e+003,9.956635e+000
1.943802e+003,8.990211e+000
1.944766e+003,7.372559e+000
1.945730e+003,6.891228e+000
1.946695e+003,7.386795e+000
1.947659e+003,7.926270e+000
1.948623e+003,8.548935e+000
1.949587e+003,8.528008e+000
1.950552e+003,7.563126e+000
1.951516e+003,7.027573e+000
1.952480e+003,7.636368e+000
1.953444e+003,8.190849e+000
1.954408e+003,7.587105e+000
1.955373e+003,6.682068e+000
1.956337e+003,6.925491e+000
1.957301e+003,7.965446e+000
1.958265e+003,8.293358e+000
1.959230e+003,7.760498e+000
1.960194e+003,7.578514e+000
1.961158e+003,8.255356e+000
1.962122e+003,8.613487e+000
1.963087e+003,8.089630e+000
1.964051e+003,7.515617e+000
1.965015e+003,7.175690e+000
1.965979e+003,7.270248e+000
1.966944e+003,8.334709e+000
1.967908e+003,9.701393e+000
1.968872e+003,1.028109e+001
1.969836e+003,9.957527e+000
1.970801e+003,9.106857e+000
1.971765e+003,7.962166e+000
1.972729e+003,7.113998e+000
1.973693e+003,7.002647e+000
1.974657e+003,7.598915e+000
1.975622e+003,9.353920e+000
1.976586e+003,1.157764e+001
1.977550e+003,1.235984e+001
1.978514e+003,1.188431e+001
1.979479e+003,1.127886e+001
1.980443e+003,1.072181e+001
1.981407e+003,1.020866e+001
1.982371e+003,9.749725e+000
1.983335e+003,9.400017e+000
1.984300e+003,9.137749e+000
1.985264e+003,9.214355e+000
1.986228e+003,1.022426e+001
1.987192e+003,1.174249e+001
1.988157e+003,1.141343e+001
1.989121e+003,8.571251e+000
1.990085e+003,7.495605e+000
1.991049e+003,9.443283e+000
1.992014e+003,1.066629e+001
1.992978e+003,1.015971e+001
1.993942e+003,9.587486e+000
1.994906e+003,9.678925e+000
1.995871e+003,9.745285e+000
1.996835e+003,8.965553e+000
1.997799e+003,8.058456e+000
1.998763e+003,8.196663e+000
1.999728e+003,9.187088e+000
