5.003444e+002,4.002151e+001
5.013087e+002,3.776617e+001
5.022729e+002,3.686636e+001
5.032371e+002,3.711182e+001
5.042014e+002,3.684991e+001
5.051656e+002,3.619101e+001
5.061298e+002,3.539487e+001
5.070941e+002,3.461887e+001
5.080583e+002,3.371289e+001
5.090225e+002,3.317902e+001
5.099868e+002,3.318716e+001
5.109510e+002,3.324316e+001
5.119152e+002,3.308215e+001
5.128795e+002,3.268884e+001
5.138437e+002,3.242038e+001
5.148079e+002,3.296530e+001
5.157722e+002,3.324298e+001
5.167364e+002,3.262354e+001
5.177006e+002,3.105774e+001
5.186649e+002,2.902072e+001
5.196291e+002,2.679346e+001
5.205933e+002,2.501776e+001
5.215576e+002,2.426324e+001
5.225218e+002,2.440686e+001
5.234860e+002,2.501291e+001
5.244503e+002,2.549942e+001
5.254145e+002,2.603638e+001
5.263787e+002,2.674173e+001
5.273430e+002,2.770782e+001
5.283072e+002,2.878412e+001
5.292714e+002,2.979001e+001
5.302357e+002,3.080960e+001
5.311999e+002,3.082840e+001
5.321641e+002,2.952490e+001
5.331284e+002,2.796765e+001
5.340926e+002,2.692093e+001
5.350568e+002,2.659988e+001
5.360211e+002,2.619940e+001
5.369853e+002,2.525012e+001
5.379495e+002,2.409000e+001
5.389138e+002,2.271698e+001
5.398780e+002,2.119156e+001
5.408422e+002,1.977969e+001
5.418065e+002,1.958539e+001
5.427707e+002,2.038150e+001
5.437349e+002,2.033411e+001
5.446992e+002,1.851007e+001
5.456634e+002,1.575348e+001
5.466276e+002,1.516025e+001
5.475919e+002,2.043271e+001
5.485561e+002,2.342694e+001
5.495203e+002,2.238965e+001
5.504846e+002,1.926224e+001
5.514488e+002,1.696094e+001
5.524130e+002,1.698245e+001
5.533773e+002,1.700955e+001
5.543415e+002,1.550430e+001
5.553057e+002,1.353400e+001
5.562700e+002,1.208325e+001
5.572342e+002,1.173657e+001
5.581984e+002,1.222495e+001
5.591627e+002,1.368146e+001
5.601269e+002,1.562762e+001
5.610911e+002,1.655621e+001
5.620554e+002,1.556686e+001
5.630196e+002,1.286746e+001
5.639838e+002,1.093518e+001
5.649481e+002,9.725769e+000
5.659123e+002,9.328918e+000
5.668765e+002,1.093115e+001
5.678408e+002,1.366595e+001
5.688050e+002,1.463925e+001
5.697692e+002,1.107544e+001
5.707335e+002,7.961182e+000
5.716977e+002,6.564789e+000
5.726619e+002,6.689453e+000
5.736262e+002,8.494873e+000
5.745904e+002,1.260809e+001
5.755546e+002,1.635419e+001
5.765189e+002,1.452814e+001
5.774831e+002,9.450745e+000
5.784473e+002,5.507568e+000
5.794116e+002,5.745728e+000
5.803758e+002,9.732422e+000
5.813400e+002,1.037778e+001
5.823043e+002,6.426025e+000
5.832685e+002,2.905151e+000
5.842327e+002,1.846832e+000
5.851970e+002,3.006836e+000
5.861612e+002,4.087128e+000
5.871254e+002,4.559357e+000
5.880897e+002,4.975952e+000
5.890539e+002,5.621735e+000
5.900181e+002,6.151276e+000
5.909824e+002,5.920929e+000
5.919466e+002,4.260864e+000
5.929108e+002,2.496796e+000
5.938751e+002,1.938660e+000
5.948393e+002,2.212860e+000
5.958035e+002,2.827148e+000
5.967678e+002,3.440643e+000
5.977320e+002,4.133606e+000
5.986962e+002,5.205292e+000
5.996605e+002,6.527832e+000
6.006247e+002,7.438873e+000
6.015889e+002,7.469635e+000
6.025532e+002,6.714020e+000
6.035174e+002,6.298798e+000
6.044816e+002,6.806488e+000
6.054459e+002,7.098480e+000
6.064101e+002,6.980255e+000
6.073743e+002,6.521881e+000
6.083386e+002,5.860229e+000
6.093028e+002,4.970154e+000
6.102670e+002,4.192749e+000
6.112313e+002,3.564240e+000
6.121955e+002,3.186890e+000
6.131597e+002,3.241760e+000
6.141240e+002,3.839783e+000
6.150882e+002,4.818420e+000
6.160524e+002,5.670868e+000
6.170167e+002,6.494293e+000
6.179809e+002,7.314880e+000
6.189451e+002,8.179718e+000
6.199094e+002,8.918915e+000
6.208736e+002,8.837219e+000
6.218378e+002,7.520447e+000
6.228021e+002,6.093506e+000
6.237663e+002,4.060822e+000
6.247305e+002,2.173492e+000
6.256948e+002,1.758453e+000
6.266590e+002,3.933685e+000
6.276232e+002,5.851593e+000
6.285875e+002,5.871002e+000
6.295517e+002,4.983887e+000
6.305159e+002,4.129547e+000
6.314802e+002,3.778961e+000
6.324444e+002,3.550262e+000
6.334086e+002,2.064423e+000
6.343729e+002,5.554199e-003
6.353371e+002,-5.274048e-001
6.363013e+002,1.538147e+000
6.372656e+002,5.051300e+000
6.382298e+002,5.981720e+000
6.391940e+002,1.086731e+000
6.401583e+002,-2.443451e+000
6.411225e+002,-3.716522e+000
6.420867e+002,-3.679474e+000
6.430510e+002,-3.540955e+000
6.440152e+002,-3.759399e+000
6.449794e+002,-3.867188e+000
6.459437e+002,-3.620911e+000
6.469079e+002,-3.189331e+000
6.478721e+002,-2.460266e+000
6.488364e+002,-1.463837e+000
6.498006e+002,-5.974121e-001
6.507648e+002,-1.111511e+000
6.517291e+002,-2.335846e+000
6.526933e+002,-2.254517e+000
6.536575e+002,-4.251099e-001
6.546218e+002,2.124786e+000
6.555860e+002,3.476074e+000
6.565502e+002,3.318939e+000
6.575145e+002,2.172852e+000
6.584787e+002,-1.114594e+000
6.594429e+002,-4.324524e+000
6.604072e+002,-5.600983e+000
6.613714e+002,-4.550049e+000
6.623356e+002,-3.024841e+000
6.632999e+002,-1.315613e+000
6.642641e+002,-7.745361e-002
6.652283e+002,2.486572e-001
6.661926e+002,-1.616516e-001
6.671568e+002,-7.525635e-001
6.681210e+002,-1.095734e+000
6.690853e+002,-1.095001e+000
6.700495e+002,-1.212158e-001
6.710137e+002,1.724976e+000
6.719780e+002,3.092743e+000
6.729422e+002,2.412567e+000
6.739064e+002,-9.122009e-001
6.748707e+002,-3.085175e+000
6.758349e+002,-3.385620e+000
6.767991e+002,-3.778687e+000
6.777634e+002,-5.591522e+000
6.787276e+002,-8.346130e+000
6.796918e+002,-9.225647e+000
6.806561e+002,-5.140747e+000
6.816203e+002,-1.485168e+000
6.825845e+002,-4.404907e-001
6.835488e+002,-1.235138e+000
6.845130e+002,-2.478699e+000
6.854772e+002,-3.182129e+000
6.864415e+002,-3.303589e+000
6.874057e+002,-2.994812e+000
6.883699e+002,-2.515686e+000
6.893342e+002,-1.984863e+000
6.902984e+002,-1.372253e+000
6.912626e+002,-7.614746e-001
6.922269e+002,-1.072479e+000
6.931911e+002,-3.082977e+000
6.941553e+002,-4.513763e+000
6.951196e+002,-5.220795e+000
6.960838e+002,-5.529175e+000
6.970480e+002,-6.006561e+000
6.980123e+002,-7.207458e+000
6.989765e+002,-7.069824e+000
6.999407e+002,-3.646423e+000
7.009050e+002,2.803345e-001
7.018692e+002,2.489990e+000
7.028334e+002,2.230957e+000
7.037977e+002,5.491943e-001
7.047619e+002,-1.387268e+000
7.057261e+002,-3.161835e+000
7.066904e+002,-4.125092e+000
7.076546e+002,-4.171967e+000
7.086188e+002,-3.582397e+000
7.095831e+002,-2.761505e+000
7.105473e+002,-1.664032e+000
7.115115e+002,-7.593994e-001
7.124758e+002,3.338623e-001
7.134400e+002,8.349609e-001
7.144042e+002,-4.769897e-002
7.153685e+002,-2.205780e+000
7.163327e+002,-3.779480e+000
7.172969e+002,-3.390076e+000
7.182612e+002,-2.637695e+000
7.192254e+002,-1.936005e+000
7.201896e+002,-1.481140e+000
7.211539e+002,-1.486237e+000
7.221181e+002,-2.189087e+000
7.230823e+002,-3.144379e+000
7.240466e+002,-2.965454e+000
7.250108e+002,-1.817383e+000
7.259750e+002,-8.392639e-001
7.269393e+002,-8.511047e-001
7.279035e+002,-1.894562e+000
7.288677e+002,-2.937622e+000
7.298320e+002,-4.313843e+000
7.307962e+002,-4.536713e+000
7.317604e+002,-2.569946e+000
7.327247e+002,2.827148e-001
7.336889e+002,2.053802e+000
7.346531e+002,1.798218e+000
7.356174e+002,9.298401e-001
7.365816e+002,6.166077e-001
7.375458e+002,4.312744e-001
7.385101e+002,-1.767578e-001
7.394743e+002,-1.224457e+000
7.404385e+002,-2.054993e+000
7.414028e+002,-1.473022e+000
7.423670e+002,-2.445374e-001
7.433312e+002,-5.643921e-001
7.442955e+002,-2.481689e+000
7.452597e+002,-4.444702e+000
7.462239e+002,-4.724945e+000
7.471882e+002,-2.879272e+000
7.481524e+002,-1.541901e+000
7.491166e+002,-1.040344e+000
7.500809e+002,-1.011444e+000
7.510451e+002,-1.670166e+000
7.520093e+002,-2.730591e+000
7.529736e+002,-3.257233e+000
7.539378e+002,-2.246277e+000
7.549020e+002,-1.044006e+000
7.558663e+002,-9.617615e-001
7.568306e+002,-1.174988e+000
7.577948e+002,-2.161560e-001
7.587590e+002,2.615997e+000
7.597233e+002,6.013855e+000
7.606875e+002,5.827148e+000
7.616517e+002,2.656982e+000
7.626160e+002,1.415405e-001
7.635802e+002,-7.657776e-001
7.645444e+002,-5.174561e-001
7.655087e+002,-5.371094e-003
7.664729e+002,9.221191e-001
7.674371e+002,1.665802e+000
7.684014e+002,2.444702e+000
7.693656e+002,2.827545e+000
7.703298e+002,2.298065e+000
7.712941e+002,9.487305e-001
7.722583e+002,-1.667480e-001
7.732225e+002,-4.888916e-002
7.741868e+002,3.930359e-001
7.751510e+002,5.296631e-001
7.761152e+002,3.764648e-001
7.770795e+002,-6.854248e-002
7.780437e+002,-8.440552e-001
7.790079e+002,-1.783264e+000
7.799722e+002,-4.088135e-001
7.809364e+002,3.573059e+000
7.819006e+002,6.553314e+000
7.828649e+002,6.479675e+000
7.838291e+002,4.495575e+000
7.847933e+002,4.435730e+000
7.857576e+002,8.583038e+000
7.867218e+002,1.029340e+001
7.876860e+002,7.053406e+000
7.886503e+002,2.587555e+000
7.896145e+002,-1.583557e-001
7.905787e+002,-3.782654e-001
7.915430e+002,4.585876e-001
7.925072e+002,7.636108e-001
7.934714e+002,1.098724e+000
7.944357e+002,2.971741e+000
7.953999e+002,6.107574e+000
7.963641e+002,8.426758e+000
7.973284e+002,7.424469e+000
7.982926e+002,2.808502e+000
7.992568e+002,5.725708e-001
8.002211e+002,1.273743e+000
8.011853e+002,1.925507e+000
8.021495e+002,1.368378e+000
8.031138e+002,2.967529e-001
8.040780e+002,6.668701e-001
8.050422e+002,4.029846e+000
8.060065e+002,6.324982e+000
8.069707e+002,5.365814e+000
8.079349e+002,3.208710e+000
8.088992e+002,2.116089e+000
8.098634e+002,2.864319e+000
8.108276e+002,3.938568e+000
8.117919e+002,2.564880e+000
8.127561e+002,-2.365417e-001
8.137203e+002,-1.878052e+000
8.146846e+002,-1.890594e+000
8.156488e+002,-8.177185e-001
8.166130e+002,6.810303e-001
8.175773e+002,2.759460e+000
8.185415e+002,4.052002e+000
8.195057e+002,4.092133e+000
8.204700e+002,3.803162e+000
8.214342e+002,3.138947e+000
8.223984e+002,2.388306e+000
8.233627e+002,2.342041e+000
8.243269e+002,3.743683e+000
8.252911e+002,5.071777e+000
8.262554e+002,4.999695e+000
8.272196e+002,4.619690e+000
8.281838e+002,5.360107e+000
8.291481e+002,7.529602e+000
8.301123e+002,9.853699e+000
8.310765e+002,9.959229e+000
8.320408e+002,7.922241e+000
8.330050e+002,6.351990e+000
8.339692e+002,5.484955e+000
8.349335e+002,4.903564e+000
8.358977e+002,4.222504e+000
8.368619e+002,3.471466e+000
8.378262e+002,3.085358e+000
8.387904e+002,2.741669e+000
8.397546e+002,2.894073e+000
8.407189e+002,4.269165e+000
8.416831e+002,6.108765e+000
8.426473e+002,6.957703e+000
8.436116e+002,5.945892e+000
8.445758e+002,4.913544e+000
8.455400e+002,6.098755e+000
8.465043e+002,7.899658e+000
8.474685e+002,8.733978e+000
8.484327e+002,8.293030e+000
8.493970e+002,7.250885e+000
8.503612e+002,6.504395e+000
8.513254e+002,5.992737e+000
8.522897e+002,5.919952e+000
8.532539e+002,6.436798e+000
8.542181e+002,6.924896e+000
8.551824e+002,6.965546e+000
8.561466e+002,6.838348e+000
8.571108e+002,7.673950e+000
8.580751e+002,1.066437e+001
8.590393e+002,1.249072e+001
8.600035e+002,1.154572e+001
8.609678e+002,9.519257e+000
8.619320e+002,8.098755e+000
8.628962e+002,8.001373e+000
8.638605e+002,8.912262e+000
8.648247e+002,1.124133e+001
8.657889e+002,1.392642e+001
8.667532e+002,1.425964e+001
8.677174e+002,1.189755e+001
8.686816e+002,9.262878e+000
8.696459e+002,9.334595e+000
8.706101e+002,1.272699e+001
8.715743e+002,1.485553e+001
8.725386e+002,1.491284e+001
8.735028e+002,1.491711e+001
8.744670e+002,1.520316e+001
8.754313e+002,1.557828e+001
8.763955e+002,1.570819e+001
8.773597e+002,1.544153e+001
8.783240e+002,1.542105e+001
8.792882e+002,1.627328e+001
8.802524e+002,1.730383e+001
8.812167e+002,1.773578e+001
8.821809e+002,1.758325e+001
8.831451e+002,1.775574e+001
8.841094e+002,1.958105e+001
8.850736e+002,2.298712e+001
8.860378e+002,2.394675e+001
8.870021e+002,2.153680e+001
8.879663e+002,1.983231e+001
8.889305e+002,2.173645e+001
8.898948e+002,2.633987e+001
8.908590e+002,2.922006e+001
8.918232e+002,2.988596e+001
8.927875e+002,2.915814e+001
8.937517e+002,2.558121e+001
8.947159e+002,2.205893e+001
8.956802e+002,2.126520e+001
8.966444e+002,2.343478e+001
8.976086e+002,2.607498e+001
8.985729e+002,2.680682e+001
8.995371e+002,2.669730e+001
9.005013e+002,2.761377e+001
9.014656e+002,2.943512e+001
9.024298e+002,3.100165e+001
9.033940e+002,3.130276e+001
9.043583e+002,3.039081e+001
9.053225e+002,2.972714e+001
9.062867e+002,2.896359e+001
9.072510e+002,2.877103e+001
9.082152e+002,3.012692e+001
9.091794e+002,3.178671e+001
9.101437e+002,3.238727e+001
9.111079e+002,3.168784e+001
9.120721e+002,3.084055e+001
9.130364e+002,3.065598e+001
9.140006e+002,3.005518e+001
9.149648e+002,2.769806e+001
9.159291e+002,2.470331e+001
9.168933e+002,2.347958e+001
9.178575e+002,2.558569e+001
9.188218e+002,2.951532e+001
9.197860e+002,2.998135e+001
9.207502e+002,2.681738e+001
9.217145e+002,2.477600e+001
9.226787e+002,2.537381e+001
9.236429e+002,2.722678e+001
9.246072e+002,2.848901e+001
9.255714e+002,2.903494e+001
9.265356e+002,2.901282e+001
9.274999e+002,2.788358e+001
9.284641e+002,2.666830e+001
9.294283e+002,2.575143e+001
9.303926e+002,2.511395e+001
9.313568e+002,2.470093e+001
9.323210e+002,2.450696e+001
9.332853e+002,2.409351e+001
9.342495e+002,2.224686e+001
9.352137e+002,1.976962e+001
9.361780e+002,1.807983e+001
9.371422e+002,1.759464e+001
9.381064e+002,1.782626e+001
9.390707e+002,1.797711e+001
9.400349e+002,1.781894e+001
9.409991e+002,1.801712e+001
9.419634e+002,1.877155e+001
9.429276e+002,1.949033e+001
9.438918e+002,2.013608e+001
9.448561e+002,2.067770e+001
9.458203e+002,2.106512e+001
9.467845e+002,2.131195e+001
9.477488e+002,2.154041e+001
9.487130e+002,2.176260e+001
9.496772e+002,2.198880e+001
9.506415e+002,2.226468e+001
9.516057e+002,2.255969e+001
9.525699e+002,2.269531e+001
9.535342e+002,2.246005e+001
9.544984e+002,2.191785e+001
9.554626e+002,2.244141e+001
9.564269e+002,2.474835e+001
9.573911e+002,2.592358e+001
9.583553e+002,2.434613e+001
9.593196e+002,2.145233e+001
9.602838e+002,1.950348e+001
9.612480e+002,1.859006e+001
9.622123e+002,1.840918e+001
9.631765e+002,1.999875e+001
9.641407e+002,2.127487e+001
9.651050e+002,2.086868e+001
9.660692e+002,1.929181e+001
9.670334e+002,1.770642e+001
9.679977e+002,1.688983e+001
9.689619e+002,1.713766e+001
9.699261e+002,1.981122e+001
9.708904e+002,2.380127e+001
9.718546e+002,2.603174e+001
9.728188e+002,2.557861e+001
9.737831e+002,2.395288e+001
9.747473e+002,2.304620e+001
9.757115e+002,2.292465e+001
9.766758e+002,2.352505e+001
9.776400e+002,2.572479e+001
9.786042e+002,2.783765e+001
9.795685e+002,2.948441e+001
9.805327e+002,3.058588e+001
9.814969e+002,3.135690e+001
9.824612e+002,3.197174e+001
9.834254e+002,3.194965e+001
9.843896e+002,3.042621e+001
9.853539e+002,2.784970e+001
9.863181e+002,2.389807e+001
9.872823e+002,1.905017e+001
9.882466e+002,1.541342e+001
9.892108e+002,1.499451e+001
9.901750e+002,1.747876e+001
9.911393e+002,1.899197e+001
9.921035e+002,1.854498e+001
9.930677e+002,1.772446e+001
9.940320e+002,1.623019e+001
9.949962e+002,1.496384e+001
9.959604e+002,1.461658e+001
9.969247e+002,1.528922e+001
9.978889e+002,1.705573e+001
9.988531e+002,2.055954e+001
9.998174e+002,2.401208e+001
1.000782e+003,2.667310e+001
1.001746e+003,2.871460e+001
1.002710e+003,3.053156e+001
1.003674e+003,3.219986e+001
1.004639e+003,3.312793e+001
1.005603e+003,3.208630e+001
1.006567e+003,2.878531e+001
1.007531e+003,2.755246e+001
1.008495e+003,2.933673e+001
1.009460e+003,3.121997e+001
1.010424e+003,3.138071e+001
1.011388e+003,3.027301e+001
1.012352e+003,2.959775e+001
1.013317e+003,2.968530e+001
1.014281e+003,2.974594e+001
1.015245e+003,3.013635e+001
1.016209e+003,2.979407e+001
1.017174e+003,2.751270e+001
1.018138e+003,2.368735e+001
1.019102e+003,1.996811e+001
1.020066e+003,1.774814e+001
1.021031e+003,1.662411e+001
1.021995e+003,1.504654e+001
1.022959e+003,1.301108e+001
1.023923e+003,1.164258e+001
1.024887e+003,1.169370e+001
1.025852e+003,1.183701e+001
1.026816e+003,9.297699e+000
1.027780e+003,2.863068e+000
1.028744e+003,1.577148e-001
1.029709e+003,5.888031e+000
1.030673e+003,1.045441e+001
1.031637e+003,1.020276e+001
1.032601e+003,7.321716e+000
1.033566e+003,5.151001e+000
1.034530e+003,4.910339e+000
1.035494e+003,5.108124e+000
1.036458e+003,3.492004e+000
1.037422e+003,1.575195e+000
1.038387e+003,2.534943e+000
1.039351e+003,6.057739e+000
1.040315e+003,8.937592e+000
1.041279e+003,8.711609e+000
1.042244e+003,6.199127e+000
1.043208e+003,5.218170e+000
1.044172e+003,7.436493e+000
1.045136e+003,7.972260e+000
1.046101e+003,5.033844e+000
1.047065e+003,2.314331e+000
1.048029e+003,2.868134e+000
1.048993e+003,5.802612e+000
1.049958e+003,7.175964e+000
1.050922e+003,4.625427e+000
1.051886e+003,1.651489e+000
1.052850e+003,1.878693e+000
1.053814e+003,3.774536e+000
1.054779e+003,5.676727e+000
1.055743e+003,7.085327e+000
1.056707e+003,8.188843e+000
1.057671e+003,9.277222e+000
1.058636e+003,1.032135e+001
1.059600e+003,9.881226e+000
1.060564e+003,6.008453e+000
1.061528e+003,3.927795e+000
1.062493e+003,6.068420e+000
1.063457e+003,8.903625e+000
1.064421e+003,8.100128e+000
1.065385e+003,3.325745e+000
1.066349e+003,-6.593628e-001
1.067314e+003,-1.152069e+000
1.068278e+003,-3.776855e-001
1.069242e+003,2.422791e-001
1.070206e+003,9.306335e-001
1.071171e+003,2.359619e+000
1.072135e+003,4.596924e+000
1.073099e+003,6.593933e+000
1.074063e+003,6.632141e+000
1.075028e+003,4.527374e+000
1.075992e+003,3.371674e+000
1.076956e+003,3.205261e+000
1.077920e+003,3.430023e+000
1.078885e+003,4.613678e+000
1.079849e+003,5.984924e+000
1.080813e+003,5.743225e+000
1.081777e+003,3.323853e+000
1.082741e+003,1.267944e+000
1.083706e+003,4.124756e-001
1.084670e+003,4.013672e-001
1.085634e+003,1.937134e+000
1.086598e+003,4.059082e+000
1.087563e+003,5.017487e+000
1.088527e+003,3.972076e+000
1.089491e+003,2.042450e+000
1.090455e+003,1.223633e+000
1.091420e+003,1.550201e+000
1.092384e+003,1.368622e+000
1.093348e+003,2.165527e-001
1.094312e+003,-8.212280e-001
1.095276e+003,-1.013580e+000
1.096241e+003,-4.359741e-001
1.097205e+003,5.464172e-001
1.098169e+003,2.081360e+000
1.099133e+003,3.123230e+000
1.100098e+003,2.796448e+000
1.101062e+003,2.478577e+000
1.102026e+003,3.519897e+000
1.102990e+003,5.278137e+000
1.103955e+003,5.821991e+000
1.104919e+003,3.990601e+000
1.105883e+003,1.308075e+000
1.106847e+003,1.328552e+000
1.107812e+003,4.084656e+000
1.108776e+003,5.673065e+000
1.109740e+003,5.813263e+000
1.110704e+003,5.039856e+000
1.111668e+003,2.974609e+000
1.112633e+003,3.421631e-001
1.113597e+003,4.227905e-001
1.114561e+003,5.386841e+000
1.115525e+003,8.313354e+000
1.116490e+003,4.882446e+000
1.117454e+003,1.037140e+000
1.118418e+003,1.110168e+000
1.119382e+003,4.290253e+000
1.120347e+003,7.184418e+000
1.121311e+003,7.594391e+000
1.122275e+003,6.378540e+000
1.123239e+003,5.367584e+000
1.124203e+003,4.836792e+000
1.125168e+003,5.426880e+000
1.126132e+003,7.516388e+000
1.127096e+003,1.000970e+001
1.128060e+003,1.195886e+001
1.129025e+003,1.348264e+001
1.129989e+003,1.568335e+001
1.130953e+003,1.987674e+001
1.131917e+003,2.156696e+001
1.132882e+003,1.694965e+001
1.133846e+003,1.251352e+001
1.134810e+003,1.295053e+001
1.135774e+003,1.687372e+001
1.136739e+003,2.001123e+001
1.137703e+003,1.995239e+001
1.138667e+003,1.854620e+001
1.139631e+003,1.891721e+001
1.140595e+003,2.099963e+001
1.141560e+003,2.362268e+001
1.142524e+003,2.685941e+001
1.143488e+003,3.065894e+001
1.144452e+003,3.474216e+001
1.145417e+003,3.929819e+001
1.146381e+003,4.519962e+001
1.147345e+003,5.304227e+001
1.148309e+003,6.054889e+001
1.149274e+003,6.715552e+001
1.150238e+003,7.348795e+001
1.151202e+003,7.979453e+001
1.152166e+003,8.624261e+001
1.153130e+003,9.298386e+001
1.154095e+003,9.992859e+001
1.155059e+003,1.066777e+002
1.156023e+003,1.134476e+002
1.156987e+003,1.195885e+002
1.157952e+003,1.211490e+002
1.158916e+003,1.178965e+002
1.159880e+003,1.133342e+002
1.160844e+003,1.089235e+002
1.161809e+003,1.040107e+002
1.162773e+003,9.744354e+001
1.163737e+003,8.888666e+001
1.164701e+003,8.025458e+001
1.165666e+003,7.111124e+001
1.166630e+003,6.320178e+001
1.167594e+003,5.786133e+001
1.168558e+003,5.381430e+001
1.169522e+003,4.891321e+001
1.170487e+003,4.280930e+001
1.171451e+003,3.795441e+001
1.172415e+003,3.735068e+001
1.173379e+003,3.993097e+001
1.174344e+003,3.992093e+001
1.175308e+003,3.725146e+001
1.176272e+003,3.517352e+001
1.177236e+003,3.523141e+001
1.178201e+003,3.610272e+001
1.179165e+003,3.609192e+001
1.180129e+003,3.508670e+001
1.181093e+003,3.351059e+001
1.182057e+003,3.084531e+001
1.183022e+003,2.869308e+001
1.183986e+003,2.793503e+001
1.184950e+003,2.771384e+001
1.185914e+003,2.712195e+001
1.186879e+003,2.620862e+001
1.187843e+003,2.583820e+001
1.188807e+003,2.669031e+001
1.189771e+003,2.818805e+001
1.190736e+003,2.878922e+001
1.191700e+003,2.840726e+001
1.192664e+003,2.766690e+001
1.193628e+003,2.625040e+001
1.194593e+003,2.515063e+001
1.195557e+003,2.547079e+001
1.196521e+003,2.665173e+001
1.197485e+003,2.675089e+001
1.198449e+003,2.532516e+001
1.199414e+003,2.338974e+001
1.200378e+003,2.081412e+001
1.201342e+003,1.844385e+001
1.202306e+003,1.670172e+001
1.203271e+003,1.554291e+001
1.204235e+003,1.499704e+001
1.205199e+003,1.500980e+001
1.206163e+003,1.499863e+001
1.207128e+003,1.386148e+001
1.208092e+003,1.151831e+001
1.209056e+003,1.044385e+001
1.210020e+003,1.159473e+001
1.210984e+003,1.192786e+001
1.211949e+003,9.901520e+000
1.212913e+003,6.949493e+000
1.213877e+003,5.083832e+000
1.214841e+003,4.444000e+000
1.215806e+003,3.429535e+000
1.216770e+003,1.029785e+000
1.217734e+003,-1.338287e+000
1.218698e+003,-2.572418e+000
1.219663e+003,-3.408203e+000
1.220627e+003,-4.855743e+000
1.221591e+003,-6.963470e+000
1.222555e+003,-8.867996e+000
1.223520e+003,-9.727173e+000
1.224484e+003,-9.769363e+000
1.225448e+003,-1.037457e+001
1.226412e+003,-1.195055e+001
1.227376e+003,-1.327032e+001
1.228341e+003,-1.500775e+001
1.229305e+003,-1.585283e+001
1.230269e+003,-1.451678e+001
1.231233e+003,-1.195802e+001
1.232198e+003,-9.955582e+000
1.233162e+003,-8.891403e+000
1.234126e+003,-8.415115e+000
1.235090e+003,-8.535858e+000
1.236055e+003,-9.129395e+000
1.237019e+003,-1.008417e+001
1.237983e+003,-1.136888e+001
1.238947e+003,-1.296307e+001
1.239911e+003,-1.478047e+001
1.240876e+003,-1.626089e+001
1.241840e+003,-1.659647e+001
1.242804e+003,-1.572392e+001
1.243768e+003,-1.477660e+001
1.244733e+003,-1.336945e+001
1.245697e+003,-1.242450e+001
1.246661e+003,-1.283443e+001
1.247625e+003,-1.323734e+001
1.248590e+003,-1.216849e+001
1.249554e+003,-1.002104e+001
1.250518e+003,-8.444962e+000
1.251482e+003,-8.264267e+000
1.252447e+003,-8.806656e+000
1.253411e+003,-9.578140e+000
1.254375e+003,-1.013490e+001
1.255339e+003,-9.441833e+000
1.256303e+003,-7.469666e+000
1.257268e+003,-5.645569e+000
1.258232e+003,-4.899994e+000
1.259196e+003,-4.930634e+000
1.260160e+003,-5.151215e+000
1.261125e+003,-5.650787e+000
1.262089e+003,-4.980377e+000
1.263053e+003,-1.158447e+000
1.264017e+003,1.245178e+000
1.264982e+003,4.281616e-002
1.265946e+003,-2.105103e+000
1.266910e+003,-2.912994e+000
1.267874e+003,-2.103302e+000
1.268839e+003,-2.214661e-001
1.269803e+003,2.417572e+000
1.270767e+003,4.779480e+000
1.271731e+003,4.544952e+000
1.272695e+003,1.859039e+000
1.273660e+003,4.473877e-001
1.274624e+003,7.817078e-001
1.275588e+003,7.860413e-001
1.276552e+003,-1.269012e+000
1.277517e+003,-3.889648e+000
1.278481e+003,-3.914703e+000
1.279445e+003,-9.539490e-001
1.280409e+003,6.991577e-001
1.281374e+003,-1.151062e+000
1.282338e+003,-3.511169e+000
1.283302e+003,-4.978088e+000
1.284266e+003,-5.989746e+000
1.285230e+003,-7.117569e+000
1.286195e+003,-8.419815e+000
1.287159e+003,-9.513763e+000
1.288123e+003,-1.002582e+001
1.289087e+003,-1.004820e+001
1.290052e+003,-1.012666e+001
1.291016e+003,-1.051698e+001
1.291980e+003,-1.032443e+001
1.292944e+003,-8.536728e+000
1.293909e+003,-7.736298e+000
1.294873e+003,-9.875427e+000
1.295837e+003,-1.283279e+001
1.296801e+003,-1.334827e+001
1.297766e+003,-1.118253e+001
1.298730e+003,-9.482147e+000
1.299694e+003,-1.016399e+001
1.300658e+003,-1.161853e+001
1.301622e+003,-1.207698e+001
1.302587e+003,-1.193344e+001
1.303551e+003,-1.198830e+001
1.304515e+003,-1.226796e+001
1.305479e+003,-1.180725e+001
1.306444e+003,-9.668945e+000
1.307408e+003,-6.644257e+000
1.308372e+003,-5.329590e+000
1.309336e+003,-6.280807e+000
1.310301e+003,-7.297073e+000
1.311265e+003,-8.262619e+000
1.312229e+003,-9.134567e+000
1.313193e+003,-1.012392e+001
1.314157e+003,-1.091167e+001
1.315122e+003,-1.104181e+001
1.316086e+003,-1.062343e+001
1.317050e+003,-1.023265e+001
1.318014e+003,-1.019070e+001
1.318979e+003,-1.029839e+001
1.319943e+003,-1.036082e+001
1.320907e+003,-1.028502e+001
1.321871e+003,-9.863464e+000
1.322836e+003,-9.227402e+000
1.323800e+003,-8.350266e+000
1.324764e+003,-6.563141e+000
1.325728e+003,-4.805847e+000
1.326693e+003,-5.149902e+000
1.327657e+003,-7.761810e+000
1.328621e+003,-9.577652e+000
1.329585e+003,-9.066711e+000
1.330549e+003,-8.135712e+000
1.331514e+003,-8.487289e+000
1.332478e+003,-8.973312e+000
1.333442e+003,-7.829224e+000
1.334406e+003,-5.529465e+000
1.335371e+003,-4.485901e+000
1.336335e+003,-6.086136e+000
1.337299e+003,-8.455032e+000
1.338263e+003,-7.913284e+000
1.339228e+003,-3.908539e+000
1.340192e+003,-2.170319e+000
1.341156e+003,-5.089203e+000
1.342120e+003,-6.607300e+000
1.343084e+003,-4.898132e+000
1.344049e+003,-2.595734e+000
1.345013e+003,-1.490143e+000
1.345977e+003,-1.533356e+000
1.346941e+003,-2.315521e+000
1.347906e+003,-3.762909e+000
1.348870e+003,-4.965088e+000
1.349834e+003,-4.873505e+000
1.350798e+003,-4.259247e+000
1.351763e+003,-4.531616e+000
1.352727e+003,-5.528290e+000
1.353691e+003,-6.446564e+000
1.354655e+003,-6.961288e+000
1.355620e+003,-7.378067e+000
1.356584e+003,-8.214279e+000
1.357548e+003,-9.314835e+000
1.358512e+003,-9.596161e+000
1.359476e+003,-8.946136e+000
1.360441e+003,-8.114243e+000
1.361405e+003,-6.608170e+000
1.362369e+003,-5.563095e+000
1.363333e+003,-6.214294e+000
1.364298e+003,-7.344467e+000
1.365262e+003,-6.758057e+000
1.366226e+003,-4.354523e+000
1.367190e+003,-2.597412e+000
1.368155e+003,-3.712616e+000
1.369119e+003,-6.697876e+000
1.370083e+003,-8.373993e+000
1.371047e+003,-8.355804e+000
1.372011e+003,-8.197037e+000
1.372976e+003,-8.418762e+000
1.373940e+003,-8.110535e+000
1.374904e+003,-6.093689e+000
1.375868e+003,-3.795685e+000
1.376833e+003,-3.194672e+000
1.377797e+003,-4.328308e+000
1.378761e+003,-5.931961e+000
1.379725e+003,-7.778366e+000
1.380690e+003,-8.839218e+000
1.381654e+003,-7.016479e+000
1.382618e+003,-4.190262e+000
1.383582e+003,-3.337952e+000
1.384547e+003,-4.305161e+000
1.385511e+003,-4.470398e+000
1.386475e+003,-2.347229e+000
1.387439e+003,3.512878e-001
1.388403e+003,1.128998e+000
1.389368e+003,-2.581787e-002
1.390332e+003,-2.238617e+000
1.391296e+003,-7.053055e+000
1.392260e+003,-9.492157e+000
1.393225e+003,-6.444504e+000
1.394189e+003,-3.214752e+000
1.395153e+003,-2.991608e+000
1.396117e+003,-4.499405e+000
1.397082e+003,-5.528336e+000
1.398046e+003,-5.354004e+000
1.399010e+003,-4.503571e+000
1.399974e+003,-3.499329e+000
1.400938e+003,-2.736481e+000
1.401903e+003,-3.148468e+000
1.402867e+003,-4.921906e+000
1.403831e+003,-5.359772e+000
1.404795e+003,-3.521698e+000
1.405760e+003,-2.009430e+000
1.406724e+003,-2.321960e+000
1.407688e+003,-3.434006e+000
1.408652e+003,-3.826813e+000
1.409617e+003,-3.402374e+000
1.410581e+003,-3.308502e+000
1.411545e+003,-4.161972e+000
1.412509e+003,-4.570435e+000
1.413474e+003,-2.647308e+000
1.414438e+003,1.287842e-002
1.415402e+003,9.547119e-001
1.416366e+003,4.426270e-001
1.417330e+003,-2.603455e-001
1.418295e+003,-7.447205e-001
1.419259e+003,-9.533691e-001
1.420223e+003,-5.582275e-001
1.421187e+003,1.336670e-001
1.422152e+003,-7.027588e-001
1.423116e+003,-4.018051e+000
1.424080e+003,-5.316132e+000
1.425044e+003,-5.732117e-001
1.426009e+003,3.133057e+000
1.426973e+003,1.740326e+000
1.427937e+003,-1.654297e+000
1.428901e+003,-3.257889e+000
1.429865e+003,-2.658539e+000
1.430830e+003,-1.809326e+000
1.431794e+003,-2.067200e+000
1.432758e+003,-2.800919e+000
1.433722e+003,-2.591248e+000
1.434687e+003,-1.182617e+000
1.435651e+003,3.746948e-001
1.436615e+003,2.390900e+000
1.437579e+003,3.195709e+000
1.438544e+003,1.914307e+000
1.439508e+003,2.376099e-001
1.440472e+003,-1.142212e+000
1.441436e+003,-1.770355e+000
1.442401e+003,-6.955261e-001
1.443365e+003,2.026489e+000
1.444329e+003,4.274109e+000
1.445293e+003,4.445496e+000
1.446257e+003,3.518066e+000
1.447222e+003,3.089783e+000
1.448186e+003,3.084106e+000
1.449150e+003,3.435303e+000
1.450114e+003,4.430756e+000
1.451079e+003,4.421387e+000
1.452043e+003,1.176483e+000
1.453007e+003,-2.395370e+000
1.453971e+003,-1.314148e+000
1.454936e+003,3.544006e+000
1.455900e+003,5.204590e+000
1.456864e+003,1.246033e+000
1.457828e+003,-2.272202e+000
1.458792e+003,-9.239502e-001
1.459757e+003,1.281860e+000
1.460721e+003,9.310608e-001
1.461685e+003,-1.041016e+000
1.462649e+003,-2.542358e+000
1.463614e+003,-2.926407e+000
1.464578e+003,-2.647675e+000
1.465542e+003,-2.106125e+000
1.466506e+003,-1.375305e+000
1.467471e+003,-4.153442e-001
1.468435e+003,1.083405e+000
1.469399e+003,2.044128e+000
1.470363e+003,2.010376e+000
1.471328e+003,1.631470e+000
1.472292e+003,3.932495e-001
1.473256e+003,-7.626953e-001
1.474220e+003,-1.033539e+000
1.475184e+003,-4.503784e-001
1.476149e+003,8.647766e-001
1.477113e+003,2.581421e+000
1.478077e+003,3.826172e+000
1.479041e+003,3.825317e+000
1.480006e+003,3.091522e+000
1.480970e+003,3.056427e+000
1.481934e+003,3.809601e+000
1.482898e+003,4.295593e+000
1.483863e+003,4.406219e+000
1.484827e+003,4.372437e+000
1.485791e+003,3.664398e+000
1.486755e+003,3.565063e+000
1.487719e+003,5.806244e+000
1.488684e+003,9.435364e+000
1.489648e+003,1.194739e+001
1.490612e+003,1.261002e+001
1.491576e+003,1.246735e+001
1.492541e+003,1.204501e+001
1.493505e+003,1.175897e+001
1.494469e+003,1.310184e+001
1.495433e+003,1.552393e+001
1.496398e+003,1.597018e+001
1.497362e+003,1.323279e+001
1.498326e+003,1.197107e+001
1.499290e+003,1.572150e+001
1.500255e+003,2.145923e+001
1.501219e+003,2.505939e+001
1.502183e+003,2.675629e+001
1.503147e+003,2.881766e+001
1.504111e+003,3.176080e+001
1.505076e+003,3.492795e+001
1.506040e+003,3.768439e+001
1.507004e+003,4.086774e+001
1.507968e+003,4.517548e+001
1.508933e+003,5.049506e+001
1.509897e+003,5.670740e+001
1.510861e+003,6.395062e+001
1.511825e+003,7.197305e+001
1.512790e+003,8.043350e+001
1.513754e+003,8.941785e+001
1.514718e+003,9.965820e+001
1.515682e+003,1.110065e+002
1.516646e+003,1.209558e+002
1.517611e+003,1.284514e+002
1.518575e+003,1.370153e+002
1.519539e+003,1.507054e+002
1.520503e+003,1.629327e+002
1.521468e+003,1.701769e+002
1.522432e+003,1.736966e+002
1.523396e+003,1.752216e+002
1.524360e+003,1.752598e+002
1.525325e+003,1.736920e+002
1.526289e+003,1.704848e+002
1.527253e+003,1.662703e+002
1.528217e+003,1.623342e+002
1.529182e+003,1.588350e+002
1.530146e+003,1.519359e+002
1.531110e+003,1.396307e+002
1.532074e+003,1.272892e+002
1.533039e+003,1.149716e+002
1.534003e+003,1.025098e+002
1.534967e+003,8.997250e+001
1.535931e+003,7.773326e+001
1.536896e+003,6.556784e+001
1.537860e+003,5.406557e+001
1.538824e+003,4.461966e+001
1.539788e+003,3.783812e+001
1.540752e+003,3.290906e+001
1.541717e+003,2.897302e+001
1.542681e+003,2.588208e+001
1.543645e+003,2.206970e+001
1.544609e+003,1.658238e+001
1.545573e+003,1.338763e+001
1.546538e+003,1.324605e+001
1.547502e+003,1.390958e+001
1.548466e+003,1.572139e+001
1.549430e+003,1.737534e+001
1.550395e+003,1.703407e+001
1.551359e+003,1.525076e+001
1.552323e+003,1.425847e+001
1.553287e+003,1.479089e+001
1.554252e+003,1.517953e+001
1.555216e+003,1.390732e+001
1.556180e+003,1.159430e+001
1.557144e+003,9.518539e+000
1.558109e+003,7.757721e+000
1.559073e+003,6.899673e+000
1.560037e+003,7.464020e+000
1.561001e+003,7.412003e+000
1.561966e+003,5.256409e+000
1.562930e+003,3.337051e+000
1.563894e+003,3.998779e+000
1.564858e+003,6.402313e+000
1.565823e+003,8.911530e+000
1.566787e+003,1.103680e+001
1.567751e+003,1.118468e+001
1.568715e+003,7.952515e+000
1.569679e+003,4.074875e+000
1.570644e+003,3.109619e+000
1.571608e+003,4.032669e+000
1.572572e+003,3.668549e+000
1.573536e+003,1.964066e+000
1.574500e+003,1.978912e+000
1.575465e+003,5.697678e+000
1.576429e+003,9.751068e+000
1.577393e+003,1.130487e+001
1.578357e+003,1.124039e+001
1.579322e+003,1.133188e+001
1.580286e+003,1.172606e+001
1.581250e+003,1.178107e+001
1.582214e+003,1.114183e+001
1.583179e+003,1.074759e+001
1.584143e+003,1.178127e+001
1.585107e+003,1.283078e+001
1.586071e+003,1.194243e+001
1.587036e+003,9.817535e+000
1.588000e+003,8.015625e+000
1.588964e+003,6.717377e+000
1.589928e+003,6.421509e+000
1.590893e+003,8.066788e+000
1.591857e+003,1.036630e+001
1.592821e+003,1.117873e+001
1.593785e+003,1.085126e+001
1.594750e+003,1.149770e+001
1.595714e+003,1.357077e+001
1.596678e+003,1.485295e+001
1.597642e+003,1.399936e+001
1.598606e+003,1.279564e+001
1.599571e+003,1.219922e+001
1.600535e+003,1.246783e+001
1.601499e+003,1.473233e+001
1.602463e+003,1.834940e+001
1.603427e+003,2.009483e+001
1.604392e+003,1.848294e+001
1.605356e+003,1.628816e+001
1.606320e+003,1.670050e+001
1.607284e+003,1.859596e+001
1.608249e+003,1.847891e+001
1.609213e+003,1.626433e+001
1.610177e+003,1.477612e+001
1.611141e+003,1.481787e+001
1.612106e+003,1.476572e+001
1.613070e+003,1.321887e+001
1.614034e+003,1.185042e+001
1.614998e+003,1.229712e+001
1.615963e+003,1.360930e+001
1.616927e+003,1.404062e+001
1.617891e+003,1.335783e+001
1.618855e+003,1.255164e+001
1.619820e+003,1.216640e+001
1.620784e+003,1.173782e+001
1.621748e+003,1.059123e+001
1.622712e+003,9.127258e+000
1.623677e+003,8.847015e+000
1.624641e+003,9.955811e+000
1.625605e+003,1.123792e+001
1.626569e+003,1.249825e+001
1.627533e+003,1.311429e+001
1.628498e+003,1.204256e+001
1.629462e+003,1.118027e+001
1.630426e+003,1.293315e+001
1.631390e+003,1.592007e+001
1.632354e+003,1.674123e+001
1.633319e+003,1.475510e+001
1.634283e+003,1.263791e+001
1.635247e+003,1.234424e+001
1.636211e+003,1.303616e+001
1.637176e+003,1.325652e+001
1.638140e+003,1.311780e+001
1.639104e+003,1.355275e+001
1.640068e+003,1.471890e+001
1.641033e+003,1.573006e+001
1.641997e+003,1.668777e+001
1.642961e+003,1.711247e+001
1.643925e+003,1.651852e+001
1.644890e+003,1.552065e+001
1.645854e+003,1.441846e+001
1.646818e+003,1.344751e+001
1.647782e+003,1.319724e+001
1.648747e+003,1.376547e+001
1.649711e+003,1.416008e+001
1.650675e+003,1.348703e+001
1.651639e+003,1.254463e+001
1.652604e+003,1.322528e+001
1.653568e+003,1.534889e+001
1.654532e+003,1.538586e+001
1.655496e+003,1.218025e+001
1.656460e+003,1.050400e+001
1.657425e+003,1.378964e+001
1.658389e+003,1.616824e+001
1.659353e+003,1.303098e+001
1.660317e+003,8.512161e+000
1.661281e+003,6.811310e+000
1.662246e+003,7.731430e+000
1.663210e+003,9.840546e+000
1.664174e+003,1.259389e+001
1.665138e+003,1.440436e+001
1.666103e+003,1.353819e+001
1.667067e+003,1.136432e+001
1.668031e+003,1.100374e+001
1.668995e+003,1.229849e+001
1.669960e+003,1.222656e+001
1.670924e+003,1.021359e+001
1.671888e+003,8.524231e+000
1.672852e+003,7.693649e+000
1.673817e+003,7.446228e+000
1.674781e+003,7.216965e+000
1.675745e+003,7.670288e+000
1.676709e+003,1.078490e+001
1.677674e+003,1.518005e+001
1.678638e+003,1.625322e+001
1.679602e+003,1.260672e+001
1.680566e+003,8.359650e+000
1.681531e+003,6.641113e+000
1.682495e+003,6.434174e+000
1.683459e+003,5.558456e+000
1.684423e+003,4.307373e+000
1.685387e+003,5.739212e+000
1.686352e+003,1.076984e+001
1.687316e+003,1.336043e+001
1.688280e+003,1.061740e+001
1.689244e+003,6.827652e+000
1.690208e+003,4.329498e+000
1.691173e+003,2.970367e+000
1.692137e+003,3.144623e+000
1.693101e+003,4.492065e+000
1.694065e+003,5.778778e+000
1.695030e+003,6.618500e+000
1.695994e+003,6.766586e+000
1.696958e+003,5.891266e+000
1.697922e+003,4.604233e+000
1.698887e+003,3.604904e+000
1.699851e+003,2.855103e+000
1.700815e+003,1.986359e+000
1.701779e+003,9.357605e-001
1.702744e+003,6.189880e-001
1.703708e+003,1.580887e+000
1.704672e+003,2.906204e+000
1.705636e+003,4.165192e+000
1.706601e+003,4.818039e+000
1.707565e+003,3.964493e+000
1.708529e+003,2.141525e+000
1.709493e+003,6.313934e-001
1.710458e+003,-4.785919e-001
1.711422e+003,-9.174652e-001
1.712386e+003,-6.382751e-002
1.713350e+003,1.078308e+000
1.714314e+003,1.683823e+000
1.715279e+003,1.850113e+000
1.716243e+003,1.812073e+000
1.717207e+003,1.625443e+000
1.718171e+003,1.375061e+000
1.719135e+003,1.112122e+000
1.720100e+003,5.720520e-001
1.721064e+003,-7.132416e-001
1.722028e+003,-1.645370e+000
1.722992e+003,-2.302551e-002
1.723957e+003,3.550690e+000
1.724921e+003,4.765228e+000
1.725885e+003,3.122452e+000
1.726849e+003,1.283524e+000
1.727814e+003,-9.239197e-001
1.728778e+003,-2.024536e+000
1.729742e+003,-5.776062e-001
1.730706e+003,1.441223e+000
1.731671e+003,2.052063e+000
1.732635e+003,1.501694e+000
1.733599e+003,7.819824e-001
1.734563e+003,2.765503e-001
1.735528e+003,1.192932e-001
1.736492e+003,3.169556e-001
1.737456e+003,1.237030e-001
1.738420e+003,-1.498993e+000
1.739385e+003,-3.943466e+000
1.740349e+003,-4.548203e+000
1.741313e+003,-2.799500e+000
1.742277e+003,-1.350342e+000
1.743241e+003,1.484680e-002
1.744206e+003,9.717407e-001
1.745170e+003,1.089249e+000
1.746134e+003,1.105118e+000
1.747098e+003,1.712784e+000
1.748063e+003,2.206604e+000
1.749027e+003,1.458221e+000
1.749991e+003,-8.169556e-002
1.750955e+003,-1.054871e+000
1.751919e+003,-1.040680e+000
1.752884e+003,-6.897125e-001
1.753848e+003,-5.368652e-001
1.754812e+003,-4.955444e-001
1.755776e+003,-2.832947e-001
1.756741e+003,1.916199e-001
1.757705e+003,4.512177e-001
1.758669e+003,4.290924e-001
1.759633e+003,6.852722e-002
1.760598e+003,-1.492996e+000
1.761562e+003,-2.320465e+000
1.762526e+003,-6.381378e-001
1.763490e+003,9.573364e-001
1.764455e+003,4.203339e-001
1.765419e+003,-1.292267e+000
1.766383e+003,-2.913803e+000
1.767347e+003,-4.092133e+000
1.768312e+003,-4.434174e+000
1.769276e+003,-3.770264e+000
1.770240e+003,-3.053009e+000
1.771204e+003,-3.224472e+000
1.772168e+003,-3.732376e+000
1.773133e+003,-3.452713e+000
1.774097e+003,-2.493835e+000
1.775061e+003,-1.923309e+000
1.776025e+003,-1.997223e+000
1.776990e+003,-2.323792e+000
1.777954e+003,-3.000809e+000
1.778918e+003,-2.954620e+000
1.779882e+003,-5.357208e-001
1.780846e+003,2.110107e+000
1.781811e+003,1.697220e+000
1.782775e+003,-7.461700e-001
1.783739e+003,-1.683929e+000
1.784703e+003,-4.162903e-001
1.785668e+003,3.446350e-001
1.786632e+003,-1.178711e+000
1.787596e+003,-2.948868e+000
1.788560e+003,-3.464508e+000
1.789525e+003,-3.024490e+000
1.790489e+003,-1.899094e+000
1.791453e+003,-4.421539e-001
1.792417e+003,8.549500e-001
1.793382e+003,1.789932e+000
1.794346e+003,1.574524e+000
1.795310e+003,-3.132172e-001
1.796274e+003,-2.496231e+000
1.797239e+003,-3.338852e+000
1.798203e+003,-3.054047e+000
1.799167e+003,-2.731094e+000
1.800131e+003,-2.590607e+000
1.801095e+003,-2.625153e+000
1.802060e+003,-2.484528e+000
1.803024e+003,-2.591522e+000
1.803988e+003,-3.902008e+000
1.804952e+003,-4.511475e+000
1.805917e+003,-2.669205e+000
1.806881e+003,-4.223175e-001
1.807845e+003,-1.792908e-002
1.808809e+003,-7.509308e-001
1.809773e+003,-6.120605e-001
1.810738e+003,6.611633e-001
1.811702e+003,1.485382e+000
1.812666e+003,8.713837e-001
1.813630e+003,-2.982788e-001
1.814595e+003,-8.580933e-001
1.815559e+003,-9.821320e-001
1.816523e+003,-1.334991e+000
1.817487e+003,-1.975662e+000
1.818452e+003,-1.641205e+000
1.819416e+003,5.940247e-001
1.820380e+003,1.516068e+000
1.821344e+003,-1.276215e+000
1.822309e+003,-3.632889e+000
1.823273e+003,-2.196808e+000
1.824237e+003,2.822571e-001
1.825201e+003,8.991394e-001
1.826166e+003,1.266327e-001
1.827130e+003,-2.134399e-001
1.828094e+003,1.303558e-001
1.829058e+003,-2.473602e-001
1.830022e+003,-2.386520e+000
1.830987e+003,-4.417175e+000
1.831951e+003,-4.576416e+000
1.832915e+003,-3.840454e+000
1.833879e+003,-3.863693e+000
1.834844e+003,-4.216263e+000
1.835808e+003,-3.016281e+000
1.836772e+003,-2.052307e-001
1.837736e+003,1.823929e+000
1.838700e+003,1.958984e+000
1.839665e+003,1.256882e+000
1.840629e+003,5.662079e-001
1.841593e+003,2.488403e-001
1.842557e+003,1.229797e+000
1.843522e+003,3.461594e+000
1.844486e+003,3.717041e+000
1.845450e+003,2.552185e-001
1.846414e+003,-1.517715e+000
1.847379e+003,-1.746368e-001
1.848343e+003,4.916840e-001
1.849307e+003,-1.701950e+000
1.850271e+003,-3.683136e+000
1.851236e+003,-2.526352e+000
1.852200e+003,-8.499146e-002
1.853164e+003,9.225464e-001
1.854128e+003,2.200012e-001
1.855093e+003,-1.292328e+000
1.856057e+003,-3.008057e+000
1.857021e+003,-4.138733e+000
1.857985e+003,-4.008743e+000
1.858949e+003,-3.423935e+000
1.859914e+003,-4.139069e+000
1.860878e+003,-5.636932e+000
1.861842e+003,-4.640198e+000
1.862806e+003,-1.086761e+000
1.863771e+003,4.962311e-001
1.864735e+003,-1.261002e+000
1.865699e+003,-2.286224e+000
1.866663e+003,-3.853455e-001
1.867627e+003,2.204254e+000
1.868592e+003,3.854935e+000
1.869556e+003,4.444000e+000
1.870520e+003,3.452972e+000
1.871484e+003,1.237732e+000
1.872449e+003,3.870239e-001
1.873413e+003,1.799942e+000
1.874377e+003,3.392258e+000
1.875341e+003,4.882950e+000
1.876306e+003,5.431076e+000
1.877270e+003,3.698364e+000
1.878234e+003,1.537048e+000
1.879198e+003,8.079834e-001
1.880163e+003,1.159943e+000
1.881127e+003,2.101044e+000
1.882091e+003,3.144226e+000
1.883055e+003,2.947861e+000
1.884020e+003,1.150528e+000
1.884984e+003,-1.855621e-001
1.885948e+003,8.601990e-001
1.886912e+003,3.040131e+000
1.887876e+003,3.858765e+000
1.888841e+003,3.448044e+000
1.889805e+003,3.199463e+000
1.890769e+003,3.105240e+000
1.891733e+003,3.245926e+000
1.892698e+003,3.680191e+000
1.893662e+003,4.022354e+000
1.894626e+003,4.611511e+000
1.895590e+003,4.537079e+000
1.896554e+003,2.300644e+000
1.897519e+003,-1.921997e-001
1.898483e+003,-3.683624e-001
1.899447e+003,1.018005e+000
1.900411e+003,1.363022e+000
1.901376e+003,2.293396e-001
1.902340e+003,-7.678986e-001
1.903304e+003,-8.883820e-001
1.904268e+003,-9.894104e-001
1.905233e+003,-2.346466e+000
1.906197e+003,-3.142578e+000
1.907161e+003,-4.926300e-001
1.908125e+003,3.634766e+000
1.909090e+003,5.392578e+000
1.910054e+003,4.732986e+000
1.911018e+003,3.886337e+000
1.911982e+003,3.730530e+000
1.912947e+003,3.706573e+000
1.913911e+003,3.365784e+000
1.914875e+003,3.258987e+000
1.915839e+003,4.292007e+000
1.916803e+003,6.055450e+000
1.917768e+003,6.995163e+000
1.918732e+003,7.204269e+000
1.919696e+003,6.422913e+000
1.920660e+003,4.193512e+000
1.921625e+003,2.509003e+000
1.922589e+003,2.041733e+000
1.923553e+003,1.626740e+000
1.924517e+003,2.350006e-001
1.925481e+003,-9.452515e-001
1.926446e+003,-3.390503e-001
1.927410e+003,1.044205e+000
1.928374e+003,6.618195e-001
1.929338e+003,-1.449234e+000
1.930303e+003,-1.654495e+000
1.931267e+003,1.868958e+000
1.932231e+003,4.953018e+000
1.933195e+003,5.515579e+000
1.934160e+003,5.014969e+000
1.935124e+003,3.996048e+000
1.936088e+003,2.864639e+000
1.937052e+003,2.253662e+000
1.938017e+003,2.025421e+000
1.938981e+003,1.788193e+000
1.939945e+003,1.347794e+000
1.940909e+003,2.655640e-001
1.941874e+003,-1.549973e+000
1.942838e+003,-2.875336e+000
1.943802e+003,-2.470901e+000
1.944766e+003,-7.803040e-001
1.945730e+003,1.312683e+000
1.946695e+003,3.575119e+000
1.947659e+003,4.526169e+000
1.948623e+003,3.980469e+000
1.949587e+003,4.031158e+000
1.950552e+003,5.224457e+000
1.951516e+003,5.816071e+000
1.952480e+003,4.646484e+000
1.953444e+003,4.042908e+000
1.954408e+003,6.466232e+000
1.955373e+003,9.368500e+000
1.956337e+003,8.838608e+000
1.957301e+003,6.031921e+000
1.958265e+003,4.643188e+000
1.959230e+003,4.938644e+000
1.960194e+003,5.211380e+000
1.961158e+003,4.980530e+000
1.962122e+003,4.695374e+000
1.963087e+003,4.231110e+000
1.964051e+003,4.095367e+000
1.965015e+003,5.184204e+000
1.965979e+003,6.425720e+000
1.966944e+003,6.297104e+000
1.967908e+003,5.467911e+000
1.968872e+003,5.500244e+000
1.969836e+003,6.517181e+000
1.970801e+003,7.763962e+000
1.971765e+003,8.837204e+000
1.972729e+003,8.879013e+000
1.973693e+003,6.843292e+000
1.974657e+003,4.312775e+000
1.975622e+003,3.541306e+000
1.976586e+003,4.099380e+000
1.977550e+003,5.291748e+000
1.978514e+003,6.920731e+000
1.979479e+003,7.790146e+000
1.980443e+003,7.735733e+000
1.981407e+003,7.672592e+000
1.982371e+003,7.995010e+000
1.983335e+003,8.204102e+000
1.984300e+003,7.842484e+000
1.985264e+003,7.165298e+000
1.986228e+003,6.677460e+000
1.987192e+003,6.249435e+000
1.988157e+003,5.132660e+000
1.989121e+003,2.973892e+000
1.990085e+003,2.285141e+000
1.991049e+003,4.261902e+000
1.992014e+003,5.410675e+000
1.992978e+003,3.836533e+000
1.993942e+003,3.292175e+000
1.994906e+003,6.241226e+000
1.995871e+003,9.449402e+000
1.996835e+003,1.044363e+001
1.997799e+003,1.032602e+001
1.998763e+003,1.086584e+001
1.999728e+003,1.185390e+001
