5.003444e+002,3.320673e+001
5.013087e+002,3.322015e+001
5.022729e+002,3.210901e+001
5.032371e+002,3.047241e+001
5.042014e+002,2.922833e+001
5.051656e+002,2.837463e+001
5.061298e+002,2.729535e+001
5.070941e+002,2.514099e+001
5.080583e+002,2.103131e+001
5.090225e+002,2.018427e+001
5.099868e+002,2.460193e+001
5.109510e+002,2.904291e+001
5.119152e+002,3.098419e+001
5.128795e+002,3.024585e+001
5.138437e+002,2.855115e+001
5.148079e+002,2.546960e+001
5.157722e+002,2.268030e+001
5.167364e+002,2.082056e+001
5.177006e+002,1.983466e+001
5.186649e+002,1.911591e+001
5.196291e+002,1.841608e+001
5.205933e+002,1.801007e+001
5.215576e+002,1.742535e+001
5.225218e+002,1.649750e+001
5.234860e+002,1.566901e+001
5.244503e+002,1.616461e+001
5.254145e+002,1.900598e+001
5.263787e+002,2.102759e+001
5.273430e+002,2.233521e+001
5.283072e+002,2.278912e+001
5.292714e+002,2.172437e+001
5.302357e+002,1.722900e+001
5.311999e+002,1.432733e+001
5.321641e+002,1.527051e+001
5.331284e+002,1.727875e+001
5.340926e+002,1.796558e+001
5.350568e+002,1.621057e+001
5.360211e+002,1.376068e+001
5.369853e+002,1.247583e+001
5.379495e+002,1.191077e+001
5.389138e+002,1.174030e+001
5.398780e+002,1.171252e+001
5.408422e+002,1.165295e+001
5.418065e+002,1.103845e+001
5.427707e+002,1.000269e+001
5.437349e+002,9.820923e+000
5.446992e+002,1.103931e+001
5.456634e+002,1.309741e+001
5.466276e+002,1.416339e+001
5.475919e+002,1.385693e+001
5.485561e+002,1.305597e+001
5.495203e+002,1.060010e+001
5.504846e+002,7.780334e+000
5.514488e+002,6.750061e+000
5.524130e+002,9.237854e+000
5.533773e+002,1.201093e+001
5.543415e+002,1.390045e+001
5.553057e+002,1.489484e+001
5.562700e+002,1.476532e+001
5.572342e+002,1.333337e+001
5.581984e+002,1.098700e+001
5.591627e+002,8.558411e+000
5.601269e+002,6.403748e+000
5.610911e+002,4.943604e+000
5.620554e+002,4.292603e+000
5.630196e+002,4.295715e+000
5.639838e+002,4.870544e+000
5.649481e+002,6.881531e+000
5.659123e+002,8.254089e+000
5.668765e+002,8.908813e+000
5.678408e+002,9.171326e+000
5.688050e+002,9.372864e+000
5.697692e+002,8.946594e+000
5.707335e+002,8.198242e+000
5.716977e+002,7.705200e+000
5.726619e+002,7.107056e+000
5.736262e+002,5.607666e+000
5.745904e+002,2.434814e+000
5.755546e+002,-4.586182e-001
5.765189e+002,-1.235352e-001
5.774831e+002,1.982910e+000
5.784473e+002,3.921692e+000
5.794116e+002,4.517151e+000
5.803758e+002,4.121460e+000
5.813400e+002,4.106750e+000
5.823043e+002,4.308289e+000
5.832685e+002,3.847595e+000
5.842327e+002,2.265137e+000
5.851970e+002,5.926514e-002
5.861612e+002,-9.873657e-001
5.871254e+002,2.515869e-001
5.880897e+002,1.237854e+000
5.890539e+002,1.050293e+000
5.900181e+002,1.725464e-001
5.909824e+002,-3.619995e-001
5.919466e+002,3.496704e-001
5.929108e+002,1.394714e+000
5.938751e+002,1.925842e+000
5.948393e+002,1.989014e+000
5.958035e+002,1.652405e+000
5.967678e+002,1.022644e+000
5.977320e+002,2.622070e-001
5.986962e+002,-6.051636e-001
5.996605e+002,-2.013123e+000
6.006247e+002,-3.322876e+000
6.015889e+002,-4.563660e+000
6.025532e+002,-5.601501e+000
6.035174e+002,-5.174683e+000
6.044816e+002,-6.831055e-001
6.054459e+002,2.637695e+000
6.064101e+002,3.462891e+000
6.073743e+002,2.657593e+000
6.083386e+002,2.005737e+000
6.093028e+002,2.764587e+000
6.102670e+002,3.288513e+000
6.112313e+002,1.502563e+000
6.121955e+002,-1.090698e+000
6.131597e+002,-2.398499e+000
6.141240e+002,-1.024963e+000
6.150882e+002,2.189453e+000
6.160524e+002,4.156860e+000
6.170167e+002,5.261780e+000
6.179809e+002,5.712952e+000
6.189451e+002,5.401001e+000
6.199094e+002,4.169006e+000
6.208736e+002,2.125061e+000
6.218378e+002,-2.470825e+000
6.228021e+002,-5.029175e+000
6.237663e+002,-3.831848e+000
6.247305e+002,-5.682983e-001
6.256948e+002,1.968323e+000
6.266590e+002,2.426270e+000
6.276232e+002,1.723206e+000
6.285875e+002,5.465698e-001
6.295517e+002,-6.536255e-001
6.305159e+002,-1.540344e+000
6.314802e+002,-2.029358e+000
6.324444e+002,-2.414307e+000
6.334086e+002,-3.347290e+000
6.343729e+002,-4.264954e+000
6.353371e+002,-3.829956e+000
6.363013e+002,-1.375061e+000
6.372656e+002,2.187988e+000
6.382298e+002,3.895325e+000
6.391940e+002,2.241028e+000
6.401583e+002,9.887695e-002
6.411225e+002,-2.626648e+000
6.420867e+002,-5.019226e+000
6.430510e+002,-6.139343e+000
6.440152e+002,-5.703857e+000
6.449794e+002,-5.371582e+000
6.459437e+002,-6.359985e+000
6.469079e+002,-7.525452e+000
6.478721e+002,-7.904114e+000
6.488364e+002,-7.080994e+000
6.498006e+002,-5.339478e+000
6.507648e+002,-2.602722e+000
6.517291e+002,2.651978e-001
6.526933e+002,1.095276e+000
6.536575e+002,-6.283569e-001
6.546218e+002,-3.800781e+000
6.555860e+002,-6.379883e+000
6.565502e+002,-8.699524e+000
6.575145e+002,-9.384094e+000
6.584787e+002,-7.680725e+000
6.594429e+002,-5.143799e+000
6.604072e+002,-2.538635e+000
6.613714e+002,1.951904e-001
6.623356e+002,1.603882e+000
6.632999e+002,-4.929810e-001
6.642641e+002,-3.233521e+000
6.652283e+002,-4.956543e+000
6.661926e+002,-5.394043e+000
6.671568e+002,-5.423584e+000
6.681210e+002,-6.459534e+000
6.690853e+002,-7.851807e+000
6.700495e+002,-7.284851e+000
6.710137e+002,-4.843689e+000
6.719780e+002,-2.404846e+000
6.729422e+002,-2.121460e+000
6.739064e+002,-4.771362e+000
6.748707e+002,-5.684937e+000
6.758349e+002,-3.950867e+000
6.767991e+002,-2.238647e+000
6.777634e+002,-1.307312e+000
6.787276e+002,-9.033203e-001
6.796918e+002,-4.573975e-001
6.806561e+002,-7.049561e-002
6.816203e+002,-1.464844e-003
6.825845e+002,-4.632568e-001
6.835488e+002,-1.253052e+000
6.845130e+002,-2.141724e+000
6.854772e+002,-2.964478e+000
6.864415e+002,-3.142517e+000
6.874057e+002,-1.385864e+000
6.883699e+002,1.175964e+000
6.893342e+002,2.149170e+000
6.902984e+002,9.094238e-002
6.912626e+002,-4.122742e+000
6.922269e+002,-5.152405e+000
6.931911e+002,1.846313e+000
6.941553e+002,6.416687e+000
6.951196e+002,5.404175e+000
6.960838e+002,1.702271e+000
6.970480e+002,5.642090e-001
6.980123e+002,4.779114e+000
6.989765e+002,7.581299e+000
6.999407e+002,5.940308e+000
7.009050e+002,2.231506e+000
7.018692e+002,-2.859680e+000
7.028334e+002,-8.534973e+000
7.037977e+002,-1.279150e+001
7.047619e+002,-1.076184e+001
7.057261e+002,-4.947083e+000
7.066904e+002,-5.838623e-001
7.076546e+002,1.450012e+000
7.086188e+002,1.190186e+000
7.095831e+002,-1.723999e+000
7.105473e+002,-9.615417e+000
7.115115e+002,-1.291199e+001
7.124758e+002,-9.551880e+000
7.134400e+002,-4.949463e+000
7.144042e+002,-1.555969e+000
7.153685e+002,5.343018e-001
7.163327e+002,1.339844e+000
7.172969e+002,-2.715454e-001
7.182612e+002,-2.191406e+000
7.192254e+002,-4.245605e+000
7.201896e+002,-6.073792e+000
7.211539e+002,-7.108521e+000
7.221181e+002,-6.765808e+000
7.230823e+002,-5.462524e+000
7.240466e+002,-4.226501e+000
7.250108e+002,-2.813110e+000
7.259750e+002,-1.466370e+000
7.269393e+002,-6.276855e-001
7.279035e+002,-6.220093e-001
7.288677e+002,-1.103149e+000
7.298320e+002,-1.556274e+000
7.307962e+002,-1.711060e+000
7.317604e+002,-1.425293e+000
7.327247e+002,-7.910156e-001
7.336889e+002,-1.753540e-001
7.346531e+002,-1.508179e-001
7.356174e+002,-7.971191e-001
7.365816e+002,-9.032593e-001
7.375458e+002,-1.181824e+000
7.385101e+002,-3.249329e+000
7.394743e+002,-6.871399e+000
7.404385e+002,-9.310852e+000
7.414028e+002,-5.547607e+000
7.423670e+002,2.024048e+000
7.433312e+002,4.977478e+000
7.442955e+002,2.990173e+000
7.452597e+002,-1.221924e-001
7.462239e+002,-3.991699e-002
7.471882e+002,4.360596e+000
7.481524e+002,6.259827e+000
7.491166e+002,2.078735e+000
7.500809e+002,-1.122131e+000
7.510451e+002,7.402954e-001
7.520093e+002,6.108887e+000
7.529736e+002,8.805237e+000
7.539378e+002,4.148621e+000
7.549020e+002,-6.365967e-002
7.558663e+002,2.300598e+000
7.568306e+002,7.668091e+000
7.577948e+002,1.077838e+001
7.587590e+002,8.450378e+000
7.597233e+002,2.555847e+000
7.606875e+002,-1.068420e+000
7.616517e+002,-2.358704e+000
7.626160e+002,-1.326050e+000
7.635802e+002,3.241821e+000
7.645444e+002,9.131042e+000
7.655087e+002,1.122491e+001
7.664729e+002,6.584167e+000
7.674371e+002,4.286194e+000
7.684014e+002,7.267029e+000
7.693656e+002,1.014319e+001
7.703298e+002,8.755920e+000
7.712941e+002,3.083313e+000
7.722583e+002,-1.970337e+000
7.732225e+002,-2.437439e+000
7.741868e+002,-1.132813e+000
7.751510e+002,-3.182983e-001
7.761152e+002,3.132935e-001
7.770795e+002,2.247437e+000
7.780437e+002,6.788879e+000
7.790079e+002,1.318085e+001
7.799722e+002,1.524713e+001
7.809364e+002,1.290436e+001
7.819006e+002,1.020660e+001
7.828649e+002,9.095032e+000
7.838291e+002,9.167969e+000
7.847933e+002,8.403931e+000
7.857576e+002,5.641968e+000
7.867218e+002,2.733948e+000
7.876860e+002,-8.416138e-001
7.886503e+002,-3.176270e+000
7.896145e+002,-1.613892e+000
7.905787e+002,4.098938e+000
7.915430e+002,9.374695e+000
7.925072e+002,7.953430e+000
7.934714e+002,3.397766e+000
7.944357e+002,-9.158936e-001
7.953999e+002,-4.007874e+000
7.963641e+002,-5.012512e+000
7.973284e+002,-2.939941e+000
7.982926e+002,2.512695e+000
7.992568e+002,5.050842e+000
8.002211e+002,2.832764e+000
8.011853e+002,1.380005e-001
8.021495e+002,-1.078674e+000
8.031138e+002,-5.542603e-001
8.040780e+002,1.068359e+000
8.050422e+002,3.781799e+000
8.060065e+002,6.392517e+000
8.069707e+002,8.817444e+000
8.079349e+002,1.038031e+001
8.088992e+002,1.022430e+001
8.098634e+002,8.375061e+000
8.108276e+002,6.342346e+000
8.117919e+002,6.020874e+000
8.127561e+002,6.299561e+000
8.137203e+002,6.380920e+000
8.146846e+002,6.524475e+000
8.156488e+002,6.391663e+000
8.166130e+002,5.112854e+000
8.175773e+002,2.058655e+000
8.185415e+002,1.101135e+000
8.195057e+002,2.949097e+000
8.204700e+002,4.877014e+000
8.214342e+002,6.337708e+000
8.223984e+002,7.204590e+000
8.233627e+002,7.082642e+000
8.243269e+002,5.099792e+000
8.252911e+002,3.969299e+000
8.262554e+002,5.655029e+000
8.272196e+002,8.424133e+000
8.281838e+002,1.059631e+001
8.291481e+002,1.147473e+001
8.301123e+002,1.149915e+001
8.310765e+002,1.140137e+001
8.320408e+002,1.100836e+001
8.330050e+002,9.846680e+000
8.339692e+002,7.660645e+000
8.349335e+002,5.732666e+000
8.358977e+002,5.701233e+000
8.368619e+002,8.084595e+000
8.378262e+002,1.010706e+001
8.387904e+002,1.197809e+001
8.397546e+002,1.252240e+001
8.407189e+002,9.829895e+000
8.416831e+002,6.059509e+000
8.426473e+002,5.140686e+000
8.436116e+002,9.346558e+000
8.445758e+002,1.476276e+001
8.455400e+002,1.764313e+001
8.465043e+002,1.834167e+001
8.474685e+002,1.704626e+001
8.484327e+002,1.436755e+001
8.493970e+002,1.144037e+001
8.503612e+002,9.689880e+000
8.513254e+002,9.110596e+000
8.522897e+002,8.995300e+000
8.532539e+002,9.098389e+000
8.542181e+002,9.415771e+000
8.551824e+002,1.032629e+001
8.561466e+002,1.215930e+001
8.571108e+002,1.473486e+001
8.580751e+002,1.777606e+001
8.590393e+002,2.002155e+001
8.600035e+002,2.177905e+001
8.609678e+002,2.287653e+001
8.619320e+002,2.267761e+001
8.628962e+002,2.101276e+001
8.638605e+002,1.906818e+001
8.648247e+002,1.864362e+001
8.657889e+002,1.934229e+001
8.667532e+002,2.101917e+001
8.677174e+002,2.363831e+001
8.686816e+002,2.555591e+001
8.696459e+002,2.465143e+001
8.706101e+002,2.047058e+001
8.715743e+002,1.846332e+001
8.725386e+002,2.036591e+001
8.735028e+002,2.207477e+001
8.744670e+002,2.173468e+001
8.754313e+002,2.018634e+001
8.763955e+002,1.950323e+001
8.773597e+002,2.072400e+001
8.783240e+002,2.233411e+001
8.792882e+002,2.325714e+001
8.802524e+002,2.369366e+001
8.812167e+002,2.369836e+001
8.821809e+002,2.341284e+001
8.831451e+002,2.314673e+001
8.841094e+002,2.335626e+001
8.850736e+002,2.431549e+001
8.860378e+002,2.576697e+001
8.870021e+002,2.763519e+001
8.879663e+002,2.939215e+001
8.889305e+002,3.053687e+001
8.898948e+002,3.107983e+001
8.908590e+002,3.166003e+001
8.918232e+002,3.280408e+001
8.927875e+002,3.377765e+001
8.937517e+002,3.473730e+001
8.947159e+002,3.530731e+001
8.956802e+002,3.457153e+001
8.966444e+002,3.240259e+001
8.976086e+002,3.009296e+001
8.985729e+002,2.933105e+001
8.995371e+002,2.976483e+001
9.005013e+002,2.987592e+001
9.014656e+002,3.004529e+001
9.024298e+002,3.181238e+001
9.033940e+002,3.640686e+001
9.043583e+002,4.287146e+001
9.053225e+002,4.581830e+001
9.062867e+002,4.088446e+001
9.072510e+002,3.736786e+001
9.082152e+002,3.653168e+001
9.091794e+002,3.730109e+001
9.101437e+002,3.911810e+001
9.111079e+002,4.188873e+001
9.120721e+002,4.345251e+001
9.130364e+002,4.044513e+001
9.140006e+002,3.695801e+001
9.149648e+002,3.516162e+001
9.159291e+002,3.535162e+001
9.168933e+002,3.771246e+001
9.178575e+002,4.211804e+001
9.188218e+002,4.702893e+001
9.197860e+002,4.695660e+001
9.207502e+002,4.160535e+001
9.217145e+002,3.777527e+001
9.226787e+002,3.780817e+001
9.236429e+002,3.970642e+001
9.246072e+002,4.049933e+001
9.255714e+002,3.967426e+001
9.265356e+002,3.902820e+001
9.274999e+002,3.947717e+001
9.284641e+002,3.915710e+001
9.294283e+002,3.726282e+001
9.303926e+002,3.443842e+001
9.313568e+002,3.168768e+001
9.323210e+002,2.947858e+001
9.332853e+002,2.759644e+001
9.342495e+002,2.529492e+001
9.352137e+002,2.311090e+001
9.361780e+002,2.258136e+001
9.371422e+002,2.427460e+001
9.381064e+002,2.737244e+001
9.390707e+002,3.057153e+001
9.400349e+002,3.368066e+001
9.409991e+002,3.558502e+001
9.419634e+002,3.601288e+001
9.429276e+002,3.560571e+001
9.438918e+002,3.381677e+001
9.448561e+002,3.166534e+001
9.458203e+002,3.092242e+001
9.467845e+002,3.236591e+001
9.477488e+002,3.436023e+001
9.487130e+002,3.620203e+001
9.496772e+002,3.753809e+001
9.506415e+002,3.796680e+001
9.516057e+002,3.751526e+001
9.525699e+002,3.626825e+001
9.535342e+002,3.421265e+001
9.544984e+002,3.148273e+001
9.554626e+002,3.070947e+001
9.564269e+002,3.250183e+001
9.573911e+002,3.503998e+001
9.583553e+002,3.860236e+001
9.593196e+002,4.208673e+001
9.602838e+002,4.338672e+001
9.612480e+002,4.168359e+001
9.622123e+002,4.039362e+001
9.631765e+002,4.166919e+001
9.641407e+002,4.267645e+001
9.651050e+002,4.138123e+001
9.660692e+002,3.857324e+001
9.670334e+002,3.651538e+001
9.679977e+002,3.683838e+001
9.689619e+002,3.855194e+001
9.699261e+002,3.871313e+001
9.708904e+002,3.761475e+001
9.718546e+002,3.701257e+001
9.728188e+002,3.726300e+001
9.737831e+002,3.748035e+001
9.747473e+002,3.613940e+001
9.757115e+002,3.259308e+001
9.766758e+002,3.180518e+001
9.776400e+002,3.735254e+001
9.786042e+002,4.189966e+001
9.795685e+002,4.333759e+001
9.805327e+002,4.245087e+001
9.814969e+002,4.034357e+001
9.824612e+002,3.759406e+001
9.834254e+002,3.541693e+001
9.843896e+002,3.443427e+001
9.853539e+002,3.447137e+001
9.863181e+002,3.592627e+001
9.872823e+002,3.830811e+001
9.882466e+002,4.064661e+001
9.892108e+002,4.250482e+001
9.901750e+002,4.431122e+001
9.911393e+002,4.534320e+001
9.921035e+002,4.216101e+001
9.930677e+002,4.191016e+001
9.940320e+002,4.758301e+001
9.949962e+002,5.493384e+001
9.959604e+002,6.035657e+001
9.969247e+002,6.361353e+001
9.978889e+002,6.581488e+001
9.988531e+002,6.559082e+001
9.998174e+002,6.556567e+001
1.000782e+003,6.830768e+001
1.001746e+003,7.255182e+001
1.002710e+003,7.626685e+001
1.003674e+003,7.847827e+001
1.004639e+003,7.979254e+001
1.005603e+003,8.139844e+001
1.006567e+003,8.318170e+001
1.007531e+003,8.282031e+001
1.008495e+003,7.918921e+001
1.009460e+003,7.589368e+001
1.010424e+003,7.525153e+001
1.011388e+003,7.686963e+001
1.012352e+003,7.928192e+001
1.013317e+003,8.416943e+001
1.014281e+003,8.525378e+001
1.015245e+003,7.869464e+001
1.016209e+003,6.993719e+001
1.017174e+003,6.252814e+001
1.018138e+003,5.711102e+001
1.019102e+003,5.234344e+001
1.020066e+003,4.711157e+001
1.021031e+003,4.242120e+001
1.021995e+003,4.133081e+001
1.022959e+003,4.266864e+001
1.023923e+003,4.246521e+001
1.024887e+003,3.907751e+001
1.025852e+003,3.401288e+001
1.026816e+003,2.952002e+001
1.027780e+003,2.570502e+001
1.028744e+003,2.343707e+001
1.029709e+003,2.429718e+001
1.030673e+003,2.474957e+001
1.031637e+003,2.343262e+001
1.032601e+003,2.097815e+001
1.033566e+003,1.826984e+001
1.034530e+003,1.576514e+001
1.035494e+003,1.402600e+001
1.036458e+003,1.382764e+001
1.037422e+003,1.444177e+001
1.038387e+003,1.467218e+001
1.039351e+003,1.445258e+001
1.040315e+003,1.448975e+001
1.041279e+003,1.546844e+001
1.042244e+003,1.734900e+001
1.043208e+003,1.929651e+001
1.044172e+003,2.212738e+001
1.045136e+003,2.258020e+001
1.046101e+003,1.836664e+001
1.047065e+003,1.448462e+001
1.048029e+003,1.458588e+001
1.048993e+003,1.781042e+001
1.049958e+003,2.036218e+001
1.050922e+003,2.047888e+001
1.051886e+003,2.010565e+001
1.052850e+003,2.108081e+001
1.053814e+003,2.274756e+001
1.054779e+003,2.480432e+001
1.055743e+003,2.684473e+001
1.056707e+003,2.742010e+001
1.057671e+003,2.458398e+001
1.058636e+003,1.822748e+001
1.059600e+003,1.551855e+001
1.060564e+003,2.014093e+001
1.061528e+003,2.378857e+001
1.062493e+003,2.465985e+001
1.063457e+003,2.382385e+001
1.064421e+003,2.263818e+001
1.065385e+003,2.141418e+001
1.066349e+003,1.949677e+001
1.067314e+003,1.520367e+001
1.068278e+003,1.185077e+001
1.069242e+003,1.237799e+001
1.070206e+003,1.529150e+001
1.071171e+003,1.840222e+001
1.072135e+003,2.043134e+001
1.073099e+003,2.096423e+001
1.074063e+003,1.945953e+001
1.075028e+003,1.576923e+001
1.075992e+003,1.384204e+001
1.076956e+003,1.379016e+001
1.077920e+003,1.427203e+001
1.078885e+003,1.593079e+001
1.079849e+003,1.792065e+001
1.080813e+003,1.809149e+001
1.081777e+003,1.577844e+001
1.082741e+003,1.411481e+001
1.083706e+003,1.508777e+001
1.084670e+003,1.604468e+001
1.085634e+003,1.525189e+001
1.086598e+003,1.336487e+001
1.087563e+003,1.188141e+001
1.088527e+003,1.183026e+001
1.089491e+003,1.325494e+001
1.090455e+003,1.601990e+001
1.091420e+003,2.002374e+001
1.092384e+003,2.106470e+001
1.093348e+003,1.705774e+001
1.094312e+003,1.339020e+001
1.095276e+003,1.411292e+001
1.096241e+003,1.798663e+001
1.097205e+003,2.049365e+001
1.098169e+003,2.041797e+001
1.099133e+003,2.015887e+001
1.100098e+003,2.132428e+001
1.101062e+003,2.232263e+001
1.102026e+003,2.119794e+001
1.102990e+003,1.918408e+001
1.103955e+003,1.966614e+001
1.104919e+003,2.454224e+001
1.105883e+003,3.061554e+001
1.106847e+003,3.077155e+001
1.107812e+003,2.482739e+001
1.108776e+003,2.136151e+001
1.109740e+003,2.130353e+001
1.110704e+003,2.254285e+001
1.111668e+003,2.418860e+001
1.112633e+003,2.637848e+001
1.113597e+003,2.878735e+001
1.114561e+003,3.153546e+001
1.115525e+003,3.333093e+001
1.116490e+003,3.311261e+001
1.117454e+003,3.249457e+001
1.118418e+003,3.256042e+001
1.119382e+003,3.356970e+001
1.120347e+003,3.537006e+001
1.121311e+003,3.756586e+001
1.122275e+003,3.925037e+001
1.123239e+003,3.948132e+001
1.124203e+003,3.879553e+001
1.125168e+003,3.802411e+001
1.126132e+003,3.690106e+001
1.127096e+003,3.685455e+001
1.128060e+003,3.888330e+001
1.129025e+003,4.262781e+001
1.129989e+003,4.751715e+001
1.130953e+003,5.541235e+001
1.131917e+003,5.947913e+001
1.132882e+003,5.496796e+001
1.133846e+003,4.988568e+001
1.134810e+003,4.864471e+001
1.135774e+003,5.110132e+001
1.136739e+003,5.539185e+001
1.137703e+003,6.039734e+001
1.138667e+003,6.609912e+001
1.139631e+003,7.276733e+001
1.140595e+003,8.021155e+001
1.141560e+003,8.726874e+001
1.142524e+003,9.362683e+001
1.143488e+003,1.016409e+002
1.144452e+003,1.131036e+002
1.145417e+003,1.273660e+002
1.146381e+003,1.420606e+002
1.147345e+003,1.568476e+002
1.148309e+003,1.725086e+002
1.149274e+003,1.901270e+002
1.150238e+003,2.080845e+002
1.151202e+003,2.261713e+002
1.152166e+003,2.442256e+002
1.153130e+003,2.631288e+002
1.154095e+003,2.824945e+002
1.155059e+003,2.975525e+002
1.156023e+003,3.015149e+002
1.156987e+003,2.952474e+002
1.157952e+003,2.882437e+002
1.158916e+003,2.814306e+002
1.159880e+003,2.731329e+002
1.160844e+003,2.615268e+002
1.161809e+003,2.467686e+002
1.162773e+003,2.299319e+002
1.163737e+003,2.104291e+002
1.164701e+003,1.917856e+002
1.165666e+003,1.747477e+002
1.166630e+003,1.594942e+002
1.167594e+003,1.449690e+002
1.168558e+003,1.327075e+002
1.169522e+003,1.255005e+002
1.170487e+003,1.236876e+002
1.171451e+003,1.241418e+002
1.172415e+003,1.233074e+002
1.173379e+003,1.215672e+002
1.174344e+003,1.224304e+002
1.175308e+003,1.264572e+002
1.176272e+003,1.274642e+002
1.177236e+003,1.215512e+002
1.178201e+003,1.133802e+002
1.179165e+003,1.090216e+002
1.180129e+003,1.082357e+002
1.181093e+003,1.057234e+002
1.182057e+003,9.861865e+001
1.183022e+003,9.281354e+001
1.183986e+003,9.062628e+001
1.184950e+003,9.052881e+001
1.185914e+003,9.234753e+001
1.186879e+003,9.503027e+001
1.187843e+003,9.553314e+001
1.188807e+003,9.113379e+001
1.189771e+003,8.440277e+001
1.190736e+003,8.414136e+001
1.191700e+003,9.116473e+001
1.192664e+003,9.604828e+001
1.193628e+003,9.854736e+001
1.194593e+003,9.855225e+001
1.195557e+003,9.475885e+001
1.196521e+003,8.820300e+001
1.197485e+003,8.261890e+001
1.198449e+003,7.853845e+001
1.199414e+003,7.577551e+001
1.200378e+003,7.540369e+001
1.201342e+003,7.531342e+001
1.202306e+003,7.438965e+001
1.203271e+003,7.240179e+001
1.204235e+003,6.920184e+001
1.205199e+003,6.491846e+001
1.206163e+003,6.040497e+001
1.207128e+003,5.706854e+001
1.208092e+003,5.505469e+001
1.209056e+003,5.160089e+001
1.210020e+003,4.586407e+001
1.210984e+003,4.069604e+001
1.211949e+003,3.739569e+001
1.212913e+003,3.461688e+001
1.213877e+003,3.051660e+001
1.214841e+003,2.513196e+001
1.215806e+003,2.048639e+001
1.216770e+003,1.698474e+001
1.217734e+003,1.494257e+001
1.218698e+003,1.533398e+001
1.219663e+003,1.625531e+001
1.220627e+003,1.512708e+001
1.221591e+003,1.180670e+001
1.222555e+003,8.342346e+000
1.223520e+003,6.700256e+000
1.224484e+003,6.600952e+000
1.225448e+003,5.955383e+000
1.226412e+003,3.593140e+000
1.227376e+003,3.338318e+000
1.228341e+003,6.653076e+000
1.229305e+003,1.009314e+001
1.230269e+003,1.252509e+001
1.231233e+003,1.351166e+001
1.232198e+003,1.190491e+001
1.233162e+003,7.399048e+000
1.234126e+003,3.572876e+000
1.235090e+003,3.308533e+000
1.236055e+003,4.229858e+000
1.237019e+003,3.953735e+000
1.237983e+003,2.615417e+000
1.238947e+003,8.234253e-001
1.239911e+003,-9.716797e-001
1.240876e+003,-1.871887e+000
1.241840e+003,-5.104370e-001
1.242804e+003,3.310120e+000
1.243768e+003,6.076111e+000
1.244733e+003,7.550781e+000
1.245697e+003,8.140259e+000
1.246661e+003,5.983398e+000
1.247625e+003,3.976563e+000
1.248590e+003,5.109253e+000
1.249554e+003,8.752991e+000
1.250518e+003,1.187170e+001
1.251482e+003,1.290466e+001
1.252447e+003,1.297125e+001
1.253411e+003,1.372156e+001
1.254375e+003,1.482544e+001
1.255339e+003,1.520929e+001
1.256303e+003,1.500269e+001
1.257268e+003,1.483563e+001
1.258232e+003,1.483356e+001
1.259196e+003,1.455212e+001
1.260160e+003,1.280035e+001
1.261125e+003,8.935242e+000
1.262089e+003,9.746704e+000
1.263053e+003,2.077875e+001
1.264017e+003,2.990662e+001
1.264982e+003,3.505420e+001
1.265946e+003,3.681610e+001
1.266910e+003,3.407312e+001
1.267874e+003,2.852979e+001
1.268839e+003,2.505829e+001
1.269803e+003,2.696417e+001
1.270767e+003,3.107269e+001
1.271731e+003,3.106793e+001
1.272695e+003,2.723242e+001
1.273660e+003,2.521899e+001
1.274624e+003,2.528241e+001
1.275588e+003,2.532410e+001
1.276552e+003,2.536084e+001
1.277517e+003,2.478607e+001
1.278481e+003,2.125787e+001
1.279445e+003,1.420728e+001
1.280409e+003,9.020386e+000
1.281374e+003,8.870361e+000
1.282338e+003,9.213135e+000
1.283302e+003,7.089661e+000
1.284266e+003,4.390015e+000
1.285230e+003,3.458252e+000
1.286195e+003,4.420349e+000
1.287159e+003,5.835266e+000
1.288123e+003,6.664795e+000
1.289087e+003,7.202026e+000
1.290052e+003,7.730774e+000
1.291016e+003,8.393616e+000
1.291980e+003,7.274597e+000
1.292944e+003,1.658264e+000
1.293909e+003,-2.701721e+000
1.294873e+003,-1.886108e+000
1.295837e+003,1.038147e+000
1.296801e+003,1.331238e+000
1.297766e+003,-1.442200e+000
1.298730e+003,-3.591064e+000
1.299694e+003,-3.131775e+000
1.300658e+003,-1.960999e+000
1.301622e+003,-2.051636e+000
1.302587e+003,-2.643188e+000
1.303551e+003,-2.562927e+000
1.304515e+003,-1.559082e+000
1.305479e+003,-6.323242e-001
1.306444e+003,-1.008301e+000
1.307408e+003,-1.985107e+000
1.308372e+003,-3.256836e-001
1.309336e+003,5.437134e+000
1.310301e+003,9.182922e+000
1.311265e+003,1.047351e+001
1.312229e+003,1.032977e+001
1.313193e+003,7.707581e+000
1.314157e+003,4.482544e+000
1.315122e+003,2.576599e+000
1.316086e+003,2.035461e+000
1.317050e+003,1.397827e+000
1.318014e+003,-2.367554e-001
1.318979e+003,-1.339966e+000
1.319943e+003,1.370300e+000
1.320907e+003,7.367676e+000
1.321871e+003,1.023950e+001
1.322836e+003,8.442993e+000
1.323800e+003,6.544983e+000
1.324764e+003,7.724487e+000
1.325728e+003,1.005157e+001
1.326693e+003,9.783813e+000
1.327657e+003,6.588135e+000
1.328621e+003,3.680847e+000
1.329585e+003,2.420593e+000
1.330549e+003,2.681824e+000
1.331514e+003,4.232239e+000
1.332478e+003,5.688110e+000
1.333442e+003,5.779236e+000
1.334406e+003,4.917480e+000
1.335371e+003,4.573120e+000
1.336335e+003,5.598511e+000
1.337299e+003,7.135803e+000
1.338263e+003,7.384521e+000
1.339228e+003,6.130432e+000
1.340192e+003,5.761536e+000
1.341156e+003,7.167542e+000
1.342120e+003,8.055359e+000
1.343084e+003,7.940918e+000
1.344049e+003,6.732300e+000
1.345013e+003,3.710083e+000
1.345977e+003,4.235840e-002
1.346941e+003,-1.230957e+000
1.347906e+003,1.069458e+000
1.348870e+003,3.788757e+000
1.349834e+003,3.556702e+000
1.350798e+003,1.937988e+000
1.351763e+003,2.792969e+000
1.352727e+003,5.674561e+000
1.353691e+003,7.241638e+000
1.354655e+003,6.138000e+000
1.355620e+003,4.045532e+000
1.356584e+003,2.630249e+000
1.357548e+003,2.037048e+000
1.358512e+003,2.825928e+000
1.359476e+003,5.505676e+000
1.360441e+003,7.082031e+000
1.361405e+003,7.003418e+000
1.362369e+003,5.849609e+000
1.363333e+003,2.675781e+000
1.364298e+003,-7.973022e-001
1.365262e+003,-1.871277e+000
1.366226e+003,-2.980347e-001
1.367190e+003,1.383240e+000
1.368155e+003,8.902588e-001
1.369119e+003,-9.286499e-001
1.370083e+003,-1.238464e+000
1.371047e+003,8.594971e-001
1.372011e+003,1.259766e+000
1.372976e+003,-3.033691e+000
1.373940e+003,-5.756653e+000
1.374904e+003,-2.663635e+000
1.375868e+003,2.290405e+000
1.376833e+003,3.343994e+000
1.377797e+003,5.534668e-001
1.378761e+003,-6.706543e-001
1.379725e+003,2.561584e+000
1.380690e+003,6.323181e+000
1.381654e+003,5.821838e+000
1.382618e+003,3.847778e+000
1.383582e+003,4.302673e+000
1.384547e+003,7.166382e+000
1.385511e+003,1.029993e+001
1.386475e+003,1.261511e+001
1.387439e+003,1.416748e+001
1.388403e+003,1.519440e+001
1.389368e+003,1.565668e+001
1.390332e+003,1.500769e+001
1.391296e+003,1.303485e+001
1.392260e+003,1.077881e+001
1.393225e+003,7.899841e+000
1.394189e+003,5.280151e+000
1.395153e+003,3.475098e+000
1.396117e+003,2.272583e+000
1.397082e+003,6.985474e-001
1.398046e+003,-9.421997e-001
1.399010e+003,1.678467e-002
1.399974e+003,5.984009e+000
1.400938e+003,1.410913e+001
1.401903e+003,1.626965e+001
1.402867e+003,1.144281e+001
1.403831e+003,9.026123e+000
1.404795e+003,9.776306e+000
1.405760e+003,1.087701e+001
1.406724e+003,1.125201e+001
1.407688e+003,1.038977e+001
1.408652e+003,7.526245e+000
1.409617e+003,3.670715e+000
1.410581e+003,2.275146e+000
1.411545e+003,5.094543e+000
1.412509e+003,8.444031e+000
1.413474e+003,8.256348e+000
1.414438e+003,6.040039e+000
1.415402e+003,4.963501e+000
1.416366e+003,5.240967e+000
1.417330e+003,5.839783e+000
1.418295e+003,6.411438e+000
1.419259e+003,7.022217e+000
1.420223e+003,7.483826e+000
1.421187e+003,7.656006e+000
1.422152e+003,8.061707e+000
1.423116e+003,9.167114e+000
1.424080e+003,1.032928e+001
1.425044e+003,1.002289e+001
1.426009e+003,1.054590e+001
1.426973e+003,1.520050e+001
1.427937e+003,1.977118e+001
1.428901e+003,1.759741e+001
1.429865e+003,9.981812e+000
1.430830e+003,5.293945e+000
1.431794e+003,8.832092e+000
1.432758e+003,1.628235e+001
1.433722e+003,1.951489e+001
1.434687e+003,1.866235e+001
1.435651e+003,1.903583e+001
1.436615e+003,2.095313e+001
1.437579e+003,2.118695e+001
1.438544e+003,1.784167e+001
1.439508e+003,1.470911e+001
1.440472e+003,1.499469e+001
1.441436e+003,1.755719e+001
1.442401e+003,1.987665e+001
1.443365e+003,2.111237e+001
1.444329e+003,2.133478e+001
1.445293e+003,2.050458e+001
1.446257e+003,1.940063e+001
1.447222e+003,1.962134e+001
1.448186e+003,2.072656e+001
1.449150e+003,2.024744e+001
1.450114e+003,1.727856e+001
1.451079e+003,1.506299e+001
1.452043e+003,1.689294e+001
1.453007e+003,1.972931e+001
1.453971e+003,1.808276e+001
1.454936e+003,1.263965e+001
1.455900e+003,1.039740e+001
1.456864e+003,1.374335e+001
1.457828e+003,1.777814e+001
1.458792e+003,2.060339e+001
1.459757e+003,2.161255e+001
1.460721e+003,1.889081e+001
1.461685e+003,1.436493e+001
1.462649e+003,1.235461e+001
1.463614e+003,1.390063e+001
1.464578e+003,1.556793e+001
1.465542e+003,1.399445e+001
1.466506e+003,1.048193e+001
1.467471e+003,9.458557e+000
1.468435e+003,1.192529e+001
1.469399e+003,1.387836e+001
1.470363e+003,1.363287e+001
1.471328e+003,1.413916e+001
1.472292e+003,1.688568e+001
1.473256e+003,1.908362e+001
1.474220e+003,1.871954e+001
1.475184e+003,1.705011e+001
1.476149e+003,1.603613e+001
1.477113e+003,1.627191e+001
1.478077e+003,1.760687e+001
1.479041e+003,2.023975e+001
1.480006e+003,2.382581e+001
1.480970e+003,2.644305e+001
1.481934e+003,2.769556e+001
1.482898e+003,2.782074e+001
1.483863e+003,2.527155e+001
1.484827e+003,2.372943e+001
1.485791e+003,2.486743e+001
1.486755e+003,2.740332e+001
1.487719e+003,3.048560e+001
1.488684e+003,3.348242e+001
1.489648e+003,3.535138e+001
1.490612e+003,3.599835e+001
1.491576e+003,3.731299e+001
1.492541e+003,4.100366e+001
1.493505e+003,4.560248e+001
1.494469e+003,4.764032e+001
1.495433e+003,4.723883e+001
1.496398e+003,4.739392e+001
1.497362e+003,4.881360e+001
1.498326e+003,5.159900e+001
1.499290e+003,5.607672e+001
1.500255e+003,6.162592e+001
1.501219e+003,6.665381e+001
1.502183e+003,7.158008e+001
1.503147e+003,8.009753e+001
1.504111e+003,9.381470e+001
1.505076e+003,1.068858e+002
1.506040e+003,1.149274e+002
1.507004e+003,1.220556e+002
1.507968e+003,1.316606e+002
1.508933e+003,1.436835e+002
1.509897e+003,1.580212e+002
1.510861e+003,1.751558e+002
1.511825e+003,1.954419e+002
1.512790e+003,2.191924e+002
1.513754e+003,2.448945e+002
1.514718e+003,2.707996e+002
1.515682e+003,2.965430e+002
1.516646e+003,3.199178e+002
1.517611e+003,3.406132e+002
1.518575e+003,3.603428e+002
1.519539e+003,3.822480e+002
1.520503e+003,4.013358e+002
1.521468e+003,4.151522e+002
1.522432e+003,4.240026e+002
1.523396e+003,4.290309e+002
1.524360e+003,4.299956e+002
1.525325e+003,4.248278e+002
1.526289e+003,4.122726e+002
1.527253e+003,3.957417e+002
1.528217e+003,3.813777e+002
1.529182e+003,3.695618e+002
1.530146e+003,3.533502e+002
1.531110e+003,3.325908e+002
1.532074e+003,3.066607e+002
1.533039e+003,2.721482e+002
1.534003e+003,2.355300e+002
1.534967e+003,1.969214e+002
1.535931e+003,1.610810e+002
1.536896e+003,1.330593e+002
1.537860e+003,1.127073e+002
1.538824e+003,9.704498e+001
1.539788e+003,8.408380e+001
1.540752e+003,7.202380e+001
1.541717e+003,5.837592e+001
1.542681e+003,4.451147e+001
1.543645e+003,3.787860e+001
1.544609e+003,4.311987e+001
1.545573e+003,4.489667e+001
1.546538e+003,3.945996e+001
1.547502e+003,3.454504e+001
1.548466e+003,3.398590e+001
1.549430e+003,3.536224e+001
1.550395e+003,3.615912e+001
1.551359e+003,3.604376e+001
1.552323e+003,3.586859e+001
1.553287e+003,3.589337e+001
1.554252e+003,3.446838e+001
1.555216e+003,2.969751e+001
1.556180e+003,2.356860e+001
1.557144e+003,2.119446e+001
1.558109e+003,2.287567e+001
1.559073e+003,2.245276e+001
1.560037e+003,1.792218e+001
1.561001e+003,1.408264e+001
1.561966e+003,1.338538e+001
1.562930e+003,1.419879e+001
1.563894e+003,1.517468e+001
1.564858e+003,1.594489e+001
1.565823e+003,1.567847e+001
1.566787e+003,1.432458e+001
1.567751e+003,1.454321e+001
1.568715e+003,1.866876e+001
1.569679e+003,2.286511e+001
1.570644e+003,2.103137e+001
1.571608e+003,1.539679e+001
1.572572e+003,1.351160e+001
1.573536e+003,1.590314e+001
1.574500e+003,1.804071e+001
1.575465e+003,1.821515e+001
1.576429e+003,1.779675e+001
1.577393e+003,1.760120e+001
1.578357e+003,1.745282e+001
1.579322e+003,1.718420e+001
1.580286e+003,1.693634e+001
1.581250e+003,1.710986e+001
1.582214e+003,1.773346e+001
1.583179e+003,1.920398e+001
1.584143e+003,2.302728e+001
1.585107e+003,2.633606e+001
1.586071e+003,2.464685e+001
1.587036e+003,2.016888e+001
1.588000e+003,1.894171e+001
1.588964e+003,2.216742e+001
1.589928e+003,2.549121e+001
1.590893e+003,2.590826e+001
1.591857e+003,2.507660e+001
1.592821e+003,2.552362e+001
1.593785e+003,2.706976e+001
1.594750e+003,2.822748e+001
1.595714e+003,2.858148e+001
1.596678e+003,2.899152e+001
1.597642e+003,3.010645e+001
1.598606e+003,3.101440e+001
1.599571e+003,3.080939e+001
1.600535e+003,3.031653e+001
1.601499e+003,3.054633e+001
1.602463e+003,3.136145e+001
1.603427e+003,3.220789e+001
1.604392e+003,3.299628e+001
1.605356e+003,3.292029e+001
1.606320e+003,3.056598e+001
1.607284e+003,2.694794e+001
1.608249e+003,2.447021e+001
1.609213e+003,2.310577e+001
1.610177e+003,2.498621e+001
1.611141e+003,3.283936e+001
1.612106e+003,3.804291e+001
1.613070e+003,3.391632e+001
1.614034e+003,2.774408e+001
1.614998e+003,2.408954e+001
1.615963e+003,2.233569e+001
1.616927e+003,2.111798e+001
1.617891e+003,2.006335e+001
1.618855e+003,1.927454e+001
1.619820e+003,1.868463e+001
1.620784e+003,1.794781e+001
1.621748e+003,1.716437e+001
1.622712e+003,1.681476e+001
1.623677e+003,1.674005e+001
1.624641e+003,1.687543e+001
1.625605e+003,1.800964e+001
1.626569e+003,2.028564e+001
1.627533e+003,2.180597e+001
1.628498e+003,2.205646e+001
1.629462e+003,2.169135e+001
1.630426e+003,2.053040e+001
1.631390e+003,1.919861e+001
1.632354e+003,1.926239e+001
1.633319e+003,2.088690e+001
1.634283e+003,2.217242e+001
1.635247e+003,2.159521e+001
1.636211e+003,2.002435e+001
1.637176e+003,1.906177e+001
1.638140e+003,1.885565e+001
1.639104e+003,1.940222e+001
1.640068e+003,2.090149e+001
1.641033e+003,2.169489e+001
1.641997e+003,2.094940e+001
1.642961e+003,2.039056e+001
1.643925e+003,2.180457e+001
1.644890e+003,2.300708e+001
1.645854e+003,2.078308e+001
1.646818e+003,1.653033e+001
1.647782e+003,1.399158e+001
1.648747e+003,1.438409e+001
1.649711e+003,1.740265e+001
1.650675e+003,2.384528e+001
1.651639e+003,3.113818e+001
1.652604e+003,3.323022e+001
1.653568e+003,3.009863e+001
1.654532e+003,2.581555e+001
1.655496e+003,1.973108e+001
1.656460e+003,1.562750e+001
1.657425e+003,1.581323e+001
1.658389e+003,1.691718e+001
1.659353e+003,1.736353e+001
1.660317e+003,1.746454e+001
1.661281e+003,1.774829e+001
1.662246e+003,1.786908e+001
1.663210e+003,1.681195e+001
1.664174e+003,1.441913e+001
1.665138e+003,1.207965e+001
1.666103e+003,1.072162e+001
1.667067e+003,1.007965e+001
1.668031e+003,9.976685e+000
1.668995e+003,1.045929e+001
1.669960e+003,1.109515e+001
1.670924e+003,1.208441e+001
1.671888e+003,1.267279e+001
1.672852e+003,1.250574e+001
1.673817e+003,1.164569e+001
1.674781e+003,9.027100e+000
1.675745e+003,6.530701e+000
1.676709e+003,6.723022e+000
1.677674e+003,8.859619e+000
1.678638e+003,1.014661e+001
1.679602e+003,9.727112e+000
1.680566e+003,9.168701e+000
1.681531e+003,9.887390e+000
1.682495e+003,1.136627e+001
1.683459e+003,1.300110e+001
1.684423e+003,1.425031e+001
1.685387e+003,1.219818e+001
1.686352e+003,6.075745e+000
1.687316e+003,1.902649e+000
1.688280e+003,2.119568e+000
1.689244e+003,3.677979e+000
1.690208e+003,5.090942e+000
1.691173e+003,5.961914e+000
1.692137e+003,5.540588e+000
1.693101e+003,4.557739e+000
1.694065e+003,4.585693e+000
1.695030e+003,5.714600e+000
1.695994e+003,7.179749e+000
1.696958e+003,9.635437e+000
1.697922e+003,1.118011e+001
1.698887e+003,8.091980e+000
1.699851e+003,2.448547e+000
1.700815e+003,7.873535e-001
1.701779e+003,3.418091e+000
1.702744e+003,5.389771e+000
1.703708e+003,5.477600e+000
1.704672e+003,4.892822e+000
1.705636e+003,3.542236e+000
1.706601e+003,1.995972e+000
1.707565e+003,1.906006e+000
1.708529e+003,3.031799e+000
1.709493e+003,3.989990e+000
1.710458e+003,4.627014e+000
1.711422e+003,4.516174e+000
1.712386e+003,2.890686e+000
1.713350e+003,1.713501e+000
1.714314e+003,2.675903e+000
1.715279e+003,4.409424e+000
1.716243e+003,4.810059e+000
1.717207e+003,4.071106e+000
1.718171e+003,4.056946e+000
1.719135e+003,5.356567e+000
1.720100e+003,5.853027e+000
1.721064e+003,3.808472e+000
1.722028e+003,6.563721e-001
1.722992e+003,-1.520081e+000
1.723957e+003,-2.362610e+000
1.724921e+003,-1.761597e+000
1.725885e+003,-4.577637e-003
1.726849e+003,1.100891e+000
1.727814e+003,1.480103e+000
1.728778e+003,2.158936e+000
1.729742e+003,3.837585e+000
1.730706e+003,5.532166e+000
1.731671e+003,6.110413e+000
1.732635e+003,5.359985e+000
1.733599e+003,3.543457e+000
1.734563e+003,1.255737e+000
1.735528e+003,-8.733521e-001
1.736492e+003,-2.666870e+000
1.737456e+003,-3.051392e+000
1.738420e+003,-3.582153e-001
1.739385e+003,3.618774e+000
1.740349e+003,2.964844e+000
1.741313e+003,-3.683167e+000
1.742277e+003,-6.681885e+000
1.743241e+003,-2.444824e+000
1.744206e+003,1.356812e-001
1.745170e+003,-2.211243e+000
1.746134e+003,-4.326721e+000
1.747098e+003,-2.260437e+000
1.748063e+003,7.020264e-001
1.749027e+003,1.810913e-001
1.749991e+003,-2.922852e+000
1.750955e+003,-5.143127e+000
1.751919e+003,-5.244995e+000
1.752884e+003,-3.893250e+000
1.753848e+003,-1.583313e+000
1.754812e+003,3.572998e-001
1.755776e+003,-7.955933e-001
1.756741e+003,-4.601501e+000
1.757705e+003,-6.378601e+000
1.758669e+003,-5.866211e+000
1.759633e+003,-4.873840e+000
1.760598e+003,-2.905029e+000
1.761562e+003,-1.987183e+000
1.762526e+003,-3.507874e+000
1.763490e+003,-4.819397e+000
1.764455e+003,-3.266846e+000
1.765419e+003,-5.588989e-001
1.766383e+003,-5.523682e-002
1.767347e+003,-1.850891e+000
1.768312e+003,-2.835083e+000
1.769276e+003,-1.603638e+000
1.770240e+003,-9.492188e-001
1.771204e+003,-4.232727e+000
1.772168e+003,-8.676697e+000
1.773133e+003,-7.377197e+000
1.774097e+003,-1.245728e+000
1.775061e+003,-3.818970e-001
1.776025e+003,-7.153748e+000
1.776990e+003,-1.103802e+001
1.777954e+003,-6.804749e+000
1.778918e+003,-1.640930e+000
1.779882e+003,-7.341309e-001
1.780846e+003,-2.458923e+000
1.781811e+003,-5.020386e+000
1.782775e+003,-7.785095e+000
1.783739e+003,-8.768860e+000
1.784703e+003,-7.438538e+000
1.785668e+003,-5.995239e+000
1.786632e+003,-5.788574e+000
1.787596e+003,-5.985535e+000
1.788560e+003,-5.423218e+000
1.789525e+003,-4.386719e+000
1.790489e+003,-3.814087e+000
1.791453e+003,-3.724243e+000
1.792417e+003,-3.371399e+000
1.793382e+003,-2.642090e+000
1.794346e+003,-2.372009e+000
1.795310e+003,-3.075256e+000
1.796274e+003,-4.247437e+000
1.797239e+003,-5.255066e+000
1.798203e+003,-5.456543e+000
1.799167e+003,-3.943420e+000
1.800131e+003,-9.913940e-001
1.801095e+003,6.410522e-001
1.802060e+003,2.222229e+000
1.803024e+003,1.952881e+000
1.803988e+003,-3.579651e+000
1.804952e+003,-7.501587e+000
1.805917e+003,-4.875610e+000
1.806881e+003,-5.339355e-001
1.807845e+003,1.010925e+000
1.808809e+003,2.763062e-001
1.809773e+003,-8.629150e-001
1.810738e+003,-1.700500e+000
1.811702e+003,-2.154053e+000
1.812666e+003,-2.199097e+000
1.813630e+003,-1.608826e+000
1.814595e+003,1.894531e-001
1.815559e+003,2.443542e+000
1.816523e+003,2.054321e+000
1.817487e+003,-1.250732e+000
1.818452e+003,-3.078064e+000
1.819416e+003,-2.494019e+000
1.820380e+003,-1.548889e+000
1.821344e+003,-6.892090e-001
1.822309e+003,-4.527588e-001
1.823273e+003,-1.775024e+000
1.824237e+003,-2.861328e+000
1.825201e+003,-1.326416e+000
1.826166e+003,1.550964e+000
1.827130e+003,2.255676e+000
1.828094e+003,1.161499e-001
1.829058e+003,-2.056152e+000
1.830022e+003,-2.669434e+000
1.830987e+003,-2.901794e+000
1.831951e+003,-3.993896e+000
1.832915e+003,-5.093140e+000
1.833879e+003,-4.456482e+000
1.834844e+003,-2.858337e+000
1.835808e+003,-3.050232e+000
1.836772e+003,-5.191956e+000
1.837736e+003,-6.920776e+000
1.838700e+003,-7.390320e+000
1.839665e+003,-6.738953e+000
1.840629e+003,-4.582703e+000
1.841593e+003,-2.237976e+000
1.842557e+003,-3.139893e+000
1.843522e+003,-7.227722e+000
1.844486e+003,-8.327454e+000
1.845450e+003,-3.686646e+000
1.846414e+003,-4.655151e-001
1.847379e+003,-1.118164e-001
1.848343e+003,-3.380737e-001
1.849307e+003,-5.133057e-002
1.850271e+003,-1.675415e-001
1.851236e+003,-1.832336e+000
1.852200e+003,-3.701904e+000
1.853164e+003,-4.191467e+000
1.854128e+003,-3.679016e+000
1.855093e+003,-3.097168e+000
1.856057e+003,-2.645630e+000
1.857021e+003,-2.933838e+000
1.857985e+003,-4.865723e+000
1.858949e+003,-7.060913e+000
1.859914e+003,-6.475586e+000
1.860878e+003,-3.724304e+000
1.861842e+003,-3.321472e+000
1.862806e+003,-5.497131e+000
1.863771e+003,-5.498169e+000
1.864735e+003,-1.924316e+000
1.865699e+003,1.358032e-001
1.866663e+003,-2.117981e+000
1.867627e+003,-4.757019e+000
1.868592e+003,-4.003174e+000
1.869556e+003,-2.207520e+000
1.870520e+003,-3.779724e+000
1.871484e+003,-8.083862e+000
1.872449e+003,-1.063135e+001
1.873413e+003,-9.994202e+000
1.874377e+003,-7.637085e+000
1.875341e+003,-2.976501e+000
1.876306e+003,3.472290e-001
1.877270e+003,-1.094360e+000
1.878234e+003,-3.664551e+000
1.879198e+003,-3.277466e+000
1.880163e+003,-1.171082e+000
1.881127e+003,-3.356934e-002
1.882091e+003,-1.569214e-001
1.883055e+003,-6.345215e-001
1.884020e+003,-1.012085e+000
1.884984e+003,-8.497925e-001
1.885948e+003,3.344116e-001
1.886912e+003,1.474854e+000
1.887876e+003,1.615601e-001
1.888841e+003,-3.221558e+000
1.889805e+003,-4.139587e+000
1.890769e+003,-2.060608e+000
1.891733e+003,-3.561401e-001
1.892698e+003,3.890991e-001
1.893662e+003,7.733765e-001
1.894626e+003,1.532288e+000
1.895590e+003,1.518921e+000
1.896554e+003,-1.145630e+000
1.897519e+003,-3.883545e+000
1.898483e+003,-3.989075e+000
1.899447e+003,-1.976990e+000
1.900411e+003,1.689087e+000
1.901376e+003,7.296753e+000
1.902340e+003,1.020685e+001
1.903304e+003,6.667419e+000
1.904268e+003,3.070496e+000
1.905233e+003,4.808350e+000
1.906197e+003,7.214417e+000
1.907161e+003,4.707031e+000
1.908125e+003,-1.571655e-001
1.909090e+003,-3.047791e+000
1.910054e+003,-3.612854e+000
1.911018e+003,-2.771484e+000
1.911982e+003,-8.463135e-001
1.912947e+003,1.965210e+000
1.913911e+003,5.437927e+000
1.914875e+003,8.005554e+000
1.915839e+003,6.786987e+000
1.916803e+003,2.663391e+000
1.917768e+003,1.870544e+000
1.918732e+003,5.471863e+000
1.919696e+003,6.943359e+000
1.920660e+003,5.780823e+000
1.921625e+003,4.146912e+000
1.922589e+003,1.290894e+000
1.923553e+003,-4.843750e-001
1.924517e+003,9.652710e-001
1.925481e+003,3.315002e+000
1.926446e+003,4.934814e+000
1.927410e+003,5.857666e+000
1.928374e+003,5.815308e+000
1.929338e+003,4.749390e+000
1.930303e+003,4.377869e+000
1.931267e+003,6.046204e+000
1.932231e+003,7.201233e+000
1.933195e+003,5.048645e+000
1.934160e+003,3.171448e+000
1.935124e+003,4.504456e+000
1.936088e+003,7.122986e+000
1.937052e+003,1.013666e+001
1.938017e+003,1.244275e+001
1.938981e+003,1.120135e+001
1.939945e+003,6.746582e+000
1.940909e+003,2.527893e+000
1.941874e+003,1.526489e-001
1.942838e+003,-7.450562e-001
1.943802e+003,-1.386719e-001
1.944766e+003,1.253235e+000
1.945730e+003,1.114685e+000
1.946695e+003,-4.638062e-001
1.947659e+003,-7.869873e-001
1.948623e+003,1.162720e-001
1.949587e+003,1.971436e+000
1.950552e+003,5.671082e+000
1.951516e+003,7.054443e+000
1.952480e+003,3.288330e+000
1.953444e+003,-1.977539e-002
1.954408e+003,1.317810e+000
1.955373e+003,4.554749e+000
1.956337e+003,6.964355e+000
1.957301e+003,8.690491e+000
1.958265e+003,8.581848e+000
1.959230e+003,6.295654e+000
1.960194e+003,5.345642e+000
1.961158e+003,6.414978e+000
1.962122e+003,7.383423e+000
1.963087e+003,8.710571e+000
1.964051e+003,8.772217e+000
1.965015e+003,5.729614e+000
1.965979e+003,2.417114e+000
1.966944e+003,1.546936e+000
1.967908e+003,2.032959e+000
1.968872e+003,1.404724e+000
1.969836e+003,-1.968384e-001
1.970801e+003,-4.216309e-001
1.971765e+003,1.713501e+000
1.972729e+003,4.816040e+000
1.973693e+003,8.096191e+000
1.974657e+003,1.044751e+001
1.975622e+003,8.988586e+000
1.976586e+003,5.493835e+000
1.977550e+003,5.853149e+000
1.978514e+003,9.389038e+000
1.979479e+003,1.064960e+001
1.980443e+003,8.883118e+000
1.981407e+003,7.370667e+000
1.982371e+003,7.468811e+000
1.983335e+003,7.901306e+000
1.984300e+003,7.477051e+000
1.985264e+003,6.819214e+000
1.986228e+003,7.228760e+000
1.987192e+003,8.320251e+000
1.988157e+003,7.963379e+000
1.989121e+003,5.507751e+000
1.990085e+003,5.923523e+000
1.991049e+003,1.277283e+001
1.992014e+003,1.566638e+001
1.992978e+003,9.150024e+000
1.993942e+003,3.898499e+000
1.994906e+003,4.511780e+000
1.995871e+003,6.684082e+000
1.996835e+003,8.279907e+000
1.997799e+003,9.058472e+000
1.998763e+003,7.551147e+000
1.999728e+003,4.661072e+000
