5.003444e+002,2.948413e+001
5.013087e+002,2.809689e+001
5.022729e+002,2.937808e+001
5.032371e+002,3.238232e+001
5.042014e+002,3.287521e+001
5.051656e+002,3.126834e+001
5.061298e+002,2.911066e+001
5.070941e+002,2.773932e+001
5.080583e+002,2.727405e+001
5.090225e+002,2.618396e+001
5.099868e+002,2.360352e+001
5.109510e+002,2.145511e+001
5.119152e+002,2.074570e+001
5.128795e+002,2.158759e+001
5.138437e+002,2.311816e+001
5.148079e+002,2.671677e+001
5.157722e+002,2.954611e+001
5.167364e+002,2.999933e+001
5.177006e+002,2.803925e+001
5.186649e+002,2.505292e+001
5.196291e+002,2.211386e+001
5.205933e+002,2.000897e+001
5.215576e+002,1.967453e+001
5.225218e+002,2.084659e+001
5.234860e+002,2.245142e+001
5.244503e+002,2.279102e+001
5.254145e+002,2.162891e+001
5.263787e+002,2.127542e+001
5.273430e+002,2.231873e+001
5.283072e+002,2.377484e+001
5.292714e+002,2.408633e+001
5.302357e+002,2.208337e+001
5.311999e+002,2.072998e+001
5.321641e+002,2.177203e+001
5.331284e+002,2.300970e+001
5.340926e+002,2.214453e+001
5.350568e+002,1.804291e+001
5.360211e+002,1.406729e+001
5.369853e+002,1.401068e+001
5.379495e+002,1.556082e+001
5.389138e+002,1.706366e+001
5.398780e+002,1.772940e+001
5.408422e+002,1.774594e+001
5.418065e+002,1.760602e+001
5.427707e+002,1.733032e+001
5.437349e+002,1.708456e+001
5.446992e+002,1.687451e+001
5.456634e+002,1.667444e+001
5.466276e+002,1.648212e+001
5.475919e+002,1.656982e+001
5.485561e+002,1.647543e+001
5.495203e+002,1.652097e+001
5.504846e+002,1.608920e+001
5.514488e+002,1.394217e+001
5.524130e+002,8.345673e+000
5.533773e+002,4.476105e+000
5.543415e+002,5.697632e+000
5.553057e+002,9.141846e+000
5.562700e+002,1.223404e+001
5.572342e+002,1.334436e+001
5.581984e+002,1.265009e+001
5.591627e+002,9.594208e+000
5.601269e+002,5.476807e+000
5.610911e+002,3.171112e+000
5.620554e+002,4.231812e+000
5.630196e+002,8.040955e+000
5.639838e+002,9.765076e+000
5.649481e+002,7.179016e+000
5.659123e+002,5.774475e+000
5.668765e+002,7.816833e+000
5.678408e+002,1.205215e+001
5.688050e+002,1.445883e+001
5.697692e+002,1.226822e+001
5.707335e+002,9.793945e+000
5.716977e+002,8.328278e+000
5.726619e+002,7.585144e+000
5.736262e+002,7.048218e+000
5.745904e+002,6.403931e+000
5.755546e+002,5.947784e+000
5.765189e+002,5.857574e+000
5.774831e+002,5.918060e+000
5.784473e+002,6.097260e+000
5.794116e+002,6.463745e+000
5.803758e+002,7.145752e+000
5.813400e+002,7.897583e+000
5.823043e+002,8.834106e+000
5.832685e+002,8.776642e+000
5.842327e+002,6.872559e+000
5.851970e+002,3.653778e+000
5.861612e+002,1.663757e+000
5.871254e+002,1.767456e+000
5.880897e+002,2.371613e+000
5.890539e+002,3.652618e+000
5.900181e+002,5.022308e+000
5.909824e+002,5.491180e+000
5.919466e+002,3.989136e+000
5.929108e+002,2.725922e+000
5.938751e+002,4.513092e+000
5.948393e+002,7.854218e+000
5.958035e+002,1.050232e+001
5.967678e+002,1.085907e+001
5.977320e+002,9.338593e+000
5.986962e+002,8.404388e+000
5.996605e+002,7.854797e+000
6.006247e+002,6.929260e+000
6.015889e+002,5.065918e+000
6.025532e+002,2.387787e+000
6.035174e+002,2.776794e-001
6.044816e+002,-1.196533e+000
6.054459e+002,-1.963440e+000
6.064101e+002,-1.893097e+000
6.073743e+002,-1.132538e+000
6.083386e+002,1.950989e-001
6.093028e+002,2.371948e+000
6.102670e+002,4.571075e+000
6.112313e+002,6.318909e+000
6.121955e+002,7.577301e+000
6.131597e+002,8.476715e+000
6.141240e+002,9.068176e+000
6.150882e+002,9.029755e+000
6.160524e+002,6.177490e+000
6.170167e+002,1.153107e+000
6.179809e+002,-2.697418e+000
6.189451e+002,-3.925018e+000
6.199094e+002,-2.861511e+000
6.208736e+002,-1.274170e+000
6.218378e+002,2.724701e+000
6.228021e+002,5.473236e+000
6.237663e+002,6.418701e+000
6.247305e+002,6.055115e+000
6.256948e+002,4.922333e+000
6.266590e+002,2.540955e+000
6.276232e+002,4.045410e-001
6.285875e+002,-2.199707e-001
6.295517e+002,-6.964111e-002
6.305159e+002,1.480103e-002
6.314802e+002,-4.837036e-001
6.324444e+002,-1.347748e+000
6.334086e+002,-1.950073e+000
6.343729e+002,-2.080750e+000
6.353371e+002,-9.271545e-001
6.363013e+002,2.113342e+000
6.372656e+002,6.019135e+000
6.382298e+002,7.274628e+000
6.391940e+002,2.705078e+000
6.401583e+002,-7.436218e-001
6.411225e+002,-2.336945e+000
6.420867e+002,-2.666016e+000
6.430510e+002,-2.529816e+000
6.440152e+002,-2.236847e+000
6.449794e+002,-1.824280e+000
6.459437e+002,-7.482605e-001
6.469079e+002,7.461548e-002
6.478721e+002,-1.801147e-001
6.488364e+002,-1.663788e+000
6.498006e+002,-3.635773e+000
6.507648e+002,-5.346558e+000
6.517291e+002,-6.575165e+000
6.526933e+002,-6.171417e+000
6.536575e+002,-3.829224e+000
6.546218e+002,-7.417603e-001
6.555860e+002,8.436584e-001
6.565502e+002,3.459778e-001
6.575145e+002,-8.742065e-001
6.584787e+002,-3.845123e+000
6.594429e+002,-6.603943e+000
6.604072e+002,-7.338837e+000
6.613714e+002,-5.597626e+000
6.623356e+002,-3.912567e+000
6.632999e+002,-3.497864e+000
6.642641e+002,-3.711914e+000
6.652283e+002,-4.462555e+000
6.661926e+002,-5.388000e+000
6.671568e+002,-5.944458e+000
6.681210e+002,-5.623993e+000
6.690853e+002,-4.501953e+000
6.700495e+002,-2.409760e+000
6.710137e+002,5.385742e-001
6.719780e+002,2.959991e+000
6.729422e+002,3.279816e+000
6.739064e+002,9.274597e-001
6.748707e+002,-7.233887e-001
6.758349e+002,-1.523010e+000
6.767991e+002,-2.118042e+000
6.777634e+002,-2.710419e+000
6.787276e+002,-3.100647e+000
6.796918e+002,-2.753632e+000
6.806561e+002,-6.812134e-001
6.816203e+002,8.595581e-001
6.825845e+002,8.907471e-001
6.835488e+002,-1.638794e-001
6.845130e+002,-1.759369e+000
6.854772e+002,-3.597229e+000
6.864415e+002,-4.814758e+000
6.874057e+002,-3.235413e+000
6.883699e+002,-9.857178e-002
6.893342e+002,1.823242e+000
6.902984e+002,9.386597e-001
6.912626e+002,-2.156036e+000
6.922269e+002,-3.773651e+000
6.931911e+002,-2.574371e+000
6.941553e+002,-1.029877e+000
6.951196e+002,1.108734e+000
6.960838e+002,2.989319e+000
6.970480e+002,3.077362e+000
6.980123e+002,4.699707e-002
6.989765e+002,-1.824493e+000
6.999407e+002,3.251648e-001
7.009050e+002,3.228729e+000
7.018692e+002,4.144012e+000
7.028334e+002,2.216705e+000
7.037977e+002,-9.430542e-001
7.047619e+002,-2.988617e+000
7.057261e+002,-4.003326e+000
7.066904e+002,-4.406250e+000
7.076546e+002,-4.265564e+000
7.086188e+002,-3.709869e+000
7.095831e+002,-2.914093e+000
7.105473e+002,-1.836670e+000
7.115115e+002,-1.050690e+000
7.124758e+002,-1.034943e+000
7.134400e+002,-9.267578e-001
7.144042e+002,4.364624e-001
7.153685e+002,3.063873e+000
7.163327e+002,4.325623e+000
7.172969e+002,9.427795e-001
7.182612e+002,-2.137115e+000
7.192254e+002,-2.600952e+000
7.201896e+002,-1.254700e+000
7.211539e+002,-1.369019e-001
7.221181e+002,-9.805908e-001
7.230823e+002,-2.820892e+000
7.240466e+002,-2.843353e+000
7.250108e+002,-1.292328e+000
7.259750e+002,3.280029e-001
7.269393e+002,9.635620e-001
7.279035e+002,5.030212e-001
7.288677e+002,-7.644653e-002
7.298320e+002,-2.724304e-001
7.307962e+002,-3.196411e-001
7.317604e+002,-2.253723e-001
7.327247e+002,6.274414e-002
7.336889e+002,4.036865e-001
7.346531e+002,3.700562e-001
7.356174e+002,3.524170e-001
7.365816e+002,1.310425e+000
7.375458e+002,2.589935e+000
7.385101e+002,3.686432e+000
7.394743e+002,4.448944e+000
7.404385e+002,5.061035e+000
7.414028e+002,5.724335e+000
7.423670e+002,5.935913e+000
7.433312e+002,5.539490e+000
7.442955e+002,4.797791e+000
7.452597e+002,4.328033e+000
7.462239e+002,4.845215e+000
7.471882e+002,6.757172e+000
7.481524e+002,7.320160e+000
7.491166e+002,4.559784e+000
7.500809e+002,2.295593e+000
7.510451e+002,2.645294e+000
7.520093e+002,4.846710e+000
7.529736e+002,5.913696e+000
7.539378e+002,4.074493e+000
7.549020e+002,1.895203e+000
7.558663e+002,5.058899e-001
7.568306e+002,-4.003906e-002
7.577948e+002,4.678040e-001
7.587590e+002,1.999359e+000
7.597233e+002,3.842773e+000
7.606875e+002,4.166077e+000
7.616517e+002,3.317444e+000
7.626160e+002,2.522400e+000
7.635802e+002,2.099060e+000
7.645444e+002,1.967682e+000
7.655087e+002,1.889374e+000
7.664729e+002,1.682068e+000
7.674371e+002,1.821198e+000
7.684014e+002,2.812592e+000
7.693656e+002,3.623566e+000
7.703298e+002,3.311584e+000
7.712941e+002,1.956055e+000
7.722583e+002,1.073792e+000
7.732225e+002,2.369507e+000
7.741868e+002,4.000000e+000
7.751510e+002,4.566681e+000
7.761152e+002,4.216766e+000
7.770795e+002,3.538483e+000
7.780437e+002,3.015533e+000
7.790079e+002,2.559296e+000
7.799722e+002,1.730988e+000
7.809364e+002,3.596802e-001
7.819006e+002,-3.982849e-001
7.828649e+002,5.315247e-001
7.838291e+002,2.659332e+000
7.847933e+002,3.964508e+000
7.857576e+002,3.747955e+000
7.867218e+002,2.979340e+000
7.876860e+002,1.651367e+000
7.886503e+002,4.832153e-001
7.896145e+002,1.910706e-001
7.905787e+002,8.955994e-001
7.915430e+002,1.720001e+000
7.925072e+002,1.159088e+000
7.934714e+002,1.889648e-001
7.944357e+002,5.381470e-001
7.953999e+002,2.180267e+000
7.963641e+002,3.648804e+000
7.973284e+002,3.151703e+000
7.982926e+002,5.106812e-001
7.992568e+002,-6.135864e-001
8.002211e+002,-7.752075e-001
8.011853e+002,-1.202393e-001
8.021495e+002,2.939789e+000
8.031138e+002,7.576599e+000
8.040780e+002,9.471863e+000
8.050422e+002,4.827454e+000
8.060065e+002,1.755615e+000
8.069707e+002,4.272614e+000
8.079349e+002,8.296570e+000
8.088992e+002,9.685242e+000
8.098634e+002,7.194885e+000
8.108276e+002,3.612488e+000
8.117919e+002,2.604034e+000
8.127561e+002,2.999359e+000
8.137203e+002,3.386932e+000
8.146846e+002,3.812317e+000
8.156488e+002,4.129181e+000
8.166130e+002,3.968018e+000
8.175773e+002,3.167908e+000
8.185415e+002,2.440735e+000
8.195057e+002,1.193909e+000
8.204700e+002,2.869568e-001
8.214342e+002,1.468506e-001
8.223984e+002,5.847778e-001
8.233627e+002,1.111572e+000
8.243269e+002,1.707184e+000
8.252911e+002,2.278687e+000
8.262554e+002,2.567566e+000
8.272196e+002,2.870056e+000
8.281838e+002,3.415924e+000
8.291481e+002,4.306763e+000
8.301123e+002,5.670624e+000
8.310765e+002,8.167969e+000
8.320408e+002,1.129321e+001
8.330050e+002,1.105478e+001
8.339692e+002,6.442078e+000
8.349335e+002,1.123596e+000
8.358977e+002,-9.603577e-001
8.368619e+002,7.787781e-001
8.378262e+002,2.312042e+000
8.387904e+002,3.077606e+000
8.397546e+002,3.759888e+000
8.407189e+002,4.634338e+000
8.416831e+002,5.558319e+000
8.426473e+002,6.197662e+000
8.436116e+002,6.352020e+000
8.445758e+002,6.586761e+000
8.455400e+002,7.494751e+000
8.465043e+002,8.352997e+000
8.474685e+002,8.670166e+000
8.484327e+002,8.460968e+000
8.493970e+002,7.926910e+000
8.503612e+002,7.076874e+000
8.513254e+002,5.667603e+000
8.522897e+002,5.155457e+000
8.532539e+002,5.459259e+000
8.542181e+002,6.303528e+000
8.551824e+002,8.008240e+000
8.561466e+002,1.067807e+001
8.571108e+002,1.337946e+001
8.580751e+002,1.566333e+001
8.590393e+002,1.707565e+001
8.600035e+002,1.769565e+001
8.609678e+002,1.772580e+001
8.619320e+002,1.704114e+001
8.628962e+002,1.566290e+001
8.638605e+002,1.436014e+001
8.648247e+002,1.469290e+001
8.657889e+002,1.586539e+001
8.667532e+002,1.618167e+001
8.677174e+002,1.542404e+001
8.686816e+002,1.447272e+001
8.696459e+002,1.450671e+001
8.706101e+002,1.592929e+001
8.715743e+002,1.616666e+001
8.725386e+002,1.308371e+001
8.735028e+002,1.164691e+001
8.744670e+002,1.400879e+001
8.754313e+002,1.833734e+001
8.763955e+002,2.140198e+001
8.773597e+002,2.215799e+001
8.783240e+002,2.201080e+001
8.792882e+002,2.143478e+001
8.802524e+002,2.071548e+001
8.812167e+002,2.006207e+001
8.821809e+002,1.958649e+001
8.831451e+002,1.941071e+001
8.841094e+002,1.975256e+001
8.850736e+002,2.076178e+001
8.860378e+002,2.180698e+001
8.870021e+002,2.276440e+001
8.879663e+002,2.368958e+001
8.889305e+002,2.484845e+001
8.898948e+002,2.595157e+001
8.908590e+002,2.563565e+001
8.918232e+002,2.200613e+001
8.927875e+002,2.048593e+001
8.937517e+002,2.371170e+001
8.947159e+002,2.814996e+001
8.956802e+002,3.085040e+001
8.966444e+002,3.102100e+001
8.976086e+002,2.988806e+001
8.985729e+002,2.841290e+001
8.995371e+002,2.711499e+001
9.005013e+002,2.656549e+001
9.014656e+002,2.679666e+001
9.024298e+002,2.739169e+001
9.033940e+002,2.789542e+001
9.043583e+002,2.820712e+001
9.053225e+002,2.894241e+001
9.062867e+002,3.113336e+001
9.072510e+002,3.198566e+001
9.082152e+002,3.098798e+001
9.091794e+002,2.941876e+001
9.101437e+002,2.813547e+001
9.111079e+002,2.723660e+001
9.120721e+002,2.739127e+001
9.130364e+002,3.027951e+001
9.140006e+002,3.286215e+001
9.149648e+002,3.322855e+001
9.159291e+002,3.217172e+001
9.168933e+002,3.136014e+001
9.178575e+002,3.185760e+001
9.188218e+002,3.310712e+001
9.197860e+002,3.362604e+001
9.207502e+002,3.333215e+001
9.217145e+002,3.248773e+001
9.226787e+002,3.097028e+001
9.236429e+002,2.960193e+001
9.246072e+002,2.946207e+001
9.255714e+002,3.069269e+001
9.265356e+002,3.149017e+001
9.274999e+002,3.166116e+001
9.284641e+002,3.105170e+001
9.294283e+002,2.923886e+001
9.303926e+002,2.684784e+001
9.313568e+002,2.470279e+001
9.323210e+002,2.317764e+001
9.332853e+002,2.229321e+001
9.342495e+002,2.277783e+001
9.352137e+002,2.374313e+001
9.361780e+002,2.397888e+001
9.371422e+002,2.338858e+001
9.381064e+002,2.243887e+001
9.390707e+002,2.137949e+001
9.400349e+002,1.970316e+001
9.409991e+002,1.983505e+001
9.419634e+002,2.340732e+001
9.429276e+002,2.632281e+001
9.438918e+002,2.788055e+001
9.448561e+002,2.809143e+001
9.458203e+002,2.663138e+001
9.467845e+002,2.302896e+001
9.477488e+002,2.004184e+001
9.487130e+002,2.001898e+001
9.496772e+002,2.115625e+001
9.506415e+002,2.246490e+001
9.516057e+002,2.362314e+001
9.525699e+002,2.455035e+001
9.535342e+002,2.515823e+001
9.544984e+002,2.531073e+001
9.554626e+002,2.429285e+001
9.564269e+002,2.194540e+001
9.573911e+002,2.080185e+001
9.583553e+002,2.243643e+001
9.593196e+002,2.513434e+001
9.602838e+002,2.574146e+001
9.612480e+002,2.326953e+001
9.622123e+002,2.210794e+001
9.631765e+002,2.556253e+001
9.641407e+002,2.871225e+001
9.651050e+002,2.931979e+001
9.660692e+002,2.758331e+001
9.670334e+002,2.431018e+001
9.679977e+002,2.005905e+001
9.689619e+002,1.611523e+001
9.699261e+002,1.522791e+001
9.708904e+002,1.644351e+001
9.718546e+002,1.816626e+001
9.728188e+002,2.011597e+001
9.737831e+002,2.180878e+001
9.747473e+002,2.242618e+001
9.757115e+002,2.160828e+001
9.766758e+002,2.213867e+001
9.776400e+002,2.661288e+001
9.786042e+002,2.963901e+001
9.795685e+002,2.881967e+001
9.805327e+002,2.598370e+001
9.814969e+002,2.375113e+001
9.824612e+002,2.313269e+001
9.834254e+002,2.321759e+001
9.843896e+002,2.304333e+001
9.853539e+002,2.275699e+001
9.863181e+002,2.261615e+001
9.872823e+002,2.247601e+001
9.882466e+002,2.210010e+001
9.892108e+002,2.148187e+001
9.901750e+002,2.104269e+001
9.911393e+002,2.164093e+001
9.921035e+002,2.272403e+001
9.930677e+002,2.464316e+001
9.940320e+002,2.800217e+001
9.949962e+002,3.219614e+001
9.959604e+002,3.741641e+001
9.969247e+002,4.351746e+001
9.978889e+002,4.759943e+001
9.988531e+002,4.634842e+001
9.998174e+002,4.426456e+001
1.000782e+003,4.418402e+001
1.001746e+003,4.551224e+001
1.002710e+003,4.734344e+001
1.003674e+003,4.909531e+001
1.004639e+003,5.036008e+001
1.005603e+003,5.032480e+001
1.006567e+003,4.875229e+001
1.007531e+003,4.830078e+001
1.008495e+003,4.985236e+001
1.009460e+003,5.082907e+001
1.010424e+003,4.919559e+001
1.011388e+003,4.574698e+001
1.012352e+003,4.368222e+001
1.013317e+003,4.434561e+001
1.014281e+003,4.407230e+001
1.015245e+003,4.097516e+001
1.016209e+003,3.718619e+001
1.017174e+003,3.424261e+001
1.018138e+003,3.230560e+001
1.019102e+003,3.051770e+001
1.020066e+003,2.816235e+001
1.021031e+003,2.588800e+001
1.021995e+003,2.562418e+001
1.022959e+003,2.668771e+001
1.023923e+003,2.678976e+001
1.024887e+003,2.515472e+001
1.025852e+003,2.217786e+001
1.026816e+003,1.776434e+001
1.027780e+003,1.093173e+001
1.028744e+003,8.294556e+000
1.029709e+003,1.537521e+001
1.030673e+003,2.067139e+001
1.031637e+003,1.963400e+001
1.032601e+003,1.508847e+001
1.033566e+003,1.096768e+001
1.034530e+003,8.780548e+000
1.035494e+003,8.060242e+000
1.036458e+003,8.799652e+000
1.037422e+003,1.023584e+001
1.038387e+003,1.149219e+001
1.039351e+003,1.234045e+001
1.040315e+003,1.186465e+001
1.041279e+003,9.092346e+000
1.042244e+003,5.062256e+000
1.043208e+003,4.748962e+000
1.044172e+003,1.209488e+001
1.045136e+003,1.587991e+001
1.046101e+003,1.352768e+001
1.047065e+003,1.035779e+001
1.048029e+003,9.589020e+000
1.048993e+003,1.095703e+001
1.049958e+003,1.259369e+001
1.050922e+003,1.405765e+001
1.051886e+003,1.483798e+001
1.052850e+003,1.392712e+001
1.053814e+003,1.226312e+001
1.054779e+003,1.101221e+001
1.055743e+003,1.039078e+001
1.056707e+003,9.863007e+000
1.057671e+003,8.748932e+000
1.058636e+003,6.996033e+000
1.059600e+003,6.349548e+000
1.060564e+003,8.294556e+000
1.061528e+003,9.700104e+000
1.062493e+003,9.321075e+000
1.063457e+003,8.327423e+000
1.064421e+003,8.349335e+000
1.065385e+003,9.628998e+000
1.066349e+003,1.045752e+001
1.067314e+003,9.464783e+000
1.068278e+003,8.389923e+000
1.069242e+003,8.466003e+000
1.070206e+003,9.407440e+000
1.071171e+003,1.083945e+001
1.072135e+003,1.238010e+001
1.073099e+003,1.346075e+001
1.074063e+003,1.328073e+001
1.075028e+003,1.181198e+001
1.075992e+003,1.014865e+001
1.076956e+003,7.578278e+000
1.077920e+003,5.608063e+000
1.078885e+003,5.159912e+000
1.079849e+003,5.832672e+000
1.080813e+003,6.813019e+000
1.081777e+003,8.052094e+000
1.082741e+003,9.468933e+000
1.083706e+003,1.095547e+001
1.084670e+003,1.219351e+001
1.085634e+003,1.352151e+001
1.086598e+003,1.435941e+001
1.087563e+003,1.331900e+001
1.088527e+003,9.921356e+000
1.089491e+003,6.056763e+000
1.090455e+003,5.256165e+000
1.091420e+003,7.763947e+000
1.092384e+003,9.081207e+000
1.093348e+003,8.627380e+000
1.094312e+003,7.760437e+000
1.095276e+003,7.291168e+000
1.096241e+003,7.279755e+000
1.097205e+003,7.628143e+000
1.098169e+003,8.452728e+000
1.099133e+003,8.732178e+000
1.100098e+003,7.059845e+000
1.101062e+003,5.895874e+000
1.102026e+003,7.457397e+000
1.102990e+003,1.082419e+001
1.103955e+003,1.349234e+001
1.104919e+003,1.391415e+001
1.105883e+003,1.306375e+001
1.106847e+003,1.315753e+001
1.107812e+003,1.417862e+001
1.108776e+003,1.473471e+001
1.109740e+003,1.465103e+001
1.110704e+003,1.435483e+001
1.111668e+003,1.420499e+001
1.112633e+003,1.435345e+001
1.113597e+003,1.485074e+001
1.114561e+003,1.557907e+001
1.115525e+003,1.650870e+001
1.116490e+003,1.767950e+001
1.117454e+003,1.889218e+001
1.118418e+003,2.022430e+001
1.119382e+003,2.173468e+001
1.120347e+003,2.346078e+001
1.121311e+003,2.524255e+001
1.122275e+003,2.637671e+001
1.123239e+003,2.576147e+001
1.124203e+003,2.385535e+001
1.125168e+003,2.284378e+001
1.126132e+003,2.306406e+001
1.127096e+003,2.390674e+001
1.128060e+003,2.501523e+001
1.129025e+003,2.622348e+001
1.129989e+003,2.702975e+001
1.130953e+003,2.693250e+001
1.131917e+003,2.729327e+001
1.132882e+003,2.933859e+001
1.133846e+003,3.125500e+001
1.134810e+003,3.132773e+001
1.135774e+003,3.043497e+001
1.136739e+003,3.051068e+001
1.137703e+003,3.264560e+001
1.138667e+003,3.662793e+001
1.139631e+003,4.272723e+001
1.140595e+003,5.055130e+001
1.141560e+003,5.701843e+001
1.142524e+003,6.170721e+001
1.143488e+003,6.672366e+001
1.144452e+003,7.345184e+001
1.145417e+003,8.155673e+001
1.146381e+003,8.975424e+001
1.147345e+003,9.763562e+001
1.148309e+003,1.064465e+002
1.149274e+003,1.169729e+002
1.150238e+003,1.281612e+002
1.151202e+003,1.400935e+002
1.152166e+003,1.523859e+002
1.153130e+003,1.652934e+002
1.154095e+003,1.783806e+002
1.155059e+003,1.883291e+002
1.156023e+003,1.904229e+002
1.156987e+003,1.851328e+002
1.157952e+003,1.783951e+002
1.158916e+003,1.704734e+002
1.159880e+003,1.623110e+002
1.160844e+003,1.540037e+002
1.161809e+003,1.450927e+002
1.162773e+003,1.352534e+002
1.163737e+003,1.244062e+002
1.164701e+003,1.130888e+002
1.165666e+003,9.835257e+001
1.166630e+003,8.684781e+001
1.167594e+003,8.309787e+001
1.168558e+003,8.317361e+001
1.169522e+003,8.195541e+001
1.170487e+003,7.777405e+001
1.171451e+003,7.250833e+001
1.172415e+003,6.800485e+001
1.173379e+003,6.435397e+001
1.174344e+003,6.238458e+001
1.175308e+003,6.212860e+001
1.176272e+003,6.256219e+001
1.177236e+003,6.432916e+001
1.178201e+003,6.604361e+001
1.179165e+003,6.570578e+001
1.180129e+003,6.313235e+001
1.181093e+003,5.973373e+001
1.182057e+003,5.482477e+001
1.183022e+003,5.084351e+001
1.183986e+003,4.845407e+001
1.184950e+003,4.745673e+001
1.185914e+003,4.848764e+001
1.186879e+003,5.093045e+001
1.187843e+003,5.264777e+001
1.188807e+003,5.179474e+001
1.189771e+003,4.937326e+001
1.190736e+003,4.874753e+001
1.191700e+003,5.011301e+001
1.192664e+003,5.113339e+001
1.193628e+003,5.188550e+001
1.194593e+003,5.219604e+001
1.195557e+003,5.194867e+001
1.196521e+003,5.108292e+001
1.197485e+003,4.928784e+001
1.198449e+003,4.609634e+001
1.199414e+003,4.345840e+001
1.200378e+003,4.348172e+001
1.201342e+003,4.327527e+001
1.202306e+003,4.001678e+001
1.203271e+003,3.507739e+001
1.204235e+003,3.195676e+001
1.205199e+003,3.224567e+001
1.206163e+003,3.363892e+001
1.207128e+003,3.210962e+001
1.208092e+003,2.746567e+001
1.209056e+003,2.468503e+001
1.210020e+003,2.488318e+001
1.210984e+003,2.442218e+001
1.211949e+003,2.147382e+001
1.212913e+003,1.770441e+001
1.213877e+003,1.555588e+001
1.214841e+003,1.519507e+001
1.215806e+003,1.442062e+001
1.216770e+003,1.217056e+001
1.217734e+003,9.502350e+000
1.218698e+003,6.684387e+000
1.219663e+003,4.033295e+000
1.220627e+003,1.914246e+000
1.221591e+003,4.469299e-001
1.222555e+003,-2.686462e-001
1.223520e+003,-6.228638e-002
1.224484e+003,8.521423e-001
1.225448e+003,1.026764e+000
1.226412e+003,-4.272461e-003
1.227376e+003,-9.158936e-001
1.228341e+003,-2.346924e+000
1.229305e+003,-3.109375e+000
1.230269e+003,-1.669952e+000
1.231233e+003,6.285400e-001
1.232198e+003,6.828308e-001
1.233162e+003,-2.359894e+000
1.234126e+003,-4.638092e+000
1.235090e+003,-2.703522e+000
1.236055e+003,4.387207e-001
1.237019e+003,1.478058e+000
1.237983e+003,9.516602e-001
1.238947e+003,8.379211e-001
1.239911e+003,2.056671e+000
1.240876e+003,3.492889e+000
1.241840e+003,3.251038e+000
1.242804e+003,1.202942e+000
1.243768e+003,8.975220e-002
1.244733e+003,5.718689e-001
1.245697e+003,1.226044e+000
1.246661e+003,2.338654e+000
1.247625e+003,2.850464e+000
1.248590e+003,1.260895e+000
1.249554e+003,-1.346191e+000
1.250518e+003,-1.776428e+000
1.251482e+003,1.468781e+000
1.252447e+003,5.222412e+000
1.253411e+003,5.635132e+000
1.254375e+003,4.175537e+000
1.255339e+003,3.687866e+000
1.256303e+003,4.394531e+000
1.257268e+003,5.805359e+000
1.258232e+003,7.862610e+000
1.259196e+003,9.650299e+000
1.260160e+003,8.963074e+000
1.261125e+003,5.120453e+000
1.262089e+003,4.315735e+000
1.263053e+003,1.023392e+001
1.264017e+003,1.508392e+001
1.264982e+003,1.685721e+001
1.265946e+003,1.707831e+001
1.266910e+003,1.716782e+001
1.267874e+003,1.726831e+001
1.268839e+003,1.663757e+001
1.269803e+003,1.478751e+001
1.270767e+003,1.234634e+001
1.271731e+003,1.042517e+001
1.272695e+003,9.178680e+000
1.273660e+003,8.658691e+000
1.274624e+003,8.664581e+000
1.275588e+003,9.029053e+000
1.276552e+003,1.107327e+001
1.277517e+003,1.319809e+001
1.278481e+003,1.123932e+001
1.279445e+003,4.479980e+000
1.280409e+003,-1.050110e-001
1.281374e+003,1.460358e+000
1.282338e+003,3.475006e+000
1.283302e+003,2.342072e+000
1.284266e+003,3.232727e-001
1.285230e+003,5.805664e-001
1.286195e+003,3.024750e+000
1.287159e+003,4.648193e+000
1.288123e+003,3.052094e+000
1.289087e+003,-3.492432e-001
1.290052e+003,-1.570709e+000
1.291016e+003,1.369934e-001
1.291980e+003,7.930908e-001
1.292944e+003,-8.020630e-001
1.293909e+003,-2.169037e+000
1.294873e+003,-1.834167e+000
1.295837e+003,-6.971130e-001
1.296801e+003,-1.484985e-001
1.297766e+003,-3.408203e-001
1.298730e+003,-4.488831e-001
1.299694e+003,-1.936951e-001
1.300658e+003,2.737427e-001
1.301622e+003,1.248291e+000
1.302587e+003,2.321381e+000
1.303551e+003,2.419678e+000
1.304515e+003,1.567017e+000
1.305479e+003,1.271820e+000
1.306444e+003,2.691742e+000
1.307408e+003,5.328949e+000
1.308372e+003,8.114594e+000
1.309336e+003,1.193118e+001
1.310301e+003,1.300455e+001
1.311265e+003,8.766296e+000
1.312229e+003,5.034027e+000
1.313193e+003,4.086761e+000
1.314157e+003,3.989563e+000
1.315122e+003,2.183533e+000
1.316086e+003,-1.242004e+000
1.317050e+003,-3.849548e+000
1.318014e+003,-3.909943e+000
1.318979e+003,-2.584229e+000
1.319943e+003,-2.201355e+000
1.320907e+003,-2.419891e+000
1.321871e+003,-9.429016e-001
1.322836e+003,2.712708e+000
1.323800e+003,5.685852e+000
1.324764e+003,6.241333e+000
1.325728e+003,5.372437e+000
1.326693e+003,4.764496e+000
1.327657e+003,4.369934e+000
1.328621e+003,2.830688e+000
1.329585e+003,-9.493103e-001
1.330549e+003,-3.475983e+000
1.331514e+003,-2.839539e+000
1.332478e+003,-1.289917e+000
1.333442e+003,-9.760437e-001
1.334406e+003,-1.605408e+000
1.335371e+003,-1.311737e+000
1.336335e+003,9.838867e-001
1.337299e+003,4.118317e+000
1.338263e+003,5.873901e+000
1.339228e+003,6.238434e+000
1.340192e+003,5.356079e+000
1.341156e+003,1.789825e+000
1.342120e+003,-8.529968e-001
1.343084e+003,-2.739624e+000
1.344049e+003,-3.287109e+000
1.345013e+003,-4.962463e-001
1.345977e+003,4.274353e+000
1.346941e+003,6.637390e+000
1.347906e+003,4.909790e+000
1.348870e+003,2.138916e+000
1.349834e+003,5.803223e-001
1.350798e+003,1.110535e-001
1.351763e+003,7.427368e-001
1.352727e+003,2.336273e+000
1.353691e+003,3.932770e+000
1.354655e+003,5.423706e+000
1.355620e+003,6.093323e+000
1.356584e+003,4.734680e+000
1.357548e+003,1.682648e+000
1.358512e+003,-7.055054e-001
1.359476e+003,-2.662506e+000
1.360441e+003,-3.856384e+000
1.361405e+003,-4.078339e+000
1.362369e+003,-3.469757e+000
1.363333e+003,-1.222717e+000
1.364298e+003,1.428070e+000
1.365262e+003,2.716278e+000
1.366226e+003,2.358856e+000
1.367190e+003,1.580017e+000
1.368155e+003,1.469879e+000
1.369119e+003,1.774109e+000
1.370083e+003,1.730835e+000
1.371047e+003,1.328705e+000
1.372011e+003,1.068054e+000
1.372976e+003,5.311279e-001
1.373940e+003,2.218628e-001
1.374904e+003,6.528320e-001
1.375868e+003,1.381622e+000
1.376833e+003,1.552521e+000
1.377797e+003,1.213470e+000
1.378761e+003,1.791687e+000
1.379725e+003,4.436127e+000
1.380690e+003,6.592590e+000
1.381654e+003,4.844543e+000
1.382618e+003,1.409576e+000
1.383582e+003,-1.347504e+000
1.384547e+003,-3.044525e+000
1.385511e+003,-2.628235e+000
1.386475e+003,8.035278e-001
1.387439e+003,4.984467e+000
1.388403e+003,6.369232e+000
1.389368e+003,4.943390e+000
1.390332e+003,3.574036e+000
1.391296e+003,1.947998e+000
1.392260e+003,1.509796e+000
1.393225e+003,3.615204e+000
1.394189e+003,5.642029e+000
1.395153e+003,5.925110e+000
1.396117e+003,5.229614e+000
1.397082e+003,4.997864e+000
1.398046e+003,5.596039e+000
1.399010e+003,6.167511e+000
1.399974e+003,5.798309e+000
1.400938e+003,4.535980e+000
1.401903e+003,3.126282e+000
1.402867e+003,1.859833e+000
1.403831e+003,1.993744e+000
1.404795e+003,4.001587e+000
1.405760e+003,6.166260e+000
1.406724e+003,8.374146e+000
1.407688e+003,9.403778e+000
1.408652e+003,7.438293e+000
1.409617e+003,3.310760e+000
1.410581e+003,6.518860e-001
1.411545e+003,1.058746e+000
1.412509e+003,2.289795e+000
1.413474e+003,2.186401e+000
1.414438e+003,1.193481e+000
1.415402e+003,2.159424e-001
1.416366e+003,-4.383545e-001
1.417330e+003,-1.813965e-001
1.418295e+003,1.303009e+000
1.419259e+003,3.459351e+000
1.420223e+003,5.918030e+000
1.421187e+003,8.360443e+000
1.422152e+003,9.524963e+000
1.423116e+003,9.345673e+000
1.424080e+003,8.828888e+000
1.425044e+003,7.494049e+000
1.426009e+003,6.241180e+000
1.426973e+003,4.984253e+000
1.427937e+003,4.280212e+000
1.428901e+003,5.185944e+000
1.429865e+003,7.524658e+000
1.430830e+003,1.016147e+001
1.431794e+003,1.221057e+001
1.432758e+003,1.307465e+001
1.433722e+003,1.163681e+001
1.434687e+003,7.848480e+000
1.435651e+003,6.503113e+000
1.436615e+003,8.324219e+000
1.437579e+003,1.005698e+001
1.438544e+003,1.197296e+001
1.439508e+003,1.335831e+001
1.440472e+003,1.369260e+001
1.441436e+003,1.344382e+001
1.442401e+003,1.339139e+001
1.443365e+003,1.361981e+001
1.444329e+003,1.339517e+001
1.445293e+003,1.209021e+001
1.446257e+003,1.055725e+001
1.447222e+003,1.070789e+001
1.448186e+003,1.203619e+001
1.449150e+003,1.160364e+001
1.450114e+003,8.476013e+000
1.451079e+003,6.087006e+000
1.452043e+003,7.101044e+000
1.453007e+003,9.470154e+000
1.453971e+003,1.020706e+001
1.454936e+003,9.386017e+000
1.455900e+003,8.402069e+000
1.456864e+003,7.272522e+000
1.457828e+003,7.387604e+000
1.458792e+003,1.106946e+001
1.459757e+003,1.468213e+001
1.460721e+003,1.521826e+001
1.461685e+003,1.341321e+001
1.462649e+003,1.068845e+001
1.463614e+003,7.688049e+000
1.464578e+003,5.217499e+000
1.465542e+003,3.925720e+000
1.466506e+003,3.521820e+000
1.467471e+003,3.445404e+000
1.468435e+003,3.949036e+000
1.469399e+003,4.722046e+000
1.470363e+003,4.862305e+000
1.471328e+003,6.105835e+000
1.472292e+003,1.078836e+001
1.473256e+003,1.440292e+001
1.474220e+003,1.268399e+001
1.475184e+003,8.201935e+000
1.476149e+003,6.082489e+000
1.477113e+003,7.746552e+000
1.478077e+003,1.048416e+001
1.479041e+003,1.188467e+001
1.480006e+003,1.227136e+001
1.480970e+003,1.213470e+001
1.481934e+003,1.083667e+001
1.482898e+003,1.084875e+001
1.483863e+003,1.306363e+001
1.484827e+003,1.507178e+001
1.485791e+003,1.636563e+001
1.486755e+003,1.744577e+001
1.487719e+003,1.858279e+001
1.488684e+003,1.969482e+001
1.489648e+003,2.046606e+001
1.490612e+003,2.095047e+001
1.491576e+003,2.248529e+001
1.492541e+003,2.658203e+001
1.493505e+003,3.143982e+001
1.494469e+003,3.261209e+001
1.495433e+003,3.056561e+001
1.496398e+003,2.931152e+001
1.497362e+003,2.928552e+001
1.498326e+003,3.130975e+001
1.499290e+003,3.712402e+001
1.500255e+003,4.422437e+001
1.501219e+003,4.879163e+001
1.502183e+003,5.124722e+001
1.503147e+003,5.487311e+001
1.504111e+003,6.041626e+001
1.505076e+003,6.698236e+001
1.506040e+003,7.435587e+001
1.507004e+003,8.236905e+001
1.507968e+003,9.113553e+001
1.508933e+003,1.002769e+002
1.509897e+003,1.086454e+002
1.510861e+003,1.164906e+002
1.511825e+003,1.261997e+002
1.512790e+003,1.395132e+002
1.513754e+003,1.547752e+002
1.514718e+003,1.689633e+002
1.515682e+003,1.818791e+002
1.516646e+003,1.967351e+002
1.517611e+003,2.161678e+002
1.518575e+003,2.324136e+002
1.519539e+003,2.426840e+002
1.520503e+003,2.499760e+002
1.521468e+003,2.554215e+002
1.522432e+003,2.587833e+002
1.523396e+003,2.598414e+002
1.524360e+003,2.583541e+002
1.525325e+003,2.537434e+002
1.526289e+003,2.456992e+002
1.527253e+003,2.352466e+002
1.528217e+003,2.239449e+002
1.529182e+003,2.119695e+002
1.530146e+003,1.999362e+002
1.531110e+003,1.895795e+002
1.532074e+003,1.753230e+002
1.533039e+003,1.529386e+002
1.534003e+003,1.306257e+002
1.534967e+003,1.120911e+002
1.535931e+003,9.633374e+001
1.536896e+003,8.167477e+001
1.537860e+003,6.821054e+001
1.538824e+003,5.727808e+001
1.539788e+003,4.936609e+001
1.540752e+003,4.298071e+001
1.541717e+003,3.619485e+001
1.542681e+003,2.962860e+001
1.543645e+003,2.649371e+001
1.544609e+003,2.915518e+001
1.545573e+003,2.985098e+001
1.546538e+003,2.616830e+001
1.547502e+003,2.311636e+001
1.548466e+003,2.363016e+001
1.549430e+003,2.528418e+001
1.550395e+003,2.577216e+001
1.551359e+003,2.477841e+001
1.552323e+003,2.193069e+001
1.553287e+003,1.741321e+001
1.554252e+003,1.471423e+001
1.555216e+003,1.737671e+001
1.556180e+003,2.250198e+001
1.557144e+003,2.316412e+001
1.558109e+003,1.924585e+001
1.559073e+003,1.616299e+001
1.560037e+003,1.366162e+001
1.561001e+003,1.206290e+001
1.561966e+003,1.222180e+001
1.562930e+003,1.321619e+001
1.563894e+003,1.447192e+001
1.564858e+003,1.553470e+001
1.565823e+003,1.528043e+001
1.566787e+003,1.358725e+001
1.567751e+003,1.254492e+001
1.568715e+003,1.366568e+001
1.569679e+003,1.514548e+001
1.570644e+003,1.403851e+001
1.571608e+003,1.146268e+001
1.572572e+003,1.162125e+001
1.573536e+003,1.486243e+001
1.574500e+003,1.648560e+001
1.575465e+003,1.393430e+001
1.576429e+003,1.076935e+001
1.577393e+003,9.610840e+000
1.578357e+003,9.807983e+000
1.579322e+003,1.062869e+001
1.580286e+003,1.195285e+001
1.581250e+003,1.240900e+001
1.582214e+003,1.133795e+001
1.583179e+003,1.018292e+001
1.584143e+003,9.713043e+000
1.585107e+003,9.791168e+000
1.586071e+003,1.074405e+001
1.587036e+003,1.244754e+001
1.588000e+003,1.371078e+001
1.588964e+003,1.409753e+001
1.589928e+003,1.442758e+001
1.590893e+003,1.556900e+001
1.591857e+003,1.671790e+001
1.592821e+003,1.646271e+001
1.593785e+003,1.509805e+001
1.594750e+003,1.384375e+001
1.595714e+003,1.252252e+001
1.596678e+003,1.294165e+001
1.597642e+003,1.747668e+001
1.598606e+003,2.157080e+001
1.599571e+003,2.030481e+001
1.600535e+003,1.737610e+001
1.601499e+003,1.812595e+001
1.602463e+003,2.203729e+001
1.603427e+003,2.445865e+001
1.604392e+003,2.344965e+001
1.605356e+003,2.112781e+001
1.606320e+003,1.915466e+001
1.607284e+003,1.770569e+001
1.608249e+003,1.752145e+001
1.609213e+003,1.866611e+001
1.610177e+003,1.901208e+001
1.611141e+003,1.778622e+001
1.612106e+003,1.682428e+001
1.613070e+003,1.749744e+001
1.614034e+003,1.826431e+001
1.614998e+003,1.780408e+001
1.615963e+003,1.676886e+001
1.616927e+003,1.632101e+001
1.617891e+003,1.654318e+001
1.618855e+003,1.661774e+001
1.619820e+003,1.593030e+001
1.620784e+003,1.487860e+001
1.621748e+003,1.423840e+001
1.622712e+003,1.431961e+001
1.623677e+003,1.564240e+001
1.624641e+003,1.873904e+001
1.625605e+003,1.989844e+001
1.626569e+003,1.589850e+001
1.627533e+003,1.285010e+001
1.628498e+003,1.555377e+001
1.629462e+003,1.928607e+001
1.630426e+003,1.985657e+001
1.631390e+003,1.816992e+001
1.632354e+003,1.692645e+001
1.633319e+003,1.674417e+001
1.634283e+003,1.621463e+001
1.635247e+003,1.408792e+001
1.636211e+003,1.152524e+001
1.637176e+003,1.089493e+001
1.638140e+003,1.214868e+001
1.639104e+003,1.315692e+001
1.640068e+003,1.389978e+001
1.641033e+003,1.378873e+001
1.641997e+003,1.161230e+001
1.642961e+003,1.030518e+001
1.643925e+003,1.230063e+001
1.644890e+003,1.494489e+001
1.645854e+003,1.547162e+001
1.646818e+003,1.432074e+001
1.647782e+003,1.316956e+001
1.648747e+003,1.258417e+001
1.649711e+003,1.254092e+001
1.650675e+003,1.320966e+001
1.651639e+003,1.439774e+001
1.652604e+003,1.557785e+001
1.653568e+003,1.662085e+001
1.654532e+003,1.709436e+001
1.655496e+003,1.710986e+001
1.656460e+003,1.597617e+001
1.657425e+003,1.159677e+001
1.658389e+003,8.808441e+000
1.659353e+003,1.210233e+001
1.660317e+003,1.672318e+001
1.661281e+003,1.720267e+001
1.662246e+003,1.434698e+001
1.663210e+003,1.193094e+001
1.664174e+003,1.131924e+001
1.665138e+003,1.196576e+001
1.666103e+003,1.377261e+001
1.667067e+003,1.565234e+001
1.668031e+003,1.551105e+001
1.668995e+003,1.349234e+001
1.669960e+003,1.043872e+001
1.670924e+003,5.678009e+000
1.671888e+003,3.463074e+000
1.672852e+003,7.289093e+000
1.673817e+003,1.055869e+001
1.674781e+003,7.699066e+000
1.675745e+003,3.139374e+000
1.676709e+003,1.785919e+000
1.677674e+003,3.103790e+000
1.678638e+003,4.120789e+000
1.679602e+003,3.921661e+000
1.680566e+003,3.789215e+000
1.681531e+003,4.858917e+000
1.682495e+003,6.659485e+000
1.683459e+003,8.675140e+000
1.684423e+003,1.052289e+001
1.685387e+003,1.016919e+001
1.686352e+003,7.192505e+000
1.687316e+003,4.558624e+000
1.688280e+003,3.173767e+000
1.689244e+003,2.376770e+000
1.690208e+003,1.171295e+000
1.691173e+003,5.794983e-001
1.692137e+003,2.733490e+000
1.693101e+003,6.726105e+000
1.694065e+003,9.048462e+000
1.695030e+003,8.630981e+000
1.695994e+003,7.300720e+000
1.696958e+003,5.774475e+000
1.697922e+003,4.636169e+000
1.698887e+003,5.238922e+000
1.699851e+003,6.774536e+000
1.700815e+003,6.053619e+000
1.701779e+003,2.800690e+000
1.702744e+003,1.050110e+000
1.703708e+003,2.594604e+000
1.704672e+003,4.762268e+000
1.705636e+003,5.931458e+000
1.706601e+003,5.736450e+000
1.707565e+003,2.874878e+000
1.708529e+003,-1.290253e+000
1.709493e+003,-2.621094e+000
1.710458e+003,-4.538879e-001
1.711422e+003,2.370697e+000
1.712386e+003,6.031006e+000
1.713350e+003,8.668121e+000
1.714314e+003,8.126740e+000
1.715279e+003,5.618744e+000
1.716243e+003,2.704834e+000
1.717207e+003,-5.902100e-002
1.718171e+003,-9.611206e-001
1.719135e+003,5.091248e-001
1.720100e+003,1.968903e+000
1.721064e+003,1.744476e+000
1.722028e+003,6.680603e-001
1.722992e+003,-7.803345e-002
1.723957e+003,-2.513123e-001
1.724921e+003,3.881836e-001
1.725885e+003,1.682037e+000
1.726849e+003,2.478302e+000
1.727814e+003,2.640503e+000
1.728778e+003,2.980042e+000
1.729742e+003,4.520477e+000
1.730706e+003,5.639008e+000
1.731671e+003,4.271149e+000
1.732635e+003,1.021667e+000
1.733599e+003,-2.916290e+000
1.734563e+003,-6.572693e+000
1.735528e+003,-7.671722e+000
1.736492e+003,-5.132751e+000
1.737456e+003,-1.807007e+000
1.738420e+003,-1.120514e+000
1.739385e+003,-2.332428e+000
1.740349e+003,-2.015289e+000
1.741313e+003,5.952454e-001
1.742277e+003,1.603760e+000
1.743241e+003,-1.188080e+000
1.744206e+003,-1.726410e+000
1.745170e+003,3.880371e+000
1.746134e+003,8.068573e+000
1.747098e+003,4.823181e+000
1.748063e+003,-7.418823e-001
1.749027e+003,-2.606415e+000
1.749991e+003,-1.042603e+000
1.750955e+003,1.082306e+000
1.751919e+003,2.386230e+000
1.752884e+003,2.239075e+000
1.753848e+003,8.435059e-002
1.754812e+003,-3.033051e+000
1.755776e+003,-4.973297e+000
1.756741e+003,-5.558899e+000
1.757705e+003,-4.386169e+000
1.758669e+003,-2.447205e-001
1.759633e+003,1.542755e+000
1.760598e+003,-2.092712e+000
1.761562e+003,-4.794342e+000
1.762526e+003,-3.287018e+000
1.763490e+003,-1.265259e+000
1.764455e+003,-1.221527e+000
1.765419e+003,-2.435455e+000
1.766383e+003,-4.386810e+000
1.767347e+003,-6.408783e+000
1.768312e+003,-6.065735e+000
1.769276e+003,-2.201904e+000
1.770240e+003,1.585754e+000
1.771204e+003,1.616974e+000
1.772168e+003,-5.014954e-001
1.773133e+003,-1.584381e+000
1.774097e+003,-1.754272e+000
1.775061e+003,-2.395660e+000
1.776025e+003,-4.084686e+000
1.776990e+003,-4.314911e+000
1.777954e+003,-1.330200e+000
1.778918e+003,1.959991e+000
1.779882e+003,3.770081e+000
1.780846e+003,4.056000e+000
1.781811e+003,2.302673e+000
1.782775e+003,-6.517029e-001
1.783739e+003,-2.053680e+000
1.784703e+003,-1.321625e+000
1.785668e+003,-5.911255e-001
1.786632e+003,-1.174194e+000
1.787596e+003,-1.940735e+000
1.788560e+003,-1.630066e+000
1.789525e+003,-7.752686e-001
1.790489e+003,-5.029297e-001
1.791453e+003,-7.062378e-001
1.792417e+003,-2.502136e-001
1.793382e+003,9.546509e-001
1.794346e+003,1.090363e+000
1.795310e+003,-9.207458e-001
1.796274e+003,-3.381592e+000
1.797239e+003,-4.257294e+000
1.798203e+003,-3.714386e+000
1.799167e+003,-3.049347e+000
1.800131e+003,-2.727966e+000
1.801095e+003,-2.012482e+000
1.802060e+003,7.623596e-001
1.803024e+003,2.032562e+000
1.803988e+003,-3.212280e-001
1.804952e+003,-2.345215e+000
1.805917e+003,-1.821350e+000
1.806881e+003,-3.812866e-001
1.807845e+003,8.861694e-001
1.808809e+003,1.552917e+000
1.809773e+003,8.882751e-001
1.810738e+003,-9.413452e-001
1.811702e+003,-2.623688e+000
1.812666e+003,-3.336243e+000
1.813630e+003,-2.998962e+000
1.814595e+003,-1.347137e+000
1.815559e+003,1.187042e+000
1.816523e+003,3.353119e+000
1.817487e+003,5.345032e+000
1.818452e+003,4.926086e+000
1.819416e+003,8.462830e-001
1.820380e+003,-1.671783e+000
1.821344e+003,-5.331116e-001
1.822309e+003,1.097870e+000
1.823273e+003,1.739410e+000
1.824237e+003,1.948303e+000
1.825201e+003,1.963104e+000
1.826166e+003,1.870514e+000
1.827130e+003,2.050201e+000
1.828094e+003,2.472748e+000
1.829058e+003,2.399933e+000
1.830022e+003,1.470367e+000
1.830987e+003,3.288879e-001
1.831951e+003,-7.770996e-001
1.832915e+003,-1.557190e+000
1.833879e+003,-1.269318e+000
1.834844e+003,-3.603516e-001
1.835808e+003,-1.678467e-001
1.836772e+003,-8.624573e-001
1.837736e+003,-2.076569e+000
1.838700e+003,-3.774841e+000
1.839665e+003,-5.380127e+000
1.840629e+003,-6.373840e+000
1.841593e+003,-6.492249e+000
1.842557e+003,-5.160889e+000
1.843522e+003,-2.420868e+000
1.844486e+003,-4.214172e-001
1.845450e+003,7.031555e-001
1.846414e+003,1.828918e+000
1.847379e+003,3.466309e+000
1.848343e+003,3.706360e+000
1.849307e+003,1.375305e+000
1.850271e+003,-1.656525e+000
1.851236e+003,-5.282104e+000
1.852200e+003,-7.791443e+000
1.853164e+003,-6.249878e+000
1.854128e+003,-2.009949e+000
1.855093e+003,4.718933e-001
1.856057e+003,-2.395325e-001
1.857021e+003,-1.859955e+000
1.857985e+003,-2.712341e+000
1.858949e+003,-2.965698e+000
1.859914e+003,-2.706207e+000
1.860878e+003,-1.964935e+000
1.861842e+003,-1.165405e+000
1.862806e+003,-3.749084e-001
1.863771e+003,2.187805e-001
1.864735e+003,6.741028e-001
1.865699e+003,-1.139832e-001
1.866663e+003,-3.514618e+000
1.867627e+003,-6.218475e+000
1.868592e+003,-4.888489e+000
1.869556e+003,-1.566986e+000
1.870520e+003,5.218506e-001
1.871484e+003,1.400848e+000
1.872449e+003,1.158051e+000
1.873413e+003,-1.010132e-001
1.874377e+003,-5.204773e-001
1.875341e+003,3.760376e-001
1.876306e+003,1.288147e+000
1.877270e+003,1.435760e+000
1.878234e+003,1.223846e+000
1.879198e+003,9.725647e-001
1.880163e+003,8.829651e-001
1.881127e+003,1.489685e+000
1.882091e+003,2.574585e+000
1.883055e+003,3.039612e+000
1.884020e+003,2.436737e+000
1.884984e+003,1.352692e+000
1.885948e+003,3.165894e-001
1.886912e+003,-5.964661e-001
1.887876e+003,-1.141846e+000
1.888841e+003,-1.362885e+000
1.889805e+003,-2.178345e+000
1.890769e+003,-3.835419e+000
1.891733e+003,-4.819061e+000
1.892698e+003,-5.399536e+000
1.893662e+003,-4.593842e+000
1.894626e+003,-4.014282e-001
1.895590e+003,3.227264e+000
1.896554e+003,3.230042e+000
1.897519e+003,1.654480e+000
1.898483e+003,2.557068e-001
1.899447e+003,-9.018250e-001
1.900411e+003,-1.381836e+000
1.901376e+003,-1.014709e+000
1.902340e+003,-3.489075e-001
1.903304e+003,7.398376e-001
1.904268e+003,1.478546e+000
1.905233e+003,1.018677e+000
1.906197e+003,4.950256e-001
1.907161e+003,1.403656e+000
1.908125e+003,3.030731e+000
1.909090e+003,3.670624e+000
1.910054e+003,3.332031e+000
1.911018e+003,3.628387e+000
1.911982e+003,5.010040e+000
1.912947e+003,5.493225e+000
1.913911e+003,3.557251e+000
1.914875e+003,1.296600e+000
1.915839e+003,2.041138e+000
1.916803e+003,4.912933e+000
1.917768e+003,6.219452e+000
1.918732e+003,5.886047e+000
1.919696e+003,5.413025e+000
1.920660e+003,4.876648e+000
1.921625e+003,4.391876e+000
1.922589e+003,3.664063e+000
1.923553e+003,3.220428e+000
1.924517e+003,3.624786e+000
1.925481e+003,4.243500e+000
1.926446e+003,5.032379e+000
1.927410e+003,5.461090e+000
1.928374e+003,4.057129e+000
1.929338e+003,8.181458e-001
1.930303e+003,-1.866974e+000
1.931267e+003,-3.348358e+000
1.932231e+003,-3.445831e+000
1.933195e+003,-1.109131e+000
1.934160e+003,1.060242e+000
1.935124e+003,6.348877e-001
1.936088e+003,-7.128906e-001
1.937052e+003,-4.687195e-001
1.938017e+003,7.635803e-001
1.938981e+003,8.793335e-001
1.939945e+003,-2.941895e-001
1.940909e+003,-1.462280e+000
1.941874e+003,-2.002960e+000
1.942838e+003,-1.678772e+000
1.943802e+003,1.022339e-002
1.944766e+003,1.914001e+000
1.945730e+003,8.410034e-001
1.946695e+003,-2.695099e+000
1.947659e+003,-2.922607e+000
1.948623e+003,4.693604e-001
1.949587e+003,3.026306e+000
1.950552e+003,4.272400e+000
1.951516e+003,5.247314e+000
1.952480e+003,6.521790e+000
1.953444e+003,7.029266e+000
1.954408e+003,5.168182e+000
1.955373e+003,2.724792e+000
1.956337e+003,2.627533e+000
1.957301e+003,4.455078e+000
1.958265e+003,6.297028e+000
1.959230e+003,8.321625e+000
1.960194e+003,8.727692e+000
1.961158e+003,5.477631e+000
1.962122e+003,2.641937e+000
1.963087e+003,1.293884e+000
1.964051e+003,6.994629e-001
1.965015e+003,1.382660e+000
1.965979e+003,2.158630e+000
1.966944e+003,8.827515e-001
1.967908e+003,-1.107422e+000
1.968872e+003,-5.061340e-001
1.969836e+003,2.459320e+000
1.970801e+003,4.284119e+000
1.971765e+003,3.544159e+000
1.972729e+003,2.157104e+000
1.973693e+003,1.560760e+000
1.974657e+003,1.674988e+000
1.975622e+003,2.822754e+000
1.976586e+003,4.291870e+000
1.977550e+003,4.021515e+000
1.978514e+003,2.455261e+000
1.979479e+003,1.914307e+000
1.980443e+003,2.669342e+000
1.981407e+003,3.876282e+000
1.982371e+003,5.346436e+000
1.983335e+003,6.427307e+000
1.984300e+003,6.413452e+000
1.985264e+003,6.118286e+000
1.986228e+003,7.097931e+000
1.987192e+003,8.827332e+000
1.988157e+003,8.496948e+000
1.989121e+003,5.654358e+000
1.990085e+003,3.489166e+000
1.991049e+003,2.091461e+000
1.992014e+003,1.424194e+000
1.992978e+003,1.411194e+000
1.993942e+003,2.021912e+000
1.994906e+003,4.043213e+000
1.995871e+003,5.878601e+000
1.996835e+003,6.600342e+000
1.997799e+003,6.379700e+000
1.998763e+003,4.792358e+000
1.999728e+003,2.319580e+000
