5.003444e+002,3.707977e+001
5.013087e+002,3.826912e+001
5.022729e+002,3.790137e+001
5.032371e+002,3.625513e+001
5.042014e+002,3.384746e+001
5.051656e+002,3.090637e+001
5.061298e+002,2.872200e+001
5.070941e+002,2.858713e+001
5.080583e+002,3.107646e+001
5.090225e+002,3.191905e+001
5.099868e+002,3.032774e+001
5.109510e+002,2.849048e+001
5.119152e+002,2.742607e+001
5.128795e+002,2.721843e+001
5.138437e+002,2.739926e+001
5.148079e+002,2.836594e+001
5.157722e+002,2.923268e+001
5.167364e+002,2.955894e+001
5.177006e+002,2.928181e+001
5.186649e+002,2.867090e+001
5.196291e+002,2.788722e+001
5.205933e+002,2.731764e+001
5.215576e+002,2.747090e+001
5.225218e+002,2.818297e+001
5.234860e+002,2.875854e+001
5.244503e+002,2.802208e+001
5.254145e+002,2.553499e+001
5.263787e+002,2.436751e+001
5.273430e+002,2.529163e+001
5.283072e+002,2.700328e+001
5.292714e+002,2.764041e+001
5.302357e+002,2.643422e+001
5.311999e+002,2.533893e+001
5.321641e+002,2.505508e+001
5.331284e+002,2.490128e+001
5.340926e+002,2.410907e+001
5.350568e+002,2.227477e+001
5.360211e+002,2.057259e+001
5.369853e+002,2.045358e+001
5.379495e+002,2.097195e+001
5.389138e+002,2.133234e+001
5.398780e+002,2.121637e+001
5.408422e+002,2.091116e+001
5.418065e+002,2.140312e+001
5.427707e+002,2.254968e+001
5.437349e+002,2.339186e+001
5.446992e+002,2.370329e+001
5.456634e+002,2.348834e+001
5.466276e+002,2.278824e+001
5.475919e+002,2.077649e+001
5.485561e+002,1.941074e+001
5.495203e+002,1.929253e+001
5.504846e+002,1.959084e+001
5.514488e+002,1.894427e+001
5.524130e+002,1.619455e+001
5.533773e+002,1.431349e+001
5.543415e+002,1.587286e+001
5.553057e+002,1.836038e+001
5.562700e+002,1.879532e+001
5.572342e+002,1.536940e+001
5.581984e+002,1.036684e+001
5.591627e+002,9.703354e+000
5.601269e+002,1.190074e+001
5.610911e+002,1.412553e+001
5.620554e+002,1.490662e+001
5.630196e+002,1.437061e+001
5.639838e+002,1.402411e+001
5.649481e+002,1.446463e+001
5.659123e+002,1.425519e+001
5.668765e+002,1.277245e+001
5.678408e+002,1.059077e+001
5.688050e+002,9.160583e+000
5.697692e+002,8.876984e+000
5.707335e+002,9.114655e+000
5.716977e+002,1.001532e+001
5.726619e+002,1.124083e+001
5.736262e+002,1.256477e+001
5.745904e+002,1.398055e+001
5.755546e+002,1.485161e+001
5.765189e+002,1.389548e+001
5.774831e+002,1.175899e+001
5.784473e+002,9.629456e+000
5.794116e+002,8.367615e+000
5.803758e+002,7.948120e+000
5.813400e+002,7.187332e+000
5.823043e+002,5.549164e+000
5.832685e+002,4.549545e+000
5.842327e+002,5.036224e+000
5.851970e+002,6.869873e+000
5.861612e+002,8.705246e+000
5.871254e+002,1.090794e+001
5.880897e+002,1.228659e+001
5.890539e+002,1.205328e+001
5.900181e+002,1.088333e+001
5.909824e+002,1.007140e+001
5.919466e+002,1.083795e+001
5.929108e+002,1.127029e+001
5.938751e+002,8.467911e+000
5.948393e+002,4.281921e+000
5.958035e+002,1.820999e+000
5.967678e+002,3.325562e+000
5.977320e+002,8.065872e+000
5.986962e+002,9.975098e+000
5.996605e+002,9.095764e+000
6.006247e+002,7.674713e+000
6.015889e+002,6.592560e+000
6.025532e+002,5.839493e+000
6.035174e+002,5.025803e+000
6.044816e+002,3.900192e+000
6.054459e+002,3.039368e+000
6.064101e+002,2.280991e+000
6.073743e+002,1.877335e+000
6.083386e+002,2.463577e+000
6.093028e+002,5.054565e+000
6.102670e+002,7.342514e+000
6.112313e+002,7.344055e+000
6.121955e+002,6.084641e+000
6.131597e+002,4.855515e+000
6.141240e+002,4.541702e+000
6.150882e+002,4.888824e+000
6.160524e+002,4.756943e+000
6.170167e+002,4.285690e+000
6.179809e+002,4.331451e+000
6.189451e+002,5.520203e+000
6.199094e+002,7.528473e+000
6.208736e+002,8.236496e+000
6.218378e+002,5.844498e+000
6.228021e+002,4.395737e+000
6.237663e+002,4.886871e+000
6.247305e+002,6.400162e+000
6.256948e+002,7.358185e+000
6.266590e+002,6.892258e+000
6.276232e+002,6.141525e+000
6.285875e+002,5.754120e+000
6.295517e+002,5.711777e+000
6.305159e+002,6.123489e+000
6.314802e+002,6.970428e+000
6.324444e+002,7.851227e+000
6.334086e+002,7.685013e+000
6.343729e+002,6.828735e+000
6.353371e+002,5.711960e+000
6.363013e+002,4.383835e+000
6.372656e+002,2.947876e+000
6.382298e+002,1.851517e+000
6.391940e+002,9.737091e-001
6.401583e+002,6.645355e-001
6.411225e+002,1.981216e+000
6.420867e+002,3.553070e+000
6.430510e+002,3.311157e+000
6.440152e+002,-1.314087e-001
6.449794e+002,-2.823578e+000
6.459437e+002,-2.041168e+000
6.469079e+002,-3.085632e-001
6.478721e+002,4.129181e-001
6.488364e+002,-4.955750e-001
6.498006e+002,-1.904404e+000
6.507648e+002,-1.658371e+000
6.517291e+002,-4.591827e-001
6.526933e+002,-1.891785e-001
6.536575e+002,-1.283157e+000
6.546218e+002,-2.606659e+000
6.555860e+002,-1.834976e+000
6.565502e+002,3.029099e+000
6.575145e+002,5.553696e+000
6.584787e+002,4.708755e+000
6.594429e+002,2.723862e+000
6.604072e+002,1.216141e+000
6.613714e+002,4.305878e-001
6.623356e+002,-2.706757e-001
6.632999e+002,-1.838348e+000
6.642641e+002,-2.994446e+000
6.652283e+002,-2.557251e+000
6.661926e+002,-7.360229e-001
6.671568e+002,1.174789e+000
6.681210e+002,1.536972e+000
6.690853e+002,7.619934e-001
6.700495e+002,3.053894e-001
6.710137e+002,1.819916e-001
6.719780e+002,-6.484985e-003
6.729422e+002,-7.607880e-001
6.739064e+002,-2.333527e+000
6.748707e+002,-3.091019e+000
6.758349e+002,-2.788879e+000
6.767991e+002,-2.269760e+000
6.777634e+002,-1.683136e+000
6.787276e+002,-1.007019e+000
6.796918e+002,-3.887939e-001
6.806561e+002,3.941345e-002
6.816203e+002,2.622070e-001
6.825845e+002,1.622772e-001
6.835488e+002,-1.120911e-001
6.845130e+002,-2.434082e-001
6.854772e+002,7.246399e-002
6.864415e+002,4.444122e-001
6.874057e+002,-3.018494e-001
6.883699e+002,-1.901886e+000
6.893342e+002,-3.643417e+000
6.902984e+002,-5.182404e+000
6.912626e+002,-6.325104e+000
6.922269e+002,-5.941086e+000
6.931911e+002,-1.939713e+000
6.941553e+002,1.024109e+000
6.951196e+002,1.680298e+000
6.960838e+002,1.248581e+000
6.970480e+002,2.061417e+000
6.980123e+002,5.704208e+000
6.989765e+002,7.738739e+000
6.999407e+002,5.188660e+000
7.009050e+002,1.494720e+000
7.018692e+002,-5.076904e-001
7.028334e+002,4.367065e-002
7.037977e+002,1.425369e+000
7.047619e+002,7.518311e-001
7.057261e+002,-8.952789e-001
7.066904e+002,-1.335403e+000
7.076546e+002,-2.284393e-001
7.086188e+002,1.587311e+000
7.095831e+002,2.849838e+000
7.105473e+002,3.579697e+000
7.115115e+002,3.243073e+000
7.124758e+002,5.134277e-001
7.134400e+002,-1.832489e+000
7.144042e+002,-1.449326e+000
7.153685e+002,1.652740e+000
7.163327e+002,3.612000e+000
7.172969e+002,1.035110e+000
7.182612e+002,-1.566635e+000
7.192254e+002,-2.303040e+000
7.201896e+002,-1.636307e+000
7.211539e+002,-8.860931e-001
7.221181e+002,-1.132095e+000
7.230823e+002,-1.978714e+000
7.240466e+002,-2.276886e+000
7.250108e+002,-2.078064e+000
7.259750e+002,-1.885254e+000
7.269393e+002,-2.123840e+000
7.279035e+002,-2.784912e+000
7.288677e+002,-2.964111e+000
7.298320e+002,-2.265152e+000
7.307962e+002,-1.101898e+000
7.317604e+002,9.847870e-001
7.327247e+002,3.367249e+000
7.336889e+002,5.221176e+000
7.346531e+002,6.307114e+000
7.356174e+002,6.214630e+000
7.365816e+002,4.366257e+000
7.375458e+002,2.114319e+000
7.385101e+002,2.752838e-001
7.394743e+002,-8.362122e-001
7.404385e+002,-1.284744e+000
7.414028e+002,-9.930115e-001
7.423670e+002,-3.528900e-001
7.433312e+002,-4.764709e-001
7.442955e+002,-1.400940e+000
7.452597e+002,-1.973389e+000
7.462239e+002,-7.059021e-001
7.471882e+002,3.101715e+000
7.481524e+002,5.446243e+000
7.491166e+002,5.735626e+000
7.500809e+002,5.271042e+000
7.510451e+002,4.093643e+000
7.520093e+002,2.506073e+000
7.529736e+002,1.276917e+000
7.539378e+002,7.811127e-001
7.549020e+002,1.076370e+000
7.558663e+002,2.971649e+000
7.568306e+002,5.245224e+000
7.577948e+002,6.005157e+000
7.587590e+002,4.171936e+000
7.597233e+002,7.729950e-001
7.606875e+002,-9.580536e-001
7.616517e+002,-1.137497e+000
7.626160e+002,-8.252258e-001
7.635802e+002,-6.774902e-002
7.645444e+002,8.944397e-001
7.655087e+002,1.572266e+000
7.664729e+002,2.034515e+000
7.674371e+002,1.880585e+000
7.684014e+002,4.049683e-002
7.693656e+002,-1.398758e+000
7.703298e+002,-5.908508e-001
7.712941e+002,2.431183e+000
7.722583e+002,5.110535e+000
7.732225e+002,5.172043e+000
7.741868e+002,4.473877e+000
7.751510e+002,4.498901e+000
7.761152e+002,5.065994e+000
7.770795e+002,5.361649e+000
7.780437e+002,4.646057e+000
7.790079e+002,3.082886e+000
7.799722e+002,2.377487e+000
7.809364e+002,2.537445e+000
7.819006e+002,2.768188e+000
7.828649e+002,2.939453e+000
7.838291e+002,3.064468e+000
7.847933e+002,2.937836e+000
7.857576e+002,1.818909e+000
7.867218e+002,1.500534e+000
7.876860e+002,3.181107e+000
7.886503e+002,5.215622e+000
7.896145e+002,6.205551e+000
7.905787e+002,5.799133e+000
7.915430e+002,4.899582e+000
7.925072e+002,4.075272e+000
7.934714e+002,3.359772e+000
7.944357e+002,2.970169e+000
7.953999e+002,2.950546e+000
7.963641e+002,3.169815e+000
7.973284e+002,3.453400e+000
7.982926e+002,3.811035e+000
7.992568e+002,4.021606e+000
8.002211e+002,3.620621e+000
8.011853e+002,3.416641e+000
8.021495e+002,4.201859e+000
8.031138e+002,5.741440e+000
8.040780e+002,6.697723e+000
8.050422e+002,6.261444e+000
8.060065e+002,5.831421e+000
8.069707e+002,5.802902e+000
8.079349e+002,5.918076e+000
8.088992e+002,5.934097e+000
8.098634e+002,5.816345e+000
8.108276e+002,5.821609e+000
8.117919e+002,6.471954e+000
8.127561e+002,7.183151e+000
8.137203e+002,6.874329e+000
8.146846e+002,5.560135e+000
8.156488e+002,4.370926e+000
8.166130e+002,4.791962e+000
8.175773e+002,7.376709e+000
8.185415e+002,7.971741e+000
8.195057e+002,4.342728e+000
8.204700e+002,1.652054e+000
8.214342e+002,2.533066e+000
8.223984e+002,5.671722e+000
8.233627e+002,7.360321e+000
8.243269e+002,5.748688e+000
8.252911e+002,3.763870e+000
8.262554e+002,2.818893e+000
8.272196e+002,2.617035e+000
8.281838e+002,3.030869e+000
8.291481e+002,3.897964e+000
8.301123e+002,4.902695e+000
8.310765e+002,5.469925e+000
8.320408e+002,5.601212e+000
8.330050e+002,5.942047e+000
8.339692e+002,6.712296e+000
8.349335e+002,7.191025e+000
8.358977e+002,6.578415e+000
8.368619e+002,4.778931e+000
8.378262e+002,2.990417e+000
8.387904e+002,1.723175e-001
8.397546e+002,-1.530045e+000
8.407189e+002,-9.329834e-001
8.416831e+002,1.013458e+000
8.426473e+002,2.703934e+000
8.436116e+002,3.453415e+000
8.445758e+002,3.767029e+000
8.455400e+002,3.717224e+000
8.465043e+002,3.599823e+000
8.474685e+002,4.060226e+000
8.484327e+002,5.256119e+000
8.493970e+002,6.671356e+000
8.503612e+002,7.306198e+000
8.513254e+002,6.955688e+000
8.522897e+002,6.783203e+000
8.532539e+002,6.553482e+000
8.542181e+002,6.628387e+000
8.551824e+002,7.610001e+000
8.561466e+002,9.436646e+000
8.571108e+002,1.077707e+001
8.580751e+002,1.090309e+001
8.590393e+002,1.052570e+001
8.600035e+002,9.616318e+000
8.609678e+002,8.668777e+000
8.619320e+002,8.057129e+000
8.628962e+002,7.953522e+000
8.638605e+002,8.477127e+000
8.648247e+002,1.043376e+001
8.657889e+002,1.294946e+001
8.667532e+002,1.417824e+001
8.677174e+002,1.387280e+001
8.686816e+002,1.253773e+001
8.696459e+002,1.045465e+001
8.706101e+002,7.290833e+000
8.715743e+002,6.521301e+000
8.725386e+002,1.004868e+001
8.735028e+002,1.330988e+001
8.744670e+002,1.522614e+001
8.754313e+002,1.596831e+001
8.763955e+002,1.584111e+001
8.773597e+002,1.458797e+001
8.783240e+002,1.391011e+001
8.792882e+002,1.579991e+001
8.802524e+002,1.817072e+001
8.812167e+002,1.902678e+001
8.821809e+002,1.814342e+001
8.831451e+002,1.683154e+001
8.841094e+002,1.682649e+001
8.850736e+002,1.814226e+001
8.860378e+002,1.885307e+001
8.870021e+002,1.877283e+001
8.879663e+002,1.863397e+001
8.889305e+002,1.872810e+001
8.898948e+002,1.901845e+001
8.908590e+002,1.945813e+001
8.918232e+002,1.999316e+001
8.927875e+002,2.101349e+001
8.937517e+002,2.342706e+001
8.947159e+002,2.571730e+001
8.956802e+002,2.621521e+001
8.966444e+002,2.474220e+001
8.976086e+002,2.306935e+001
8.985729e+002,2.326836e+001
8.995371e+002,2.433188e+001
9.005013e+002,2.426010e+001
9.014656e+002,2.325742e+001
9.024298e+002,2.234140e+001
9.033940e+002,2.221198e+001
9.043583e+002,2.272293e+001
9.053225e+002,2.331955e+001
9.062867e+002,2.403804e+001
9.072510e+002,2.464761e+001
9.082152e+002,2.548941e+001
9.091794e+002,2.620898e+001
9.101437e+002,2.628444e+001
9.111079e+002,2.561366e+001
9.120721e+002,2.504247e+001
9.130364e+002,2.511885e+001
9.140006e+002,2.522166e+001
9.149648e+002,2.500119e+001
9.159291e+002,2.465742e+001
9.168933e+002,2.444398e+001
9.178575e+002,2.450459e+001
9.188218e+002,2.496016e+001
9.197860e+002,2.683751e+001
9.207502e+002,3.021306e+001
9.217145e+002,3.157690e+001
9.226787e+002,2.945732e+001
9.236429e+002,2.605415e+001
9.246072e+002,2.423074e+001
9.255714e+002,2.419830e+001
9.265356e+002,2.418756e+001
9.274999e+002,2.409256e+001
9.284641e+002,2.369026e+001
9.294283e+002,2.270952e+001
9.303926e+002,2.147981e+001
9.313568e+002,2.055124e+001
9.323210e+002,2.021205e+001
9.332853e+002,2.007611e+001
9.342495e+002,1.980070e+001
9.352137e+002,1.922147e+001
9.361780e+002,1.782123e+001
9.371422e+002,1.558911e+001
9.381064e+002,1.340553e+001
9.390707e+002,1.235176e+001
9.400349e+002,1.241219e+001
9.409991e+002,1.305920e+001
9.419634e+002,1.491187e+001
9.429276e+002,1.642850e+001
9.438918e+002,1.705698e+001
9.448561e+002,1.718692e+001
9.458203e+002,1.760667e+001
9.467845e+002,1.869153e+001
9.477488e+002,1.943066e+001
9.487130e+002,1.836526e+001
9.496772e+002,1.709158e+001
9.506415e+002,1.729880e+001
9.516057e+002,1.871411e+001
9.525699e+002,1.950348e+001
9.535342e+002,1.781773e+001
9.544984e+002,1.406749e+001
9.554626e+002,1.227588e+001
9.564269e+002,1.278423e+001
9.573911e+002,1.355975e+001
9.583553e+002,1.427014e+001
9.593196e+002,1.480537e+001
9.602838e+002,1.488689e+001
9.612480e+002,1.430795e+001
9.622123e+002,1.397647e+001
9.631765e+002,1.474692e+001
9.641407e+002,1.529877e+001
9.651050e+002,1.471715e+001
9.660692e+002,1.338216e+001
9.670334e+002,1.231412e+001
9.679977e+002,1.220969e+001
9.689619e+002,1.256396e+001
9.699261e+002,1.146623e+001
9.708904e+002,9.648193e+000
9.718546e+002,9.995117e+000
9.728188e+002,1.338934e+001
9.737831e+002,1.791713e+001
9.747473e+002,2.122008e+001
9.757115e+002,2.318831e+001
9.766758e+002,2.464914e+001
9.776400e+002,2.621042e+001
9.786042e+002,2.668713e+001
9.795685e+002,2.561656e+001
9.805327e+002,2.321306e+001
9.814969e+002,1.920764e+001
9.824612e+002,1.355461e+001
9.834254e+002,8.834351e+000
9.843896e+002,8.519989e+000
9.853539e+002,9.831299e+000
9.863181e+002,9.919006e+000
9.872823e+002,8.635101e+000
9.882466e+002,6.977020e+000
9.892108e+002,5.854095e+000
9.901750e+002,5.385269e+000
9.911393e+002,5.592117e+000
9.921035e+002,6.780701e+000
9.930677e+002,7.668686e+000
9.940320e+002,8.153397e+000
9.949962e+002,8.544769e+000
9.959604e+002,9.106705e+000
9.969247e+002,9.873810e+000
9.978889e+002,1.072922e+001
9.988531e+002,1.182401e+001
9.998174e+002,1.241246e+001
1.000782e+003,1.199483e+001
1.001746e+003,1.100371e+001
1.002710e+003,9.867355e+000
1.003674e+003,8.840912e+000
1.004639e+003,8.138412e+000
1.005603e+003,8.207520e+000
1.006567e+003,9.106659e+000
1.007531e+003,9.596725e+000
1.008495e+003,9.866318e+000
1.009460e+003,9.461868e+000
1.010424e+003,7.503448e+000
1.011388e+003,4.586166e+000
1.012352e+003,3.135696e+000
1.013317e+003,3.897217e+000
1.014281e+003,5.196793e+000
1.015245e+003,7.006088e+000
1.016209e+003,8.510757e+000
1.017174e+003,9.175766e+000
1.018138e+003,8.972183e+000
1.019102e+003,8.138672e+000
1.020066e+003,6.819946e+000
1.021031e+003,5.304016e+000
1.021995e+003,4.252686e+000
1.022959e+003,3.497742e+000
1.023923e+003,2.801590e+000
1.024887e+003,2.008591e+000
1.025852e+003,1.334488e+000
1.026816e+003,1.261688e+000
1.027780e+003,2.053925e+000
1.028744e+003,2.530853e+000
1.029709e+003,2.346085e+000
1.030673e+003,2.106125e+000
1.031637e+003,2.046997e+000
1.032601e+003,1.957916e+000
1.033566e+003,1.463730e+000
1.034530e+003,4.760742e-001
1.035494e+003,-4.536591e-001
1.036458e+003,-7.461700e-001
1.037422e+003,-6.210785e-001
1.038387e+003,-3.385468e-001
1.039351e+003,2.809143e-002
1.040315e+003,3.261871e-001
1.041279e+003,5.239105e-001
1.042244e+003,5.660706e-001
1.043208e+003,-9.941101e-002
1.044172e+003,-2.792938e+000
1.045136e+003,-3.986084e+000
1.046101e+003,-2.746887e+000
1.047065e+003,-8.871155e-001
1.048029e+003,9.206390e-001
1.048993e+003,2.326553e+000
1.049958e+003,2.485001e+000
1.050922e+003,5.089264e-001
1.051886e+003,-1.390991e+000
1.052850e+003,-6.409149e-001
1.053814e+003,1.333313e+000
1.054779e+003,3.016479e+000
1.055743e+003,3.920868e+000
1.056707e+003,3.911636e+000
1.057671e+003,2.760010e+000
1.058636e+003,4.371796e-001
1.059600e+003,-1.080292e+000
1.060564e+003,-1.655457e+000
1.061528e+003,-1.475250e+000
1.062493e+003,-5.267334e-001
1.063457e+003,9.950104e-001
1.064421e+003,3.734146e+000
1.065385e+003,7.674988e+000
1.066349e+003,9.296158e+000
1.067314e+003,4.758514e+000
1.068278e+003,-2.510376e-001
1.069242e+003,-1.716705e+000
1.070206e+003,-8.552551e-001
1.071171e+003,3.191833e-001
1.072135e+003,8.547974e-001
1.073099e+003,1.157639e+000
1.074063e+003,2.014572e+000
1.075028e+003,3.566147e+000
1.075992e+003,4.130142e+000
1.076956e+003,3.128647e+000
1.077920e+003,2.161743e+000
1.078885e+003,2.072601e+000
1.079849e+003,2.427673e+000
1.080813e+003,2.204376e+000
1.081777e+003,1.081085e+000
1.082741e+003,5.032349e-001
1.083706e+003,1.987671e+000
1.084670e+003,3.364075e+000
1.085634e+003,3.355072e+000
1.086598e+003,2.304382e+000
1.087563e+003,9.288940e-001
1.088527e+003,-2.596588e-001
1.089491e+003,-9.454956e-001
1.090455e+003,-5.438995e-001
1.091420e+003,1.025604e+000
1.092384e+003,2.190231e+000
1.093348e+003,3.128754e+000
1.094312e+003,3.261597e+000
1.095276e+003,1.633713e+000
1.096241e+003,-9.371490e-001
1.097205e+003,-1.898056e+000
1.098169e+003,-3.786926e-001
1.099133e+003,8.653870e-001
1.100098e+003,4.936066e-001
1.101062e+003,-9.611511e-002
1.102026e+003,-8.676147e-002
1.102990e+003,4.660034e-001
1.103955e+003,1.214600e+000
1.104919e+003,1.918640e+000
1.105883e+003,2.403000e+000
1.106847e+003,2.307053e+000
1.107812e+003,1.589890e+000
1.108776e+003,6.830444e-001
1.109740e+003,-7.561035e-001
1.110704e+003,-1.639404e+000
1.111668e+003,-6.108093e-001
1.112633e+003,1.816635e+000
1.113597e+003,3.056442e+000
1.114561e+003,2.307388e+000
1.115525e+003,1.492508e+000
1.116490e+003,1.369919e+000
1.117454e+003,1.231308e+000
1.118418e+003,6.331787e-001
1.119382e+003,-2.946625e-001
1.120347e+003,-1.348663e+000
1.121311e+003,-2.467407e+000
1.122275e+003,-3.352997e+000
1.123239e+003,-3.085510e+000
1.124203e+003,-1.607620e+000
1.125168e+003,2.201080e-001
1.126132e+003,2.755127e+000
1.127096e+003,4.626373e+000
1.128060e+003,4.394012e+000
1.129025e+003,2.474350e+000
1.129989e+003,8.788452e-001
1.130953e+003,-6.270905e-001
1.131917e+003,-9.701233e-001
1.132882e+003,1.431732e+000
1.133846e+003,3.713425e+000
1.134810e+003,3.850281e+000
1.135774e+003,2.420410e+000
1.136739e+003,1.070435e+000
1.137703e+003,7.362366e-001
1.138667e+003,1.113968e+000
1.139631e+003,1.695404e+000
1.140595e+003,2.550629e+000
1.141560e+003,4.302368e+000
1.142524e+003,7.416534e+000
1.143488e+003,1.010751e+001
1.144452e+003,1.033469e+001
1.145417e+003,9.108475e+000
1.146381e+003,1.044699e+001
1.147345e+003,1.564870e+001
1.148309e+003,2.010925e+001
1.149274e+003,2.259425e+001
1.150238e+003,2.431798e+001
1.151202e+003,2.545177e+001
1.152166e+003,2.646730e+001
1.153130e+003,2.819872e+001
1.154095e+003,3.086583e+001
1.155059e+003,3.314786e+001
1.156023e+003,3.296959e+001
1.156987e+003,3.084901e+001
1.157952e+003,3.087843e+001
1.158916e+003,3.379585e+001
1.159880e+003,3.561949e+001
1.160844e+003,3.342458e+001
1.161809e+003,2.868991e+001
1.162773e+003,2.507869e+001
1.163737e+003,2.300377e+001
1.164701e+003,2.030811e+001
1.165666e+003,1.498102e+001
1.166630e+003,1.061009e+001
1.167594e+003,9.079361e+000
1.168558e+003,9.063721e+000
1.169522e+003,8.723572e+000
1.170487e+003,7.487823e+000
1.171451e+003,6.177368e+000
1.172415e+003,5.672058e+000
1.173379e+003,5.871964e+000
1.174344e+003,6.534149e+000
1.175308e+003,7.772690e+000
1.176272e+003,8.375824e+000
1.177236e+003,7.592422e+000
1.178201e+003,6.315796e+000
1.179165e+003,5.748154e+000
1.180129e+003,5.842834e+000
1.181093e+003,5.324432e+000
1.182057e+003,3.093796e+000
1.183022e+003,1.599792e+000
1.183986e+003,2.420517e+000
1.184950e+003,3.848145e+000
1.185914e+003,4.191895e+000
1.186879e+003,3.388412e+000
1.187843e+003,2.514328e+000
1.188807e+003,2.418182e+000
1.189771e+003,2.894760e+000
1.190736e+003,3.638672e+000
1.191700e+003,4.776871e+000
1.192664e+003,4.441360e+000
1.193628e+003,1.230759e+000
1.194593e+003,-1.767105e+000
1.195557e+003,-2.088898e+000
1.196521e+003,-4.343567e-001
1.197485e+003,8.918915e-001
1.198449e+003,1.704575e+000
1.199414e+003,1.729706e+000
1.200378e+003,4.914856e-002
1.201342e+003,-1.718491e+000
1.202306e+003,-2.677994e+000
1.203271e+003,-2.923981e+000
1.204235e+003,-2.716797e+000
1.205199e+003,-2.248550e+000
1.206163e+003,-1.870255e+000
1.207128e+003,-2.235809e+000
1.208092e+003,-3.392395e+000
1.209056e+003,-4.065643e+000
1.210020e+003,-3.986176e+000
1.210984e+003,-4.039551e+000
1.211949e+003,-4.288116e+000
1.212913e+003,-4.955429e+000
1.213877e+003,-6.638489e+000
1.214841e+003,-9.282578e+000
1.215806e+003,-1.118846e+001
1.216770e+003,-1.156741e+001
1.217734e+003,-1.124095e+001
1.218698e+003,-1.063692e+001
1.219663e+003,-9.959610e+000
1.220627e+003,-9.317123e+000
1.221591e+003,-8.820679e+000
1.222555e+003,-8.743057e+000
1.223520e+003,-9.339874e+000
1.224484e+003,-1.043825e+001
1.225448e+003,-1.136650e+001
1.226412e+003,-1.219872e+001
1.227376e+003,-1.265758e+001
1.228341e+003,-1.246046e+001
1.229305e+003,-1.227301e+001
1.230269e+003,-1.253149e+001
1.231233e+003,-1.304256e+001
1.232198e+003,-1.346036e+001
1.233162e+003,-1.368600e+001
1.234126e+003,-1.334929e+001
1.235090e+003,-1.137166e+001
1.236055e+003,-9.615143e+000
1.237019e+003,-1.087616e+001
1.237983e+003,-1.393602e+001
1.238947e+003,-1.528113e+001
1.239911e+003,-1.342999e+001
1.240876e+003,-1.028922e+001
1.241840e+003,-8.649673e+000
1.242804e+003,-8.560913e+000
1.243768e+003,-8.918869e+000
1.244733e+003,-9.913803e+000
1.245697e+003,-1.115956e+001
1.246661e+003,-1.360027e+001
1.247625e+003,-1.555580e+001
1.248590e+003,-1.529160e+001
1.249554e+003,-1.334352e+001
1.250518e+003,-1.162442e+001
1.251482e+003,-1.100784e+001
1.252447e+003,-1.112405e+001
1.253411e+003,-1.188176e+001
1.254375e+003,-1.278459e+001
1.255339e+003,-1.278575e+001
1.256303e+003,-1.183794e+001
1.257268e+003,-1.063293e+001
1.258232e+003,-9.462631e+000
1.259196e+003,-8.574738e+000
1.260160e+003,-8.569321e+000
1.261125e+003,-9.648468e+000
1.262089e+003,-9.924698e+000
1.263053e+003,-8.214935e+000
1.264017e+003,-7.071442e+000
1.264982e+003,-7.706039e+000
1.265946e+003,-8.659592e+000
1.266910e+003,-8.206833e+000
1.267874e+003,-6.618042e+000
1.268839e+003,-5.800369e+000
1.269803e+003,-7.034195e+000
1.270767e+003,-9.003220e+000
1.271731e+003,-8.926483e+000
1.272695e+003,-6.881836e+000
1.273660e+003,-6.394806e+000
1.274624e+003,-8.277008e+000
1.275588e+003,-1.007657e+001
1.276552e+003,-1.017648e+001
1.277517e+003,-9.339157e+000
1.278481e+003,-9.160797e+000
1.279445e+003,-9.814972e+000
1.280409e+003,-1.014088e+001
1.281374e+003,-9.365372e+000
1.282338e+003,-8.712067e+000
1.283302e+003,-9.337708e+000
1.284266e+003,-1.012674e+001
1.285230e+003,-9.345428e+000
1.286195e+003,-7.189407e+000
1.287159e+003,-5.699341e+000
1.288123e+003,-6.532349e+000
1.289087e+003,-8.828598e+000
1.290052e+003,-1.009921e+001
1.291016e+003,-1.012242e+001
1.291980e+003,-1.000887e+001
1.292944e+003,-9.684509e+000
1.293909e+003,-9.456696e+000
1.294873e+003,-9.420166e+000
1.295837e+003,-9.450485e+000
1.296801e+003,-9.273712e+000
1.297766e+003,-8.909348e+000
1.298730e+003,-9.088348e+000
1.299694e+003,-1.062517e+001
1.300658e+003,-1.214555e+001
1.301622e+003,-1.189070e+001
1.302587e+003,-1.065428e+001
1.303551e+003,-9.447144e+000
1.304515e+003,-8.515839e+000
1.305479e+003,-8.311417e+000
1.306444e+003,-9.460449e+000
1.307408e+003,-1.133496e+001
1.308372e+003,-1.146840e+001
1.309336e+003,-8.890259e+000
1.310301e+003,-7.602463e+000
1.311265e+003,-9.013016e+000
1.312229e+003,-1.012572e+001
1.313193e+003,-9.634277e+000
1.314157e+003,-8.744492e+000
1.315122e+003,-9.004791e+000
1.316086e+003,-1.036728e+001
1.317050e+003,-1.146494e+001
1.318014e+003,-1.137648e+001
1.318979e+003,-1.044948e+001
1.319943e+003,-8.998672e+000
1.320907e+003,-7.199600e+000
1.321871e+003,-6.769363e+000
1.322836e+003,-8.202652e+000
1.323800e+003,-9.807770e+000
1.324764e+003,-1.108035e+001
1.325728e+003,-1.174544e+001
1.326693e+003,-1.096869e+001
1.327657e+003,-8.734512e+000
1.328621e+003,-7.436920e+000
1.329585e+003,-8.037003e+000
1.330549e+003,-8.722656e+000
1.331514e+003,-8.692108e+000
1.332478e+003,-8.474396e+000
1.333442e+003,-8.390472e+000
1.334406e+003,-8.518356e+000
1.335371e+003,-8.982040e+000
1.336335e+003,-9.837738e+000
1.337299e+003,-1.079236e+001
1.338263e+003,-1.133427e+001
1.339228e+003,-1.147127e+001
1.340192e+003,-1.106709e+001
1.341156e+003,-9.578491e+000
1.342120e+003,-8.389420e+000
1.343084e+003,-7.587845e+000
1.344049e+003,-7.373016e+000
1.345013e+003,-8.377396e+000
1.345977e+003,-9.994888e+000
1.346941e+003,-1.049873e+001
1.347906e+003,-9.225815e+000
1.348870e+003,-7.616180e+000
1.349834e+003,-7.082092e+000
1.350798e+003,-7.053970e+000
1.351763e+003,-5.947464e+000
1.352727e+003,-4.078049e+000
1.353691e+003,-3.621445e+000
1.354655e+003,-5.700592e+000
1.355620e+003,-8.216431e+000
1.356584e+003,-8.309769e+000
1.357548e+003,-6.342804e+000
1.358512e+003,-5.939560e+000
1.359476e+003,-7.980759e+000
1.360441e+003,-9.826401e+000
1.361405e+003,-1.121948e+001
1.362369e+003,-1.176253e+001
1.363333e+003,-1.071034e+001
1.364298e+003,-8.929749e+000
1.365262e+003,-7.367371e+000
1.366226e+003,-6.422195e+000
1.367190e+003,-6.343018e+000
1.368155e+003,-7.382965e+000
1.369119e+003,-8.998062e+000
1.370083e+003,-9.373428e+000
1.371047e+003,-7.923477e+000
1.372011e+003,-7.650955e+000
1.372976e+003,-1.031114e+001
1.373940e+003,-1.193723e+001
1.374904e+003,-1.014404e+001
1.375868e+003,-7.068726e+000
1.376833e+003,-5.372528e+000
1.377797e+003,-5.234985e+000
1.378761e+003,-5.386627e+000
1.379725e+003,-5.256821e+000
1.380690e+003,-5.327805e+000
1.381654e+003,-6.344254e+000
1.382618e+003,-7.727509e+000
1.383582e+003,-9.002914e+000
1.384547e+003,-9.990936e+000
1.385511e+003,-9.855026e+000
1.386475e+003,-7.991791e+000
1.387439e+003,-5.548843e+000
1.388403e+003,-4.277023e+000
1.389368e+003,-4.181213e+000
1.390332e+003,-4.066269e+000
1.391296e+003,-3.678955e+000
1.392260e+003,-3.643906e+000
1.393225e+003,-4.730453e+000
1.394189e+003,-5.537628e+000
1.395153e+003,-4.796600e+000
1.396117e+003,-3.444870e+000
1.397082e+003,-3.074585e+000
1.398046e+003,-3.986099e+000
1.399010e+003,-5.161407e+000
1.399974e+003,-5.729385e+000
1.400938e+003,-5.750748e+000
1.401903e+003,-5.094604e+000
1.402867e+003,-3.214661e+000
1.403831e+003,-2.316055e+000
1.404795e+003,-3.551483e+000
1.405760e+003,-4.349426e+000
1.406724e+003,-3.437256e+000
1.407688e+003,-2.138290e+000
1.408652e+003,-1.669281e+000
1.409617e+003,-2.107681e+000
1.410581e+003,-3.632141e+000
1.411545e+003,-6.618454e+000
1.412509e+003,-9.086823e+000
1.413474e+003,-8.761642e+000
1.414438e+003,-6.969604e+000
1.415402e+003,-5.545105e+000
1.416366e+003,-4.527496e+000
1.417330e+003,-4.138107e+000
1.418295e+003,-4.590195e+000
1.419259e+003,-5.218857e+000
1.420223e+003,-5.313873e+000
1.421187e+003,-4.976837e+000
1.422152e+003,-4.586243e+000
1.423116e+003,-4.123291e+000
1.424080e+003,-3.424149e+000
1.425044e+003,-2.006256e+000
1.426009e+003,-9.732208e-001
1.426973e+003,-1.088440e+000
1.427937e+003,-1.674530e+000
1.428901e+003,-1.931686e+000
1.429865e+003,-1.729218e+000
1.430830e+003,-1.356110e+000
1.431794e+003,-1.045319e+000
1.432758e+003,-8.751068e-001
1.433722e+003,-9.028625e-001
1.434687e+003,-1.019531e+000
1.435651e+003,-1.375961e+000
1.436615e+003,-2.963028e+000
1.437579e+003,-3.788544e+000
1.438544e+003,-2.962067e+000
1.439508e+003,-1.987625e+000
1.440472e+003,-1.720596e+000
1.441436e+003,-2.007507e+000
1.442401e+003,-2.907440e+000
1.443365e+003,-4.232941e+000
1.444329e+003,-4.126785e+000
1.445293e+003,-7.137909e-001
1.446257e+003,3.579575e+000
1.447222e+003,3.470566e+000
1.448186e+003,-1.087036e-001
1.449150e+003,-1.854996e+000
1.450114e+003,-8.173523e-001
1.451079e+003,-1.219025e-001
1.452043e+003,-2.217102e+000
1.453007e+003,-4.840439e+000
1.453971e+003,-4.260376e+000
1.454936e+003,-1.051575e+000
1.455900e+003,1.582336e-001
1.456864e+003,-2.109390e+000
1.457828e+003,-4.462875e+000
1.458792e+003,-5.061325e+000
1.459757e+003,-4.920746e+000
1.460721e+003,-4.773102e+000
1.461685e+003,-4.548355e+000
1.462649e+003,-3.808365e+000
1.463614e+003,-2.504257e+000
1.464578e+003,-1.527893e+000
1.465542e+003,-1.812057e+000
1.466506e+003,-2.818253e+000
1.467471e+003,-2.721344e+000
1.468435e+003,-1.057220e+000
1.469399e+003,-2.154388e-001
1.470363e+003,-8.988953e-001
1.471328e+003,-1.809326e+000
1.472292e+003,-3.390564e+000
1.473256e+003,-4.543350e+000
1.474220e+003,-3.926025e+000
1.475184e+003,-2.305374e+000
1.476149e+003,-1.422134e+000
1.477113e+003,-1.792313e+000
1.478077e+003,-2.229614e+000
1.479041e+003,-1.508072e+000
1.480006e+003,-9.873962e-002
1.480970e+003,2.249603e-001
1.481934e+003,-1.070221e+000
1.482898e+003,-1.490448e+000
1.483863e+003,-2.746124e-001
1.484827e+003,6.123047e-001
1.485791e+003,6.191864e-001
1.486755e+003,2.360077e-001
1.487719e+003,-3.779144e-001
1.488684e+003,-1.025482e+000
1.489648e+003,-1.247070e+000
1.490612e+003,-8.711548e-001
1.491576e+003,-1.787109e-001
1.492541e+003,6.631165e-001
1.493505e+003,1.474152e+000
1.494469e+003,1.702820e+000
1.495433e+003,1.418564e+000
1.496398e+003,1.611084e+000
1.497362e+003,2.655228e+000
1.498326e+003,3.723785e+000
1.499290e+003,4.230286e+000
1.500255e+003,4.607254e+000
1.501219e+003,5.518204e+000
1.502183e+003,6.834061e+000
1.503147e+003,7.772797e+000
1.504111e+003,8.062027e+000
1.505076e+003,8.464310e+000
1.506040e+003,9.067520e+000
1.507004e+003,1.043674e+001
1.507968e+003,1.379404e+001
1.508933e+003,1.803947e+001
1.509897e+003,2.057420e+001
1.510861e+003,2.113429e+001
1.511825e+003,2.236940e+001
1.512790e+003,2.621181e+001
1.513754e+003,3.144215e+001
1.514718e+003,3.605283e+001
1.515682e+003,3.998233e+001
1.516646e+003,4.303851e+001
1.517611e+003,4.502910e+001
1.518575e+003,4.677393e+001
1.519539e+003,4.886969e+001
1.520503e+003,5.055591e+001
1.521468e+003,5.145056e+001
1.522432e+003,5.158508e+001
1.523396e+003,5.072672e+001
1.524360e+003,4.914255e+001
1.525325e+003,4.786009e+001
1.526289e+003,4.758578e+001
1.527253e+003,4.775708e+001
1.528217e+003,4.752094e+001
1.529182e+003,4.694695e+001
1.530146e+003,4.405580e+001
1.531110e+003,3.669904e+001
1.532074e+003,3.092175e+001
1.533039e+003,2.812778e+001
1.534003e+003,2.540248e+001
1.534967e+003,2.128799e+001
1.535931e+003,1.694038e+001
1.536896e+003,1.363986e+001
1.537860e+003,1.150154e+001
1.538824e+003,1.008090e+001
1.539788e+003,9.065109e+000
1.540752e+003,8.104172e+000
1.541717e+003,6.765579e+000
1.542681e+003,5.203171e+000
1.543645e+003,4.169342e+000
1.544609e+003,3.904190e+000
1.545573e+003,3.801529e+000
1.546538e+003,3.773453e+000
1.547502e+003,3.811722e+000
1.548466e+003,3.686127e+000
1.549430e+003,3.986832e+000
1.550395e+003,5.949173e+000
1.551359e+003,8.712280e+000
1.552323e+003,9.637924e+000
1.553287e+003,7.929657e+000
1.554252e+003,5.910019e+000
1.555216e+003,5.650467e+000
1.556180e+003,6.305328e+000
1.557144e+003,5.866562e+000
1.558109e+003,4.316299e+000
1.559073e+003,3.136566e+000
1.560037e+003,2.254028e+000
1.561001e+003,1.736328e+000
1.561966e+003,2.212936e+000
1.562930e+003,2.687424e+000
1.563894e+003,1.501678e+000
1.564858e+003,-3.394775e-001
1.565823e+003,3.938141e-001
1.566787e+003,4.065247e+000
1.567751e+003,6.021912e+000
1.568715e+003,3.124100e+000
1.569679e+003,-8.328094e-001
1.570644e+003,-7.915344e-001
1.571608e+003,1.790192e+000
1.572572e+003,2.558731e+000
1.573536e+003,1.398529e+000
1.574500e+003,7.458344e-001
1.575465e+003,1.532288e+000
1.576429e+003,2.771027e+000
1.577393e+003,3.796127e+000
1.578357e+003,4.615891e+000
1.579322e+003,5.413483e+000
1.580286e+003,6.174072e+000
1.581250e+003,6.234848e+000
1.582214e+003,5.155167e+000
1.583179e+003,4.238068e+000
1.584143e+003,4.608124e+000
1.585107e+003,5.442871e+000
1.586071e+003,5.703918e+000
1.587036e+003,5.623199e+000
1.588000e+003,5.714371e+000
1.588964e+003,6.049561e+000
1.589928e+003,6.287903e+000
1.590893e+003,6.074493e+000
1.591857e+003,5.790192e+000
1.592821e+003,6.210144e+000
1.593785e+003,7.150162e+000
1.594750e+003,7.375336e+000
1.595714e+003,6.593811e+000
1.596678e+003,5.793884e+000
1.597642e+003,5.297195e+000
1.598606e+003,5.029404e+000
1.599571e+003,4.783997e+000
1.600535e+003,4.832245e+000
1.601499e+003,5.738052e+000
1.602463e+003,7.318832e+000
1.603427e+003,8.634903e+000
1.604392e+003,9.312622e+000
1.605356e+003,9.667130e+000
1.606320e+003,9.954987e+000
1.607284e+003,1.019806e+001
1.608249e+003,1.057985e+001
1.609213e+003,1.112289e+001
1.610177e+003,1.094185e+001
1.611141e+003,9.582260e+000
1.612106e+003,8.268188e+000
1.613070e+003,7.341187e+000
1.614034e+003,6.910583e+000
1.614998e+003,7.399185e+000
1.615963e+003,8.319916e+000
1.616927e+003,8.693375e+000
1.617891e+003,8.473724e+000
1.618855e+003,8.725189e+000
1.619820e+003,1.016217e+001
1.620784e+003,1.169360e+001
1.621748e+003,1.168695e+001
1.622712e+003,1.053249e+001
1.623677e+003,1.000674e+001
1.624641e+003,1.014514e+001
1.625605e+003,1.091624e+001
1.626569e+003,1.288029e+001
1.627533e+003,1.415166e+001
1.628498e+003,1.346907e+001
1.629462e+003,1.223303e+001
1.630426e+003,1.163547e+001
1.631390e+003,1.139444e+001
1.632354e+003,1.050726e+001
1.633319e+003,8.843292e+000
1.634283e+003,7.680801e+000
1.635247e+003,8.022461e+000
1.636211e+003,9.174271e+000
1.637176e+003,9.937851e+000
1.638140e+003,1.038016e+001
1.639104e+003,1.124522e+001
1.640068e+003,1.285945e+001
1.641033e+003,1.356276e+001
1.641997e+003,1.245039e+001
1.642961e+003,1.111000e+001
1.643925e+003,1.010280e+001
1.644890e+003,9.430710e+000
1.645854e+003,8.969894e+000
1.646818e+003,8.835922e+000
1.647782e+003,9.617111e+000
1.648747e+003,1.137221e+001
1.649711e+003,1.262453e+001
1.650675e+003,1.201300e+001
1.651639e+003,1.059711e+001
1.652604e+003,1.068723e+001
1.653568e+003,1.216277e+001
1.654532e+003,1.261566e+001
1.655496e+003,1.164719e+001
1.656460e+003,1.064223e+001
1.657425e+003,9.782944e+000
1.658389e+003,9.321991e+000
1.659353e+003,9.634186e+000
1.660317e+003,1.017990e+001
1.661281e+003,1.046484e+001
1.662246e+003,1.042882e+001
1.663210e+003,1.022984e+001
1.664174e+003,9.924103e+000
1.665138e+003,9.036285e+000
1.666103e+003,6.730453e+000
1.667067e+003,4.187408e+000
1.668031e+003,4.214539e+000
1.668995e+003,6.605423e+000
1.669960e+003,8.026855e+000
1.670924e+003,8.077560e+000
1.671888e+003,7.955811e+000
1.672852e+003,8.069366e+000
1.673817e+003,7.945068e+000
1.674781e+003,6.922775e+000
1.675745e+003,5.778046e+000
1.676709e+003,5.627029e+000
1.677674e+003,6.106949e+000
1.678638e+003,5.662598e+000
1.679602e+003,3.837051e+000
1.680566e+003,2.567749e+000
1.681531e+003,3.676987e+000
1.682495e+003,5.878036e+000
1.683459e+003,7.024521e+000
1.684423e+003,7.184326e+000
1.685387e+003,6.979050e+000
1.686352e+003,6.450180e+000
1.687316e+003,5.819885e+000
1.688280e+003,5.140579e+000
1.689244e+003,4.396255e+000
1.690208e+003,3.262817e+000
1.691173e+003,2.247009e+000
1.692137e+003,1.996124e+000
1.693101e+003,2.430817e+000
1.694065e+003,3.206894e+000
1.695030e+003,4.211090e+000
1.695994e+003,4.827774e+000
1.696958e+003,4.518707e+000
1.697922e+003,3.893356e+000
1.698887e+003,3.863754e+000
1.699851e+003,4.134933e+000
1.700815e+003,3.524185e+000
1.701779e+003,1.939545e+000
1.702744e+003,1.022873e+000
1.703708e+003,1.522400e+000
1.704672e+003,2.139709e+000
1.705636e+003,1.816879e+000
1.706601e+003,1.036133e+000
1.707565e+003,3.864899e-001
1.708529e+003,2.340698e-002
1.709493e+003,6.698303e-001
1.710458e+003,2.620697e+000
1.711422e+003,3.442154e+000
1.712386e+003,8.456573e-001
1.713350e+003,-1.574417e+000
1.714314e+003,-8.575439e-002
1.715279e+003,2.846390e+000
1.716243e+003,2.625992e+000
1.717207e+003,-2.398682e-001
1.718171e+003,-1.393036e+000
1.719135e+003,3.822021e-001
1.720100e+003,1.965591e+000
1.721064e+003,1.176086e+000
1.722028e+003,-6.037903e-001
1.722992e+003,-1.516693e+000
1.723957e+003,-1.548462e+000
1.724921e+003,-9.405670e-001
1.725885e+003,3.409882e-001
1.726849e+003,1.306091e+000
1.727814e+003,1.868546e+000
1.728778e+003,2.235550e+000
1.729742e+003,2.610306e+000
1.730706e+003,2.681549e+000
1.731671e+003,1.612823e+000
1.732635e+003,7.525635e-002
1.733599e+003,-3.230286e-002
1.734563e+003,1.321198e+000
1.735528e+003,1.796463e+000
1.736492e+003,1.348419e-001
1.737456e+003,-2.041504e+000
1.738420e+003,-2.847023e+000
1.739385e+003,-2.592560e+000
1.740349e+003,-2.209221e+000
1.741313e+003,-1.617958e+000
1.742277e+003,-1.067680e+000
1.743241e+003,-2.750854e-001
1.744206e+003,1.455994e-001
1.745170e+003,-9.272766e-002
1.746134e+003,-5.474548e-001
1.747098e+003,-8.785019e-001
1.748063e+003,-1.373001e+000
1.749027e+003,-2.919601e+000
1.749991e+003,-4.829079e+000
1.750955e+003,-5.048851e+000
1.751919e+003,-3.168762e+000
1.752884e+003,-1.349808e+000
1.753848e+003,-1.396210e+000
1.754812e+003,-2.289680e+000
1.755776e+003,-1.857857e+000
1.756741e+003,-1.129913e-001
1.757705e+003,6.430969e-001
1.758669e+003,-1.596527e-001
1.759633e+003,-4.125366e-001
1.760598e+003,7.897034e-001
1.761562e+003,1.444290e+000
1.762526e+003,5.440063e-001
1.763490e+003,-5.471344e-001
1.764455e+003,-9.408722e-001
1.765419e+003,-8.248444e-001
1.766383e+003,-8.031616e-001
1.767347e+003,-8.155136e-001
1.768312e+003,2.697449e-001
1.769276e+003,3.016838e+000
1.770240e+003,4.994736e+000
1.771204e+003,3.343056e+000
1.772168e+003,-3.373642e-001
1.773133e+003,-2.757210e+000
1.774097e+003,-3.959862e+000
1.775061e+003,-4.102127e+000
1.776025e+003,-3.074486e+000
1.776990e+003,-2.432358e+000
1.777954e+003,-2.950462e+000
1.778918e+003,-3.158905e+000
1.779882e+003,-1.482582e+000
1.780846e+003,5.722733e-001
1.781811e+003,9.125519e-001
1.782775e+003,-1.068115e-003
1.783739e+003,-6.794891e-001
1.784703e+003,-8.710251e-001
1.785668e+003,-1.132652e+000
1.786632e+003,-1.998817e+000
1.787596e+003,-2.742683e+000
1.788560e+003,-2.676407e+000
1.789525e+003,-2.120033e+000
1.790489e+003,-1.610069e+000
1.791453e+003,-1.118713e+000
1.792417e+003,-2.406006e-001
1.793382e+003,1.054832e+000
1.794346e+003,2.146080e+000
1.795310e+003,2.682831e+000
1.796274e+003,3.219948e+000
1.797239e+003,4.636398e+000
1.798203e+003,6.283966e+000
1.799167e+003,5.629234e+000
1.800131e+003,1.947861e+000
1.801095e+003,-6.660461e-002
1.802060e+003,1.128189e+000
1.803024e+003,1.609596e+000
1.803988e+003,-6.734467e-002
1.804952e+003,-1.297562e+000
1.805917e+003,-2.868271e-001
1.806881e+003,1.281883e+000
1.807845e+003,1.769577e+000
1.808809e+003,1.400368e+000
1.809773e+003,8.728943e-001
1.810738e+003,5.000153e-001
1.811702e+003,6.527481e-001
1.812666e+003,1.526413e+000
1.813630e+003,2.190323e+000
1.814595e+003,1.219948e+000
1.815559e+003,-7.970200e-001
1.816523e+003,-1.262604e+000
1.817487e+003,-1.364136e-002
1.818452e+003,1.216705e+000
1.819416e+003,2.677010e+000
1.820380e+003,3.297134e+000
1.821344e+003,2.287064e+000
1.822309e+003,9.544449e-001
1.823273e+003,-3.643036e-001
1.824237e+003,-1.199638e+000
1.825201e+003,-7.680740e-001
1.826166e+003,4.472427e-001
1.827130e+003,1.277435e+000
1.828094e+003,1.486885e+000
1.829058e+003,1.217361e+000
1.830022e+003,3.978043e-001
1.830987e+003,-4.826050e-001
1.831951e+003,-9.991150e-001
1.832915e+003,-1.342209e+000
1.833879e+003,-2.089714e+000
1.834844e+003,-2.870544e+000
1.835808e+003,-2.291649e+000
1.836772e+003,-3.058090e-001
1.837736e+003,1.370697e+000
1.838700e+003,1.952682e+000
1.839665e+003,2.280746e+000
1.840629e+003,3.215981e+000
1.841593e+003,4.211273e+000
1.842557e+003,3.915169e+000
1.843522e+003,2.355576e+000
1.844486e+003,1.912064e+000
1.845450e+003,3.871300e+000
1.846414e+003,4.600113e+000
1.847379e+003,3.072235e+000
1.848343e+003,1.529076e+000
1.849307e+003,1.020432e-001
1.850271e+003,-5.130920e-001
1.851236e+003,1.249886e+000
1.852200e+003,3.478065e+000
1.853164e+003,3.027969e+000
1.854128e+003,3.835831e-001
1.855093e+003,-1.323921e+000
1.856057e+003,-9.419937e-001
1.857021e+003,-3.274155e-001
1.857985e+003,-1.099922e+000
1.858949e+003,-2.382027e+000
1.859914e+003,-2.601700e+000
1.860878e+003,-1.930611e+000
1.861842e+003,-1.493149e+000
1.862806e+003,-1.329704e+000
1.863771e+003,-5.947800e-001
1.864735e+003,1.144821e+000
1.865699e+003,1.901237e+000
1.866663e+003,3.500214e-001
1.867627e+003,-1.450424e+000
1.868592e+003,-1.686401e+000
1.869556e+003,-1.083878e+000
1.870520e+003,-9.603424e-001
1.871484e+003,-1.214638e+000
1.872449e+003,-1.133011e+000
1.873413e+003,-5.052719e-001
1.874377e+003,5.766144e-001
1.875341e+003,2.503883e+000
1.876306e+003,4.056190e+000
1.877270e+003,4.673286e+000
1.878234e+003,4.483665e+000
1.879198e+003,3.188477e+000
1.880163e+003,1.450607e+000
1.881127e+003,2.639847e-001
1.882091e+003,-1.751099e-001
1.883055e+003,1.826477e-002
1.884020e+003,7.295303e-001
1.884984e+003,1.725548e+000
1.885948e+003,2.835732e+000
1.886912e+003,3.582153e+000
1.887876e+003,2.793900e+000
1.888841e+003,6.965027e-001
1.889805e+003,1.947937e-001
1.890769e+003,1.671997e+000
1.891733e+003,2.656822e+000
1.892698e+003,2.679955e+000
1.893662e+003,2.687859e+000
1.894626e+003,3.251579e+000
1.895590e+003,3.594978e+000
1.896554e+003,3.058327e+000
1.897519e+003,2.167679e+000
1.898483e+003,1.190094e+000
1.899447e+003,3.224564e-001
1.900411e+003,4.559708e-001
1.901376e+003,1.831764e+000
1.902340e+003,2.871582e+000
1.903304e+003,3.069077e+000
1.904268e+003,2.634796e+000
1.905233e+003,9.400940e-001
1.906197e+003,-5.666885e-001
1.907161e+003,1.725769e-002
1.908125e+003,1.706146e+000
1.909090e+003,2.519554e+000
1.910054e+003,2.418007e+000
1.911018e+003,2.698952e+000
1.911982e+003,3.738182e+000
1.912947e+003,4.423225e+000
1.913911e+003,3.920555e+000
1.914875e+003,2.993660e+000
1.915839e+003,2.821365e+000
1.916803e+003,3.195808e+000
1.917768e+003,3.321243e+000
1.918732e+003,3.239395e+000
1.919696e+003,2.843803e+000
1.920660e+003,1.890022e+000
1.921625e+003,1.430237e+000
1.922589e+003,1.775589e+000
1.923553e+003,2.429016e+000
1.924517e+003,3.616745e+000
1.925481e+003,4.581261e+000
1.926446e+003,4.497063e+000
1.927410e+003,3.775627e+000
1.928374e+003,2.938347e+000
1.929338e+003,2.108871e+000
1.930303e+003,2.408699e+000
1.931267e+003,4.790810e+000
1.932231e+003,6.444611e+000
1.933195e+003,5.391464e+000
1.934160e+003,3.901138e+000
1.935124e+003,3.373451e+000
1.936088e+003,3.510368e+000
1.937052e+003,4.261322e+000
1.938017e+003,5.283424e+000
1.938981e+003,6.168381e+000
1.939945e+003,6.610992e+000
1.940909e+003,5.581894e+000
1.941874e+003,2.854782e+000
1.942838e+003,9.873962e-001
1.943802e+003,2.508598e+000
1.944766e+003,5.478668e+000
1.945730e+003,5.723083e+000
1.946695e+003,3.629753e+000
1.947659e+003,2.698753e+000
1.948623e+003,2.966385e+000
1.949587e+003,4.056717e+000
1.950552e+003,6.503265e+000
1.951516e+003,7.383690e+000
1.952480e+003,4.766411e+000
1.953444e+003,2.460678e+000
1.954408e+003,3.705750e+000
1.955373e+003,6.059494e+000
1.956337e+003,5.705513e+000
1.957301e+003,3.708290e+000
1.958265e+003,4.019211e+000
1.959230e+003,7.166611e+000
1.960194e+003,8.829765e+000
1.961158e+003,7.269753e+000
1.962122e+003,5.739456e+000
1.963087e+003,5.012054e+000
1.964051e+003,4.623802e+000
1.965015e+003,4.354225e+000
1.965979e+003,4.361938e+000
1.966944e+003,5.067474e+000
1.967908e+003,5.957130e+000
1.968872e+003,6.138222e+000
1.969836e+003,5.588623e+000
1.970801e+003,4.839386e+000
1.971765e+003,4.163460e+000
1.972729e+003,3.820869e+000
1.973693e+003,4.037529e+000
1.974657e+003,4.655197e+000
1.975622e+003,5.671989e+000
1.976586e+003,6.781784e+000
1.977550e+003,7.064133e+000
1.978514e+003,6.707306e+000
1.979479e+003,6.892921e+000
1.980443e+003,7.724106e+000
1.981407e+003,8.029701e+000
1.982371e+003,7.383614e+000
1.983335e+003,6.351112e+000
1.984300e+003,5.234322e+000
1.985264e+003,4.335602e+000
1.986228e+003,4.167900e+000
1.987192e+003,4.680183e+000
1.988157e+003,5.714111e+000
1.989121e+003,7.642822e+000
1.990085e+003,8.175186e+000
1.991049e+003,6.011330e+000
1.992014e+003,5.163780e+000
1.992978e+003,7.630096e+000
1.993942e+003,9.317978e+000
1.994906e+003,8.249748e+000
1.995871e+003,6.532623e+000
1.996835e+003,5.104828e+000
1.997799e+003,4.404648e+000
1.998763e+003,5.452179e+000
1.999728e+003,7.706123e+000
